
 $NMID
 id='ANONYMOUS ', fmtdat='(2E16.6)'
 volume=1.0
 tramp=1.0
 $END
  -2.552378e+03   2.445702e+01
  -1.623630e+03  -1.124462e+03
  -1.938566e+02  -1.590619e+03
   9.096512e+02  -1.131663e+03
   8.666015e+02  -3.578486e+02
   1.763624e+02   1.252727e+02
  -2.523805e+02  -8.380795e+00
  -7.757974e+01  -3.799928e+02
   3.185006e+02  -4.661240e+02
   5.015481e+02  -1.018809e+02
   3.016035e+02   3.694184e+02
   2.244706e+01   5.275305e+02
  -2.268311e+02   1.806971e+02
  -2.075286e+02  -3.350016e+02
   2.200874e+01  -4.466794e+02
   3.226540e+02  -9.117902e+01
   2.721452e+02   4.008687e+02
  -8.153259e+01   5.453476e+02
  -3.977873e+02   2.652090e+02
  -4.027023e+02  -1.315438e+02
  -1.290964e+02  -3.186715e+02
   7.172798e+01  -2.069337e+02
   3.263605e+01  -7.540591e+01
  -1.673531e+02  -1.393680e+02
  -2.028558e+02  -2.799516e+02
   6.307066e+01  -3.038348e+02
   4.082025e+02  -8.975960e+01
   4.746118e+02   2.108914e+02
   1.467666e+02   2.811033e+02
  -2.701624e+02   1.280287e+02
  -3.957225e+02  -1.401429e+02
  -1.278189e+02  -3.124187e+02
   2.325760e+02  -2.794038e+02
   3.796262e+02  -9.325801e+01
   2.585052e+02   1.391958e+02
   8.204865e+01   2.517650e+02
   1.954504e+01   1.454179e+02
   9.068207e+01  -5.808569e+01
   1.710540e+02  -8.734558e+01
   1.294882e+02   1.535157e+02
  -2.487071e+01   4.061806e+02
  -1.975310e+02   3.296687e+02
  -2.387602e+02  -7.289988e-01
  -9.260403e+01  -2.173453e+02
   9.830675e+01  -9.227046e+01
   1.117285e+02   2.055784e+02
  -1.056343e+02   2.899589e+02
  -3.614222e+02   3.812571e+01
  -4.005815e+02  -3.087279e+02
  -1.478890e+02  -4.255848e+02
   2.451327e+02  -2.356058e+02
   4.488723e+02   4.025793e+01
   3.068751e+02   1.953345e+02
  -2.479328e+01   1.793460e+02
  -2.221991e+02   8.441015e+01
  -1.878001e+02   1.185186e+01
  -4.382182e+01  -1.028393e+01
   1.857094e+01   1.242088e+01
  -5.255116e+01   1.631412e+01
  -1.522259e+02  -2.919875e+01
  -1.052532e+02  -1.283253e+02
   1.097829e+02  -2.070486e+02
   3.010848e+02  -1.286253e+02
   2.529832e+02   9.752917e+01
  -2.401700e+01   3.195679e+02
  -2.786415e+02   3.395056e+02
  -3.472638e+02   1.241730e+02
  -2.079848e+02  -1.591688e+02
  -4.280220e+01  -3.074921e+02
   2.407474e+01  -2.665383e+02
   1.163237e+01  -1.569492e+02
   3.738366e+01  -1.178452e+02
   1.439792e+02  -1.098423e+02
   2.325395e+02  -2.924388e+01
   2.044232e+02   1.284748e+02
   6.583724e+01   2.320829e+02
  -9.344303e+01   1.560572e+02
  -1.663449e+02  -4.814468e+01
  -1.107895e+02  -2.113759e+02
   4.836005e+01  -2.136933e+02
   2.101480e+02  -5.216097e+01
   2.602285e+02   1.484530e+02
   1.539244e+02   2.585890e+02
  -3.410637e+01   2.335803e+02
  -1.366186e+02   1.468181e+02
  -1.274148e+02   8.859716e+01
  -1.357772e+02   7.860260e+01
  -2.675304e+02   4.284149e+01
  -3.809381e+02  -8.926847e+01
  -2.839709e+02  -2.836080e+02
   3.764994e+01  -4.055377e+02
   3.386206e+02  -3.455122e+02
   4.146538e+02  -1.263181e+02
   2.392024e+02   1.066878e+02
   6.067505e+00   2.168807e+02
  -7.739797e+01   1.653454e+02
   8.516743e+00   3.740307e+01
   1.030197e+02  -7.451438e+00
   8.388319e+01   4.847602e+01
  -9.845436e+00   1.139133e+02
  -7.332815e+01   7.786464e+01
  -7.078675e+01  -4.557652e+01
   3.901645e+01  -9.733847e+01
   1.374250e+02   7.388361e+00
   1.274991e+02   2.040752e+02
  -2.585013e+01   3.019300e+02
  -2.259553e+02   1.885386e+02
  -3.300641e+02  -6.574968e+01
  -2.534268e+02  -2.492540e+02
  -3.900673e+01  -2.533387e+02
   1.277677e+02  -1.166561e+02
   1.265055e+02   3.059638e+00
   1.760033e+01   1.043996e+01
  -4.168000e+01  -6.527236e+01
   1.268692e+01  -1.040670e+02
   1.164183e+02  -5.178750e+01
   1.264626e+02   3.406097e+01
   2.564464e+01   5.090686e+01
  -7.272741e+01  -1.479487e+01
  -2.958816e+01  -8.845195e+01
   1.391701e+02  -7.914288e+01
   2.678640e+02   2.623543e+01
   2.201047e+02   1.706514e+02
   9.078889e+00   2.406227e+02
  -1.924692e+02   1.939420e+02
  -2.282402e+02   7.234317e+01
  -1.091261e+02  -4.138050e+01
   3.191633e+01  -5.684503e+01
   5.158562e+01   1.481744e+01
  -5.699868e+01   7.029001e+01
  -1.686837e+02   2.207811e+01
  -1.712443e+02  -9.473588e+01
  -4.830198e+01  -1.647983e+02
   7.929031e+01  -1.164982e+02
   1.053170e+02  -7.524584e+00
   2.906425e+01   3.327411e+01
  -4.534424e+01  -2.820240e+01
  -2.022122e+01  -1.123406e+02
   9.842896e+01  -1.107837e+02
   1.940251e+02  -2.467562e+00
   1.559582e+02   1.277519e+02
  -1.366731e+00   1.853137e+02
  -1.405250e+02   1.243887e+02
  -1.503984e+02   2.042464e+00
  -4.579588e+01  -8.444263e+01
   5.553835e+01  -8.524160e+01
   6.141317e+01  -2.064807e+01
  -1.255096e+00   2.266596e+01
  -3.936143e+01   7.676429e+00
   2.017870e+00  -2.819316e+01
   8.528960e+01  -7.552698e+00
   1.013073e+02   8.465173e+01
   7.978276e+00   1.624037e+02
  -1.381026e+02   1.336841e+02
  -2.157738e+02  -2.323204e+00
  -1.612277e+02  -1.519633e+02
  -2.212264e+01  -2.060466e+02
   9.444855e+01  -1.365248e+02
   1.172551e+02  -2.441765e+01
   6.864513e+01   4.197455e+01
   3.079965e+01   2.569439e+01
   4.604025e+01  -1.927741e+01
   7.823935e+01  -9.440106e+00
   5.239972e+01   5.523096e+01
  -3.910945e+01   1.016723e+02
  -1.176066e+02   6.558352e+01
  -1.045025e+02  -4.633535e+01
   1.736102e+01  -1.257536e+02
   1.578936e+02  -8.162042e+01
   1.911636e+02   6.450477e+01
   6.808576e+01   2.009249e+02
  -1.229644e+02   2.056553e+02
  -2.231683e+02   8.285336e+01
  -2.148119e+02  -8.958909e+01
  -8.469575e+01  -1.538947e+02
   4.253089e+01  -1.159957e+02
   8.463620e+01  -6.036884e+01
   6.211514e+01  -5.249975e+01
   4.585808e+01  -7.985053e+01
   7.864804e+01  -7.520576e+01
   1.186856e+02   1.168022e+01
   1.069019e+02   1.416119e+02
   1.926750e+01   2.022812e+02
  -9.934056e+01   1.468059e+02
  -1.564102e+02   5.843915e+00
  -1.097995e+02  -1.196243e+02
   9.264461e-01  -1.424947e+02
   7.635128e+01  -6.729359e+01
   5.857903e+01   2.160318e+01
  -6.179071e+00   5.456330e+01
  -3.252676e+01   3.343721e+01
   1.618410e+01   9.149793e+00
   7.293195e+01   1.245305e+01
   4.629026e+01   3.574603e+01
  -6.689670e+01   3.779328e+01
  -1.550679e+02  -2.342335e+00
  -1.245910e+02  -6.494788e+01
   8.017212e+00  -9.536993e+01
   1.239272e+02  -6.202711e+01
   1.293519e+02   5.905041e+00
   3.784799e+01   5.411319e+01
  -5.482195e+01   4.156902e+01
  -7.284267e+01  -1.433746e+01
  -2.217095e+01  -6.968757e+01
   3.847175e+01  -6.128790e+01
   6.513295e+01  -1.767198e+00
   5.512935e+01   4.803375e+01
   3.904339e+01   3.899261e+01
   3.976648e+01  -3.284380e+00
   5.668640e+01  -4.471271e+00
   4.633607e+01   6.244947e+01
  -1.796657e+01   1.338320e+02
  -1.134946e+02   1.335580e+02
  -1.694757e+02   2.541856e+01
  -1.174232e+02  -9.139583e+01
   3.134635e+00  -1.270628e+02
   8.936942e+01  -6.571151e+01
   5.949167e+01   1.199153e+01
  -4.522648e+01   2.177885e+01
  -1.169789e+02  -3.447842e+01
  -5.856171e+01  -9.230300e+01
   7.633641e+01  -9.461053e+01
   1.659790e+02  -3.268724e+01
   1.357872e+02   4.253668e+01
   2.468707e+01   7.970235e+01
  -5.956238e+01   5.274377e+01
  -4.342230e+01  -7.868570e+00
   3.589673e+01  -3.078993e+01
   8.127606e+01   1.797314e+01
   3.576407e+01   1.034386e+02
  -6.771210e+01   1.356813e+02
  -1.371169e+02   6.325122e+01
  -1.115426e+02  -8.024405e+01
  -1.759358e+01  -1.685672e+02
   6.911495e+01  -1.257649e+02
   9.424495e+01   1.216991e+01
   4.739144e+01   1.109938e+02
  -1.415048e+01   9.155169e+01
  -4.990079e+01   8.400671e+00
  -3.631134e+01  -3.025598e+01
  -1.028412e+01  -4.419506e+00
  -5.679563e+00   1.788292e+01
  -3.430749e+01  -1.951140e+01
  -5.517994e+01  -8.271407e+01
  -2.751262e+01  -9.701652e+01
   5.618947e+01  -4.081226e+01
   1.227399e+02   3.310493e+01
   1.076239e+02   6.358392e+01
   1.696023e+01   5.013452e+01
  -7.124006e+01   2.383713e+01
  -7.791834e+01   4.840007e+00
  -1.709114e+01  -1.323403e+01
   3.036306e+01  -2.033784e+01
   2.248545e+01  -9.378360e+00
  -8.709661e+00   4.649317e+00
   3.604317e+00   4.405020e+00
   5.765500e+01  -2.864972e+00
   8.512107e+01   1.941708e+01
   2.601779e+01   7.890170e+01
  -9.064963e+01   1.187958e+02
  -1.744949e+02   7.434127e+01
  -1.519262e+02  -4.753101e+01
  -4.107071e+01  -1.514340e+02
   6.959383e+01  -1.519197e+02
   1.096075e+02  -6.608478e+01
   7.772815e+01   1.866412e+01
   2.512601e+01   3.999210e+01
   2.303791e+00   1.481335e+01
   1.281700e+01   9.463128e+00
   2.673785e+01   4.572662e+01
   1.400035e+01   8.250191e+01
  -2.833425e+01   6.445743e+01
  -7.239715e+01  -1.181717e+01
  -7.781186e+01  -9.236944e+01
  -1.833414e+01  -1.024035e+02
   6.637829e+01  -3.542417e+01
   1.001566e+02   5.149489e+01
   4.107285e+01   9.259661e+01
  -5.682556e+01   6.262016e+01
  -9.698962e+01  -4.823248e+00
  -4.347421e+01  -5.644348e+01
   3.252728e+01  -5.811089e+01
   3.965753e+01  -2.524596e+01
  -1.893997e+01   8.878132e+00
  -6.182663e+01   9.530839e+00
  -2.117579e+01  -2.755744e+01
   6.714682e+01  -6.234211e+01
   1.094131e+02  -5.084197e+01
   6.990449e+01   1.688238e+01
  -5.854858e+00   7.792394e+01
  -4.867188e+01   7.632732e+01
  -4.208034e+01   1.355100e+01
  -7.043195e+00  -4.498697e+01
   2.158382e+01  -4.224961e+01
   3.458388e+01   8.788414e+00
   2.447647e+01   5.037167e+01
  -3.069174e+00   3.819056e+01
  -3.140684e+01  -2.262130e+00
  -3.808192e+01  -2.379500e+01
  -1.730066e+01  -6.236227e+00
   5.014550e+00   1.893449e+01
   3.629032e+00   1.148389e+01
  -9.106888e+00  -2.586669e+01
  -4.359608e+00  -4.917606e+01
   2.292014e+01  -2.537910e+01
   4.159916e+01   2.805000e+01
   1.609801e+01   5.306165e+01
  -3.683880e+01   2.446402e+01
  -6.341371e+01  -2.993347e+01
  -2.087923e+01  -5.721522e+01
   5.330944e+01  -3.704162e+01
   9.177736e+01   8.100130e+00
   4.953056e+01   4.133332e+01
  -2.678729e+01   4.551359e+01
  -6.404517e+01   2.875626e+01
  -2.922925e+01   4.184634e+00
   2.388441e+01  -8.485912e+00
   3.138671e+01   1.029509e+00
  -1.749617e+01   2.377752e+01
  -6.795449e+01   2.158537e+01
