
 $NMID
 id='ANONYMOUS ', fmtdat='(2E16.6)'
 volume=1.0
 tramp=1.0
 $END
  -2.289057e+03  -2.278410e+02
  -1.416506e+03  -1.171559e+03
   1.337605e+01  -1.386540e+03
   8.567983e+02  -8.654786e+02
   6.628447e+02  -2.551974e+02
   1.142580e+02   6.869768e+01
  -1.941917e+02  -3.208752e+01
  -2.008549e+01  -3.807486e+02
   3.068555e+02  -4.297119e+02
   4.682717e+02  -8.688094e+01
   3.546473e+02   3.862852e+02
   5.608515e+01   4.884644e+02
  -1.744919e+02   1.426461e+02
  -1.638884e+02  -2.873594e+02
   1.086817e+01  -3.844712e+02
   2.766524e+02  -5.730748e+01
   2.197124e+02   3.809698e+02
  -9.503244e+01   5.074600e+02
  -3.786331e+02   2.490622e+02
  -3.801194e+02  -1.153895e+02
  -1.229150e+02  -2.758549e+02
   7.981492e+01  -2.037043e+02
   2.776116e+01  -1.035523e+02
  -1.697386e+02  -1.376659e+02
  -1.934908e+02  -2.705581e+02
   8.541142e+01  -2.828900e+02
   4.123990e+02  -5.384976e+01
   4.617613e+02   2.194553e+02
   1.535699e+02   2.626729e+02
  -2.457785e+02   1.188933e+02
  -3.500090e+02  -1.123804e+02
  -1.240723e+02  -2.606788e+02
   2.051017e+02  -2.526396e+02
   3.367867e+02  -7.857283e+01
   2.367312e+02   1.283265e+02
   7.597174e+01   2.118975e+02
   2.793902e+01   1.062444e+02
   9.062051e+01  -4.304681e+01
   1.347730e+02  -3.168036e+01
   8.437108e+01   1.529917e+02
  -7.604072e+01   3.340757e+02
  -1.947851e+02   2.850883e+02
  -1.994778e+02  -1.582617e+01
  -6.915185e+01  -2.091596e+02
   9.004602e+01  -8.012988e+01
   9.462787e+01   2.028011e+02
  -1.001284e+02   2.638992e+02
  -3.211745e+02   2.404761e+01
  -3.437276e+02  -2.906217e+02
  -1.007138e+02  -3.774715e+02
   2.243272e+02  -1.822613e+02
   3.876657e+02   5.701547e+01
   2.737430e+02   1.796972e+02
  -2.060024e+01   1.574615e+02
  -2.100431e+02   6.995439e+01
  -1.827573e+02   1.023190e+01
  -3.834955e+01  -2.327000e+00
   1.368816e+01   1.805197e+01
  -7.498487e+01   2.141591e+01
  -1.599785e+02  -3.744161e+01
  -9.399247e+01  -1.493848e+02
   1.160073e+02  -1.955104e+02
   2.800945e+02  -1.170213e+02
   2.204467e+02   8.351186e+01
  -4.143599e+01   2.712251e+02
  -2.632161e+02   2.849389e+02
  -2.902218e+02   1.006733e+02
  -1.486108e+02  -1.443646e+02
  -3.009514e+00  -2.621409e+02
   3.920321e+01  -2.183747e+02
  -3.239327e+00  -1.341325e+02
   2.310056e+01  -1.048469e+02
   1.351174e+02  -1.016336e+02
   2.254836e+02  -2.105528e+01
   1.848786e+02   1.181963e+02
   4.788411e+01   2.090027e+02
  -8.920332e+01   1.361687e+02
  -1.410933e+02  -5.646220e+01
  -8.078824e+01  -2.028975e+02
   6.123261e+01  -1.819738e+02
   1.998915e+02  -1.593948e+01
   2.206239e+02   1.620062e+02
   1.074790e+02   2.347846e+02
  -4.153051e+01   1.853238e+02
  -1.186724e+02   1.122468e+02
  -1.183089e+02   7.008058e+01
  -1.269650e+02   7.635333e+01
  -2.282547e+02   4.035102e+01
  -3.317400e+02  -7.765473e+01
  -2.472108e+02  -2.444078e+02
   3.480135e+01  -3.413960e+02
   3.074638e+02  -2.876862e+02
   3.583505e+02  -1.023077e+02
   2.010503e+02   8.774786e+01
  -4.623526e+00   1.820488e+02
  -7.256534e+01   1.303013e+02
   8.460676e+00   2.970533e+01
   9.337560e+01  -6.023420e+00
   7.902001e+01   4.170215e+01
  -1.601600e+01   9.231490e+01
  -6.048815e+01   6.387413e+01
  -5.346172e+01  -4.897201e+01
   3.233462e+01  -9.342895e+01
   1.151970e+02   2.101709e+01
   1.001791e+02   1.924071e+02
  -3.008012e+01   2.716176e+02
  -2.046995e+02   1.508827e+02
  -2.914156e+02  -6.990627e+01
  -2.139453e+02  -2.285516e+02
  -3.486288e+01  -2.257557e+02
   1.092849e+02  -9.997591e+01
   1.143163e+02  -9.914156e-01
   2.233160e+01   6.742019e+00
  -3.293533e+01  -5.820131e+01
   1.868890e+01  -8.507864e+01
   1.034167e+02  -3.302305e+01
   1.042886e+02   3.386598e+01
   1.067350e+01   4.215372e+01
  -6.530415e+01  -2.467285e+01
  -2.058075e+01  -8.402100e+01
   1.316205e+02  -6.501130e+01
   2.463308e+02   3.848383e+01
   1.960980e+02   1.524810e+02
   5.243398e+00   2.159569e+02
  -1.789785e+02   1.780729e+02
  -2.072835e+02   7.257548e+01
  -1.011364e+02  -3.515365e+01
   2.210736e+01  -5.380391e+01
   3.576340e+01   6.790087e+00
  -5.691537e+01   5.243566e+01
  -1.520385e+02   9.319167e+00
  -1.357982e+02  -9.392377e+01
  -2.769271e+01  -1.481290e+02
   8.160783e+01  -9.825825e+01
   9.853530e+01  -5.126305e+00
   2.905516e+01   2.773081e+01
  -3.767157e+01  -2.655363e+01
  -9.505220e+00  -9.435585e+01
   9.235782e+01  -8.712699e+01
   1.732675e+02   6.065227e+00
   1.323633e+02   1.195967e+02
  -5.933063e+00   1.649095e+02
  -1.287453e+02   1.115834e+02
  -1.329962e+02   2.069709e+00
  -3.749933e+01  -7.211163e+01
   5.171027e+01  -6.981716e+01
   5.137650e+01  -1.573450e+01
  -9.751205e+00   1.436142e+01
  -3.784315e+01   2.893082e-01
   1.175120e+01  -2.784783e+01
   8.301208e+01  -5.970856e-02
   8.953774e+01   8.146237e+01
   4.471213e-03   1.467171e+02
  -1.279819e+02   1.141476e+02
  -1.906802e+02  -6.466254e+00
  -1.374220e+02  -1.336784e+02
  -1.173712e+01  -1.737842e+02
   8.172419e+01  -1.138180e+02
   9.471272e+01  -1.480020e+01
   5.246450e+01   3.396138e+01
   2.763606e+01   1.366172e+01
   4.793671e+01  -2.306625e+01
   7.715916e+01  -4.162887e+00
   5.149089e+01   5.398348e+01
  -3.616083e+01   9.967086e+01
  -1.093684e+02   5.842932e+01
  -8.802180e+01  -4.233767e+01
   2.499621e+01  -1.085387e+02
   1.414944e+02  -6.123534e+01
   1.574332e+02   7.072263e+01
   4.355547e+01   1.736573e+02
  -1.248651e+02   1.612190e+02
  -2.031371e+02   5.848843e+01
  -1.771491e+02  -8.714994e+01
  -6.402742e+01  -1.337908e+02
   3.280022e+01  -1.017349e+02
   6.551075e+01  -6.203651e+01
   5.533043e+01  -6.222535e+01
   5.240234e+01  -7.610719e+01
   7.766018e+01  -5.688871e+01
   1.061447e+02   2.414001e+01
   8.361374e+01   1.291827e+02
   1.099381e+00   1.772052e+02
  -9.184024e+01   1.199502e+02
  -1.304948e+02  -7.664939e+00
  -8.416814e+01  -1.084826e+02
   5.759283e+00  -1.205640e+02
   6.416190e+01  -5.490934e+01
   4.521933e+01   1.733820e+01
  -7.222558e+00   4.491725e+01
  -2.297863e+01   2.931767e+01
   2.309589e+01   1.194030e+01
   6.826668e+01   1.797850e+01
   3.838549e+01   3.349406e+01
  -6.419763e+01   2.932865e+01
  -1.446263e+02  -7.354377e+00
  -1.126145e+02  -5.574500e+01
   1.308501e+01  -8.156879e+01
   1.193618e+02  -5.143622e+01
   1.168705e+02   3.212114e+00
   2.800418e+01   4.372668e+01
  -5.161736e+01   3.445813e+01
  -5.736867e+01  -1.590307e+01
  -1.213017e+01  -5.856046e+01
   3.479166e+01  -5.156265e+01
   5.427313e+01   4.945871e-01
   4.625419e+01   4.407754e+01
   4.236916e+01   3.548265e+01
   4.835283e+01   1.472683e+00
   5.603344e+01   5.377064e+00
   3.363550e+01   6.603306e+01
  -2.987464e+01   1.242777e+02
  -1.100447e+02   1.128496e+02
  -1.494647e+02   1.529330e+01
  -9.994881e+01  -8.550966e+01
   7.478319e+00  -1.091373e+02
   7.819485e+01  -5.129726e+01
   4.728602e+01   1.326254e+01
  -4.789412e+01   1.293780e+01
  -1.060377e+02  -4.118038e+01
  -5.044288e+01  -8.843815e+01
   7.155991e+01  -8.110587e+01
   1.455597e+02  -1.808559e+01
   1.160487e+02   3.850651e+01
   2.001026e+01   6.131938e+01
  -4.946050e+01   4.082539e+01
  -3.463958e+01  -1.161690e+00
   3.574940e+01  -2.065713e+01
   7.198670e+01   2.086088e+01
   2.547812e+01   9.542664e+01
  -6.816056e+01   1.214241e+02
  -1.246800e+02   4.932750e+01
  -9.554950e+01  -7.804657e+01
  -7.201651e+00  -1.494075e+02
   6.514828e+01  -1.053974e+02
   7.740527e+01   1.202231e+01
   3.716989e+01   9.095927e+01
  -1.146609e+01   7.319748e+01
  -3.743487e+01   7.658069e+00
  -3.039043e+01  -2.385138e+01
  -1.001457e+01  -1.849737e+00
  -7.083497e+00   1.239117e+01
  -2.737095e+01  -2.097127e+01
  -4.307752e+01  -7.399744e+01
  -1.600817e+01  -8.043806e+01
   5.215434e+01  -3.016013e+01
   1.072865e+02   3.649497e+01
   8.672179e+01   5.948825e+01
   8.296985e+00   4.021115e+01
  -6.421976e+01   1.422522e+01
  -6.438553e+01  -2.492650e+00
  -1.155082e+01  -1.065671e+01
   2.751415e+01  -1.532447e+01
   1.555799e+01  -6.859160e+00
  -1.054859e+01   3.025577e+00
   2.750229e+00   2.904662e+00
   5.318977e+01  -1.437568e+00
   7.377613e+01   1.872077e+01
   1.827709e+01   6.432181e+01
  -8.673263e+01   9.205315e+01
  -1.525544e+02   5.214164e+01
  -1.233560e+02  -4.702848e+01
  -2.225380e+01  -1.295308e+02
   6.614119e+01  -1.252602e+02
   9.262253e+01  -5.300427e+01
   6.313863e+01   1.397587e+01
   2.218649e+01   3.058416e+01
   7.238605e+00   1.102119e+01
   1.397047e+01   8.942365e+00
   1.955050e+01   4.510856e+01
   1.080519e+01   7.552378e+01
  -2.636472e+01   5.594281e+01
  -5.877604e+01  -1.370371e+01
  -5.962446e+01  -8.139289e+01
  -1.106584e+01  -8.472493e+01
   5.650322e+01  -2.359288e+01
   7.942357e+01   5.011565e+01
   2.853630e+01   7.995285e+01
  -5.113034e+01   4.939325e+01
  -8.182986e+01  -9.470540e+00
  -3.361913e+01  -4.947341e+01
   3.169925e+01  -4.881259e+01
   3.509827e+01  -2.185203e+01
  -1.984627e+01   5.281479e+00
  -5.291537e+01   5.821371e+00
  -1.133205e+01  -2.348670e+01
   6.591951e+01  -4.720424e+01
   9.782056e+01  -3.802451e+01
   5.608004e+01   1.904849e+01
  -1.057448e+01   6.831823e+01
  -4.667875e+01   6.605342e+01
  -3.948841e+01   1.097368e+01
  -6.168968e+00  -3.873717e+01
   1.595890e+01  -3.734284e+01
   2.649809e+01   7.137093e+00
   2.097199e+01   4.217927e+01
   1.213830e+00   3.015008e+01
  -2.498758e+01  -4.137311e+00
  -3.243775e+01  -2.078406e+01
  -1.683997e+01  -2.701737e+00
   2.086123e+00   1.814703e+01
   3.027422e+00   9.481579e+00
  -5.953840e+00  -2.681339e+01
  -9.649301e-01  -4.382721e+01
   2.171984e+01  -1.970570e+01
   3.480550e+01   2.685812e+01
   1.132980e+01   4.624723e+01
  -3.233227e+01   1.751492e+01
  -5.062271e+01  -2.778507e+01
  -1.335014e+01  -4.541523e+01
   4.808848e+01  -2.386163e+01
   7.668210e+01   1.152325e+01
   3.985060e+01   3.431683e+01
  -2.419410e+01   3.591031e+01
  -5.396027e+01   2.408697e+01
  -2.486739e+01   5.536618e+00
   2.070896e+01  -3.983456e+00
   2.462224e+01   2.075559e+00
  -1.788918e+01   1.794662e+01
  -5.629527e+01   1.663372e+01
