
 $NMID
 id='ANONYMOUS ', fmtdat='(2E16.6)'
 volume=1.0
 tramp=1.0
 $END
   1.566823e+03   3.035421e+02
   8.762678e+02   7.626469e+02
   1.508666e+01   8.609958e+02
  -5.253919e+02   6.131197e+02
  -4.137816e+02   2.217262e+02
  -1.311798e+02  -2.791661e+01
   1.010945e+02   3.000267e+01
  -5.359907e+00   2.312189e+02
  -2.164867e+02   2.889957e+02
  -3.122048e+02   6.547724e+01
  -2.407078e+02  -2.790042e+02
  -3.847380e+01  -3.421176e+02
   1.047476e+02  -9.329430e+01
   8.893495e+01   1.999866e+02
  -1.173540e+01   2.624474e+02
  -1.942663e+02   3.705926e+01
  -1.488197e+02  -2.623615e+02
   6.977020e+01  -3.680191e+02
   2.676496e+02  -1.897151e+02
   2.677328e+02   6.644459e+01
   8.833707e+01   2.092227e+02
  -5.809319e+01   1.516786e+02
  -2.299980e+01   8.075559e+01
   1.232624e+02   1.194015e+02
   1.263699e+02   2.188541e+02
  -8.902557e+01   2.098630e+02
  -3.175849e+02   2.758125e+00
  -3.378898e+02  -2.094884e+02
  -7.930737e+01  -2.196599e+02
   2.026708e+02  -5.220404e+01
   2.513751e+02   1.193216e+02
   6.644255e+01   2.009350e+02
  -1.614929e+02   1.679764e+02
  -2.369516e+02   4.828094e+01
  -1.622459e+02  -9.371575e+01
  -5.689190e+01  -1.447544e+02
  -3.895959e+01  -7.091385e+01
  -7.814867e+01   3.489161e+01
  -1.129148e+02   8.563049e+00
  -5.317575e+01  -1.340337e+02
   8.637707e+01  -2.388741e+02
   1.575256e+02  -1.884726e+02
   1.247813e+02   3.109409e+01
   1.552098e+01   1.454605e+02
  -7.453628e+01   3.526481e+01
  -5.649361e+01  -1.668391e+02
   9.466289e+01  -1.897241e+02
   2.337732e+02   6.870770e+00
   2.388129e+02   2.230747e+02
   5.240973e+01   2.613401e+02
  -1.639121e+02   1.081955e+02
  -2.577721e+02  -6.031711e+01
  -1.780008e+02  -1.325909e+02
   5.933427e+00  -9.970698e+01
   1.463352e+02  -4.746783e+01
   1.301192e+02  -1.002180e+01
   3.424977e+01  -2.922614e+00
   4.191934e+00  -6.936155e+00
   6.085296e+01   5.660670e+00
   1.000302e+02   3.204343e+01
   4.455285e+01   9.830344e+01
  -8.810327e+01   1.278373e+02
  -1.995698e+02   7.600790e+01
  -1.586554e+02  -6.398250e+01
   4.203455e+01  -2.052336e+02
   2.116697e+02  -2.161374e+02
   2.306190e+02  -6.201899e+01
   1.082203e+02   1.205878e+02
  -1.293961e+01   1.953676e+02
  -4.451647e+01   1.459953e+02
   7.755506e+00   8.639701e+01
  -3.147843e+00   7.839705e+01
  -9.983992e+01   7.212875e+01
  -1.691564e+02   6.784411e+00
  -1.320029e+02  -1.002949e+02
  -2.325732e+01  -1.580324e+02
   7.712913e+01  -9.822294e+01
   1.076000e+02   4.660212e+01
   5.723663e+01   1.577423e+02
  -5.151394e+01   1.325676e+02
  -1.483307e+02   1.738401e+00
  -1.554595e+02  -1.268227e+02
  -6.338006e+01  -1.688544e+02
   4.001534e+01  -1.242263e+02
   8.635235e+01  -7.235928e+01
   8.453945e+01  -5.296752e+01
   9.923322e+01  -5.346410e+01
   1.775704e+02  -2.163129e+01
   2.494644e+02   8.016675e+01
   1.766046e+02   1.943910e+02
  -3.564714e+01   2.467989e+02
  -2.359934e+02   1.993778e+02
  -2.678806e+02   6.118708e+01
  -1.489556e+02  -6.909129e+01
   1.100244e+01  -1.306527e+02
   6.213315e+01  -8.768098e+01
  -5.239937e+00  -1.426527e+01
  -7.465876e+01   2.555197e+00
  -5.691288e+01  -3.885564e+01
   2.415762e+01  -6.592223e+01
   4.629274e+01  -3.873185e+01
   3.313419e+01   4.061414e+01
  -2.874367e+01   6.395198e+01
  -8.220558e+01  -2.360468e+01
  -5.834938e+01  -1.430373e+02
   3.198581e+01  -1.920464e+02
   1.462105e+02  -1.040992e+02
   2.074407e+02   5.548068e+01
   1.508284e+02   1.710563e+02
   2.041387e+01   1.709767e+02
  -8.468336e+01   7.289962e+01
  -8.581013e+01  -4.063232e+00
  -2.042267e+01  -7.359418e+00
   1.964104e+01   4.237799e+01
  -1.844820e+01   6.015144e+01
  -7.636122e+01   1.665949e+01
  -7.529383e+01  -3.112636e+01
  -2.433276e+00  -3.180847e+01
   4.697800e+01   2.044521e+01
   1.187938e+01   6.300736e+01
  -9.986208e+01   4.220320e+01
  -1.761992e+02  -3.623822e+01
  -1.379591e+02  -1.180005e+02
   6.062281e+00  -1.561760e+02
   1.392839e+02  -1.205054e+02
   1.565997e+02  -4.264720e+01
   7.091896e+01   2.854210e+01
  -1.919951e+01   3.680306e+01
  -2.461301e+01  -5.201367e+00
   4.281217e+01  -3.298602e+01
   1.074748e+02  -1.075994e+00
   9.429400e+01   6.870837e+01
   1.708166e+01   1.039868e+02
  -6.104712e+01   6.517117e+01
  -7.033029e+01  -3.016699e+00
  -1.785309e+01  -2.296931e+01
   2.902852e+01   2.097816e+01
   4.875988e+00   7.093873e+01
  -7.157080e+01   5.912175e+01
  -1.241784e+02  -1.639942e+01
  -8.684168e+01  -9.279664e+01
   1.127484e+01  -1.144610e+02
   9.563067e+01  -6.820979e+01
   9.204365e+01   6.720216e+00
   2.186847e+01   5.115577e+01
  -4.064573e+01   4.382756e+01
  -3.872944e+01   6.973528e+00
   6.830317e+00  -1.050409e+01
   2.872640e+01  -3.667175e-01
  -8.687418e+00   2.082500e+01
  -6.145473e+01   3.145682e-01
  -6.563886e+01  -6.077354e+01
   2.476756e+00  -1.086827e+02
   9.578888e+01  -8.138068e+01
   1.397396e+02   1.097701e+01
   9.469373e+01   1.023214e+02
   1.487226e+00   1.233562e+02
  -6.222707e+01   7.699930e+01
  -6.695431e+01   7.413368e+00
  -3.611746e+01  -2.433145e+01
  -2.135671e+01  -1.035095e+01
  -3.533598e+01   1.512064e+01
  -5.645891e+01  -3.694006e-03
  -3.559998e+01  -3.807315e+01
   2.868250e+01  -6.807404e+01
   8.045951e+01  -3.586610e+01
   6.133281e+01   3.413646e+01
  -2.200833e+01   7.943667e+01
  -1.097512e+02   4.146276e+01
  -1.175214e+02  -5.781812e+01
  -3.419293e+01  -1.326233e+02
   9.397869e+01  -1.187529e+02
   1.529338e+02  -4.190591e+01
   1.346001e+02   6.810138e+01
   4.344907e+01   1.001217e+02
  -2.817810e+01   7.406316e+01
  -5.114024e+01   4.288409e+01
  -4.285445e+01   4.197628e+01
  -3.970738e+01   5.241418e+01
  -5.605971e+01   3.829461e+01
  -7.337924e+01  -2.109294e+01
  -5.123126e+01  -9.556071e+01
   8.405639e+00  -1.269137e+02
   6.902715e+01  -8.250555e+01
   9.119227e+01   1.073808e+01
   5.784201e+01   8.086871e+01
  -4.918381e+00   8.601778e+01
  -4.659345e+01   3.784366e+01
  -2.991156e+01  -1.337154e+01
   8.100551e+00  -3.406076e+01
   1.877987e+01  -2.241225e+01
  -1.762659e+01  -1.127443e+01
  -5.323846e+01  -1.374487e+01
  -2.816598e+01  -2.646006e+01
   5.046958e+01  -2.199026e+01
   1.096721e+02   8.417026e+00
   8.280707e+01   4.378736e+01
  -1.082278e+01   5.790559e+01
  -8.693690e+01   3.274395e+01
  -8.442222e+01  -4.567801e+00
  -2.021880e+01  -3.015196e+01
   3.870104e+01  -2.345850e+01
   4.552206e+01   9.023025e+00
   9.031490e+00   4.110210e+01
  -2.579082e+01   3.555668e+01
  -3.962251e+01  -2.382581e+00
  -3.176341e+01  -3.422567e+01
  -2.509891e+01  -2.981221e+01
  -2.869265e+01  -3.527546e+00
  -3.756228e+01  -3.298922e+00
  -2.238939e+01  -4.487049e+01
   2.558279e+01  -8.436374e+01
   8.100280e+01  -7.547253e+01
   1.066215e+02  -6.672423e+00
   6.985426e+01   6.396514e+01
  -8.281897e+00   7.820073e+01
  -5.798825e+01   3.458415e+01
  -3.256749e+01  -1.032716e+01
   3.708047e+01  -5.398245e+00
   7.570620e+01   3.526064e+01
   3.459864e+01   6.918361e+01
  -5.840514e+01   5.895323e+01
  -1.134886e+02   1.081957e+01
  -8.747953e+01  -3.129295e+01
  -1.464195e+01  -4.545424e+01
   3.868352e+01  -2.792232e+01
   2.592083e+01   2.519320e+00
  -2.514555e+01   1.323649e+01
  -4.894882e+01  -1.730480e+01
  -1.322662e+01  -6.556192e+01
   5.215888e+01  -7.871500e+01
   8.651811e+01  -2.984333e+01
   6.692661e+01   5.682136e+01
   4.656353e+00   1.089306e+02
  -4.755673e+01   8.062608e+01
  -5.560667e+01  -8.708426e+00
  -2.471345e+01  -6.830470e+01
   8.701600e+00  -5.499962e+01
   2.620891e+01  -5.452801e+00
   2.043149e+01   1.892264e+01
   7.813690e+00   3.578865e+00
   6.596058e+00  -6.753364e+00
   2.153111e+01   1.690645e+01
   3.012785e+01   5.535898e+01
   4.668433e+00   5.780719e+01
  -4.233420e+01   2.029705e+01
  -7.698023e+01  -3.129590e+01
  -5.956523e+01  -4.765267e+01
  -6.230788e+00  -3.081807e+01
   4.546933e+01  -7.758175e+00
   4.738950e+01   4.633176e+00
   1.188240e+01   7.613421e+00
  -1.958283e+01   9.874109e+00
  -1.210370e+01   5.242181e+00
   5.604765e+00  -6.947939e-01
  -2.187299e+00  -2.867388e+00
  -3.791844e+01  -2.548787e+00
  -5.334657e+01  -1.631120e+01
  -1.459561e+01  -4.461260e+01
   5.986706e+01  -6.202744e+01
   1.095682e+02  -3.517565e+01
   9.208328e+01   3.246352e+01
   1.651121e+01   9.094469e+01
  -4.830237e+01   9.067486e+01
  -6.764851e+01   3.956653e+01
  -4.597667e+01  -9.107232e+00
  -1.570269e+01  -2.116807e+01
  -6.203432e+00  -8.893278e+00
  -8.908379e+00  -7.082638e+00
  -1.013744e+01  -3.556667e+01
  -3.982304e+00  -5.144356e+01
   1.937465e+01  -3.762409e+01
   3.856281e+01   1.189446e+01
   3.991225e+01   5.730713e+01
   9.044860e+00   6.019982e+01
  -3.896469e+01   1.746681e+01
  -5.510372e+01  -3.535718e+01
  -1.964806e+01  -5.640783e+01
   3.684215e+01  -3.442132e+01
   5.706776e+01   7.375823e+00
   2.302946e+01   3.719771e+01
  -2.321429e+01   3.577266e+01
  -2.653278e+01   1.529368e+01
   1.070537e+01  -4.253305e+00
   3.487269e+01  -5.352858e+00
   8.124163e+00   1.370483e+01
  -4.607131e+01   2.897116e+01
  -6.552642e+01   2.457806e+01
  -3.857933e+01  -1.360310e+01
   8.382638e+00  -4.669785e+01
   3.432127e+01  -4.545927e+01
   2.743256e+01  -8.309019e+00
   3.257564e+00   2.713409e+01
  -1.164427e+01   2.762533e+01
  -1.956825e+01  -4.856857e+00
  -1.580499e+01  -3.174035e+01
  -1.980719e+00  -2.428152e+01
   1.804298e+01   3.097091e+00
   2.482090e+01   1.738582e+01
   1.391841e+01   3.655311e+00
  -1.196967e+00  -1.306331e+01
  -3.044189e+00  -6.713978e+00
   2.712329e+00   1.814494e+01
   1.750597e+00   3.021133e+01
  -1.420135e+01   1.360017e+01
  -2.303724e+01  -1.863499e+01
  -8.964322e+00  -3.165076e+01
   2.303141e+01  -1.243776e+01
   3.627709e+01   1.922955e+01
   9.996727e+00   3.221565e+01
  -3.541058e+01   1.730967e+01
  -5.572744e+01  -8.033494e+00
  -2.869645e+01  -2.481239e+01
   1.694334e+01  -2.554164e+01
   3.756392e+01  -1.787956e+01
   1.773910e+01  -6.125820e+00
  -1.369744e+01   2.118361e+00
  -1.600677e+01  -1.100865e+00
   1.299879e+01  -1.047450e+01
   4.025093e+01  -1.044107e+01
