
 $NMID
 id='ANONYMOUS ', fmtdat='(2E16.6)'
 volume=1.0
 tramp=1.0
 $END
  -1.157751e+03  -4.278579e+02
  -6.842269e+02  -6.590664e+02
   1.014221e+02  -5.938407e+02
   3.581621e+02  -3.747960e+02
   2.346791e+02  -1.881401e+02
   7.671673e+01  -9.022194e+01
  -3.780361e+01  -1.439381e+02
   9.679255e+01  -2.172176e+02
   2.443386e+02  -1.558509e+02
   2.353130e+02   3.746252e+01
   1.195114e+02   2.509661e+02
  -5.051856e+01   2.086823e+02
  -7.334557e+01  -1.419296e+00
   3.132546e+01  -1.733970e+02
   6.535590e+01  -1.482347e+02
   1.146192e+02   3.193258e+01
   2.530450e+01   1.961659e+02
  -9.482003e+01   2.103749e+02
  -1.667071e+02   6.941231e+01
  -1.257418e+02  -7.757525e+01
  -2.461770e+01  -1.451040e+02
   5.046947e+01  -7.201125e+01
   5.634086e+00  -2.505163e+01
  -1.139147e+02  -9.766070e+01
  -8.605169e+01  -2.031032e+02
   1.039621e+02  -1.792004e+02
   2.764620e+02   3.145553e+01
   2.435545e+02   2.270340e+02
   5.480036e+00   2.032348e+02
  -2.128205e+02  -1.106478e+01
  -1.967090e+02  -1.719204e+02
  -6.118077e+00  -1.801335e+02
   1.715819e+02  -9.379663e+01
   1.992018e+02   2.006342e+01
   9.587420e+01   1.057450e+02
   5.753228e+00   1.145079e+02
  -6.958925e+00   4.693632e+01
   5.839941e+01  -4.262753e+01
   1.130129e+02  -7.747581e+00
   4.606783e+01   1.206482e+02
  -1.035123e+02   1.896405e+02
  -1.677502e+02   1.133197e+02
  -8.760121e+01  -6.993385e+01
   3.134608e+01  -1.249103e+02
   8.528102e+01  -2.555199e+00
   1.630424e+01   1.488915e+02
  -1.130342e+02   1.316592e+02
  -1.800131e+02  -5.061333e+01
  -1.458942e+02  -2.049744e+02
   7.283545e+00  -1.964588e+02
   1.456349e+02  -4.791877e+01
   1.930841e+02   9.373537e+01
   9.791698e+01   1.248083e+02
  -4.222262e+01   4.305782e+01
  -1.239814e+02  -1.102313e+01
  -7.128298e+01  -8.650873e+00
  -1.047743e+01   1.776482e+01
  -1.607349e+01   1.460433e+01
  -6.407262e+01  -2.234354e+01
  -6.630005e+01  -6.249334e+01
  -8.117102e-01  -9.062527e+01
   8.948930e+01  -7.884615e+01
   1.501760e+02  -2.808104e+01
   1.057199e+02   6.223786e+01
  -4.235698e+01   1.474796e+02
  -1.688242e+02   1.445384e+02
  -1.831186e+02   2.921737e+01
  -7.314534e+01  -1.084334e+02
   3.353783e+01  -1.468885e+02
   5.190885e+01  -9.686885e+01
   1.653217e+00  -6.178638e+01
  -8.834059e-02  -6.693121e+01
   7.967465e+01  -5.647782e+01
   1.368960e+02   1.116864e+01
   9.610487e+01   9.898271e+01
  -2.850760e+00   1.320841e+02
  -7.807079e+01   6.252711e+01
  -7.487334e+01  -5.954022e+01
  -1.570040e+01  -1.332656e+02
   6.048692e+01  -9.667460e+01
   1.146773e+02   1.815676e+01
   1.023905e+02   1.147330e+02
   2.781255e+01   1.424150e+02
  -4.714536e+01   9.306600e+01
  -7.087397e+01   4.040003e+01
  -5.600775e+01   2.514095e+01
  -7.866239e+01   3.163794e+01
  -1.507614e+02   2.315498e+00
  -1.939787e+02  -8.623977e+01
  -1.175738e+02  -1.709011e+02
   6.690230e+01  -1.887997e+02
   2.208796e+02  -1.193186e+02
   2.144967e+02  -3.415321e+00
   9.198915e+01   8.158344e+01
  -3.653122e+01   1.019846e+02
  -6.824576e+01   5.156732e+01
   1.789774e+00  -3.839222e+00
   6.686012e+01   1.836775e+00
   4.966845e+01   4.075259e+01
  -3.078870e+01   5.447651e+01
  -4.553455e+01   2.013484e+01
  -2.400298e+01  -4.285845e+01
   3.366606e+01  -4.526486e+01
   6.399002e+01   3.256319e+01
   2.230316e+01   1.158578e+02
  -5.185291e+01   1.314376e+02
  -1.200965e+02   5.321378e+01
  -1.403184e+02  -7.029894e+01
  -8.108385e+01  -1.462212e+02
   1.537876e+01  -1.270192e+02
   7.536134e+01  -3.641341e+01
   5.870246e+01   2.098210e+01
   5.564884e+00   1.073574e+01
  -1.484266e+01  -3.845077e+01
   2.120762e+01  -4.702754e+01
   6.555437e+01  -1.030400e+00
   5.535957e+01   3.787402e+01
  -6.146219e+00   2.581316e+01
  -3.862809e+01  -2.256328e+01
  -3.848878e+00  -5.152517e+01
   8.154876e+01  -2.379550e+01
   1.333701e+02   4.490657e+01
   9.716137e+01   1.067527e+02
  -2.385806e+01   1.212637e+02
  -1.276431e+02   7.409755e+01
  -1.287852e+02   1.264664e+01
  -4.471769e+01  -3.160001e+01
   2.337711e+01  -2.206885e+01
   1.741014e+01   1.275350e+01
  -4.339537e+01   2.101186e+01
  -8.607111e+01  -1.504531e+01
  -6.358324e+01  -6.695337e+01
   4.362613e+00  -8.068729e+01
   5.574408e+01  -4.002048e+01
   5.202275e+01   1.254593e+01
   8.289241e+00   2.034176e+01
  -2.231957e+01  -1.770589e+01
   1.329095e+00  -5.513991e+01
   6.131312e+01  -3.923240e+01
   9.777126e+01   2.635416e+01
   5.735531e+01   8.324969e+01
  -2.798262e+01   8.878627e+01
  -8.503730e+01   4.004951e+01
  -6.816014e+01  -1.961588e+01
  -6.363710e+00  -4.383165e+01
   3.738098e+01  -2.770444e+01
   2.827570e+01   2.813917e-01
  -8.276076e+00   7.178674e+00
  -2.167891e+01  -1.893504e+00
   7.540431e+00  -1.376784e+01
   4.515173e+01   4.656229e+00
   4.199349e+01   5.010982e+01
  -1.397831e+01   7.981139e+01
  -8.200304e+01   4.953830e+01
  -1.054408e+02  -2.624357e+01
  -5.723699e+01  -9.096993e+01
   1.882984e+01  -9.062953e+01
   5.992002e+01  -4.658121e+01
   5.001504e+01   5.131385e+00
   2.178754e+01   2.353530e+01
   1.341263e+01   1.037789e+01
   2.554602e+01  -5.200277e+00
   3.655224e+01   6.830675e+00
   1.862345e+01   3.003538e+01
  -2.586344e+01   4.565067e+01
  -6.186708e+01   1.954661e+01
  -4.111274e+01  -2.931953e+01
   2.328996e+01  -5.796418e+01
   8.637230e+01  -2.763720e+01
   8.604858e+01   5.254848e+01
   1.436891e+01   1.035870e+02
  -8.112376e+01   8.034178e+01
  -1.094631e+02   1.800406e+01
  -9.143142e+01  -6.542611e+01
  -2.231505e+01  -8.139885e+01
   3.217282e+01  -5.402659e+01
   4.662077e+01  -2.481394e+01
   4.306676e+01  -2.363344e+01
   3.884858e+01  -3.244597e+01
   4.446163e+01  -1.812316e+01
   4.947547e+01   2.909436e+01
   2.628448e+01   7.980167e+01
  -2.348570e+01   9.158936e+01
  -6.361658e+01   4.913582e+01
  -6.536750e+01  -2.189040e+01
  -3.127276e+01  -6.731633e+01
   1.978197e+01  -6.429841e+01
   4.589776e+01  -2.282382e+01
   2.507332e+01   1.358978e+01
  -8.153028e+00   2.648083e+01
  -1.617661e+01   1.707663e+01
   8.675356e+00   1.253469e+01
   3.526106e+01   1.666206e+01
   1.648504e+01   2.186154e+01
  -4.101282e+01   1.235015e+01
  -8.128596e+01  -1.749539e+01
  -5.656164e+01  -4.479664e+01
   1.339418e+01  -4.270516e+01
   6.717354e+01  -1.468867e+01
   6.330104e+01   1.354553e+01
   1.444932e+01   2.726024e+01
  -2.910127e+01   1.217981e+01
  -3.296514e+01  -7.878733e+00
  -1.940741e+00  -3.035964e+01
   2.183235e+01  -2.197963e+01
   2.800195e+01   6.365701e+00
   1.927337e+01   2.588759e+01
   1.797719e+01   2.207511e+01
   2.234812e+01   4.959399e+00
   2.715887e+01   7.263012e+00
   1.122836e+01   3.464245e+01
  -2.619412e+01   5.742338e+01
  -6.435234e+01   4.985099e+01
  -7.595112e+01  -4.531091e+00
  -4.330358e+01  -5.266579e+01
   1.371478e+01  -5.432958e+01
   4.498609e+01  -1.627616e+01
   2.168777e+01   1.298320e+01
  -3.181649e+01   1.987295e+00
  -5.534638e+01  -3.373449e+01
  -1.795235e+01  -5.269595e+01
   5.125341e+01  -3.765940e+01
   8.501640e+01   1.596901e+00
   6.005903e+01   3.313625e+01
   2.598152e+00   3.815228e+01
  -3.340897e+01   1.771035e+01
  -2.033115e+01  -4.591399e+00
   1.811772e+01  -8.045701e+00
   3.311661e+01   1.659294e+01
   6.349002e-01   4.694826e+01
  -4.827447e+01   4.878329e+01
  -6.361619e+01   7.287261e+00
  -3.652054e+01  -5.211090e+01
   1.355185e+01  -7.885767e+01
   4.717766e+01  -5.317820e+01
   4.167893e+01   1.406604e+01
   8.523595e+00   5.682080e+01
  -1.440661e+01   4.578799e+01
  -2.337265e+01   3.379876e+00
  -1.416623e+01  -1.967880e+01
  -7.289127e+00  -7.675579e+00
  -6.482549e+00   2.562392e+00
  -1.380153e+01  -1.338782e+01
  -1.525754e+01  -4.370742e+01
   6.925618e-01  -4.384060e+01
   3.006238e+01  -1.205768e+01
   4.906431e+01   3.234220e+01
   4.045974e+01   4.353531e+01
   4.908535e+00   2.345326e+01
  -3.261504e+01  -6.267062e-02
  -3.343107e+01  -8.520522e+00
  -7.430753e+00  -5.747390e+00
   1.566562e+01  -2.826405e+00
   1.037582e+01  -1.728522e+00
  -4.582487e+00   2.019487e+00
   1.478542e+00   3.515211e+00
   2.903022e+01   7.597405e+00
   3.637326e+01   1.673764e+01
   1.105098e+00   3.286063e+01
  -5.717637e+01   3.794826e+01
  -8.516923e+01   1.144213e+01
  -5.984243e+01  -3.538580e+01
   2.672114e+00  -6.812215e+01
   4.894241e+01  -6.199441e+01
   5.421145e+01  -2.052995e+01
   3.107912e+01   1.409583e+01
   7.018035e+00   1.733808e+01
   3.400680e+00   6.671028e+00
   6.440817e+00   7.020487e+00
   5.507716e+00   3.089951e+01
  -6.055766e+00   4.011688e+01
  -2.088326e+01   2.342224e+01
  -2.668575e+01  -1.657730e+01
  -1.901519e+01  -4.804002e+01
   2.609513e+00  -4.262265e+01
   2.928831e+01  -4.612325e+00
   3.392794e+01   3.147937e+01
   7.497849e+00   4.128453e+01
  -2.932947e+01   1.951204e+01
  -3.901953e+01  -1.169472e+01
  -1.288600e+01  -2.853211e+01
   1.967578e+01  -2.131925e+01
   1.975133e+01  -7.826476e+00
  -8.772269e+00   2.440198e-01
  -2.661694e+01  -1.417740e+00
  -2.857527e+00  -1.071568e+01
   3.960858e+01  -1.687883e+01
   4.880276e+01  -1.268438e+01
   2.616394e+01   1.254007e+01
  -1.251000e+01   3.341739e+01
  -2.991276e+01   3.136401e+01
  -1.879992e+01   4.365393e+00
   1.297630e+00  -2.017324e+01
   1.048763e+01  -1.950491e+01
   1.109276e+01   4.887145e+00
   7.931086e+00   2.374617e+01
   6.646067e-01   1.609893e+01
  -1.087836e+01  -4.663622e+00
  -1.484524e+01  -1.391269e+01
  -1.126898e+01  -3.681494e+00
  -8.562061e-01   9.235588e+00
   2.183960e+00   4.201606e+00
   1.572299e+00  -1.278266e+01
   1.567312e+00  -1.980528e+01
   9.313823e+00  -7.334668e+00
   1.236240e+01   1.549279e+01
   1.410679e+00   2.253568e+01
  -1.744448e+01   5.401793e+00
  -2.152813e+01  -1.934193e+01
  -2.182746e+00  -2.400480e+01
   2.797956e+01  -8.123939e+00
   3.823288e+01   1.407876e+01
   1.550595e+01   2.210490e+01
  -1.745787e+01   1.546929e+01
  -2.917727e+01   6.164416e+00
  -1.147121e+01   2.490034e+00
   1.059898e+01  -1.595461e-01
   1.154506e+01   2.344917e+00
  -1.268304e+01   5.102319e+00
  -3.270054e+01   1.548171e+00
