
 $NMID
 id='ANONYMOUS ', fmtdat='(2E16.6)'
 volume=1.0
 tramp=1.0
 $END
   2.753693e+03   4.797316e+02
   1.588560e+03   1.604843e+03
  -1.282312e+02   1.813863e+03
  -1.185387e+03   1.017818e+03
  -7.871093e+02   1.493801e+02
  -7.206867e+01  -1.053992e+02
   2.419265e+02   1.437866e+02
  -5.229466e+01   4.687573e+02
  -4.647346e+02   4.208533e+02
  -5.484522e+02  -2.805423e+01
  -3.271492e+02  -4.491370e+02
   5.427856e+01  -5.524608e+02
   2.611279e+02  -1.114191e+02
   1.447133e+02   3.711885e+02
  -9.277913e+01   4.022125e+02
  -3.408666e+02   4.789501e+00
  -1.849475e+02  -4.603412e+02
   1.914134e+02  -5.103265e+02
   4.423974e+02  -1.840783e+02
   3.762398e+02   1.955681e+02
   7.861846e+01   3.016258e+02
  -1.183248e+02   1.724675e+02
  -3.504109e+01   4.976344e+01
   1.889491e+02   1.347927e+02
   2.029799e+02   3.179488e+02
  -1.007510e+02   3.433712e+02
  -4.808423e+02   7.768887e+01
  -4.927847e+02  -2.921113e+02
  -1.026258e+02  -3.582492e+02
   3.440716e+02  -1.214545e+02
   4.096054e+02   2.307572e+02
   7.552196e+01   3.730225e+02
  -3.152392e+02   2.782004e+02
  -4.295766e+02   2.746019e+01
  -2.342319e+02  -2.173165e+02
  -1.209068e+01  -2.829951e+02
   5.174527e+01  -1.275635e+02
  -7.391247e+01   1.031417e+02
  -1.912556e+02   1.019246e+02
  -1.499677e+02  -1.876445e+02
   7.998843e+01  -4.265628e+02
   2.802636e+02  -3.041130e+02
   2.533531e+02   8.227754e+01
   3.101375e+01   2.844842e+02
  -1.578028e+02   6.001872e+01
  -8.652082e+01  -2.923697e+02
   1.879688e+02  -3.217034e+02
   4.137333e+02   4.764672e+01
   3.805488e+02   4.093001e+02
   5.324673e+01   4.552326e+02
  -3.181180e+02   1.919924e+02
  -4.409905e+02  -1.166082e+02
  -2.500194e+02  -2.528568e+02
   7.819184e+01  -1.856444e+02
   2.437136e+02  -3.238820e+01
   1.642373e+02   3.627509e+01
  -4.398229e+00  -1.041970e+01
  -2.042680e+01  -7.295092e+01
   1.243240e+02  -2.870920e+01
   2.106020e+02   9.832396e+01
   7.763797e+01   2.050481e+02
  -1.756815e+02   2.018370e+02
  -3.298878e+02   6.698640e+01
  -2.300101e+02  -1.400651e+02
   6.807643e+01  -3.017579e+02
   3.259628e+02  -2.972168e+02
   3.497462e+02  -7.646037e+01
   1.757329e+02   2.028720e+02
  -3.287284e-01   3.284392e+02
  -5.239810e+01   2.456746e+02
  -2.251122e+01   1.406952e+02
  -4.327296e+01   1.070261e+02
  -1.589586e+02   1.086980e+02
  -2.534270e+02   7.310328e+00
  -2.069226e+02  -1.647212e+02
  -3.435327e+01  -2.609121e+02
   1.362717e+02  -1.605913e+02
   1.798790e+02   8.093123e+01
   7.794027e+01   2.578963e+02
  -1.000745e+02   2.181309e+02
  -2.411901e+02   6.497136e+00
  -2.406634e+02  -2.071903e+02
  -9.512814e+01  -2.765288e+02
   8.443976e+01  -2.155507e+02
   1.533090e+02  -1.148240e+02
   1.328820e+02  -6.605010e+01
   1.479772e+02  -6.053867e+01
   2.697741e+02  -1.193660e+01
   3.692717e+02   1.366820e+02
   2.561183e+02   3.234991e+02
  -7.424840e+01   4.134807e+02
  -3.973978e+02   3.230863e+02
  -4.586196e+02   8.041285e+01
  -2.398249e+02  -1.512626e+02
   2.639456e+01  -2.324061e+02
   1.147850e+02  -1.404583e+02
   1.142776e+01  -1.111937e+01
  -1.106539e+02   1.516346e+01
  -1.055510e+02  -6.824588e+01
   2.244869e+01  -1.257167e+02
   1.050314e+02  -6.161800e+01
   7.919337e+01   7.208111e+01
  -4.554034e+01   1.057889e+02
  -1.455719e+02  -2.524155e+01
  -9.514458e+01  -2.260110e+02
   6.906657e+01  -3.018514e+02
   2.490955e+02  -1.603280e+02
   3.160007e+02   1.007718e+02
   2.115197e+02   2.767067e+02
   4.602884e+00   2.632248e+02
  -1.385211e+02   1.040923e+02
  -1.283268e+02  -2.088210e+01
  -1.988232e+01  -1.869661e+01
   3.966988e+01   6.932994e+01
  -2.697140e+01   1.053875e+02
  -1.277329e+02   3.804980e+01
  -1.315586e+02  -5.126876e+01
  -1.278539e+01  -5.597288e+01
   8.035446e+01   2.708709e+01
   1.831931e+01   9.918566e+01
  -1.573179e+02   6.322267e+01
  -2.780454e+02  -7.276878e+01
  -2.101061e+02  -2.108702e+02
   2.425946e+01  -2.571114e+02
   2.355070e+02  -1.785147e+02
   2.617917e+02  -3.137232e+01
   1.106333e+02   7.700257e+01
  -4.334487e+01   6.858638e+01
  -5.680848e+01  -1.972236e+01
   6.229734e+01  -6.661223e+01
   1.671944e+02  -6.188593e-01
   1.454101e+02   1.193224e+02
   1.483560e+01   1.730142e+02
  -9.871591e+01   1.015659e+02
  -1.084389e+02  -1.265887e+01
  -2.761505e+01  -4.754669e+01
   4.488248e+01   2.616780e+01
   9.587116e+00   1.128563e+02
  -1.129381e+02   1.031035e+02
  -2.002984e+02  -2.040597e+01
  -1.440196e+02  -1.554383e+02
   2.850054e+01  -1.946406e+02
   1.633137e+02  -1.107923e+02
   1.546477e+02   1.913091e+01
   3.418474e+01   9.582027e+01
  -6.644413e+01   7.779383e+01
  -6.296890e+01   9.831088e+00
   4.918676e+00  -1.950589e+01
   3.870675e+01   2.238789e+00
  -1.497431e+01   3.033261e+01
  -9.072727e+01  -6.424079e+00
  -9.256227e+01  -1.026999e+02
   1.484023e+01  -1.701332e+02
   1.579581e+02  -1.224036e+02
   2.239457e+02   3.031840e+01
   1.545673e+02   1.768560e+02
  -3.074749e+00   2.098466e+02
  -1.203851e+02   1.252746e+02
  -1.214179e+02   4.316057e+00
  -5.740256e+01  -5.179479e+01
  -2.196209e+01  -2.842021e+01
  -4.422368e+01   1.540747e+01
  -7.877442e+01  -1.918286e+00
  -4.965614e+01  -6.551590e+01
   3.812689e+01  -9.996818e+01
   1.240046e+02  -5.053179e+01
   9.909517e+01   5.605036e+01
  -3.241762e+01   1.235831e+02
  -1.652993e+02   6.424835e+01
  -1.767005e+02  -9.101579e+01
  -3.911659e+01  -2.097673e+02
   1.479218e+02  -1.811944e+02
   2.328357e+02  -4.301339e+01
   1.972660e+02   1.250833e+02
   5.611477e+01   1.716505e+02
  -5.966217e+01   1.232082e+02
  -9.281233e+01   5.592038e+01
  -7.220561e+01   4.935746e+01
  -6.061751e+01   7.490382e+01
  -9.193924e+01   5.991213e+01
  -1.189985e+02  -3.502277e+01
  -9.338472e+01  -1.553360e+02
   4.353466e+00  -2.046768e+02
   1.172959e+02  -1.327134e+02
   1.558501e+02   1.774199e+01
   9.086621e+01   1.345885e+02
  -2.283429e+01   1.380453e+02
  -8.736519e+01   5.338250e+01
  -5.982918e+01  -3.117198e+01
   1.312485e+01  -5.616734e+01
   3.793964e+01  -3.439513e+01
  -1.340631e+01  -1.185978e+01
  -6.890367e+01  -2.109161e+01
  -3.699391e+01  -4.202561e+01
   7.707834e+01  -3.044398e+01
   1.629370e+02   2.600714e+01
   1.222417e+02   8.765853e+01
  -1.945619e+01   1.003813e+02
  -1.361206e+02   5.102013e+01
  -1.322010e+02  -2.081628e+01
  -3.184270e+01  -5.984995e+01
   6.195574e+01  -3.446623e+01
   6.598999e+01   2.252794e+01
   8.569508e+00   7.391150e+01
  -4.855081e+01   5.654305e+01
  -6.393220e+01  -6.370794e+00
  -4.690123e+01  -5.200604e+01
  -3.718315e+01  -4.312563e+01
  -5.083710e+01  -3.825655e+00
  -6.080998e+01  -9.463100e+00
  -3.245714e+01  -7.591258e+01
   4.345101e+01  -1.379407e+02
   1.324655e+02  -1.177448e+02
   1.661373e+02  -3.251796e+00
   1.056037e+02   1.046132e+02
  -1.366551e+01   1.238436e+02
  -9.150864e+01   5.181427e+01
  -5.676436e+01  -1.749451e+01
   4.870325e+01  -1.489855e+01
   1.135817e+02   4.998153e+01
   5.067793e+01   1.050834e+02
  -9.229414e+01   8.827033e+01
  -1.782441e+02   1.030677e+01
  -1.347609e+02  -6.469880e+01
  -1.164584e+01  -8.630155e+01
   7.231499e+01  -4.547165e+01
   4.648575e+01   1.147240e+01
  -4.138175e+01   2.410957e+01
  -8.121496e+01  -3.020453e+01
  -2.099022e+01  -1.081852e+02
   8.976115e+01  -1.266480e+02
   1.461047e+02  -4.283664e+01
   9.760414e+01   1.009348e+02
  -1.381753e+01   1.732875e+02
  -9.881155e+01   1.105391e+02
  -9.560842e+01  -3.096942e+01
  -2.953623e+01  -1.209383e+02
   3.148187e+01  -9.152830e+01
   5.339902e+01  -4.687730e+00
   3.630460e+01   3.647901e+01
   1.552602e+01   8.354823e+00
   1.065180e+01  -1.613727e+01
   2.821130e+01   2.279437e+01
   3.896581e+01   9.227688e+01
   1.388022e+01   1.026707e+02
  -6.149180e+01   3.456719e+01
  -1.160556e+02  -4.969435e+01
  -9.769520e+01  -8.280578e+01
  -8.336815e+00  -5.414107e+01
   7.602134e+01  -1.524772e+01
   7.872034e+01   6.009674e+00
   1.796228e+01   1.664526e+01
  -3.248687e+01   1.624565e+01
  -2.157085e+01   1.131657e+01
   1.200232e+01   1.105290e+00
  -2.979686e+00  -5.450486e+00
  -6.250324e+01  -7.733921e+00
  -8.370995e+01  -2.983154e+01
  -1.358338e+01  -7.559706e+01
   1.064860e+02  -9.908939e+01
   1.765524e+02  -4.780021e+01
   1.353286e+02   6.510353e+01
   1.729509e+01   1.497209e+02
  -8.790804e+01   1.383390e+02
  -1.141881e+02   5.190353e+01
  -7.279832e+01  -2.727790e+01
  -2.076441e+01  -4.015206e+01
  -1.326936e+00  -1.509089e+01
  -1.323127e+01  -9.158088e+00
  -2.186740e+01  -4.472830e+01
  -6.207354e+00  -8.628207e+01
   3.661175e+01  -6.287018e+01
   7.003191e+01   2.257237e+01
   6.204476e+01   1.020691e+02
  -6.403710e-01   1.048392e+02
  -7.442933e+01   2.102660e+01
  -9.330895e+01  -7.053083e+01
  -2.769647e+01  -1.017731e+02
   6.562170e+01  -5.416260e+01
   9.829821e+01   1.853620e+01
   3.845661e+01   5.996177e+01
  -3.581797e+01   5.356968e+01
  -3.987970e+01   2.341412e+01
   2.199739e+01  -9.086416e-02
   6.149163e+01   6.092018e-01
   9.985024e+00   2.685529e+01
  -8.166367e+01   5.062016e+01
  -1.197709e+02   3.607536e+01
  -6.236985e+01  -2.699567e+01
   2.280699e+01  -7.842721e+01
   6.231401e+01  -7.204822e+01
   4.375650e+01  -7.048392e+00
   6.535168e-01   4.845979e+01
  -2.744733e+01   4.161426e+01
  -3.322127e+01  -1.393423e+01
  -1.819825e+01  -5.447507e+01
   7.551351e+00  -3.829535e+01
   3.112458e+01   7.979592e+00
   3.593737e+01   3.039838e+01
   1.768857e+01   1.066058e+01
  -3.626223e+00  -1.809781e+01
  -5.337618e+00  -1.238573e+01
   3.734193e+00   2.517258e+01
   2.700968e-01   4.858560e+01
  -2.357992e+01   2.362772e+01
  -3.479240e+01  -2.959117e+01
  -1.009008e+01  -5.457387e+01
   3.613382e+01  -2.256842e+01
   5.547272e+01   3.176512e+01
   1.453969e+01   5.635878e+01
  -5.305409e+01   2.858186e+01
  -8.458989e+01  -1.588061e+01
  -4.421063e+01  -4.271037e+01
   2.939364e+01  -3.966296e+01
   6.226639e+01  -2.119977e+01
   2.895261e+01  -5.249652e+00
  -2.326635e+01  -9.756684e-01
  -2.789676e+01  -8.540726e+00
   2.492752e+01  -1.939502e+01
   7.441982e+01  -7.115317e+00
