
 $NMID
 id='ANONYMOUS ', fmtdat='(2E16.6)'
 volume=1.0
 tramp=1.0
 $END
   2.370097e+03   2.370856e+02
   1.396931e+03   9.950432e+02
   4.681289e+01   1.423201e+03
  -7.644692e+02   1.094554e+03
  -7.575314e+02   3.767910e+02
  -1.996055e+02  -8.824105e+01
   1.183700e+02  -3.644112e+01
   6.285206e+01   2.355857e+02
  -1.913223e+02   3.765839e+02
  -4.006838e+02   1.377430e+02
  -3.661065e+02  -2.672031e+02
  -9.491162e+01  -4.216877e+02
   1.355368e+02  -1.677188e+02
   1.774261e+02   2.398887e+02
   3.610661e+00   2.998052e+02
  -2.434772e+02   9.961336e+01
  -2.520840e+02  -2.741070e+02
  -2.131451e+01  -4.276797e+02
   2.711522e+02  -2.672746e+02
   3.385428e+02   4.088102e+01
   1.419759e+02   2.167106e+02
  -4.184349e+01   1.872524e+02
  -1.949297e+01   9.541654e+01
   1.234467e+02   1.142794e+02
   1.850894e+02   2.118667e+02
  -2.974351e+01   2.311644e+02
  -3.197924e+02   6.771334e+01
  -3.499425e+02  -1.331314e+02
  -1.298829e+02  -1.882087e+02
   2.047355e+02  -7.714611e+01
   2.911069e+02   8.774708e+01
   1.179890e+02   2.118546e+02
  -1.500240e+02   2.188152e+02
  -2.724152e+02   1.146995e+02
  -2.282257e+02  -5.591431e+01
  -9.580744e+01  -1.819503e+02
  -3.142258e+01  -1.291662e+02
  -5.625091e+01   3.250390e+01
  -1.218876e+02   8.654600e+01
  -1.205795e+02  -1.236428e+02
  -2.479755e+00  -3.540187e+02
   1.431366e+02  -3.251486e+02
   1.962083e+02  -1.286064e+01
   8.812400e+01   1.882532e+02
  -6.982009e+01   8.151073e+01
  -9.726577e+01  -1.799528e+02
   7.834968e+01  -2.548534e+02
   2.872206e+02  -3.588197e+01
   3.306292e+02   2.619031e+02
   1.171686e+02   3.323076e+02
  -1.892219e+02   1.846401e+02
  -3.757330e+02  -3.141100e+01
  -2.492542e+02  -1.445645e+02
   1.963082e+01  -1.253780e+02
   1.758044e+02  -7.441719e+01
   1.484491e+02  -1.716391e+01
   1.979888e+01  -4.981810e+00
  -1.510437e+01  -2.427107e+01
   6.162911e+01  -2.065779e+01
   1.426334e+02   2.528860e+01
   8.695414e+01   1.143704e+02
  -9.219129e+01   1.736289e+02
  -2.340829e+02   1.271713e+02
  -2.094235e+02  -5.075906e+01
  -4.988305e+00  -2.400757e+02
   1.966569e+02  -2.874407e+02
   2.660333e+02  -1.362168e+02
   1.732200e+02   1.025549e+02
   4.420819e+01   2.478029e+02
  -6.804134e+00   2.246166e+02
   7.328221e+00   1.424111e+02
  -2.458591e+01   9.454876e+01
  -1.129076e+02   8.508983e+01
  -1.791388e+02   2.708464e+01
  -1.615025e+02  -8.266629e+01
  -6.013484e+01  -1.687200e+02
   5.561298e+01  -1.221305e+02
   1.199035e+02   2.616244e+01
   9.393628e+01   1.548227e+02
  -2.321568e+01   1.668477e+02
  -1.612725e+02   5.200108e+01
  -2.138144e+02  -1.027520e+02
  -1.344716e+02  -2.023427e+02
   1.203370e+01  -1.843373e+02
   9.518641e+01  -1.225815e+02
   9.456854e+01  -7.760538e+01
   1.134375e+02  -6.086170e+01
   2.137412e+02  -2.864166e+01
   2.963845e+02   5.252808e+01
   2.358364e+02   1.879180e+02
   7.541570e-01   3.033614e+02
  -2.423461e+02   2.926532e+02
  -3.253264e+02   1.438471e+02
  -1.962892e+02  -5.296723e+01
  -1.558458e+01  -1.605322e+02
   5.709041e+01  -1.313898e+02
  -4.562969e+00  -2.052534e+01
  -8.816953e+01   2.128137e+01
  -8.477848e+01  -3.719382e+01
  -1.748907e+00  -1.048254e+02
   6.343898e+01  -5.283985e+01
   7.259116e+01   3.068150e+01
  -7.735900e+00   9.909931e+01
  -1.064124e+02   7.920521e+00
  -1.173671e+02  -1.465565e+02
  -6.279970e+00  -2.422074e+02
   1.613336e+02  -1.663330e+02
   2.627979e+02   1.989138e+01
   2.172396e+02   1.784003e+02
   5.611862e+01   1.944171e+02
  -8.547060e+01   1.026800e+02
  -1.019624e+02   1.107774e+01
  -2.119426e+01  -2.478645e+00
   3.243583e+01   4.847420e+01
  -9.594240e+00   8.072782e+01
  -8.831580e+01   4.652282e+01
  -1.016347e+02  -1.748458e+01
  -2.411902e+01  -3.436648e+01
   5.906870e+01   1.279533e+01
   3.072739e+01   6.789369e+01
  -1.037104e+02   6.673964e+01
  -2.170458e+02  -7.448024e+00
  -1.928672e+02  -1.149289e+02
  -2.350039e+01  -1.848269e+02
   1.460690e+02  -1.666999e+02
   1.867340e+02  -7.343138e+01
   9.141153e+01   2.216944e+01
  -2.378655e+01   4.440666e+01
  -3.791786e+01  -9.517864e+00
   4.371580e+01  -5.847050e+01
   1.341278e+02  -2.268294e+01
   1.370613e+02   7.662963e+01
   4.912738e+01   1.345342e+02
  -5.658312e+01   1.004984e+02
  -8.479330e+01   1.696495e+01
  -3.162502e+01  -2.326298e+01
   3.188830e+01   1.519939e+01
   2.376262e+01   8.385113e+01
  -7.015654e+01   9.356141e+01
  -1.514803e+02   1.864216e+01
  -1.343121e+02  -8.803551e+01
  -1.306718e+01  -1.430792e+02
   1.041159e+02  -1.115580e+02
   1.150484e+02  -1.471248e+01
   3.685885e+01   6.149974e+01
  -4.345938e+01   6.787750e+01
  -4.610353e+01   2.233374e+01
   3.093320e+00  -1.509549e+01
   3.075019e+01  -6.816937e+00
  -2.253548e+00   2.022937e+01
  -6.792668e+01   6.493239e+00
  -8.661752e+01  -6.359945e+01
  -1.903707e+01  -1.289850e+02
   9.807735e+01  -1.194769e+02
   1.774038e+02  -1.699858e+01
   1.451773e+02   1.083298e+02
   3.407671e+01   1.669555e+02
  -6.502303e+01   1.169277e+02
  -8.930329e+01   2.844830e+01
  -5.411445e+01  -2.202839e+01
  -2.864008e+01  -1.328559e+01
  -3.893628e+01   1.446958e+01
  -6.861396e+01   9.731016e+00
  -4.838200e+01  -4.250015e+01
   2.558000e+01  -9.374463e+01
   9.159931e+01  -6.335519e+01
   8.744325e+01   3.032445e+01
  -6.075885e+00   9.967347e+01
  -1.252780e+02   7.356820e+01
  -1.568134e+02  -4.699262e+01
  -6.048691e+01  -1.550376e+02
   9.581487e+01  -1.623916e+02
   1.719014e+02  -4.875177e+01
   1.693847e+02   5.872213e+01
   6.752522e+01   1.091620e+02
  -2.942487e+01   9.178401e+01
  -5.565153e+01   5.309168e+01
  -3.560857e+01   4.648273e+01
  -3.013715e+01   6.773996e+01
  -6.088566e+01   6.110511e+01
  -9.774354e+01  -5.315568e+00
  -8.906662e+01  -1.088933e+02
  -2.228041e+01  -1.622068e+02
   6.991536e+01  -1.224239e+02
   1.205874e+02  -1.111095e+01
   9.154687e+01   8.873853e+01
   9.504836e+00   1.118185e+02
  -5.183259e+01   5.689413e+01
  -4.306094e+01  -1.281024e+01
   4.916207e+00  -4.115004e+01
   2.476078e+01  -2.398118e+01
  -1.606663e+01  -2.844461e+00
  -6.616432e+01  -7.139492e+00
  -4.517526e+01  -2.552464e+01
   4.970431e+01  -3.077205e+01
   1.287349e+02  -4.918351e+00
   1.082732e+02   4.279599e+01
   7.698367e-01   7.333710e+01
  -9.330636e+01   5.818672e+01
  -1.039155e+02   9.750088e+00
  -3.388593e+01  -3.527268e+01
   3.958112e+01  -3.432085e+01
   4.855067e+01   1.248886e+01
   2.226848e+01   5.289701e+01
  -2.792983e+01   5.357490e+01
  -5.306605e+01   7.687119e+00
  -5.237395e+01  -3.470333e+01
  -4.022307e+01  -3.536741e+01
  -4.052329e+01  -6.300036e+00
  -4.928356e+01  -2.176553e+00
  -3.665229e+01  -5.446086e+01
   1.479389e+01  -1.150283e+02
   9.419544e+01  -1.145713e+02
   1.366580e+02  -3.561082e+01
   1.012962e+02   6.176517e+01
   6.885242e+00   9.821163e+01
  -6.427911e+01   5.831885e+01
  -4.691398e+01  -1.206173e+00
   3.795917e+01  -1.502183e+01
   9.521046e+01   2.516156e+01
   5.592889e+01   7.071579e+01
  -5.038179e+01   7.421533e+01
  -1.272879e+02   2.846376e+01
  -1.084523e+02  -2.830510e+01
  -2.305745e+01  -5.726062e+01
   4.300396e+01  -4.042495e+01
   3.563648e+01   2.340962e+00
  -2.586384e+01   2.460376e+01
  -6.646983e+01  -1.031301e+01
  -3.691259e+01  -8.229857e+01
   4.623760e+01  -1.192007e+02
   1.113607e+02  -6.471740e+01
   9.584366e+01   5.435189e+01
   2.318658e+01   1.373968e+02
  -4.944296e+01   1.062054e+02
  -7.410474e+01  -7.627415e-01
  -4.058105e+01  -8.210725e+01
   8.257839e+00  -7.452181e+01
   3.592400e+01  -9.997991e+00
   2.836408e+01   2.081353e+01
   7.468785e+00   4.005109e+00
   3.458647e+00  -1.462684e+01
   2.683316e+01   1.404938e+01
   4.933535e+01   6.129652e+01
   3.146786e+01   7.412378e+01
  -3.624536e+01   3.199061e+01
  -9.523654e+01  -1.897176e+01
  -8.717781e+01  -4.406071e+01
  -1.811332e+01  -3.887144e+01
   5.303143e+01  -2.333650e+01
   6.424852e+01  -7.114305e+00
   1.675243e+01   1.046142e+01
  -2.334344e+01   1.718247e+01
  -1.528511e+01   7.028733e+00
   9.120598e+00  -5.094908e+00
  -6.699443e-01  -5.683241e+00
  -4.840750e+01   2.352413e+00
  -7.208115e+01  -1.181025e+01
  -2.264628e+01  -5.690548e+01
   7.371170e+01  -9.023883e+01
   1.413791e+02  -6.158675e+01
   1.196804e+02   3.017504e+01
   3.278746e+01   1.132382e+02
  -5.088459e+01   1.187624e+02
  -8.338576e+01   5.707783e+01
  -6.076872e+01  -7.956605e+00
  -2.153258e+01  -2.517912e+01
  -3.164318e+00  -9.152826e+00
  -1.124648e+01  -7.368524e+00
  -2.336162e+01  -3.555132e+01
  -1.618023e+01  -6.789375e+01
   1.703310e+01  -5.428431e+01
   5.657757e+01   6.378398e+00
   6.478671e+01   7.182063e+01
   1.833287e+01   8.026992e+01
  -5.043976e+01   2.746370e+01
  -7.990037e+01  -4.360955e+01
  -3.448630e+01  -7.292862e+01
   4.223898e+01  -5.217813e+01
   7.514139e+01   2.488618e-01
   3.642948e+01   4.089634e+01
  -2.280408e+01   4.881887e+01
  -3.043467e+01   2.552800e+01
   1.710547e+01  -7.245378e+00
   5.058721e+01  -1.001458e+01
   1.779056e+01   2.055137e+01
  -5.542819e+01   5.352857e+01
  -9.427030e+01   4.521691e+01
  -5.879150e+01  -1.013658e+01
   3.014534e+00  -6.563287e+01
   3.843404e+01  -6.688423e+01
   3.290965e+01  -1.459238e+01
   8.258223e+00   3.590911e+01
  -1.390120e+01   3.538941e+01
  -2.483466e+01  -5.580540e+00
  -2.009046e+01  -3.736513e+01
  -1.105895e+00  -2.863383e+01
   2.313220e+01   2.998698e+00
   2.969733e+01   1.744190e+01
   1.345355e+01   1.982266e+00
  -4.526275e+00  -1.745329e+01
  -4.521758e+00  -1.037009e+01
   7.966312e+00   2.007356e+01
   7.257959e+00   3.914426e+01
  -1.450736e+01   2.206639e+01
  -3.337004e+01  -1.564806e+01
  -1.712258e+01  -3.800669e+01
   2.502114e+01  -2.189228e+01
   4.808205e+01   1.865765e+01
   1.785228e+01   4.166376e+01
  -4.005427e+01   3.057384e+01
  -6.970377e+01  -2.326598e+00
  -4.008937e+01  -3.016133e+01
   1.685286e+01  -3.700296e+01
   4.581398e+01  -2.690925e+01
   2.131482e+01  -8.725508e+00
  -1.794303e+01   2.187120e+00
  -2.325544e+01  -1.644917e+00
   1.374001e+01  -1.640802e+01
   5.239723e+01  -1.718737e+01
