
 $NMID
 id='ANONYMOUS ', fmtdat='(2E16.6)'
 volume=1.0
 tramp=1.0
 $END
  -9.045587e+02   1.761437e+01
  -5.322751e+02  -5.286386e+02
   2.178809e+02  -5.401150e+02
   3.941799e+02  -2.339993e+02
   1.320928e+02  -1.393990e+01
  -1.548033e+02   3.963650e+01
  -1.112782e+02  -1.311482e+02
   9.018149e+01  -2.062644e+02
   2.079155e+02  -1.289617e+02
   1.778921e+02   3.463067e+01
   6.713768e+01   1.565090e+02
  -5.929379e+01   1.867869e+02
  -9.423933e+01  -9.003083e+00
  -4.497860e+01  -1.608429e+02
   4.924631e+01  -7.312782e+01
   1.013712e+02   1.699685e+01
   2.750971e+01   1.402494e+02
  -4.235252e+01   1.132542e+02
  -9.933169e+01   3.753475e+01
  -8.552131e+01  -5.029125e+01
  -3.890994e+01  -5.700505e+01
   1.606797e+01  -6.502112e+01
   2.435665e+01  -4.274957e+01
  -3.879356e+01  -3.371682e+01
  -8.398770e+01  -6.753167e+01
  -9.815793e+00  -1.102454e+02
   1.425359e+02  -5.634581e+01
   1.793759e+02   5.334802e+01
   7.017558e+01   1.375657e+02
  -1.049795e+02   6.528414e+01
  -1.513199e+02  -3.681943e+01
  -5.305388e+01  -1.023625e+02
   6.894951e+01  -1.071633e+02
   1.148199e+02  -4.960340e+01
   8.542448e+01   3.853598e+01
   3.697762e+01   1.020840e+02
  -5.661700e+00   5.728918e+01
   2.925321e+00  -3.602950e+01
   5.977124e+01  -7.528671e+01
   8.162158e+01   2.618241e+01
  -3.814629e+00   1.546941e+02
  -9.496374e+01   1.387834e+02
  -1.075055e+02  -2.206058e+01
  -2.750286e+01  -1.165634e+02
   6.496054e+01  -3.979528e+01
   6.477856e+01   9.010640e+01
  -3.589777e+01   1.156613e+02
  -1.359699e+02  -3.511034e-02
  -1.370547e+02  -1.055706e+02
  -1.487202e+01  -1.062615e+02
   7.713870e+01  -4.720974e+01
   1.269583e+02   4.252202e+01
   7.950668e+01   7.317021e+01
  -3.708751e+01   4.026277e+01
  -9.820459e+01  -7.114770e+00
  -5.780596e+01  -3.493199e+01
   1.599577e+01  -4.831778e+00
   6.379304e+00   2.651110e+01
  -3.745288e+01   2.521995e+01
  -5.813903e+01  -2.357980e+01
  -2.173899e+01  -6.147241e+01
   3.839429e+01  -5.747461e+01
   6.728185e+01  -2.871415e+01
   4.556779e+01   2.040022e+00
  -9.732228e-01   5.086057e+01
  -5.503640e+01   9.474356e+01
  -7.277970e+01   6.332747e+01
  -6.103116e+01  -3.424273e+01
  -1.622822e+01  -9.326291e+01
   1.487354e+01  -6.309192e+01
   6.160019e-01  -2.934056e+01
  -1.561370e+01  -1.758010e+01
   1.371206e+01  -3.530115e+01
   6.366918e+01  -2.811004e+01
   6.992180e+01   2.442724e+01
   3.147553e+01   6.789197e+01
  -2.350203e+01   5.308351e+01
  -4.949578e+01  -1.215888e+01
  -4.088929e+01  -6.232775e+01
   1.472903e+01  -6.508055e+01
   6.719198e+01  -1.336369e+01
   7.532317e+01   5.165372e+01
   2.362736e+01   8.545850e+01
  -3.022676e+01   6.189175e+01
  -4.267070e+01   2.390248e+01
  -1.986183e+01   5.484146e+00
  -2.226926e+01   1.644398e+01
  -7.204481e+01   9.105521e+00
  -1.119024e+02  -3.185932e+01
  -8.886424e+01  -7.170221e+01
   8.744239e+00  -1.081935e+02
   1.036293e+02  -1.090751e+02
   1.279207e+02  -5.103642e+01
   8.065002e+01   2.624865e+01
   3.318490e+00   6.731731e+01
  -3.539719e+01   4.427594e+01
  -8.335038e+00   3.674910e+00
   4.172811e+01  -1.905595e+01
   4.153585e+01   9.894234e+00
  -4.759223e+00   4.250488e+01
  -2.870614e+01   1.308252e+01
  -3.778533e+01  -1.870955e+01
   4.535668e+00  -3.232049e+01
   4.668931e+01  -7.152647e-01
   3.850314e+01   6.017752e+01
  -2.751854e+00   7.776888e+01
  -4.833407e+01   4.543870e+01
  -7.853650e+01  -1.685872e+01
  -7.054925e+01  -6.368051e+01
  -2.648104e+01  -7.097442e+01
   2.641021e+01  -3.969531e+01
   4.558880e+01  -5.361690e+00
   1.379245e+01  -1.422787e+00
  -1.127350e+01  -1.539242e+01
   1.058908e+00  -2.801645e+01
   3.133465e+01  -1.238947e+01
   3.876614e+01   9.669846e+00
   6.853232e+00   1.647062e+01
  -2.236918e+01  -3.294404e+00
  -1.100511e+01  -2.533266e+01
   4.121792e+01  -1.906820e+01
   8.148888e+01   7.433976e+00
   6.935223e+01   4.083855e+01
   1.137721e+01   6.387486e+01
  -5.721786e+01   6.244082e+01
  -8.029135e+01   3.643914e+01
  -4.085882e+01  -4.360114e+00
   1.073016e+01  -2.007146e+01
   2.168384e+01  -1.769450e-02
  -1.247013e+01   1.784141e+01
  -5.380513e+01   8.775721e+00
  -5.480269e+01  -2.832549e+01
  -1.814214e+01  -5.349904e+01
   2.631238e+01  -3.840206e+01
   3.469473e+01  -3.972294e+00
   1.409152e+01   1.028867e+01
  -9.564639e+00  -2.345524e+00
  -8.943013e+00  -2.428696e+01
   2.004575e+01  -2.788489e+01
   4.561626e+01  -6.524727e+00
   4.386932e+01   2.881151e+01
   3.806939e+00   4.727470e+01
  -4.113183e+01   3.715624e+01
  -3.921617e+01   4.054613e+00
  -8.363826e+00  -2.285023e+01
   1.858805e+01  -2.244221e+01
   1.865184e+01  -5.285352e+00
  -4.572977e+00   2.952544e+00
  -1.039991e+01   3.882565e+00
   3.365904e+00  -3.416725e+00
   2.303674e+01   3.166604e+00
   2.595096e+01   2.409714e+01
   2.642877e+00   4.315647e+01
  -3.003159e+01   3.533799e+01
  -5.427532e+01   3.774300e+00
  -4.579386e+01  -3.331046e+01
  -1.050471e+01  -5.133513e+01
   1.837118e+01  -4.050446e+01
   2.843330e+01  -1.015906e+01
   1.900877e+01   7.524520e+00
   1.462532e+01   5.609038e+00
   1.302500e+01  -2.125695e+00
   2.280551e+01  -3.097156e+00
   1.412986e+01   8.897806e+00
  -3.882775e+00   1.772479e+01
  -2.497666e+01   1.696456e+01
  -2.014872e+01  -5.000264e+00
   4.236884e+00  -2.736002e+01
   3.846909e+01  -2.056413e+01
   5.127851e+01   1.868041e+01
   2.365208e+01   5.646990e+01
  -3.147895e+01   5.718306e+01
  -4.910550e+01   1.145346e+01
  -6.630237e+01  -2.132544e+01
  -3.252188e+01  -4.127593e+01
   3.955568e+00  -3.638778e+01
   2.509124e+01  -2.478667e+01
   2.576609e+01  -2.449704e+01
   1.558704e+01  -2.468462e+01
   1.578502e+01  -1.543155e+01
   2.447722e+01   4.291272e+00
   2.161511e+01   3.240698e+01
   9.079895e+00   4.955805e+01
  -1.770239e+01   3.875582e+01
  -3.426758e+01   2.477060e+00
  -3.280073e+01  -2.764325e+01
  -6.717283e+00  -3.658583e+01
   1.356076e+01  -2.374892e+01
   1.455075e+01  -4.297450e+00
   7.884650e-01   1.097139e+01
  -3.443545e+00   1.119213e+01
   7.198254e+00   7.519294e+00
   2.202063e+01   7.340628e+00
   1.325229e+01   6.471365e+00
  -1.801995e+01   2.775815e+00
  -4.342424e+01  -9.243611e-01
  -3.792924e+01  -9.797060e+00
  -8.304702e-01  -1.930832e+01
   3.282924e+01  -2.046940e+01
   3.818370e+01  -4.639588e+00
   1.038334e+01   1.126174e+01
  -1.653924e+01   9.254547e+00
  -9.287167e+00  -1.798301e+00
  -3.298820e+00  -1.486113e+01
   1.040530e+01  -1.219480e+01
   1.285197e+01   4.247246e-01
   8.655616e+00   7.018022e+00
   1.297343e+01   2.622708e+00
   2.100843e+01  -4.030129e+00
   2.412231e+01  -3.692299e-01
   1.340861e+01   1.952702e+01
  -3.655821e+00   3.853604e+01
  -3.136153e+01   4.125444e+01
  -4.120362e+01   1.258736e+01
  -3.109076e+01  -1.771801e+01
  -6.482523e-01  -2.979206e+01
   2.065927e+01  -1.694812e+01
   1.113480e+01   1.213836e+00
  -2.097886e+01   1.986419e+00
  -3.790827e+01  -1.480459e+01
  -2.081525e+01  -2.826083e+01
   2.115909e+01  -2.906250e+01
   4.792834e+01  -1.728676e+01
   4.289553e+01   1.142162e+00
   1.139158e+01   1.767460e+01
  -1.148983e+01   1.555746e+01
  -8.266463e+00   2.995316e+00
   1.033219e+01  -4.497766e+00
   1.943970e+01   5.765754e+00
   6.445543e+00   2.507343e+01
  -1.769261e+01   3.231004e+01
  -3.171297e+01   1.453737e+01
  -2.267619e+01  -2.058551e+01
  -1.731162e+00  -4.450203e+01
   1.442332e+01  -3.442081e+01
   2.068914e+01  -1.944399e+00
   1.659781e+01   2.809975e+01
   5.725382e+00   3.101342e+01
  -1.081763e+01   1.046751e+01
  -1.656662e+01  -4.392725e+00
  -1.111248e+01  -2.130826e+00
  -3.861276e+00   1.224162e+00
  -6.923524e+00  -1.041863e+01
  -1.197714e+01  -2.463888e+01
  -7.363528e+00  -2.366539e+01
   1.433590e+01  -4.634953e+00
   3.379850e+01   1.238221e+01
   2.720952e+01   1.385900e+01
   1.289070e+00   5.690136e+00
  -2.147044e+01   1.182923e+00
  -2.056950e+01   5.104948e-01
  -8.123814e-01   3.208810e-02
   1.006713e+01  -5.027557e+00
   3.914409e+00  -5.128636e+00
  -5.010457e+00   1.146374e-01
   1.615789e+00   2.772996e+00
   2.285631e+01  -1.362030e-01
   2.750243e+01   4.794842e+00
   3.524018e+00   1.931498e+01
  -3.303607e+01   3.404043e+01
  -5.017898e+01   1.645715e+01
  -3.659505e+01  -1.586280e+01
  -4.953486e+00  -4.245959e+01
   2.168613e+01  -4.040318e+01
   2.887118e+01  -1.752586e+01
   1.963250e+01   4.188344e+00
   4.756493e+00   7.717269e+00
  -3.986389e-01   3.782372e+00
   3.354042e+00   3.934173e+00
   1.023450e+01   1.054108e+01
   5.743506e+00   2.163867e+01
  -5.126972e+00   1.372179e+01
  -1.772222e+01  -6.596868e+00
  -1.633201e+01  -2.649062e+01
  -1.656720e+00  -2.620931e+01
   1.858772e+01  -3.697945e+00
   2.447802e+01   1.883609e+01
   9.069599e+00   2.250946e+01
  -1.469444e+01   1.309658e+01
  -2.300519e+01  -2.039792e+00
  -8.519449e+00  -1.004688e+01
   8.997393e+00  -1.077209e+01
   9.050611e+00  -5.658798e+00
  -9.022925e+00   2.237691e+00
  -2.059396e+01   5.074525e+00
  -4.808602e+00  -2.137326e+00
   1.973484e+01  -1.691017e+01
   3.188534e+01  -1.642831e+01
   1.522039e+01   1.225934e+00
  -5.473089e+00   2.155887e+01
  -1.186066e+01   2.408807e+01
  -6.086718e+00   6.480240e+00
  -1.030523e+00  -1.098141e+01
   2.407790e+00  -1.119060e+01
   6.039969e+00   2.271856e+00
   7.536995e+00   1.053592e+01
   3.928150e+00   7.329513e+00
  -5.025157e+00  -1.719659e+00
  -9.651119e+00  -2.327131e+00
  -6.376151e+00   2.402652e+00
   3.374065e-01   4.428427e+00
   4.186153e+00  -1.715943e-01
   2.686514e+00  -6.776255e+00
   1.703742e+00  -7.998562e+00
   4.989064e+00  -1.839154e+00
   5.749849e+00   7.776943e+00
   1.399134e+00   1.130863e+01
  -9.160155e+00   3.127814e+00
  -1.077532e+01  -1.149837e+01
  -8.982298e-01  -1.302118e+01
   1.427100e+01  -4.737164e+00
   1.887254e+01   5.814162e+00
   8.629107e+00   9.702155e+00
  -8.163399e+00   6.825179e+00
  -1.523986e+01   3.539156e+00
  -3.341059e+00   3.211881e+00
   1.121054e+01   2.233012e+00
   9.675515e+00   2.650866e+00
  -8.939379e+00   5.532707e+00
  -2.230759e+01   5.013421e+00
