
 $NMID
 id='ANONYMOUS ', fmtdat='(2E16.6)'
 volume=1.0
 tramp=1.0
 $END
   8.153706e+02  -6.202039e+00
   6.550757e+02   3.787476e+02
  -7.409525e+01   5.995656e+02
  -4.734784e+02   3.278180e+02
  -2.819112e+02  -5.298116e+01
   5.675283e+01  -1.324864e+02
   1.936283e+02   6.207363e+01
   3.404800e+01   1.968757e+02
  -1.105732e+02   1.460781e+02
  -1.454699e+02   4.245538e+01
  -8.965114e+01  -5.755464e+01
  -4.842286e+01  -1.702652e+02
   6.945853e+01  -6.127856e+01
   1.149947e+02   1.125924e+02
   2.167960e+01   9.689466e+01
  -1.058696e+02   4.612602e+01
  -7.535107e+01  -1.072158e+02
   4.395405e+01  -1.504332e+02
   1.266808e+02  -6.087565e+01
   9.200887e+01   3.714254e+01
   1.957252e+01   9.130133e+01
  -2.977594e+01   1.046707e+02
  -3.957422e+01   8.272036e+01
  -1.232185e+01   2.484673e+01
   3.413761e+01  -1.091568e+01
   3.482684e+01   2.537166e+01
  -6.053799e+01   5.687850e+01
  -1.457672e+02   3.217865e+01
  -1.155660e+02  -3.988954e+01
   2.793684e+01  -6.632579e+01
   1.141012e+02  -1.369540e+01
   8.044431e+01   6.200064e+01
  -3.912454e+01   9.133405e+01
  -9.977946e+01   5.203072e+01
  -9.210084e+01  -1.219339e+01
  -5.606364e+01  -8.747722e+01
  -1.320336e+01  -8.763733e+01
   3.408368e+01  -5.505293e-03
   2.132307e+01   7.005826e+01
  -4.519539e+01   2.442269e+01
  -5.779921e+01  -7.944955e+01
   1.967949e+01  -1.419630e+02
   9.194215e+01  -3.452992e+01
   7.134007e+01   9.022435e+01
  -2.098973e+01   6.406678e+01
  -7.998704e+01  -5.395277e+01
  -4.477292e+00  -8.971623e+01
   1.017103e+02  -1.646612e+01
   1.379221e+02   8.046012e+01
   4.878877e+01   7.908072e+01
  -4.502111e+01   5.330390e+01
  -1.116597e+02   8.456599e+00
  -9.411451e+01  -4.736455e+01
  -1.411743e+00  -7.272674e+01
   9.173337e+01  -3.819519e+01
   8.596658e+01   1.838237e+01
   5.852561e+00   3.203546e+01
  -2.651167e+01   3.737746e+00
   1.596456e+01  -1.553817e+01
   5.573573e+01   8.789303e+00
   2.019323e+01   5.089252e+01
  -3.291114e+01   4.830459e+01
  -5.608398e+01   2.398772e+01
  -3.833338e+01   1.436636e+00
  -3.017720e+00  -2.499235e+01
   2.544927e+01  -7.331465e+01
   5.036250e+01  -7.672304e+01
   5.706243e+01   1.547014e+00
   3.963290e+01   8.530572e+01
   3.517798e+00   8.605035e+01
  -2.336482e+01   4.162089e+01
  -1.103185e+01   8.889250e+00
  -1.184342e+01   1.100731e+01
  -3.072477e+01   1.139774e+01
  -4.807069e+01  -1.040086e+01
  -2.641662e+01  -4.265625e+01
   6.378237e+00  -3.494473e+01
   2.522139e+01  -3.553721e+00
   3.263193e+01   3.418945e+01
   1.107404e+01   3.769286e+01
  -2.720028e+01   1.781746e+01
  -5.491065e+01  -6.003179e+00
  -4.023721e+01  -3.082000e+01
  -2.100444e+00  -4.901944e+01
   2.910167e+01  -3.300422e+01
   2.948426e+01  -1.282094e+01
   3.128757e+01  -1.346647e+01
   6.324520e+01  -1.652983e+01
   9.866176e+01   1.991431e+01
   7.436482e+01   6.253445e+01
  -8.164763e+00   8.602317e+01
  -9.170796e+01   8.704631e+01
  -9.508863e+01   6.232806e+01
  -5.360147e+01   4.333381e+00
  -1.474877e+01  -3.808917e+01
   2.824103e+00  -4.478678e+01
   1.159143e+00  -1.675086e+01
  -1.735639e+01   9.446465e+00
  -3.368903e+01  -4.269539e+00
  -1.319516e+01  -3.137629e+01
   1.208430e+01  -1.905909e+01
   3.160077e+01   2.090014e+00
   1.109964e+01   2.046120e+01
  -2.309936e+01   6.830370e+00
  -2.824655e+01  -3.470007e+01
  -8.028128e+00  -5.590289e+01
   2.645433e+01  -3.148149e+01
   5.343307e+01   1.753328e+00
   5.475531e+01   2.447930e+01
   3.255279e+01   3.694782e+01
  -1.403610e+01   3.257417e+01
  -3.815173e+01   1.543954e+01
  -2.250717e+01  -1.447433e+00
   1.378795e+01   2.053037e+00
   1.352344e+01   1.568981e+01
  -1.342216e+01   1.809425e+01
  -3.554876e+01   9.202975e+00
  -1.489726e+01  -1.606681e+00
   8.241653e+00  -3.985390e-01
   8.205974e+00   6.788411e+00
  -2.046000e+01   6.131047e+00
  -4.805837e+01  -2.372037e-01
  -4.689686e+01  -1.354104e+01
  -1.203420e+01  -3.710013e+01
   2.808745e+01  -4.373930e+01
   4.512884e+01  -2.959085e+01
   3.154715e+01  -9.955829e-01
   7.651183e-01   1.961283e+01
  -1.289750e+01   9.150399e+00
   1.471375e-01  -1.140897e+01
   3.140932e+01  -1.244337e+01
   3.708139e+01   7.712584e+00
   1.996141e+01   2.991968e+01
  -9.963345e+00   3.099325e+01
  -2.555636e+01   1.676551e+01
  -2.036800e+01   4.232171e+00
   6.214708e-02   8.177635e-01
   5.708846e+00   4.384157e+00
  -7.419434e+00   9.335373e+00
  -2.928445e+01   6.988068e+00
  -3.387795e+01  -1.126291e+01
  -7.776171e+00  -2.985242e+01
   2.687215e+01  -2.949158e+01
   3.072475e+01  -8.512152e+00
   1.223256e+01   1.579803e+01
  -1.124336e+01   2.042999e+01
  -1.170586e+01   1.297386e+01
  -9.792479e-01   6.503887e+00
   6.120702e-01  -2.766982e+00
  -6.510841e+00  -3.682750e+00
  -1.350404e+01  -8.783869e+00
  -1.438703e+01  -1.762419e+01
  -2.679614e+00  -2.767430e+01
   1.488774e+01  -2.773572e+01
   3.889026e+01  -9.277187e+00
   4.282717e+01   2.006611e+01
   1.944345e+01   3.813276e+01
  -1.032958e+01   3.534154e+01
  -2.266395e+01   1.336484e+01
  -1.683476e+01  -3.953972e+00
  -1.490397e+01  -5.379644e+00
  -1.276092e+01  -2.916259e-01
  -1.596734e+01  -1.182309e-01
  -7.374766e+00  -9.074125e+00
   6.070237e+00  -9.310552e+00
   1.556875e+01  -1.232175e+01
   1.434490e+01  -4.259971e+00
   1.976764e+00   9.246916e+00
  -1.717771e+01   1.570179e+01
  -2.550761e+01   3.119190e+00
  -1.918766e+01  -1.716299e+01
   5.782640e+00  -2.720075e+01
   1.778216e+01  -1.182362e+01
   3.793780e+01  -2.096434e+00
   2.314689e+01   2.174357e+01
  -2.757557e+00   2.707352e+01
  -1.533129e+01   1.810911e+01
  -1.369994e+01   1.536917e+01
  -1.379742e+01   1.596174e+01
  -1.064131e+01   1.421656e+01
  -1.836525e+01  -2.478312e+00
  -2.079332e+01  -2.148947e+01
  -1.355089e+01  -3.439421e+01
   3.431704e+00  -3.053646e+01
   2.182962e+01  -1.017880e+01
   2.938002e+01   1.233578e+01
   1.750379e+01   2.387506e+01
  -1.326788e+00   2.149056e+01
  -6.504270e+00   8.948781e+00
  -8.535811e-01  -1.010920e+00
  -4.774549e-01  -4.764024e+00
  -1.017248e+01  -3.153177e+00
  -2.017123e+01  -3.811374e+00
  -1.199258e+01  -1.032238e+00
   7.891523e+00  -2.902999e-02
   3.033337e+01   1.240352e+00
   2.814720e+01   2.363426e+00
   5.703530e+00   5.340213e+00
  -1.662457e+01   1.148313e+01
  -2.211150e+01   1.219345e+01
  -7.691318e+00   3.664486e+00
   7.541784e+00  -4.722919e+00
   4.691411e+00  -1.869894e-01
   1.705276e+00   1.012057e+01
  -6.886242e+00   1.344248e+01
  -7.227240e+00   3.284628e+00
  -8.722782e+00  -6.095121e+00
  -1.615304e+01  -8.254010e+00
  -2.146139e+01  -5.857150e+00
  -1.502818e+01  -7.154334e+00
   6.255110e-01  -1.485154e+01
   1.238537e+01  -2.352484e+01
   2.372536e+01  -2.281525e+01
   2.679289e+01  -7.277224e+00
   2.148189e+01   1.254249e+01
  -3.273149e-01   1.750787e+01
  -1.575101e+01   1.208544e+01
  -1.088999e+01   2.859757e+00
   1.141299e+01   1.654909e+00
   2.550492e+01   7.518091e+00
   1.319091e+01   1.380555e+01
  -1.327389e+01   1.462498e+01
  -2.916092e+01   7.366707e+00
  -2.637104e+01  -3.079184e+00
  -8.303449e+00  -1.256283e+01
   8.624873e+00  -1.379714e+01
   1.018288e+01  -6.471508e+00
  -4.468518e+00   3.598397e+00
  -1.362869e+01   4.678580e-01
  -6.795748e+00  -1.659559e+01
   1.197633e+01  -3.080729e+01
   2.588344e+01  -1.935708e+01
   2.461068e+01   1.084480e+01
   8.384340e+00   3.721781e+01
  -9.953264e+00   3.344013e+01
  -1.606446e+01   8.274991e+00
  -1.259584e+01  -1.554696e+01
  -7.824164e+00  -1.861371e+01
   4.112533e+00  -6.632563e+00
   9.668989e+00   1.260986e+00
   7.064235e+00  -3.245527e-01
  -1.986155e-01  -1.628616e+00
  -1.619018e+00   4.649323e+00
   1.021116e+01   1.213819e+01
   1.546786e+01   1.063513e+01
   1.569338e+00   2.051536e+00
  -2.042880e+01  -4.457908e+00
  -2.388634e+01  -1.538156e+00
  -8.332203e+00   6.628629e-02
   1.274091e+01  -2.245040e-01
   1.214189e+01  -5.481351e+00
   1.994982e+00  -3.278503e+00
  -6.916137e+00   1.090196e+00
   1.211811e+00   2.378821e+00
   7.196629e+00   6.674012e-01
  -1.010616e+00  -1.873294e+00
  -1.801759e+01  -2.111848e+00
  -2.080019e+01  -4.251875e+00
  -2.220034e+00  -1.120049e+01
   2.394316e+01  -1.833799e+01
   3.249482e+01  -9.497434e+00
   2.588910e+01   9.314191e+00
   2.513871e+00   2.438914e+01
  -1.541614e+01   2.156099e+01
  -1.855935e+01   8.719719e+00
  -1.242428e+01   1.480050e+00
  -3.043946e+00  -3.889060e-01
   1.316437e+00  -1.340721e-01
  -9.796666e-01  -2.259312e+00
  -1.517842e+00  -1.008190e+01
  -5.334477e+00  -1.316294e+01
   1.242705e+00  -9.767232e+00
   8.801771e+00   2.589009e+00
   1.201542e+01   1.715937e+01
   4.635588e+00   1.696947e+01
  -8.647671e+00   4.273082e+00
  -1.652610e+01  -1.024784e+01
  -8.986593e+00  -1.454048e+01
   7.541026e+00  -8.040394e+00
   1.531257e+01   1.272089e+00
   6.032661e+00   7.674193e+00
  -6.833488e+00   9.307541e+00
  -7.979651e+00   6.928390e+00
   6.211464e+00   9.838508e-01
   1.402987e+01  -4.097815e+00
   1.595304e+00  -5.543263e-01
  -1.940449e+01   8.196650e+00
  -2.381087e+01   1.492898e+01
  -9.600714e+00   2.546123e+00
   2.156192e+00  -1.271662e+01
   6.001020e+00  -1.687282e+01
   4.008510e+00  -4.868563e+00
   2.721790e+00   6.225256e+00
   1.367304e-01   9.268776e+00
  -5.805023e+00   7.039819e-01
  -9.539572e+00  -6.069883e+00
  -5.127473e+00  -6.393920e+00
   4.723477e+00  -2.854782e+00
   9.530341e+00  -1.719792e+00
   6.638126e+00  -2.025184e+00
   1.451363e+00  -1.685946e+00
  -6.930634e-01   3.959605e+00
  -1.927708e+00   8.845581e+00
  -2.628860e+00   9.439490e+00
  -5.846592e+00   2.028550e+00
  -5.814397e+00  -7.171180e+00
  -2.128152e+00  -1.033335e+01
   5.728313e+00  -3.439963e+00
   9.275916e+00   4.205386e+00
   4.224380e+00   7.692245e+00
  -7.166226e+00   4.303591e+00
  -1.571770e+01  -2.177343e+00
  -1.129455e+01  -3.496752e+00
   3.622630e+00  -3.347144e+00
   1.203774e+01  -4.397677e+00
   4.715469e+00  -4.940638e+00
  -9.369884e+00  -4.071077e+00
  -8.653698e+00  -3.330789e+00
   4.775848e+00  -5.501510e+00
   1.755036e+01  -4.732992e+00
