
 $NMID
 id='ANONYMOUS ', fmtdat='(2E16.6)'
 volume=1.0
 tramp=1.0
 $END
   2.484043e+07  -8.174865e+05
   1.705721e+07   1.131286e+07
   4.225183e+05   1.589000e+07
  -1.057122e+07   1.073822e+07
  -9.086421e+06   1.166693e+06
  -6.514349e+05  -4.524519e+06
   5.050305e+06  -2.338452e+06
   3.907490e+06   3.955873e+06
  -1.054695e+06   6.906955e+06
  -4.633275e+06   3.179452e+06
  -4.136809e+06  -3.118060e+06
  -6.511838e+05  -5.211163e+06
   2.375384e+06  -1.163648e+06
   2.025973e+06   4.270124e+06
  -1.351606e+06   5.141158e+06
  -4.200664e+06   5.867085e+05
  -3.260429e+06  -4.837136e+06
   9.538604e+05  -6.274201e+06
   4.686863e+06  -3.116443e+06
   4.899976e+06   1.280260e+06
   2.190951e+06   3.417718e+06
  -2.363322e+05   2.771429e+06
  -6.245085e+04   1.542104e+06
   1.818585e+06   1.868371e+06
   2.292414e+06   3.499307e+06
  -5.646047e+05   4.230501e+06
  -4.961490e+06   2.498880e+06
  -6.739523e+06  -7.734353e+05
  -3.777771e+06  -3.071553e+06
   1.298014e+06  -2.757030e+06
   3.646145e+06  -4.381320e+05
   1.420600e+06   1.776460e+06
  -2.432712e+06   1.998179e+06
  -3.801661e+06  -8.049346e+04
  -1.849533e+06  -2.804650e+06
   8.275934e+05  -3.657089e+06
   1.674076e+06  -1.638401e+06
   6.635385e+05   1.245924e+06
  -4.897098e+05   1.784661e+06
  -4.669689e+05  -6.488640e+05
   6.649276e+05  -2.990080e+06
   1.830963e+06  -2.084082e+06
   1.800554e+06   1.244843e+06
   1.762342e+05   3.039215e+06
  -1.879821e+06   1.071421e+06
  -2.243834e+06  -2.469104e+06
   8.759982e+04  -3.680154e+06
   3.442796e+06  -1.350918e+06
   4.650316e+06   2.146811e+06
   2.212466e+06   3.747483e+06
  -1.913049e+06   2.537260e+06
  -4.094880e+06  -2.967606e+04
  -2.621195e+06  -1.803662e+06
   6.975798e+05  -1.645474e+06
   2.549023e+06  -1.252941e+05
   1.516913e+06   1.096995e+06
  -7.245387e+05   8.414996e+05
  -1.507965e+06  -4.398669e+05
  -1.352793e+05  -1.216160e+06
   1.509202e+06  -5.889986e+05
   1.237418e+06   7.782016e+05
  -8.894425e+05   1.428521e+06
  -2.563093e+06   5.246567e+05
  -1.726780e+06  -1.470929e+06
   1.214177e+06  -3.117830e+06
   3.827474e+06  -2.949188e+06
   4.124227e+06  -6.483038e+05
   2.343104e+06   2.384492e+06
   3.159878e+05   4.028911e+06
  -5.811734e+05   3.451083e+06
  -5.718508e+05   1.893050e+06
  -7.437683e+05   1.071648e+06
  -1.598071e+06   1.086831e+06
  -2.522223e+06   5.771977e+05
  -2.507800e+06  -1.096408e+06
  -1.176207e+06  -2.639043e+06
   8.048687e+05  -2.270499e+06
   2.115917e+06   2.987593e+04
   1.712951e+06   2.304648e+06
  -2.564864e+05   2.607227e+06
  -2.336965e+06   8.402369e+05
  -2.879829e+06  -1.404349e+06
  -1.576544e+06  -2.501104e+06
   2.344171e+05  -2.138245e+06
   1.045603e+06  -1.238258e+06
   8.569363e+05  -8.101418e+05
   1.002574e+06  -9.400952e+05
   2.251012e+06  -8.317473e+05
   3.531508e+06   2.430495e+05
   2.995967e+06   2.062533e+06
   2.712493e+05   3.487063e+06
  -2.777224e+06   3.365278e+06
  -3.768160e+06   1.547800e+06
  -2.162374e+06  -8.189223e+05
   2.777813e+05  -2.071229e+06
   1.329213e+06  -1.427567e+06
   4.272738e+05   2.064683e+05
  -1.067547e+06   1.048536e+06
  -1.493919e+06   3.068184e+05
  -5.554246e+05  -9.258456e+05
   5.980666e+05  -9.830982e+05
   6.971142e+05   2.658666e+05
  -3.926082e+05   1.124731e+06
  -1.602583e+06   1.008328e+05
  -1.637565e+06  -2.167936e+06
  -8.360173e+04  -3.456516e+06
   2.167368e+06  -2.332987e+06
   3.497649e+06   3.682319e+05
   2.842633e+06   2.487602e+06
   6.967558e+05   2.655256e+06
  -1.204802e+06   1.350140e+06
  -1.477331e+06   1.108033e+05
  -4.322175e+05  -3.246196e+04
   3.410100e+05   6.332954e+05
  -2.039236e+05   1.038831e+06
  -1.390757e+06   5.275605e+05
  -1.665264e+06  -4.940367e+05
  -4.882424e+05  -1.040268e+06
   9.387241e+05  -5.988020e+05
   9.762969e+05   3.453890e+05
  -5.839603e+05   7.919325e+05
  -2.176660e+06   1.709135e+05
  -2.046923e+06  -1.129218e+06
  -8.349234e+04  -2.056866e+06
   2.026890e+06  -1.763688e+06
   2.471594e+06  -3.859188e+05
   1.065912e+06   9.591430e+05
  -6.788742e+05   1.141190e+06
  -1.132744e+06   1.536773e+05
  -8.079555e+04  -8.158012e+05
   1.256619e+06  -6.324994e+05
   1.535848e+06   5.317683e+05
   5.363782e+05   1.407336e+06
  -7.589574e+05   1.084530e+06
  -1.165988e+06   1.039580e+04
  -4.205564e+05  -5.917524e+05
   5.701735e+05  -1.074113e+05
   6.121629e+05   8.645801e+05
  -5.236874e+05   1.214322e+06
  -1.756482e+06   4.415667e+05
  -1.756930e+06  -9.087297e+05
  -3.780346e+05  -1.765514e+06
   1.139569e+06  -1.462462e+06
   1.468383e+06  -3.053029e+05
   5.447850e+05   7.013167e+05
  -5.084694e+05   7.733614e+05
  -6.691893e+05   7.209607e+04
  -5.716813e+03  -5.268291e+05
   5.920000e+05  -4.124349e+05
   4.498363e+05   1.103645e+05
  -2.176779e+05   2.383185e+05
  -5.720430e+05  -3.351877e+05
  -2.035046e+04  -1.001419e+06
   1.122972e+06  -8.652066e+05
   1.829728e+06   2.785521e+05
   1.316163e+06   1.653536e+06
  -1.386840e+05   2.177534e+06
  -1.415633e+06   1.437838e+06
  -1.649861e+06   5.152559e+04
  -1.016964e+06  -9.162712e+05
  -3.712102e+05  -9.286543e+05
  -2.366082e+05  -4.063798e+05
  -3.314906e+05  -1.772484e+05
  -6.487349e+04  -5.207380e+05
   6.751656e+05  -8.554332e+05
   1.311984e+06  -4.450320e+05
   1.111612e+06   6.521655e+05
  -7.364463e+04   1.483930e+06
  -1.512911e+06   1.126312e+06
  -2.072693e+06  -3.326272e+05
  -1.163528e+06  -1.786088e+06
   6.574331e+05  -2.095996e+06
   2.083472e+06  -1.097016e+06
   2.177897e+06   3.333737e+05
   1.142037e+06   1.148579e+06
  -1.427532e+04   1.066289e+06
  -4.916300e+05   6.693944e+05
  -3.451893e+05   6.404358e+05
  -2.070113e+05   9.740071e+05
  -5.128657e+05   1.014434e+06
  -1.041001e+06   2.640999e+05
  -1.159196e+06  -9.441091e+05
  -5.068587e+05  -1.672900e+06
   5.460928e+05  -1.282492e+06
   1.154669e+06  -6.354023e+04
   7.970996e+05   1.028353e+06
  -1.727180e+05   1.226306e+06
  -8.533053e+05   5.515766e+05
  -7.110776e+05  -3.392744e+05
  -9.355414e+04  -8.072797e+05
   2.304894e+05  -7.332349e+05
  -2.591993e+04  -4.607412e+05
  -3.470859e+05  -3.376099e+05
  -3.293025e+04  -3.579383e+05
   9.306077e+05  -2.394540e+05
   1.717505e+06   2.024203e+05
   1.447731e+06   8.025533e+05
   1.359982e+05   1.161593e+06
  -1.214599e+06   9.933685e+05
  -1.551916e+06   3.861781e+05
  -7.985072e+05  -2.325136e+05
   1.444106e+05  -4.208552e+05
   4.011520e+05  -1.166877e+05
  -2.152659e+04   2.598389e+05
  -4.465597e+05   2.030369e+05
  -4.094755e+05  -2.973234e+05
  -9.953269e+04  -6.736396e+05
   3.533399e+04  -4.309463e+05
  -1.355409e+05   1.809707e+05
  -3.472670e+05   3.811207e+05
  -2.743020e+05  -1.846539e+05
   1.744454e+05  -9.217791e+05
   7.684777e+05  -9.335727e+05
   1.040435e+06  -8.948135e+04
   6.097289e+05   7.983938e+05
  -3.468117e+05   8.873969e+05
  -1.014211e+06   1.890589e+05
  -6.379954e+05  -5.388109e+05
   5.749670e+05  -6.155868e+05
   1.471947e+06  -2.165033e+04
   1.091715e+06   7.115624e+05
  -2.774091e+05   1.002151e+06
  -1.360836e+06   6.471191e+05
  -1.224796e+06  -4.545676e+04
  -1.999567e+05  -4.878549e+05
   5.569749e+05  -3.176218e+05
   3.037564e+05   2.115004e+05
  -5.745534e+05   4.083779e+05
  -1.040420e+06  -1.537683e+05
  -4.930387e+05  -1.092632e+06
   6.445599e+05  -1.473387e+06
   1.380299e+06  -7.187676e+05
   1.125907e+06   7.122801e+05
   1.858902e+05   1.634811e+06
  -6.507200e+05   1.243529e+06
  -8.601756e+05  -6.256697e+04
  -4.927905e+05  -1.055377e+06
   7.342648e+04  -9.398902e+05
   4.719608e+05  -1.317671e+05
   5.057061e+05   3.531044e+05
   2.382641e+05   1.514552e+05
   8.487013e+03  -1.149405e+05
   1.287130e+05   1.984572e+05
   4.246239e+05   8.356220e+05
   2.948300e+05   9.905138e+05
  -5.148210e+05   3.875510e+05
  -1.353311e+06  -4.023511e+05
  -1.266562e+06  -7.378080e+05
  -1.889306e+05  -6.053209e+05
   8.511431e+05  -3.769809e+05
   9.178034e+05  -2.101332e+05
   2.521697e+05  -1.059263e+04
  -1.626198e+05   1.949701e+05
   7.262145e+04   2.383976e+05
   3.479909e+05   1.433482e+05
   3.777486e+03   1.253037e+05
  -7.092735e+05   1.732823e+05
  -9.253172e+05  -3.695673e+04
  -2.327000e+05  -5.982218e+05
   8.515014e+05  -9.937785e+05
   1.446724e+06  -6.073861e+05
   1.132771e+06   4.404746e+05
   2.091503e+05   1.278146e+06
  -6.534919e+05   1.200900e+06
  -9.357943e+05   4.134233e+05
  -6.029358e+05  -2.658448e+05
  -7.521336e+04  -3.183356e+05
   1.536527e+05   4.172815e+03
  -3.957136e+04   8.751174e+04
  -3.203671e+05  -2.973922e+05
  -2.666788e+05  -7.237621e+05
   1.798248e+05  -5.864858e+05
   6.301724e+05   1.772165e+05
   6.016252e+05   9.188071e+05
  -7.175941e+03   9.112211e+05
  -7.338650e+05   1.251989e+05
  -8.940238e+05  -7.342367e+05
  -2.477758e+05  -9.693991e+05
   6.533640e+05  -5.338134e+05
   9.525529e+05   9.408850e+04
   4.210819e+05   4.800037e+05
  -2.485280e+05   5.179982e+05
  -2.584457e+05   3.096740e+05
   3.095916e+05   4.362578e+04
   6.049138e+05  -2.078076e+04
   1.009734e+05   2.581645e+05
  -7.390583e+05   6.209953e+05
  -1.052616e+06   5.526360e+05
  -5.954475e+05  -8.748918e+04
   9.336780e+04  -7.431802e+05
   4.163136e+05  -7.317164e+05
   2.921987e+05  -8.231199e+04
   7.983844e+02   4.648484e+05
  -2.303661e+05   3.417424e+05
  -3.191667e+05  -2.103616e+05
  -2.146488e+05  -5.199971e+05
   6.782679e+04  -3.102619e+05
   3.461604e+05   7.486438e+04
   3.987338e+05   1.962815e+05
   2.168632e+05   3.723994e+04
   8.373367e+03  -7.210103e+04
  -7.443225e+04   8.909473e+04
  -9.983336e+04   3.658004e+05
  -1.995795e+05   4.038431e+05
  -3.337739e+05   5.069021e+04
  -3.036860e+05  -4.327765e+05
   8.257873e+02  -5.908162e+05
   4.057135e+05  -2.411799e+05
   5.408092e+05   3.033985e+05
   1.850521e+05   5.452473e+05
  -4.313239e+05   3.146713e+05
  -7.426771e+05  -1.046102e+05
  -4.043995e+05  -3.409384e+05
   2.632718e+05  -2.984789e+05
   5.505215e+05  -1.302910e+05
   1.624129e+05  -3.899987e+03
  -3.956013e+05  -4.223501e+03
  -3.975019e+05  -1.465103e+05
   2.225790e+05  -3.118233e+05
   7.820430e+05  -2.361653e+05
