
 $NMID
 id='ANONYMOUS ', fmtdat='(2E16.6)'
 volume=1.0
 tramp=1.0
 $END
   5.337746e+07   2.475794e+06
   3.066374e+07   3.434652e+07
  -8.553712e+06   3.574198e+07
  -2.671661e+07   1.288830e+07
  -1.541007e+07  -7.143802e+06
   3.436355e+06  -8.722041e+06
   9.307281e+06   1.433642e+06
   2.351008e+06   9.367134e+06
  -6.200768e+06   8.736073e+06
  -9.259370e+06   1.592005e+06
  -6.410193e+06  -6.213519e+06
  -4.033945e+05  -8.270281e+06
   3.942314e+06  -2.419337e+06
   2.300556e+06   5.381848e+06
  -3.845335e+06   6.166107e+06
  -7.443213e+06  -1.552622e+06
  -3.827389e+06  -9.888788e+06
   4.070377e+06  -1.106968e+07
   9.850344e+06  -5.174211e+06
   1.015764e+07   2.445292e+06
   5.903177e+06   7.394007e+06
   2.453515e+05   8.168952e+06
  -2.959067e+06   5.547987e+06
  -1.731627e+06   2.512705e+06
   1.052312e+06   2.236759e+06
   1.878629e+04   4.102311e+06
  -5.459575e+06   3.959528e+06
  -9.320134e+06  -1.138659e+04
  -6.534756e+06  -4.296087e+06
   6.410520e+04  -4.841310e+06
   3.753969e+06  -2.235998e+06
   2.366216e+06   1.967918e+05
  -7.410979e+05   9.545873e+05
  -2.343997e+06   3.471088e+05
  -2.067467e+06  -1.580029e+06
  -4.175291e+05  -3.867116e+06
   1.928533e+06  -3.568843e+06
   3.014307e+06   3.101547e+05
   1.389990e+06   3.531347e+06
  -8.257809e+05   1.703232e+06
  -1.685295e+05  -2.455490e+06
   2.477770e+06  -2.137722e+06
   2.221455e+06   3.127701e+06
  -2.498417e+06   5.727641e+06
  -6.560837e+06   6.934528e+05
  -4.545081e+06  -6.755383e+06
   2.143254e+06  -7.992737e+06
   7.154992e+06  -1.979457e+06
   6.485284e+06   4.539179e+06
   1.563218e+06   5.867900e+06
  -3.442954e+06   2.496335e+06
  -5.027755e+06  -1.647540e+06
  -2.235955e+06  -3.436489e+06
   2.370129e+06  -2.018258e+06
   4.286669e+06   1.046669e+06
   1.767198e+06   2.663209e+06
  -1.689000e+06   1.238012e+06
  -1.649762e+06  -1.053481e+06
   1.252984e+06  -8.655449e+05
   2.301229e+06   1.689119e+06
  -6.394505e+05   3.193436e+06
  -4.399154e+06   1.638825e+06
  -4.980839e+06  -1.450388e+06
  -2.064349e+06  -3.855248e+06
   1.969998e+06  -4.957524e+06
   5.063470e+06  -4.414821e+06
   6.034410e+06  -1.370979e+06
   4.222076e+06   3.258275e+06
   6.124094e+05   5.975270e+06
  -1.966927e+06   4.525616e+06
  -1.719080e+06   1.164036e+06
  -1.898461e+05  -1.761918e+05
  -1.167421e+05   9.676540e+05
  -1.713437e+06   1.612773e+06
  -2.760663e+06   2.775787e+04
  -1.858067e+06  -2.037220e+06
   1.235215e+05  -2.124250e+06
   1.577637e+06  -1.173297e+05
   1.564065e+06   2.139307e+06
  -1.454905e+05   2.874684e+06
  -2.773905e+06   1.456280e+06
  -4.252148e+06  -1.385287e+06
  -2.903310e+06  -3.766926e+06
   2.354472e+05  -4.032153e+06
   2.285720e+06  -2.484823e+06
   2.165847e+06  -1.002172e+06
   1.788839e+06  -6.070550e+05
   2.884409e+06  -3.602335e+05
   4.208798e+06   9.199077e+05
   3.284860e+06   2.850436e+06
  -5.447920e+04   4.045350e+06
  -3.323259e+06   3.673055e+06
  -4.197473e+06   1.868443e+06
  -2.576306e+06  -5.613722e+05
  -1.374910e+05  -2.211252e+06
   1.190006e+06  -1.831362e+06
   5.482276e+05   7.129646e+04
  -1.135757e+06   1.230280e+06
  -1.882619e+06   3.010959e+05
  -8.361461e+05  -1.219358e+06
   5.692190e+05  -1.071119e+06
   4.211298e+05   4.002379e+05
  -1.053022e+06   6.650394e+05
  -1.766228e+06  -1.285089e+06
  -5.297908e+05  -3.409193e+06
   1.647276e+06  -3.302658e+06
   3.109087e+06  -1.016103e+06
   3.212103e+06   1.530946e+06
   2.144144e+06   2.824413e+06
   3.348182e+05   2.603908e+06
  -1.294289e+06   1.382587e+06
  -1.566111e+06   1.447924e+05
  -4.825773e+05  -6.838189e+04
   3.182589e+05   7.564203e+05
  -4.636956e+05   1.295561e+06
  -1.893994e+06   4.808083e+05
  -1.956578e+06  -9.595010e+05
  -3.182291e+05  -1.406885e+06
   1.179115e+06  -5.110833e+05
   8.618623e+05   4.900646e+05
  -8.559935e+05   4.843902e+05
  -2.142157e+06  -4.047510e+05
  -1.670021e+06  -1.419072e+06
   3.304463e+05  -1.940574e+06
   2.353338e+06  -1.528156e+06
   2.746272e+06  -1.406568e+05
   1.138578e+06   1.300242e+06
  -9.727861e+05   1.430568e+06
  -1.538670e+06   1.125673e+05
  -1.440906e+05  -1.070298e+06
   1.527890e+06  -6.537113e+05
   1.657488e+06   8.490150e+05
   2.593260e+05   1.644947e+06
  -1.119480e+06   9.167080e+05
  -1.227241e+06  -3.617322e+05
  -2.099202e+05  -7.814530e+05
   7.853220e+05  -1.834457e+04
   6.761272e+05   1.071989e+06
  -6.352295e+05   1.376358e+06
  -2.005082e+06   4.395382e+05
  -1.956920e+06  -1.131626e+06
  -2.806288e+05  -2.063284e+06
   1.496407e+06  -1.551909e+06
   1.712156e+06  -1.264381e+05
   4.556085e+05   8.807209e+05
  -6.875155e+05   7.625216e+05
  -6.312347e+05   4.481397e+04
   1.321312e+05  -3.547394e+05
   4.981598e+05  -1.867268e+05
   1.247059e+05   7.198122e+04
  -4.347249e+05  -9.078054e+04
  -4.804463e+05  -6.822182e+05
   2.567930e+05  -1.159385e+06
   1.403879e+06  -8.178264e+05
   2.032577e+06   5.061100e+05
   1.352449e+06   1.984993e+06
  -3.281539e+05   2.377414e+06
  -1.660073e+06   1.318611e+06
  -1.662565e+06  -2.029205e+05
  -8.063536e+05  -9.277049e+05
  -2.820022e+05  -6.644372e+05
  -4.556796e+05  -2.423704e+05
  -5.989917e+05  -3.361150e+05
  -5.305839e+04  -7.543690e+05
   9.050457e+05  -8.466991e+05
   1.443125e+06  -2.529540e+05
   1.002150e+06   7.623749e+05
  -3.144926e+05   1.429446e+06
  -1.748220e+06   9.773166e+05
  -2.193939e+06  -5.824295e+05
  -1.019889e+06  -2.123459e+06
   1.104726e+06  -2.284533e+06
   2.553609e+06  -8.983764e+05
   2.287904e+06   7.590182e+05
   8.825627e+05   1.365571e+06
  -2.464316e+05   9.259632e+05
  -4.105047e+05   4.871468e+05
  -1.167343e+05   7.378654e+05
  -1.650629e+05   1.280703e+06
  -7.205404e+05   1.236953e+06
  -1.288981e+06   2.531036e+05
  -1.267745e+06  -1.127711e+06
  -4.601866e+05  -1.893957e+06
   6.805319e+05  -1.387952e+06
   1.267701e+06   6.206803e+04
   7.412166e+05   1.302553e+06
  -4.490891e+05   1.357990e+06
  -1.163725e+06   3.471482e+05
  -7.669294e+05  -7.227306e+05
   1.698768e+05  -1.053211e+06
   5.633786e+05  -7.464795e+05
   1.027536e+05  -4.071581e+05
  -4.110634e+05  -3.513929e+05
  -4.098896e+04  -3.806180e+05
   1.141501e+06  -1.536164e+05
   2.017469e+06   4.233374e+05
   1.546044e+06   1.096981e+06
  -1.032434e+05   1.412527e+06
  -1.619053e+06   1.050532e+06
  -1.818704e+06   1.887204e+05
  -7.993861e+05  -5.255480e+05
   2.834729e+05  -5.486096e+05
   5.059247e+05  -9.633383e+03
   1.079332e+04   4.163124e+05
  -4.484687e+05   2.343790e+05
  -4.592834e+05  -3.592205e+05
  -2.177231e+05  -7.240551e+05
  -7.378076e+04  -4.767364e+05
  -1.396823e+05   8.625371e+04
  -2.878818e+05   2.744119e+05
  -2.604584e+05  -2.416703e+05
   1.836541e+05  -9.654000e+05
   9.350879e+05  -1.010644e+06
   1.353001e+06  -1.126598e+05
   8.015161e+05   9.400685e+05
  -4.606575e+05   1.107096e+06
  -1.257267e+06   2.787615e+05
  -6.984183e+05  -5.972307e+05
   7.230032e+05  -6.067291e+05
   1.560568e+06   1.697257e+05
   9.473428e+05   8.988062e+05
  -5.268570e+05   9.499223e+05
  -1.499195e+06   3.971412e+05
  -1.203469e+06  -2.484406e+05
  -1.063136e+05  -5.122896e+05
   6.538032e+05  -2.334150e+05
   3.676723e+05   3.093490e+05
  -5.978382e+05   4.928352e+05
  -1.165407e+06  -1.265746e+05
  -6.182440e+05  -1.192879e+06
   6.477117e+05  -1.659519e+06
   1.499702e+06  -8.168441e+05
   1.208639e+06   7.988830e+05
   1.240926e+05   1.776340e+06
  -7.872663e+05   1.241222e+06
  -9.039670e+05  -2.207439e+05
  -3.669336e+05  -1.196502e+06
   2.678975e+05  -9.419016e+05
   5.611830e+05  -5.438629e+04
   4.370901e+05   3.912976e+05
   1.480068e+05   1.400077e+05
   5.509111e+04  -8.944572e+04
   2.745372e+05   3.098822e+05
   4.656326e+05   9.791143e+05
   1.317327e+05   1.071032e+06
  -7.343658e+05   3.564194e+05
  -1.434890e+06  -5.225312e+05
  -1.218057e+06  -8.811319e+05
  -1.511949e+05  -7.000099e+05
   8.512995e+05  -3.796302e+05
   9.760597e+05  -1.345694e+05
   3.620921e+05   7.425027e+04
  -1.493922e+05   2.182265e+05
  -5.584042e+04   1.941584e+05
   2.448578e+05   9.594611e+04
   5.018753e+04   1.331337e+05
  -6.487961e+05   2.132798e+05
  -1.036694e+06  -4.844707e+04
  -4.221047e+05  -7.055620e+05
   8.648402e+05  -1.141929e+06
   1.721601e+06  -6.924710e+05
   1.398920e+06   4.736631e+05
   2.244508e+05   1.399133e+06
  -8.162828e+05   1.336214e+06
  -1.059916e+06   5.033875e+05
  -6.378437e+05  -2.453277e+05
  -1.259557e+05  -3.604010e+05
   5.843136e+04  -7.394183e+04
  -8.555036e+04   1.749598e+03
  -2.749677e+05  -3.798868e+05
  -2.069169e+05  -8.087386e+05
   1.994307e+05  -6.694431e+05
   6.670026e+05   1.322907e+05
   7.083568e+05   9.570193e+05
   9.751531e+04   1.028294e+06
  -7.440475e+05   2.370598e+05
  -1.005799e+06  -7.332856e+05
  -3.185149e+05  -1.092362e+06
   7.274726e+05  -6.594545e+05
   1.113963e+06   1.084861e+05
   5.142649e+05   6.383338e+05
  -3.103632e+05   6.780148e+05
  -4.041539e+05   3.537545e+05
   2.277484e+05   9.979854e+03
   6.397942e+05  -1.915712e+04
   1.400625e+05   3.137766e+05
  -8.409605e+05   6.400554e+05
  -1.279713e+06   4.755416e+05
  -7.648356e+05  -2.176505e+05
   1.247941e+05  -8.642026e+05
   5.926866e+05  -8.342563e+05
   4.456896e+05  -1.572835e+05
   4.676395e+04   4.692131e+05
  -2.488559e+05   4.328939e+05
  -3.434734e+05  -1.411464e+05
  -2.345702e+05  -5.796315e+05
   6.308458e+04  -4.366954e+05
   3.867390e+05   5.001947e+04
   4.664696e+05   3.060281e+05
   2.362812e+05   1.142537e+05
  -3.666666e+04  -1.635418e+05
  -7.904011e+04  -7.320458e+04
   2.439570e+04   3.407730e+05
  -3.501009e+04   5.638558e+05
  -3.139879e+05   2.379709e+05
  -4.655069e+05  -3.712061e+05
  -1.651901e+05  -6.454788e+05
   4.059656e+05  -3.074436e+05
   6.613422e+05   2.870542e+05
   2.424402e+05   5.693436e+05
  -5.198460e+05   3.478344e+05
  -8.827020e+05  -9.568902e+04
  -4.676568e+05  -3.892293e+05
   3.045329e+05  -4.005893e+05
   6.460574e+05  -2.219166e+05
   2.631826e+05  -1.224090e+04
  -3.256104e+05   7.281112e+04
  -3.948502e+05  -5.478175e+04
   1.582276e+05  -2.716378e+05
   7.171265e+05  -2.477850e+05
