
 $NMID
 id='ANONYMOUS ', fmtdat='(2E16.6)'
 volume=1.0
 tramp=1.0
 $END
   5.805987e+07  -4.306570e+05
   3.507998e+07   3.610950e+07
  -7.699709e+06   3.951770e+07
  -2.854514e+07   1.492314e+07
  -1.693220e+07  -7.557963e+06
   3.554637e+06  -9.640992e+06
   1.011747e+07   1.485707e+06
   2.676743e+06   1.012802e+07
  -6.530505e+06   9.416726e+06
  -9.927408e+06   1.897665e+06
  -7.146643e+06  -6.302532e+06
  -8.663724e+05  -8.710811e+06
   4.020681e+06  -2.860463e+06
   2.637761e+06   5.397707e+06
  -3.893041e+06   6.548513e+06
  -8.069457e+06  -1.442620e+06
  -4.529665e+06  -1.046273e+07
   3.880889e+06  -1.209149e+07
   1.034064e+07  -6.125054e+06
   1.113800e+07   1.970391e+06
   6.975878e+06   7.624515e+06
   8.787178e+05   9.009493e+06
  -3.051433e+06   6.413775e+06
  -2.180895e+06   2.773228e+06
   9.216706e+05   1.972745e+06
   3.340095e+05   4.032837e+06
  -5.258120e+06   4.478928e+06
  -9.670708e+06   6.716661e+05
  -7.209893e+06  -4.062336e+06
  -4.529051e+05  -5.134479e+06
   3.580985e+06  -2.728214e+06
   2.484410e+06  -2.241291e+05
  -4.147909e+05   7.688976e+05
  -2.045566e+06   5.115790e+05
  -2.147541e+06  -1.240412e+06
  -8.417888e+05  -3.822764e+06
   1.723671e+06  -3.982164e+06
   3.391521e+06  -6.687382e+04
   1.928868e+06   3.687803e+06
  -7.394161e+05   2.146347e+06
  -4.299779e+05  -2.316001e+06
   2.454243e+06  -2.275575e+06
   2.482800e+06   3.298228e+06
  -2.576567e+06   6.333422e+06
  -7.284911e+06   1.071815e+06
  -5.354929e+06  -7.147504e+06
   1.963333e+06  -8.828391e+06
   7.617624e+06  -2.531364e+06
   7.040665e+06   4.530409e+06
   1.796073e+06   6.115973e+06
  -3.545531e+06   2.684449e+06
  -5.268853e+06  -1.624885e+06
  -2.369940e+06  -3.577356e+06
   2.521328e+06  -2.226652e+06
   4.630174e+06   9.739091e+05
   1.971394e+06   2.809714e+06
  -1.765710e+06   1.405676e+06
  -1.729358e+06  -1.058768e+06
   1.442678e+06  -8.931768e+05
   2.556532e+06   1.928133e+06
  -7.364332e+05   3.656419e+06
  -4.876341e+06   1.970406e+06
  -5.476522e+06  -1.461570e+06
  -2.362370e+06  -4.117546e+06
   1.780699e+06  -5.356329e+06
   4.969004e+06  -4.928826e+06
   6.226377e+06  -1.847230e+06
   4.704267e+06   3.116962e+06
   1.019343e+06   6.222710e+06
  -1.924465e+06   4.808517e+06
  -1.855712e+06   1.146281e+06
  -1.294265e+05  -3.901001e+05
   1.873636e+05   9.139179e+05
  -1.452493e+06   1.850955e+06
  -2.755533e+06   3.729646e+05
  -2.055221e+06  -1.802667e+06
  -1.051490e+05  -2.072431e+06
   1.461371e+06  -2.138560e+05
   1.635094e+06   2.012424e+06
   3.385763e+04   2.901709e+06
  -2.735035e+06   1.707478e+06
  -4.527116e+06  -1.114347e+06
  -3.336627e+06  -3.770947e+06
  -2.225555e+04  -4.338542e+06
   2.321764e+06  -2.828510e+06
   2.316758e+06  -1.171202e+06
   1.885037e+06  -6.569699e+05
   2.961335e+06  -4.428085e+05
   4.355039e+06   7.909604e+05
   3.476636e+06   2.782132e+06
   1.168541e+05   4.118334e+06
  -3.188467e+06   3.884517e+06
  -4.130631e+06   2.141098e+06
  -2.650340e+06  -3.659825e+05
  -3.286032e+05  -2.200496e+06
   1.049239e+06  -1.946091e+06
   5.646199e+05   1.519795e+04
  -1.068572e+06   1.312703e+06
  -1.917280e+06   4.060031e+05
  -9.485215e+05  -1.208700e+06
   4.998091e+05  -1.106275e+06
   3.931248e+05   4.036535e+05
  -1.133040e+06   6.495594e+05
  -1.877653e+06  -1.417037e+06
  -5.421257e+05  -3.591096e+06
   1.759806e+06  -3.373520e+06
   3.220249e+06  -9.661578e+05
   3.243265e+06   1.553863e+06
   2.163903e+06   2.759909e+06
   4.071631e+05   2.563618e+06
  -1.224787e+06   1.447925e+06
  -1.559980e+06   2.351133e+05
  -4.917378e+05  -4.699750e+04
   3.542574e+05   7.548763e+05
  -4.304878e+05   1.358941e+06
  -1.940250e+06   5.799045e+05
  -2.050919e+06  -9.213772e+05
  -3.684873e+05  -1.444352e+06
   1.185194e+06  -5.585849e+05
   8.631873e+05   4.679772e+05
  -8.776190e+05   4.782414e+05
  -2.152739e+06  -3.883132e+05
  -1.672688e+06  -1.377081e+06
   2.987505e+05  -1.930920e+06
   2.314073e+06  -1.606961e+06
   2.768603e+06  -2.493412e+05
   1.218157e+06   1.285772e+06
  -9.328319e+05   1.526414e+06
  -1.590406e+06   1.952406e+05
  -2.159963e+05  -1.095864e+06
   1.526622e+06  -7.386813e+05
   1.716358e+06   8.058940e+05
   3.018545e+05   1.664014e+06
  -1.126899e+06   9.469451e+05
  -1.254175e+06  -3.564124e+05
  -2.168601e+05  -8.004786e+05
   8.169612e+05  -4.825579e+04
   7.424860e+05   1.062294e+06
  -5.733411e+05   1.429208e+06
  -2.008589e+06   5.471785e+05
  -2.040311e+06  -1.052662e+06
  -3.775890e+05  -2.084790e+06
   1.460978e+06  -1.641742e+06
   1.736813e+06  -1.911428e+05
   4.869309e+05   8.814184e+05
  -6.721615e+05   7.941512e+05
  -6.169919e+05   7.235510e+04
   1.403787e+05  -3.316941e+05
   4.730390e+05  -1.700617e+05
   7.019618e+04   6.556367e+04
  -4.811790e+05  -1.191046e+05
  -5.048102e+05  -7.134128e+05
   2.376330e+05  -1.197263e+06
   1.398797e+06  -8.838050e+05
   2.083008e+06   4.289642e+05
   1.460433e+06   1.953438e+06
  -2.272242e+05   2.413989e+06
  -1.620765e+06   1.380789e+06
  -1.667244e+06  -1.561991e+05
  -8.132138e+05  -8.831851e+05
  -2.944522e+05  -5.998529e+05
  -4.996575e+05  -1.830791e+05
  -6.619805e+05  -3.235754e+05
  -9.591041e+04  -7.865858e+05
   8.927324e+05  -8.918759e+05
   1.445265e+06  -2.974666e+05
   1.018505e+06   7.244619e+05
  -2.786601e+05   1.430642e+06
  -1.726194e+06   1.041813e+06
  -2.233532e+06  -5.016170e+05
  -1.106739e+06  -2.113309e+06
   1.047701e+06  -2.366650e+06
   2.570414e+06  -1.002415e+06
   2.337398e+06   7.022615e+05
   9.075506e+05   1.350185e+06
  -2.382496e+05   9.119017e+05
  -3.708582e+05   4.717216e+05
  -3.466348e+04   7.501781e+05
  -8.157686e+04   1.331320e+06
  -6.799293e+05   1.308166e+06
  -1.308114e+06   3.230560e+05
  -1.340113e+06  -1.080384e+06
  -5.538959e+05  -1.893100e+06
   6.220015e+05  -1.433824e+06
   1.282691e+06   1.349767e+04
   8.004865e+05   1.301110e+06
  -4.182511e+05   1.399345e+06
  -1.193821e+06   3.772020e+05
  -8.168556e+05  -7.414632e+05
   1.530407e+05  -1.101874e+06
   5.766268e+05  -7.795253e+05
   1.036264e+05  -4.025130e+05
  -4.380817e+05  -3.276376e+05
  -6.297771e+04  -3.792382e+05
   1.162555e+06  -2.028487e+05
   2.080508e+06   3.444190e+05
   1.615092e+06   1.054701e+06
  -6.364821e+04   1.455011e+06
  -1.618940e+06   1.146553e+06
  -1.844017e+06   2.553852e+05
  -8.269137e+05  -5.295418e+05
   2.734392e+05  -5.844103e+05
   5.217589e+05  -2.011468e+04
   4.199865e+04   4.390693e+05
  -4.318197e+05   2.621890e+05
  -4.847941e+05  -3.413378e+05
  -2.765047e+05  -7.128384e+05
  -1.187246e+05  -4.745933e+05
  -1.366382e+05   7.668829e+04
  -2.628533e+05   2.676812e+05
  -2.701913e+05  -2.362927e+05
   1.312862e+05  -9.754090e+05
   9.011427e+05  -1.069253e+06
   1.390172e+06  -1.943674e+05
   8.816099e+05   9.104099e+05
  -4.131057e+05   1.163354e+06
  -1.272674e+06   3.644130e+05
  -7.364349e+05  -5.638573e+05
   7.105384e+05  -6.419564e+05
   1.576177e+06   1.162922e+05
   9.663345e+05   8.763112e+05
  -5.162334e+05   9.663446e+05
  -1.494842e+06   4.333271e+05
  -1.207262e+06  -2.178903e+05
  -1.169826e+05  -5.085344e+05
   6.545023e+05  -2.536455e+05
   3.942318e+05   3.029616e+05
  -5.689553e+05   5.359189e+05
  -1.183813e+06  -5.594778e+04
  -7.008673e+05  -1.164905e+06
   5.502358e+05  -1.713058e+06
   1.462381e+06  -9.100207e+05
   1.257672e+06   7.409242e+05
   2.103464e+05   1.780982e+06
  -7.381765e+05   1.275511e+06
  -9.191966e+05  -1.972966e+05
  -4.087831e+05  -1.194227e+06
   2.493261e+05  -9.527187e+05
   5.708680e+05  -7.216546e+04
   4.431564e+05   3.727912e+05
   1.381797e+05   1.307672e+05
   5.846975e+04  -8.810928e+04
   3.165945e+05   3.091898e+05
   5.242442e+05   9.703071e+05
   1.610706e+05   1.072398e+06
  -7.482120e+05   3.917497e+05
  -1.467665e+06  -4.606850e+05
  -1.249581e+06  -8.346206e+05
  -1.827760e+05  -7.034921e+05
   8.238778e+05  -4.226120e+05
   9.724996e+05  -1.737007e+05
   3.840506e+05   6.686923e+04
  -1.336194e+05   2.282009e+05
  -6.828550e+04   1.904000e+05
   2.289691e+05   7.590221e+04
   6.511888e+04   1.298556e+05
  -6.206633e+05   2.520368e+05
  -1.050424e+06   7.663107e+03
  -4.917045e+05  -6.920887e+05
   7.958288e+05  -1.204973e+06
   1.716622e+06  -7.993986e+05
   1.459993e+06   3.952206e+05
   3.026889e+05   1.396409e+06
  -7.637584e+05   1.395884e+06
  -1.044168e+06   5.742252e+05
  -6.514101e+05  -2.049163e+05
  -1.538859e+05  -3.570615e+05
   3.577965e+04  -8.820276e+04
  -9.454101e+04  -7.766218e+03
  -2.867371e+05  -3.774044e+05
  -2.396945e+05  -8.070366e+05
   1.637280e+05  -6.894214e+05
   6.740561e+05   8.692642e+04
   7.731358e+05   9.156625e+05
   1.724786e+05   1.032879e+06
  -7.246670e+05   2.947428e+05
  -1.056289e+06  -6.708679e+05
  -3.892826e+05  -1.086345e+06
   6.965656e+05  -7.164788e+05
   1.139124e+06   4.719614e+04
   5.636886e+05   6.313981e+05
  -2.791435e+05   7.183004e+05
  -4.065299e+05   3.830627e+05
   2.113997e+05  -6.617602e+03
   6.396452e+05  -5.370549e+04
   1.637010e+05   3.126390e+05
  -8.171416e+05   6.851907e+05
  -1.284926e+06   5.312242e+05
  -8.024341e+05  -1.942367e+05
   8.050506e+04  -8.855288e+05
   5.718873e+05  -8.806075e+05
   4.589605e+05  -1.960957e+05
   7.967956e+04   4.626629e+05
  -2.250065e+05   4.590014e+05
  -3.510735e+05  -1.089459e+05
  -2.683804e+05  -5.723049e+05
   3.578635e+04  -4.585099e+05
   3.928062e+05   2.371040e+04
   4.930566e+05   2.963442e+05
   2.453996e+05   1.137307e+05
  -5.483777e+04  -1.753354e+05
  -8.637311e+04  -9.669846e+04
   6.371101e+04   3.297487e+05
   2.755210e+04   5.857687e+05
  -2.913853e+05   2.852424e+05
  -5.086502e+05  -3.291267e+05
  -2.286024e+05  -6.375132e+05
   3.848413e+05  -3.382732e+05
   6.920433e+05   2.439540e+05
   2.814765e+05   5.547185e+05
  -5.117520e+05   3.804015e+05
  -9.048620e+05  -4.322754e+04
  -4.966778e+05  -3.681269e+05
   2.857058e+05  -4.322843e+05
   6.436677e+05  -2.726687e+05
   2.778180e+05  -2.976366e+04
  -3.051641e+05   1.017162e+05
  -3.921649e+05  -1.713875e+04
   1.318898e+05  -2.694976e+05
   6.862661e+05  -2.848781e+05
