
 $NMID
 id='ANONYMOUS ', fmtdat='(2E16.6)'
 volume=1.0
 tramp=1.0
 $END
  -4.277281e+07  -1.880106e+06
  -2.564413e+07  -2.547039e+07
   4.964545e+06  -2.815346e+07
   2.069393e+07  -1.261857e+07
   1.344202e+07   3.452677e+06
  -1.617271e+06   7.247529e+06
  -7.919473e+06   4.035477e+05
  -3.349852e+06  -7.383921e+06
   4.141121e+06  -8.577774e+06
   7.698627e+06  -2.508761e+06
   5.683183e+06   5.260741e+06
   4.024127e+05   7.438204e+06
  -3.517444e+06   1.872979e+06
  -2.248524e+06  -5.405278e+06
   3.003917e+06  -6.198051e+06
   6.396934e+06   6.454684e+05
   3.730957e+06   8.175017e+06
  -2.958822e+06   9.473389e+06
  -8.075377e+06   4.368465e+06
  -8.193164e+06  -2.243528e+06
  -4.265766e+06  -6.013216e+06
   1.386816e+05  -5.943080e+06
   1.685364e+06  -3.818199e+06
  -7.498529e+04  -2.457659e+06
  -1.785442e+06  -3.293922e+06
   4.603305e+05  -4.624791e+06
   5.878621e+06  -3.384294e+06
   8.845042e+06   6.999128e+05
   5.553026e+06   4.209618e+06
  -8.943648e+05   4.134793e+06
  -4.137428e+06   1.317580e+06
  -2.032300e+06  -1.191873e+06
   1.868313e+06  -1.600457e+06
   3.458066e+06  -2.161960e+04
   2.092369e+06   2.534846e+06
  -3.804699e+05   4.164461e+06
  -2.065749e+06   2.792280e+06
  -1.951776e+06  -9.270521e+05
  -3.806762e+05  -2.908319e+06
   7.055691e+05  -5.067041e+05
  -3.937669e+05   3.027655e+06
  -2.450985e+06   2.282146e+06
  -2.171829e+06  -2.445174e+06
   1.343323e+06  -4.791406e+06
   4.605912e+06  -8.931703e+05
   3.600518e+06   5.111803e+06
  -1.344516e+06   6.362041e+06
  -5.849202e+06   1.692373e+06
  -6.056771e+06  -3.827087e+06
  -1.976466e+06  -5.363240e+06
   3.022763e+06  -2.726238e+06
   5.037148e+06   1.033409e+06
   2.642210e+06   2.955268e+06
  -1.716648e+06   1.991921e+06
  -3.750942e+06  -5.781134e+05
  -1.773693e+06  -2.100395e+06
   1.346179e+06  -1.114127e+06
   1.733637e+06   8.644275e+05
  -6.215136e+05   1.159929e+06
  -2.100244e+06  -6.075399e+05
  -3.377546e+05  -2.171052e+06
   2.899415e+06  -1.643885e+06
   4.137114e+06   5.665760e+05
   2.034030e+06   2.961398e+06
  -1.870397e+06   4.400684e+06
  -5.025617e+06   3.923999e+06
  -5.630800e+06   9.532641e+05
  -3.518665e+06  -3.209367e+06
  -3.612345e+05  -5.528578e+06
   1.502997e+06  -4.381478e+06
   1.301837e+06  -1.694797e+06
   5.618270e+05  -5.124890e+05
   1.030346e+06  -1.104083e+06
   2.405589e+06  -1.111565e+06
   2.895693e+06   7.106051e+05
   1.586194e+06   2.661007e+06
  -6.081438e+05   2.425898e+06
  -2.067564e+06  -2.163431e+04
  -1.750845e+06  -2.531513e+06
   3.147726e+05  -3.034345e+06
   2.863927e+06  -1.180595e+06
   3.885815e+06   1.658418e+06
   2.366066e+06   3.517040e+06
  -3.462987e+05   3.376768e+06
  -1.872316e+06   1.995932e+06
  -1.677212e+06   9.657733e+05
  -1.562263e+06   8.302797e+05
  -2.865539e+06   5.950120e+05
  -4.276397e+06  -7.532832e+05
  -3.412694e+06  -2.815757e+06
  -8.151872e+03  -4.183042e+06
   3.495384e+06  -3.811049e+06
   4.474968e+06  -1.763606e+06
   2.599826e+06   8.492463e+05
  -1.589579e+05   2.372244e+06
  -1.454689e+06   1.759550e+06
  -5.326736e+05  -1.721874e+05
   1.259806e+06  -1.226081e+06
   1.877162e+06  -2.858344e+05
   7.336289e+05   1.205315e+06
  -6.819642e+05   1.120022e+06
  -6.178009e+05  -3.877336e+05
   8.210993e+05  -9.881445e+05
   1.861824e+06   6.787087e+05
   1.152457e+06   3.117147e+06
  -9.388435e+05   3.754065e+06
  -2.979158e+06   1.818105e+06
  -3.720359e+06  -1.140738e+06
  -2.707954e+06  -3.036150e+06
  -4.952689e+05  -2.948128e+06
   1.433602e+06  -1.479240e+06
   1.695025e+06  -9.201215e+04
   5.065005e+05   6.961111e+04
  -3.448543e+05  -7.808833e+05
   4.014412e+05  -1.282484e+06
   1.830924e+06  -5.114951e+05
   1.986315e+06   8.537380e+05
   4.152961e+05   1.365370e+06
  -1.190302e+06   5.852354e+05
  -1.011351e+06  -4.928607e+05
   8.193078e+05  -6.953827e+05
   2.405174e+06   1.888759e+05
   2.037335e+06   1.476288e+06
  -1.949038e+05   2.226496e+06
  -2.485664e+06   1.767211e+06
  -2.906759e+06   2.150851e+05
  -1.190142e+06  -1.283597e+06
   9.509470e+05  -1.398056e+06
   1.479856e+06  -1.087157e+05
   9.418428e+04   1.045077e+06
  -1.562893e+06   6.705408e+05
  -1.752744e+06  -8.118697e+05
  -4.011708e+05  -1.706974e+06
   1.069797e+06  -1.089097e+06
   1.326287e+06   2.248932e+05
   3.344194e+05   7.702605e+05
  -7.510671e+05   5.010966e+04
  -6.834177e+05  -1.093762e+06
   6.849268e+05  -1.418517e+06
   2.101656e+06  -4.288889e+05
   2.028951e+06   1.190093e+06
   3.076657e+05   2.134322e+06
  -1.506523e+06   1.634007e+06
  -1.771609e+06   1.946155e+05
  -5.341098e+05  -8.919132e+05
   6.858093e+05  -8.356380e+05
   7.256004e+05  -4.382773e+04
  -8.390919e+04   4.931097e+05
  -6.210988e+05   3.190502e+05
  -3.239309e+05  -1.154727e+05
   3.637772e+05  -8.126624e+04
   5.744350e+05   5.764281e+05
  -1.595838e+05   1.197432e+06
  -1.427975e+06   8.980072e+05
  -2.133037e+06  -4.938661e+05
  -1.426131e+06  -2.060613e+06
   3.289062e+05  -2.523325e+06
   1.751715e+06  -1.487797e+06
   1.842438e+06   1.324108e+05
   9.898809e+05   1.057422e+06
   3.377381e+05   9.045641e+05
   3.680320e+05   3.750171e+05
   5.041071e+05   2.954982e+05
   4.666617e+04   7.065770e+05
  -9.025200e+05   9.236660e+05
  -1.544069e+06   3.483906e+05
  -1.157009e+06  -8.212135e+05
   2.591745e+05  -1.618755e+06
   1.845758e+06  -1.122003e+06
   2.358222e+06   5.732760e+05
   1.155918e+06   2.204565e+06
  -1.040979e+06   2.406785e+06
  -2.603146e+06   1.041729e+06
  -2.467153e+06  -6.703987e+05
  -1.092882e+06  -1.428903e+06
   1.734391e+05  -1.109368e+06
   5.245770e+05  -6.324752e+05
   2.847123e+05  -7.551465e+05
   2.429166e+05  -1.240557e+06
   7.166482e+05  -1.228421e+06
   1.298961e+06  -2.513461e+05
   1.314750e+06   1.187659e+06
   4.817406e+05   1.995517e+06
  -7.225967e+05   1.463826e+06
  -1.345820e+06  -3.550642e+04
  -8.205589e+05  -1.316170e+06
   3.811004e+05  -1.426424e+06
   1.131126e+06  -4.738016e+05
   8.062443e+05   6.058258e+05
  -6.518987e+04   1.029961e+06
  -4.581872e+05   8.121596e+05
  -5.427606e+04   4.837347e+05
   4.093454e+05   3.952705e+05
   2.899445e+04   4.118927e+05
  -1.155372e+06   1.881206e+05
  -2.062681e+06  -4.027197e+05
  -1.634135e+06  -1.098857e+06
   1.712649e+04  -1.428417e+06
   1.600522e+06  -1.091765e+06
   1.879805e+06  -2.708157e+05
   8.784221e+05   4.411353e+05
  -2.499438e+05   5.303815e+05
  -5.051758e+05   5.860288e+04
   1.660271e+04  -3.724517e+05
   5.049585e+05  -2.283569e+05
   4.721116e+05   3.777173e+05
   1.513479e+05   7.811273e+05
   4.303603e+03   5.039082e+05
   1.582445e+05  -1.465683e+05
   3.666409e+05  -3.562718e+05
   2.914041e+05   2.453711e+05
  -2.301317e+05   1.043754e+06
  -9.760812e+05   1.053046e+06
  -1.328002e+06   7.419971e+04
  -7.530890e+05  -9.862837e+05
   4.782057e+05  -1.092213e+06
   1.265558e+06  -2.224794e+05
   7.240711e+05   6.523664e+05
  -7.389199e+05   6.601285e+05
  -1.684323e+06  -1.270554e+05
  -1.112925e+06  -9.262470e+05
   4.741256e+05  -1.076061e+06
   1.607135e+06  -5.408706e+05
   1.348235e+06   1.989356e+05
   1.563042e+05   5.615937e+05
  -6.809930e+05   2.891783e+05
  -3.639936e+05  -2.981982e+05
   6.662036e+05  -4.802329e+05
   1.219660e+06   1.922215e+05
   5.784746e+05   1.286901e+06
  -7.692328e+05   1.717777e+06
  -1.624354e+06   8.057969e+05
  -1.272971e+06  -8.765807e+05
  -1.189397e+05  -1.900372e+06
   8.378065e+05  -1.360008e+06
   9.770214e+05   1.827278e+05
   4.451236e+05   1.264762e+06
  -2.164977e+05   1.042595e+06
  -5.764349e+05   8.878108e+04
  -5.141130e+05  -4.293370e+05
  -2.120282e+05  -1.693440e+05
  -3.773982e+04   1.135407e+05
  -2.133192e+05  -2.860500e+05
  -4.654838e+05  -1.020787e+06
  -2.077716e+05  -1.153148e+06
   7.024102e+05  -3.954993e+05
   1.535148e+06   5.570646e+05
   1.358013e+06   9.385997e+05
   1.693090e+05   7.300748e+05
  -9.597305e+05   3.931122e+05
  -1.058643e+06   1.628308e+05
  -3.388068e+05  -4.289956e+04
   1.804538e+05  -2.241838e+05
  -5.009590e+03  -2.428169e+05
  -3.280029e+05  -1.447265e+05
  -2.463463e+04  -1.443158e+05
   7.632591e+05  -1.914870e+05
   1.087840e+06   7.886120e+04
   3.392603e+05   7.326331e+05
  -9.888387e+05   1.156913e+06
  -1.777495e+06   6.710629e+05
  -1.387927e+06  -5.478084e+05
  -1.977713e+05  -1.494064e+06
   8.550283e+05  -1.385591e+06
   1.122282e+06  -4.760357e+05
   6.810929e+05   3.051884e+05
   9.977714e+04   3.797593e+05
  -1.209106e+05   3.294374e+04
   7.058197e+04  -4.985100e+04
   3.216516e+05   3.850754e+05
   2.401431e+05   8.589063e+05
  -2.307276e+05   6.907167e+05
  -7.155069e+05  -1.943895e+05
  -6.958509e+05  -1.063700e+06
  -1.679448e+04  -1.077322e+06
   8.273440e+05  -1.748612e+05
   1.030526e+06   8.470415e+05
   2.804577e+05   1.153319e+06
  -7.855060e+05   6.389552e+05
  -1.143021e+06  -1.453580e+05
  -5.008996e+05  -6.335444e+05
   3.283508e+05  -6.530568e+05
   3.760398e+05  -3.580418e+05
  -2.998390e+05  -3.980203e+04
  -6.925477e+05   2.054055e+03
  -1.242152e+05  -3.207408e+05
   8.974103e+05  -6.759738e+05
   1.309925e+06  -5.369919e+05
   7.488411e+05   1.880927e+05
  -1.462705e+05   8.882511e+05
  -5.824863e+05   8.535676e+05
  -4.106204e+05   1.204515e+05
  -1.016517e+04  -5.201807e+05
   2.784156e+05  -4.212597e+05
   3.620315e+05   2.078759e+05
   2.318511e+05   6.177827e+05
  -8.444379e+04   4.106007e+05
  -4.046807e+05  -8.181595e+04
  -4.723014e+05  -2.907678e+05
  -2.496992e+05  -8.984215e+04
   1.137566e+04   1.292369e+05
   8.651332e+04  -1.004355e+04
   5.652575e+04  -3.917474e+05
   1.491615e+05  -5.300070e+05
   3.644930e+05  -1.456602e+05
   4.108082e+05   4.603914e+05
   6.776914e+04   6.884044e+05
  -4.602614e+05   2.904870e+05
  -6.564423e+05  -3.479309e+05
  -2.184367e+05  -6.263584e+05
   5.379529e+05  -3.528310e+05
   8.979171e+05   1.374854e+05
   4.721192e+05   4.191111e+05
  -3.258414e+05   3.775900e+05
  -6.688390e+05   1.748772e+05
  -2.347485e+05   2.472161e+03
   4.035035e+05  -2.415592e+04
   4.370662e+05   1.270522e+05
  -2.231373e+05   3.189042e+05
  -8.434912e+05   2.440680e+05
