
 $NMID
 id='ANONYMOUS ', fmtdat='(2E16.6)'
 volume=1.0
 tramp=1.0
 $END
   2.582777e+07  -1.883737e+06
   1.740545e+07   1.307045e+07
  -6.180341e+05   1.714920e+07
  -1.139089e+07   9.506818e+06
  -8.536959e+06  -6.524162e+05
   2.287602e+05  -4.518158e+06
   4.825013e+06  -1.124192e+06
   2.837768e+06   4.173656e+06
  -1.710453e+06   5.774841e+06
  -4.505842e+06   2.305733e+06
  -3.896707e+06  -2.823388e+06
  -7.776028e+05  -4.612095e+06
   2.060689e+06  -1.355632e+06
   1.818278e+06   3.323239e+06
  -1.351179e+06   4.200565e+06
  -3.977231e+06   1.877244e+05
  -2.953755e+06  -4.699724e+06
   1.047907e+06  -6.021600e+06
   4.580679e+06  -3.234343e+06
   5.088169e+06   8.350383e+05
   2.883137e+06   3.333410e+06
   2.580094e+05   3.452288e+06
  -6.033194e+05   2.274443e+06
   5.282913e+05   1.557346e+06
   1.509213e+06   2.166740e+06
  -4.774187e+04   3.095950e+06
  -3.613122e+06   2.495755e+06
  -5.658186e+06   5.623675e+04
  -3.700118e+06  -2.304576e+06
   4.285302e+05  -2.605922e+06
   2.637749e+06  -9.844846e+05
   1.338398e+06   7.939048e+05
  -1.277563e+06   1.274730e+06
  -2.411223e+06   2.065631e+05
  -1.529499e+06  -1.642800e+06
   8.658626e+04  -2.754871e+06
   1.156263e+06  -1.807313e+06
   1.140332e+06   5.675299e+05
   2.758680e+05   1.740703e+06
  -4.013373e+05   1.722558e+05
   1.325874e+05  -2.073013e+06
   1.408555e+06  -1.664477e+06
   1.557614e+06   1.303413e+06
  -3.321762e+05   3.013481e+06
  -2.565856e+06   9.278984e+05
  -2.511593e+06  -2.756100e+06
   2.830240e+05  -3.906635e+06
   3.419744e+06  -1.449581e+06
   4.089935e+06   1.911995e+06
   1.718439e+06   3.220857e+06
  -1.679211e+06   2.003649e+06
  -3.311016e+06  -2.046836e+05
  -1.973040e+06  -1.630792e+06
   8.546047e+05  -1.395089e+06
   2.360669e+06   3.021431e+04
   1.286500e+06   1.130995e+06
  -7.305545e+05   7.894866e+05
  -1.188984e+06  -4.018860e+05
   2.109667e+05  -8.381130e+05
   1.356276e+06   6.024648e+04
   5.326417e+05   1.196825e+06
  -1.493570e+06   1.258504e+06
  -2.553116e+06   7.540596e+04
  -1.508628e+06  -1.607936e+06
   8.751039e+05  -2.865087e+06
   2.946542e+06  -2.793346e+06
   3.483743e+06  -9.387344e+05
   2.368588e+06   1.807582e+06
   5.783225e+05   3.452577e+06
  -5.788419e+05   2.895631e+06
  -6.443212e+05   1.268504e+06
  -3.844290e+05   4.859948e+05
  -7.373980e+05   8.089607e+05
  -1.586547e+06   8.030494e+05
  -1.937575e+06  -3.763025e+05
  -1.163903e+06  -1.705684e+06
   3.014143e+05  -1.655781e+06
   1.415143e+06  -1.099183e+05
   1.337575e+06   1.570375e+06
  -1.662971e+04   2.000827e+06
  -1.774109e+06   9.146329e+05
  -2.553484e+06  -8.390187e+05
  -1.676950e+06  -2.052388e+06
   4.904508e+03  -2.083446e+06
   9.931651e+05  -1.330430e+06
   9.261227e+05  -7.313390e+05
   9.057719e+05  -6.814255e+05
   1.795644e+06  -6.254378e+05
   2.812785e+06   1.524971e+05
   2.414237e+06   1.561755e+06
   3.124427e+05   2.711420e+06
  -2.005525e+06   2.721140e+06
  -2.799004e+06   1.433124e+06
  -1.736293e+06  -4.113357e+05
  -1.561846e+04  -1.564752e+06
   8.565292e+05  -1.222203e+06
   3.527279e+05   9.104202e+04
  -7.447246e+05   8.773717e+05
  -1.186464e+06   3.134664e+05
  -5.392712e+05  -7.216305e+05
   3.793773e+05  -7.770672e+05
   4.588567e+05   2.034616e+05
  -4.178588e+05   7.483520e+05
  -1.260084e+06  -2.007752e+05
  -1.066482e+06  -1.870621e+06
   2.164836e+05  -2.554096e+06
   1.761809e+06  -1.515243e+06
   2.556622e+06   4.022484e+05
   2.051262e+06   1.794217e+06
   5.551599e+05   1.917800e+06
  -8.400010e+05   1.068784e+06
  -1.104916e+06   1.700763e+05
  -3.343716e+05  -9.248447e+03
   2.817419e+05   4.819186e+05
  -1.568590e+05   8.509359e+05
  -1.130521e+06   4.635158e+05
  -1.342555e+06  -3.908471e+05
  -3.798031e+05  -8.420311e+05
   7.263399e+05  -4.737151e+05
   7.114546e+05   2.455452e+05
  -4.700774e+05   5.416270e+05
  -1.603616e+06   8.708118e+04
  -1.477057e+06  -8.131683e+05
  -5.638987e+04  -1.493360e+06
   1.494528e+06  -1.352985e+06
   1.880331e+06  -3.567846e+05
   8.643254e+05   7.383505e+05
  -5.092261e+05   9.604817e+05
  -9.339559e+05   1.733537e+05
  -1.258485e+05  -6.615479e+05
   9.635242e+05  -5.447821e+05
   1.200498e+06   3.915757e+05
   4.027265e+05   1.079497e+06
  -6.023223e+05   8.051180e+05
  -8.855407e+05  -2.759410e+04
  -2.907430e+05  -4.701074e+05
   4.738657e+05  -9.152325e+04
   5.189292e+05   6.581260e+05
  -3.474714e+05   9.680291e+05
  -1.336827e+06   4.235183e+05
  -1.400975e+06  -6.308391e+05
  -3.536477e+05  -1.362209e+06
   8.544398e+05  -1.170858e+06
   1.135077e+06  -2.617126e+05
   4.195972e+05   5.379227e+05
  -3.817951e+05   5.984824e+05
  -4.800240e+05   7.934190e+04
   1.006341e+04  -3.470522e+05
   3.973084e+05  -2.726014e+05
   2.509469e+05   5.793291e+04
  -2.149729e+05   1.074535e+05
  -4.256588e+05  -3.109455e+05
   7.107005e+02  -7.867955e+05
   8.576482e+05  -6.921160e+05
   1.422892e+06   1.636958e+05
   1.075329e+06   1.235859e+06
  -3.259116e+04   1.669797e+06
  -1.035917e+06   1.109117e+06
  -1.223919e+06   5.752158e+04
  -7.421520e+05  -6.313910e+05
  -2.905896e+05  -5.982202e+05
  -2.481045e+05  -2.374944e+05
  -3.285644e+05  -1.469983e+05
  -7.903022e+04  -4.420772e+05
   5.134721e+05  -6.703480e+05
   9.839806e+05  -3.500200e+05
   8.279775e+05   4.548984e+05
  -4.174063e+04   1.090466e+06
  -1.122547e+06   8.768456e+05
  -1.584045e+06  -1.991572e+05
  -9.226863e+05  -1.348478e+06
   4.871929e+05  -1.641549e+06
   1.607464e+06  -8.786585e+05
   1.663683e+06   2.407449e+05
   8.396209e+05   8.516122e+05
  -2.020345e+04   7.565770e+05
  -3.116349e+05   4.685725e+05
  -1.581668e+05   5.085328e+05
  -8.161610e+04   8.076013e+05
  -3.728938e+05   8.387274e+05
  -8.186822e+05   2.532997e+05
  -9.372181e+05  -6.802744e+05
  -4.548381e+05  -1.265683e+06
   3.678098e+05  -1.005045e+06
   8.809161e+05  -7.723128e+04
   6.343640e+05   7.899478e+05
  -1.320707e+05   9.554279e+05
  -6.876991e+05   4.064595e+05
  -5.678248e+05  -3.119951e+05
  -4.917611e+04  -6.624754e+05
   2.187319e+05  -5.657610e+05
  -7.657210e+03  -3.278910e+05
  -2.906079e+05  -2.323316e+05
  -4.578581e+04  -2.677612e+05
   7.312224e+05  -2.087744e+05
   1.361562e+06   1.086883e+05
   1.143194e+06   5.903929e+05
   1.052985e+05   9.219654e+05
  -9.477942e+05   8.223196e+05
  -1.199345e+06   3.214246e+05
  -6.094613e+05  -2.067401e+05
   1.171594e+05  -3.553772e+05
   3.202624e+05  -8.192652e+04
   1.099626e+04   2.326955e+05
  -3.178912e+05   1.812009e+05
  -3.321426e+05  -2.124156e+05
  -1.410615e+05  -5.007773e+05
  -2.647426e+04  -3.280603e+05
  -9.438322e+04   1.156993e+05
  -2.237358e+05   2.691055e+05
  -2.099788e+05  -1.372332e+05
   8.156844e+04  -7.001411e+05
   5.591650e+05  -7.532675e+05
   8.435160e+05  -1.356449e+05
   5.455504e+05   5.879888e+05
  -2.326180e+05   7.331069e+05
  -7.985919e+05   2.230693e+05
  -5.157832e+05  -3.772566e+05
   4.307009e+05  -4.856494e+05
   1.112427e+06  -4.503762e+04
   8.091634e+05   5.209584e+05
  -2.192883e+05   7.466501e+05
  -1.012854e+06   4.861625e+05
  -9.053234e+05  -2.371332e+04
  -1.488458e+05  -3.582845e+05
   4.218403e+05  -2.437652e+05
   2.545415e+05   1.638549e+05
  -4.056771e+05   3.536991e+05
  -8.066120e+05  -4.823686e+04
  -4.560800e+05  -8.019301e+05
   3.933574e+05  -1.168118e+06
   1.007910e+06  -6.308426e+05
   8.909771e+05   4.863716e+05
   2.101576e+05   1.233837e+06
  -4.506182e+05   9.536059e+05
  -6.533210e+05  -4.156314e+04
  -3.892098e+05  -7.928463e+05
   5.627689e+04  -7.027424e+05
   3.667202e+05  -1.039971e+05
   3.740932e+05   2.459805e+05
   1.593275e+05   9.893426e+04
   1.328520e+04  -7.980831e+04
   1.468805e+05   1.644191e+05
   3.714587e+05   6.300315e+05
   2.283119e+05   7.405000e+05
  -4.177939e+05   3.107789e+05
  -1.043082e+06  -2.550863e+05
  -9.631518e+05  -5.167724e+05
  -1.636888e+05  -4.621890e+05
   6.073935e+05  -3.227906e+05
   6.828655e+05  -1.845143e+05
   2.167249e+05  -1.962362e+03
  -1.054579e+05   1.578019e+05
   3.082594e+04   1.640981e+05
   2.353198e+05   7.817791e+04
   2.174922e+04   9.282651e+04
  -4.964484e+05   1.733050e+05
  -7.133144e+05   2.128664e+04
  -2.556581e+05  -4.511301e+05
   5.746153e+05  -8.158671e+05
   1.103957e+06  -5.535346e+05
   9.285225e+05   2.661798e+05
   2.283623e+05   9.621451e+05
  -4.576462e+05   9.593531e+05
  -6.978817e+05   3.807638e+05
  -4.666512e+05  -1.580399e+05
  -8.660261e+04  -2.401855e+05
   8.603062e+04  -2.259488e+04
  -3.929253e+04   4.537786e+04
  -2.420826e+05  -2.255136e+05
  -2.209931e+05  -5.435332e+05
   1.046314e+05  -4.638592e+05
   4.818401e+05   8.485847e+04
   5.202936e+05   6.524373e+05
   7.323017e+04   6.993192e+05
  -5.334313e+05   1.601745e+05
  -7.262679e+05  -4.907437e+05
  -2.553732e+05  -7.314944e+05
   4.692490e+05  -4.626181e+05
   7.496044e+05   1.860792e+04
   3.645484e+05   3.705653e+05
  -1.675681e+05   4.385685e+05
  -2.113130e+05   2.576112e+05
   2.078022e+05   9.616290e+03
   4.538254e+05  -4.746014e+04
   9.981807e+04   1.983871e+05
  -5.383822e+05   5.041031e+05
  -8.087993e+05   4.485665e+05
  -4.917444e+05  -6.254759e+04
   3.468277e+04  -5.851719e+05
   3.118916e+05  -5.930882e+05
   2.490961e+05  -1.002454e+05
   3.703240e+04   3.421858e+05
  -1.540195e+05   2.883251e+05
  -2.504019e+05  -1.194061e+05
  -1.922761e+05  -3.870105e+05
   2.873150e+04  -2.652336e+05
   2.688470e+05   2.936551e+04
   3.251234e+05   1.506598e+05
   1.691527e+05   3.580494e+04
  -1.219953e+04  -7.625162e+04
  -5.632597e+04   2.696158e+04
  -2.258274e+04   2.643504e+05
  -7.786407e+04   3.450234e+05
  -2.323772e+05   1.033952e+05
  -2.869783e+05  -2.819219e+05
  -7.549652e+04  -4.446704e+05
   2.844037e+05  -2.162644e+05
   4.454621e+05   1.874061e+05
   1.805675e+05   3.966793e+05
  -3.236741e+05   2.657114e+05
  -5.891828e+05  -3.180403e+04
  -3.337964e+05  -2.409120e+05
   1.861804e+05  -2.617164e+05
   4.211506e+05  -1.516525e+05
   1.456951e+05  -1.659044e+04
  -2.709263e+05   3.561445e+04
  -2.969923e+05  -6.319426e+04
   1.320419e+05  -2.287916e+05
   5.464306e+05  -2.158007e+05
