
 $NMID
 id='ANONYMOUS ', fmtdat='(2E16.6)'
 volume=1.0
 tramp=1.0
 $END
   2.846524e+07   3.043802e+06
   1.618556e+07   1.688448e+07
  -3.673093e+06   1.799206e+07
  -1.358225e+07   8.550999e+06
  -8.954087e+06  -1.546447e+06
   7.798396e+05  -4.695190e+06
   5.256511e+06  -7.951351e+05
   2.635369e+06   4.746470e+06
  -2.428737e+06   6.194215e+06
  -5.164308e+06   2.014955e+06
  -3.895957e+06  -3.803747e+06
  -1.340156e+05  -5.382193e+06
   2.628420e+06  -1.131508e+06
   1.679013e+06   4.185367e+06
  -2.000165e+06   4.629919e+06
  -4.349994e+06  -3.255159e+05
  -2.517764e+06  -5.621701e+06
   2.121299e+06  -6.440830e+06
   5.629654e+06  -2.708953e+06
   5.450641e+06   1.987394e+06
   2.368859e+06   4.330725e+06
  -6.320904e+05   3.721586e+06
  -1.064893e+06   2.032421e+06
   7.596732e+05   1.591886e+06
   1.803714e+06   2.852335e+06
  -4.944119e+05   3.829026e+06
  -4.787588e+06   2.395593e+06
  -6.700132e+06  -9.383979e+05
  -3.831784e+06  -3.380822e+06
   1.153116e+06  -3.014096e+06
   3.480661e+06  -6.770656e+05
   1.570568e+06   1.378520e+06
  -1.801064e+06   1.647390e+06
  -3.151700e+06   3.097291e+04
  -1.740365e+06  -2.340245e+06
   5.986765e+05  -3.432841e+06
   1.776330e+06  -1.835765e+06
   1.156684e+06   1.134300e+06
  -2.257972e+05   2.137039e+06
  -6.754156e+05  -1.146493e+05
   4.610975e+05  -2.636256e+06
   1.862181e+06  -1.790329e+06
   1.530256e+06   1.624624e+06
  -7.344875e+05   3.122282e+06
  -2.724550e+06   4.472625e+05
  -2.109453e+06  -3.424804e+06
   9.898579e+05  -4.100279e+06
   4.016581e+06  -9.546665e+05
   4.348309e+06   2.750047e+06
   1.576193e+06   3.863667e+06
  -2.134702e+06   2.104988e+06
  -3.773735e+06  -5.755862e+05
  -2.100556e+06  -2.032961e+06
   1.074568e+06  -1.413035e+06
   2.593219e+06   3.589395e+05
   1.267162e+06   1.399385e+06
  -9.227654e+05   7.481673e+05
  -1.332045e+06  -5.870758e+05
   1.873332e+05  -9.131858e+05
   1.368149e+06   7.430018e+04
   4.877737e+05   1.113799e+06
  -1.631022e+06   1.023759e+06
  -2.700252e+06  -2.307544e+05
  -1.397058e+06  -1.930031e+06
   1.505290e+06  -3.125236e+06
   3.938235e+06  -2.775678e+06
   4.226364e+06  -4.681476e+05
   2.389760e+06   2.570104e+06
   7.441634e+04   4.103580e+06
  -1.017086e+06   3.226089e+06
  -7.636489e+05   1.441874e+06
  -4.804039e+05   7.197909e+05
  -1.142612e+06   1.031869e+06
  -2.205234e+06   7.420784e+05
  -2.383668e+06  -8.383959e+05
  -1.186469e+06  -2.344522e+06
   6.317388e+05  -2.054133e+06
   1.806729e+06   1.116081e+04
   1.463851e+06   2.084845e+06
  -3.045374e+05   2.418190e+06
  -2.283919e+06   7.916482e+05
  -2.866035e+06  -1.461751e+06
  -1.540093e+06  -2.693879e+06
   4.297952e+05  -2.341809e+06
   1.355701e+06  -1.260620e+06
   1.101063e+06  -6.421559e+05
   1.078692e+06  -6.834597e+05
   2.159490e+06  -5.316814e+05
   3.279116e+06   5.258726e+05
   2.648174e+06   2.148122e+06
   2.738428e+04   3.256661e+06
  -2.753549e+06   2.985459e+06
  -3.572762e+06   1.325878e+06
  -2.043817e+06  -7.804118e+05
   2.313759e+05  -1.929824e+06
   1.245882e+06  -1.352842e+06
   4.182049e+05   1.790205e+05
  -1.025248e+06   9.516819e+05
  -1.444403e+06   2.015609e+05
  -5.132046e+05  -9.404816e+05
   5.697493e+05  -8.937870e+05
   5.512476e+05   2.667945e+05
  -4.939108e+05   8.507060e+05
  -1.373623e+06  -2.718083e+05
  -1.073601e+06  -2.188361e+06
   3.903825e+05  -2.952252e+06
   2.125226e+06  -1.681425e+06
   2.994395e+06   6.652353e+05
   2.318367e+06   2.348131e+06
   4.784131e+05   2.380370e+06
  -1.150913e+06   1.185955e+06
  -1.361601e+06   5.776119e+04
  -3.981155e+05  -5.384869e+04
   2.750425e+05   6.074827e+05
  -2.921744e+05   9.682922e+05
  -1.379057e+06   3.854884e+05
  -1.517248e+06  -6.203283e+05
  -3.445246e+05  -1.020882e+06
   9.111496e+05  -4.755904e+05
   8.357847e+05   3.623524e+05
  -5.850210e+05   6.092006e+05
  -1.918102e+06  -3.159961e+04
  -1.711938e+06  -1.112614e+06
   6.490024e+04  -1.802827e+06
   1.935896e+06  -1.458013e+06
   2.286296e+06  -2.014728e+05
   9.243125e+05   9.787557e+05
  -7.348442e+05   1.051737e+06
  -1.114340e+06   6.412602e+04
  -4.266309e+04  -8.008963e+05
   1.215599e+06  -5.181545e+05
   1.374123e+06   6.044860e+05
   3.644719e+05   1.317334e+06
  -7.825290e+05   8.926336e+05
  -1.037500e+06  -1.104328e+05
  -3.017832e+05  -5.711977e+05
   5.580803e+05  -4.344587e+04
   5.252758e+05   8.499538e+05
  -5.464094e+05   1.108981e+06
  -1.655270e+06   3.275230e+05
  -1.587930e+06  -9.377556e+05
  -2.451096e+05  -1.664656e+06
   1.158192e+06  -1.279968e+06
   1.375486e+06  -1.746885e+05
   4.384339e+05   6.817684e+05
  -5.201683e+05   6.676942e+05
  -5.966148e+05   4.333330e+04
   2.589234e+04  -4.272504e+05
   5.078678e+05  -3.140641e+05
   3.353815e+05   7.748335e+04
  -2.241629e+05   1.190289e+05
  -4.588188e+05  -3.882497e+05
   8.441714e+04  -9.179063e+05
   1.098192e+06  -7.163231e+05
   1.672223e+06   3.713780e+05
   1.123055e+06   1.608943e+06
  -2.462450e+05   1.993441e+06
  -1.365419e+06   1.213303e+06
  -1.475452e+06  -5.773858e+04
  -8.463794e+05  -8.432380e+05
  -3.112881e+05  -7.855404e+05
  -2.637252e+05  -3.566799e+05
  -3.399821e+05  -2.268541e+05
  -2.153879e+04  -5.230577e+05
   6.851261e+05  -7.331481e+05
   1.212296e+06  -3.114308e+05
   9.532774e+05   6.372345e+05
  -1.578843e+05   1.308066e+06
  -1.440031e+06   9.226681e+05
  -1.870705e+06  -4.254648e+05
  -9.413263e+05  -1.710763e+06
   7.684852e+05  -1.880767e+06
   2.002295e+06  -8.496562e+05
   1.948922e+06   4.665072e+05
   9.250469e+05   1.097693e+06
  -8.283519e+04   9.140203e+05
  -4.311307e+05   5.580448e+05
  -2.887561e+05   6.094738e+05
  -2.315138e+05   9.455222e+05
  -5.569402e+05   9.341851e+05
  -1.002433e+06   1.859012e+05
  -1.029684e+06  -9.364271e+05
  -3.816481e+05  -1.572056e+06
   5.689751e+05  -1.156068e+06
   1.060385e+06   1.263384e+04
   6.562765e+05   1.008340e+06
  -2.629276e+05   1.109987e+06
  -8.385691e+05   4.037949e+05
  -6.137153e+05  -4.158607e+05
   1.669720e+04  -7.647421e+05
   3.034883e+05  -6.317530e+05
   1.350352e+04  -3.950769e+05
  -3.170127e+05  -3.237695e+05
  -1.926590e+04  -3.303616e+05
   8.876256e+05  -1.533744e+05
   1.594760e+06   3.059428e+05
   1.283230e+06   8.401665e+05
   1.635064e+04   1.089427e+06
  -1.220322e+06   8.422823e+05
  -1.456669e+06   2.392356e+05
  -6.913521e+05  -2.974224e+05
   1.837896e+05  -3.928560e+05
   3.802185e+05  -6.182783e+04
  -3.295438e+04   2.713732e+05
  -4.128770e+05   1.774970e+05
  -3.675799e+05  -2.984551e+05
  -9.223361e+04  -6.330754e+05
   2.432709e+04  -4.078625e+05
  -1.208982e+05   1.386888e+05
  -3.032193e+05   3.161982e+05
  -2.348657e+05  -1.863353e+05
   1.901643e+05  -8.374179e+05
   7.648571e+05  -8.250618e+05
   1.013804e+06  -2.987692e+04
   5.585233e+05   7.866434e+05
  -3.824663e+05   8.311385e+05
  -9.833934e+05   1.411011e+05
  -5.698686e+05  -5.235704e+05
   5.694556e+05  -5.259674e+05
   1.335464e+06   7.210557e+04
   9.197605e+05   7.040553e+05
  -3.300575e+05   8.662710e+05
  -1.258986e+06   4.798679e+05
  -1.084917e+06  -1.190634e+05
  -1.442783e+05  -4.445636e+05
   5.270494e+05  -2.447606e+05
   2.744449e+05   2.267159e+05
  -5.435301e+05   3.692794e+05
  -9.661362e+05  -1.735335e+05
  -4.334495e+05  -1.034789e+06
   6.416547e+05  -1.354494e+06
   1.303468e+06  -6.218279e+05
   1.008731e+06   7.025439e+05
   9.570156e+04   1.509845e+06
  -6.540976e+05   1.094118e+06
  -7.726025e+05  -1.196334e+05
  -3.759974e+05  -9.891321e+05
   1.361888e+05  -8.321881e+05
   4.436979e+05  -8.119240e+04
   4.290055e+05   3.365768e+05
   1.923500e+05   1.338058e+05
   1.904163e+04  -9.428062e+04
   1.332765e+05   2.197011e+05
   3.569946e+05   8.028083e+05
   1.957869e+05   9.084046e+05
  -5.222000e+05   3.106047e+05
  -1.220282e+06  -4.359944e+05
  -1.101778e+06  -7.311482e+05
  -1.372728e+05  -5.705175e+05
   7.809956e+05  -3.170003e+05
   8.426403e+05  -1.422207e+05
   2.453474e+05   2.540694e+04
  -1.517440e+05   1.778697e+05
   3.441457e+04   1.973778e+05
   2.919895e+05   1.207412e+05
   9.259678e+03   1.189952e+05
  -6.366329e+05   1.500345e+05
  -8.592295e+05  -7.190023e+04
  -2.256717e+05  -5.870291e+05
   8.140748e+05  -9.055834e+05
   1.393225e+06  -5.033562e+05
   1.067291e+06   4.605113e+05
   1.455713e+05   1.189827e+06
  -6.725786e+05   1.083342e+06
  -8.929510e+05   3.562339e+05
  -5.469831e+05  -2.562693e+05
  -6.641135e+04  -3.034944e+05
   1.245487e+05  -1.678747e+04
  -4.121913e+04   5.542860e+04
  -2.643772e+05  -2.924648e+05
  -2.001911e+05  -6.758785e+05
   1.907262e+05  -5.417567e+05
   5.766339e+05   1.716902e+05
   5.378182e+05   8.656088e+05
  -1.961477e+04   8.582904e+05
  -6.789271e+05   1.156999e+05
  -8.119876e+05  -6.989886e+05
  -2.013732e+05  -9.167341e+05
   6.330313e+05  -4.852699e+05
   8.929296e+05   1.291808e+05
   3.741662e+05   4.886642e+05
  -2.665857e+05   4.911455e+05
  -2.781832e+05   2.701099e+05
   2.637107e+05   3.421435e+04
   5.552301e+05   1.925240e+03
   8.778680e+04   2.518418e+05
  -7.102332e+05   5.360522e+05
  -1.011216e+06   4.337315e+05
  -5.622312e+05  -1.388671e+05
   1.228251e+05  -6.933453e+05
   4.447466e+05  -6.575393e+05
   3.064689e+05  -6.960701e+04
  -3.000354e+03   4.252702e+05
  -2.298688e+05   3.208397e+05
  -2.937075e+05  -1.863796e+05
  -1.785357e+05  -4.912193e+05
   7.980109e+04  -3.067029e+05
   3.218819e+05   7.564150e+04
   3.606510e+05   2.186579e+05
   1.929061e+05   5.838889e+04
   7.434320e+03  -8.870668e+04
  -5.736698e+04   4.258560e+04
  -7.160299e+04   3.328728e+05
  -1.695317e+05   4.082175e+05
  -3.146530e+05   7.881398e+04
  -3.027125e+05  -4.002359e+05
  -1.394473e+04  -5.601598e+05
   3.795038e+05  -2.209073e+05
   5.081142e+05   2.964996e+05
   1.621823e+05   5.085591e+05
  -4.213166e+05   2.720420e+05
  -7.000720e+05  -1.257587e+05
  -3.657458e+05  -3.358598e+05
   2.642566e+05  -2.812621e+05
   5.302187e+05  -1.140491e+05
   1.697477e+05   7.729272e+03
  -3.488105e+05   7.461394e+03
  -3.623880e+05  -1.236922e+05
   1.928815e+05  -2.722089e+05
   7.009364e+05  -1.990276e+05
