
 $NMID
 id='ANONYMOUS ', fmtdat='(2E16.6)'
 volume=1.0
 tramp=1.0
 $END
   5.312745e+07  -1.265254e+06
   3.283927e+07   3.199565e+07
  -6.016114e+06   3.610339e+07
  -2.566521e+07   1.462196e+07
  -1.581322e+07  -6.075651e+06
   2.825122e+06  -8.908253e+06
   9.354063e+06   8.134275e+05
   2.958786e+06   9.159879e+06
  -5.590315e+06   9.083668e+06
  -9.093521e+06   2.195590e+06
  -6.775771e+06  -5.720321e+06
  -9.604820e+05  -8.159921e+06
   3.730765e+06  -2.669088e+06
   2.624799e+06   5.163932e+06
  -3.412995e+06   6.361433e+06
  -7.496797e+06  -1.041568e+06
  -4.469780e+06  -9.552705e+06
   3.283238e+06  -1.126262e+07
   9.412532e+06  -5.815110e+06
   1.024205e+07   1.710926e+06
   6.380957e+06   6.911256e+06
   8.340403e+05   8.091514e+06
  -2.546874e+06   5.737740e+06
  -1.578971e+06   2.637713e+06
   1.149886e+06   2.138337e+06
   2.845169e+05   4.032694e+06
  -5.115704e+06   4.271629e+06
  -9.204141e+06   6.223442e+05
  -6.758506e+06  -3.796310e+06
  -2.854048e+05  -4.781422e+06
   3.534034e+06  -2.463270e+06
   2.334643e+06   1.300293e+04
  -6.621962e+05   9.545192e+05
  -2.265316e+06   4.789877e+05
  -2.127074e+06  -1.407482e+06
  -6.770811e+05  -3.771388e+06
   1.651395e+06  -3.666424e+06
   3.006253e+06   7.259517e+04
   1.638077e+06   3.387910e+06
  -6.809485e+05   1.762673e+06
  -3.257532e+05  -2.392435e+06
   2.312448e+06  -2.273123e+06
   2.415789e+06   2.956515e+06
  -2.096203e+06   5.865845e+06
  -6.479909e+06   1.152688e+06
  -4.986524e+06  -6.389707e+06
   1.576046e+06  -8.087450e+06
   6.960510e+06  -2.457773e+06
   6.729488e+06   4.066202e+06
   1.931957e+06   5.715177e+06
  -3.251298e+06   2.696692e+06
  -5.088888e+06  -1.310599e+06
  -2.437818e+06  -3.266097e+06
   2.220323e+06  -2.162873e+06
   4.323646e+06   7.506919e+05
   1.932696e+06   2.525214e+06
  -1.591058e+06   1.342696e+06
  -1.701264e+06  -9.377074e+05
   1.199453e+06  -9.441564e+05
   2.410859e+06   1.534762e+06
  -4.201463e+05   3.237115e+06
  -4.269035e+06   1.939181e+06
  -5.052552e+06  -1.105572e+06
  -2.312718e+06  -3.691196e+06
   1.611919e+06  -5.042240e+06
   4.705307e+06  -4.706241e+06
   5.873071e+06  -1.767479e+06
   4.401055e+06   2.929159e+06
   1.011833e+06   5.868003e+06
  -1.652079e+06   4.614202e+06
  -1.641211e+06   1.262838e+06
  -2.069992e+05  -1.814260e+05
  -3.842572e+04   9.422205e+05
  -1.564416e+06   1.700110e+06
  -2.707791e+06   2.187689e+05
  -1.960905e+06  -1.873527e+06
  -1.992341e+04  -2.090306e+06
   1.538223e+06  -2.110315e+05
   1.673110e+06   2.007751e+06
   4.442636e+04   2.843074e+06
  -2.637791e+06   1.624065e+06
  -4.294059e+06  -1.077049e+06
  -3.132197e+06  -3.525513e+06
  -4.820755e+04  -4.010693e+06
   2.093478e+06  -2.624350e+06
   2.083670e+06  -1.144169e+06
   1.737594e+06  -7.179540e+05
   2.832809e+06  -5.406663e+05
   4.222491e+06   6.384009e+05
   3.431643e+06   2.605468e+06
   2.067675e+05   4.000272e+06
  -3.043774e+06   3.841350e+06
  -4.018257e+06   2.117580e+06
  -2.575747e+06  -3.808134e+05
  -2.828076e+05  -2.166465e+06
   1.048812e+06  -1.883240e+06
   5.438225e+05   3.204359e+04
  -1.039297e+06   1.287019e+06
  -1.839782e+06   4.209919e+05
  -9.080629e+05  -1.147805e+06
   4.906765e+05  -1.091609e+06
   4.379461e+05   3.725950e+05
  -1.008887e+06   7.242191e+05
  -1.840635e+06  -1.168937e+06
  -7.409206e+05  -3.353758e+06
   1.434994e+06  -3.378121e+06
   3.025901e+06  -1.195093e+06
   3.273616e+06   1.320791e+06
   2.288845e+06   2.658646e+06
   4.910036e+05   2.548300e+06
  -1.187909e+06   1.446555e+06
  -1.534495e+06   2.442255e+05
  -4.809045e+05  -3.624617e+04
   3.627109e+05   7.267651e+05
  -3.746161e+05   1.311938e+06
  -1.841913e+06   5.995096e+05
  -1.997419e+06  -8.227887e+05
  -4.050759e+05  -1.371733e+06
   1.133030e+06  -5.796850e+05
   8.800994e+05   4.315095e+05
  -8.203160e+05   5.311960e+05
  -2.143460e+06  -2.701989e+05
  -1.734875e+06  -1.300289e+06
   2.085776e+05  -1.936842e+06
   2.228334e+06  -1.656723e+06
   2.703160e+06  -3.140354e+05
   1.209592e+06   1.211487e+06
  -8.672108e+05   1.478232e+06
  -1.513855e+06   2.133555e+05
  -2.137145e+05  -1.047338e+06
   1.466707e+06  -7.446210e+05
   1.692219e+06   7.333027e+05
   3.597190e+05   1.610103e+06
  -1.050737e+06   9.764751e+05
  -1.236931e+06  -2.820615e+05
  -2.558391e+05  -7.609979e+05
   7.764333e+05  -6.885645e+04
   7.373731e+05   1.015558e+06
  -5.382876e+05   1.400077e+06
  -1.951160e+06   5.635225e+05
  -2.005479e+06  -9.909082e+05
  -4.103049e+05  -2.019913e+06
   1.378677e+06  -1.629788e+06
   1.683734e+06  -2.346480e+05
   5.058752e+05   8.414962e+05
  -6.310116e+05   7.966467e+05
  -6.184907e+05   8.338716e+04
   1.119331e+05  -3.573431e+05
   4.808784e+05  -2.114291e+05
   1.229119e+05   6.684801e+04
  -4.412304e+05  -6.301902e+04
  -5.203342e+05  -6.472207e+05
   1.806662e+05  -1.164463e+06
   1.335537e+06  -8.983053e+05
   2.040552e+06   3.696540e+05
   1.463679e+06   1.873563e+06
  -1.716269e+05   2.368300e+06
  -1.555954e+06   1.406619e+06
  -1.654308e+06  -9.672859e+04
  -8.514524e+05  -8.650400e+05
  -3.163205e+05  -6.343132e+05
  -4.655152e+05  -2.051334e+05
  -6.171402e+05  -2.919999e+05
  -1.032225e+05  -7.433947e+05
   8.409070e+05  -8.951299e+05
   1.410348e+06  -3.406897e+05
   1.036592e+06   6.902037e+05
  -2.223520e+05   1.431223e+06
  -1.665418e+06   1.075679e+06
  -2.203744e+06  -4.357836e+05
  -1.142486e+06  -2.033431e+06
   9.464631e+05  -2.329183e+06
   2.467223e+06  -1.051042e+06
   2.309106e+06   6.060203e+05
   9.559420e+05   1.294947e+06
  -1.883424e+05   9.290094e+05
  -3.745036e+05   5.029683e+05
  -6.385692e+04   7.331025e+05
  -7.671875e+04   1.275888e+06
  -6.310335e+05   1.270070e+06
  -1.257227e+06   3.344058e+05
  -1.324654e+06  -1.031371e+06
  -5.762482e+05  -1.840192e+06
   5.824828e+05  -1.413883e+06
   1.255927e+06  -1.934302e+04
   8.158740e+05   1.240395e+06
  -3.579063e+05   1.371643e+06
  -1.130927e+06   4.172250e+05
  -8.070181e+05  -6.675990e+05
   1.007775e+05  -1.054921e+06
   5.117494e+05  -7.754908e+05
   7.753308e+04  -4.084474e+05
  -4.286600e+05  -3.194281e+05
  -6.518430e+04  -3.727497e+05
   1.118865e+06  -2.256876e+05
   2.021675e+06   2.877552e+05
   1.598163e+06   9.850022e+05
  -1.195992e+04   1.404505e+06
  -1.533005e+06   1.143893e+06
  -1.785692e+06   3.025305e+05
  -8.245090e+05  -4.706767e+05
   2.446577e+05  -5.620202e+05
   5.005643e+05  -4.162236e+04
   3.963489e+04   4.113402e+05
  -4.264669e+05   2.602436e+05
  -4.769801e+05  -3.247372e+05
  -2.631451e+05  -6.988492e+05
  -1.052273e+05  -4.643765e+05
  -1.332945e+05   9.279092e+04
  -2.667057e+05   2.866746e+05
  -2.727546e+05  -2.226352e+05
   1.188910e+05  -9.639717e+05
   8.583989e+05  -1.058643e+06
   1.330169e+06  -2.012765e+05
   8.541315e+05   8.749012e+05
  -3.822251e+05   1.124657e+06
  -1.223351e+06   3.591063e+05
  -7.279111e+05  -5.438781e+05
   6.756589e+05  -6.456801e+05
   1.551926e+06   6.892819e+04
   9.911753e+05   8.292057e+05
  -4.623079e+05   9.718858e+05
  -1.456544e+06   4.854163e+05
  -1.203743e+06  -1.708585e+05
  -1.365054e+05  -4.993668e+05
   6.315437e+05  -2.716717e+05
   3.839568e+05   2.819642e+05
  -5.569843e+05   5.252072e+05
  -1.157793e+06  -4.847108e+04
  -6.882856e+05  -1.135794e+06
   5.299555e+05  -1.679163e+06
   1.425905e+06  -9.035293e+05
   1.244131e+06   7.100124e+05
   2.367293e+05   1.744943e+06
  -6.981814e+05   1.274895e+06
  -9.072281e+05  -1.613700e+05
  -4.379203e+05  -1.158870e+06
   2.064678e+05  -9.474249e+05
   5.516372e+05  -8.935689e+04
   4.551585e+05   3.589530e+05
   1.533481e+05   1.293689e+05
   4.946159e+04  -9.180036e+04
   2.935883e+05   2.876954e+05
   5.235782e+05   9.364439e+05
   1.969318e+05   1.049753e+06
  -7.041577e+05   4.001742e+05
  -1.449696e+06  -4.237673e+05
  -1.257479e+06  -7.927658e+05
  -1.943323e+05  -6.818268e+05
   8.144580e+05  -4.286062e+05
   9.547773e+05  -1.946579e+05
   3.640328e+05   4.993169e+04
  -1.327410e+05   2.247274e+05
  -4.482900e+04   1.957072e+05
   2.454429e+05   7.943489e+04
   5.866001e+04   1.276241e+05
  -6.243702e+05   2.515337e+05
  -1.026246e+06   1.964229e+04
  -4.648853e+05  -6.675649e+05
   7.775675e+05  -1.182679e+06
   1.654853e+06  -7.967327e+05
   1.412780e+06   3.746385e+05
   3.122781e+05   1.365740e+06
  -7.195733e+05   1.372568e+06
  -1.012922e+06   5.664542e+05
  -6.444433e+05  -2.002972e+05
  -1.483020e+05  -3.471118e+05
   5.066432e+04  -7.660932e+04
  -8.579979e+04   6.520545e+03
  -2.955173e+05  -3.584053e+05
  -2.556784e+05  -7.854833e+05
   1.530557e+05  -6.736890e+05
   6.656427e+05   8.668745e+04
   7.610415e+05   8.969555e+05
   1.646507e+05   1.007355e+06
  -7.167923e+05   2.828580e+05
  -1.039478e+06  -6.568474e+05
  -3.861226e+05  -1.056843e+06
   6.742091e+05  -6.989238e+05
   1.106978e+06   3.400892e+04
   5.506289e+05   5.972630e+05
  -2.615397e+05   6.908630e+05
  -3.771710e+05   3.766240e+05
   2.235171e+05  -4.350300e+03
   6.297009e+05  -6.019970e+04
   1.592760e+05   3.005516e+05
  -7.888406e+05   6.858667e+05
  -1.234502e+06   5.519009e+05
  -7.713497e+05  -1.654182e+05
   6.672526e+04  -8.615133e+05
   5.318995e+05  -8.633401e+05
   4.303986e+05  -1.862840e+05
   7.681826e+04   4.588692e+05
  -2.167311e+05   4.439637e+05
  -3.470354e+05  -1.158314e+05
  -2.691715e+05  -5.567139e+05
   3.272261e+04  -4.360389e+05
   3.845333e+05   2.372816e+04
   4.813655e+05   2.724503e+05
   2.412585e+05   9.830517e+04
  -4.823993e+04  -1.595753e+05
  -8.444397e+04  -6.930050e+04
   4.731081e+04   3.324481e+05
   5.709083e+03   5.582023e+05
  -2.917485e+05   2.569861e+05
  -4.840052e+05  -3.332603e+05
  -2.070301e+05  -6.243220e+05
   3.795829e+05  -3.298497e+05
   6.715157e+05   2.389285e+05
   2.763930e+05   5.451675e+05
  -4.908263e+05   3.774552e+05
  -8.777196e+05  -3.610219e+04
  -4.871134e+05  -3.535455e+05
   2.738464e+05  -4.160718e+05
   6.226439e+05  -2.623582e+05
   2.598408e+05  -3.017814e+04
  -3.142887e+05   9.285259e+04
  -3.914518e+05  -2.743758e+04
   1.380615e+05  -2.764556e+05
   6.896564e+05  -2.894604e+05
