
 $NMID
 id='ANONYMOUS ', fmtdat='(2E16.6)'
 volume=1.0
 tramp=1.0
 $END
  -4.370051e+07  -2.524467e+06
  -2.438651e+07  -2.911881e+07
   8.009099e+06  -2.933830e+07
   2.219963e+07  -9.481469e+06
   1.211297e+07   6.780154e+06
  -3.291347e+06   6.991613e+06
  -7.402753e+06  -1.807182e+06
  -1.308918e+06  -7.699606e+06
   5.415323e+06  -6.507017e+06
   7.465544e+06  -7.838547e+05
   5.006503e+06   5.025690e+06
   2.539013e+05   6.479172e+06
  -3.117361e+06   1.982379e+06
  -1.715341e+06  -4.017622e+06
   3.201087e+06  -4.557297e+06
   5.912764e+06   1.543074e+06
   2.816170e+06   8.027572e+06
  -3.524882e+06   8.810212e+06
  -8.044057e+06   4.081392e+06
  -8.290304e+06  -1.983996e+06
  -4.945968e+06  -6.086677e+06
  -2.404995e+05  -6.921926e+06
   2.734096e+06  -4.733204e+06
   1.960630e+06  -1.850470e+06
  -5.346136e+05  -1.275488e+06
  -1.829415e+05  -2.885227e+06
   3.954279e+06  -3.153286e+06
   7.148072e+06  -1.941186e+05
   5.217836e+06   3.285869e+06
   2.206214e+05   3.888401e+06
  -2.690777e+06   1.996897e+06
  -1.908942e+06   1.988500e+05
   1.322549e+05  -5.002313e+05
   1.354711e+06  -3.942543e+05
   1.553371e+06   8.403781e+05
   5.965941e+05   2.801636e+06
  -1.421587e+06   2.946036e+06
  -2.651773e+06  -4.147419e+04
  -1.377855e+06  -2.891796e+06
   6.947051e+05  -1.701066e+06
   3.336815e+05   1.639575e+06
  -1.866178e+06   1.534236e+06
  -1.649538e+06  -2.593083e+06
   2.330559e+06  -4.580590e+06
   5.609010e+06  -3.733437e+05
   3.671881e+06   5.683197e+06
  -1.962485e+06   6.535156e+06
  -5.833905e+06   1.523127e+06
  -4.964470e+06  -3.685945e+06
  -9.820774e+05  -4.563185e+06
   2.727952e+06  -1.757361e+06
   3.730440e+06   1.473034e+06
   1.499079e+06   2.739566e+06
  -2.013504e+06   1.491469e+06
  -3.379786e+06  -9.803273e+05
  -1.294803e+06  -2.198176e+06
   1.392197e+06  -9.540446e+05
   1.192849e+06   8.589314e+05
  -1.160761e+06   5.185152e+05
  -1.758874e+06  -1.667929e+06
   8.694821e+05  -2.729829e+06
   3.837371e+06  -1.169110e+06
   4.001249e+06   1.443659e+06
   1.517383e+06   3.213739e+06
  -1.540729e+06   3.896933e+06
  -3.826075e+06   3.456806e+06
  -4.670466e+06   1.143135e+06
  -3.396237e+06  -2.484853e+06
  -5.157898e+05  -4.634186e+06
   1.657848e+06  -3.415096e+06
   1.427574e+06  -6.619150e+05
  -9.071993e+03   3.722573e+05
  -2.425985e+05  -6.940589e+05
   1.046942e+06  -1.394744e+06
   2.029576e+06  -2.803897e+05
   1.492401e+06   1.307960e+06
   8.297650e+04   1.486592e+06
  -1.002661e+06   1.431124e+05
  -1.100226e+06  -1.456269e+06
   5.440082e+04  -2.091688e+06
   2.050692e+06  -1.179091e+06
   3.310296e+06   9.603964e+05
   2.344103e+06   2.928574e+06
  -1.661884e+05   3.252466e+06
  -1.879179e+06   2.016167e+06
  -1.801101e+06   7.426614e+05
  -1.416491e+06   3.600698e+05
  -2.157942e+06   1.713006e+05
  -3.112320e+06  -7.636911e+05
  -2.395367e+06  -2.152452e+06
   7.677496e+04  -2.970089e+06
   2.431900e+06  -2.684074e+06
   3.044431e+06  -1.423564e+06
   1.919784e+06   3.238806e+05
   2.054010e+05   1.600039e+06
  -8.006081e+05   1.395446e+06
  -4.162925e+05  -1.839121e+04
   8.078457e+05  -9.180303e+05
   1.408563e+06  -2.228390e+05
   6.563910e+05   9.206909e+05
  -3.860804e+05   7.817904e+05
  -2.397875e+05  -3.003723e+05
   8.662018e+05  -3.684516e+05
   1.264582e+06   1.186384e+06
   1.484196e+05   2.640705e+06
  -1.490779e+06   2.279513e+06
  -2.355234e+06   4.517140e+05
  -2.199912e+06  -1.286392e+06
  -1.390673e+06  -2.028083e+06
  -1.893567e+05  -1.817577e+06
   9.195180e+05  -9.960462e+05
   1.124732e+06  -1.245753e+05
   3.516376e+05   5.171164e+04
  -2.251850e+05  -5.565675e+05
   3.746981e+05  -9.685300e+05
   1.438335e+06  -3.384385e+05
   1.443381e+06   7.619545e+05
   1.953789e+05   1.063780e+06
  -8.763053e+05   3.491136e+05
  -5.861663e+05  -3.652613e+05
   6.507904e+05  -2.799558e+05
   1.497965e+06   3.844474e+05
   1.109017e+06   1.037880e+06
  -2.977386e+05   1.340898e+06
  -1.710367e+06   1.047886e+06
  -1.991626e+06   7.088754e+04
  -8.261254e+05  -9.800939e+05
   7.406193e+05  -1.075631e+06
   1.170675e+06  -7.819034e+04
   1.207234e+05   8.097226e+05
  -1.130392e+06   4.763872e+05
  -1.198637e+06  -6.519766e+05
  -1.368738e+05  -1.203233e+06
   8.533603e+05  -6.158051e+05
   8.751069e+05   3.225062e+05
   1.074903e+05   5.848252e+05
  -5.982208e+05  -3.016131e+03
  -4.976714e+05  -7.960817e+05
   4.619909e+05  -1.011200e+06
   1.465110e+06  -3.257354e+05
   1.432297e+06   8.306305e+05
   1.930160e+05   1.515818e+06
  -1.118202e+06   1.123508e+06
  -1.255806e+06   6.457270e+04
  -3.083543e+05  -6.529273e+05
   5.150858e+05  -5.394554e+05
   4.365047e+05  -3.347426e+04
  -1.152405e+05   2.122939e+05
  -3.252217e+05   9.130397e+04
  -2.081147e+04  -3.427680e+04
   3.469971e+05   1.340667e+05
   3.198097e+05   5.485844e+05
  -2.313744e+05   8.495293e+05
  -1.041999e+06   5.767007e+05
  -1.479792e+06  -3.887776e+05
  -9.772740e+05  -1.459430e+06
   2.509168e+05  -1.721700e+06
   1.207837e+06  -9.189669e+05
   1.173975e+06   1.794571e+05
   5.352545e+05   6.442639e+05
   1.939811e+05   4.084118e+05
   3.750620e+05   1.367543e+05
   4.801149e+05   2.711126e+05
   3.784242e+04   5.821299e+05
  -6.791547e+05   6.013685e+05
  -1.041000e+06   1.507432e+05
  -6.911577e+05  -5.490571e+05
   2.566329e+05  -9.968987e+05
   1.271729e+06  -6.727018e+05
   1.576926e+06   4.437868e+05
   7.053644e+05   1.557953e+06
  -8.553747e+05   1.655989e+06
  -1.890006e+06   6.094082e+05
  -1.638452e+06  -6.043983e+05
  -5.784150e+05  -9.953760e+05
   2.100745e+05  -6.218703e+05
   2.633955e+05  -3.120057e+05
   2.832448e+04  -5.487362e+05
   1.009705e+05  -9.728913e+05
   5.449822e+05  -9.243207e+05
   9.605134e+05  -1.847224e+05
   9.268758e+05   8.247019e+05
   3.306556e+05   1.379266e+06
  -4.968645e+05   1.007420e+06
  -9.175369e+05  -5.947911e+04
  -5.196090e+05  -9.693834e+05
   3.643850e+05  -9.860280e+05
   8.797351e+05  -2.072568e+05
   5.527141e+05   5.851891e+05
  -1.703362e+05   7.922101e+05
  -4.610754e+05   5.286193e+05
  -9.421617e+04   2.743977e+05
   3.077373e+05   2.483226e+05
   3.436392e+04   2.736716e+05
  -8.479463e+05   9.787005e+04
  -1.489084e+06  -3.312541e+05
  -1.118515e+06  -8.233534e+05
   1.144541e+05  -1.047029e+06
   1.220092e+06  -7.626026e+05
   1.335181e+06  -1.049287e+05
   5.638543e+05   4.249698e+05
  -2.269253e+05   4.147000e+05
  -3.772210e+05  -1.287503e+04
  -1.546654e+04  -3.282211e+05
   3.154714e+05  -1.773336e+05
   3.377304e+05   2.631020e+05
   1.858444e+05   5.228693e+05
   7.951478e+04   3.484211e+05
   9.646155e+04  -4.233163e+04
   1.854474e+05  -1.757751e+05
   1.825501e+05   1.799661e+05
  -1.222977e+05   6.935755e+05
  -6.872803e+05   7.369469e+05
  -1.022156e+06   9.180538e+04
  -6.141750e+05  -6.903888e+05
   3.429295e+05  -8.315127e+05
   9.393694e+05  -2.241110e+05
   5.116472e+05   4.282691e+05
  -5.355581e+05   4.313641e+05
  -1.119089e+06  -1.455782e+05
  -6.442843e+05  -6.612274e+05
   4.137137e+05  -6.601557e+05
   1.078686e+06  -2.406865e+05
   8.439078e+05   2.050828e+05
   6.024030e+04   3.638518e+05
  -4.780696e+05   1.518472e+05
  -2.744191e+05  -2.369596e+05
   4.241230e+05  -3.722035e+05
   8.522182e+05   7.393534e+04
   4.742208e+05   8.605637e+05
  -4.446259e+05   1.219432e+06
  -1.078608e+06   6.117976e+05
  -8.784979e+05  -5.716621e+05
  -9.072979e+04  -1.282647e+06
   5.717407e+05  -8.821132e+05
   6.468399e+05   1.808015e+05
   2.422718e+05   8.686287e+05
  -2.205077e+05   6.643704e+05
  -4.131898e+05   2.592978e+04
  -2.976455e+05  -2.782809e+05
  -8.714118e+04  -9.274521e+04
  -4.723326e+04   5.726145e+04
  -2.257810e+05  -2.431997e+05
  -3.450910e+05  -7.183367e+05
  -6.820007e+04  -7.686509e+05
   5.610467e+05  -2.480569e+05
   1.034269e+06   3.810253e+05
   8.567504e+05   6.386673e+05
   1.042622e+05   5.123359e+05
  -5.975470e+05   2.782377e+05
  -6.989226e+05   8.834854e+04
  -2.781081e+05  -6.918546e+04
   1.008767e+05  -1.611169e+05
   6.357898e+04  -1.253506e+05
  -1.532726e+05  -5.261976e+04
  -4.657629e+04  -9.636247e+04
   4.442873e+05  -1.678019e+05
   7.566093e+05   2.799995e+04
   3.438067e+05   5.213792e+05
  -6.050120e+05   8.477203e+05
  -1.269613e+06   5.198393e+05
  -1.049732e+06  -3.327874e+05
  -1.743758e+05  -1.012459e+06
   6.001300e+05  -9.782325e+05
   7.721600e+05  -3.835630e+05
   4.613925e+05   1.628941e+05
   1.027266e+05   2.635184e+05
  -2.209735e+04   7.179536e+04
   6.819240e+04   1.718279e+04
   1.868431e+05   2.819565e+05
   1.403007e+05   5.859358e+05
  -1.397755e+05   4.924340e+05
  -4.817095e+05  -7.752482e+04
  -5.328778e+05  -6.792248e+05
  -9.970607e+04  -7.530254e+05
   5.280319e+05  -1.992828e+05
   7.426825e+05   5.096114e+05
   2.492393e+05   7.963558e+05
  -5.256559e+05   4.990354e+05
  -8.224873e+05  -7.136746e+04
  -3.864937e+05  -4.814507e+05
   2.289301e+05  -5.151736e+05
   3.138488e+05  -2.602993e+05
  -1.444476e+05   4.618358e+03
  -4.593543e+05   1.939508e+04
  -1.094419e+05  -2.329992e+05
   6.094259e+05  -4.631932e+05
   9.456637e+05  -3.282765e+05
   5.758661e+05   1.771703e+05
  -8.826827e+04   6.371182e+05
  -4.496953e+05   6.137129e+05
  -3.477415e+05   1.283596e+05
  -4.790761e+04  -3.331160e+05
   1.772322e+05  -3.276538e+05
   2.511334e+05   8.180370e+04
   1.749658e+05   4.202319e+05
  -4.179508e+04   3.363555e+05
  -2.830885e+05  -2.677343e+04
  -3.448134e+05  -2.361314e+05
  -1.705351e+05  -9.500533e+04
   3.510500e+04   1.357290e+05
   5.375779e+04   8.554522e+04
  -4.804739e+04  -2.381930e+05
  -1.269189e+04  -4.368814e+05
   2.195370e+05  -2.120014e+05
   3.690030e+05   2.479605e+05
   1.579012e+05   4.699647e+05
  -2.851610e+05   2.358525e+05
  -4.966077e+05  -1.949985e+05
  -1.892408e+05  -4.062126e+05
   3.832142e+05  -2.564813e+05
   6.549039e+05   5.937644e+04
   3.470871e+05   2.817267e+05
  -2.220349e+05   3.071978e+05
  -4.766517e+05   1.811664e+05
  -2.075165e+05   1.093365e+04
   2.162196e+05  -7.310311e+04
   2.812499e+05   1.475890e+04
  -9.415998e+04   1.866651e+05
  -4.905018e+05   1.870183e+05
