
 $NMID
 id='ANONYMOUS ', fmtdat='(2E16.6)'
 volume=1.0
 tramp=1.0
 $END
   2.261095e+07   1.984394e+05
   1.529894e+07   1.045259e+07
   2.099996e+05   1.432863e+07
  -9.833463e+06   9.886466e+06
  -8.543003e+06   1.258049e+06
  -6.941616e+05  -4.184771e+06
   4.768288e+06  -2.301113e+06
   3.741734e+06   3.699274e+06
  -1.012045e+06   6.596870e+06
  -4.385212e+06   3.004841e+06
  -3.772816e+06  -3.050930e+06
  -4.222270e+05  -4.950311e+06
   2.284579e+06  -9.572834e+05
   1.780997e+06   4.207812e+06
  -1.396630e+06   4.913393e+06
  -3.937370e+06   5.154137e+05
  -2.936061e+06  -4.577816e+06
   1.033923e+06  -5.810085e+06
   4.425795e+06  -2.709716e+06
   4.424821e+06   1.418924e+06
   1.754100e+06   3.218405e+06
  -4.051937e+05   2.373557e+06
   3.991997e+04   1.247716e+06
   1.929354e+06   1.862776e+06
   2.182915e+06   3.616515e+06
  -7.779020e+05   4.142410e+06
  -4.958042e+06   2.141315e+06
  -6.424140e+06  -1.113170e+06
  -3.395985e+06  -3.111831e+06
   1.479036e+06  -2.519746e+06
   3.596157e+06  -1.553990e+05
   1.261787e+06   1.909852e+06
  -2.580015e+06   1.929195e+06
  -3.826706e+06  -2.657701e+05
  -1.690137e+06  -2.915616e+06
   1.048409e+06  -3.551892e+06
   1.707431e+06  -1.417064e+06
   4.540835e+05   1.319250e+06
  -6.843165e+05   1.627373e+06
  -4.174531e+05  -8.093608e+05
   8.348673e+05  -2.946324e+06
   1.850213e+06  -1.962199e+06
   1.680816e+06   1.181921e+06
   1.992038e+05   2.809060e+06
  -1.593458e+06   9.732480e+05
  -1.929239e+06  -2.260778e+06
   1.374146e+05  -3.327098e+06
   3.208584e+06  -1.118874e+06
   4.346652e+06   2.169553e+06
   2.041778e+06   3.641210e+06
  -1.891217e+06   2.405294e+06
  -3.954713e+06  -1.079634e+05
  -2.516940e+06  -1.778730e+06
   6.472794e+05  -1.554306e+06
   2.391685e+06  -8.124472e+04
   1.421704e+06   1.041584e+06
  -6.858434e+05   7.644435e+05
  -1.450515e+06  -4.574545e+05
  -1.722064e+05  -1.215262e+06
   1.446337e+06  -6.559234e+05
   1.290943e+06   6.534601e+05
  -7.133633e+05   1.334582e+06
  -2.379517e+06   5.191818e+05
  -1.601208e+06  -1.370941e+06
   1.290328e+06  -2.892688e+06
   3.819979e+06  -2.634485e+06
   3.964542e+06  -4.030791e+05
   2.076196e+06   2.398631e+06
   1.088280e+05   3.850877e+06
  -6.363954e+05   3.292940e+06
  -5.680260e+05   1.879740e+06
  -8.095400e+05   1.105156e+06
  -1.714284e+06   1.012073e+06
  -2.560443e+06   3.922170e+05
  -2.403900e+06  -1.260958e+06
  -9.987452e+05  -2.684655e+06
   9.317036e+05  -2.206359e+06
   2.110560e+06   1.287112e+05
   1.591731e+06   2.347530e+06
  -3.732389e+05   2.532888e+06
  -2.306780e+06   6.826276e+05
  -2.681499e+06  -1.512330e+06
  -1.351349e+06  -2.452039e+06
   3.312281e+05  -1.971643e+06
   1.008903e+06  -1.087894e+06
   7.965373e+05  -7.417308e+05
   9.758971e+05  -8.977679e+05
   2.206666e+06  -7.451911e+05
   3.414295e+06   3.545127e+05
   2.832353e+06   2.109790e+06
   1.317384e+05   3.401474e+06
  -2.843804e+06   3.163074e+06
  -3.744650e+06   1.334041e+06
  -2.063132e+06  -9.164959e+05
   3.903927e+05  -2.015120e+06
   1.377520e+06  -1.319820e+06
   4.024060e+05   2.292899e+05
  -1.090425e+06   9.705721e+05
  -1.454654e+06   2.351494e+05
  -4.859463e+05  -9.150244e+05
   6.306432e+05  -9.333117e+05
   6.881534e+05   2.812071e+05
  -3.908544e+05   1.112281e+06
  -1.561066e+06   1.147468e+05
  -1.578360e+06  -2.118372e+06
  -4.184752e+04  -3.401724e+06
   2.166179e+06  -2.276854e+06
   3.434718e+06   4.395218e+05
   2.728193e+06   2.544011e+06
   5.918176e+05   2.641415e+06
  -1.237619e+06   1.272155e+06
  -1.451097e+06   4.254376e+04
  -4.201818e+05  -4.828513e+04
   3.076691e+05   6.288313e+05
  -2.306186e+05   9.932555e+05
  -1.356433e+06   4.576140e+05
  -1.592579e+06  -5.291611e+05
  -4.430250e+05  -1.017373e+06
   9.314832e+05  -5.500324e+05
   9.485973e+05   3.724330e+05
  -5.912120e+05   7.693290e+05
  -2.145863e+06   1.076289e+05
  -1.983694e+06  -1.179733e+06
  -1.819085e+04  -2.029879e+06
   2.047007e+06  -1.657401e+06
   2.426649e+06  -2.858016e+05
   9.994187e+05   9.668260e+05
  -6.987872e+05   1.071461e+06
  -1.092900e+06   1.027839e+05
  -3.841097e+04  -7.881506e+05
   1.244552e+06  -5.632959e+05
   1.475899e+06   5.697092e+05
   4.820523e+05   1.388872e+06
  -7.684258e+05   1.040684e+06
  -1.139085e+06  -1.704949e+04
  -3.990729e+05  -5.852210e+05
   5.503043e+05  -8.335816e+04
   5.570356e+05   8.643813e+05
  -5.629678e+05   1.158999e+06
  -1.730105e+06   3.548941e+05
  -1.672708e+06  -9.571956e+05
  -2.988716e+05  -1.731891e+06
   1.161104e+06  -1.379816e+06
   1.439336e+06  -2.468073e+05
   5.094701e+05   6.996965e+05
  -5.211316e+05   7.364779e+05
  -6.615509e+05   4.366074e+04
   9.014330e+03  -5.268917e+05
   6.047204e+05  -3.926291e+05
   4.569304e+05   1.296871e+05
  -2.103221e+05   2.439139e+05
  -5.520151e+05  -3.332453e+05
   7.765464e+03  -9.745422e+05
   1.124371e+06  -8.027066e+05
   1.772333e+06   3.410231e+05
   1.217123e+06   1.662277e+06
  -2.202978e+05   2.120437e+06
  -1.437517e+06   1.357571e+06
  -1.621486e+06  -4.999796e+03
  -9.732963e+05  -9.424351e+05
  -3.322234e+05  -9.446393e+05
  -2.026572e+05  -4.213844e+05
  -3.008723e+05  -1.809730e+05
  -4.048974e+04  -5.010921e+05
   6.872955e+05  -8.113799e+05
   1.300974e+06  -3.912208e+05
   1.071063e+06   6.830104e+05
  -1.222724e+05   1.458118e+06
  -1.521533e+06   1.048865e+06
  -2.013881e+06  -4.029502e+05
  -1.072135e+06  -1.784360e+06
   7.111734e+05  -2.016484e+06
   2.064840e+06  -9.965780e+05
   2.116116e+06   3.965392e+05
   1.086988e+06   1.163071e+06
  -4.517867e+04   1.054340e+06
  -5.161533e+05   6.482399e+05
  -3.817042e+05   6.098203e+05
  -2.500461e+05   9.295611e+05
  -5.364861e+05   9.596376e+05
  -1.019069e+06   2.134383e+05
  -1.090224e+06  -9.674954e+05
  -4.268035e+05  -1.651950e+06
   5.846663e+05  -1.229028e+06
   1.129397e+06  -1.913353e+04
   7.400555e+05   1.027993e+06
  -2.069269e+05   1.187620e+06
  -8.420869e+05   5.153053e+05
  -6.780530e+05  -3.413688e+05
  -7.123018e+04  -7.806337e+05
   2.382219e+05  -7.073177e+05
  -1.385470e+04  -4.561321e+05
  -3.228683e+05  -3.466251e+05
  -1.631916e+04  -3.522738e+05
   9.119363e+05  -1.988584e+05
   1.659803e+06   2.623078e+05
   1.379889e+06   8.344407e+05
   9.570884e+04   1.130340e+06
  -1.212616e+06   9.170514e+05
  -1.523987e+06   3.224289e+05
  -7.722781e+05  -2.452148e+05
   1.526816e+05  -3.987093e+05
   3.923181e+05  -1.030636e+05
  -3.521178e+04   2.456203e+05
  -4.477407e+05   1.788951e+05
  -3.864698e+05  -3.063698e+05
  -6.157535e+04  -6.643622e+05
   6.009875e+04  -4.200584e+05
  -1.402876e+05   1.778611e+05
  -3.609297e+05   3.662209e+05
  -2.621887e+05  -1.905456e+05
   2.114267e+05  -8.963104e+05
   7.868121e+05  -8.783413e+05
   1.008174e+06  -3.875522e+04
   5.521338e+05   8.042454e+05
  -3.741853e+05   8.431678e+05
  -9.912124e+05   1.348600e+05
  -5.998825e+05  -5.540105e+05
   5.826298e+05  -5.797913e+05
   1.440966e+06   3.118938e+04
   1.049717e+06   7.341533e+05
  -3.004674e+05   9.744572e+05
  -1.355263e+06   5.913509e+05
  -1.201549e+06  -8.524186e+04
  -1.808862e+05  -4.858909e+05
   5.545140e+05  -2.922870e+05
   2.845667e+05   2.156060e+05
  -5.816467e+05   3.711300e+05
  -1.008497e+06  -1.987419e+05
  -4.290957e+05  -1.090040e+06
   6.981334e+05  -1.409103e+06
   1.381071e+06  -6.403044e+05
   1.070363e+06   7.438462e+05
   1.150454e+05   1.605796e+06
  -6.848855e+05   1.193263e+06
  -8.388656e+05  -8.949045e+04
  -4.451492e+05  -1.049096e+06
   1.012659e+05  -9.187738e+05
   4.636497e+05  -1.128488e+05
   4.854527e+05   3.660942e+05
   2.329425e+05   1.590607e+05
   1.020681e+04  -1.137208e+05
   1.082965e+05   1.951452e+05
   3.776840e+05   8.311964e+05
   2.561951e+05   9.798633e+05
  -5.092465e+05   3.587559e+05
  -1.306847e+06  -4.470747e+05
  -1.214778e+06  -7.706584e+05
  -1.611321e+05  -5.972075e+05
   8.527550e+05  -3.338199e+05
   9.070082e+05  -1.710519e+05
   2.411224e+05  -3.696411e+03
  -1.690510e+05   1.833369e+05
   6.923144e+04   2.390803e+05
   3.423015e+05   1.580078e+05
  -4.685097e+03   1.233243e+05
  -7.085462e+05   1.378226e+05
  -9.010373e+05  -7.647343e+04
  -1.907803e+05  -5.931084e+05
   8.799575e+05  -9.310845e+05
   1.432275e+06  -5.274117e+05
   1.078309e+06   4.818039e+05
   1.486992e+05   1.258142e+06
  -6.854731e+05   1.142794e+06
  -9.309823e+05   3.595821e+05
  -5.791719e+05  -2.888895e+05
  -5.670364e+04  -3.140624e+05
   1.571835e+05   1.462865e+04
  -3.925866e+04   8.901715e+04
  -3.040194e+05  -3.008501e+05
  -2.336417e+05  -7.171908e+05
   2.015209e+05  -5.633812e+05
   6.097324e+05   2.043513e+05
   5.449519e+05   9.273878e+05
  -5.339645e+04   8.890140e+05
  -7.268398e+05   8.477082e+04
  -8.404258e+05  -7.609480e+05
  -1.966488e+05  -9.566577e+05
   6.617394e+05  -4.884949e+05
   9.224524e+05   1.339706e+05
   3.862819e+05   4.813239e+05
  -2.643217e+05   4.883614e+05
  -2.590866e+05   2.892540e+05
   3.075912e+05   5.739426e+04
   5.933958e+05   5.793884e+03
   8.538981e+04   2.551323e+05
  -7.471226e+05   5.765510e+05
  -1.044112e+06   5.005507e+05
  -5.703179e+05  -1.052310e+05
   1.228018e+05  -7.189048e+05
   4.309824e+05  -6.937003e+05
   2.822761e+05  -6.263973e+04
  -2.192478e+04   4.570282e+05
  -2.407784e+05   3.204439e+05
  -3.038046e+05  -2.247543e+05
  -1.869329e+05  -5.169187e+05
   8.132453e+04  -2.945621e+05
   3.347576e+05   9.025036e+04
   3.784894e+05   2.040708e+05
   2.097623e+05   4.149813e+04
   1.478688e+04  -6.544923e+04
  -7.535786e+04   9.394084e+04
  -1.209886e+05   3.577014e+05
  -2.245482e+05   3.801863e+05
  -3.329059e+05   2.457088e+04
  -2.707950e+05  -4.433366e+05
   3.647404e+04  -5.787569e+05
   4.096496e+05  -2.156779e+05
   5.114808e+05   3.234150e+05
   1.548118e+05   5.429040e+05
  -4.324939e+05   2.880131e+05
  -7.171725e+05  -1.364495e+05
  -3.786151e+05  -3.501074e+05
   2.699397e+05  -2.756044e+05
   5.416816e+05  -9.818858e+04
   1.538894e+05   4.404308e+03
  -3.933051e+05  -2.516875e+04
  -3.852134e+05  -1.664329e+05
   2.355991e+05  -2.997374e+05
   7.826078e+05  -1.983266e+05
