
 $NMID
 id='ANONYMOUS ', fmtdat='(2E16.6)'
 volume=1.0
 tramp=1.0
 $END
  -2.115282e+07   1.714352e+06
  -1.559432e+07  -8.267274e+06
  -1.769689e+06  -1.351028e+07
   8.519945e+06  -1.053071e+07
   8.334983e+06  -2.140361e+06
   1.150600e+06   4.035634e+06
  -4.539114e+06   2.754596e+06
  -4.070371e+06  -3.308089e+06
   4.519249e+05  -6.623485e+06
   4.048387e+06  -3.347972e+06
   3.834443e+06   2.657311e+06
   7.129958e+05   4.740272e+06
  -2.113981e+06   1.023249e+06
  -1.950966e+06  -4.028473e+06
   1.037108e+06  -4.935999e+06
   3.782378e+06  -8.600191e+05
   3.206581e+06   4.153634e+06
  -5.014691e+05   5.648399e+06
  -3.961426e+06   2.910644e+06
  -4.219561e+06  -1.013710e+06
  -1.810796e+06  -2.817099e+06
   1.683191e+05  -2.102934e+06
  -3.346112e+05  -1.132778e+06
  -2.157164e+06  -1.828787e+06
  -2.323859e+06  -3.567917e+06
   6.243996e+05  -4.109624e+06
   4.741094e+06  -2.269677e+06
   6.252021e+06   7.935331e+05
   3.392979e+06   2.801630e+06
  -1.355171e+06   2.423718e+06
  -3.492166e+06   2.248912e+05
  -1.238963e+06  -1.878250e+06
   2.572749e+06  -2.009233e+06
   3.839440e+06   1.655776e+05
   1.739426e+06   2.854486e+06
  -9.410464e+05   3.499515e+06
  -1.559451e+06   1.386186e+06
  -3.683351e+05  -1.259736e+06
   6.432186e+05  -1.503565e+06
   3.617238e+05   8.754020e+05
  -7.544646e+05   2.941934e+06
  -1.713338e+06   2.028837e+06
  -1.742126e+06  -1.002767e+06
  -5.086836e+05  -2.724202e+06
   1.336515e+06  -1.179756e+06
   2.021884e+06   1.895344e+06
   2.205209e+05   3.159439e+06
  -2.937249e+06   1.318558e+06
  -4.369017e+06  -1.801005e+06
  -2.256316e+06  -3.433592e+06
   1.701988e+06  -2.497793e+06
   3.913537e+06  -1.544219e+05
   2.618568e+06   1.591793e+06
  -4.948079e+05   1.592518e+06
  -2.315898e+06   2.784780e+05
  -1.477696e+06  -8.958637e+05
   5.943166e+05  -7.937515e+05
   1.461661e+06   3.623413e+05
   2.687384e+05   1.249334e+06
  -1.432751e+06   8.292152e+05
  -1.453512e+06  -5.420203e+05
   4.877654e+05  -1.440396e+06
   2.276012e+06  -7.681971e+05
   1.690475e+06   1.170483e+06
  -1.065141e+06   2.845931e+06
  -3.560319e+06   2.726581e+06
  -3.787622e+06   5.849301e+05
  -2.088692e+06  -2.186913e+06
  -3.084181e+05  -3.699457e+06
   4.007196e+05  -3.266275e+06
   4.527679e+05  -1.940850e+06
   8.113362e+05  -1.161033e+06
   1.716334e+06  -1.032574e+06
   2.515944e+06  -4.259980e+05
   2.381970e+06   1.186360e+06
   1.049537e+06   2.616227e+06
  -8.641212e+05   2.204035e+06
  -2.109780e+06  -6.245467e+04
  -1.670185e+06  -2.264345e+06
   2.619278e+05  -2.500878e+06
   2.211941e+06  -7.538937e+05
   2.646722e+06   1.343070e+06
   1.411388e+06   2.268522e+06
  -1.907691e+05   1.873808e+06
  -8.582074e+05   1.094523e+06
  -6.899217e+05   7.936361e+05
  -8.994964e+05   9.640687e+05
  -2.131712e+06   8.670677e+05
  -3.372962e+06  -1.572801e+05
  -2.892099e+06  -1.920312e+06
  -3.020680e+05  -3.335850e+06
   2.641187e+06  -3.241768e+06
   3.611424e+06  -1.469512e+06
   2.048430e+06   8.195019e+05
  -3.165585e+05   1.987250e+06
  -1.300745e+06   1.336847e+06
  -3.982941e+05  -2.137571e+05
   1.028677e+06  -9.978127e+05
   1.410510e+06  -3.030667e+05
   5.133329e+05   8.632497e+05
  -5.848539e+05   9.429536e+05
  -7.088764e+05  -2.522728e+05
   3.242012e+05  -1.155425e+06
   1.570638e+06  -2.455022e+05
   1.731503e+06   2.002036e+06
   2.543128e+05   3.412790e+06
  -2.039754e+06   2.422800e+06
  -3.453175e+06  -2.480739e+05
  -2.837498e+06  -2.402878e+06
  -7.079228e+05  -2.594711e+06
   1.163332e+06  -1.307201e+06
   1.425003e+06  -1.023233e+05
   4.150988e+05   2.758870e+04
  -3.347550e+05  -6.035574e+05
   1.674970e+05  -9.870061e+05
   1.299753e+06  -5.249269e+05
   1.595445e+06   4.282218e+05
   4.975005e+05   9.764383e+05
  -8.901002e+05   5.937290e+05
  -9.630424e+05  -3.255697e+05
   5.473653e+05  -8.071619e+05
   2.131865e+06  -2.214459e+05
   2.032635e+06   1.079634e+06
   1.176137e+05   2.020164e+06
  -1.943848e+06   1.740760e+06
  -2.377995e+06   4.010081e+05
  -1.032661e+06  -8.962961e+05
   6.246231e+05  -1.082285e+06
   1.058162e+06  -1.596298e+05
   7.504273e+04   7.641370e+05
  -1.193020e+06   6.148785e+05
  -1.484620e+06  -4.839913e+05
  -5.521969e+05  -1.349221e+06
   7.053496e+05  -1.077354e+06
   1.134335e+06  -4.798971e+04
   4.334101e+05   5.604825e+05
  -5.336095e+05   1.170714e+05
  -5.905312e+05  -8.182488e+05
   4.963745e+05  -1.163917e+06
   1.681213e+06  -4.304839e+05
   1.688255e+06   8.589566e+05
   3.798432e+05   1.686440e+06
  -1.070563e+06   1.416146e+06
  -1.404936e+06   3.173273e+05
  -5.406465e+05  -6.654491e+05
   4.772391e+05  -7.549316e+05
   6.548962e+05  -7.009752e+04
   1.485432e+04   5.335507e+05
  -5.915388e+05   4.212773e+05
  -4.708097e+05  -1.198977e+05
   1.962836e+05  -2.713016e+05
   5.726922e+05   2.918667e+05
   5.065453e+04   9.623431e+05
  -1.064103e+06   8.492985e+05
  -1.760376e+06  -2.461936e+05
  -1.278160e+06  -1.573381e+06
   1.153526e+05  -2.097856e+06
   1.355262e+06  -1.411382e+06
   1.607084e+06  -7.346143e+04
   1.008283e+06   8.959020e+05
   3.618937e+05   9.330163e+05
   2.018654e+05   4.077983e+05
   2.967869e+05   1.499542e+05
   6.852366e+04   4.813557e+05
  -6.334235e+05   8.356425e+05
  -1.265954e+06   4.529065e+05
  -1.092690e+06  -6.267413e+05
   5.046122e+04  -1.452705e+06
   1.450694e+06  -1.111885e+06
   2.005483e+06   2.987318e+05
   1.148853e+06   1.705270e+06
  -5.919445e+05   2.024554e+06
  -1.981042e+06   1.092284e+06
  -2.112644e+06  -2.814117e+05
  -1.139027e+06  -1.101288e+06
  -5.053991e+03  -1.055953e+06
   4.919647e+05  -6.666455e+05
   3.590242e+05  -6.057231e+05
   2.010226e+05  -9.119663e+05
   4.735320e+05  -9.650978e+05
   9.857047e+05  -2.607439e+05
   1.116298e+06   8.979639e+05
   4.981801e+05   1.603829e+06
  -5.169792e+05   1.236250e+06
  -1.112639e+06   7.473966e+04
  -7.839285e+05  -9.730286e+05
   1.384088e+05  -1.183051e+06
   8.018801e+05  -5.624885e+05
   6.927021e+05   2.892414e+05
   1.225262e+05   7.642504e+05
  -1.900161e+05   7.178770e+05
   3.647826e+04   4.562087e+05
   3.298788e+05   3.257750e+05
   3.087124e+04   3.451470e+05
  -8.840490e+05   2.443613e+05
  -1.641042e+06  -1.703809e+05
  -1.400624e+06  -7.495820e+05
  -1.603792e+05  -1.107534e+06
   1.138002e+06  -9.651205e+05
   1.484552e+06  -3.983298e+05
   7.816425e+05   1.966950e+05
  -1.235776e+05   3.980559e+05
  -3.812507e+05   1.261752e+05
   2.129814e+04  -2.349031e+05
   4.331988e+05  -1.928359e+05
   3.930994e+05   2.819961e+05
   8.367808e+04   6.464209e+05
  -4.591555e+04   4.111024e+05
   1.337832e+05  -1.856651e+05
   3.470516e+05  -3.794232e+05
   2.689560e+05   1.742465e+05
  -1.695597e+05   8.906079e+05
  -7.292811e+05   9.007439e+05
  -9.772201e+05   8.919092e+04
  -5.732661e+05  -7.575490e+05
   3.218766e+05  -8.404416e+05
   9.577021e+05  -1.772735e+05
   6.133099e+05   5.172776e+05
  -5.444129e+05   6.008629e+05
  -1.424721e+06   3.984837e+04
  -1.078328e+06  -6.771910e+05
   2.465358e+05  -9.840079e+05
   1.314411e+06  -6.550051e+05
   1.196511e+06   2.605890e+04
   2.035358e+05   4.739143e+05
  -5.334687e+05   3.182923e+05
  -2.899974e+05  -1.943792e+05
   5.547060e+05  -3.868602e+05
   9.963478e+05   1.519344e+05
   4.652424e+05   1.048989e+06
  -6.250397e+05   1.409837e+06
  -1.327473e+06   6.871014e+05
  -1.085042e+06  -6.834560e+05
  -1.864033e+05  -1.574712e+06
   6.206176e+05  -1.209647e+06
   8.343538e+05   4.505934e+04
   4.927073e+05   1.014246e+06
  -5.295660e+04   9.170674e+05
  -4.511142e+05   1.371237e+05
  -4.985242e+05  -3.417690e+05
  -2.403682e+05  -1.510312e+05
  -4.173081e+03   1.153773e+05
  -1.116434e+05  -1.779044e+05
  -4.093356e+05  -7.965206e+05
  -3.030694e+05  -9.580274e+05
   4.784302e+05  -3.835289e+05
   1.307584e+06   3.794771e+05
   1.236857e+06   7.056278e+05
   1.882508e+05   5.792286e+05
  -8.275265e+05   3.638127e+05
  -8.875370e+05   2.112341e+05
  -2.352624e+05   2.123046e+04
   1.592943e+05  -1.861705e+05
  -8.257766e+04  -2.393652e+05
  -3.475393e+05  -1.475079e+05
   1.352983e+03  -1.198578e+05
   6.948454e+05  -1.609622e+05
   8.871465e+05   3.437140e+04
   2.069546e+05   5.658621e+05
  -8.246524e+05   9.477534e+05
  -1.375547e+06   5.837444e+05
  -1.071711e+06  -4.209002e+05
  -2.012188e+05  -1.228771e+06
   6.172543e+05  -1.154279e+06
   8.947204e+05  -3.926383e+05
   5.808461e+05   2.610640e+05
   6.788225e+04   3.037855e+05
  -1.575379e+05  -1.490144e+04
   3.575759e+04  -9.507220e+04
   3.171852e+05   2.819530e+05
   2.655497e+05   6.960472e+05
  -1.721411e+05   5.608776e+05
  -6.067304e+05  -1.776170e+05
  -5.716541e+05  -8.874117e+05
   1.761772e+04  -8.701981e+05
   7.094294e+05  -1.081628e+05
   8.546701e+05   7.128536e+05
   2.336422e+05   9.274850e+05
  -6.251321e+05   5.052916e+05
  -9.082067e+05  -8.843830e+04
  -4.016302e+05  -4.483209e+05
   2.324013e+05  -4.870183e+05
   2.353481e+05  -2.988651e+05
  -3.084682e+05  -4.857425e+04
  -5.839388e+05   1.970852e+04
  -9.459832e+04  -2.441878e+05
   7.081078e+05  -6.016933e+05
   1.001447e+06  -5.476247e+05
   5.631810e+05   6.870368e+04
  -8.637299e+04   7.094961e+05
  -3.850636e+05   7.028992e+05
  -2.659911e+05   7.485307e+04
   5.125785e+03  -4.499663e+05
   2.205021e+05  -3.221370e+05
   3.053049e+05   2.118660e+05
   2.064892e+05   4.988027e+05
  -6.420705e+04   2.876706e+05
  -3.311557e+05  -7.526047e+04
  -3.821584e+05  -1.784166e+05
  -2.102657e+05  -2.807814e+04
  -1.096721e+04   5.927822e+04
   7.578476e+04  -1.036701e+05
   1.116181e+05  -3.548268e+05
   2.085787e+05  -3.709705e+05
   3.220630e+05  -2.809631e+04
   2.753152e+05   4.238648e+05
  -1.857882e+04   5.641994e+05
  -3.930853e+05   2.262482e+05
  -5.113858e+05  -2.949390e+05
  -1.728907e+05  -5.261614e+05
   4.095519e+05  -3.031274e+05
   7.060480e+05   1.011201e+05
   3.863645e+05   3.255536e+05
  -2.497057e+05   2.793864e+05
  -5.227713e+05   1.176888e+05
  -1.468618e+05   4.843982e+03
   3.898749e+05   1.488078e+04
   3.838718e+05   1.530778e+05
  -2.247198e+05   3.050880e+05
  -7.667791e+05   2.247218e+05
