
 $NMID
 id='ANONYMOUS ', fmtdat='(2E16.6)'
 volume=1.0
 tramp=1.0
 $END
   4.766957e+03   2.721163e+01
   2.745628e+03   2.911982e+03
  -9.203630e+02   2.968529e+03
  -2.358953e+03   8.964313e+02
  -9.941415e+02  -8.254132e+02
   8.213041e+02  -6.957143e+02
   1.039422e+03   5.364152e+02
  -2.717887e+01   1.237431e+03
  -9.531739e+02   8.451534e+02
  -1.042013e+03  -1.618170e+02
  -4.482301e+02  -9.530409e+02
   3.026770e+02  -9.678462e+02
   7.173224e+02  -1.048763e+02
   4.226657e+02   7.997651e+02
  -3.081404e+02   8.141196e+02
  -6.719704e+02   4.424631e+00
  -2.794636e+02  -7.482661e+02
   3.808968e+02  -6.720203e+02
   6.425485e+02  -6.330040e+01
   4.082246e+02   4.094563e+02
  -2.615642e+00   4.761795e+02
  -2.733978e+02   2.788964e+02
  -2.464210e+02   2.087094e+00
   1.055513e+02  -1.161509e+02
   4.418092e+02   9.708059e+01
   2.341929e+02   4.712767e+02
  -4.895269e+02   4.774907e+02
  -9.361772e+02  -5.560880e+01
  -4.881556e+02  -6.122847e+02
   4.195207e+02  -5.654305e+02
   8.229128e+02   1.286655e+01
   3.889931e+02   5.340273e+02
  -3.097848e+02   5.776968e+02
  -6.242566e+02   2.154293e+02
  -4.478874e+02  -2.653729e+02
  -6.264845e+01  -5.281341e+02
   2.407445e+02  -3.061144e+02
   2.114533e+02   2.520107e+02
  -1.494641e+02   4.890119e+02
  -5.105816e+02  -6.060375e+00
  -2.862875e+02  -7.413729e+02
   3.507464e+02  -7.773891e+02
   6.885880e+02   3.401171e+00
   2.958264e+02   6.316668e+02
  -3.409341e+02   3.682180e+02
  -4.448591e+02  -3.484924e+02
   6.406660e+01  -6.057275e+02
   5.967263e+02  -1.595167e+02
   6.340667e+02   4.391325e+02
   1.636966e+02   6.319397e+02
  -4.173948e+02   3.728965e+02
  -6.724350e+02  -8.389377e+01
  -3.920472e+02  -4.232694e+02
   1.783747e+02  -4.064054e+02
   4.916939e+02  -5.949954e+01
   2.600248e+02   2.373375e+02
  -1.513274e+02   1.335077e+02
  -1.767724e+02  -1.810197e+02
   1.848624e+02  -2.249303e+02
   3.931462e+02   8.249538e+01
   1.559254e+02   3.370595e+02
  -2.290162e+02   2.695934e+02
  -3.459134e+02   5.755985e+01
  -1.865569e+02  -9.356029e+01
   2.889947e+01  -2.187357e+02
   2.154806e+02  -3.235053e+02
   3.390166e+02  -2.262812e+02
   3.126612e+02   1.458640e+02
   9.260608e+01   4.715093e+02
  -1.286207e+02   4.132573e+02
  -1.521218e+02   1.060135e+02
  -2.890730e+01  -3.575961e+01
  -2.494853e+01   8.542544e+01
  -1.871871e+02   1.510756e+02
  -3.019834e+02  -3.830716e+01
  -1.862619e+02  -2.844178e+02
   6.435237e+01  -2.807927e+02
   2.456074e+02  -2.612068e+01
   2.248659e+02   2.451051e+02
  -1.619780e+00   3.167883e+02
  -2.867231e+02   1.343638e+02
  -3.892400e+02  -1.740288e+02
  -1.951393e+02  -3.772638e+02
   1.179474e+02  -3.290719e+02
   2.501297e+02  -1.145267e+02
   1.563648e+02   1.428393e+01
   8.987597e+01  -3.096097e+01
   2.323734e+02  -7.556658e+01
   4.097928e+02   4.750953e+01
   3.505744e+02   2.926326e+02
   1.421802e+01   4.589060e+02
  -3.653945e+02   4.314084e+02
  -5.076150e+02   2.139684e+02
  -3.661459e+02  -9.811816e+01
  -6.929432e+01  -3.192476e+02
   1.451037e+02  -2.754319e+02
   1.008957e+02  -2.569077e+01
  -1.127058e+02   1.341870e+02
  -2.218910e+02  -3.262521e-01
  -6.303175e+01  -2.265557e+02
   1.851462e+02  -2.043825e+02
   2.055228e+02   6.574913e+01
  -1.566189e+01   2.194722e+02
  -2.125486e+02   4.527826e+01
  -1.729384e+02  -2.581608e+02
   3.687423e+01  -3.623661e+02
   2.362244e+02  -1.952337e+02
   3.288478e+02   6.727475e+01
   2.807289e+02   2.400396e+02
   9.707278e+01   2.701990e+02
  -1.145476e+02   1.659515e+02
  -1.863110e+02   2.064127e+01
  -6.133008e+01  -4.184785e+01
   7.725743e+01   3.309045e+01
   3.893944e+01   1.345319e+02
  -1.269044e+02   1.115748e+02
  -1.920711e+02  -8.746078e+00
  -6.730363e+01  -7.936977e+01
   7.971094e+01  -2.462934e+01
   6.061727e+01   7.082845e+01
  -1.186507e+02   9.018348e+01
  -2.794105e+02   7.536769e+00
  -2.712132e+02  -1.347847e+02
  -7.238321e+01  -2.638485e+02
   1.790503e+02  -2.771125e+02
   2.922502e+02  -1.372252e+02
   1.852295e+02   5.431440e+01
  -2.088590e+01   1.199258e+02
  -9.916679e+01   9.988110e+00
   2.785862e+01  -1.108126e+02
   2.035906e+02  -6.463513e+01
   2.251194e+02   1.082714e+02
   7.283414e+01   2.206272e+02
  -9.908480e+01   1.678910e+02
  -1.522442e+02   2.963492e+01
  -7.811494e+01  -4.591148e+01
   2.580718e+01  -1.032684e+01
   4.173074e+01   7.926664e+01
  -6.761244e+01   1.166271e+02
  -2.006689e+02   3.625977e+01
  -1.998420e+02  -1.250739e+02
  -2.466080e+01  -2.289190e+02
   1.730396e+02  -1.735124e+02
   2.066189e+02  -3.327983e+00
   7.087861e+01   1.238918e+02
  -7.052836e+01   1.164876e+02
  -8.869534e+01   3.088959e+01
  -2.221010e+01  -2.657293e+01
   1.892592e+01  -1.968118e+01
  -1.021516e+01   6.453256e+00
  -7.137440e+01  -1.003599e+01
  -8.825771e+01  -8.091059e+01
  -1.760841e+01  -1.568606e+02
   1.235367e+02  -1.550653e+02
   2.343450e+02  -3.200291e+01
   2.079008e+02   1.476053e+02
   4.660443e+01   2.442254e+02
  -1.120204e+02   1.759234e+02
  -1.419171e+02   2.607636e+01
  -7.393296e+01  -6.012848e+01
  -2.750180e+01  -3.776462e+01
  -5.149530e+01   1.259141e+01
  -7.608376e+01   7.390418e+00
  -3.823967e+01  -4.818135e+01
   4.176897e+01  -8.224579e+01
   9.603043e+01  -5.120733e+01
   7.859306e+01   3.294304e+01
  -1.144444e+01   1.047107e+02
  -1.365673e+02   8.683677e+01
  -1.987090e+02  -4.738248e+01
  -1.077096e+02  -2.033907e+02
   1.027941e+02  -2.388331e+02
   2.741949e+02  -1.059838e+02
   2.705271e+02   8.498270e+01
   1.202401e+02   1.848310e+02
  -3.710214e+01   1.551896e+02
  -9.773955e+01   8.902867e+01
  -8.103520e+01   7.453047e+01
  -6.987563e+01   9.364320e+01
  -9.772140e+01   7.542032e+01
  -1.336652e+02  -2.398784e+01
  -1.234320e+02  -1.580708e+02
  -3.181331e+01  -2.322430e+02
   1.013252e+02  -1.807902e+02
   1.823843e+02  -2.600714e+01
   1.445542e+02   1.218271e+02
   2.279325e+01   1.642279e+02
  -6.647902e+01   9.873569e+01
  -6.227221e+01   4.170350e+00
  -7.553323e+00  -4.065945e+01
   7.299210e+00  -3.438111e+01
  -3.717516e+01  -2.018953e+01
  -7.578198e+01  -2.466070e+01
  -4.256003e+01  -3.646270e+01
   6.035964e+01  -3.651123e+01
   1.549461e+02  -6.785654e+00
   1.410573e+02   5.009294e+01
   1.963557e+01   9.039134e+01
  -1.194404e+02   7.828164e+01
  -1.482570e+02   1.552206e+01
  -5.151465e+01  -4.113667e+01
   6.096067e+01  -3.845200e+01
   7.789970e+01   1.931597e+01
   7.010755e+00   6.980378e+01
  -5.958073e+01   5.928976e+01
  -6.402641e+01  -2.752675e+00
  -4.284697e+01  -5.262418e+01
  -4.289248e+01  -4.412267e+01
  -6.246499e+01  -2.961845e+00
  -6.781532e+01  -2.494117e-01
  -3.522217e+01  -6.779638e+01
   3.210003e+01  -1.485843e+02
   1.156427e+02  -1.465419e+02
   1.636502e+02  -3.528179e+01
   1.253519e+02   9.235731e+01
   9.015562e+00   1.279531e+02
  -8.509825e+01   5.931200e+01
  -6.078832e+01  -1.824923e+01
   6.072650e+01  -2.143595e+01
   1.412084e+02   4.625121e+01
   7.874272e+01   1.127429e+02
  -8.344750e+01   1.176417e+02
  -1.972868e+02   5.241737e+01
  -1.673286e+02  -3.610022e+01
  -3.877358e+01  -8.980558e+01
   6.071494e+01  -7.376925e+01
   4.878704e+01  -9.183166e+00
  -3.937215e+01   2.689712e+01
  -9.195378e+01  -2.377354e+01
  -3.247349e+01  -1.231006e+02
   9.670348e+01  -1.608586e+02
   1.735989e+02  -6.455178e+01
   1.306086e+02   1.051189e+02
   9.348926e+00   2.048791e+02
  -8.803618e+01   1.496232e+02
  -1.079052e+02  -5.940973e+00
  -6.649210e+01  -1.202679e+02
  -1.348237e+00  -1.113716e+02
   4.639326e+01  -2.361408e+01
   5.558980e+01   3.018725e+01
   2.863322e+01   8.505608e+00
   3.800156e+00  -2.197485e+01
   2.175094e+01   1.331708e+01
   6.047968e+01   8.993221e+01
   4.505487e+01   1.135117e+02
  -4.699256e+01   4.950485e+01
  -1.420782e+02  -3.794170e+01
  -1.348238e+02  -7.199080e+01
  -1.777755e+01  -5.198027e+01
   9.075742e+01  -2.236281e+01
   8.809081e+01  -6.495131e+00
   8.091314e+00   7.317199e+00
  -3.930778e+01   2.149151e+01
  -1.221949e+01   1.781559e+01
   2.204692e+01  -1.234428e+00
  -6.181343e+00  -9.133285e+00
  -7.574936e+01  -3.455816e+00
  -9.253984e+01  -2.460032e+01
  -6.822315e+00  -8.274843e+01
   1.203389e+02  -1.152571e+02
   1.874327e+02  -5.681226e+01
   1.416046e+02   7.107993e+01
   2.437555e+01   1.656654e+02
  -8.103181e+01   1.498485e+02
  -1.149264e+02   5.572773e+01
  -8.082775e+01  -2.322156e+01
  -2.445791e+01  -3.521062e+01
   3.612164e+00  -8.521905e+00
  -9.599663e+00  -2.180658e+00
  -3.336768e+01  -4.443509e+01
  -2.461239e+01  -8.971870e+01
   2.896304e+01  -7.341658e+01
   8.293168e+01   1.795192e+01
   7.786074e+01   1.101204e+02
   2.013636e+00   1.144541e+02
  -8.622507e+01   2.278433e+01
  -1.044480e+02  -7.947373e+01
  -2.949936e+01  -1.058308e+02
   6.922045e+01  -5.421557e+01
   9.810641e+01   1.410609e+01
   3.824221e+01   5.013416e+01
  -3.280434e+01   4.944283e+01
  -3.048942e+01   2.689933e+01
   3.559569e+01  -1.280332e-02
   7.043914e+01  -5.921964e+00
   1.622074e+01   2.557898e+01
  -7.726328e+01   6.808132e+01
  -1.128981e+02   6.096093e+01
  -6.255991e+01  -9.990992e+00
   1.406001e+01  -8.235124e+01
   5.083339e+01  -7.901046e+01
   3.552547e+01  -3.379317e+00
   8.799184e-01   5.662346e+01
  -2.659667e+01   4.109841e+01
  -3.659412e+01  -2.104092e+01
  -2.520840e+01  -5.524147e+01
   4.429016e+00  -3.117033e+01
   3.389230e+01   9.848870e+00
   3.969205e+01   2.156828e+01
   2.021657e+01   1.245678e+00
   1.892659e-01  -1.274240e+01
  -6.418417e+00   6.362526e+00
  -8.669568e+00   3.871455e+01
  -2.035527e+01   4.465838e+01
  -3.465573e+01   3.150152e+00
  -2.706063e+01  -4.899236e+01
   5.186573e+00  -6.124657e+01
   4.609265e+01  -1.829130e+01
   5.528952e+01   4.139037e+01
   1.299313e+01   6.333455e+01
  -5.521925e+01   3.419118e+01
  -8.953748e+01  -1.638937e+01
  -4.826277e+01  -4.451133e+01
   2.981055e+01  -4.046228e+01
   6.539034e+01  -2.066155e+01
   2.303411e+01  -3.900176e+00
  -4.048253e+01  -2.248229e+00
  -3.883616e+01  -1.841858e+01
   3.350360e+01  -3.453245e+01
   9.575686e+01  -1.959389e+01
