
 $NMID
 id='ANONYMOUS ', fmtdat='(2E16.6)'
 volume=1.0
 tramp=1.0
 $END
   3.897209e+03  -2.178945e+02
   2.417035e+03   2.139106e+03
  -3.401966e+02   2.513018e+03
  -1.757298e+03   1.149336e+03
  -1.073654e+03  -2.262241e+02
   2.538676e+02  -5.081525e+02
   6.716178e+02   1.808218e+02
   1.047704e+02   8.333326e+02
  -6.390506e+02   7.672085e+02
  -8.633011e+02   5.073731e+01
  -4.880443e+02  -7.379642e+02
   9.992274e+01  -8.290446e+02
   4.977827e+02  -1.777196e+02
   3.662069e+02   5.804586e+02
  -1.863024e+02   6.847617e+02
  -5.197813e+02   5.523191e+01
  -3.267087e+02  -6.125943e+02
   2.249775e+02  -6.734147e+02
   5.627407e+02  -1.971796e+02
   4.521355e+02   2.705472e+02
   7.806870e+01   4.223633e+02
  -1.960268e+02   2.611160e+02
  -1.501427e+02   4.786161e+01
   1.423279e+02  -6.030248e+00
   3.434825e+02   1.665224e+02
   1.096460e+02   3.818863e+02
  -4.461841e+02   3.059519e+02
  -7.213870e+02  -9.677237e+01
  -3.550589e+02  -4.498896e+02
   3.413175e+02  -3.794625e+02
   6.375280e+02   4.792048e+01
   2.977703e+02   4.191916e+02
  -2.502830e+02   4.627094e+02
  -5.167437e+02   1.884001e+02
  -3.916520e+02  -1.882501e+02
  -9.632244e+01  -4.005448e+02
   1.205866e+02  -2.439663e+02
   9.684699e+01   1.496759e+02
  -1.561704e+02   2.855921e+02
  -3.431179e+02  -4.907684e+01
  -1.822783e+02  -5.836865e+02
   2.518358e+02  -5.992243e+02
   4.874810e+02  -4.131501e+01
   2.286518e+02   4.314075e+02
  -2.139725e+02   2.629823e+02
  -3.088373e+02  -2.778607e+02
   7.157869e+01  -4.817111e+02
   5.054662e+02  -1.222318e+02
   5.601793e+02   3.868006e+02
   1.740596e+02   5.650917e+02
  -3.427691e+02   3.358390e+02
  -5.919916e+02  -5.266074e+01
  -3.793304e+02  -3.239002e+02
   8.298246e+01  -3.148437e+02
   3.711588e+02  -9.009927e+01
   2.524710e+02   1.099049e+02
  -4.561141e+01   8.413018e+01
  -1.151209e+02  -8.433256e+01
   1.107152e+02  -1.322892e+02
   2.884328e+02   4.439626e+01
   1.480656e+02   2.448516e+02
  -1.833701e+02   2.723789e+02
  -3.550774e+02   1.181052e+02
  -2.488169e+02  -9.819035e+01
   1.507480e+01  -2.922241e+02
   2.712796e+02  -3.544343e+02
   3.665586e+02  -1.853722e+02
   2.734258e+02   1.532447e+02
   7.012636e+01   3.939261e+02
  -6.898207e+01   3.490242e+02
  -7.397023e+01   1.473043e+02
  -3.635617e+01   4.819276e+01
  -8.825340e+01   9.937680e+01
  -2.143775e+02   9.371867e+01
  -2.592585e+02  -7.777379e+01
  -1.347492e+02  -2.630633e+02
   7.800826e+01  -2.314722e+02
   2.116678e+02   4.447261e+00
   1.716574e+02   2.387800e+02
  -2.199694e+01   2.753530e+02
  -2.561746e+02   1.008938e+02
  -3.392312e+02  -1.616520e+02
  -1.863181e+02  -3.247939e+02
   7.131933e+01  -2.932311e+02
   2.028424e+02  -1.462384e+02
   1.592302e+02  -4.432513e+01
   1.257033e+02  -4.759259e+01
   2.456547e+02  -5.301576e+01
   3.932979e+02   6.617220e+01
   3.310960e+02   2.822218e+02
   3.022148e+00   4.368175e+02
  -3.584933e+02   4.192675e+02
  -4.804118e+02   1.966988e+02
  -3.170125e+02  -9.575886e+01
  -4.425337e+01  -2.733060e+02
   1.054546e+02  -2.289320e+02
   4.950859e+01  -3.180129e+01
  -1.050783e+02   8.041586e+01
  -1.630761e+02  -1.187796e+01
  -3.931433e+01  -1.664594e+02
   1.293491e+02  -1.490984e+02
   1.490947e+02   4.506949e+01
  -1.318302e+01   1.597205e+02
  -1.764938e+02   2.289007e+01
  -1.646193e+02  -2.402478e+02
   2.258889e+01  -3.517514e+02
   2.419424e+02  -2.039208e+02
   3.495043e+02   6.479106e+01
   2.788641e+02   2.589003e+02
   7.307196e+01   2.732282e+02
  -1.236261e+02   1.492396e+02
  -1.643608e+02   1.185333e+01
  -4.660508e+01  -2.542056e+01
   6.136627e+01   4.935446e+01
   1.691484e+01   1.191966e+02
  -1.219967e+02   8.591642e+01
  -1.631151e+02  -1.540958e+01
  -4.628724e+01  -6.391067e+01
   8.115720e+01  -3.730417e+00
   4.931717e+01   8.395879e+01
  -1.354632e+02   9.366002e+01
  -2.931813e+02  -3.266519e+00
  -2.644613e+02  -1.529604e+02
  -5.035128e+01  -2.638617e+02
   1.908966e+02  -2.558441e+02
   2.733660e+02  -1.181911e+02
   1.567799e+02   4.956098e+01
  -2.332648e+01   9.647872e+01
  -7.750262e+01   1.690280e+00
   3.982616e+01  -9.549974e+01
   1.879032e+02  -5.252607e+01
   2.044873e+02   1.031894e+02
   6.752385e+01   2.031579e+02
  -8.938278e+01   1.520285e+02
  -1.360658e+02   2.425543e+01
  -5.896518e+01  -4.249267e+01
   3.629020e+01   9.308242e+00
   3.425527e+01   9.910861e+01
  -8.247479e+01   1.198367e+02
  -2.025372e+02   2.733827e+01
  -1.903355e+02  -1.251824e+02
  -2.220255e+01  -2.156448e+02
   1.577626e+02  -1.642243e+02
   1.885491e+02  -1.261722e+01
   6.546505e+01   1.074709e+02
  -6.439549e+01   1.084711e+02
  -8.014975e+01   2.818472e+01
  -1.026856e+01  -2.767789e+01
   3.199445e+01  -1.380899e+01
  -7.977660e+00   1.991958e+01
  -8.179793e+01  -1.719768e-01
  -1.003505e+02  -8.690780e+01
  -1.610295e+01  -1.697281e+02
   1.342440e+02  -1.561687e+02
   2.388529e+02  -1.922588e+01
   2.007611e+02   1.551638e+02
   4.277365e+01   2.358450e+02
  -1.052115e+02   1.682832e+02
  -1.370830e+02   3.048921e+01
  -7.695827e+01  -5.007260e+01
  -3.216515e+01  -3.481542e+01
  -5.326851e+01   1.348926e+01
  -8.402709e+01   6.998894e+00
  -5.065332e+01  -5.559432e+01
   4.219337e+01  -1.011223e+02
   1.166009e+02  -6.415680e+01
   9.904879e+01   4.197307e+01
  -1.641697e+01   1.235216e+02
  -1.556981e+02   9.128406e+01
  -2.070752e+02  -5.725087e+01
  -9.655133e+01  -2.114910e+02
   1.140375e+02  -2.312901e+02
   2.665351e+02  -9.276986e+01
   2.520415e+02   8.639037e+01
   1.060911e+02   1.732192e+02
  -3.951387e+01   1.425922e+02
  -9.252925e+01   8.005864e+01
  -7.270007e+01   6.891010e+01
  -5.910206e+01   9.471569e+01
  -9.068795e+01   8.193505e+01
  -1.328982e+02  -1.652750e+01
  -1.243419e+02  -1.528298e+02
  -3.398793e+01  -2.311734e+02
   9.827467e+01  -1.750187e+02
   1.738890e+02  -1.904266e+01
   1.340529e+02   1.224699e+02
   1.697730e+01   1.568630e+02
  -6.934783e+01   8.536483e+01
  -6.132936e+01  -8.495383e+00
  -2.614335e-01  -4.919794e+01
   1.931941e+01  -3.416007e+01
  -3.061075e+01  -1.327418e+01
  -8.234928e+01  -1.826517e+01
  -4.778890e+01  -4.021918e+01
   6.756007e+01  -4.299539e+01
   1.644828e+02  -5.043490e+00
   1.465613e+02   5.865084e+01
   1.049340e+01   9.601503e+01
  -1.253118e+02   7.672081e+01
  -1.446826e+02   7.874054e+00
  -4.699403e+01  -4.989755e+01
   6.122142e+01  -4.245579e+01
   7.923899e+01   1.950163e+01
   1.653274e+01   7.395513e+01
  -5.030642e+01   6.471538e+01
  -6.984420e+01   1.134404e+00
  -5.598510e+01  -4.953512e+01
  -4.714848e+01  -4.529316e+01
  -5.592677e+01  -4.740819e+00
  -6.342142e+01  -1.683581e+00
  -4.152420e+01  -6.965679e+01
   2.771683e+01  -1.493406e+02
   1.196432e+02  -1.445819e+02
   1.746032e+02  -3.410351e+01
   1.295782e+02   9.294209e+01
   6.514207e+00   1.324085e+02
  -9.065893e+01   6.553670e+01
  -6.158287e+01  -1.319306e+01
   5.582172e+01  -1.970037e+01
   1.334720e+02   4.373557e+01
   7.304579e+01   1.075057e+02
  -8.122966e+01   1.116351e+02
  -1.910236e+02   4.744537e+01
  -1.602519e+02  -3.790233e+01
  -3.459135e+01  -8.738447e+01
   6.155039e+01  -6.718285e+01
   4.968933e+01  -3.665175e+00
  -4.045844e+01   2.986217e+01
  -9.362763e+01  -2.032432e+01
  -3.835405e+01  -1.180434e+02
   8.313655e+01  -1.574199e+02
   1.632173e+02  -6.962404e+01
   1.303546e+02   9.438788e+01
   1.800729e+01   1.943912e+02
  -8.078122e+01   1.398150e+02
  -1.044070e+02  -9.515767e+00
  -5.734478e+01  -1.176923e+02
   7.383414e+00  -1.027766e+02
   4.996450e+01  -1.833774e+01
   4.766056e+01   3.021764e+01
   2.090673e+01   7.912298e+00
   6.381351e+00  -1.758436e+01
   2.829900e+01   1.873132e+01
   5.920199e+01   8.835074e+01
   3.579484e+01   1.077367e+02
  -5.340130e+01   4.556119e+01
  -1.351072e+02  -3.519920e+01
  -1.237518e+02  -6.767047e+01
  -1.788081e+01  -5.309930e+01
   8.016896e+01  -2.729911e+01
   8.589739e+01  -7.338312e+00
   1.631020e+01   9.060551e+00
  -3.532729e+01   2.146757e+01
  -1.840053e+01   1.475074e+01
   1.710881e+01  -2.301899e+00
  -3.051194e+00  -5.528079e+00
  -6.850941e+01   1.055566e+00
  -9.304285e+01  -2.107937e+01
  -1.757698e+01  -8.205253e+01
   1.104586e+02  -1.181024e+02
   1.884286e+02  -6.586787e+01
   1.494240e+02   6.042309e+01
   3.242505e+01   1.596317e+02
  -7.603912e+01   1.555641e+02
  -1.137998e+02   6.666720e+01
  -8.061278e+01  -1.893549e+01
  -2.757959e+01  -3.840906e+01
  -1.183947e+00  -1.208330e+01
  -1.187467e+01  -5.201689e+00
  -3.246048e+01  -4.529039e+01
  -2.269659e+01  -9.054082e+01
   2.769690e+01  -7.395052e+01
   8.120992e+01   1.378229e+01
   8.265429e+01   1.040286e+02
   1.208596e+01   1.123767e+02
  -7.870812e+01   3.033144e+01
  -1.077929e+02  -6.738537e+01
  -3.832223e+01  -1.032255e+02
   6.513015e+01  -6.271712e+01
   1.019143e+02   7.606471e+00
   4.305455e+01   5.534516e+01
  -3.347475e+01   5.773618e+01
  -3.698657e+01   2.745418e+01
   2.917753e+01  -5.889610e+00
   6.961295e+01  -8.701813e+00
   1.866816e+01   2.749964e+01
  -7.518683e+01   6.746196e+01
  -1.165363e+02   5.548588e+01
  -6.894896e+01  -1.654854e+01
   1.226586e+01  -8.459985e+01
   5.492412e+01  -7.997661e+01
   4.207161e+01  -7.744254e+00
   5.880927e+00   5.498070e+01
  -2.530973e+01   4.693412e+01
  -3.886342e+01  -1.283837e+01
  -2.798090e+01  -5.406865e+01
   3.652386e+00  -3.694931e+01
   3.395408e+01   6.676610e+00
   3.991037e+01   2.432453e+01
   1.906187e+01   3.237150e+00
  -2.772598e+00  -1.873527e+01
  -4.162233e+00  -4.163413e+00
   2.209423e+00   3.464607e+01
  -5.929378e+00   5.154715e+01
  -3.020172e+01   1.776023e+01
  -3.867377e+01  -3.848277e+01
  -8.870385e+00  -6.019903e+01
   4.190375e+01  -2.538817e+01
   6.248061e+01   3.347043e+01
   2.034782e+01   6.172323e+01
  -5.474171e+01   3.799985e+01
  -9.174616e+01  -1.141690e+01
  -5.019870e+01  -4.432991e+01
   2.939788e+01  -4.529773e+01
   6.558638e+01  -2.567921e+01
   2.653150e+01  -3.754763e+00
  -3.305349e+01   3.544279e+00
  -3.724620e+01  -9.696908e+00
   2.418595e+01  -3.075962e+01
   8.344354e+01  -2.419136e+01
