
 $NMID
 id='ANONYMOUS ', fmtdat='(2E16.6)'
 volume=1.0
 tramp=1.0
 $END
  -3.515703e+03  -1.420842e+02
  -2.151816e+03  -2.018444e+03
   3.113764e+02  -2.205340e+03
   1.501669e+03  -1.059616e+03
   8.723279e+02   1.343864e+02
  -2.658568e+02   2.905376e+02
  -5.371261e+02  -2.700626e+02
   2.599337e+01  -7.352090e+02
   6.132421e+02  -5.865965e+02
   7.044322e+02   2.969184e+01
   3.754282e+02   5.927278e+02
  -1.103818e+02   6.898980e+02
  -4.071379e+02   1.222343e+02
  -2.549983e+02  -5.284493e+02
   1.972681e+02  -5.807388e+02
   4.924032e+02  -2.032536e+01
   2.505120e+02   5.585728e+02
  -2.015292e+02   5.901767e+02
  -4.868379e+02   1.770916e+02
  -3.878974e+02  -2.425050e+02
  -7.479787e+01  -3.566182e+02
   1.566477e+02  -2.178536e+02
   9.475112e+01  -2.968443e+01
  -1.777384e+02  -3.247043e+01
  -3.365557e+02  -2.415906e+02
  -4.635007e+01  -4.052553e+02
   4.916640e+02  -2.440612e+02
   7.009535e+02   1.783385e+02
   2.623750e+02   4.539138e+02
  -3.816681e+02   2.924149e+02
  -5.944430e+02  -1.306531e+02
  -2.188314e+02  -4.272941e+02
   2.968250e+02  -3.999563e+02
   5.018705e+02  -1.289835e+02
   3.341783e+02   2.100713e+02
   4.975049e+01   3.697283e+02
  -1.039231e+02   1.921801e+02
  -1.631635e+01  -1.611424e+02
   1.956828e+02  -2.746922e+02
   2.951364e+02   1.414473e+02
   5.633072e+01   5.767979e+02
  -3.092376e+02   5.038822e+02
  -4.108702e+02  -5.437812e+01
  -1.237948e+02  -4.095963e+02
   2.245701e+02  -1.720611e+02
   2.300089e+02   3.145921e+02
  -1.295771e+02   4.365929e+02
  -4.880959e+02   5.748015e+01
  -4.995366e+02  -4.020115e+02
  -1.316394e+02  -5.170696e+02
   3.379267e+02  -2.750957e+02
   5.440587e+02   8.420149e+01
   3.341269e+02   2.984761e+02
  -9.654239e+01   2.575453e+02
  -3.279085e+02   5.380914e+01
  -1.964543e+02  -9.095749e+01
   5.102465e+01  -3.093852e+01
   6.552187e+01   1.010018e+02
  -1.402738e+02   9.569220e+01
  -2.678637e+02  -7.861282e+01
  -1.147855e+02  -2.347879e+02
   1.647115e+02  -2.300562e+02
   3.339258e+02  -1.027375e+02
   2.410417e+02   9.217560e+01
  -2.699564e+01   2.847028e+02
  -2.756686e+02   3.437933e+02
  -3.586737e+02   1.664132e+02
  -2.396058e+02  -1.686134e+02
  -3.290593e+01  -3.840894e+02
   7.771664e+01  -3.153749e+02
   5.271504e+01  -1.274462e+02
   1.512178e+01  -6.104372e+01
   9.891276e+01  -1.170116e+02
   2.369760e+02  -8.598059e+01
   2.571985e+02   1.060542e+02
   1.070305e+02   2.664035e+02
  -9.535755e+01   2.122939e+02
  -2.049270e+02  -3.072117e+01
  -1.481141e+02  -2.443113e+02
   4.482281e+01  -2.625303e+02
   2.558605e+02  -7.220212e+01
   3.186145e+02   1.800583e+02
   1.608299e+02   3.221378e+02
  -7.928853e+01   2.703327e+02
  -1.829408e+02   1.282199e+02
  -1.366822e+02   5.056717e+01
  -1.266227e+02   6.436049e+01
  -2.703153e+02   5.684277e+01
  -4.099864e+02  -8.564439e+01
  -3.178418e+02  -3.046935e+02
   2.604048e+01  -4.493241e+02
   3.828680e+02  -3.921060e+02
   4.830114e+02  -1.631086e+02
   2.975010e+02   1.119159e+02
   1.700214e+01   2.637496e+02
  -1.124217e+02   2.003896e+02
  -2.900291e+01   2.074921e+01
   1.279092e+02  -5.743382e+01
   1.519826e+02   4.355221e+01
   1.030414e+01   1.656445e+02
  -1.410741e+02   1.174217e+02
  -1.296688e+02  -6.438693e+01
   3.336508e+01  -1.531023e+02
   1.745803e+02  -3.137360e+00
   1.439750e+02   2.420880e+02
  -3.533161e+01   3.370449e+02
  -2.391629e+02   1.945454e+02
  -3.386813e+02  -6.978468e+01
  -2.654988e+02  -2.582909e+02
  -5.943118e+01  -2.685841e+02
   1.286604e+02  -1.392054e+02
   1.554475e+02  -2.081481e+00
   3.510017e+01   2.165202e+01
  -6.080297e+01  -5.472859e+01
  -1.155298e+00  -1.195962e+02
   1.278675e+02  -7.308999e+01
   1.544785e+02   3.033979e+01
   3.368239e+01   6.403717e+01
  -8.584365e+01  -4.725401e+00
  -4.350692e+01  -9.310925e+01
   1.407038e+02  -9.261452e+01
   2.966541e+02   1.230818e+01
   2.579311e+02   1.641365e+02
   3.252404e+01   2.654287e+02
  -2.045019e+02   2.372011e+02
  -2.735035e+02   9.271971e+01
  -1.394420e+02  -5.633632e+01
   3.565045e+01  -8.686283e+01
   7.374607e+01   7.981721e+00
  -5.298918e+01   8.774449e+01
  -1.912318e+02   3.196258e+01
  -1.889839e+02  -1.131332e+02
  -4.837438e+01  -1.936891e+02
   9.738240e+01  -1.360930e+02
   1.303493e+02  -1.225415e+01
   4.979339e+01   4.443188e+01
  -4.073469e+01  -9.869345e+00
  -3.230700e+01  -1.020367e+02
   9.025840e+01  -1.191382e+02
   2.086836e+02  -1.653039e+01
   1.822766e+02   1.360506e+02
   7.341577e+00   2.126078e+02
  -1.630089e+02   1.476594e+02
  -1.785443e+02   1.747012e+00
  -5.520272e+01  -1.024864e+02
   6.456337e+01  -9.637915e+01
   7.455730e+01  -2.409916e+01
   7.889526e+00   2.524087e+01
  -3.226208e+01   1.178483e+01
   8.762837e+00  -2.052421e+01
   8.217527e+01  -1.255862e-01
   1.009753e+02   8.725459e+01
   1.441062e+01   1.683745e+02
  -1.376113e+02   1.536843e+02
  -2.387062e+02   1.623920e+01
  -1.956670e+02  -1.546172e+02
  -3.571369e+01  -2.312224e+02
   1.065531e+02  -1.599338e+02
   1.293988e+02  -2.608666e+01
   7.026302e+01   4.845073e+01
   2.986748e+01   3.059754e+01
   5.132538e+01  -1.457160e+01
   8.181130e+01  -9.055544e+00
   5.232520e+01   5.291940e+01
  -3.843974e+01   9.929772e+01
  -1.130112e+02   6.533315e+01
  -9.831786e+01  -4.023736e+01
   1.588170e+01  -1.230738e+02
   1.561711e+02  -8.787080e+01
   1.999585e+02   6.438728e+01
   8.477902e+01   2.114797e+02
  -1.240439e+02   2.193980e+02
  -2.672418e+02   7.964631e+01
  -2.425225e+02  -9.464409e+01
  -9.236980e+01  -1.723386e+02
   4.505683e+01  -1.365083e+02
   9.165014e+01  -7.763866e+01
   7.072945e+01  -6.571802e+01
   5.805032e+01  -8.967063e+01
   8.837327e+01  -7.529164e+01
   1.298074e+02   2.106195e+01
   1.180212e+02   1.554735e+02
   2.369675e+01   2.232768e+02
  -1.031020e+02   1.634226e+02
  -1.725331e+02   1.088942e+01
  -1.280891e+02  -1.258417e+02
  -9.812905e+00  -1.552094e+02
   7.574868e+01  -8.087021e+01
   6.060698e+01   1.345801e+01
  -2.467887e+00   5.076847e+01
  -2.110170e+01   3.353156e+01
   3.032466e+01   1.342324e+01
   7.827158e+01   1.701989e+01
   4.460905e+01   3.781533e+01
  -6.936248e+01   3.873251e+01
  -1.656489e+02   7.190539e-02
  -1.375130e+02  -6.006772e+01
  -3.403512e+00  -9.579260e+01
   1.301424e+02  -7.479193e+01
   1.463214e+02  -6.978524e+00
   4.675824e+01   5.018264e+01
  -5.858710e+01   4.261789e+01
  -7.568708e+01  -1.904124e+01
  -1.419271e+01  -7.147583e+01
   4.844734e+01  -6.092946e+01
   6.473852e+01   2.585827e-01
   5.064683e+01   5.032533e+01
   4.654684e+01   3.867143e+01
   5.704971e+01   1.266954e+00
   6.330313e+01   2.469789e+00
   3.934761e+01   7.065992e+01
  -2.932364e+01   1.452935e+02
  -1.202782e+02   1.381651e+02
  -1.709801e+02   2.993399e+01
  -1.255250e+02  -9.433447e+01
  -2.424110e+00  -1.293800e+02
   8.946608e+01  -6.431811e+01
   6.089024e+01   1.384899e+01
  -5.654223e+01   1.996487e+01
  -1.309034e+02  -4.446673e+01
  -6.778940e+01  -1.074873e+02
   8.401499e+01  -1.062881e+02
   1.873318e+02  -4.060485e+01
   1.552150e+02   4.187327e+01
   3.084277e+01   8.542912e+01
  -6.325554e+01   6.259951e+01
  -4.806568e+01   1.763966e+00
   3.764125e+01  -2.832959e+01
   8.922368e+01   1.991465e+01
   3.582582e+01   1.142953e+02
  -8.316358e+01   1.509163e+02
  -1.587045e+02   6.517378e+01
  -1.235596e+02  -9.442080e+01
  -9.834775e+00  -1.911991e+02
   8.611184e+01  -1.382017e+02
   1.040020e+02   1.289974e+01
   5.533228e+01   1.204092e+02
  -1.225845e+01   1.039363e+02
  -5.045293e+01   1.582517e+01
  -4.674554e+01  -3.331029e+01
  -1.821843e+01  -9.366332e+00
  -4.897030e+00   1.897110e+01
  -2.825101e+01  -1.679248e+01
  -5.709476e+01  -8.663384e+01
  -3.268808e+01  -1.061601e+02
   5.603794e+01  -4.400317e+01
   1.350772e+02   3.961492e+01
   1.202838e+02   7.266240e+01
   1.484844e+01   5.218797e+01
  -8.165948e+01   2.209895e+01
  -8.543573e+01   4.420326e+00
  -1.489976e+01  -1.018930e+01
   3.497128e+01  -2.049092e+01
   1.715968e+01  -1.340704e+01
  -1.712378e+01   2.536687e+00
   2.656635e+00   5.194474e+00
   6.628382e+01  -1.528644e+00
   9.037586e+01   2.170195e+01
   1.715450e+01   7.861387e+01
  -1.087836e+02   1.137197e+02
  -1.818414e+02   6.123034e+01
  -1.443263e+02  -5.993877e+01
  -2.782697e+01  -1.563044e+02
   7.774719e+01  -1.499511e+02
   1.144563e+02  -6.228237e+01
   7.907340e+01   2.042532e+01
   2.583181e+01   3.745413e+01
   6.750179e-01   1.234651e+01
   1.286025e+01   6.460965e+00
   2.923480e+01   4.716504e+01
   1.714409e+01   8.996976e+01
  -3.014543e+01   7.055287e+01
  -7.774168e+01  -1.608095e+01
  -7.587917e+01  -1.005921e+02
  -9.525830e+00  -1.063053e+02
   7.518915e+01  -2.694751e+01
   1.003718e+02   6.728356e+01
   3.484651e+01   1.006213e+02
  -6.432944e+01   5.934418e+01
  -9.999178e+01  -9.010271e+00
  -4.327576e+01  -5.410229e+01
   3.209518e+01  -5.703541e+01
   3.636230e+01  -2.793572e+01
  -2.737672e+01   3.751648e+00
  -6.634675e+01   6.909644e+00
  -1.698148e+01  -2.696304e+01
   7.594641e+01  -6.338577e+01
   1.140054e+02  -5.037103e+01
   6.617869e+01   1.613318e+01
  -1.353727e+01   8.194309e+01
  -5.464049e+01   7.936062e+01
  -4.084045e+01   1.015710e+01
  -5.226321e+00  -5.180971e+01
   2.260920e+01  -4.418296e+01
   3.356757e+01   1.264012e+01
   2.520042e+01   5.181984e+01
  -7.001725e-01   3.597574e+01
  -3.130566e+01  -6.387001e+00
  -3.953716e+01  -2.386965e+01
  -2.096141e+01  -3.801706e+00
   2.139178e+00   1.751646e+01
   6.902302e+00   4.916781e+00
   6.058066e-01  -3.219680e+01
   5.776449e+00  -4.914318e+01
   2.615583e+01  -1.699285e+01
   3.437619e+01   3.613976e+01
   7.527490e+00   5.752373e+01
  -4.024517e+01   2.250976e+01
  -5.857339e+01  -3.455479e+01
  -1.734637e+01  -6.008555e+01
   5.564419e+01  -3.502187e+01
   8.990853e+01   1.204035e+01
   4.876674e+01   4.228387e+01
  -2.751872e+01   4.261568e+01
  -6.264621e+01   2.519868e+01
  -2.680041e+01   6.589557e+00
   2.876767e+01  -1.354067e+00
   3.150575e+01   8.367887e+00
  -2.548054e+01   2.621147e+01
  -8.026086e+01   1.778050e+01
