
 $NMID
 id='ANONYMOUS ', fmtdat='(2E16.6)'
 volume=1.0
 tramp=1.0
 $END
   4.680136e+03  -1.467731e+02
   2.812994e+03   2.767662e+03
  -7.439053e+02   3.011029e+03
  -2.389703e+03   9.899229e+02
  -1.093931e+03  -8.186553e+02
   7.641216e+02  -7.602214e+02
   1.066123e+03   4.649628e+02
   5.047439e+01   1.248987e+03
  -9.333040e+02   9.205480e+02
  -1.079640e+03  -9.866467e+01
  -5.056908e+02  -1.007630e+03
   2.914801e+02  -9.982179e+02
   7.419625e+02  -1.197267e+02
   4.570478e+02   8.049707e+02
  -2.944661e+02   8.427068e+02
  -6.518394e+02  -1.041445e+01
  -2.929518e+02  -7.531116e+02
   3.711091e+02  -6.853138e+02
   6.411321e+02  -7.507642e+01
   4.176236e+02   3.904585e+02
   1.222287e+01   4.731962e+02
  -2.769732e+02   2.923084e+02
  -2.620791e+02   1.993340e+01
   9.083025e+01  -1.326086e+02
   4.429945e+02   5.669029e+01
   2.631306e+02   4.396582e+02
  -4.454812e+02   4.896337e+02
  -9.135659e+02  -7.764081e+00
  -5.077529e+02  -5.737516e+02
   3.796778e+02  -5.656951e+02
   7.965039e+02  -1.669172e+01
   4.031321e+02   5.014463e+02
  -2.632205e+02   5.812239e+02
  -5.991506e+02   2.398645e+02
  -4.661172e+02  -2.379167e+02
  -9.138939e+01  -5.261442e+02
   2.393159e+02  -3.319183e+02
   2.372811e+02   2.377284e+02
  -1.496616e+02   4.845930e+02
  -5.198704e+02   3.597140e+01
  -3.348171e+02  -7.265835e+02
   3.213249e+02  -7.961664e+02
   6.840994e+02  -3.853891e+01
   3.167085e+02   6.116691e+02
  -3.250356e+02   3.947273e+02
  -4.659270e+02  -3.184178e+02
   3.614932e+01  -6.007906e+02
   5.820937e+02  -1.864445e+02
   6.369365e+02   3.986109e+02
   1.831021e+02   6.193654e+02
  -4.023606e+02   3.833293e+02
  -6.778532e+02  -6.492984e+01
  -4.042254e+02  -4.203904e+02
   1.679259e+02  -4.185585e+02
   4.974964e+02  -7.057855e+01
   2.683177e+02   2.313801e+02
  -1.459404e+02   1.421788e+02
  -1.862918e+02  -1.689485e+02
   1.689228e+02  -2.288541e+02
   3.828689e+02   5.940227e+01
   1.586304e+02   3.249323e+02
  -2.248079e+02   2.817147e+02
  -3.372830e+02   7.320969e+01
  -1.881815e+02  -8.373604e+01
   2.376565e+01  -2.079153e+02
   1.983252e+02  -3.242075e+02
   3.301688e+02  -2.452156e+02
   3.184743e+02   1.228238e+02
   9.988658e+01   4.564104e+02
  -1.264349e+02   4.194012e+02
  -1.540641e+02   1.087734e+02
  -3.264253e+01  -4.680270e+01
  -1.539620e+01   7.141454e+01
  -1.699398e+02   1.492979e+02
  -2.854187e+02  -2.043432e+01
  -1.881081e+02  -2.623728e+02
   4.899085e+01  -2.779233e+02
   2.336444e+02  -3.902206e+01
   2.240527e+02   2.303672e+02
   1.535488e+01   3.072771e+02
  -2.654268e+02   1.414079e+02
  -3.833404e+02  -1.517621e+02
  -2.109844e+02  -3.603940e+02
   1.050110e+02  -3.285720e+02
   2.531895e+02  -1.222272e+02
   1.608732e+02   1.284651e+01
   7.989686e+01  -2.041354e+01
   2.069321e+02  -8.123461e+01
   3.935011e+02   3.228796e+01
   3.446981e+02   2.669300e+02
   2.017034e+01   4.308756e+02
  -3.391223e+02   4.225054e+02
  -4.814981e+02   2.224530e+02
  -3.551131e+02  -7.795544e+01
  -8.016982e+01  -3.059300e+02
   1.301487e+02  -2.806236e+02
   1.053657e+02  -3.689642e+01
  -9.671495e+01   1.323901e+02
  -2.150983e+02   1.444729e+01
  -7.355460e+01  -2.077119e+02
   1.658046e+02  -1.977638e+02
   2.026727e+02   5.403674e+01
  -3.824106e+00   2.130812e+02
  -2.054086e+02   4.812757e+01
  -1.772140e+02  -2.508214e+02
   2.675965e+01  -3.575297e+02
   2.303052e+02  -1.940289e+02
   3.221183e+02   6.033312e+01
   2.795421e+02   2.293383e+02
   1.031881e+02   2.572810e+02
  -1.081593e+02   1.697760e+02
  -1.845535e+02   3.080472e+01
  -6.497406e+01  -3.650375e+01
   7.507180e+01   2.905391e+01
   4.360300e+01   1.255709e+02
  -1.194320e+02   1.134310e+02
  -1.880833e+02  -2.570507e+00
  -7.048019e+01  -7.701202e+01
   7.862245e+01  -2.903894e+01
   6.304033e+01   6.492330e+01
  -1.111143e+02   8.833566e+01
  -2.720159e+02   1.376200e+01
  -2.637685e+02  -1.240868e+02
  -7.465932e+01  -2.472336e+02
   1.676649e+02  -2.723898e+02
   2.821004e+02  -1.439570e+02
   1.837885e+02   4.963853e+01
  -1.647208e+01   1.215872e+02
  -9.858541e+01   1.595119e+01
   1.942751e+01  -1.111575e+02
   1.932683e+02  -7.762892e+01
   2.251196e+02   9.356755e+01
   8.370736e+01   2.153342e+02
  -8.944547e+01   1.719248e+02
  -1.486888e+02   4.135429e+01
  -8.120506e+01  -3.973664e+01
   1.853768e+01  -1.013373e+01
   3.929207e+01   7.208704e+01
  -5.980486e+01   1.105716e+02
  -1.898773e+02   4.020977e+01
  -1.979090e+02  -1.116456e+02
  -3.380898e+01  -2.203314e+02
   1.620507e+02  -1.748947e+02
   2.034604e+02  -1.123678e+01
   7.379389e+01   1.191669e+02
  -6.602665e+01   1.181722e+02
  -8.805113e+01   3.456238e+01
  -2.449184e+01  -2.501512e+01
   1.794069e+01  -2.151016e+01
  -8.832107e+00   3.273787e+00
  -6.461277e+01  -1.095066e+01
  -8.466156e+01  -7.679947e+01
  -2.019433e+01  -1.495606e+02
   1.162751e+02  -1.510675e+02
   2.280194e+02  -3.569486e+01
   2.043911e+02   1.400126e+02
   4.771109e+01   2.358652e+02
  -1.073864e+02   1.760124e+02
  -1.387431e+02   2.989689e+01
  -7.132691e+01  -5.801753e+01
  -2.698369e+01  -3.776534e+01
  -5.335222e+01   1.470478e+01
  -7.731695e+01   7.646744e+00
  -3.704183e+01  -4.774053e+01
   4.227109e+01  -8.280622e+01
   9.441538e+01  -5.168913e+01
   7.872203e+01   3.136404e+01
  -1.007268e+01   1.027722e+02
  -1.299366e+02   8.693788e+01
  -1.935763e+02  -3.701931e+01
  -1.115970e+02  -1.887054e+02
   8.993855e+01  -2.298669e+02
   2.582981e+02  -1.081766e+02
   2.580676e+02   7.382330e+01
   1.142287e+02   1.737321e+02
  -3.475173e+01   1.504603e+02
  -9.295133e+01   8.697194e+01
  -8.156282e+01   6.983313e+01
  -6.746107e+01   8.958543e+01
  -9.053905e+01   7.246223e+01
  -1.251907e+02  -2.088363e+01
  -1.176735e+02  -1.510129e+02
  -3.578978e+01  -2.221666e+02
   9.134098e+01  -1.745138e+02
   1.739463e+02  -2.862353e+01
   1.428005e+02   1.143134e+02
   2.884776e+01   1.587751e+02
  -6.169014e+01   9.590580e+01
  -5.695369e+01   7.647292e+00
  -7.422162e+00  -3.650870e+01
   3.837855e+00  -3.070518e+01
  -4.051967e+01  -1.749298e+01
  -7.990131e+01  -2.364740e+01
  -4.447211e+01  -3.727016e+01
   5.943464e+01  -3.702136e+01
   1.501155e+02  -8.849132e+00
   1.419779e+02   4.324794e+01
   2.112814e+01   8.336864e+01
  -1.123877e+02   7.585215e+01
  -1.408636e+02   1.961804e+01
  -5.079708e+01  -3.784160e+01
   5.639095e+01  -3.858958e+01
   7.366608e+01   1.767693e+01
   7.185693e+00   6.829417e+01
  -5.626770e+01   5.837815e+01
  -6.307817e+01  -3.014584e+00
  -4.303284e+01  -4.951380e+01
  -4.162563e+01  -4.153761e+01
  -5.768335e+01  -1.802241e+00
  -6.320590e+01   2.618604e+00
  -3.425991e+01  -6.532988e+01
   2.853431e+01  -1.420063e+02
   1.079804e+02  -1.398002e+02
   1.578583e+02  -3.767997e+01
   1.221991e+02   8.489190e+01
   1.148044e+01   1.219743e+02
  -8.030370e+01   6.046896e+01
  -5.861210e+01  -1.418748e+01
   5.683114e+01  -2.071416e+01
   1.334772e+02   4.009581e+01
   7.619316e+01   1.029389e+02
  -7.523869e+01   1.098933e+02
  -1.832246e+02   5.506444e+01
  -1.612097e+02  -2.936201e+01
  -4.092696e+01  -8.528154e+01
   5.778721e+01  -7.411274e+01
   4.924787e+01  -1.098297e+01
  -3.670884e+01   2.647653e+01
  -8.879752e+01  -2.032326e+01
  -3.273647e+01  -1.156483e+02
   8.920570e+01  -1.525473e+02
   1.669431e+02  -6.261496e+01
   1.282130e+02   9.919869e+01
   1.331502e+01   1.981401e+02
  -8.158226e+01   1.443139e+02
  -1.033749e+02  -3.155586e+00
  -6.347470e+01  -1.143490e+02
  -3.877543e+00  -1.053607e+02
   4.306447e+01  -2.309222e+01
   5.499519e+01   2.839762e+01
   2.908375e+01   9.048781e+00
   2.145828e+00  -1.875114e+01
   1.641657e+01   1.413566e+01
   5.657595e+01   8.437607e+01
   4.756897e+01   1.065374e+02
  -4.452689e+01   4.702647e+01
  -1.402866e+02  -3.497020e+01
  -1.321858e+02  -6.844713e+01
  -1.729564e+01  -4.816661e+01
   8.940515e+01  -2.460063e+01
   8.804989e+01  -1.054141e+01
   8.823733e+00   6.637254e+00
  -3.975159e+01   2.375153e+01
  -1.292354e+01   1.925639e+01
   2.316696e+01  -2.187542e+00
  -6.295772e+00  -7.749476e+00
  -7.686317e+01  -1.306692e+00
  -9.306460e+01  -2.277349e+01
  -1.008710e+01  -8.144315e+01
   1.152398e+02  -1.182103e+02
   1.812834e+02  -6.242054e+01
   1.397574e+02   6.523733e+01
   2.901867e+01   1.607509e+02
  -7.274947e+01   1.489131e+02
  -1.089210e+02   5.795706e+01
  -7.943538e+01  -2.044698e+01
  -2.515952e+01  -3.524427e+01
   4.770813e+00  -8.173701e+00
  -8.976281e+00  -2.646933e+00
  -3.425294e+01  -4.291835e+01
  -2.634091e+01  -8.803356e+01
   2.766802e+01  -7.207032e+01
   8.257586e+01   1.832050e+01
   7.844389e+01   1.079260e+02
   3.260671e+00   1.103867e+02
  -8.324010e+01   2.185548e+01
  -1.017348e+02  -7.484761e+01
  -2.965085e+01  -1.010893e+02
   6.633536e+01  -5.205833e+01
   9.354462e+01   1.288533e+01
   3.520876e+01   4.811681e+01
  -3.180952e+01   4.732083e+01
  -2.766846e+01   2.420613e+01
   3.722152e+01  -2.281680e+00
   6.901869e+01  -6.635376e+00
   1.359532e+01   2.600649e+01
  -7.894461e+01   6.763924e+01
  -1.124964e+02   6.073891e+01
  -6.246234e+01  -1.195736e+01
   1.590532e+01  -8.382303e+01
   5.220275e+01  -7.797223e+01
   3.539740e+01  -3.361852e+00
   1.422812e+00   5.730310e+01
  -2.635752e+01   4.190107e+01
  -3.650531e+01  -2.029793e+01
  -2.489173e+01  -5.345473e+01
   4.683231e+00  -2.931564e+01
   3.223609e+01   1.039829e+01
   3.782696e+01   1.984265e+01
   2.124067e+01  -9.004416e-01
   2.263513e+00  -1.216911e+01
  -6.376353e+00   6.660222e+00
  -1.025828e+01   3.953122e+01
  -2.164159e+01   4.279969e+01
  -3.397221e+01   4.022505e+00
  -2.856483e+01  -4.837257e+01
   5.477991e+00  -6.154688e+01
   4.578944e+01  -1.891065e+01
   5.512919e+01   4.093257e+01
   1.330402e+01   6.285936e+01
  -5.436740e+01   3.288372e+01
  -8.561430e+01  -1.550134e+01
  -4.693550e+01  -4.301936e+01
   2.893909e+01  -3.910958e+01
   6.304563e+01  -1.951657e+01
   2.147558e+01  -3.511092e+00
  -4.016945e+01  -2.698447e+00
  -3.903136e+01  -1.841308e+01
   3.185421e+01  -3.407295e+01
   9.361606e+01  -2.092202e+01
