
 $NMID
 id='ANONYMOUS ', fmtdat='(2E16.6)'
 volume=1.0
 tramp=1.0
 $END
  -4.074150e+03   2.090200e+02
  -2.626480e+03  -2.228376e+03
   3.463690e+02  -2.652553e+03
   1.904461e+03  -1.140474e+03
   1.081021e+03   3.491996e+02
  -3.578549e+02   5.615281e+02
  -7.655221e+02  -2.359894e+02
  -1.031758e+02  -9.131640e+02
   6.789446e+02  -8.132931e+02
   8.829133e+02  -3.233484e+01
   5.305917e+02   7.831358e+02
  -1.259810e+02   8.746397e+02
  -5.503835e+02   2.004195e+02
  -3.941067e+02  -6.156328e+02
   1.923675e+02  -7.274818e+02
   5.470982e+02  -2.557026e+01
   3.140467e+02   6.346235e+02
  -2.636692e+02   6.720487e+02
  -5.763640e+02   1.635381e+02
  -4.363763e+02  -3.111285e+02
  -6.379002e+01  -4.376902e+02
   2.126308e+02  -2.819015e+02
   1.835986e+02  -6.287349e+01
  -1.076289e+02   1.866080e+01
  -3.398260e+02  -1.479033e+02
  -1.408023e+02  -3.728042e+02
   4.335312e+02  -3.193473e+02
   7.585482e+02   9.567498e+01
   3.901236e+02   4.701682e+02
  -3.383356e+02   4.082976e+02
  -6.571597e+02  -2.567102e+01
  -3.171201e+02  -4.182034e+02
   2.451661e+02  -4.704831e+02
   5.162047e+02  -2.015954e+02
   3.966101e+02   1.879418e+02
   9.758285e+01   4.243824e+02
  -1.294661e+02   2.746643e+02
  -1.256816e+02  -1.444940e+02
   1.510257e+02  -3.359775e+02
   3.533705e+02   1.948453e+01
   2.058025e+02   5.970320e+02
  -2.649715e+02   6.348862e+02
  -5.314436e+02   5.522210e+01
  -2.597462e+02  -4.605164e+02
   2.172876e+02  -2.924250e+02
   3.299801e+02   2.688739e+02
  -5.761400e+01   4.837610e+02
  -5.063320e+02   1.332805e+02
  -5.652179e+02  -3.756418e+02
  -1.692136e+02  -5.618698e+02
   3.488311e+02  -3.405135e+02
   6.011186e+02   5.311138e+01
   3.808527e+02   3.465003e+02
  -1.053743e+02   3.415560e+02
  -4.004738e+02   8.253397e+01
  -2.577921e+02  -1.458109e+02
   6.633950e+01  -9.886604e+01
   1.317464e+02   1.072814e+02
  -1.233436e+02   1.508868e+02
  -3.066861e+02  -5.199364e+01
  -1.486888e+02  -2.644835e+02
   1.895847e+02  -2.737027e+02
   3.450302e+02  -9.663031e+01
   2.223367e+02   1.032296e+02
  -2.957735e+01   2.632535e+02
  -2.553308e+02   3.332188e+02
  -3.421821e+02   1.917578e+02
  -2.683400e+02  -1.369312e+02
  -7.236944e+01  -4.041407e+02
   8.593478e+01  -3.638746e+02
   9.045801e+01  -1.429856e+02
   4.127742e+01  -3.150290e+01
   8.086518e+01  -8.986508e+01
   2.065457e+02  -1.001454e+02
   2.571345e+02   7.305226e+01
   1.382172e+02   2.608781e+02
  -7.182561e+01   2.317142e+02
  -2.052970e+02  -6.510848e-02
  -1.763479e+02  -2.316651e+02
   1.410132e+01  -2.721778e+02
   2.510197e+02  -1.023810e+02
   3.436425e+02   1.598627e+02
   1.903376e+02   3.300162e+02
  -7.587650e+01   2.997881e+02
  -2.139439e+02   1.413608e+02
  -1.648475e+02   2.950544e+01
  -1.225000e+02   4.018649e+01
  -2.425084e+02   5.663558e+01
  -3.925637e+02  -6.896574e+01
  -3.204841e+02  -2.881436e+02
   1.372597e+01  -4.344386e+02
   3.586441e+02  -4.023851e+02
   4.754166e+02  -1.927380e+02
   3.175443e+02   8.945220e+01
   5.031169e+01   2.716190e+02
  -1.121015e+02   2.364948e+02
  -6.124569e+01   3.891883e+01
   1.007405e+02  -8.362583e+01
   1.732445e+02   8.262295e+00
   4.609217e+01   1.731730e+02
  -1.370644e+02   1.553209e+02
  -1.568997e+02  -4.878915e+01
   1.396193e+01  -1.687513e+02
   1.780130e+02  -2.283020e+01
   1.566340e+02   2.433979e+02
  -2.854469e+01   3.448185e+02
  -2.378408e+02   1.953746e+02
  -3.375835e+02  -6.407238e+01
  -2.749743e+02  -2.486339e+02
  -8.415966e+01  -2.678976e+02
   1.156880e+02  -1.525998e+02
   1.658801e+02  -2.084733e+01
   5.381434e+01   2.338073e+01
  -6.003636e+01  -4.687407e+01
  -1.876083e+01  -1.185107e+02
   1.222899e+02  -9.061542e+01
   1.673027e+02   1.340050e+01
   5.122567e+01   6.639221e+01
  -7.797864e+01   9.427735e+00
  -4.809544e+01  -7.830342e+01
   1.334992e+02  -8.583774e+01
   2.848113e+02   7.683239e+00
   2.564820e+02   1.514631e+02
   4.601334e+01   2.564153e+02
  -1.928667e+02   2.494899e+02
  -2.792031e+02   1.157287e+02
  -1.610274e+02  -5.021405e+01
   2.249347e+01  -1.027386e+02
   8.210625e+01  -1.027701e+01
  -3.286397e+01   9.271620e+01
  -1.833778e+02   5.544546e+01
  -2.022668e+02  -9.771777e+01
  -6.902093e+01  -2.013380e+02
   8.885273e+01  -1.529514e+02
   1.368923e+02  -2.769756e+01
   6.115272e+01   3.773251e+01
  -3.082721e+01  -8.065967e+00
  -2.926609e+01  -9.265977e+01
   8.260617e+01  -1.129530e+02
   1.994693e+02  -2.201809e+01
   1.862981e+02   1.255850e+02
   2.139732e+01   2.146132e+02
  -1.589623e+02   1.623162e+02
  -1.908544e+02   8.981678e+00
  -6.592129e+01  -1.105042e+02
   6.674903e+01  -1.101556e+02
   8.291833e+01  -2.968593e+01
   1.373596e+01   2.580570e+01
  -2.657904e+01   1.425726e+01
   1.065025e+01  -1.397973e+01
   7.821655e+01   8.827287e+00
   9.181718e+01   8.937903e+01
   8.126559e+00   1.643965e+02
  -1.371272e+02   1.480439e+02
  -2.354815e+02   1.578296e+01
  -1.969210e+02  -1.555203e+02
  -4.049277e+01  -2.370777e+02
   1.079106e+02  -1.707490e+02
   1.383242e+02  -2.930391e+01
   7.578588e+01   5.254853e+01
   3.230007e+01   3.566105e+01
   5.340251e+01  -1.171676e+01
   8.184247e+01  -3.192966e+00
   4.587603e+01   5.640342e+01
  -4.460263e+01   9.669096e+01
  -1.121207e+02   5.491736e+01
  -9.157666e+01  -4.559036e+01
   1.878945e+01  -1.170044e+02
   1.512450e+02  -8.055831e+01
   1.985833e+02   5.863423e+01
   9.545340e+01   2.028309e+02
  -1.109925e+02   2.246311e+02
  -2.649898e+02   9.405852e+01
  -2.540548e+02  -8.384344e+01
  -1.048242e+02  -1.741614e+02
   3.897243e+01  -1.455028e+02
   9.296058e+01  -8.334182e+01
   7.795808e+01  -6.765759e+01
   6.638227e+01  -9.102807e+01
   9.373761e+01  -7.681086e+01
   1.308202e+02   1.989320e+01
   1.196133e+02   1.535447e+02
   2.986063e+01   2.260640e+02
  -9.986610e+01   1.713073e+02
  -1.734505e+02   1.860037e+01
  -1.312832e+02  -1.224980e+02
  -1.450946e+01  -1.561003e+02
   6.815279e+01  -8.464328e+01
   5.925105e+01   6.124116e+00
  -6.658801e-01   4.549175e+01
  -1.697813e+01   3.160302e+01
   3.454108e+01   1.380431e+01
   8.261953e+01   2.391581e+01
   4.535376e+01   4.316975e+01
  -6.935380e+01   3.834343e+01
  -1.625286e+02  -5.474503e+00
  -1.408230e+02  -5.787335e+01
  -7.218817e+00  -9.064815e+01
   1.231809e+02  -7.117451e+01
   1.398220e+02  -9.677868e+00
   4.486177e+01   4.395324e+01
  -5.913017e+01   3.829571e+01
  -7.521162e+01  -1.999767e+01
  -1.122639e+01  -7.211754e+01
   5.406125e+01  -6.275079e+01
   6.732379e+01   8.058283e-01
   4.836262e+01   5.158237e+01
   4.316181e+01   4.689421e+01
   5.622886e+01   3.424655e+00
   6.511589e+01   1.850428e-01
   3.933027e+01   7.089676e+01
  -3.149000e+01   1.510630e+02
  -1.222807e+02   1.423960e+02
  -1.734790e+02   3.007967e+01
  -1.270246e+02  -9.514564e+01
  -4.885614e+00  -1.307735e+02
   8.927960e+01  -6.450216e+01
   6.138565e+01   1.399581e+01
  -5.802796e+01   2.225812e+01
  -1.360757e+02  -3.975145e+01
  -7.441612e+01  -1.050689e+02
   8.035402e+01  -1.104613e+02
   1.868533e+02  -5.062010e+01
   1.562460e+02   3.303759e+01
   3.551513e+01   8.478624e+01
  -6.031126e+01   6.704419e+01
  -4.745748e+01   4.689848e+00
   4.113138e+01  -2.934105e+01
   9.274546e+01   2.111888e+01
   3.602516e+01   1.189912e+02
  -8.661338e+01   1.578146e+02
  -1.657426e+02   6.671794e+01
  -1.280065e+02  -9.701996e+01
  -1.459845e+01  -1.947308e+02
   8.129410e+01  -1.426072e+02
   1.026577e+02   7.365341e+00
   5.905426e+01   1.156260e+02
  -3.399654e+00   1.031132e+02
  -4.629261e+01   1.820963e+01
  -4.888843e+01  -2.863491e+01
  -2.371087e+01  -6.978118e+00
  -5.587933e+00   1.955839e+01
  -2.371384e+01  -1.770319e+01
  -5.564877e+01  -8.987151e+01
  -3.771599e+01  -1.081829e+02
   5.057277e+01  -4.145806e+01
   1.350833e+02   4.002968e+01
   1.238626e+02   7.006552e+01
   1.470891e+01   4.991715e+01
  -8.556493e+01   2.448772e+01
  -8.681520e+01   8.006137e+00
  -1.212748e+01  -9.834017e+00
   3.730953e+01  -2.392859e+01
   1.530444e+01  -1.730201e+01
  -1.939325e+01   2.984830e+00
   6.385100e+00   8.019486e+00
   7.248736e+01   3.149930e+00
   9.113002e+01   2.407749e+01
   1.109856e+01   8.383901e+01
  -1.152774e+02   1.176501e+02
  -1.862171e+02   6.106995e+01
  -1.462317e+02  -6.713931e+01
  -2.913971e+01  -1.636295e+02
   7.977536e+01  -1.531960e+02
   1.165711e+02  -5.921500e+01
   8.105991e+01   2.205246e+01
   2.573158e+01   3.673686e+01
  -1.112060e+00   1.032164e+01
   1.095472e+01   6.837696e+00
   3.100259e+01   4.650978e+01
   2.049441e+01   8.822810e+01
  -2.879765e+01   7.105863e+01
  -8.025888e+01  -1.556011e+01
  -7.807395e+01  -1.054662e+02
  -7.590635e+00  -1.118453e+02
   8.065127e+01  -2.741659e+01
   1.049913e+02   7.086140e+01
   3.433553e+01   1.035429e+02
  -6.696993e+01   5.887729e+01
  -9.968925e+01  -1.138248e+01
  -3.866531e+01  -5.425080e+01
   3.499343e+01  -5.450119e+01
   3.513898e+01  -2.603746e+01
  -3.155202e+01   5.243360e+00
  -6.969633e+01   9.029576e+00
  -1.709764e+01  -2.765845e+01
   7.881045e+01  -6.541105e+01
   1.176555e+02  -5.480117e+01
   6.529197e+01   1.775216e+01
  -1.601691e+01   8.465428e+01
  -5.699304e+01   7.963710e+01
  -4.163026e+01   6.961533e+00
  -3.609173e+00  -5.594336e+01
   2.635270e+01  -4.555547e+01
   3.817476e+01   1.530953e+01
   2.665930e+01   5.354944e+01
  -4.347919e+00   3.409300e+01
  -3.352367e+01  -8.218115e+00
  -3.900498e+01  -2.365431e+01
  -1.888726e+01  -2.900535e+00
   1.918020e+00   1.711750e+01
   4.931776e+00   2.524978e+00
   1.223396e+00  -3.413774e+01
   1.031545e+01  -4.860862e+01
   3.161405e+01  -1.461722e+01
   3.639664e+01   4.161280e+01
   4.823932e+00   6.217262e+01
  -4.244880e+01   2.458952e+01
  -5.953381e+01  -3.610511e+01
  -1.783105e+01  -6.343745e+01
   5.503249e+01  -3.581483e+01
   9.116326e+01   1.393197e+01
   4.944056e+01   4.457050e+01
  -2.958557e+01   4.265633e+01
  -6.648215e+01   2.400337e+01
  -2.610408e+01   4.407418e+00
   3.511205e+01  -1.400475e+00
   3.833446e+01   1.181816e+01
  -2.601119e+01   3.092437e+01
  -8.603697e+01   2.480168e+01
