
 $NMID
 id='ANONYMOUS ', fmtdat='(2E16.6)'
 volume=1.0
 tramp=1.0
 $END
   4.804066e+03   9.739116e+01
   2.645297e+03   2.982241e+03
  -1.047637e+03   2.998880e+03
  -2.407994e+03   7.891840e+02
  -9.326053e+02  -8.943237e+02
   8.647955e+02  -6.571092e+02
   1.030756e+03   5.539678e+02
  -5.468875e+01   1.220699e+03
  -9.538265e+02   8.182149e+02
  -1.029060e+03  -1.793358e+02
  -4.274439e+02  -9.532736e+02
   3.175596e+02  -9.526157e+02
   7.281708e+02  -8.909571e+01
   4.088059e+02   8.103139e+02
  -3.219854e+02   8.027929e+02
  -6.958078e+02  -2.259541e+01
  -2.689273e+02  -7.551500e+02
   3.877056e+02  -6.542501e+02
   6.372812e+02  -4.094450e+01
   3.861943e+02   4.145104e+02
  -1.705628e+01   4.663769e+02
  -2.839166e+02   2.626131e+02
  -2.418023e+02  -1.249210e+01
   1.117166e+02  -1.290746e+02
   4.463639e+02   9.181491e+01
   2.400962e+02   4.696518e+02
  -4.824472e+02   4.703577e+02
  -9.160156e+02  -6.565162e+01
  -4.773364e+02  -6.115280e+02
   4.204625e+02  -5.572389e+02
   8.154634e+02   2.751687e+01
   3.832058e+02   5.321403e+02
  -3.162232e+02   5.676158e+02
  -6.182567e+02   2.042191e+02
  -4.417175e+02  -2.681745e+02
  -4.866168e+01  -5.240917e+02
   2.575829e+02  -2.966783e+02
   2.167841e+02   2.667501e+02
  -1.627378e+02   5.238581e+02
  -5.139076e+02  -1.575745e+01
  -2.764880e+02  -7.567197e+02
   3.672461e+02  -7.701490e+02
   6.888211e+02   1.592689e+01
   2.882585e+02   6.312916e+02
  -3.440256e+02   3.578516e+02
  -4.400569e+02  -3.631720e+02
   7.499639e+01  -5.965079e+02
   6.013478e+02  -1.388425e+02
   6.256730e+02   4.529868e+02
   1.499435e+02   6.301474e+02
  -4.280994e+02   3.667066e+02
  -6.769849e+02  -9.403406e+01
  -3.890637e+02  -4.317301e+02
   1.838697e+02  -4.032865e+02
   4.802447e+02  -4.608417e+01
   2.446550e+02   2.408504e+02
  -1.589455e+02   1.268457e+02
  -1.680608e+02  -1.867217e+02
   1.919707e+02  -2.212719e+02
   3.821298e+02   8.952677e+01
   1.403785e+02   3.335662e+02
  -2.262458e+02   2.598989e+02
  -3.468995e+02   5.077440e+01
  -1.881535e+02  -9.327287e+01
   2.627513e+01  -2.077596e+02
   2.214947e+02  -3.142088e+02
   3.396066e+02  -2.257470e+02
   3.022449e+02   1.410649e+02
   8.041096e+01   4.562746e+02
  -1.425432e+02   3.916873e+02
  -1.422972e+02   9.161202e+01
  -1.156912e+01  -3.876470e+01
  -1.839699e+01   8.982842e+01
  -1.879060e+02   1.592719e+02
  -3.008963e+02  -3.521453e+01
  -1.827936e+02  -2.863706e+02
   7.145488e+01  -2.866061e+02
   2.479945e+02  -2.383601e+01
   2.196158e+02   2.523082e+02
  -8.014287e+00   3.182197e+02
  -2.875944e+02   1.275989e+02
  -3.862353e+02  -1.841231e+02
  -1.875892e+02  -3.844456e+02
   1.212642e+02  -3.251461e+02
   2.493388e+02  -1.107587e+02
   1.527552e+02   1.512721e+01
   8.764025e+01  -2.995198e+01
   2.307380e+02  -8.295597e+01
   4.162310e+02   4.896132e+01
   3.491117e+02   2.920029e+02
   7.040041e+00   4.631016e+02
  -3.694295e+02   4.287397e+02
  -5.060527e+02   2.069611e+02
  -3.582638e+02  -1.016455e+02
  -6.188662e+01  -3.143078e+02
   1.451909e+02  -2.704554e+02
   1.019755e+02  -2.391520e+01
  -1.115651e+02   1.258407e+02
  -2.159241e+02  -3.709646e+00
  -5.989463e+01  -2.177143e+02
   1.795788e+02  -1.872653e+02
   2.015069e+02   7.201568e+01
  -1.928713e+01   2.183952e+02
  -2.098636e+02   4.017826e+01
  -1.687745e+02  -2.585313e+02
   4.082040e+01  -3.570275e+02
   2.365379e+02  -1.881671e+02
   3.241577e+02   7.133589e+01
   2.745083e+02   2.432669e+02
   9.435230e+01   2.697453e+02
  -1.167257e+02   1.666348e+02
  -1.879862e+02   2.111358e+01
  -6.448649e+01  -4.190510e+01
   7.772957e+01   3.171378e+01
   3.852433e+01   1.322329e+02
  -1.286531e+02   1.107237e+02
  -1.910290e+02  -1.007008e+01
  -6.672655e+01  -8.099342e+01
   8.104280e+01  -2.510613e+01
   5.998563e+01   6.991421e+01
  -1.184261e+02   8.808531e+01
  -2.789666e+02   4.207061e+00
  -2.692769e+02  -1.334928e+02
  -7.042647e+01  -2.595980e+02
   1.826944e+02  -2.765755e+02
   2.971653e+02  -1.382143e+02
   1.866575e+02   5.705157e+01
  -2.250435e+01   1.232855e+02
  -9.992738e+01   1.133660e+01
   2.894489e+01  -1.108231e+02
   2.038326e+02  -6.501330e+01
   2.222672e+02   1.105467e+02
   7.113198e+01   2.200599e+02
  -1.000153e+02   1.658270e+02
  -1.529584e+02   3.120077e+01
  -7.838392e+01  -4.359207e+01
   2.358609e+01  -1.262167e+01
   4.130794e+01   7.551517e+01
  -6.543121e+01   1.122559e+02
  -1.976485e+02   3.408856e+01
  -1.968350e+02  -1.233448e+02
  -2.391631e+01  -2.257756e+02
   1.716346e+02  -1.715995e+02
   2.055575e+02  -5.779455e+00
   7.179127e+01   1.226468e+02
  -6.899046e+01   1.189639e+02
  -8.991645e+01   3.342136e+01
  -2.459890e+01  -2.597463e+01
   1.668662e+01  -1.969360e+01
  -9.647188e+00   3.838192e+00
  -6.617196e+01  -1.189779e+01
  -8.353639e+01  -8.066578e+01
  -1.638839e+01  -1.538907e+02
   1.221246e+02  -1.539897e+02
   2.343645e+02  -3.253762e+01
   2.074384e+02   1.479758e+02
   4.493325e+01   2.431099e+02
  -1.119270e+02   1.757245e+02
  -1.403204e+02   2.711065e+01
  -7.143797e+01  -5.911306e+01
  -2.658089e+01  -3.890533e+01
  -4.999883e+01   9.429143e+00
  -7.573814e+01   6.737426e+00
  -3.853041e+01  -4.699493e+01
   4.165012e+01  -8.133596e+01
   9.660007e+01  -5.129036e+01
   8.077219e+01   3.420598e+01
  -1.299393e+01   1.074741e+02
  -1.391030e+02   8.611892e+01
  -1.972703e+02  -4.852796e+01
  -1.028279e+02  -2.013200e+02
   1.047158e+02  -2.321328e+02
   2.680227e+02  -9.750368e+01
   2.579743e+02   8.844050e+01
   1.101249e+02   1.817598e+02
  -4.034594e+01   1.500049e+02
  -9.720617e+01   8.302372e+01
  -8.051685e+01   6.797287e+01
  -6.848470e+01   9.122258e+01
  -9.438362e+01   7.507958e+01
  -1.304404e+02  -2.303903e+01
  -1.208406e+02  -1.550426e+02
  -3.269777e+01  -2.297083e+02
   1.010443e+02  -1.752427e+02
   1.802948e+02  -2.291640e+01
   1.415212e+02   1.213493e+02
   2.082196e+01   1.611160e+02
  -6.597319e+01   9.561237e+01
  -5.977189e+01   4.412658e+00
  -6.717499e+00  -3.979059e+01
   7.153121e+00  -3.398883e+01
  -3.676566e+01  -2.034132e+01
  -7.508874e+01  -2.355639e+01
  -4.292302e+01  -3.688260e+01
   5.998174e+01  -3.596810e+01
   1.514831e+02  -4.221897e+00
   1.411138e+02   4.979183e+01
   1.868568e+01   8.746471e+01
  -1.176895e+02   7.268471e+01
  -1.432813e+02   1.367185e+01
  -4.681993e+01  -4.124335e+01
   6.173112e+01  -3.575081e+01
   7.566263e+01   2.133883e+01
   2.443925e+00   6.844811e+01
  -5.992208e+01   5.533365e+01
  -6.210941e+01  -4.477026e+00
  -3.959451e+01  -5.190398e+01
  -4.243296e+01  -4.076934e+01
  -6.568638e+01  -2.410753e+00
  -6.793359e+01  -2.107278e+00
  -3.267867e+01  -6.881067e+01
   3.633010e+01  -1.464361e+02
   1.155969e+02  -1.393472e+02
   1.601755e+02  -3.001423e+01
   1.207156e+02   9.362351e+01
   6.515492e+00   1.264241e+02
  -8.684353e+01   5.721444e+01
  -6.046162e+01  -1.918391e+01
   6.015916e+01  -1.943169e+01
   1.380809e+02   4.880657e+01
   7.560022e+01   1.118042e+02
  -8.369908e+01   1.138119e+02
  -1.933111e+02   5.105181e+01
  -1.644884e+02  -3.419993e+01
  -3.954219e+01  -8.835244e+01
   5.921690e+01  -7.257640e+01
   4.822430e+01  -1.052951e+01
  -3.899005e+01   2.621696e+01
  -9.013005e+01  -2.336797e+01
  -2.970779e+01  -1.213854e+02
   9.693745e+01  -1.552722e+02
   1.705422e+02  -6.070732e+01
   1.271101e+02   1.051645e+02
   8.961202e+00   2.004422e+02
  -8.511319e+01   1.446151e+02
  -1.040669e+02  -6.164331e+00
  -6.137063e+01  -1.155254e+02
  -7.501362e-01  -1.055802e+02
   4.500355e+01  -2.070304e+01
   5.464675e+01   3.100447e+01
   2.833786e+01   8.860686e+00
   2.814803e+00  -2.196230e+01
   1.751968e+01   1.284504e+01
   5.520357e+01   8.718096e+01
   4.336229e+01   1.115865e+02
  -4.616534e+01   4.627510e+01
  -1.398465e+02  -4.064643e+01
  -1.306212e+02  -7.276628e+01
  -1.335095e+01  -5.107121e+01
   9.083243e+01  -2.210889e+01
   8.838818e+01  -7.765427e+00
   8.328602e+00   6.074891e+00
  -3.915965e+01   2.221697e+01
  -1.213740e+01   1.979483e+01
   2.224141e+01  -4.384134e-01
  -7.504774e+00  -9.252287e+00
  -7.565840e+01  -5.757267e+00
  -9.034521e+01  -2.495691e+01
  -4.382366e+00  -8.187896e+01
   1.218206e+02  -1.123666e+02
   1.839672e+02  -5.383940e+01
   1.373787e+02   7.112183e+01
   2.248926e+01   1.630934e+02
  -7.916381e+01   1.479072e+02
  -1.134269e+02   5.628408e+01
  -7.993017e+01  -2.311642e+01
  -2.504843e+01  -3.484618e+01
   3.326367e+00  -7.861885e+00
  -9.040547e+00  -3.187439e+00
  -3.436097e+01  -4.467042e+01
  -2.439248e+01  -8.957609e+01
   2.915110e+01  -7.163898e+01
   8.260677e+01   2.044610e+01
   7.648570e+01   1.108330e+02
  -8.337326e-01   1.132838e+02
  -8.685161e+01   1.984658e+01
  -1.016954e+02  -8.084996e+01
  -2.776198e+01  -1.048640e+02
   6.859864e+01  -5.284732e+01
   9.589416e+01   1.469445e+01
   3.656616e+01   4.955411e+01
  -3.185821e+01   4.846820e+01
  -2.925099e+01   2.744988e+01
   3.418322e+01   4.847187e-01
   6.748061e+01  -5.484823e+00
   1.315426e+01   2.481256e+01
  -7.845522e+01   6.526444e+01
  -1.119825e+02   5.858433e+01
  -6.102364e+01  -1.168387e+01
   1.626744e+01  -8.148485e+01
   5.198137e+01  -7.650203e+01
   3.437205e+01  -2.563184e+00
  -1.392909e+00   5.637272e+01
  -2.606849e+01   4.053499e+01
  -3.527725e+01  -2.043372e+01
  -2.481026e+01  -5.454538e+01
   3.703309e+00  -3.092907e+01
   3.275567e+01   1.079663e+01
   3.733385e+01   2.112336e+01
   1.899165e+01   6.234830e-01
  -8.847186e-01  -1.386069e+01
  -6.622154e+00   5.695035e+00
  -8.805933e+00   3.769113e+01
  -2.108109e+01   4.283888e+01
  -3.486423e+01   3.476744e+00
  -2.766266e+01  -4.986309e+01
   7.521386e+00  -6.129420e+01
   4.719800e+01  -1.805115e+01
   5.476690e+01   4.171442e+01
   1.214406e+01   6.445190e+01
  -5.492368e+01   3.321564e+01
  -8.776859e+01  -1.779153e+01
  -4.831159e+01  -4.530197e+01
   2.933709e+01  -3.977468e+01
   6.434904e+01  -1.868478e+01
   2.228372e+01  -3.241957e+00
  -3.992650e+01  -4.698034e+00
  -3.788722e+01  -1.983970e+01
   3.509717e+01  -3.398542e+01
   9.668312e+01  -1.814592e+01
