
 $NMID
 id='ANONYMOUS ', fmtdat='(2E16.6)'
 volume=1.0
 tramp=1.0
 $END
  -3.529932e+03   1.155699e+02
  -2.283906e+03  -1.887465e+03
   1.290054e+02  -2.219828e+03
   1.459517e+03  -1.134560e+03
   9.497349e+02   1.714374e+01
  -9.672190e+01   2.849893e+02
  -4.953680e+02  -1.535017e+02
  -5.362314e+01  -6.401816e+02
   5.118204e+02  -6.195869e+02
   7.077377e+02  -7.340230e+01
   4.816165e+02   5.781815e+02
  -3.664796e+01   7.242820e+02
  -3.912418e+02   2.026446e+02
  -2.952970e+02  -4.817974e+02
   1.438816e+02  -6.015533e+02
   4.645497e+02  -3.980524e+01
   3.016513e+02   5.347744e+02
  -1.645589e+02   6.320765e+02
  -4.924127e+02   2.312804e+02
  -4.340447e+02  -2.140355e+02
  -1.104600e+02  -3.790205e+02
   1.442733e+02  -2.507010e+02
   1.078392e+02  -7.616680e+01
  -1.444600e+02  -5.564833e+01
  -2.865654e+02  -2.300460e+02
  -3.812093e+01  -3.603074e+02
   4.537698e+02  -2.212718e+02
   6.358617e+02   1.582415e+02
   2.622234e+02   3.908116e+02
  -3.223584e+02   2.627860e+02
  -5.299588e+02  -9.105123e+01
  -2.217790e+02  -3.668498e+02
   2.491371e+02  -3.789210e+02
   4.582926e+02  -1.540431e+02
   3.443816e+02   1.611198e+02
   9.457676e+01   3.461257e+02
  -5.628727e+01   2.182741e+02
  -1.770398e+01  -9.119755e+01
   1.710797e+02  -2.234089e+02
   2.383916e+02   9.765958e+01
   7.071911e+01   5.033039e+02
  -2.490001e+02   4.836303e+02
  -3.848669e+02   1.995724e+01
  -1.622107e+02  -3.544923e+02
   1.654719e+02  -1.915697e+02
   2.286261e+02   2.536845e+02
  -8.516977e+01   4.156349e+02
  -4.552376e+02   9.117306e+01
  -5.067895e+02  -3.577454e+02
  -1.618259e+02  -5.052223e+02
   3.120976e+02  -2.932595e+02
   5.379393e+02   5.609280e+01
   3.440943e+02   2.854475e+02
  -6.903106e+01   2.634701e+02
  -3.216853e+02   7.871628e+01
  -2.200996e+02  -7.525883e+01
   2.424975e+01  -4.841435e+01
   7.913088e+01   7.028348e+01
  -1.035506e+02   9.843323e+01
  -2.511591e+02  -4.149722e+01
  -1.425009e+02  -2.105629e+02
   1.461141e+02  -2.581567e+02
   3.418018e+02  -1.226532e+02
   2.598850e+02   9.886161e+01
  -1.674647e+01   2.969349e+02
  -2.692825e+02   3.534631e+02
  -3.583373e+02   1.760824e+02
  -2.478746e+02  -1.457419e+02
  -5.785188e+01  -3.718816e+02
   5.420290e+01  -3.314167e+02
   4.619059e+01  -1.581844e+02
   3.828322e+01  -7.858022e+01
   1.167628e+02  -1.066265e+02
   2.342689e+02  -7.173906e+01
   2.405911e+02   1.070031e+02
   9.641501e+01   2.578190e+02
  -9.240358e+01   2.006248e+02
  -1.922334e+02  -3.395752e+01
  -1.393387e+02  -2.418257e+02
   4.154481e+01  -2.503017e+02
   2.417368e+02  -6.723026e+01
   3.085126e+02   1.690420e+02
   1.712450e+02   3.011985e+02
  -5.438141e+01   2.706095e+02
  -1.790479e+02   1.501324e+02
  -1.530475e+02   6.497889e+01
  -1.408732e+02   5.578301e+01
  -2.644878e+02   3.775928e+01
  -3.944809e+02  -9.206671e+01
  -3.104602e+02  -2.908649e+02
   2.965548e+01  -4.309536e+02
   3.683350e+02  -3.850751e+02
   4.661942e+02  -1.698093e+02
   2.895754e+02   9.616872e+01
   2.685896e+01   2.517085e+02
  -9.717923e+01   2.050411e+02
  -3.289287e+01   3.885707e+01
   1.030946e+02  -5.459719e+01
   1.329091e+02   2.523163e+01
   1.756681e+01   1.458256e+02
  -1.158753e+02   1.150567e+02
  -1.180351e+02  -5.314177e+01
   2.885079e+01  -1.444235e+02
   1.663963e+02  -8.787659e+00
   1.499888e+02   2.331006e+02
  -2.160032e+01   3.386397e+02
  -2.353894e+02   2.028015e+02
  -3.414881e+02  -5.691660e+01
  -2.720707e+02  -2.492317e+02
  -6.904488e+01  -2.657829e+02
   1.228027e+02  -1.434923e+02
   1.533528e+02  -9.582108e+00
   3.929268e+01   1.982245e+01
  -5.458769e+01  -5.507725e+01
  -1.955897e+00  -1.126992e+02
   1.221542e+02  -7.431069e+01
   1.505353e+02   2.190753e+01
   3.642650e+01   5.849190e+01
  -8.003403e+01  -4.910670e+00
  -4.054127e+01  -8.714163e+01
   1.416082e+02  -8.923231e+01
   2.942958e+02   1.560523e+01
   2.529689e+02   1.618744e+02
   3.131035e+01   2.594478e+02
  -1.988235e+02   2.347757e+02
  -2.657238e+02   9.611759e+01
  -1.405610e+02  -4.883543e+01
   2.842866e+01  -8.464012e+01
   6.974882e+01   1.606681e+00
  -4.587377e+01   8.361415e+01
  -1.820690e+02   4.051729e+01
  -1.908966e+02  -9.896408e+01
  -5.962490e+01  -1.892329e+02
   8.838635e+01  -1.397497e+02
   1.275984e+02  -1.954715e+01
   4.915601e+01   3.863721e+01
  -4.034196e+01  -1.518084e+01
  -2.771511e+01  -1.037583e+02
   9.272245e+01  -1.158243e+02
   2.046074e+02  -1.402692e+01
   1.788694e+02   1.305859e+02
   1.257422e+01   2.069266e+02
  -1.532676e+02   1.509928e+02
  -1.753418e+02   1.016128e+01
  -5.795508e+01  -9.766918e+01
   6.193243e+01  -9.784747e+01
   7.463684e+01  -2.455424e+01
   5.887069e+00   2.707652e+01
  -3.525580e+01   1.296340e+01
   8.331229e+00  -2.243162e+01
   8.434175e+01  -3.031685e-01
   1.015657e+02   9.020582e+01
   1.076180e+01   1.725692e+02
  -1.404019e+02   1.516847e+02
  -2.369370e+02   1.143986e+01
  -1.924604e+02  -1.600355e+02
  -3.693270e+01  -2.311734e+02
   1.037411e+02  -1.616846e+02
   1.313315e+02  -3.030284e+01
   7.497166e+01   4.665048e+01
   3.250249e+01   3.112506e+01
   5.345195e+01  -1.436691e+01
   8.536273e+01  -7.242790e+00
   5.525664e+01   5.689129e+01
  -3.879478e+01   1.052269e+02
  -1.194052e+02   6.552031e+01
  -1.039995e+02  -4.325207e+01
   1.594927e+01  -1.261360e+02
   1.586562e+02  -8.588649e+01
   2.003718e+02   6.404893e+01
   8.535524e+01   2.077454e+02
  -1.199095e+02   2.185577e+02
  -2.639622e+02   8.325075e+01
  -2.452770e+02  -8.933810e+01
  -9.968395e+01  -1.682902e+02
   3.797227e+01  -1.385854e+02
   8.779275e+01  -8.062075e+01
   7.033976e+01  -6.970264e+01
   5.763084e+01  -9.175410e+01
   9.046873e+01  -7.810935e+01
   1.325497e+02   1.849589e+01
   1.189618e+02   1.538635e+02
   2.381238e+01   2.246523e+02
  -1.016236e+02   1.652588e+02
  -1.700448e+02   1.242453e+01
  -1.254669e+02  -1.253361e+02
  -1.087949e+01  -1.545960e+02
   7.337176e+01  -7.967872e+01
   6.124022e+01   1.270679e+01
  -2.285974e+00   5.134059e+01
  -2.434704e+01   3.456863e+01
   2.687230e+01   1.108247e+01
   8.134715e+01   1.918170e+01
   4.731974e+01   4.072155e+01
  -7.183771e+01   3.844697e+01
  -1.671176e+02  -4.977750e+00
  -1.379661e+02  -5.906555e+01
  -1.256873e+00  -9.414811e+01
   1.278725e+02  -7.269785e+01
   1.402074e+02  -7.171671e+00
   4.234845e+01   4.761906e+01
  -5.823083e+01   4.242160e+01
  -7.565321e+01  -1.845750e+01
  -1.623895e+01  -7.246947e+01
   4.747345e+01  -6.402952e+01
   6.631803e+01  -1.201508e+00
   5.249391e+01   4.947962e+01
   4.631805e+01   4.166466e+01
   5.410724e+01  -7.202986e-01
   6.422397e+01  -5.882742e-01
   4.308714e+01   7.027795e+01
  -2.624118e+01   1.482532e+02
  -1.220710e+02   1.417817e+02
  -1.753100e+02   3.150066e+01
  -1.282761e+02  -9.381514e+01
  -2.990600e+00  -1.305724e+02
   9.118780e+01  -6.797539e+01
   6.269865e+01   1.140222e+01
  -5.639732e+01   2.252817e+01
  -1.331619e+02  -3.793634e+01
  -7.284410e+01  -1.028523e+02
   7.831498e+01  -1.077582e+02
   1.833403e+02  -4.635922e+01
   1.538365e+02   3.854428e+01
   3.078009e+01   8.428590e+01
  -6.256288e+01   6.066577e+01
  -4.781217e+01  -1.205126e+00
   4.004891e+01  -3.116335e+01
   9.182113e+01   2.155002e+01
   3.847238e+01   1.166030e+02
  -7.921534e+01   1.521519e+02
  -1.569724e+02   6.602238e+01
  -1.240933e+02  -9.200796e+01
  -1.376497e+01  -1.881423e+02
   8.268671e+01  -1.364451e+02
   1.031590e+02   1.172605e+01
   5.487394e+01   1.181633e+02
  -1.163946e+01   1.005731e+02
  -5.029590e+01   1.387817e+01
  -4.621328e+01  -3.224354e+01
  -1.829836e+01  -7.789993e+00
  -5.466163e+00   1.881390e+01
  -2.775727e+01  -1.867019e+01
  -5.665110e+01  -8.861788e+01
  -3.382102e+01  -1.056712e+02
   5.345615e+01  -4.413393e+01
   1.337325e+02   3.683013e+01
   1.215653e+02   6.975995e+01
   1.818960e+01   5.523477e+01
  -7.938667e+01   2.675648e+01
  -8.541966e+01   6.056907e+00
  -1.704405e+01  -1.040964e+01
   3.376495e+01  -2.213899e+01
   1.871362e+01  -1.386552e+01
  -1.550882e+01   3.951586e+00
   3.581728e+00   5.595202e+00
   6.534614e+01  -1.704240e+00
   9.045987e+01   2.148176e+01
   2.198865e+01   8.096152e+01
  -1.055110e+02   1.180394e+02
  -1.837394e+02   6.569219e+01
  -1.501859e+02  -5.854531e+01
  -3.380111e+01  -1.560789e+02
   7.674385e+01  -1.528374e+02
   1.143929e+02  -6.489664e+01
   8.043511e+01   1.882148e+01
   2.667075e+01   3.807132e+01
   6.777474e-01   1.326122e+01
   1.208323e+01   7.256008e+00
   2.948767e+01   4.534290e+01
   1.785571e+01   8.797863e+01
  -2.878081e+01   7.119891e+01
  -7.797769e+01  -1.308946e+01
  -7.848757e+01  -9.999503e+01
  -1.303957e+01  -1.095062e+02
   7.541282e+01  -3.150548e+01
   1.046913e+02   6.471485e+01
   3.924545e+01   1.010110e+02
  -6.263309e+01   6.271987e+01
  -1.012013e+02  -6.229906e+00
  -4.467615e+01  -5.470167e+01
   3.213111e+01  -5.837516e+01
   3.731733e+01  -2.885770e+01
  -2.772055e+01   4.239176e+00
  -6.747312e+01   8.198152e+00
  -1.796627e+01  -2.732444e+01
   7.613247e+01  -6.504084e+01
   1.173972e+02  -5.464825e+01
   6.932498e+01   1.687486e+01
  -1.297661e+01   8.399909e+01
  -5.621994e+01   8.079401e+01
  -4.406635e+01   1.094019e+01
  -6.200435e+00  -5.157564e+01
   2.360128e+01  -4.619716e+01
   3.699991e+01   1.056992e+01
   2.819770e+01   5.185854e+01
  -1.622624e+00   3.863012e+01
  -3.323196e+01  -4.881757e+00
  -3.954635e+01  -2.338063e+01
  -1.884925e+01  -4.026021e+00
   3.478403e+00   1.861624e+01
   6.225922e+00   6.955198e+00
  -3.031067e+00  -3.189280e+01
   3.556266e+00  -5.026379e+01
   2.674281e+01  -1.956454e+01
   3.842611e+01   3.444135e+01
   1.080333e+01   5.864061e+01
  -4.003447e+01   2.582024e+01
  -6.265532e+01  -3.233168e+01
  -2.100946e+01  -6.032819e+01
   5.481572e+01  -3.637119e+01
   9.162582e+01   1.012699e+01
   5.163735e+01   4.229563e+01
  -2.677308e+01   4.505428e+01
  -6.411941e+01   2.785311e+01
  -2.825013e+01   6.898144e+00
   2.808057e+01  -2.951073e+00
   3.375521e+01   6.958243e+00
  -2.336422e+01   2.567141e+01
  -7.800791e+01   2.122978e+01
