
 $NMID
 id='ANONYMOUS ', fmtdat='(2E16.6)'
 volume=1.0
 tramp=1.0
 $END
   4.201743e+03   5.832686e+01
   2.414599e+03   2.493033e+03
  -5.765487e+02   2.683555e+03
  -1.974512e+03   9.996560e+02
  -9.968026e+02  -4.501173e+02
   5.004477e+02  -4.869917e+02
   7.965117e+02   3.580283e+02
   4.977053e+00   9.658864e+02
  -7.839825e+02   7.466634e+02
  -9.215633e+02  -6.973101e+01
  -4.390877e+02  -8.336224e+02
   2.057765e+02  -8.609633e+02
   5.861426e+02  -1.198813e+02
   3.547903e+02   6.821224e+02
  -2.697454e+02   7.205912e+02
  -5.809747e+02   2.046839e+01
  -2.849852e+02  -6.739944e+02
   3.042090e+02  -6.597843e+02
   5.865651e+02  -1.405666e+02
   4.227079e+02   3.239268e+02
   3.913279e+01   4.342059e+02
  -2.332954e+02   2.631306e+02
  -1.967954e+02   8.321287e+00
   1.360191e+02  -6.600079e+01
   3.912653e+02   1.519578e+02
   1.539042e+02   4.265790e+02
  -4.706502e+02   3.644325e+02
  -8.006868e+02  -1.008881e+02
  -3.854329e+02  -5.223161e+02
   3.838428e+02  -4.254467e+02
   7.057896e+02   6.111090e+01
   3.207302e+02   4.703817e+02
  -2.874502e+02   5.021637e+02
  -5.648061e+02   1.875059e+02
  -4.087173e+02  -2.307478e+02
  -6.752450e+01  -4.548677e+02
   1.794983e+02  -2.633247e+02
   1.267965e+02   2.071746e+02
  -1.693414e+02   3.667273e+02
  -4.161880e+02  -5.079544e+01
  -1.977401e+02  -6.589867e+02
   3.192427e+02  -6.564880e+02
   5.613764e+02   1.463485e+00
   2.214533e+02   5.253439e+02
  -2.834022e+02   2.981291e+02
  -3.548740e+02  -3.193700e+02
   7.849372e+01  -5.365650e+02
   5.422877e+02  -1.327977e+02
   5.793021e+02   4.116160e+02
   1.579013e+02   5.911359e+02
  -3.801592e+02   3.365308e+02
  -6.229531e+02  -8.155059e+01
  -3.711854e+02  -3.661405e+02
   1.352557e+02  -3.391773e+02
   4.227745e+02  -6.025376e+01
   2.490774e+02   1.575768e+02
  -8.881453e+01   9.337703e+01
  -1.296747e+02  -1.275771e+02
   1.498576e+02  -1.648760e+02
   3.282430e+02   6.827936e+01
   1.395611e+02   2.862101e+02
  -2.148143e+02   2.659167e+02
  -3.614021e+02   8.816186e+01
  -2.244924e+02  -1.108732e+02
   3.050913e+01  -2.690590e+02
   2.594720e+02  -3.476333e+02
   3.639157e+02  -1.970821e+02
   2.934519e+02   1.582303e+02
   7.341838e+01   4.350810e+02
  -1.076603e+02   3.776607e+02
  -1.110750e+02   1.299521e+02
  -2.863613e+01   1.199359e+01
  -6.231147e+01   8.914215e+01
  -2.088758e+02   1.123104e+02
  -2.764692e+02  -6.872436e+01
  -1.486197e+02  -2.741465e+02
   8.230926e+01  -2.488084e+02
   2.283181e+02   2.968533e+00
   1.857058e+02   2.497272e+02
  -2.123945e+01   2.944034e+02
  -2.695671e+02   1.101873e+02
  -3.572390e+02  -1.724436e+02
  -1.877941e+02  -3.539347e+02
   9.398947e+01  -3.106200e+02
   2.284603e+02  -1.298086e+02
   1.583076e+02  -1.933799e+01
   1.092813e+02  -3.965090e+01
   2.414909e+02  -6.375942e+01
   4.084656e+02   6.617234e+01
   3.368539e+02   2.987989e+02
  -3.508756e+00   4.461485e+02
  -3.722098e+02   4.113977e+02
  -4.949164e+02   1.845280e+02
  -3.298026e+02  -1.061269e+02
  -4.528217e+01  -2.952736e+02
   1.278288e+02  -2.472421e+02
   7.481135e+01  -2.980218e+01
  -1.055682e+02   9.930775e+01
  -1.851508e+02  -9.931324e+00
  -4.399920e+01  -1.844335e+02
   1.548742e+02  -1.578602e+02
   1.685719e+02   5.957839e+01
  -1.944283e+01   1.796116e+02
  -1.907755e+02   2.588623e+01
  -1.650075e+02  -2.471762e+02
   3.265290e+01  -3.548195e+02
   2.453725e+02  -1.985454e+02
   3.454036e+02   7.034498e+01
   2.811208e+02   2.602191e+02
   8.224824e+01   2.801781e+02
  -1.272994e+02   1.610145e+02
  -1.777504e+02   1.259127e+01
  -5.501676e+01  -3.383802e+01
   6.681889e+01   4.262288e+01
   2.087940e+01   1.264859e+02
  -1.284138e+02   9.236584e+01
  -1.734399e+02  -2.023420e+01
  -5.179099e+01  -7.480576e+01
   8.386006e+01  -1.094353e+01
   5.413151e+01   8.060450e+01
  -1.299882e+02   8.928573e+01
  -2.884910e+02  -3.450759e+00
  -2.632354e+02  -1.520734e+02
  -5.421852e+01  -2.627547e+02
   1.919101e+02  -2.588531e+02
   2.871493e+02  -1.170835e+02
   1.681897e+02   5.811398e+01
  -2.519128e+01   1.054302e+02
  -8.788794e+01   2.501074e+00
   3.802144e+01  -1.005706e+02
   1.967377e+02  -5.146793e+01
   2.120190e+02   1.092691e+02
   6.527529e+01   2.104713e+02
  -9.795209e+01   1.546772e+02
  -1.432433e+02   2.351996e+01
  -6.592050e+01  -4.413616e+01
   3.097461e+01   1.540639e+00
   3.512253e+01   8.905383e+01
  -7.897257e+01   1.152421e+02
  -2.031610e+02   2.621055e+01
  -1.909842e+02  -1.297927e+02
  -1.805125e+01  -2.205740e+02
   1.656541e+02  -1.627820e+02
   1.924551e+02  -4.762252e+00
   6.280403e+01   1.130486e+02
  -6.750862e+01   1.073643e+02
  -8.186950e+01   2.649616e+01
  -1.326783e+01  -2.711855e+01
   2.768976e+01  -1.374446e+01
  -8.323487e+00   1.451234e+01
  -7.553978e+01  -5.417721e+00
  -9.428962e+01  -8.434959e+01
  -1.551700e+01  -1.625770e+02
   1.303053e+02  -1.515242e+02
   2.353617e+02  -2.040422e+01
   1.976460e+02   1.541753e+02
   3.760904e+01   2.354391e+02
  -1.117913e+02   1.656916e+02
  -1.386076e+02   2.520086e+01
  -7.098698e+01  -5.635300e+01
  -2.613016e+01  -3.635243e+01
  -5.069973e+01   1.372160e+01
  -8.106974e+01   6.391340e+00
  -4.610534e+01  -5.311320e+01
   4.248917e+01  -9.269695e+01
   1.093349e+02  -5.673820e+01
   9.206796e+01   4.080538e+01
  -1.546637e+01   1.178418e+02
  -1.515494e+02   8.725223e+01
  -2.032511e+02  -5.799797e+01
  -9.613706e+01  -2.092485e+02
   1.138251e+02  -2.291500e+02
   2.709682e+02  -9.348275e+01
   2.586231e+02   8.911427e+01
   1.099186e+02   1.793577e+02
  -3.989741e+01   1.501199e+02
  -9.429894e+01   8.449323e+01
  -7.558792e+01   6.917966e+01
  -6.371168e+01   9.177549e+01
  -9.330857e+01   7.500877e+01
  -1.316285e+02  -2.236726e+01
  -1.177373e+02  -1.557028e+02
  -2.767386e+01  -2.262305e+02
   1.026647e+02  -1.717873e+02
   1.766574e+02  -1.751964e+01
   1.347440e+02   1.247147e+02
   1.585711e+01   1.608413e+02
  -7.287206e+01   8.861772e+01
  -6.240802e+01  -5.692414e+00
  -1.385070e+00  -4.658028e+01
   1.681910e+01  -3.348073e+01
  -3.309856e+01  -1.410765e+01
  -8.157865e+01  -2.090426e+01
  -4.479754e+01  -4.032900e+01
   6.711559e+01  -4.043509e+01
   1.625138e+02  -2.123891e+00
   1.447971e+02   5.743079e+01
   1.154865e+01   9.325523e+01
  -1.242435e+02   7.506939e+01
  -1.460997e+02   9.140301e+00
  -4.981171e+01  -4.827159e+01
   6.062325e+01  -4.158819e+01
   7.925428e+01   2.034025e+01
   1.248609e+01   7.330621e+01
  -5.484373e+01   6.127004e+01
  -6.808470e+01  -3.192946e+00
  -4.958855e+01  -5.285553e+01
  -4.228881e+01  -4.295674e+01
  -5.733328e+01  -1.832337e+00
  -6.533842e+01  -5.466113e-01
  -3.832005e+01  -7.034829e+01
   3.275034e+01  -1.471747e+02
   1.220177e+02  -1.401088e+02
   1.722836e+02  -3.071694e+01
   1.253833e+02   9.480716e+01
   3.105630e+00   1.304780e+02
  -9.128017e+01   6.554559e+01
  -6.174721e+01  -1.553485e+01
   5.911203e+01  -2.175408e+01
   1.360067e+02   4.319081e+01
   7.264339e+01   1.107533e+02
  -8.410880e+01   1.112012e+02
  -1.919636e+02   4.526410e+01
  -1.589623e+02  -4.394239e+01
  -3.247524e+01  -8.929038e+01
   6.370206e+01  -6.506536e+01
   4.916485e+01  -1.668911e+00
  -4.026200e+01   2.878455e+01
  -9.143280e+01  -2.377048e+01
  -3.253045e+01  -1.200129e+02
   9.175011e+01  -1.552708e+02
   1.679098e+02  -6.177137e+01
   1.258966e+02   1.027650e+02
   7.605468e+00   1.999465e+02
  -8.788185e+01   1.411422e+02
  -1.046840e+02  -1.232695e+01
  -5.620784e+01  -1.204386e+02
   6.500882e+00  -1.055054e+02
   4.865090e+01  -1.790458e+01
   5.019444e+01   3.206577e+01
   2.372270e+01   8.962668e+00
   5.474307e+00  -1.933093e+01
   2.500178e+01   1.781258e+01
   5.680312e+01   8.965288e+01
   3.684498e+01   1.100088e+02
  -5.344485e+01   4.668271e+01
  -1.389721e+02  -3.681802e+01
  -1.280819e+02  -7.183977e+01
  -1.739565e+01  -5.446331e+01
   8.645262e+01  -2.500890e+01
   8.893649e+01  -4.992416e+00
   1.353125e+01   1.065173e+01
  -3.722478e+01   2.135725e+01
  -1.620237e+01   1.539274e+01
   2.026616e+01  -2.454594e+00
  -2.575362e+00  -5.411378e+00
  -7.077673e+01   5.460680e-02
  -9.376142e+01  -2.257427e+01
  -1.778004e+01  -8.160886e+01
   1.150654e+02  -1.157431e+02
   1.901865e+02  -5.933429e+01
   1.445881e+02   6.747020e+01
   2.478534e+01   1.609142e+02
  -8.334810e+01   1.504196e+02
  -1.166860e+02   5.930430e+01
  -8.110301e+01  -2.303262e+01
  -2.598839e+01  -3.817847e+01
   1.337981e+00  -1.114837e+01
  -1.117460e+01  -4.979547e+00
  -3.148541e+01  -4.729989e+01
  -2.101227e+01  -9.246655e+01
   3.073228e+01  -7.393143e+01
   8.272586e+01   1.737792e+01
   7.996259e+01   1.068777e+02
   7.912958e+00   1.131763e+02
  -8.158982e+01   2.653657e+01
  -1.038513e+02  -7.301088e+01
  -3.241788e+01  -1.040524e+02
   6.776004e+01  -5.791761e+01
   1.007872e+02   1.235153e+01
   4.028096e+01   5.487030e+01
  -3.487114e+01   5.424165e+01
  -3.422058e+01   2.708389e+01
   3.303178e+01  -2.777018e+00
   7.101755e+01  -4.335830e+00
   1.628892e+01   2.986310e+01
  -8.095985e+01   6.595391e+01
  -1.197933e+02   5.337186e+01
  -6.728663e+01  -1.637136e+01
   1.707144e+01  -8.324658e+01
   5.691391e+01  -7.756299e+01
   4.041142e+01  -5.880984e+00
   2.027040e+00   5.466174e+01
  -2.711934e+01   4.356602e+01
  -3.649482e+01  -1.638298e+01
  -2.614614e+01  -5.511417e+01
   3.179517e+00  -3.491415e+01
   3.304544e+01   8.188671e+00
   4.056955e+01   2.341415e+01
   2.086290e+01   1.608095e+00
  -1.260794e+00  -1.598746e+01
  -6.514570e+00  -4.258757e-01
  -2.951661e+00   3.641036e+01
  -1.170179e+01   4.882658e+01
  -3.132650e+01   1.308767e+01
  -3.551657e+01  -4.228106e+01
  -2.515650e+00  -6.135059e+01
   4.374670e+01  -2.204739e+01
   5.912323e+01   3.725123e+01
   1.620867e+01   6.284392e+01
  -5.640220e+01   3.511500e+01
  -9.139152e+01  -1.472036e+01
  -5.004472e+01  -4.498067e+01
   2.915667e+01  -4.284574e+01
   6.540782e+01  -2.263522e+01
   2.526670e+01  -3.954220e+00
  -3.504077e+01  -9.349587e-01
  -3.619879e+01  -1.489675e+01
   2.911900e+01  -3.046522e+01
   8.830193e+01  -1.844793e+01
