
 $NMID
 id='ANONYMOUS ', fmtdat='(2E16.6)'
 volume=1.0
 tramp=1.0
 $END
  -3.615177e+03   3.639760e+01
  -2.293670e+03  -1.917481e+03
   1.677537e+02  -2.354506e+03
   1.587332e+03  -1.237136e+03
   1.046882e+03   5.620164e+01
  -1.424179e+02   4.233035e+02
  -5.613915e+02  -1.344995e+02
  -8.032015e+01  -7.039433e+02
   5.627634e+02  -6.823739e+02
   7.790780e+02  -5.807462e+01
   4.764794e+02   6.733342e+02
  -6.977312e+01   7.662144e+02
  -4.372648e+02   1.805981e+02
  -3.251471e+02  -5.188733e+02
   1.560883e+02  -6.350694e+02
   4.603295e+02  -5.728026e+01
   3.045108e+02   5.604104e+02
  -2.031352e+02   6.423859e+02
  -5.252612e+02   2.270243e+02
  -4.454597e+02  -2.466767e+02
  -8.821506e+01  -4.070811e+02
   1.815317e+02  -2.648946e+02
   1.355462e+02  -6.027082e+01
  -1.482665e+02  -2.557257e+01
  -3.115845e+02  -1.987408e+02
  -6.297423e+01  -3.589729e+02
   4.441550e+02  -2.433216e+02
   6.614921e+02   1.220965e+02
   3.001201e+02   4.108917e+02
  -3.176352e+02   3.079660e+02
  -5.585349e+02  -6.872609e+01
  -2.536426e+02  -3.824410e+02
   2.410403e+02  -4.095747e+02
   4.813075e+02  -1.653740e+02
   3.667999e+02   1.721995e+02
   9.306496e+01   3.722251e+02
  -9.057469e+01   2.303162e+02
  -5.731927e+01  -1.203006e+02
   1.659021e+02  -2.353513e+02
   2.873817e+02   7.437733e+01
   1.075268e+02   5.410822e+02
  -2.557948e+02   5.320980e+02
  -4.183378e+02   2.946356e+01
  -1.790275e+02  -3.785721e+02
   1.877801e+02  -2.186724e+02
   2.575597e+02   2.676444e+02
  -8.197027e+01   4.440439e+02
  -4.709644e+02   1.045063e+02
  -5.221212e+02  -3.718861e+02
  -1.574612e+02  -5.279624e+02
   3.200415e+02  -2.987427e+02
   5.496696e+02   6.426239e+01
   3.506023e+02   3.004756e+02
  -7.918402e+01   2.815680e+02
  -3.438283e+02   8.034835e+01
  -2.387589e+02  -8.759078e+01
   2.677702e+01  -6.412129e+01
   8.761090e+01   7.328968e+01
  -1.087245e+02   1.009388e+02
  -2.613106e+02  -4.757447e+01
  -1.333033e+02  -2.247564e+02
   1.752550e+02  -2.565043e+02
   3.374870e+02  -1.117090e+02
   2.353396e+02   1.022918e+02
  -2.767669e+01   2.874561e+02
  -2.690548e+02   3.408129e+02
  -3.498875e+02   1.671399e+02
  -2.537952e+02  -1.536429e+02
  -5.817112e+01  -3.775110e+02
   7.039511e+01  -3.302344e+02
   6.478492e+01  -1.451604e+02
   3.678833e+01  -6.246414e+01
   1.030305e+02  -9.177484e+01
   2.196500e+02  -7.060504e+01
   2.442316e+02   9.144673e+01
   1.136217e+02   2.515675e+02
  -8.308031e+01   2.079395e+02
  -1.972834e+02  -1.845778e+01
  -1.527537e+02  -2.324738e+02
   2.882308e+01  -2.566197e+02
   2.416395e+02  -8.430293e+01
   3.179084e+02   1.593224e+02
   1.757862e+02   3.095922e+02
  -6.625354e+01   2.785691e+02
  -1.912338e+02   1.407109e+02
  -1.555613e+02   5.071202e+01
  -1.305996e+02   4.704959e+01
  -2.452673e+02   4.175783e+01
  -3.840502e+02  -8.020105e+01
  -3.094039e+02  -2.799505e+02
   1.576318e+01  -4.187052e+02
   3.583779e+02  -3.896279e+02
   4.600210e+02  -1.783928e+02
   2.946498e+02   9.453295e+01
   3.409688e+01   2.589721e+02
  -1.034600e+02   2.110246e+02
  -4.039924e+01   3.361806e+01
   1.041215e+02  -6.773114e+01
   1.491352e+02   2.037967e+01
   2.981846e+01   1.575572e+02
  -1.236016e+02   1.372167e+02
  -1.353042e+02  -4.409544e+01
   1.508650e+01  -1.454528e+02
   1.652118e+02  -1.328996e+01
   1.506826e+02   2.321607e+02
  -2.595767e+01   3.342566e+02
  -2.366578e+02   1.942953e+02
  -3.441661e+02  -6.528115e+01
  -2.695370e+02  -2.570033e+02
  -6.165729e+01  -2.700178e+02
   1.260275e+02  -1.403746e+02
   1.539566e+02  -7.467274e+00
   4.052246e+01   2.234281e+01
  -5.273988e+01  -5.178000e+01
  -6.620748e+00  -1.129693e+02
   1.187850e+02  -7.474886e+01
   1.507300e+02   1.850771e+01
   3.987166e+01   5.848987e+01
  -7.727373e+01  -2.288966e+00
  -4.036383e+01  -8.293301e+01
   1.398050e+02  -8.340911e+01
   2.855955e+02   1.798234e+01
   2.490603e+02   1.584451e+02
   3.401165e+01   2.522725e+02
  -1.958964e+02   2.357685e+02
  -2.660164e+02   1.034114e+02
  -1.458081e+02  -4.659573e+01
   2.462427e+01  -8.542874e+01
   6.926180e+01  -7.469178e-01
  -4.407148e+01   8.315360e+01
  -1.787518e+02   4.018080e+01
  -1.902099e+02  -1.009928e+02
  -6.041837e+01  -1.933372e+02
   8.827940e+01  -1.432640e+02
   1.300163e+02  -2.212909e+01
   5.465657e+01   3.660468e+01
  -3.467475e+01  -1.458531e+01
  -2.648223e+01  -9.880254e+01
   8.851065e+01  -1.104492e+02
   1.992678e+02  -1.301497e+01
   1.769290e+02   1.296696e+02
   1.044506e+01   2.064792e+02
  -1.577102e+02   1.500856e+02
  -1.766211e+02   6.550923e+00
  -5.512119e+01  -1.014316e+02
   6.462946e+01  -9.806879e+01
   7.439972e+01  -2.324212e+01
   5.558734e+00   2.608013e+01
  -3.295186e+01   1.166712e+01
   8.853746e+00  -1.929625e+01
   8.241603e+01   3.856011e+00
   9.593024e+01   8.954241e+01
   7.176555e+00   1.669617e+02
  -1.383873e+02   1.453425e+02
  -2.319734e+02   8.369139e+00
  -1.856222e+02  -1.586132e+02
  -3.008406e+01  -2.281034e+02
   1.054021e+02  -1.568671e+02
   1.304150e+02  -2.420254e+01
   6.940127e+01   4.888330e+01
   2.971486e+01   3.120972e+01
   5.240997e+01  -1.414473e+01
   8.433436e+01  -5.200119e+00
   5.076106e+01   5.636736e+01
  -4.202420e+01   9.908257e+01
  -1.158343e+02   5.923621e+01
  -9.811817e+01  -4.444915e+01
   1.832141e+01  -1.216370e+02
   1.539645e+02  -8.329331e+01
   1.962285e+02   6.189762e+01
   8.602977e+01   2.038188e+02
  -1.151655e+02   2.172135e+02
  -2.601627e+02   8.008585e+01
  -2.415165e+02  -8.907759e+01
  -9.986386e+01  -1.671539e+02
   3.926201e+01  -1.372054e+02
   8.756611e+01  -7.808810e+01
   6.974724e+01  -6.785652e+01
   6.141098e+01  -9.075397e+01
   9.158620e+01  -7.537927e+01
   1.278975e+02   1.974725e+01
   1.151115e+02   1.497103e+02
   2.544578e+01   2.189324e+02
  -9.902145e+01   1.631300e+02
  -1.678800e+02   1.130947e+01
  -1.240845e+02  -1.239604e+02
  -8.979487e+00  -1.542065e+02
   7.303677e+01  -8.111746e+01
   6.192402e+01   1.186511e+01
  -2.291371e+00   4.967540e+01
  -2.361412e+01   3.221119e+01
   2.893789e+01   1.213817e+01
   8.204882e+01   1.956846e+01
   4.730312e+01   4.168026e+01
  -7.155705e+01   3.924585e+01
  -1.643884e+02  -2.643958e+00
  -1.420067e+02  -5.993939e+01
  -1.929385e+00  -9.252464e+01
   1.258155e+02  -7.067733e+01
   1.397673e+02  -6.489340e+00
   4.235663e+01   4.657837e+01
  -5.893613e+01   4.034977e+01
  -7.467470e+01  -1.943187e+01
  -1.374104e+01  -7.085593e+01
   4.988695e+01  -6.165527e+01
   6.658896e+01   4.204669e-01
   5.194130e+01   4.933085e+01
   4.461961e+01   4.435172e+01
   5.449977e+01   3.503465e+00
   6.227544e+01   1.809984e+00
   3.922225e+01   6.775283e+01
  -2.883906e+01   1.452218e+02
  -1.192751e+02   1.385193e+02
  -1.690064e+02   2.943286e+01
  -1.220708e+02  -9.280398e+01
  -1.365239e+00  -1.271735e+02
   8.901743e+01  -6.403469e+01
   5.989960e+01   1.469539e+01
  -5.767871e+01   2.219708e+01
  -1.312354e+02  -4.150325e+01
  -6.936413e+01  -1.053397e+02
   8.088854e+01  -1.068757e+02
   1.853402e+02  -4.379699e+01
   1.523597e+02   4.002786e+01
   3.014223e+01   8.419890e+01
  -6.223700e+01   6.172329e+01
  -4.698994e+01   7.238722e-01
   4.049618e+01  -2.802197e+01
   9.065813e+01   2.173085e+01
   3.461688e+01   1.140795e+02
  -8.404296e+01   1.510703e+02
  -1.573419e+02   6.352701e+01
  -1.219487e+02  -9.398061e+01
  -1.261439e+01  -1.889448e+02
   8.048843e+01  -1.368530e+02
   1.005885e+02   1.118626e+01
   5.548778e+01   1.166049e+02
  -8.290327e+00   1.008411e+02
  -4.802436e+01   1.527888e+01
  -4.528121e+01  -3.171038e+01
  -1.787703e+01  -8.388786e+00
  -5.335962e+00   1.831525e+01
  -2.819801e+01  -1.798489e+01
  -5.697709e+01  -8.729499e+01
  -3.223332e+01  -1.038034e+02
   5.396987e+01  -4.071125e+01
   1.325073e+02   3.911058e+01
   1.177939e+02   6.898124e+01
   1.406883e+01   5.139798e+01
  -8.103966e+01   2.403144e+01
  -8.361135e+01   4.822636e+00
  -1.465497e+01  -1.132815e+01
   3.477966e+01  -2.048587e+01
   1.770011e+01  -1.295595e+01
  -1.607082e+01   4.228139e+00
   3.889707e+00   4.912587e+00
   6.573491e+01  -2.319828e+00
   8.955824e+01   2.108833e+01
   1.849312e+01   8.138534e+01
  -1.059098e+02   1.165166e+02
  -1.836946e+02   6.265271e+01
  -1.468137e+02  -6.230229e+01
  -2.909522e+01  -1.579315e+02
   8.091510e+01  -1.487323e+02
   1.139695e+02  -6.007816e+01
   7.741428e+01   2.061081e+01
   2.392539e+01   3.676692e+01
   1.259739e+00   1.125447e+01
   1.225504e+01   6.818925e+00
   2.985995e+01   4.638037e+01
   1.783621e+01   8.790003e+01
  -2.972730e+01   6.989419e+01
  -7.757227e+01  -1.597112e+01
  -7.802511e+01  -1.015950e+02
  -1.079333e+01  -1.095162e+02
   7.634498e+01  -2.909287e+01
   1.026521e+02   6.777219e+01
   3.594953e+01   1.017740e+02
  -6.415135e+01   6.030944e+01
  -9.978140e+01  -9.851126e+00
  -4.154016e+01  -5.571326e+01
   3.339108e+01  -5.699610e+01
   3.726053e+01  -2.646088e+01
  -2.689179e+01   5.556735e+00
  -6.737513e+01   8.409618e+00
  -1.778237e+01  -2.642803e+01
   7.542954e+01  -6.304812e+01
   1.161762e+02  -5.289093e+01
   6.775876e+01   1.670417e+01
  -1.560011e+01   8.250512e+01
  -5.784064e+01   7.820097e+01
  -4.275144e+01   6.692119e+00
  -4.021647e+00  -5.388794e+01
   2.682020e+01  -4.643204e+01
   3.792204e+01   1.278017e+01
   2.599845e+01   5.412451e+01
  -4.414523e+00   3.748429e+01
  -3.333942e+01  -7.398472e+00
  -3.894285e+01  -2.508424e+01
  -1.937789e+01  -4.327717e+00
   3.488178e+00   1.897809e+01
   5.337222e+00   6.680434e+00
  -2.435473e+00  -3.335166e+01
   5.134900e+00  -5.195884e+01
   2.960860e+01  -1.930753e+01
   3.886688e+01   3.796084e+01
   1.011031e+01   6.070341e+01
  -3.987257e+01   2.459635e+01
  -6.034628e+01  -3.463337e+01
  -1.805630e+01  -6.111384e+01
   5.566478e+01  -3.494571e+01
   9.160776e+01   1.394447e+01
   4.976736e+01   4.467161e+01
  -2.981802e+01   4.492772e+01
  -6.641780e+01   2.527877e+01
  -2.747123e+01   3.857944e+00
   3.245904e+01  -3.989029e+00
   3.645988e+01   8.980726e+00
  -2.313572e+01   2.862234e+01
  -7.938454e+01   2.279093e+01
