
 $NMID
 id='ANONYMOUS ', fmtdat='(2E16.6)'
 volume=1.0
 tramp=1.0
 $END
   3.404363e+03  -1.420777e+02
   2.212616e+03   1.769153e+03
  -1.460811e+02   2.161261e+03
  -1.385491e+03   1.110480e+03
  -9.472108e+02  -3.464897e+00
   1.269274e+02  -2.766427e+02
   4.943698e+02   1.836888e+02
   4.246217e+01   6.630281e+02
  -5.201181e+02   6.221912e+02
  -7.043894e+02   6.441663e+01
  -4.831847e+02  -5.813749e+02
   4.543018e+01  -6.993408e+02
   3.888231e+02  -1.778067e+02
   2.830933e+02   4.821686e+02
  -1.482668e+02   5.817848e+02
  -4.365296e+02   2.671123e+01
  -2.804237e+02  -5.203746e+02
   1.638548e+02  -6.146134e+02
   4.784844e+02  -2.193370e+02
   4.049918e+02   2.144545e+02
   1.000024e+02   3.652536e+02
  -1.415131e+02   2.401917e+02
  -9.838232e+01   6.809235e+01
   1.578491e+02   5.843626e+01
   2.924980e+02   2.222245e+02
   3.986519e+01   3.518040e+02
  -4.398911e+02   2.094405e+02
  -6.381396e+02  -1.510463e+02
  -2.690646e+02  -3.880224e+02
   3.190375e+02  -2.657184e+02
   5.391379e+02   9.891562e+01
   2.200266e+02   3.758934e+02
  -2.523697e+02   3.727695e+02
  -4.592769e+02   1.422028e+02
  -3.370036e+02  -1.585094e+02
  -8.663902e+01  -3.328692e+02
   5.997271e+01  -2.095853e+02
   2.748046e+01   1.051371e+02
  -1.778768e+02   2.239203e+02
  -2.472461e+02  -9.206619e+01
  -7.723092e+01  -5.144747e+02
   2.500666e+02  -4.992296e+02
   3.812558e+02  -1.601783e+01
   1.641187e+02   3.524800e+02
  -1.695973e+02   1.899813e+02
  -2.216644e+02  -2.514209e+02
   8.534808e+01  -4.028976e+02
   4.448103e+02  -7.400618e+01
   4.839060e+02   3.460020e+02
   1.524061e+02   4.891439e+02
  -2.951924e+02   2.802141e+02
  -5.139507e+02  -5.031313e+01
  -3.384695e+02  -2.633752e+02
   6.377658e+01  -2.523383e+02
   3.146059e+02  -8.277272e+01
   2.221925e+02   6.671847e+01
  -1.741439e+01   4.916307e+01
  -7.734936e+01  -6.424203e+01
   9.954069e+01  -8.953506e+01
   2.451806e+02   4.600235e+01
   1.270686e+02   2.122231e+02
  -1.523029e+02   2.496423e+02
  -3.212357e+02   1.131360e+02
  -2.330779e+02  -9.416598e+01
   3.332755e+01  -2.832021e+02
   2.656904e+02  -3.277359e+02
   3.438431e+02  -1.631898e+02
   2.391558e+02   1.462462e+02
   5.429732e+01   3.584833e+02
  -5.593941e+01   3.227333e+02
  -5.475371e+01   1.561158e+02
  -4.480389e+01   7.188139e+01
  -1.142131e+02   9.816949e+01
  -2.216527e+02   6.581876e+01
  -2.297218e+02  -9.906824e+01
  -9.804401e+01  -2.431928e+02
   8.250397e+01  -1.942246e+02
   1.874907e+02   2.428762e+01
   1.467279e+02   2.282112e+02
  -3.395912e+01   2.466292e+02
  -2.392681e+02   7.443263e+01
  -3.063982e+02  -1.613084e+02
  -1.626174e+02  -2.964569e+02
   6.071437e+01  -2.634389e+02
   1.759508e+02  -1.428381e+02
   1.461477e+02  -5.627089e+01
   1.326738e+02  -5.088702e+01
   2.557709e+02  -3.924148e+01
   3.833877e+02   8.470675e+01
   2.964579e+02   2.793124e+02
  -3.388031e+01   4.150537e+02
  -3.588124e+02   3.766608e+02
  -4.476465e+02   1.731810e+02
  -2.772993e+02  -8.978973e+01
  -3.089579e+01  -2.480379e+02
   9.184209e+01  -2.033353e+02
   2.424451e+01  -3.999731e+01
  -1.052895e+02   5.144514e+01
  -1.389412e+02  -2.702898e+01
  -2.378098e+01  -1.457981e+02
   1.156236e+02  -1.196925e+02
   1.203769e+02   4.321738e+01
  -1.521049e+01   1.324839e+02
  -1.548327e+02   9.093341e+00
  -1.426219e+02  -2.227549e+02
   2.437565e+01  -3.252205e+02
   2.271196e+02  -1.927463e+02
   3.283774e+02   6.267064e+01
   2.639581e+02   2.446912e+02
   6.717799e+01   2.594613e+02
  -1.157255e+02   1.403968e+02
  -1.511125e+02   1.117945e+01
  -4.215989e+01  -1.853977e+01
   4.983829e+01   5.125347e+01
   3.779651e+00   1.094935e+02
  -1.158094e+02   7.238306e+01
  -1.466299e+02  -1.995001e+01
  -3.505528e+01  -5.188596e+01
   7.561108e+01   5.797159e+00
   3.725228e+01   8.186442e+01
  -1.389711e+02   8.013724e+01
  -2.840408e+02  -1.913786e+01
  -2.397990e+02  -1.560740e+02
  -2.836124e+01  -2.472702e+02
   1.930252e+02  -2.278595e+02
   2.573230e+02  -9.658043e+01
   1.376299e+02   4.620740e+01
  -2.570458e+01   8.190474e+01
  -6.607631e+01  -1.945092e+00
   4.397639e+01  -8.161192e+01
   1.767601e+02  -3.811254e+01
   1.843809e+02   9.676974e+01
   5.902242e+01   1.834007e+02
  -8.490684e+01   1.350215e+02
  -1.210947e+02   1.970164e+01
  -4.913252e+01  -3.480686e+01
   3.625230e+01   1.730734e+01
   2.467044e+01   9.933949e+01
  -8.865632e+01   1.109227e+02
  -1.971376e+02   1.369730e+01
  -1.724063e+02  -1.250195e+02
  -1.153401e+01  -1.991556e+02
   1.493146e+02  -1.448487e+02
   1.689149e+02  -7.228856e+00
   5.297073e+01   9.682886e+01
  -6.235946e+01   9.405305e+01
  -7.082484e+01   2.317624e+01
  -5.196417e+00  -2.598462e+01
   3.250086e+01  -1.307120e+01
  -7.917972e+00   2.002490e+01
  -8.110772e+01  -2.125789e+00
  -9.564726e+01  -8.646649e+01
  -7.813479e+00  -1.649412e+02
   1.367137e+02  -1.454155e+02
   2.274065e+02  -9.123998e+00
   1.832362e+02   1.543628e+02
   3.224019e+01   2.209895e+02
  -9.951304e+01   1.531489e+02
  -1.252402e+02   2.739751e+01
  -7.106970e+01  -4.421372e+01
  -3.182454e+01  -2.979056e+01
  -5.340717e+01   1.310077e+01
  -8.281752e+01   4.558953e+00
  -5.149239e+01  -5.497900e+01
   3.742565e+01  -9.838932e+01
   1.145098e+02  -6.144814e+01
   9.914533e+01   4.072113e+01
  -1.506969e+01   1.208467e+02
  -1.511185e+02   8.251860e+01
  -1.916233e+02  -6.185913e+01
  -7.974053e+01  -1.994766e+02
   1.172347e+02  -2.070495e+02
   2.540052e+02  -7.617977e+01
   2.350825e+02   8.722630e+01
   9.664413e+01   1.630335e+02
  -3.763434e+01   1.331207e+02
  -8.457589e+01   7.527889e+01
  -6.972713e+01   6.673045e+01
  -6.010755e+01   8.916676e+01
  -8.768581e+01   7.485678e+01
  -1.254380e+02  -1.660167e+01
  -1.139220e+02  -1.464626e+02
  -2.359037e+01  -2.151372e+02
   9.638208e+01  -1.591634e+02
   1.633124e+02  -1.213171e+01
   1.214436e+02   1.195178e+02
   1.124943e+01   1.477079e+02
  -6.834886e+01   7.733305e+01
  -5.737700e+01  -1.107707e+01
   3.030323e+00  -4.806857e+01
   2.449640e+01  -3.391584e+01
  -2.525758e+01  -1.294470e+01
  -7.816694e+01  -1.722151e+01
  -4.704030e+01  -3.777799e+01
   7.101355e+01  -3.606093e+01
   1.651114e+02   4.043702e+00
   1.383143e+02   6.118098e+01
  -2.188571e-01   9.373185e+01
  -1.275570e+02   7.025803e+01
  -1.382831e+02   5.749843e+00
  -4.187811e+01  -4.685856e+01
   5.714627e+01  -3.977571e+01
   7.177872e+01   1.903201e+01
   1.392471e+01   6.980745e+01
  -4.647637e+01   6.014891e+01
  -6.368336e+01  -6.371008e-01
  -4.982717e+01  -4.739811e+01
  -4.234216e+01  -3.972163e+01
  -5.292895e+01  -1.163591e+00
  -6.271274e+01  -1.229766e+00
  -4.151610e+01  -6.831569e+01
   2.555735e+01  -1.441016e+02
   1.176573e+02  -1.382646e+02
   1.688423e+02  -3.306642e+01
   1.230470e+02   8.956495e+01
   2.379288e+00   1.260644e+02
  -8.675069e+01   6.606125e+01
  -5.871524e+01  -1.045287e+01
   5.388389e+01  -2.030770e+01
   1.272439e+02   3.756820e+01
   6.789453e+01   9.880512e+01
  -7.800474e+01   1.037897e+02
  -1.795622e+02   4.051585e+01
  -1.503799e+02  -3.861624e+01
  -2.930962e+01  -8.083863e+01
   6.139950e+01  -5.962089e+01
   4.641435e+01   7.072621e-01
  -3.755522e+01   2.889312e+01
  -8.790234e+01  -1.927279e+01
  -3.746534e+01  -1.114622e+02
   7.735039e+01  -1.479396e+02
   1.516935e+02  -6.367656e+01
   1.200586e+02   8.952394e+01
   1.501192e+01   1.840146e+02
  -7.934767e+01   1.338670e+02
  -9.808215e+01  -9.590533e+00
  -5.312876e+01  -1.128185e+02
   1.033154e+01  -9.689037e+01
   4.701154e+01  -1.461344e+01
   4.367415e+01   3.028808e+01
   1.703057e+01   7.305141e+00
   4.369100e+00  -1.626931e+01
   2.674476e+01   1.889450e+01
   5.319933e+01   8.426910e+01
   3.173135e+01   9.957916e+01
  -5.186417e+01   4.072696e+01
  -1.296315e+02  -3.690693e+01
  -1.183362e+02  -6.823413e+01
  -1.790167e+01  -5.115149e+01
   7.957746e+01  -2.426345e+01
   8.249750e+01  -6.408907e+00
   1.510067e+01   1.129565e+01
  -3.327473e+01   2.135900e+01
  -1.695098e+01   1.260780e+01
   1.553057e+01  -3.484081e+00
  -4.735025e+00  -5.171941e+00
  -6.702124e+01   1.930238e+00
  -9.026314e+01  -2.088311e+01
  -1.649684e+01  -7.794793e+01
   1.073084e+02  -1.139747e+02
   1.790561e+02  -6.116647e+01
   1.410581e+02   5.875416e+01
   2.839238e+01   1.536141e+02
  -7.640039e+01   1.455013e+02
  -1.100049e+02   5.951064e+01
  -7.636203e+01  -1.874372e+01
  -2.504301e+01  -3.450805e+01
  -1.712793e+00  -1.042093e+01
  -1.245209e+01  -6.589503e+00
  -2.879562e+01  -4.562396e+01
  -1.786006e+01  -8.602990e+01
   2.793733e+01  -6.733533e+01
   7.533950e+01   1.482823e+01
   7.548806e+01   9.742836e+01
   1.144817e+01   1.052721e+02
  -7.333129e+01   2.986122e+01
  -1.004981e+02  -6.324967e+01
  -3.690420e+01  -9.810438e+01
   6.206852e+01  -6.032342e+01
   9.800506e+01   8.262023e+00
   4.259825e+01   5.419135e+01
  -3.230585e+01   5.762563e+01
  -3.594591e+01   2.721539e+01
   2.612244e+01  -5.363102e+00
   6.464455e+01  -7.378645e+00
   1.677552e+01   2.577811e+01
  -7.265178e+01   6.158096e+01
  -1.107858e+02   5.082331e+01
  -6.520940e+01  -1.544762e+01
   1.336593e+01  -8.030852e+01
   5.402298e+01  -7.797467e+01
   4.113267e+01  -9.308881e+00
   5.169279e+00   5.077265e+01
  -2.412444e+01   4.439465e+01
  -3.579365e+01  -1.264419e+01
  -2.662577e+01  -5.065284e+01
   1.416756e+00  -3.538080e+01
   3.193697e+01   5.834644e+00
   3.942923e+01   2.324601e+01
   1.996512e+01   3.549814e+00
  -2.869052e+00  -1.756429e+01
  -6.389242e+00  -5.635672e+00
   2.457687e+00   3.083965e+01
  -3.157343e+00   4.851877e+01
  -2.625598e+01   1.828093e+01
  -3.803319e+01  -3.426025e+01
  -1.052187e+01  -5.754804e+01
   3.986155e+01  -2.463849e+01
   6.018826e+01   3.267324e+01
   1.833325e+01   5.874963e+01
  -5.430217e+01   3.492124e+01
  -8.877281e+01  -1.078007e+01
  -4.885223e+01  -4.107296e+01
   2.600944e+01  -4.301365e+01
   6.175260e+01  -2.671135e+01
   2.691364e+01  -6.801076e+00
  -2.790104e+01   3.152431e+00
  -3.271028e+01  -7.249942e+00
   2.205240e+01  -2.552773e+01
   7.506971e+01  -2.128129e+01
