
 $NMID
 id='ANONYMOUS ', fmtdat='(2E16.6)'
 volume=1.0
 tramp=1.0
 $END
   4.317299e+03  -9.104972e+01
   2.537519e+03   2.591139e+03
  -6.679430e+02   2.786949e+03
  -2.062395e+03   9.168256e+02
  -9.624448e+02  -5.788803e+02
   5.709297e+02  -5.519550e+02
   8.293462e+02   4.147822e+02
  -1.676471e+01   1.027356e+03
  -8.079777e+02   7.639726e+02
  -9.255487e+02  -9.168482e+01
  -4.812358e+02  -8.530342e+02
   2.537748e+02  -8.916840e+02
   6.391671e+02  -1.140580e+02
   3.698705e+02   7.196885e+02
  -2.780091e+02   7.491716e+02
  -5.951822e+02  -3.518760e+01
  -2.678185e+02  -6.834250e+02
   3.297085e+02  -6.488598e+02
   5.947912e+02  -9.951745e+01
   4.032138e+02   3.538987e+02
   2.314216e+01   4.452096e+02
  -2.522897e+02   2.699732e+02
  -2.152481e+02   2.830878e+01
   1.282360e+02  -6.368528e+01
   4.002378e+02   1.386232e+02
   1.714512e+02   4.321766e+02
  -4.879905e+02   3.790221e+02
  -8.369509e+02  -1.050659e+02
  -4.086823e+02  -5.527728e+02
   4.022119e+02  -4.624688e+02
   7.201562e+02   4.984167e+01
   3.231871e+02   4.752232e+02
  -2.891254e+02   4.959081e+02
  -5.578455e+02   1.839219e+02
  -4.101602e+02  -2.333542e+02
  -6.903271e+01  -4.691192e+02
   1.972758e+02  -2.749579e+02
   1.663354e+02   2.032814e+02
  -1.956058e+02   4.199245e+02
  -4.315333e+02  -2.454465e+01
  -2.266400e+02  -6.567503e+02
   3.118561e+02  -6.805056e+02
   5.937585e+02  -2.721348e+01
   2.534566e+02   5.295919e+02
  -2.799624e+02   3.152574e+02
  -3.719742e+02  -3.226690e+02
   7.879048e+01  -5.450790e+02
   5.532089e+02  -1.313366e+02
   5.863305e+02   4.117857e+02
   1.599000e+02   5.938064e+02
  -3.849597e+02   3.433433e+02
  -6.332634e+02  -8.526984e+01
  -3.747303e+02  -3.830117e+02
   1.481420e+02  -3.535633e+02
   4.421083e+02  -5.174675e+01
   2.424556e+02   1.817693e+02
  -1.128086e+02   9.832291e+01
  -1.522615e+02  -1.516659e+02
   1.581851e+02  -1.871108e+02
   3.514623e+02   6.369119e+01
   1.526019e+02   2.925856e+02
  -2.039680e+02   2.731881e+02
  -3.443615e+02   7.822827e+01
  -2.075814e+02  -9.972689e+01
   3.108882e+01  -2.437590e+02
   2.433961e+02  -3.356406e+02
   3.536413e+02  -2.025708e+02
   2.945661e+02   1.487304e+02
   7.617432e+01   4.404114e+02
  -1.146127e+02   3.777807e+02
  -1.115401e+02   1.160545e+02
  -2.060699e+01   1.197996e+00
  -4.982380e+01   9.618909e+01
  -2.059314e+02   1.270673e+02
  -2.784447e+02  -6.076077e+01
  -1.539251e+02  -2.726931e+02
   7.583485e+01  -2.520854e+02
   2.252642e+02  -7.464316e+00
   1.917966e+02   2.449642e+02
  -1.022222e+01   2.955228e+02
  -2.661452e+02   1.192411e+02
  -3.663985e+02  -1.688177e+02
  -1.940607e+02  -3.589401e+02
   9.493179e+01  -3.139051e+02
   2.298027e+02  -1.264340e+02
   1.564071e+02  -7.518553e+00
   1.038552e+02  -3.646356e+01
   2.353345e+02  -6.899572e+01
   3.977825e+02   5.316932e+01
   3.331375e+02   2.872863e+02
  -7.925232e+00   4.430440e+02
  -3.618158e+02   4.150397e+02
  -4.867682e+02   2.004633e+02
  -3.334622e+02  -9.736299e+01
  -5.254234e+01  -2.926530e+02
   1.318058e+02  -2.506303e+02
   8.614906e+01  -2.275916e+01
  -1.078123e+02   1.099347e+02
  -1.948354e+02  -4.959899e+00
  -5.408242e+01  -1.945029e+02
   1.552037e+02  -1.738874e+02
   1.767434e+02   6.044225e+01
  -1.693718e+01   1.908466e+02
  -1.946980e+02   3.223157e+01
  -1.637159e+02  -2.497337e+02
   3.595297e+01  -3.528648e+02
   2.412863e+02  -1.939458e+02
   3.332326e+02   6.508566e+01
   2.764168e+02   2.473449e+02
   8.938207e+01   2.711871e+02
  -1.198730e+02   1.617384e+02
  -1.797700e+02   1.789328e+01
  -5.898264e+01  -3.344344e+01
   6.916410e+01   4.100762e+01
   2.759173e+01   1.250923e+02
  -1.256825e+02   9.831816e+01
  -1.785750e+02  -1.690739e+01
  -5.646340e+01  -7.562312e+01
   8.266795e+01  -1.578583e+01
   5.632771e+01   7.712274e+01
  -1.244968e+02   9.116350e+01
  -2.841610e+02   9.353763e-01
  -2.643009e+02  -1.441225e+02
  -5.725771e+01  -2.605111e+02
   1.917652e+02  -2.628426e+02
   2.879344e+02  -1.219468e+02
   1.691449e+02   5.766545e+01
  -2.857018e+01   1.120900e+02
  -9.170339e+01   8.210270e+00
   3.447399e+01  -1.020858e+02
   1.972356e+02  -6.076953e+01
   2.142961e+02   1.031108e+02
   6.780800e+01   2.106351e+02
  -9.758486e+01   1.609588e+02
  -1.473843e+02   2.791054e+01
  -6.947643e+01  -4.430522e+01
   3.096683e+01  -3.462004e+00
   3.701387e+01   8.593915e+01
  -7.452282e+01   1.154626e+02
  -1.985047e+02   2.674600e+01
  -1.899993e+02  -1.263040e+02
  -2.028152e+01  -2.192392e+02
   1.643229e+02  -1.633975e+02
   1.943691e+02  -4.493637e+00
   6.572620e+01   1.163737e+02
  -6.804518e+01   1.118714e+02
  -8.560131e+01   2.794587e+01
  -1.724237e+01  -2.812520e+01
   2.487393e+01  -1.745671e+01
  -7.339469e+00   1.198770e+01
  -7.253096e+01  -4.183254e+00
  -9.134113e+01  -8.134042e+01
  -1.649175e+01  -1.612399e+02
   1.285551e+02  -1.542485e+02
   2.367993e+02  -2.377861e+01
   2.018313e+02   1.536372e+02
   4.062715e+01   2.376804e+02
  -1.105237e+02   1.685136e+02
  -1.388500e+02   2.651262e+01
  -7.137164e+01  -5.553902e+01
  -2.772432e+01  -3.545089e+01
  -5.060145e+01   1.136452e+01
  -7.919029e+01   4.418910e+00
  -4.376273e+01  -5.243130e+01
   4.123198e+01  -9.167857e+01
   1.063868e+02  -5.629854e+01
   9.111080e+01   3.979697e+01
  -1.328191e+01   1.168074e+02
  -1.457165e+02   8.872745e+01
  -1.998551e+02  -5.121160e+01
  -1.005799e+02  -2.021961e+02
   1.069755e+02  -2.300202e+02
   2.645765e+02  -9.850460e+01
   2.563019e+02   8.441969e+01
   1.084697e+02   1.768741e+02
  -3.863799e+01   1.465142e+02
  -9.213965e+01   8.321390e+01
  -7.612692e+01   6.739361e+01
  -6.611263e+01   9.139837e+01
  -9.475155e+01   7.662819e+01
  -1.323571e+02  -1.989212e+01
  -1.204037e+02  -1.533812e+02
  -2.977834e+01  -2.269303e+02
   9.858296e+01  -1.706396e+02
   1.740877e+02  -1.822742e+01
   1.345345e+02   1.221432e+02
   1.669872e+01   1.578923e+02
  -6.680705e+01   8.744165e+01
  -6.193831e+01  -2.398750e+00
  -4.748399e+00  -4.357160e+01
   1.375896e+01  -3.240569e+01
  -3.332958e+01  -1.569041e+01
  -8.079677e+01  -2.348102e+01
  -4.599122e+01  -3.969346e+01
   6.434819e+01  -3.690330e+01
   1.580057e+02  -1.731850e-01
   1.415747e+02   5.218503e+01
   1.169696e+01   8.953770e+01
  -1.200637e+02   7.356854e+01
  -1.413367e+02   1.232147e+01
  -4.499237e+01  -4.201422e+01
   6.113943e+01  -3.749859e+01
   7.437834e+01   2.077374e+01
   7.769020e+00   6.993699e+01
  -5.459082e+01   5.894337e+01
  -6.306802e+01  -2.071578e+00
  -4.476047e+01  -4.872391e+01
  -4.556612e+01  -4.191089e+01
  -6.115817e+01  -2.738397e+00
  -6.534668e+01  -2.083054e+00
  -3.514656e+01  -6.762703e+01
   3.304285e+01  -1.461056e+02
   1.170598e+02  -1.394742e+02
   1.652955e+02  -3.055519e+01
   1.230364e+02   9.334518e+01
   3.879244e+00   1.282763e+02
  -8.915677e+01   6.082558e+01
  -6.095660e+01  -1.699381e+01
   5.912477e+01  -2.315363e+01
   1.356185e+02   4.243972e+01
   7.676011e+01   1.072682e+02
  -7.841167e+01   1.147868e+02
  -1.876589e+02   5.383694e+01
  -1.604383e+02  -3.434026e+01
  -3.636222e+01  -8.702129e+01
   6.180154e+01  -6.814865e+01
   4.877900e+01  -4.533795e+00
  -4.123012e+01   2.807874e+01
  -9.270511e+01  -2.412065e+01
  -3.338766e+01  -1.218085e+02
   9.250698e+01  -1.551001e+02
   1.674019e+02  -5.954330e+01
   1.246661e+02   1.020910e+02
   9.935004e+00   1.962092e+02
  -8.412035e+01   1.410024e+02
  -1.037182e+02  -7.582448e+00
  -6.017818e+01  -1.154906e+02
   1.379296e+00  -1.038491e+02
   4.617126e+01  -1.980925e+01
   5.020177e+01   3.050334e+01
   2.489479e+01   8.432096e+00
   4.613421e+00  -1.961080e+01
   2.240059e+01   1.518198e+01
   5.626186e+01   8.846916e+01
   3.795224e+01   1.106456e+02
  -4.968067e+01   4.627604e+01
  -1.363948e+02  -3.915692e+01
  -1.270825e+02  -7.274609e+01
  -1.609252e+01  -5.280017e+01
   8.614148e+01  -2.237072e+01
   8.770560e+01  -5.957511e+00
   1.305270e+01   8.953016e+00
  -3.807091e+01   2.167739e+01
  -1.666290e+01   1.710982e+01
   1.906489e+01  -1.837877e+00
  -5.146982e+00  -8.901936e+00
  -7.051952e+01  -5.968187e+00
  -8.908559e+01  -2.490533e+01
  -9.212872e+00  -8.167885e+01
   1.162986e+02  -1.122434e+02
   1.862164e+02  -5.758478e+01
   1.417388e+02   6.901867e+01
   2.338927e+01   1.629340e+02
  -8.179883e+01   1.486814e+02
  -1.137771e+02   5.711252e+01
  -7.892307e+01  -2.324445e+01
  -2.350470e+01  -3.574203e+01
   1.974664e+00  -8.340229e+00
  -1.106606e+01  -3.765721e+00
  -3.300897e+01  -4.645405e+01
  -2.165760e+01  -9.111658e+01
   3.081192e+01  -7.155852e+01
   8.063309e+01   1.949106e+01
   7.506402e+01   1.082615e+02
   3.179519e+00   1.105135e+02
  -8.217225e+01   2.312611e+01
  -1.025038e+02  -7.439506e+01
  -3.228726e+01  -1.029380e+02
   6.647703e+01  -5.671352e+01
   9.788674e+01   1.095734e+01
   3.881932e+01   5.109339e+01
  -3.351126e+01   5.191912e+01
  -3.237591e+01   2.651614e+01
   3.223245e+01  -2.834501e+00
   6.936933e+01  -6.855671e+00
   1.656693e+01   2.617036e+01
  -7.743434e+01   6.444498e+01
  -1.156864e+02   5.480770e+01
  -6.324990e+01  -1.508035e+01
   1.730838e+01  -8.158812e+01
   5.403156e+01  -7.687676e+01
   3.862786e+01  -4.671769e+00
  -5.448047e-01   5.517655e+01
  -2.771345e+01   4.255222e+01
  -3.672576e+01  -1.817225e+01
  -2.479101e+01  -5.400768e+01
   3.786047e+00  -3.337657e+01
   3.198054e+01   8.724178e+00
   3.864497e+01   2.138462e+01
   2.111247e+01   1.042255e+00
   5.915318e-01  -1.561476e+01
  -5.202406e+00   1.863186e+00
  -5.311375e+00   3.763473e+01
  -1.466815e+01   4.661321e+01
  -3.198728e+01   8.669940e+00
  -3.248865e+01  -4.595601e+01
  -4.844321e-01  -6.106953e+01
   4.411020e+01  -2.072135e+01
   5.715665e+01   3.946749e+01
   1.482295e+01   6.356739e+01
  -5.626292e+01   3.313812e+01
  -8.936841e+01  -1.592717e+01
  -4.834215e+01  -4.487949e+01
   2.948237e+01  -4.173232e+01
   6.520073e+01  -2.204872e+01
   2.468511e+01  -3.913704e+00
  -3.614535e+01  -5.191043e-01
  -3.766754e+01  -1.476441e+01
   2.900003e+01  -3.161723e+01
   8.919494e+01  -2.162795e+01
