
 $NMID
 id='ANONYMOUS ', fmtdat='(2E16.6)'
 volume=1.0
 tramp=1.0
 $END
  -2.200472e+03  -1.524235e+02
  -1.342394e+03  -1.036625e+03
   6.883986e+00  -1.295729e+03
   7.520503e+02  -9.249452e+02
   6.250311e+02  -2.948574e+02
   9.241826e+01   3.736506e+01
  -1.616032e+02  -4.517840e+01
  -2.713212e+01  -3.215578e+02
   2.524365e+02  -3.668787e+02
   3.951306e+02  -8.445048e+01
   2.609112e+02   3.195665e+02
   6.020676e+01   4.045193e+02
  -1.396788e+02   1.321367e+02
  -1.638459e+02  -2.473530e+02
   1.932912e+01  -3.390026e+02
   2.095025e+02  -1.108857e+02
   2.000764e+02   2.665164e+02
  -3.002816e+01   3.718342e+02
  -2.632527e+02   2.027849e+02
  -2.798115e+02  -7.289133e+01
  -1.101527e+02  -2.152716e+02
   6.493122e+01  -1.748536e+02
   4.240693e+01  -7.332490e+01
  -1.158106e+02  -7.025991e+01
  -1.783281e+02  -1.709732e+02
   5.117214e+00  -2.208381e+02
   2.954934e+02  -1.016683e+02
   3.918686e+02   9.930793e+01
   1.632303e+02   1.982913e+02
  -1.746244e+02   1.185611e+02
  -3.096792e+02  -6.634404e+01
  -1.344026e+02  -2.073782e+02
   1.491106e+02  -2.246266e+02
   2.859822e+02  -9.520555e+01
   2.126108e+02   8.400510e+01
   6.705317e+01   1.939220e+02
  -1.246663e+00   1.222876e+02
   4.166600e+01  -5.200183e+01
   9.339294e+01  -8.688608e+01
   1.209902e+02   9.012107e+01
   8.606360e+00   3.153230e+02
  -1.415917e+02   2.902311e+02
  -1.871644e+02   1.559766e+01
  -7.475554e+01  -1.783411e+02
   8.178975e+01  -7.172679e+01
   9.484895e+01   1.818788e+02
  -7.390306e+01   2.399875e+02
  -2.740711e+02   3.568666e+01
  -3.112650e+02  -2.331414e+02
  -1.162901e+02  -3.071962e+02
   1.738521e+02  -1.702545e+02
   3.295502e+02   2.996733e+01
   2.279353e+02   1.439611e+02
  -9.591384e+00   1.375998e+02
  -1.823484e+02   6.983677e+01
  -1.593159e+02   1.170270e+00
  -2.735227e+01  -1.794121e+01
   3.148156e+01   9.321209e+00
  -4.729701e+01   2.690027e+01
  -1.332433e+02  -1.859688e+01
  -8.044929e+01  -1.021049e+02
   8.595730e+01  -1.426222e+02
   2.083159e+02  -1.015198e+02
   1.695369e+02   4.034233e+01
  -2.681311e-01   1.893677e+02
  -1.858945e+02   2.428110e+02
  -2.335683e+02   1.257074e+02
  -1.491240e+02  -9.330015e+01
  -3.476363e+01  -2.254208e+02
   1.354500e+01  -2.121146e+02
   8.236751e-01  -1.176914e+02
   8.602282e+00  -7.292406e+01
   8.681470e+01  -7.573887e+01
   1.625148e+02  -3.743376e+01
   1.574483e+02   7.274791e+01
   6.445454e+01   1.602351e+02
  -5.509760e+01   1.177280e+02
  -1.132161e+02  -2.931721e+01
  -8.275109e+01  -1.503636e+02
   2.765441e+01  -1.548056e+02
   1.512620e+02  -3.744000e+01
   1.908248e+02   1.032334e+02
   1.070948e+02   1.811321e+02
  -2.289236e+01   1.655901e+02
  -9.443099e+01   1.011275e+02
  -8.861988e+01   5.556561e+01
  -9.901954e+01   4.307341e+01
  -1.805958e+02   2.207425e+01
  -2.685242e+02  -5.794291e+01
  -2.078056e+02  -1.798088e+02
   5.383430e+00  -2.729976e+02
   2.446914e+02  -2.645321e+02
   3.048541e+02  -1.267860e+02
   1.824512e+02   5.527524e+01
   1.435892e+01   1.559076e+02
  -4.580972e+01   1.267957e+02
   9.097667e+00   3.014011e+01
   8.487901e+01  -1.898616e+01
   7.962222e+01   2.950722e+01
  -1.912447e+00   8.855528e+01
  -7.821923e+01   6.204878e+01
  -6.895564e+01  -3.252332e+01
   1.383563e+01  -8.133695e+01
   9.605963e+01   1.797080e-01
   9.814958e+01   1.415535e+02
  -6.393048e-02   2.145708e+02
  -1.433616e+02   1.392290e+02
  -2.330454e+02  -2.941008e+01
  -1.881476e+02  -1.642084e+02
  -4.820251e+01  -1.753271e+02
   7.643571e+01  -9.210465e+01
   9.450821e+01  -1.185045e+01
   2.502086e+01   5.504819e-01
  -2.794493e+01  -4.212699e+01
   1.940797e+00  -7.265640e+01
   7.840533e+01  -4.273703e+01
   9.429973e+01   1.186435e+01
   2.412876e+01   2.950908e+01
  -5.004313e+01  -1.075296e+01
  -2.199001e+01  -5.814252e+01
   9.878664e+01  -5.275907e+01
   1.978905e+02   1.630784e+01
   1.700522e+02   1.076089e+02
   2.116637e+01   1.666383e+02
  -1.326630e+02   1.511333e+02
  -1.702521e+02   6.936594e+01
  -8.721484e+01  -2.134868e+01
   1.696514e+01  -4.438420e+01
   3.794324e+01   2.254958e+00
  -3.521056e+01   4.651719e+01
  -1.155615e+02   2.043689e+01
  -1.207686e+02  -6.226955e+01
  -3.925746e+01  -1.134669e+02
   5.190323e+01  -8.403471e+01
   7.706526e+01  -1.383904e+01
   2.826753e+01   1.742271e+01
  -2.584467e+01  -1.727828e+01
  -1.765759e+01  -7.004580e+01
   6.140064e+01  -7.397771e+01
   1.338771e+02  -1.069484e+01
   1.169715e+02   7.933747e+01
   1.102198e+01   1.271348e+02
  -9.348585e+01   9.883760e+01
  -1.086301e+02   1.601609e+01
  -3.583592e+01  -5.325977e+01
   3.614546e+01  -6.081173e+01
   4.136784e+01  -1.977615e+01
  -1.740128e+00   1.360310e+01
  -2.528185e+01   5.081386e+00
   4.715385e+00  -1.682342e+01
   5.847500e+01  -3.283615e+00
   7.056794e+01   5.716976e+01
   1.270037e+01   1.128700e+02
  -8.535188e+01   9.967009e+01
  -1.471611e+02   1.150694e+01
  -1.226459e+02  -9.291551e+01
  -3.127129e+01  -1.393877e+02
   5.377438e+01  -1.023939e+02
   7.659131e+01  -2.601234e+01
   4.655730e+01   2.132278e+01
   2.580769e+01   1.614703e+01
   3.903341e+01  -1.012759e+01
   5.835512e+01  -6.777107e+00
   3.804683e+01   3.384504e+01
  -2.324120e+01   6.834121e+01
  -7.672835e+01   4.924380e+01
  -6.911190e+01  -2.300530e+01
   9.354031e+00  -8.098780e+01
   1.029007e+02  -6.008347e+01
   1.317771e+02   3.845225e+01
   5.407893e+01   1.345655e+02
  -7.990550e+01   1.418279e+02
  -1.733565e+02   5.236717e+01
  -1.580902e+02  -5.532532e+01
  -6.421103e+01  -1.034566e+02
   2.455795e+01  -8.676538e+01
   5.688895e+01  -5.211839e+01
   4.622701e+01  -4.853432e+01
   3.720504e+01  -6.233451e+01
   5.458737e+01  -5.153177e+01
   7.881240e+01   1.034532e+01
   7.484946e+01   9.437335e+01
   2.385466e+01   1.414094e+02
  -5.488652e+01   1.095793e+02
  -1.045669e+02   1.249659e+01
  -8.514417e+01  -7.784897e+01
  -1.180116e+01  -1.005116e+02
   4.501533e+01  -5.535071e+01
   4.000309e+01   4.984242e+00
  -1.699358e+00   3.389849e+01
  -1.723642e+01   2.623256e+01
   1.745789e+01   1.070316e+01
   5.665884e+01   8.264654e+00
   3.719953e+01   2.037704e+01
  -4.591180e+01   2.302268e+01
  -1.147310e+02   2.615032e+00
  -9.998594e+01  -3.721919e+01
  -9.657898e-01  -6.062617e+01
   8.848904e+01  -4.781037e+01
   9.423165e+01  -5.349279e+00
   2.875092e+01   2.988562e+01
  -3.674701e+01   2.753985e+01
  -5.050029e+01  -9.631055e+00
  -1.569722e+01  -4.536512e+01
   2.516439e+01  -4.373237e+01
   4.417813e+01  -4.353532e+00
   4.173922e+01   3.036899e+01
   3.461409e+01   2.728466e+01
   3.690348e+01   2.305949e+00
   4.313141e+01  -6.413407e-01
   3.088617e+01   4.561810e+01
  -1.412083e+01   9.919294e+01
  -8.032806e+01   9.791262e+01
  -1.180515e+02   2.827441e+01
  -8.622355e+01  -5.582777e+01
  -4.341639e+00  -8.529947e+01
   5.982969e+01  -4.763147e+01
   3.899093e+01   2.561931e+00
  -3.818992e+01   1.037323e+01
  -8.762049e+01  -2.639412e+01
  -4.580122e+01  -6.513552e+01
   5.333479e+01  -6.664300e+01
   1.208600e+02  -2.908495e+01
   9.960529e+01   2.145843e+01
   1.964280e+01   5.184373e+01
  -4.058915e+01   4.030267e+01
  -3.120709e+01   2.046301e+00
   2.538604e+01  -2.099656e+01
   5.789168e+01   8.360778e+00
   2.691651e+01   6.924673e+01
  -4.392605e+01   1.012586e+02
  -9.492505e+01   4.996941e+01
  -8.078428e+01  -5.238685e+01
  -1.734450e+01  -1.198253e+02
   4.404031e+01  -9.103466e+01
   6.344932e+01   4.516021e+00
   3.697136e+01   7.461197e+01
  -5.834780e+00   6.498086e+01
  -3.215321e+01   1.021433e+01
  -2.951280e+01  -1.891499e+01
  -1.114910e+01  -3.275278e+00
  -2.931863e+00   1.121335e+01
  -1.731214e+01  -1.499904e+01
  -3.796212e+01  -5.783460e+01
  -2.478901e+01  -6.431360e+01
   3.050298e+01  -2.561635e+01
   8.490098e+01   1.873198e+01
   8.159645e+01   3.586141e+01
   1.659399e+01   2.891668e+01
  -4.721855e+01   1.794126e+01
  -5.592631e+01   8.488246e+00
  -1.346684e+01  -3.259763e+00
   1.952850e+01  -1.345904e+01
   1.137716e+01  -1.057241e+01
  -8.913429e+00   1.048758e+00
   3.444186e+00   4.788879e+00
   4.382910e+01   2.898746e-01
   5.953127e+01   1.054001e+01
   1.398377e+01   4.817278e+01
  -6.612181e+01   7.415873e+01
  -1.183221e+02   4.712657e+01
  -9.861564e+01  -2.878442e+01
  -2.491908e+01  -9.762380e+01
   4.635611e+01  -1.024281e+02
   7.197916e+01  -4.822608e+01
   5.148430e+01   6.197229e+00
   1.906710e+01   2.168247e+01
   2.585006e+00   9.006794e+00
   8.517808e+00   7.871550e+00
   1.916121e+01   3.167056e+01
   1.373587e+01   5.647547e+01
  -1.427681e+01   4.488141e+01
  -4.767135e+01  -7.667504e+00
  -5.437194e+01  -6.181861e+01
  -1.508725e+01  -6.932534e+01
   4.343952e+01  -2.344752e+01
   6.848375e+01   3.490491e+01
   3.111998e+01   6.198674e+01
  -3.606057e+01   4.267279e+01
  -6.479739e+01  -1.103601e+00
  -3.037377e+01  -3.529051e+01
   1.904001e+01  -4.174018e+01
   2.476688e+01  -2.176020e+01
  -1.671464e+01   3.884166e+00
  -4.446788e+01   9.462642e+00
  -1.408250e+01  -1.420712e+01
   4.773301e+01  -4.433903e+01
   7.809037e+01  -4.233217e+01
   4.972186e+01   4.623481e+00
  -3.865540e+00   5.423578e+01
  -3.355061e+01   5.752959e+01
  -2.788558e+01   1.375016e+01
  -7.382929e+00  -3.109824e+01
   1.107031e+01  -3.304385e+01
   2.273651e+01   2.452452e+00
   2.105047e+01   3.240260e+01
   3.373688e+00   2.611434e+01
  -2.084591e+01  -1.578940e+00
  -2.829638e+01  -1.662663e+01
  -1.373927e+01  -4.086698e+00
   5.376331e+00   1.451245e+01
   5.705085e+00   8.061020e+00
  -3.576160e+00  -1.819468e+01
  -2.228616e+00  -3.369979e+01
   1.623985e+01  -1.645633e+01
   2.822035e+01   1.998646e+01
   1.114580e+01   3.691481e+01
  -2.420313e+01   1.781429e+01
  -4.114316e+01  -1.807429e+01
  -1.454743e+01  -3.682423e+01
   3.463362e+01  -2.354570e+01
   6.044209e+01   5.090700e+00
   3.397612e+01   2.549663e+01
  -1.643993e+01   2.944123e+01
  -4.044785e+01   2.040392e+01
  -1.795201e+01   6.743299e+00
   1.730652e+01  -2.012245e+00
   2.040013e+01   2.038688e+00
  -1.425240e+01   1.517319e+01
  -4.751961e+01   1.617477e+01
