
 $NMID
 id='ANONYMOUS ', fmtdat='(2E16.6)'
 volume=1.0
 tramp=1.0
 $END
  -4.705157e+03   2.187237e+00
  -2.751420e+03  -2.883126e+03
   8.823108e+02  -3.003161e+03
   2.348855e+03  -9.148683e+02
   9.918333e+02   7.889307e+02
  -7.411218e+02   6.544473e+02
  -9.714095e+02  -4.747824e+02
   1.384019e+01  -1.170659e+03
   8.797583e+02  -8.345025e+02
   1.004534e+03   1.206931e+02
   4.517839e+02   9.253170e+02
  -2.593677e+02   9.668890e+02
  -7.079961e+02   1.368402e+02
  -4.339476e+02  -7.714497e+02
   2.767807e+02  -8.002682e+02
   6.728623e+02  -1.718233e+01
   2.926539e+02   7.242220e+02
  -3.526718e+02   6.682877e+02
  -6.199946e+02   7.741894e+01
  -4.029257e+02  -3.872968e+02
  -9.957949e+00  -4.716030e+02
   2.563041e+02  -2.782751e+02
   2.337867e+02  -1.254113e+01
  -9.707743e+01   1.101531e+02
  -4.265734e+02  -9.281565e+01
  -2.291190e+02  -4.480697e+02
   4.700246e+02  -4.635394e+02
   9.163803e+02   5.268148e+01
   4.921159e+02   5.956900e+02
  -4.011861e+02   5.587568e+02
  -8.028188e+02  -1.144154e+01
  -3.828072e+02  -5.108961e+02
   2.935716e+02  -5.571753e+02
   6.008046e+02  -2.104153e+02
   4.442820e+02   2.483690e+02
   7.101309e+01   5.114770e+02
  -2.273841e+02   3.095308e+02
  -2.068183e+02  -2.299998e+02
   1.383155e+02  -4.790549e+02
   4.813739e+02   9.935360e+00
   2.718238e+02   7.210066e+02
  -3.367092e+02   7.476853e+02
  -6.496040e+02   6.740169e-01
  -2.825529e+02  -5.994361e+02
   3.173684e+02  -3.529044e+02
   4.182534e+02   3.346022e+02
  -6.284191e+01   5.807891e+02
  -5.903543e+02   1.526691e+02
  -6.310634e+02  -4.215171e+02
  -1.778560e+02  -6.134855e+02
   4.004093e+02  -3.808009e+02
   6.648817e+02   6.068337e+01
   4.046218e+02   4.036525e+02
  -1.472507e+02   4.017832e+02
  -4.606156e+02   7.201931e+01
  -2.581694e+02  -2.077326e+02
   1.286817e+02  -1.225425e+02
   1.595322e+02   1.716301e+02
  -1.745762e+02   2.122911e+02
  -3.766491e+02  -8.232293e+01
  -1.500345e+02  -3.236475e+02
   2.187989e+02  -2.619143e+02
   3.493747e+02  -6.682196e+01
   1.930801e+02   9.349744e+01
  -2.862635e+01   2.191926e+02
  -2.243619e+02   3.264745e+02
  -3.416788e+02   2.350915e+02
  -3.025596e+02  -1.380458e+02
  -8.389579e+01  -4.535373e+02
   1.259412e+02  -4.007550e+02
   1.421219e+02  -1.122121e+02
   3.162411e+01   2.261216e+01
   3.429410e+01  -8.260264e+01
   1.888634e+02  -1.429736e+02
   2.909540e+02   4.176844e+01
   1.790015e+02   2.795318e+02
  -6.663460e+01   2.794898e+02
  -2.414681e+02   2.475123e+01
  -2.178603e+02  -2.402685e+02
  -2.374067e+00  -3.082046e+02
   2.712605e+02  -1.320065e+02
   3.760239e+02   1.655238e+02
   1.941146e+02   3.643382e+02
  -1.068928e+02   3.181417e+02
  -2.387885e+02   1.198822e+02
  -1.545647e+02  -4.553086e+00
  -9.369796e+01   3.368968e+01
  -2.250201e+02   7.404629e+01
  -4.078806e+02  -5.714870e+01
  -3.412619e+02  -2.940102e+02
  -6.376479e+00  -4.592985e+02
   3.670166e+02  -4.249216e+02
   5.063282e+02  -2.010246e+02
   3.511313e+02   9.660915e+01
   6.408419e+01   3.032170e+02
  -1.310081e+02   2.686559e+02
  -9.229955e+01   4.156146e+01
   1.069185e+02  -1.141960e+02
   2.063501e+02  -1.414525e+00
   5.840043e+01   2.038147e+02
  -1.691799e+02   1.851160e+02
  -1.933727e+02  -6.183449e+01
   1.303468e+01  -2.091590e+02
   2.039283e+02  -4.146170e+01
   1.728645e+02   2.571522e+02
  -3.223512e+01   3.630020e+02
  -2.351172e+02   1.956944e+02
  -3.319241e+02  -6.801868e+01
  -2.831962e+02  -2.433915e+02
  -9.981292e+01  -2.671932e+02
   1.124986e+02  -1.640389e+02
   1.838584e+02  -2.363156e+01
   6.438745e+01   3.491033e+01
  -7.520953e+01  -3.536543e+01
  -3.760343e+01  -1.300696e+02
   1.260969e+02  -1.096587e+02
   1.887943e+02   7.594987e+00
   6.658226e+01   7.553222e+01
  -7.910070e+01   2.243192e+01
  -5.803242e+01  -6.953228e+01
   1.211487e+02  -8.607404e+01
   2.827507e+02  -2.389181e+00
   2.720332e+02   1.347555e+02
   7.179633e+01   2.589189e+02
  -1.794848e+02   2.758589e+02
  -2.873438e+02   1.429858e+02
  -1.848124e+02  -4.897561e+01
   1.716597e+01  -1.186076e+02
   9.395885e+01  -1.459036e+01
  -2.915736e+01   1.059822e+02
  -2.002782e+02   6.729770e+01
  -2.250587e+02  -1.042201e+02
  -7.739467e+01  -2.157028e+02
   9.325207e+01  -1.680523e+02
   1.484201e+02  -3.419209e+01
   7.750917e+01   4.157802e+01
  -2.346110e+01   7.252849e+00
  -3.866153e+01  -7.924768e+01
   6.905816e+01  -1.138812e+02
   1.990537e+02  -3.333093e+01
   1.972258e+02   1.235415e+02
   2.416585e+01   2.229044e+02
  -1.683260e+02   1.713215e+02
  -2.005623e+02   9.387118e+00
  -7.044062e+01  -1.186988e+02
   6.557934e+01  -1.177459e+02
   8.587618e+01  -3.518947e+01
   2.309051e+01   2.321732e+01
  -1.666650e+01   1.963077e+01
   1.100855e+01  -3.545534e+00
   6.809904e+01   1.078731e+01
   8.621168e+01   7.835918e+01
   1.983185e+01   1.533335e+02
  -1.176848e+02   1.559744e+02
  -2.325423e+02   3.738422e+01
  -2.101831e+02  -1.424137e+02
  -5.110977e+01  -2.426722e+02
   1.078960e+02  -1.782419e+02
   1.404133e+02  -2.934669e+01
   7.295882e+01   5.829858e+01
   2.906507e+01   3.871796e+01
   5.189483e+01  -1.156590e+01
   7.756082e+01  -7.885883e+00
   3.962683e+01   4.880396e+01
  -4.212680e+01   8.493371e+01
  -9.712777e+01   5.472164e+01
  -8.204762e+01  -3.196101e+01
   1.034141e+01  -1.074892e+02
   1.355190e+02  -8.853911e+01
   1.976143e+02   4.671124e+01
   1.057028e+02   2.013638e+02
  -1.046087e+02   2.336154e+02
  -2.732279e+02   1.008826e+02
  -2.678122e+02  -8.637542e+01
  -1.173470e+02  -1.829256e+02
   3.790304e+01  -1.544635e+02
   9.720724e+01  -8.935827e+01
   8.062511e+01  -7.277495e+01
   6.831033e+01  -9.419002e+01
   9.417843e+01  -7.537112e+01
   1.308354e+02   2.200519e+01
   1.218293e+02   1.536762e+02
   3.503282e+01   2.286286e+02
  -9.731507e+01   1.777467e+02
  -1.786095e+02   2.517964e+01
  -1.403992e+02  -1.210359e+02
  -2.155359e+01  -1.623583e+02
   6.581369e+01  -9.577425e+01
   6.081896e+01  -1.565750e+00
   6.933430e+00   4.187853e+01
  -7.455412e+00   3.379315e+01
   3.706084e+01   1.789858e+01
   7.828286e+01   2.033243e+01
   4.654201e+01   3.655910e+01
  -5.934798e+01   3.987869e+01
  -1.577502e+02   9.941589e+00
  -1.492792e+02  -4.824855e+01
  -2.116300e+01  -9.058844e+01
   1.210296e+02  -7.803180e+01
   1.498924e+02  -1.620441e+01
   5.090833e+01   4.078434e+01
  -6.088381e+01   3.763416e+01
  -7.589735e+01  -1.973111e+01
  -4.754419e+00  -6.820726e+01
   5.869241e+01  -5.585263e+01
   6.332498e+01   4.377884e+00
   4.207956e+01   5.190393e+01
   4.300308e+01   4.118460e+01
   6.271518e+01   1.513603e+00
   6.610634e+01  -1.068010e-01
   3.483031e+01   6.709605e+01
  -3.197578e+01   1.467215e+02
  -1.150066e+02   1.420854e+02
  -1.625606e+02   3.274249e+01
  -1.239773e+02  -9.114052e+01
  -8.761200e+00  -1.262282e+02
   8.628600e+01  -6.070157e+01
   6.135305e+01   1.615605e+01
  -6.151512e+01   2.003769e+01
  -1.435687e+02  -4.643691e+01
  -7.980452e+01  -1.118543e+02
   8.170882e+01  -1.192937e+02
   1.986189e+02  -5.710451e+01
   1.669020e+02   3.249082e+01
   3.894218e+01   8.871633e+01
  -6.146200e+01   7.248586e+01
  -5.011903e+01   8.937374e+00
   3.939260e+01  -2.753231e+01
   9.122747e+01   2.156056e+01
   3.201421e+01   1.192587e+02
  -9.530729e+01   1.572681e+02
  -1.700207e+02   6.305733e+01
  -1.277190e+02  -1.040061e+02
  -8.332524e+00  -2.019916e+02
   8.830633e+01  -1.478400e+02
   1.062963e+02   7.053783e+00
   6.290515e+01   1.199486e+02
   5.132576e-01   1.096883e+02
  -4.555246e+01   2.133368e+01
  -5.358191e+01  -3.086161e+01
  -2.602561e+01  -7.702059e+00
  -2.918357e+00   2.251405e+01
  -2.060874e+01  -1.312250e+01
  -5.878950e+01  -8.657644e+01
  -4.552352e+01  -1.091782e+02
   4.542341e+01  -4.578148e+01
   1.409295e+02   3.889864e+01
   1.308853e+02   6.823935e+01
   1.596676e+01   4.849926e+01
  -9.053473e+01   2.254147e+01
  -8.841739e+01   8.834283e+00
  -9.428704e+00  -7.224644e+00
   3.881964e+01  -2.249396e+01
   1.280346e+01  -1.755105e+01
  -2.275035e+01   3.122745e+00
   5.777504e+00   9.991431e+00
   7.491904e+01   2.935070e+00
   9.107747e+01   2.154082e+01
   6.703864e+00   8.121062e+01
  -1.216973e+02   1.143364e+02
  -1.873326e+02   5.720329e+01
  -1.391709e+02  -6.977600e+01
  -2.206433e+01  -1.621321e+02
   8.029974e+01  -1.480709e+02
   1.126972e+02  -5.715097e+01
   7.993227e+01   2.233918e+01
   2.513809e+01   3.641538e+01
  -3.286056e+00   9.836285e+00
   9.222971e+00   3.387829e+00
   3.336629e+01   4.399918e+01
   2.485024e+01   9.010786e+01
  -2.886568e+01   7.351245e+01
  -8.345627e+01  -1.824448e+01
  -8.022987e+01  -1.111680e+02
  -3.773522e+00  -1.162057e+02
   8.622466e+01  -2.292622e+01
   1.056869e+02   7.879719e+01
   3.075473e+01   1.050440e+02
  -6.815683e+01   5.489864e+01
  -9.764713e+01  -1.294643e+01
  -3.748794e+01  -4.976073e+01
   3.127683e+01  -5.082331e+01
   2.893293e+01  -2.911009e+01
  -3.499179e+01  -3.085026e-01
  -6.793119e+01   7.046419e+00
  -1.370683e+01  -2.473696e+01
   7.746929e+01  -6.704935e+01
   1.138120e+02  -5.937069e+01
   6.339508e+01   1.184582e+01
  -1.538864e+01   8.345006e+01
  -5.291783e+01   7.883853e+01
  -3.621477e+01   3.527230e+00
  -3.560656e-01  -5.676984e+01
   2.650646e+01  -4.124091e+01
   3.732982e+01   1.958644e+01
   2.642219e+01   5.490647e+01
  -4.208890e+00   3.260225e+01
  -3.444859e+01  -8.894486e+00
  -3.948609e+01  -2.053155e+01
  -2.020246e+01  -5.687865e-01
   1.101410e+00   1.365601e+01
   6.342736e+00  -5.162331e+00
   8.288312e+00  -3.760508e+01
   1.932800e+01  -4.394114e+01
   3.433787e+01  -4.499890e+00
   2.767874e+01   4.853228e+01
  -6.348566e+00   6.160120e+01
  -4.582922e+01   1.880730e+01
  -5.497110e+01  -4.087648e+01
  -1.411434e+01  -6.372640e+01
   5.364695e+01  -3.463005e+01
   8.880586e+01   1.540821e+01
   5.060939e+01   4.434039e+01
  -2.830070e+01   4.085683e+01
  -6.598850e+01   2.033306e+01
  -2.392228e+01   4.255382e+00
   3.951013e+01   2.518220e+00
   3.918585e+01   1.746863e+01
  -3.212945e+01   3.382526e+01
  -9.525193e+01   2.085314e+01
