
 $NMID
 id='ANONYMOUS ', fmtdat='(2E16.6)'
 volume=1.0
 tramp=1.0
 $END
   3.454154e+03  -1.814633e+02
   2.180707e+03   1.805876e+03
  -3.128240e+02   2.175099e+03
  -1.537267e+03   9.911094e+02
  -8.691171e+02  -2.840475e+02
   3.274232e+02  -4.486340e+02
   6.589484e+02   2.469042e+02
   5.794122e+01   7.974436e+02
  -6.025312e+02   6.790458e+02
  -7.608288e+02   9.045798e+00
  -4.364161e+02  -6.663567e+02
   1.005769e+02  -7.194158e+02
   4.479435e+02  -1.509493e+02
   3.207463e+02   5.191800e+02
  -1.563690e+02   6.004315e+02
  -4.375577e+02   5.417705e+01
  -2.692039e+02  -5.146193e+02
   1.959487e+02  -5.522189e+02
   4.622052e+02  -1.663687e+02
   3.710492e+02   2.244103e+02
   7.353556e+01   3.511200e+02
  -1.669185e+02   2.403646e+02
  -1.580868e+02   4.417772e+01
   9.973360e+01  -2.992902e+01
   3.152594e+02   1.142818e+02
   1.455399e+02   3.299880e+02
  -3.545269e+02   3.049121e+02
  -6.634869e+02  -3.644391e+01
  -3.559456e+02  -3.928025e+02
   2.726208e+02  -3.569524e+02
   5.710889e+02   1.255994e+01
   2.857243e+02   3.602585e+02
  -1.978329e+02   4.138377e+02
  -4.456750e+02   1.823750e+02
  -3.510182e+02  -1.528652e+02
  -9.618674e+01  -3.635090e+02
   1.154374e+02  -2.359656e+02
   1.125558e+02   1.404545e+02
  -1.208211e+02   2.878332e+02
  -3.297602e+02  -8.041301e+00
  -2.063868e+02  -5.150556e+02
   2.103971e+02  -5.638779e+02
   4.534632e+02  -5.086420e+01
   2.216365e+02   3.877087e+02
  -1.961770e+02   2.556385e+02
  -2.895354e+02  -2.324760e+02
   3.565733e+01  -4.222530e+02
   4.257784e+02  -1.254043e+02
   4.859430e+02   3.046781e+02
   1.593222e+02   4.602010e+02
  -2.806419e+02   2.875936e+02
  -5.056582e+02  -3.167879e+01
  -3.306590e+02  -2.739461e+02
   8.242093e+01  -2.868667e+02
   3.386653e+02  -7.783959e+01
   2.202339e+02   1.175198e+02
  -6.281197e+01   9.266690e+01
  -1.208936e+02  -8.594007e+01
   9.915942e+01  -1.424449e+02
   2.666871e+02   2.536375e+01
   1.362501e+02   2.184238e+02
  -1.524670e+02   2.304402e+02
  -2.788999e+02   9.359860e+01
  -1.835455e+02  -6.745694e+01
   7.308853e+00  -2.077129e+02
   1.788786e+02  -2.787439e+02
   2.600022e+02  -1.826567e+02
   2.290409e+02   9.608114e+01
   8.387066e+01   3.314238e+02
  -5.169882e+01   3.152412e+02
  -7.850282e+01   1.195039e+02
  -2.668958e+01   1.155585e+01
  -4.788851e+01   6.755744e+01
  -1.550403e+02   9.388788e+01
  -2.179352e+02  -3.501854e+01
  -1.368830e+02  -2.027361e+02
   3.979142e+01  -2.017894e+02
   1.760328e+02  -1.759978e+01
   1.628401e+02   1.841478e+02
   1.360982e+00   2.345272e+02
  -2.114318e+02   9.774906e+01
  -2.974344e+02  -1.213050e+02
  -1.681500e+02  -2.692279e+02
   6.234034e+01  -2.508828e+02
   1.785232e+02  -1.163974e+02
   1.271831e+02  -2.363399e+01
   8.884321e+01  -3.556017e+01
   1.913784e+02  -5.952573e+01
   3.317713e+02   3.560221e+01
   2.844598e+02   2.207456e+02
   1.375545e+01   3.555868e+02
  -2.847244e+02   3.464843e+02
  -3.880962e+02   1.811292e+02
  -2.654872e+02  -5.966592e+01
  -5.236230e+01  -2.291549e+02
   8.599386e+01  -2.079677e+02
   5.212946e+01  -3.701796e+01
  -8.331601e+01   7.814451e+01
  -1.475818e+02   1.214252e+00
  -4.385787e+01  -1.478277e+02
   1.158601e+02  -1.370538e+02
   1.379653e+02   3.694006e+01
  -6.196179e+00   1.460752e+02
  -1.521004e+02   2.776734e+01
  -1.416304e+02  -1.962293e+02
   1.026525e+01  -2.836999e+02
   1.815689e+02  -1.655777e+02
   2.701199e+02   3.914237e+01
   2.320849e+02   1.842735e+02
   7.941073e+01   2.106330e+02
  -8.723968e+01   1.311801e+02
  -1.411823e+02   2.286753e+01
  -4.724815e+01  -2.235888e+01
   5.167465e+01   3.239728e+01
   2.624027e+01   9.681317e+01
  -9.377564e+01   8.100764e+01
  -1.397648e+02  -2.576262e+00
  -4.650710e+01  -5.070503e+01
   6.362069e+01  -1.006641e+01
   4.523208e+01   5.949196e+01
  -1.018041e+02   7.522274e+01
  -2.340814e+02   1.013110e+01
  -2.207677e+02  -1.044602e+02
  -5.479294e+01  -2.032321e+02
   1.427742e+02  -2.135129e+02
   2.226270e+02  -1.126163e+02
   1.346492e+02   3.055534e+01
  -1.521959e+01   8.288220e+01
  -6.863063e+01   8.480516e+00
   2.434319e+01  -8.071705e+01
   1.529740e+02  -5.344722e+01
   1.740489e+02   7.426497e+01
   6.402674e+01   1.638415e+02
  -6.827726e+01   1.279679e+02
  -1.112046e+02   2.742987e+01
  -5.525458e+01  -2.970412e+01
   2.225002e+01   2.637821e+00
   3.006302e+01   7.109968e+01
  -5.843920e+01   9.373896e+01
  -1.601979e+02   2.738538e+01
  -1.597837e+02  -9.372076e+01
  -2.643681e+01  -1.750069e+02
   1.253300e+02  -1.412525e+02
   1.582231e+02  -1.655363e+01
   5.907984e+01   8.806429e+01
  -5.011026e+01   9.319008e+01
  -6.585773e+01   2.842845e+01
  -1.180317e+01  -1.878380e+01
   2.112238e+01  -1.193517e+01
  -8.506558e+00   1.185377e+01
  -6.451988e+01  -4.445372e+00
  -7.836083e+01  -6.710417e+01
  -1.518784e+01  -1.319043e+02
   1.019597e+02  -1.263979e+02
   1.888617e+02  -2.467312e+01
   1.670208e+02   1.155066e+02
   4.383905e+01   1.894804e+02
  -7.987908e+01   1.423496e+02
  -1.098813e+02   2.908015e+01
  -6.068154e+01  -4.063880e+01
  -2.560363e+01  -2.763017e+01
  -4.457331e+01   1.325170e+01
  -6.664013e+01   8.497734e+00
  -3.787083e+01  -4.063208e+01
   3.175556e+01  -7.549040e+01
   8.537124e+01  -4.878288e+01
   7.307306e+01   2.838418e+01
  -9.664681e+00   9.208257e+01
  -1.167783e+02   7.454940e+01
  -1.648917e+02  -3.650219e+01
  -8.789498e+01  -1.613162e+02
   8.008474e+01  -1.899145e+02
   2.153320e+02  -8.855011e+01
   2.125287e+02   5.891196e+01
   9.501646e+01   1.371534e+02
  -2.432434e+01   1.195475e+02
  -7.020162e+01   7.465885e+01
  -6.059761e+01   6.304443e+01
  -5.260815e+01   7.806235e+01
  -7.499931e+01   6.424424e+01
  -1.052114e+02  -1.330643e+01
  -9.927472e+01  -1.212469e+02
  -3.063954e+01  -1.828843e+02
   7.285114e+01  -1.437397e+02
   1.399420e+02  -2.229512e+01
   1.138942e+02   9.490900e+01
   2.151555e+01   1.297022e+02
  -5.174909e+01   7.676944e+01
  -4.920576e+01  -1.271362e-01
  -2.189817e+00  -3.520243e+01
   1.179030e+01  -2.660415e+01
  -3.003618e+01  -1.161203e+01
  -6.892719e+01  -1.718674e+01
  -4.122277e+01  -2.979111e+01
   5.319559e+01  -3.091217e+01
   1.318716e+02  -6.330203e+00
   1.176282e+02   3.776751e+01
   1.016056e+01   7.003476e+01
  -9.780210e+01   6.433315e+01
  -1.157629e+02   1.521188e+01
  -3.806205e+01  -3.356834e+01
   4.847786e+01  -3.468604e+01
   6.294334e+01   1.251740e+01
   1.140162e+01   5.823997e+01
  -4.136158e+01   5.185835e+01
  -5.347564e+01  -3.463093e-01
  -4.216086e+01  -4.005238e+01
  -3.751452e+01  -3.307762e+01
  -4.850073e+01   2.312445e+00
  -5.484752e+01   2.485645e+00
  -3.440952e+01  -5.661641e+01
   2.104792e+01  -1.227984e+02
   9.182582e+01  -1.197005e+02
   1.343297e+02  -3.206985e+01
   1.039852e+02   6.949166e+01
   7.689651e+00   1.019928e+02
  -6.844590e+01   5.332668e+01
  -4.844572e+01  -8.527657e+00
   4.769517e+01  -1.885545e+01
   1.112860e+02   2.830353e+01
   6.413747e+01   8.242609e+01
  -6.066114e+01   9.127359e+01
  -1.512747e+02   4.801095e+01
  -1.336994e+02  -2.183712e+01
  -3.284671e+01  -6.755341e+01
   4.720775e+01  -5.791716e+01
   3.949136e+01  -7.453407e+00
  -3.106002e+01   2.226410e+01
  -7.554974e+01  -1.391749e+01
  -3.376010e+01  -9.332558e+01
   6.544984e+01  -1.314144e+02
   1.328242e+02  -6.123269e+01
   1.083423e+02   7.401018e+01
   1.729530e+01   1.609256e+02
  -6.324507e+01   1.218928e+02
  -8.526156e+01  -1.429936e+00
  -5.431484e+01  -9.225456e+01
  -1.306645e+00  -8.554194e+01
   3.711234e+01  -1.748122e+01
   4.224146e+01   2.262756e+01
   1.985333e+01   6.322296e+00
   2.161340e+00  -1.510920e+01
   1.808829e+01   1.374375e+01
   4.907095e+01   6.888372e+01
   3.668781e+01   8.420362e+01
  -3.539809e+01   3.764413e+01
  -1.123929e+02  -2.409731e+01
  -1.096051e+02  -5.051230e+01
  -1.797753e+01  -4.091013e+01
   6.874110e+01  -2.322267e+01
   7.224793e+01  -8.880957e+00
   9.836899e+00   7.669920e+00
  -3.098450e+01   1.834991e+01
  -1.219474e+01   1.191425e+01
   1.583872e+01  -2.666155e+00
  -4.471642e+00  -6.039614e+00
  -6.006498e+01  -2.535667e-01
  -7.645230e+01  -1.810866e+01
  -1.027743e+01  -6.562135e+01
   8.980533e+01  -9.552570e+01
   1.488131e+02  -5.459899e+01
   1.182703e+02   4.769557e+01
   2.728208e+01   1.288471e+02
  -5.821648e+01   1.262867e+02
  -9.079626e+01   5.464154e+01
  -6.626089e+01  -1.237801e+01
  -2.286939e+01  -2.816627e+01
  -2.318272e-01  -8.789876e+00
  -9.229419e+00  -4.022914e+00
  -2.797947e+01  -3.677791e+01
  -2.158359e+01  -7.393915e+01
   2.033364e+01  -6.061506e+01
   6.659811e+01   1.069515e+01
   6.893796e+01   8.369363e+01
   1.117071e+01   9.031831e+01
  -6.407212e+01   2.449297e+01
  -8.726081e+01  -5.502661e+01
  -3.140931e+01  -8.211729e+01
   5.150293e+01  -4.885560e+01
   8.000349e+01   5.459214e+00
   3.406671e+01   4.043821e+01
  -2.520544e+01   4.372287e+01
  -2.622190e+01   2.335475e+01
   2.701120e+01  -2.227045e+00
   5.644864e+01  -7.284657e+00
   1.372037e+01   2.109135e+01
  -6.328115e+01   5.652418e+01
  -9.492667e+01   4.942019e+01
  -5.394855e+01  -9.270461e+00
   1.018646e+01  -6.832133e+01
   4.136167e+01  -6.736030e+01
   3.125994e+01  -7.508253e+00
   3.451839e+00   4.460309e+01
  -1.963003e+01   3.697639e+01
  -3.107249e+01  -1.309489e+01
  -2.335192e+01  -4.414540e+01
   4.014540e-01  -2.825861e+01
   2.710713e+01   5.490696e+00
   3.363812e+01   1.735634e+01
   1.663165e+01   1.106865e+00
  -1.909345e+00  -1.271113e+01
  -5.232662e+00   2.470842e-01
  -1.649677e+00   2.802551e+01
  -7.939114e+00   3.897917e+01
  -2.495998e+01   1.042159e+01
  -2.977365e+01  -3.286642e+01
  -5.137211e+00  -4.897110e+01
   3.503185e+01  -1.987046e+01
   4.890140e+01   2.817063e+01
   1.491798e+01   4.982155e+01
  -4.406372e+01   3.038442e+01
  -7.397281e+01  -8.614301e+00
  -4.153349e+01  -3.409862e+01
   2.201443e+01  -3.592397e+01
   5.270000e+01  -2.187722e+01
   2.114130e+01  -4.303327e+00
  -2.879920e+01   2.420521e+00
  -3.208946e+01  -9.180318e+00
   2.157346e+01  -2.637597e+01
   7.199850e+01  -2.017485e+01
