
 $NMID
 id='ANONYMOUS ', fmtdat='(2E16.6)'
 volume=1.0
 tramp=1.0
 $END
  -3.517275e+03  -8.275817e+01
  -2.219518e+03  -1.930595e+03
   2.729911e+02  -2.233723e+03
   1.507338e+03  -1.115882e+03
   9.268337e+02   3.111088e+01
  -1.939327e+02   2.809196e+02
  -5.180916e+02  -2.162890e+02
  -3.901945e+01  -7.112904e+02
   5.340771e+02  -6.520480e+02
   7.290963e+02  -4.354279e+01
   4.090383e+02   6.292997e+02
  -7.664293e+01   7.192604e+02
  -4.158120e+02   1.506203e+02
  -2.892970e+02  -5.240261e+02
   1.635412e+02  -6.071133e+02
   4.901952e+02  -7.257328e+01
   2.987952e+02   5.444016e+02
  -1.770003e+02   6.199159e+02
  -4.945969e+02   2.090491e+02
  -4.114064e+02  -2.259107e+02
  -9.748230e+01  -3.713095e+02
   1.533632e+02  -2.322344e+02
   9.717875e+01  -4.027481e+01
  -1.845718e+02  -2.705057e+01
  -3.404887e+02  -2.360450e+02
  -5.514000e+01  -4.045888e+02
   4.716673e+02  -2.633846e+02
   6.828373e+02   1.537116e+02
   2.722234e+02   4.282198e+02
  -3.646957e+02   2.918068e+02
  -5.876949e+02  -1.197027e+02
  -2.329029e+02  -4.212366e+02
   2.811558e+02  -4.195460e+02
   4.937791e+02  -1.444171e+02
   3.420037e+02   1.890379e+02
   5.974543e+01   3.576060e+02
  -9.766599e+01   1.891684e+02
  -1.740728e+01  -1.490363e+02
   1.715282e+02  -2.569307e+02
   2.928441e+02   1.200078e+02
   8.425973e+01   5.585915e+02
  -2.806294e+02   5.088884e+02
  -4.015027e+02  -1.219706e+01
  -1.533195e+02  -3.939928e+02
   2.057474e+02  -1.830765e+02
   2.353504e+02   2.958080e+02
  -1.065657e+02   4.421976e+02
  -4.792393e+02   8.644949e+01
  -5.161899e+02  -3.748751e+02
  -1.640190e+02  -5.286244e+02
   3.259974e+02  -3.063599e+02
   5.540344e+02   5.909887e+01
   3.531318e+02   3.029170e+02
  -8.172595e+01   2.717680e+02
  -3.350507e+02   7.147254e+01
  -2.176191e+02  -8.586987e+01
   4.007885e+01  -4.581054e+01
   8.107588e+01   8.421354e+01
  -1.217844e+02   1.006109e+02
  -2.675177e+02  -5.323561e+01
  -1.281248e+02  -2.249877e+02
   1.629471e+02  -2.465279e+02
   3.369129e+02  -1.198424e+02
   2.497074e+02   9.425641e+01
  -1.115250e+01   2.975898e+02
  -2.708788e+02   3.704438e+02
  -3.743853e+02   1.814530e+02
  -2.612605e+02  -1.654930e+02
  -5.787194e+01  -3.833435e+02
   5.985049e+01  -3.304749e+02
   4.900301e+01  -1.482890e+02
   2.407559e+01  -7.737455e+01
   1.096079e+02  -1.204094e+02
   2.426473e+02  -8.407348e+01
   2.602544e+02   1.062244e+02
   1.172429e+02   2.723375e+02
  -9.226481e+01   2.223045e+02
  -2.118465e+02  -2.347122e+01
  -1.599990e+02  -2.498906e+02
   3.934138e+01  -2.753237e+02
   2.620733e+02  -8.554127e+01
   3.329179e+02   1.743433e+02
   1.721564e+02   3.211787e+02
  -6.859281e+01   2.782192e+02
  -1.826307e+02   1.439251e+02
  -1.444562e+02   6.332321e+01
  -1.294428e+02   6.998269e+01
  -2.650468e+02   4.735104e+01
  -4.142070e+02  -8.664522e+01
  -3.284948e+02  -3.004048e+02
   7.497222e+00  -4.464165e+02
   3.690763e+02  -4.101291e+02
   4.887005e+02  -1.837428e+02
   3.080901e+02   1.044434e+02
   2.798746e+01   2.711957e+02
  -1.061762e+02   2.121780e+02
  -2.962971e+01   2.660727e+01
   1.224886e+02  -6.145874e+01
   1.524643e+02   3.226799e+01
   1.727736e+01   1.604067e+02
  -1.324959e+02   1.223612e+02
  -1.283202e+02  -5.782307e+01
   3.042648e+01  -1.520378e+02
   1.773451e+02  -9.835159e+00
   1.606627e+02   2.412578e+02
  -2.527579e+01   3.509312e+02
  -2.415751e+02   2.112118e+02
  -3.563082e+02  -5.772716e+01
  -2.857451e+02  -2.616280e+02
  -7.513683e+01  -2.803559e+02
   1.269469e+02  -1.520338e+02
   1.601986e+02  -7.371802e+00
   3.980570e+01   2.150814e+01
  -5.947424e+01  -5.760827e+01
  -6.473434e+00  -1.225760e+02
   1.272049e+02  -8.141598e+01
   1.591448e+02   2.252754e+01
   3.853867e+01   6.348859e+01
  -8.563572e+01  -7.025844e-01
  -4.600422e+01  -8.999066e+01
   1.428271e+02  -9.444075e+01
   3.014141e+02   1.066745e+01
   2.668553e+02   1.640431e+02
   4.270219e+01   2.686143e+02
  -2.024426e+02   2.513421e+02
  -2.754639e+02   1.079350e+02
  -1.503644e+02  -5.208566e+01
   2.794637e+01  -9.056630e+01
   7.242830e+01   3.697289e+00
  -5.061461e+01   9.043739e+01
  -1.917606e+02   3.896851e+01
  -1.954557e+02  -1.095047e+02
  -5.764043e+01  -1.965143e+02
   9.279733e+01  -1.402474e+02
   1.297481e+02  -1.697608e+01
   5.003530e+01   4.160827e+01
  -4.325842e+01  -1.377745e+01
  -3.487690e+01  -1.059230e+02
   8.937696e+01  -1.234489e+02
   2.111834e+02  -2.242282e+01
   1.902918e+02   1.325462e+02
   1.590900e+01   2.152520e+02
  -1.579765e+02   1.567109e+02
  -1.812498e+02   1.183787e+01
  -6.021042e+01  -9.928219e+01
   6.110632e+01  -1.002627e+02
   7.326573e+01  -2.679703e+01
   5.758662e+00   2.734308e+01
  -3.548857e+01   1.334934e+01
   5.233275e+00  -2.216892e+01
   8.329091e+01  -5.214607e+00
   1.075144e+02   8.396647e+01
   2.010810e+01   1.730840e+02
  -1.342026e+02   1.604660e+02
  -2.409686e+02   2.073666e+01
  -2.012496e+02  -1.546851e+02
  -4.111397e+01  -2.329385e+02
   1.038044e+02  -1.646216e+02
   1.329282e+02  -3.075774e+01
   7.217096e+01   4.762214e+01
   3.132912e+01   3.083198e+01
   5.224031e+01  -1.528740e+01
   8.447908e+01  -9.711567e+00
   5.511977e+01   5.267714e+01
  -3.642450e+01   1.028842e+02
  -1.154013e+02   6.938443e+01
  -1.051629e+02  -3.922323e+01
   1.355040e+01  -1.293082e+02
   1.599589e+02  -9.583487e+01
   2.088193e+02   5.892000e+01
   9.376228e+01   2.126996e+02
  -1.180782e+02   2.289184e+02
  -2.675372e+02   8.882055e+01
  -2.485590e+02  -8.736095e+01
  -1.022733e+02  -1.696187e+02
   3.845901e+01  -1.411814e+02
   8.883047e+01  -8.225616e+01
   6.985469e+01  -7.233286e+01
   5.998543e+01  -9.492615e+01
   9.123787e+01  -7.917184e+01
   1.331010e+02   1.832220e+01
   1.213519e+02   1.522521e+02
   2.930471e+01   2.270062e+02
  -1.020296e+02   1.707602e+02
  -1.763722e+02   1.487076e+01
  -1.332855e+02  -1.287756e+02
  -1.120123e+01  -1.613184e+02
   7.690019e+01  -8.606841e+01
   6.549548e+01   1.106564e+01
   1.492021e+00   5.290066e+01
  -2.147307e+01   3.643428e+01
   2.757061e+01   1.193347e+01
   8.086099e+01   1.676953e+01
   4.871895e+01   4.093506e+01
  -6.892209e+01   4.342610e+01
  -1.688821e+02   3.497017e+00
  -1.469130e+02  -6.276034e+01
  -5.252925e+00  -1.013059e+02
   1.302212e+02  -7.665716e+01
   1.471429e+02  -5.835441e+00
   4.798497e+01   5.256924e+01
  -5.942093e+01   4.506959e+01
  -7.982601e+01  -1.759036e+01
  -1.934406e+01  -7.373137e+01
   4.561248e+01  -6.539771e+01
   6.783092e+01  -3.181777e+00
   5.569371e+01   4.988242e+01
   4.685602e+01   4.039349e+01
   5.511747e+01   7.257361e-01
   6.494450e+01  -6.795670e-02
   4.700527e+01   7.095129e+01
  -2.276502e+01   1.544166e+02
  -1.212708e+02   1.494799e+02
  -1.789539e+02   3.979758e+01
  -1.317759e+02  -9.119003e+01
  -7.030274e+00  -1.332389e+02
   8.970471e+01  -7.080026e+01
   6.115209e+01   1.259319e+01
  -5.787672e+01   2.328174e+01
  -1.345607e+02  -4.065547e+01
  -7.283400e+01  -1.083022e+02
   8.009185e+01  -1.134407e+02
   1.895142e+02  -4.699000e+01
   1.588608e+02   3.873136e+01
   3.344173e+01   8.605989e+01
  -6.390367e+01   6.315240e+01
  -5.024879e+01   1.095549e+00
   3.856274e+01  -3.036237e+01
   9.210749e+01   1.851472e+01
   3.932651e+01   1.138277e+02
  -7.996047e+01   1.543653e+02
  -1.591025e+02   6.940123e+01
  -1.286376e+02  -9.130037e+01
  -1.963751e+01  -1.922628e+02
   8.102399e+01  -1.410680e+02
   1.047804e+02   9.299598e+00
   5.801666e+01   1.192435e+02
  -9.665099e+00   1.023558e+02
  -5.059242e+01   1.645716e+01
  -4.597653e+01  -3.087725e+01
  -1.966394e+01  -5.762700e+00
  -6.201533e+00   1.909912e+01
  -3.050119e+01  -1.832648e+01
  -5.900549e+01  -8.765988e+01
  -3.527754e+01  -1.050882e+02
   5.487551e+01  -4.604032e+01
   1.369316e+02   3.380107e+01
   1.224829e+02   6.920031e+01
   1.801649e+01   5.445710e+01
  -8.148070e+01   2.693390e+01
  -8.711097e+01   6.222956e+00
  -1.780274e+01  -1.118051e+01
   3.386589e+01  -2.295279e+01
   1.846550e+01  -1.490988e+01
  -1.508585e+01   2.609063e+00
   2.232107e+00   4.964857e+00
   6.705217e+01  -1.327335e+00
   9.372929e+01   2.044912e+01
   2.225171e+01   8.009079e+01
  -1.073322e+02   1.183979e+02
  -1.871082e+02   6.559222e+01
  -1.510768e+02  -5.910811e+01
  -3.307182e+01  -1.601443e+02
   7.741311e+01  -1.559323e+02
   1.137820e+02  -6.599028e+01
   8.111899e+01   1.907044e+01
   2.804104e+01   3.787041e+01
   2.170366e+00   1.190579e+01
   1.396991e+01   6.372964e+00
   3.210695e+01   4.754309e+01
   2.018993e+01   9.195570e+01
  -2.872057e+01   7.293475e+01
  -8.011504e+01  -1.515626e+01
  -8.123624e+01  -1.029581e+02
  -1.191115e+01  -1.112824e+02
   7.746997e+01  -3.077277e+01
   1.054137e+02   6.663651e+01
   3.817185e+01   1.027817e+02
  -6.422884e+01   6.347835e+01
  -1.033027e+02  -7.252616e+00
  -4.616140e+01  -5.612898e+01
   3.119064e+01  -6.047910e+01
   3.623078e+01  -3.133904e+01
  -2.774074e+01   5.036733e+00
  -6.814163e+01   9.251298e+00
  -1.866277e+01  -2.774974e+01
   7.654614e+01  -6.921296e+01
   1.207924e+02  -5.881084e+01
   7.275236e+01   1.469962e+01
  -1.057759e+01   8.478358e+01
  -5.440726e+01   8.189258e+01
  -4.195946e+01   1.231715e+01
  -6.346584e+00  -5.210701e+01
   2.372619e+01  -4.651663e+01
   3.576963e+01   1.178349e+01
   2.709204e+01   5.259590e+01
  -1.408270e+00   3.751538e+01
  -3.272190e+01  -5.277381e+00
  -4.153202e+01  -2.327193e+01
  -2.157021e+01  -2.638029e+00
   3.305890e+00   1.855692e+01
   7.600361e+00   6.485417e+00
  -1.448077e+00  -3.149512e+01
   3.026739e+00  -4.853580e+01
   2.512489e+01  -1.929952e+01
   3.757240e+01   3.456893e+01
   9.619554e+00   5.800369e+01
  -4.040754e+01   2.465510e+01
  -6.206168e+01  -3.242552e+01
  -1.933585e+01  -6.053156e+01
   5.531879e+01  -3.837980e+01
   9.214198e+01   8.827658e+00
   5.147563e+01   4.225715e+01
  -2.683756e+01   4.620079e+01
  -6.273249e+01   2.822640e+01
  -2.685130e+01   6.492518e+00
   2.955704e+01  -3.207965e+00
   3.266229e+01   7.878470e+00
  -2.471167e+01   2.717816e+01
  -7.887393e+01   2.114871e+01
