
 $NMID
 id='ANONYMOUS ', fmtdat='(2E16.6)'
 volume=1.0
 tramp=1.0
 $END
   3.435505e+03   1.207269e+02
   2.069329e+03   1.973043e+03
  -3.470759e+02   2.160457e+03
  -1.475450e+03   1.016596e+03
  -8.579352e+02  -7.956883e+01
   2.233996e+02  -2.583693e+02
   4.871546e+02   2.397400e+02
  -9.567454e+00   6.919942e+02
  -5.578688e+02   5.977109e+02
  -6.901495e+02   1.442220e+01
  -3.959976e+02  -6.185390e+02
   5.611194e+01  -6.719379e+02
   3.823538e+02  -1.467639e+02
   2.741630e+02   4.984450e+02
  -1.537293e+02   5.674585e+02
  -4.278507e+02   6.234775e+01
  -2.625276e+02  -5.212581e+02
   1.843528e+02  -5.741387e+02
   4.700968e+02  -1.860757e+02
   3.913532e+02   2.231091e+02
   8.769692e+01   3.564290e+02
  -1.501484e+02   2.337375e+02
  -1.069759e+02   4.952721e+01
   1.627900e+02   2.475627e+01
   3.158612e+02   2.046955e+02
   5.726270e+01   3.757078e+02
  -4.517231e+02   2.570065e+02
  -6.693574e+02  -1.347569e+02
  -2.743984e+02  -4.115547e+02
   3.311983e+02  -2.847588e+02
   5.564878e+02   1.063216e+02
   2.220763e+02   3.872804e+02
  -2.603380e+02   3.869537e+02
  -4.653388e+02   1.326489e+02
  -3.231641e+02  -1.780020e+02
  -6.167591e+01  -3.483940e+02
   9.275857e+01  -1.900798e+02
   2.306045e+01   1.394899e+02
  -1.643324e+02   2.158788e+02
  -2.726939e+02  -1.060614e+02
  -7.199061e+01  -5.339392e+02
   2.669818e+02  -4.908575e+02
   3.929244e+02   1.435226e+01
   1.473160e+02   3.729612e+02
  -2.015144e+02   1.840899e+02
  -2.346595e+02  -2.779818e+02
   9.535091e+01  -4.173740e+02
   4.513983e+02  -8.276971e+01
   4.884509e+02   3.448217e+02
   1.467935e+02   4.869381e+02
  -3.014859e+02   2.818579e+02
  -5.187952e+02  -5.604534e+01
  -3.280454e+02  -2.774193e+02
   7.852949e+01  -2.586256e+02
   3.143108e+02  -6.438873e+01
   2.068478e+02   8.250021e+01
  -4.029945e+01   4.258552e+01
  -6.884269e+01  -8.642192e+01
   1.206887e+02  -9.125081e+01
   2.459958e+02   6.468997e+01
   1.130618e+02   2.181293e+02
  -1.681463e+02   2.281365e+02
  -3.140732e+02   1.052783e+02
  -2.251493e+02  -8.786177e+01
   8.312708e+00  -2.692820e+02
   2.487389e+02  -3.313298e+02
   3.351308e+02  -1.682479e+02
   2.418157e+02   1.539986e+02
   5.371256e+01   3.616143e+02
  -6.213953e+01   3.104394e+02
  -4.675288e+01   1.307726e+02
  -1.510612e+01   6.286118e+01
  -9.188601e+01   1.103552e+02
  -2.196422e+02   8.664820e+01
  -2.475922e+02  -9.021005e+01
  -1.132702e+02  -2.494479e+02
   8.624635e+01  -2.038099e+02
   1.950356e+02   2.326704e+01
   1.464928e+02   2.276701e+02
  -3.758629e+01   2.470097e+02
  -2.386292e+02   7.013429e+01
  -2.992254e+02  -1.624732e+02
  -1.557604e+02  -2.935590e+02
   6.661943e+01  -2.562896e+02
   1.737345e+02  -1.266569e+02
   1.349840e+02  -4.906571e+01
   1.186684e+02  -6.105523e+01
   2.423023e+02  -5.153490e+01
   3.852645e+02   6.951853e+01
   3.064132e+02   2.736855e+02
  -9.662746e+00   4.104809e+02
  -3.515685e+02   3.811699e+02
  -4.472320e+02   1.702800e+02
  -2.789020e+02  -9.426924e+01
  -2.454529e+01  -2.474470e+02
   9.502476e+01  -1.958778e+02
   2.506651e+01  -2.667832e+01
  -1.144703e+02   6.028787e+01
  -1.461119e+02  -2.922696e+01
  -1.938306e+01  -1.536570e+02
   1.245934e+02  -1.148477e+02
   1.208606e+02   5.682615e+01
  -2.771316e+01   1.399774e+02
  -1.642444e+02   3.782718e+00
  -1.447074e+02  -2.273641e+02
   2.486628e+01  -3.210841e+02
   2.201440e+02  -1.880418e+02
   3.221587e+02   5.210018e+01
   2.599155e+02   2.325974e+02
   6.899183e+01   2.536501e+02
  -1.158148e+02   1.377221e+02
  -1.494826e+02   9.462436e+00
  -3.855882e+01  -2.001511e+01
   5.420294e+01   5.314186e+01
   6.577304e+00   1.128690e+02
  -1.167468e+02   7.285830e+01
  -1.457976e+02  -2.093252e+01
  -3.599373e+01  -5.806684e+01
   7.798136e+01   1.420623e+00
   4.017867e+01   8.352777e+01
  -1.334913e+02   8.607531e+01
  -2.776143e+02  -1.016613e+01
  -2.444223e+02  -1.514022e+02
  -3.718982e+01  -2.488770e+02
   1.883316e+02  -2.336415e+02
   2.588185e+02  -9.783562e+01
   1.393061e+02   4.899089e+01
  -2.763810e+01   8.359212e+01
  -6.951969e+01  -3.966725e+00
   4.498965e+01  -8.486156e+01
   1.763040e+02  -3.768552e+01
   1.826492e+02   1.006673e+02
   5.314594e+01   1.821481e+02
  -8.658040e+01   1.307069e+02
  -1.212424e+02   1.756555e+01
  -4.800799e+01  -3.644475e+01
   3.717921e+01   1.329116e+01
   2.906934e+01   9.582660e+01
  -8.276282e+01   1.102742e+02
  -1.915009e+02   1.669200e+01
  -1.706235e+02  -1.212204e+02
  -1.253939e+01  -1.950167e+02
   1.457975e+02  -1.418709e+02
   1.659398e+02  -7.684726e+00
   5.237903e+01   9.276362e+01
  -5.806166e+01   8.975397e+01
  -6.664640e+01   2.265216e+01
  -4.430605e+00  -2.285967e+01
   3.028428e+01  -9.414473e+00
  -8.517244e+00   1.821577e+01
  -7.630840e+01  -1.436199e+00
  -9.258445e+01  -8.013005e+01
  -1.469800e+01  -1.557312e+02
   1.237909e+02  -1.437386e+02
   2.181432e+02  -1.854263e+01
   1.815098e+02   1.405986e+02
   3.677793e+01   2.127968e+02
  -9.461314e+01   1.499417e+02
  -1.201345e+02   2.629359e+01
  -6.446042e+01  -4.483940e+01
  -2.981918e+01  -2.841734e+01
  -5.175420e+01   1.163484e+01
  -7.825405e+01   6.835670e+00
  -4.790430e+01  -4.836610e+01
   3.492168e+01  -9.121886e+01
   1.045501e+02  -6.099777e+01
   9.207318e+01   3.544200e+01
  -1.355380e+01   1.134824e+02
  -1.462914e+02   8.379646e+01
  -1.924483e+02  -5.642159e+01
  -8.498097e+01  -1.990237e+02
   1.134479e+02  -2.123007e+02
   2.523140e+02  -8.221529e+01
   2.335730e+02   8.380060e+01
   9.414551e+01   1.609449e+02
  -3.654713e+01   1.335917e+02
  -8.421783e+01   7.871061e+01
  -6.988904e+01   6.724447e+01
  -5.917667e+01   8.732016e+01
  -8.433210e+01   7.206092e+01
  -1.204701e+02  -1.816135e+01
  -1.119224e+02  -1.420874e+02
  -2.871212e+01  -2.102861e+02
   9.032033e+01  -1.586928e+02
   1.605743e+02  -1.500636e+01
   1.231432e+02   1.171723e+02
   1.190143e+01   1.482022e+02
  -6.852996e+01   7.911332e+01
  -5.866665e+01  -8.777142e+00
   5.987109e-01  -4.740513e+01
   2.057757e+01  -3.332856e+01
  -2.731115e+01  -1.288107e+01
  -7.725988e+01  -1.783159e+01
  -4.590309e+01  -3.747947e+01
   6.570216e+01  -3.733273e+01
   1.572480e+02   1.168261e+00
   1.354208e+02   5.743946e+01
   2.948201e+00   8.997961e+01
  -1.221917e+02   6.972059e+01
  -1.358778e+02   6.156481e+00
  -4.199610e+01  -4.748811e+01
   5.633437e+01  -3.888093e+01
   7.163650e+01   1.772036e+01
   1.554741e+01   6.668263e+01
  -4.401724e+01   5.784262e+01
  -6.199436e+01   2.594109e-01
  -5.146241e+01  -4.540403e+01
  -4.553900e+01  -3.827195e+01
  -5.418935e+01  -1.638953e+00
  -6.150773e+01  -1.879586e+00
  -3.856961e+01  -6.813004e+01
   2.765554e+01  -1.418841e+02
   1.153427e+02  -1.338141e+02
   1.639193e+02  -3.046565e+01
   1.192263e+02   8.820719e+01
   3.512847e+00   1.229096e+02
  -8.545660e+01   6.392058e+01
  -5.773571e+01  -1.148427e+01
   5.388714e+01  -1.779933e+01
   1.237846e+02   4.210349e+01
   6.552997e+01   9.978770e+01
  -7.722144e+01   1.022835e+02
  -1.760338e+02   4.171062e+01
  -1.442114e+02  -3.604809e+01
  -2.922437e+01  -7.821495e+01
   5.875357e+01  -5.821956e+01
   4.313010e+01  -1.113302e+00
  -3.924920e+01   2.785194e+01
  -8.692541e+01  -1.934233e+01
  -3.535112e+01  -1.085797e+02
   7.598240e+01  -1.457552e+02
   1.483626e+02  -6.201400e+01
   1.162851e+02   8.765322e+01
   1.468375e+01   1.765489e+02
  -7.375340e+01   1.264410e+02
  -9.422438e+01  -1.071494e+01
  -5.276728e+01  -1.088056e+02
   1.001980e+01  -9.526725e+01
   4.707196e+01  -1.475885e+01
   4.367119e+01   2.919184e+01
   1.752950e+01   6.521856e+00
   5.391997e+00  -1.692756e+01
   2.737149e+01   1.824543e+01
   5.571854e+01   8.297379e+01
   3.114337e+01   1.004872e+02
  -5.174893e+01   4.166206e+01
  -1.270366e+02  -3.426773e+01
  -1.141302e+02  -6.321837e+01
  -1.433574e+01  -4.762461e+01
   7.746192e+01  -2.322611e+01
   8.059842e+01  -5.228554e+00
   1.392803e+01   1.012225e+01
  -3.357781e+01   1.938206e+01
  -1.643398e+01   1.255017e+01
   1.562582e+01  -1.906433e+00
  -3.370398e+00  -5.375477e+00
  -6.270250e+01   7.556518e-01
  -8.469491e+01  -1.920242e+01
  -1.630580e+01  -7.337054e+01
   1.008734e+02  -1.082564e+02
   1.718570e+02  -6.069367e+01
   1.377586e+02   5.506024e+01
   2.991092e+01   1.479084e+02
  -7.276450e+01   1.427942e+02
  -1.063831e+02   5.927343e+01
  -7.372466e+01  -1.765095e+01
  -2.393289e+01  -3.424896e+01
  -1.972653e+00  -1.017690e+01
  -1.297462e+01  -6.687031e+00
  -2.976276e+01  -4.502709e+01
  -1.835706e+01  -8.474208e+01
   2.757306e+01  -6.623383e+01
   7.406849e+01   1.506500e+01
   7.488376e+01   9.513008e+01
   1.073044e+01   1.008176e+02
  -7.077729e+01   2.682244e+01
  -9.593748e+01  -6.101092e+01
  -3.461757e+01  -9.426019e+01
   5.965311e+01  -5.796849e+01
   9.451761e+01   6.709610e+00
   4.071014e+01   5.104890e+01
  -2.921669e+01   5.459225e+01
  -3.393856e+01   2.741203e+01
   2.648591e+01  -4.306826e+00
   6.262573e+01  -7.369764e+00
   1.578378e+01   2.508405e+01
  -7.118114e+01   6.062867e+01
  -1.089702e+02   5.188719e+01
  -6.399791e+01  -1.454193e+01
   1.160519e+01  -7.742089e+01
   5.062859e+01  -7.507749e+01
   3.847849e+01  -8.375857e+00
   4.926543e+00   4.891761e+01
  -2.193408e+01   4.217223e+01
  -3.374180e+01  -1.118965e+01
  -2.586307e+01  -4.931116e+01
   1.809456e+00  -3.404036e+01
   3.129693e+01   5.304685e+00
   3.825952e+01   2.187780e+01
   1.971840e+01   3.340720e+00
  -3.956981e+00  -1.687121e+01
  -5.770083e+00  -4.375327e+00
   5.213972e-01   3.040531e+01
  -4.931205e+00   4.534264e+01
  -2.611442e+01   1.626793e+01
  -3.425391e+01  -3.416345e+01
  -7.639810e+00  -5.367771e+01
   3.775850e+01  -2.243468e+01
   5.525509e+01   3.071376e+01
   1.668961e+01   5.616622e+01
  -5.122267e+01   3.367150e+01
  -8.522104e+01  -1.007616e+01
  -4.723544e+01  -4.012943e+01
   2.557265e+01  -4.273158e+01
   5.959429e+01  -2.584404e+01
   2.470560e+01  -5.669619e+00
  -2.940945e+01   2.183208e+00
  -3.201792e+01  -8.304192e+00
   2.427159e+01  -2.630195e+01
   7.530414e+01  -2.062021e+01
