
 $NMID
 id='ANONYMOUS ', fmtdat='(2E16.6)'
 volume=1.0
 tramp=1.0
 $END
   3.852374e+03  -1.972499e+01
   2.366386e+03   2.140191e+03
  -3.841770e+02   2.508619e+03
  -1.740799e+03   1.041456e+03
  -9.728482e+02  -2.524382e+02
   3.398151e+02  -4.060548e+02
   6.383648e+02   2.690574e+02
  -5.395461e+00   8.059695e+02
  -6.702102e+02   6.611940e+02
  -7.918177e+02  -1.451075e+01
  -4.647537e+02  -7.003682e+02
   1.292951e+02  -7.749372e+02
   4.825188e+02  -1.560595e+02
   3.133786e+02   5.794969e+02
  -2.089532e+02   6.440739e+02
  -4.766548e+02   1.251186e+01
  -2.781536e+02  -5.908419e+02
   2.399373e+02  -6.114694e+02
   5.167746e+02  -1.658357e+02
   4.078902e+02   2.631589e+02
   7.636518e+01   3.903120e+02
  -1.886039e+02   2.566021e+02
  -1.536883e+02   4.335582e+01
   1.460582e+02  -3.623703e+00
   3.479343e+02   1.875301e+02
   1.014917e+02   4.000297e+02
  -4.693038e+02   2.970604e+02
  -7.276262e+02  -1.260041e+02
  -3.232829e+02  -4.641490e+02
   3.587329e+02  -3.555556e+02
   6.259345e+02   7.386676e+01
   2.760231e+02   4.267262e+02
  -2.614828e+02   4.487949e+02
  -5.109695e+02   1.723562e+02
  -3.755505e+02  -2.032612e+02
  -8.121634e+01  -4.022610e+02
   1.287012e+02  -2.392149e+02
   8.421166e+01   1.633368e+02
  -1.933593e+02   2.921067e+02
  -3.346699e+02  -8.243644e+01
  -1.280151e+02  -5.990056e+02
   3.000753e+02  -5.680490e+02
   4.840699e+02   5.563665e+00
   1.900570e+02   4.526168e+02
  -2.310809e+02   2.451598e+02
  -2.944903e+02  -2.919090e+02
   8.718780e+01  -4.694807e+02
   5.013552e+02  -1.004581e+02
   5.468398e+02   3.864448e+02
   1.592781e+02   5.458992e+02
  -3.437625e+02   3.101754e+02
  -5.814690e+02  -6.787870e+01
  -3.532133e+02  -3.246021e+02
   1.106076e+02  -2.995629e+02
   3.669301e+02  -6.362056e+01
   2.135505e+02   1.193592e+02
  -7.031624e+01   6.483196e+01
  -1.041730e+02  -1.059444e+02
   1.329301e+02  -1.408665e+02
   2.923101e+02   4.917027e+01
   1.370578e+02   2.413735e+02
  -1.803328e+02   2.643262e+02
  -3.340752e+02   1.104576e+02
  -2.336617e+02  -9.245710e+01
   1.962578e+01  -2.721703e+02
   2.495987e+02  -3.478595e+02
   3.509523e+02  -1.920407e+02
   2.751848e+02   1.449869e+02
   7.180863e+01   3.978302e+02
  -8.327425e+01   3.483442e+02
  -8.073009e+01   1.316361e+02
  -2.574452e+01   3.423152e+01
  -7.541429e+01   1.038944e+02
  -2.129742e+02   1.047106e+02
  -2.692062e+02  -7.540081e+01
  -1.365390e+02  -2.685954e+02
   8.043374e+01  -2.385974e+02
   2.193304e+02   7.644552e+00
   1.742780e+02   2.445657e+02
  -2.801104e+01   2.795900e+02
  -2.612789e+02   9.531891e+01
  -3.369863e+02  -1.638917e+02
  -1.802098e+02  -3.236734e+02
   7.389387e+01  -2.830696e+02
   1.952010e+02  -1.358244e+02
   1.464938e+02  -4.113753e+01
   1.196982e+02  -5.617752e+01
   2.470002e+02  -5.587384e+01
   3.979212e+02   6.484506e+01
   3.258412e+02   2.827120e+02
  -7.539972e+00   4.285190e+02
  -3.545256e+02   4.044052e+02
  -4.774248e+02   1.860140e+02
  -3.141834e+02  -9.804232e+01
  -4.116487e+01  -2.757809e+02
   1.144177e+02  -2.244963e+02
   5.434439e+01  -2.892948e+01
  -1.106898e+02   7.841595e+01
  -1.642039e+02  -2.183554e+01
  -3.149267e+01  -1.726452e+02
   1.422633e+02  -1.426844e+02
   1.502093e+02   5.848463e+01
  -2.367186e+01   1.675846e+02
  -1.822851e+02   2.206292e+01
  -1.599756e+02  -2.360845e+02
   2.322001e+01  -3.434457e+02
   2.337694e+02  -2.010208e+02
   3.358504e+02   5.627452e+01
   2.716513e+02   2.464748e+02
   7.821858e+01   2.639961e+02
  -1.210417e+02   1.511958e+02
  -1.635668e+02   1.229931e+01
  -4.587648e+01  -2.605816e+01
   6.139410e+01   4.741684e+01
   1.448108e+01   1.201930e+02
  -1.246924e+02   8.536051e+01
  -1.632321e+02  -2.070643e+01
  -4.305821e+01  -6.764320e+01
   8.368232e+01  -4.614592e+00
   4.957713e+01   8.389777e+01
  -1.318692e+02   9.084134e+01
  -2.866891e+02  -6.601980e+00
  -2.583348e+02  -1.522903e+02
  -4.890223e+01  -2.572816e+02
   1.900185e+02  -2.447218e+02
   2.742494e+02  -1.100767e+02
   1.527008e+02   5.254844e+01
  -3.030832e+01   9.504006e+01
  -8.211544e+01  -6.436227e-01
   3.951725e+01  -9.654255e+01
   1.898888e+02  -5.104447e+01
   2.021956e+02   1.014387e+02
   6.116403e+01   2.003465e+02
  -9.470001e+01   1.466737e+02
  -1.334473e+02   1.956711e+01
  -5.547456e+01  -4.364116e+01
   3.761933e+01   6.163091e+00
   3.419162e+01   9.663853e+01
  -8.218934e+01   1.187940e+02
  -2.024199e+02   2.458304e+01
  -1.858375e+02  -1.257857e+02
  -1.907664e+01  -2.121431e+02
   1.558908e+02  -1.587149e+02
   1.815357e+02  -9.950334e+00
   5.964936e+01   1.038458e+02
  -6.351643e+01   1.018021e+02
  -7.585550e+01   2.453366e+01
  -8.584167e+00  -2.838448e+01
   3.261861e+01  -1.481089e+01
  -5.356127e+00   1.874773e+01
  -7.691497e+01  -1.961169e-01
  -9.582503e+01  -8.193284e+01
  -1.382851e+01  -1.626605e+02
   1.314799e+02  -1.507459e+02
   2.318638e+02  -1.743208e+01
   1.927797e+02   1.540260e+02
   3.767569e+01   2.299644e+02
  -1.053433e+02   1.607599e+02
  -1.319794e+02   2.742882e+01
  -6.985366e+01  -5.082248e+01
  -2.862541e+01  -3.066414e+01
  -5.295154e+01   1.393766e+01
  -8.266899e+01   6.695844e+00
  -4.898402e+01  -5.293080e+01
   3.927105e+01  -9.604825e+01
   1.093956e+02  -6.243557e+01
   9.648890e+01   3.681744e+01
  -1.151942e+01   1.190441e+02
  -1.479598e+02   9.086249e+01
  -1.984137e+02  -5.201842e+01
  -9.452734e+01  -2.028118e+02
   1.097957e+02  -2.269626e+02
   2.600561e+02  -9.518692e+01
   2.486160e+02   8.223944e+01
   1.052010e+02   1.710885e+02
  -3.529412e+01   1.415639e+02
  -8.515920e+01   8.143574e+01
  -7.023089e+01   6.850341e+01
  -6.187062e+01   9.075271e+01
  -9.075317e+01   7.593979e+01
  -1.301344e+02  -1.723496e+01
  -1.192095e+02  -1.498240e+02
  -2.944896e+01  -2.211633e+02
   9.695649e+01  -1.673799e+02
   1.714433e+02  -1.818915e+01
   1.308675e+02   1.201582e+02
   1.443969e+01   1.543979e+02
  -7.099370e+01   8.504399e+01
  -6.078652e+01  -6.336426e+00
  -4.871929e-01  -4.776137e+01
   1.893802e+01  -3.379295e+01
  -3.073236e+01  -1.216107e+01
  -8.015707e+01  -1.916357e+01
  -4.618732e+01  -4.019892e+01
   6.579440e+01  -4.029354e+01
   1.626331e+02  -3.488394e-02
   1.412693e+02   5.599841e+01
   1.009201e+01   9.210555e+01
  -1.223372e+02   7.384066e+01
  -1.425701e+02   9.856567e+00
  -4.773083e+01  -4.694789e+01
   5.855787e+01  -4.306783e+01
   7.752978e+01   1.674255e+01
   1.502616e+01   7.075561e+01
  -4.961003e+01   6.221981e+01
  -6.668729e+01   1.089627e+00
  -5.095283e+01  -4.812199e+01
  -4.437848e+01  -4.268171e+01
  -5.624556e+01  -1.536074e+00
  -6.426474e+01  -6.102637e-01
  -4.036010e+01  -6.792674e+01
   2.545967e+01  -1.467618e+02
   1.178941e+02  -1.432152e+02
   1.710429e+02  -3.600302e+01
   1.286767e+02   8.898265e+01
   7.911787e+00   1.288820e+02
  -8.680006e+01   6.794569e+01
  -6.136515e+01  -1.145091e+01
   5.754848e+01  -2.159902e+01
   1.346343e+02   3.994770e+01
   7.197042e+01   1.061957e+02
  -8.119597e+01   1.104958e+02
  -1.841743e+02   4.759644e+01
  -1.529780e+02  -3.375923e+01
  -3.207763e+01  -8.200687e+01
   6.064037e+01  -6.178573e+01
   4.722573e+01  -1.295956e+00
  -3.869138e+01   3.092635e+01
  -9.147570e+01  -1.921281e+01
  -3.828234e+01  -1.149014e+02
   7.906857e+01  -1.530374e+02
   1.587610e+02  -6.663873e+01
   1.250522e+02   9.323397e+01
   1.526020e+01   1.878179e+02
  -8.110595e+01   1.362614e+02
  -1.017027e+02  -9.574593e+00
  -5.647221e+01  -1.151148e+02
   6.679286e+00  -1.023002e+02
   4.754345e+01  -1.788973e+01
   4.719173e+01   3.139687e+01
   2.088672e+01   8.956733e+00
   5.945779e+00  -1.927561e+01
   2.646561e+01   1.602075e+01
   5.525176e+01   8.574422e+01
   3.577572e+01   1.049164e+02
  -5.123324e+01   4.590783e+01
  -1.327938e+02  -3.369997e+01
  -1.231787e+02  -6.617389e+01
  -2.074326e+01  -5.183038e+01
   7.919916e+01  -2.627552e+01
   8.498716e+01  -7.677463e+00
   1.462169e+01   9.730643e+00
  -3.661132e+01   2.184500e+01
  -1.795168e+01   1.528983e+01
   1.888280e+01  -3.454796e+00
  -1.994918e+00  -5.744159e+00
  -6.766701e+01   2.787142e-01
  -9.179746e+01  -2.069870e+01
  -1.866197e+01  -7.856265e+01
   1.072303e+02  -1.168070e+02
   1.807790e+02  -6.589015e+01
   1.439913e+02   5.840826e+01
   3.237433e+01   1.554253e+02
  -7.316167e+01   1.521557e+02
  -1.112388e+02   6.487599e+01
  -8.099283e+01  -1.949982e+01
  -2.642475e+01  -3.732828e+01
   1.776875e-01  -1.094765e+01
  -1.245929e+01  -4.272967e+00
  -3.220407e+01  -4.464721e+01
  -2.101379e+01  -8.841138e+01
   2.850315e+01  -7.127181e+01
   7.830378e+01   1.512048e+01
   7.684954e+01   1.010904e+02
   9.086457e+00   1.079904e+02
  -7.700149e+01   2.875886e+01
  -1.014052e+02  -6.534835e+01
  -3.669612e+01  -9.856113e+01
   6.175115e+01  -6.059167e+01
   9.845788e+01   6.020289e+00
   4.312897e+01   5.152243e+01
  -3.176446e+01   5.612535e+01
  -3.478820e+01   2.769528e+01
   2.821126e+01  -4.666240e+00
   6.654307e+01  -7.537529e+00
   1.681866e+01   2.776212e+01
  -7.539579e+01   6.532739e+01
  -1.119470e+02   5.293670e+01
  -6.469225e+01  -1.680012e+01
   1.338881e+01  -8.195907e+01
   5.269154e+01  -7.816418e+01
   4.021175e+01  -8.647935e+00
   4.934281e+00   5.251783e+01
  -2.381545e+01   4.392993e+01
  -3.539862e+01  -1.415411e+01
  -2.747853e+01  -5.271979e+01
   1.166388e+00  -3.535597e+01
   3.126763e+01   6.134614e+00
   3.810991e+01   2.287640e+01
   1.902880e+01   2.085886e+00
  -1.742438e+00  -1.682440e+01
  -4.604471e+00  -3.584123e+00
   5.072395e-01   3.261746e+01
  -7.853499e+00   4.611378e+01
  -2.899468e+01   1.484609e+01
  -3.769539e+01  -3.800113e+01
  -6.988335e+00  -5.965585e+01
   4.137089e+01  -2.454960e+01
   5.989823e+01   3.337483e+01
   1.844883e+01   6.060096e+01
  -5.459132e+01   3.586131e+01
  -8.949838e+01  -1.123328e+01
  -4.982315e+01  -4.215878e+01
   2.697350e+01  -4.321071e+01
   6.303904e+01  -2.508677e+01
   2.606694e+01  -5.852650e+00
  -3.129092e+01   3.697961e-01
  -3.359257e+01  -1.124915e+01
   2.697082e+01  -2.757371e+01
   8.175878e+01  -1.869285e+01
