
 $NMID
 id='ANONYMOUS ', fmtdat='(2E16.6)'
 volume=1.0
 tramp=1.0
 $END
  -4.587855e+03   1.777344e+02
  -2.726494e+03  -2.660657e+03
   6.339105e+02  -2.962500e+03
   2.208018e+03  -1.010242e+03
   1.114126e+03   6.508866e+02
  -5.728616e+02   6.941980e+02
  -9.400883e+02  -3.541176e+02
  -5.666595e+01  -1.080752e+03
   8.321666e+02  -8.553930e+02
   9.956920e+02   6.450527e+01
   5.152674e+02   8.552983e+02
  -2.465374e+02   9.386889e+02
  -6.740922e+02   1.411201e+02
  -4.168159e+02  -7.280757e+02
   2.726858e+02  -7.914509e+02
   6.519039e+02   1.165003e+01
   3.099291e+02   7.115425e+02
  -3.219001e+02   7.020421e+02
  -6.263430e+02   1.339746e+02
  -4.377284e+02  -3.668015e+02
  -3.058679e+01  -4.733839e+02
   2.619469e+02  -2.809580e+02
   2.404355e+02  -2.055575e+01
  -1.039221e+02   8.316799e+01
  -4.056297e+02  -1.088700e+02
  -2.157912e+02  -4.197991e+02
   4.503883e+02  -4.060703e+02
   8.396576e+02   6.040943e+01
   4.548622e+02   5.379469e+02
  -3.707850e+02   5.000660e+02
  -7.510426e+02  -8.759001e+00
  -3.736840e+02  -4.788525e+02
   2.731019e+02  -5.340662e+02
   5.790084e+02  -2.217868e+02
   4.479418e+02   2.290551e+02
   9.347694e+01   4.928079e+02
  -1.998794e+02   3.198409e+02
  -1.972010e+02  -1.966431e+02
   1.658197e+02  -4.626862e+02
   4.491546e+02  -1.777555e+01
   2.692170e+02   6.644291e+02
  -3.030955e+02   7.354880e+02
  -6.269687e+02   5.398775e+01
  -3.020683e+02  -5.545861e+02
   2.784528e+02  -3.622610e+02
   4.108499e+02   3.043128e+02
  -4.296194e+01   5.680661e+02
  -5.598220e+02   1.643299e+02
  -6.201815e+02  -4.090805e+02
  -1.816749e+02  -6.137485e+02
   3.821958e+02  -3.728791e+02
   6.495998e+02   6.364914e+01
   4.053212e+02   3.878988e+02
  -1.330159e+02   3.832527e+02
  -4.580988e+02   7.235827e+01
  -2.666318e+02  -1.992500e+02
   1.174915e+02  -1.273214e+02
   1.749985e+02   1.446478e+02
  -1.484432e+02   1.993607e+02
  -3.602020e+02  -5.638690e+01
  -1.632314e+02  -3.027507e+02
   2.070898e+02  -2.826678e+02
   3.553583e+02  -7.896973e+01
   2.081824e+02   1.004420e+02
  -3.122123e+01   2.373814e+02
  -2.236480e+02   3.304695e+02
  -3.359705e+02   2.240829e+02
  -2.988709e+02  -1.226068e+02
  -9.494335e+01  -4.349778e+02
   1.116939e+02  -3.954409e+02
   1.315305e+02  -1.243357e+02
   4.139567e+01   1.756722e+01
   4.633538e+01  -7.222319e+01
   1.859170e+02  -1.243023e+02
   2.684668e+02   4.597375e+01
   1.591021e+02   2.638593e+02
  -6.371324e+01   2.550579e+02
  -2.217925e+02   1.995146e+01
  -2.021279e+02  -2.353782e+02
  -2.692568e+00  -2.967935e+02
   2.610719e+02  -1.299869e+02
   3.727894e+02   1.576945e+02
   2.060597e+02   3.586372e+02
  -9.643095e+01   3.234406e+02
  -2.383721e+02   1.389149e+02
  -1.662856e+02   6.363043e+00
  -1.021529e+02   2.715042e+01
  -2.283801e+02   5.982350e+01
  -4.004010e+02  -5.567404e+01
  -3.382643e+02  -2.818625e+02
   1.743416e+00  -4.422737e+02
   3.528502e+02  -4.138342e+02
   4.857290e+02  -2.106160e+02
   3.448407e+02   8.513456e+01
   6.707895e+01   2.973077e+02
  -1.252682e+02   2.645251e+02
  -9.529900e+01   3.436381e+01
   9.527849e+01  -1.189544e+02
   1.965331e+02  -8.104758e+00
   6.612580e+01   1.960316e+02
  -1.507842e+02   1.890995e+02
  -1.863453e+02  -5.081237e+01
   9.829434e+00  -1.964323e+02
   1.966327e+02  -4.064130e+01
   1.695478e+02   2.489204e+02
  -3.077032e+01   3.592725e+02
  -2.383987e+02   1.973158e+02
  -3.317179e+02  -6.485989e+01
  -2.804901e+02  -2.428990e+02
  -9.440249e+01  -2.671368e+02
   1.127235e+02  -1.630227e+02
   1.809451e+02  -2.263254e+01
   6.308714e+01   3.665529e+01
  -6.975212e+01  -3.341637e+01
  -3.311243e+01  -1.214363e+02
   1.204929e+02  -1.009987e+02
   1.784635e+02   8.967732e+00
   6.017982e+01   7.217330e+01
  -7.976236e+01   1.724796e+01
  -5.546075e+01  -7.165954e+01
   1.223076e+02  -8.813566e+01
   2.798060e+02  -6.709811e-01
   2.616988e+02   1.388861e+02
   6.355785e+01   2.540126e+02
  -1.795858e+02   2.649806e+02
  -2.832056e+02   1.306398e+02
  -1.768868e+02  -4.994134e+01
   2.026173e+01  -1.152607e+02
   9.359093e+01  -1.285019e+01
  -2.778076e+01   1.063149e+02
  -1.965813e+02   6.890871e+01
  -2.230367e+02  -1.008567e+02
  -7.520455e+01  -2.159097e+02
   9.551775e+01  -1.676684e+02
   1.483692e+02  -3.158098e+01
   7.401939e+01   4.289176e+01
  -2.524728e+01   5.495694e+00
  -3.604705e+01  -8.202259e+01
   7.048251e+01  -1.141058e+02
   1.969912e+02  -3.086431e+01
   1.953952e+02   1.212750e+02
   2.714872e+01   2.216915e+02
  -1.634958e+02   1.707249e+02
  -1.981272e+02   9.813199e+00
  -6.954403e+01  -1.172911e+02
   6.693175e+01  -1.137093e+02
   8.583719e+01  -2.910117e+01
   1.780921e+01   2.675566e+01
  -2.290958e+01   1.732695e+01
   1.038133e+01  -7.159997e+00
   7.116259e+01   1.129664e+01
   8.589290e+01   8.257384e+01
   1.262924e+01   1.563593e+02
  -1.278705e+02   1.519650e+02
  -2.359885e+02   2.780695e+01
  -2.057549e+02  -1.507881e+02
  -4.490839e+01  -2.433236e+02
   1.105928e+02  -1.769068e+02
   1.408554e+02  -3.013240e+01
   7.421922e+01   5.746356e+01
   3.009656e+01   3.783639e+01
   5.519714e+01  -1.146971e+01
   8.216727e+01  -4.588730e+00
   4.148094e+01   5.337215e+01
  -4.499696e+01   8.945950e+01
  -1.046934e+02   5.405509e+01
  -8.471622e+01  -3.807086e+01
   1.510646e+01  -1.105875e+02
   1.404447e+02  -8.543770e+01
   1.948301e+02   5.004182e+01
   1.002242e+02   1.995595e+02
  -1.029379e+02   2.308920e+02
  -2.652997e+02   9.808200e+01
  -2.592185e+02  -8.781408e+01
  -1.114052e+02  -1.805153e+02
   3.921722e+01  -1.510346e+02
   9.451116e+01  -8.419971e+01
   7.774518e+01  -6.831106e+01
   6.576140e+01  -9.089932e+01
   9.427858e+01  -7.453845e+01
   1.306723e+02   2.203469e+01
   1.206245e+02   1.545294e+02
   3.140297e+01   2.271047e+02
  -1.002475e+02   1.732916e+02
  -1.779350e+02   1.955412e+01
  -1.377461e+02  -1.225907e+02
  -1.917222e+01  -1.593972e+02
   6.752393e+01  -8.986624e+01
   6.060595e+01   2.081013e+00
   4.058254e+00   4.218924e+01
  -1.180363e+01   3.235771e+01
   3.571025e+01   1.714623e+01
   8.015170e+01   2.501150e+01
   4.464812e+01   4.234456e+01
  -6.444416e+01   3.826359e+01
  -1.581445e+02   5.645904e-01
  -1.411804e+02  -5.130111e+01
  -1.406420e+01  -8.886748e+01
   1.206253e+02  -7.421376e+01
   1.440855e+02  -1.467668e+01
   4.749772e+01   4.167347e+01
  -6.086761e+01   3.926743e+01
  -7.515529e+01  -1.892588e+01
  -7.113845e+00  -6.915065e+01
   5.528339e+01  -5.803062e+01
   6.353813e+01   2.988857e+00
   4.449103e+01   5.121491e+01
   4.424504e+01   4.216983e+01
   6.042837e+01   1.960259e+00
   6.516279e+01   1.578072e+00
   3.388455e+01   6.806869e+01
  -3.227733e+01   1.449605e+02
  -1.159827e+02   1.388259e+02
  -1.652655e+02   2.892920e+01
  -1.238647e+02  -9.344602e+01
  -5.086626e+00  -1.271259e+02
   8.963069e+01  -6.046484e+01
   6.378739e+01   1.762171e+01
  -5.738749e+01   2.333567e+01
  -1.399706e+02  -4.172181e+01
  -8.059470e+01  -1.081588e+02
   7.624419e+01  -1.160308e+02
   1.929061e+02  -5.477283e+01
   1.662160e+02   3.425800e+01
   3.805070e+01   8.750547e+01
  -6.231729e+01   6.975590e+01
  -4.974131e+01   4.853418e+00
   4.190926e+01  -2.768536e+01
   9.329536e+01   2.444407e+01
   3.237398e+01   1.223802e+02
  -9.413571e+01   1.554396e+02
  -1.671740e+02   6.136640e+01
  -1.256189e+02  -1.015220e+02
  -1.210353e+01  -1.988412e+02
   8.388358e+01  -1.456355e+02
   1.051337e+02   7.074686e+00
   5.966071e+01   1.174947e+02
  -2.503457e+00   1.034985e+02
  -4.545447e+01   1.802772e+01
  -5.007303e+01  -3.112085e+01
  -2.271946e+01  -7.813330e+00
  -3.729045e+00   2.179908e+01
  -2.266971e+01  -1.483406e+01
  -5.591297e+01  -8.811655e+01
  -3.902036e+01  -1.100383e+02
   5.020845e+01  -4.543497e+01
   1.397716e+02   3.890036e+01
   1.283841e+02   7.178126e+01
   1.591236e+01   5.304017e+01
  -8.908146e+01   2.327124e+01
  -8.807118e+01   6.428660e+00
  -1.036730e+01  -9.093596e+00
   3.911348e+01  -2.146975e+01
   1.527421e+01  -1.677311e+01
  -2.138856e+01   1.764982e+00
   5.694557e+00   8.143434e+00
   7.540004e+01   3.114462e+00
   9.210753e+01   2.531699e+01
   9.540014e+00   8.441923e+01
  -1.203769e+02   1.176193e+02
  -1.907940e+02   6.074678e+01
  -1.451937e+02  -6.916148e+01
  -2.633588e+01  -1.650897e+02
   8.018171e+01  -1.506894e+02
   1.150099e+02  -5.858860e+01
   8.141523e+01   2.423240e+01
   2.492751e+01   3.806235e+01
  -3.034611e+00   9.627363e+00
   9.021733e+00   3.245742e+00
   3.362169e+01   4.455668e+01
   2.349833e+01   9.018288e+01
  -2.948682e+01   7.317152e+01
  -8.334262e+01  -1.755808e+01
  -7.971535e+01  -1.091061e+02
  -4.087810e+00  -1.156483e+02
   8.572148e+01  -2.511205e+01
   1.070800e+02   7.679082e+01
   3.211461e+01   1.061481e+02
  -6.893731e+01   5.824830e+01
  -9.977651e+01  -1.222749e+01
  -3.920192e+01  -5.204934e+01
   3.438632e+01  -5.211667e+01
   3.159084e+01  -2.587491e+01
  -3.406792e+01   1.170047e+00
  -6.906553e+01   5.541274e+00
  -1.527297e+01  -2.707426e+01
   7.993299e+01  -6.692425e+01
   1.158303e+02  -5.728175e+01
   6.341108e+01   1.361512e+01
  -1.701975e+01   8.457845e+01
  -5.681024e+01   7.924348e+01
  -4.134103e+01   3.877136e+00
  -7.874088e-01  -5.798499e+01
   2.841815e+01  -4.442736e+01
   3.898952e+01   1.902959e+01
   2.670014e+01   5.716563e+01
  -4.982769e+00   3.466557e+01
  -3.412889e+01  -9.685576e+00
  -3.826193e+01  -2.273304e+01
  -1.950111e+01  -1.079329e+00
   2.712867e-01   1.566192e+01
   5.179965e+00  -2.608473e+00
   4.754024e+00  -3.775232e+01
   1.509008e+01  -4.768211e+01
   3.420433e+01  -8.424496e+00
   3.298470e+01   4.782087e+01
  -1.746065e+00   6.386216e+01
  -4.691305e+01   2.143592e+01
  -5.929382e+01  -4.085721e+01
  -1.584195e+01  -6.548684e+01
   5.526473e+01  -3.569229e+01
   9.076129e+01   1.497399e+01
   4.988356e+01   4.502117e+01
  -2.920479e+01   4.238198e+01
  -6.597101e+01   2.166121e+01
  -2.485179e+01   2.655114e+00
   3.817107e+01  -7.044734e-01
   3.998241e+01   1.573688e+01
  -2.939696e+01   3.440343e+01
  -9.163812e+01   2.256596e+01
