
 $NMID
 id='ANONYMOUS ', fmtdat='(2E16.6)'
 volume=1.0
 tramp=1.0
 $END
  -3.910458e+03  -4.830909e+01
  -2.342796e+03  -2.239033e+03
   4.692969e+02  -2.457919e+03
   1.757231e+03  -1.062594e+03
   9.416669e+02   2.544419e+02
  -3.731971e+02   3.736152e+02
  -6.301731e+02  -3.051766e+02
   1.634543e+01  -8.414595e+02
   6.810252e+02  -6.831921e+02
   8.136812e+02   3.016037e+01
   4.145788e+02   7.437635e+02
  -1.389283e+02   7.844978e+02
  -4.962076e+02   1.327390e+02
  -3.101206e+02  -6.068255e+02
   2.117246e+02  -6.764957e+02
   5.201380e+02  -5.561233e+01
   2.830896e+02   6.053894e+02
  -2.377866e+02   6.208743e+02
  -5.220299e+02   1.601118e+02
  -4.036285e+02  -2.710050e+02
  -6.498214e+01  -3.909029e+02
   1.899895e+02  -2.351746e+02
   1.350175e+02  -2.811743e+01
  -1.737302e+02   1.463233e+00
  -3.771267e+02  -2.143905e+02
  -9.416591e+01  -4.282552e+02
   4.935828e+02  -3.125354e+02
   7.748814e+02   1.501946e+02
   3.229178e+02   4.949781e+02
  -4.070469e+02   3.509202e+02
  -6.672224e+02  -1.179260e+02
  -2.644800e+02  -4.648608e+02
   3.017972e+02  -4.540779e+02
   5.348169e+02  -1.515832e+02
   3.664170e+02   2.103980e+02
   6.268853e+01   3.946297e+02
  -1.258145e+02   2.151546e+02
  -4.761292e+01  -1.758131e+02
   1.827187e+02  -2.855343e+02
   3.480652e+02   1.032691e+02
   1.228470e+02   6.139878e+02
  -3.095364e+02   5.806378e+02
  -4.743228e+02  -2.400193e+01
  -1.614816e+02  -4.560766e+02
   2.456806e+02  -2.221679e+02
   2.788999e+02   3.237751e+02
  -1.094733e+02   4.821724e+02
  -5.143651e+02   8.963527e+01
  -5.427604e+02  -4.094980e+02
  -1.560290e+02  -5.544476e+02
   3.546427e+02  -3.074389e+02
   5.930541e+02   8.318374e+01
   3.646334e+02   3.380302e+02
  -1.179065e+02   2.981470e+02
  -3.821820e+02   5.721518e+01
  -2.284026e+02  -1.246032e+02
   6.803339e+01  -6.537370e+01
   9.720299e+01   1.114757e+02
  -1.405753e+02   1.288830e+02
  -2.969441e+02  -6.395552e+01
  -1.281933e+02  -2.580393e+02
   1.909517e+02  -2.491845e+02
   3.378139e+02  -1.039030e+02
   2.318848e+02   9.569357e+01
  -2.214991e+01   2.787095e+02
  -2.586736e+02   3.519746e+02
  -3.579923e+02   1.925878e+02
  -2.720232e+02  -1.588493e+02
  -6.495871e+01  -4.061095e+02
   7.272877e+01  -3.529312e+02
   6.606999e+01  -1.417678e+02
   2.212257e+01  -5.483987e+01
   9.451545e+01  -1.120234e+02
   2.374743e+02  -9.224932e+01
   2.678379e+02   9.874351e+01
   1.210846e+02   2.760458e+02
  -9.410816e+01   2.284108e+02
  -2.146148e+02  -2.556760e+01
  -1.643182e+02  -2.552316e+02
   3.707313e+01  -2.792826e+02
   2.669155e+02  -8.467453e+01
   3.421399e+02   1.838060e+02
   1.766541e+02   3.341291e+02
  -8.027429e+01   2.874964e+02
  -2.000561e+02   1.322780e+02
  -1.476453e+02   4.169895e+01
  -1.237593e+02   5.782323e+01
  -2.626235e+02   5.530130e+01
  -4.204036e+02  -8.266503e+01
  -3.329995e+02  -3.081518e+02
   1.324337e+01  -4.518733e+02
   3.853384e+02  -4.084289e+02
   4.984592e+02  -1.836257e+02
   3.179657e+02   1.111257e+02
   3.092534e+01   2.878997e+02
  -1.208488e+02   2.298940e+02
  -4.773451e+01   2.764639e+01
   1.229398e+02  -7.599529e+01
   1.699768e+02   3.139525e+01
   2.181388e+01   1.779532e+02
  -1.521850e+02   1.329631e+02
  -1.459141e+02  -7.033992e+01
   3.307777e+01  -1.708652e+02
   1.912035e+02  -1.272543e+01
   1.621396e+02   2.548139e+02
  -3.101484e+01   3.587481e+02
  -2.449083e+02   2.069858e+02
  -3.522293e+02  -6.533372e+01
  -2.835179e+02  -2.624748e+02
  -7.348239e+01  -2.809228e+02
   1.297264e+02  -1.536651e+02
   1.698766e+02  -7.190389e+00
   4.294172e+01   2.933731e+01
  -6.454861e+01  -5.150786e+01
  -1.015580e+01  -1.276663e+02
   1.324353e+02  -8.222224e+01
   1.672714e+02   2.694118e+01
   4.088288e+01   6.960209e+01
  -8.892394e+01   3.584800e-01
  -4.874829e+01  -9.089091e+01
   1.423363e+02  -9.147717e+01
   3.026606e+02   1.246946e+01
   2.651991e+02   1.657067e+02
   4.098694e+01   2.697283e+02
  -2.074960e+02   2.521733e+02
  -2.869412e+02   1.050043e+02
  -1.560156e+02  -5.940492e+01
   3.017637e+01  -9.697405e+01
   7.807334e+01   2.431185e+00
  -4.696062e+01   9.459858e+01
  -1.946231e+02   4.351931e+01
  -2.025623e+02  -1.108893e+02
  -6.054951e+01  -2.037849e+02
   9.577391e+01  -1.463471e+02
   1.378462e+02  -2.034190e+01
   5.879888e+01   4.219798e+01
  -3.857685e+01  -9.815638e+00
  -3.393657e+01  -1.017853e+02
   8.941616e+01  -1.201473e+02
   2.127166e+02  -1.913878e+01
   1.909378e+02   1.362602e+02
   1.245991e+01   2.206047e+02
  -1.675389e+02   1.586442e+02
  -1.902835e+02   5.499594e+00
  -6.078069e+01  -1.094671e+02
   6.709487e+01  -1.066805e+02
   8.025237e+01  -2.828922e+01
   1.202079e+01   2.798016e+01
  -2.932402e+01   1.652603e+01
   1.050475e+01  -1.637911e+01
   8.189845e+01   3.544386e+00
   1.012078e+02   9.015211e+01
   1.344584e+01   1.742600e+02
  -1.399359e+02   1.591504e+02
  -2.446874e+02   1.783952e+01
  -2.026337e+02  -1.597366e+02
  -4.031576e+01  -2.398011e+02
   1.091472e+02  -1.675763e+02
   1.353997e+02  -2.837135e+01
   7.098662e+01   5.161536e+01
   3.000981e+01   3.192991e+01
   5.508967e+01  -1.475689e+01
   8.604740e+01  -7.109176e+00
   5.203594e+01   5.400852e+01
  -3.985765e+01   9.796357e+01
  -1.138554e+02   6.229993e+01
  -9.871438e+01  -4.060893e+01
   1.680876e+01  -1.231605e+02
   1.593372e+02  -9.100405e+01
   2.103843e+02   6.125973e+01
   9.508055e+01   2.161665e+02
  -1.224553e+02   2.330004e+02
  -2.767696e+02   9.004510e+01
  -2.558131e+02  -9.345955e+01
  -1.024982e+02  -1.781466e+02
   4.273747e+01  -1.442932e+02
   9.414848e+01  -8.194023e+01
   7.596401e+01  -7.000354e+01
   6.230992e+01  -9.385566e+01
   9.277136e+01  -7.750805e+01
   1.331841e+02   2.219743e+01
   1.210040e+02   1.589871e+02
   2.768913e+01   2.322329e+02
  -1.051792e+02   1.744159e+02
  -1.805378e+02   1.428585e+01
  -1.349939e+02  -1.321541e+02
  -1.251487e+01  -1.644453e+02
   7.808217e+01  -8.783128e+01
   6.537148e+01   1.030253e+01
   1.076401e+00   4.997896e+01
  -1.818364e+01   3.517767e+01
   3.285725e+01   1.647637e+01
   8.256911e+01   2.257246e+01
   4.825663e+01   4.242129e+01
  -7.179681e+01   4.065557e+01
  -1.711751e+02   9.907438e-02
  -1.478868e+02  -6.265890e+01
  -7.819252e+00  -9.755444e+01
   1.296212e+02  -7.609340e+01
   1.493316e+02  -8.267207e+00
   4.778810e+01   4.962914e+01
  -6.050592e+01   4.198903e+01
  -7.814358e+01  -2.065751e+01
  -1.241570e+01  -7.331260e+01
   5.301827e+01  -6.201133e+01
   6.763289e+01   1.701040e+00
   5.217278e+01   5.263485e+01
   4.573041e+01   4.278895e+01
   5.749475e+01   1.764429e+00
   6.492735e+01   1.387555e+00
   4.054087e+01   7.309996e+01
  -3.179512e+01   1.518255e+02
  -1.253721e+02   1.442423e+02
  -1.767724e+02   3.261628e+01
  -1.283505e+02  -9.629442e+01
  -2.796240e+00  -1.326474e+02
   9.126303e+01  -6.571396e+01
   6.170651e+01   1.432217e+01
  -6.111024e+01   1.955908e+01
  -1.371260e+02  -4.619504e+01
  -7.125989e+01  -1.102145e+02
   8.508435e+01  -1.100569e+02
   1.925931e+02  -4.486930e+01
   1.623925e+02   3.999569e+01
   3.440588e+01   8.872820e+01
  -6.443587e+01   6.787908e+01
  -5.029198e+01   4.249781e+00
   3.928823e+01  -2.845436e+01
   9.243380e+01   2.075877e+01
   3.693262e+01   1.171635e+02
  -8.678470e+01   1.568240e+02
  -1.662863e+02   6.800865e+01
  -1.288775e+02  -9.811118e+01
  -1.164116e+01  -1.992785e+02
   8.873259e+01  -1.440955e+02
   1.080915e+02   1.159615e+01
   5.829845e+01   1.237722e+02
  -9.240978e+00   1.062801e+02
  -5.075189e+01   1.614304e+01
  -4.886796e+01  -3.305191e+01
  -2.103735e+01  -7.207327e+00
  -6.796582e+00   1.930704e+01
  -2.800002e+01  -1.953244e+01
  -5.819872e+01  -9.154590e+01
  -3.589582e+01  -1.114866e+02
   5.617193e+01  -4.643379e+01
   1.395512e+02   4.009464e+01
   1.277536e+02   7.413439e+01
   1.790617e+01   5.384324e+01
  -8.518385e+01   2.361655e+01
  -8.826270e+01   4.953321e+00
  -1.379110e+01  -9.642841e+00
   3.772254e+01  -2.010052e+01
   1.786829e+01  -1.420351e+01
  -1.897156e+01   3.068630e+00
   1.853006e+00   6.335750e+00
   6.964720e+01   1.837253e+00
   9.375006e+01   2.406632e+01
   1.740269e+01   8.058196e+01
  -1.146466e+02   1.161867e+02
  -1.891080e+02   6.230095e+01
  -1.472001e+02  -6.327259e+01
  -2.656705e+01  -1.630053e+02
   8.163049e+01  -1.561062e+02
   1.175586e+02  -6.386614e+01
   8.242013e+01   2.279976e+01
   2.751032e+01   4.011890e+01
   1.310040e+00   1.145865e+01
   1.333705e+01   5.567107e+00
   3.176487e+01   4.951290e+01
   2.043877e+01   9.454190e+01
  -3.054769e+01   7.467925e+01
  -8.184119e+01  -1.867942e+01
  -7.938224e+01  -1.081103e+02
  -8.263415e+00  -1.108226e+02
   7.979051e+01  -2.568540e+01
   1.042885e+02   7.077696e+01
   3.649433e+01   1.027156e+02
  -6.489895e+01   5.995634e+01
  -1.018772e+02  -8.691323e+00
  -4.429110e+01  -5.410345e+01
   3.271200e+01  -5.724579e+01
   3.724080e+01  -2.931906e+01
  -3.044180e+01   3.961266e+00
  -7.026648e+01   7.794782e+00
  -1.723012e+01  -2.732306e+01
   8.052334e+01  -6.594352e+01
   1.197591e+02  -5.655630e+01
   6.801812e+01   1.359937e+01
  -1.449463e+01   8.364391e+01
  -5.420203e+01   8.261649e+01
  -3.930281e+01   1.137710e+01
  -4.543864e+00  -5.356740e+01
   2.382348e+01  -4.614532e+01
   3.542482e+01   1.432291e+01
   2.733090e+01   5.528253e+01
  -1.225375e+00   3.723705e+01
  -3.368443e+01  -6.827190e+00
  -4.184644e+01  -2.403326e+01
  -2.161641e+01  -2.341971e+00
   2.495701e+00   1.813642e+01
   8.039171e+00   2.948305e+00
   2.371374e+00  -3.545780e+01
   9.012246e+00  -4.881505e+01
   2.830945e+01  -1.266937e+01
   3.312956e+01   4.087175e+01
   3.797540e+00   5.807265e+01
  -4.311351e+01   2.099895e+01
  -6.011624e+01  -3.663538e+01
  -1.660369e+01  -6.138491e+01
   5.819137e+01  -3.595217e+01
   9.339868e+01   1.154118e+01
   5.093387e+01   4.319885e+01
  -2.846979e+01   4.414325e+01
  -6.435574e+01   2.641464e+01
  -2.615330e+01   6.923858e+00
   3.240012e+01   9.742879e-01
   3.346993e+01   1.243317e+01
  -2.855465e+01   2.913216e+01
  -8.619366e+01   1.880142e+01
