
 $NMID
 id='ANONYMOUS ', fmtdat='(2E16.6)'
 volume=1.0
 tramp=1.0
 $END
  -3.745299e+03   1.599232e+02
  -2.548504e+03  -1.869310e+03
   1.017111e+02  -2.396281e+03
   1.583745e+03  -1.225641e+03
   1.034561e+03   1.166442e+02
  -2.033192e+02   4.274542e+02
  -6.394387e+02  -1.797906e+02
  -9.791149e+01  -7.775198e+02
   5.985353e+02  -7.181193e+02
   7.824169e+02  -6.283347e+01
   5.141096e+02   6.310039e+02
  -5.543319e+01   7.694231e+02
  -4.115843e+02   1.976979e+02
  -3.225466e+02  -5.182313e+02
   1.531667e+02  -6.407777e+02
   4.763401e+02  -4.728303e+01
   3.217141e+02   5.635828e+02
  -1.819078e+02   6.716414e+02
  -5.257757e+02   2.453913e+02
  -4.526280e+02  -2.345437e+02
  -1.112620e+02  -3.968851e+02
   1.585638e+02  -2.676352e+02
   1.326666e+02  -7.272541e+01
  -1.391565e+02  -3.591015e+01
  -3.098194e+02  -2.017597e+02
  -7.732572e+01  -3.622858e+02
   4.446822e+02  -2.522872e+02
   6.995900e+02   1.158669e+02
   3.283304e+02   4.203153e+02
  -3.286634e+02   3.313071e+02
  -6.046603e+02  -4.726163e+01
  -2.771964e+02  -3.920027e+02
   2.446847e+02  -4.280058e+02
   4.998058e+02  -1.887156e+02
   3.776515e+02   1.718629e+02
   1.060746e+02   3.708697e+02
  -7.694293e+01   2.374772e+02
  -5.155140e+01  -1.302391e+02
   1.775358e+02  -2.567495e+02
   2.890092e+02   7.558550e+01
   1.238766e+02   5.552108e+02
  -2.487234e+02   5.622122e+02
  -4.397288e+02   3.638463e+01
  -2.034912e+02  -3.860034e+02
   1.825862e+02  -2.285022e+02
   2.601593e+02   2.730138e+02
  -7.841529e+01   4.494237e+02
  -4.799760e+02   1.078631e+02
  -5.330041e+02  -3.647754e+02
  -1.728623e+02  -5.210707e+02
   3.120590e+02  -3.152918e+02
   5.624200e+02   4.111369e+01
   3.752764e+02   2.870351e+02
  -6.208895e+01   2.928637e+02
  -3.440210e+02   1.028833e+02
  -2.445219e+02  -7.574498e+01
   2.666965e+01  -6.453294e+01
   1.011838e+02   7.878289e+01
  -1.144116e+02   1.173980e+02
  -2.824605e+02  -4.003014e+01
  -1.533459e+02  -2.311031e+02
   1.695962e+02  -2.724691e+02
   3.559472e+02  -1.224572e+02
   2.490709e+02   9.461190e+01
  -2.477731e+01   2.912067e+02
  -2.656856e+02   3.554167e+02
  -3.438034e+02   1.889173e+02
  -2.571814e+02  -1.417095e+02
  -7.032621e+01  -3.876846e+02
   5.155774e+01  -3.457252e+02
   6.287018e+01  -1.500621e+02
   3.968609e+01  -5.564228e+01
   1.029660e+02  -1.001771e+02
   2.190059e+02  -8.556763e+01
   2.502921e+02   8.671760e+01
   1.212203e+02   2.571728e+02
  -7.402207e+01   2.179364e+02
  -1.996118e+02  -1.049738e+01
  -1.664531e+02  -2.312901e+02
   2.020042e+01  -2.644874e+02
   2.478896e+02  -9.084340e+01
   3.346631e+02   1.553084e+02
   1.927246e+02   3.104591e+02
  -5.890947e+01   2.876637e+02
  -1.936921e+02   1.556146e+02
  -1.573907e+02   5.841491e+01
  -1.328095e+02   5.599956e+01
  -2.573392e+02   4.795942e+01
  -4.055878e+02  -7.371762e+01
  -3.267769e+02  -2.880816e+02
   1.312244e+01  -4.393270e+02
   3.621617e+02  -4.087169e+02
   4.735498e+02  -1.915486e+02
   3.048638e+02   9.238487e+01
   4.067087e+01   2.642362e+02
  -1.006058e+02   2.208142e+02
  -3.736288e+01   3.870714e+01
   1.090032e+02  -6.998474e+01
   1.525748e+02   1.554277e+01
   3.195150e+01   1.546002e+02
  -1.229548e+02   1.369524e+02
  -1.338403e+02  -4.450125e+01
   1.703363e+01  -1.480321e+02
   1.692958e+02  -1.346852e+01
   1.587189e+02   2.350953e+02
  -1.651498e+01   3.440880e+02
  -2.348075e+02   2.068079e+02
  -3.480967e+02  -5.725855e+01
  -2.822098e+02  -2.489012e+02
  -7.242967e+01  -2.669534e+02
   1.203121e+02  -1.468894e+02
   1.586996e+02  -1.405501e+01
   4.210005e+01   1.989392e+01
  -5.486624e+01  -5.340902e+01
  -8.991261e+00  -1.150721e+02
   1.197925e+02  -8.051365e+01
   1.571761e+02   1.567873e+01
   4.269545e+01   5.791430e+01
  -7.918006e+01  -1.065758e+00
  -4.388374e+01  -8.363651e+01
   1.378382e+02  -8.926352e+01
   2.932306e+02   8.952760e+00
   2.583916e+02   1.536520e+02
   4.032055e+01   2.589176e+02
  -1.930864e+02   2.449772e+02
  -2.692839e+02   1.145191e+02
  -1.486405e+02  -4.126472e+01
   2.331371e+01  -8.969728e+01
   7.102289e+01  -3.809771e+00
  -4.212114e+01   8.765204e+01
  -1.823495e+02   4.932727e+01
  -1.967941e+02  -9.593278e+01
  -6.527219e+01  -1.938696e+02
   8.545212e+01  -1.469193e+02
   1.311962e+02  -2.389377e+01
   5.546342e+01   3.704157e+01
  -3.618417e+01  -1.350198e+01
  -2.872630e+01  -1.028131e+02
   8.939796e+01  -1.181534e+02
   2.066976e+02  -1.958773e+01
   1.872171e+02   1.296431e+02
   1.812938e+01   2.133767e+02
  -1.573640e+02   1.583835e+02
  -1.835717e+02   1.122059e+01
  -6.178911e+01  -1.023949e+02
   6.257843e+01  -1.016225e+02
   7.436354e+01  -2.613265e+01
   6.032885e+00   2.431816e+01
  -3.398456e+01   8.363151e+00
   1.057825e+01  -2.383587e+01
   8.874654e+01   1.736618e+00
   1.035798e+02   9.328541e+01
   1.061993e+01   1.736068e+02
  -1.424154e+02   1.539447e+02
  -2.405249e+02   1.218885e+01
  -1.947540e+02  -1.601746e+02
  -3.671313e+01  -2.342539e+02
   1.058648e+02  -1.646382e+02
   1.333496e+02  -2.854374e+01
   7.413352e+01   5.084092e+01
   3.249343e+01   3.193025e+01
   5.428383e+01  -1.711748e+01
   8.622098e+01  -1.029652e+01
   5.424398e+01   5.686571e+01
  -3.946319e+01   1.059620e+02
  -1.194571e+02   6.677658e+01
  -1.049233e+02  -4.415161e+01
   1.476330e+01  -1.276217e+02
   1.600059e+02  -9.116849e+01
   2.058875e+02   5.985177e+01
   9.043913e+01   2.078502e+02
  -1.179723e+02   2.229403e+02
  -2.641690e+02   8.979151e+01
  -2.467691e+02  -8.257798e+01
  -1.063234e+02  -1.678860e+02
   3.404611e+01  -1.423220e+02
   8.556829e+01  -8.536894e+01
   7.066597e+01  -7.316424e+01
   6.015640e+01  -9.650489e+01
   9.304068e+01  -8.004177e+01
   1.341619e+02   1.900110e+01
   1.227660e+02   1.556720e+02
   2.850055e+01   2.279819e+02
  -1.004577e+02   1.693464e+02
  -1.726361e+02   1.576055e+01
  -1.308558e+02  -1.239249e+02
  -1.482960e+01  -1.571074e+02
   7.024825e+01  -8.583616e+01
   6.171241e+01   9.601160e+00
  -8.070713e-01   5.144451e+01
  -2.277493e+01   3.654345e+01
   2.813551e+01   1.191269e+01
   8.108431e+01   1.769450e+01
   4.892310e+01   3.899498e+01
  -6.968483e+01   3.989545e+01
  -1.683997e+02   1.063962e-02
  -1.426498e+02  -5.710232e+01
  -3.913704e+00  -9.471670e+01
   1.300570e+02  -7.452570e+01
   1.442453e+02  -9.289753e+00
   4.377094e+01   4.790761e+01
  -6.132451e+01   4.380782e+01
  -7.831844e+01  -1.738381e+01
  -1.713640e+01  -7.453438e+01
   4.899662e+01  -6.658236e+01
   6.868314e+01  -1.378907e+00
   5.624263e+01   5.117180e+01
   4.801376e+01   4.458050e+01
   5.575706e+01  -8.383510e-01
   6.422338e+01  -1.867388e+00
   4.290056e+01   7.260980e+01
  -2.567578e+01   1.556397e+02
  -1.212907e+02   1.491361e+02
  -1.776006e+02   3.482251e+01
  -1.331671e+02  -9.399988e+01
  -6.033645e+00  -1.321186e+02
   8.995636e+01  -6.849482e+01
   6.390634e+01   1.116037e+01
  -5.671047e+01   2.313576e+01
  -1.356324e+02  -3.814498e+01
  -7.614689e+01  -1.039577e+02
   7.791168e+01  -1.110450e+02
   1.846918e+02  -5.138420e+01
   1.571426e+02   3.393340e+01
   3.456653e+01   8.361675e+01
  -5.979788e+01   6.412892e+01
  -4.735563e+01   7.369065e-01
   4.033466e+01  -3.127453e+01
   9.339034e+01   1.957586e+01
   4.021954e+01   1.180974e+02
  -8.093904e+01   1.589326e+02
  -1.613802e+02   7.166175e+01
  -1.301249e+02  -9.316003e+01
  -1.719191e+01  -1.956102e+02
   8.182800e+01  -1.436159e+02
   1.050320e+02   9.502249e+00
   5.936874e+01   1.192813e+02
  -9.098929e+00   1.046630e+02
  -5.033098e+01   1.789693e+01
  -4.797009e+01  -3.003677e+01
  -1.918811e+01  -8.357265e+00
  -5.862595e+00   1.655635e+01
  -2.880635e+01  -2.076747e+01
  -5.823634e+01  -8.719894e+01
  -3.535784e+01  -1.011092e+02
   5.297845e+01  -4.267348e+01
   1.363398e+02   3.425692e+01
   1.258564e+02   6.755629e+01
   1.838414e+01   5.495281e+01
  -8.332711e+01   2.897771e+01
  -8.822813e+01   7.057240e+00
  -1.597730e+01  -1.183249e+01
   3.445840e+01  -2.300113e+01
   1.658027e+01  -1.346620e+01
  -1.771525e+01   3.802605e+00
   6.544834e+00   5.887554e+00
   7.266558e+01  -2.412132e+00
   9.410331e+01   2.103650e+01
   1.847718e+01   8.368934e+01
  -1.096549e+02   1.219015e+02
  -1.858322e+02   7.004235e+01
  -1.502464e+02  -5.715701e+01
  -3.489528e+01  -1.598335e+02
   7.633830e+01  -1.554481e+02
   1.149828e+02  -6.368738e+01
   8.032546e+01   1.971521e+01
   2.576563e+01   3.729519e+01
   7.110176e-01   1.232095e+01
   1.289174e+01   7.226106e+00
   3.179829e+01   4.860003e+01
   2.145534e+01   9.137879e+01
  -2.855172e+01   7.245693e+01
  -8.078199e+01  -1.336684e+01
  -8.319360e+01  -1.008128e+02
  -1.558783e+01  -1.106813e+02
   7.740150e+01  -3.394498e+01
   1.089511e+02   6.436111e+01
   4.142670e+01   1.042868e+02
  -6.396046e+01   6.534744e+01
  -1.025399e+02  -6.194300e+00
  -4.458840e+01  -5.532874e+01
   3.247011e+01  -5.930109e+01
   3.587392e+01  -2.788554e+01
  -2.835982e+01   6.313699e+00
  -6.650883e+01   9.338767e+00
  -1.623681e+01  -2.713897e+01
   7.727883e+01  -6.867130e+01
   1.167774e+02  -5.568970e+01
   6.885000e+01   1.672899e+01
  -1.239105e+01   8.708771e+01
  -5.723419e+01   8.516400e+01
  -4.663606e+01   1.107568e+01
  -8.200073e+00  -5.597114e+01
   2.451621e+01  -4.884995e+01
   3.907657e+01   1.303653e+01
   2.879609e+01   5.393438e+01
  -1.457974e+00   3.721517e+01
  -3.331148e+01  -5.778774e+00
  -4.048635e+01  -2.328853e+01
  -1.965933e+01  -2.984547e+00
   3.419256e+00   1.911448e+01
   5.525498e+00   5.389991e+00
  -3.267902e+00  -3.386024e+01
   4.679835e+00  -5.285135e+01
   3.071188e+01  -1.940398e+01
   4.202144e+01   3.864670e+01
   1.153274e+01   6.324524e+01
  -4.193693e+01   2.718850e+01
  -6.237527e+01  -3.376719e+01
  -1.983979e+01  -6.064557e+01
   5.597714e+01  -3.624046e+01
   9.223689e+01   1.151620e+01
   5.046492e+01   4.237772e+01
  -2.845126e+01   4.491914e+01
  -6.520469e+01   2.732404e+01
  -2.721899e+01   5.704314e+00
   3.252072e+01  -4.530449e+00
   3.751056e+01   8.971629e+00
  -2.333684e+01   3.056448e+01
  -8.303619e+01   2.542656e+01
