
 $NMID
 id='ANONYMOUS ', fmtdat='(2E16.6)'
 volume=1.0
 tramp=1.0
 $END
   4.481583e+03  -7.612510e+01
   2.682522e+03   2.725808e+03
  -6.814975e+02   2.901668e+03
  -2.181184e+03   9.398939e+02
  -1.028595e+03  -6.777200e+02
   6.428457e+02  -5.779482e+02
   9.227317e+02   4.654561e+02
  -2.130332e+01   1.096695e+03
  -8.767769e+02   8.073742e+02
  -9.881544e+02  -9.306904e+01
  -4.781696e+02  -8.620057e+02
   2.578982e+02  -9.293418e+02
   6.569927e+02  -1.292260e+02
   3.770638e+02   7.474973e+02
  -2.961888e+02   7.946545e+02
  -6.517660e+02  -1.954840e+01
  -3.073171e+02  -7.089701e+02
   3.015633e+02  -6.925171e+02
   5.963303e+02  -1.228203e+02
   4.166964e+02   3.557409e+02
   3.077421e+01   4.563468e+02
  -2.505612e+02   2.761739e+02
  -2.274625e+02   8.701443e+00
   1.240213e+02  -1.019362e+02
   4.366515e+02   1.176494e+02
   2.172330e+02   4.558632e+02
  -4.802163e+02   4.270566e+02
  -8.798545e+02  -8.921579e+01
  -4.389407e+02  -5.692918e+02
   4.175797e+02  -4.903689e+02
   7.815001e+02   4.623197e+01
   3.667911e+02   5.053607e+02
  -2.921267e+02   5.383689e+02
  -5.990743e+02   2.223448e+02
  -4.558132e+02  -2.340417e+02
  -8.792152e+01  -4.978302e+02
   2.085176e+02  -2.999844e+02
   1.836635e+02   2.257555e+02
  -1.941841e+02   4.825294e+02
  -4.696171e+02  -1.575169e+01
  -2.523356e+02  -7.060136e+02
   3.281122e+02  -7.337751e+02
   6.291655e+02  -1.917083e+01
   2.799064e+02   5.802652e+02
  -2.924974e+02   3.518018e+02
  -4.074548e+02  -3.194303e+02
   5.438054e+01  -5.744468e+02
   5.684627e+02  -1.669017e+02
   6.248441e+02   4.010255e+02
   1.877675e+02   6.064622e+02
  -3.902549e+02   3.730813e+02
  -6.563865e+02  -6.063452e+01
  -3.961811e+02  -3.915597e+02
   1.572353e+02  -3.774881e+02
   4.643515e+02  -6.498903e+01
   2.511165e+02   2.016608e+02
  -1.254434e+02   1.095227e+02
  -1.539271e+02  -1.594828e+02
   1.645735e+02  -2.005774e+02
   3.587253e+02   6.734878e+01
   1.543964e+02   3.049938e+02
  -1.934103e+02   2.839409e+02
  -3.380657e+02   9.830063e+01
  -2.232902e+02  -7.622446e+01
   2.906276e+00  -2.429329e+02
   2.131683e+02  -3.519443e+02
   3.555725e+02  -2.308922e+02
   3.081108e+02   1.365224e+02
   8.669919e+01   4.502782e+02
  -1.243104e+02   3.966284e+02
  -1.329793e+02   1.204334e+02
  -2.910498e+01  -1.112174e+01
  -3.888981e+01   8.752362e+01
  -1.938199e+02   1.340862e+02
  -2.885220e+02  -4.979889e+01
  -1.735597e+02  -2.768903e+02
   6.781984e+01  -2.704870e+02
   2.366320e+02  -2.038021e+01
   2.138757e+02   2.422249e+02
  -1.705345e+00   3.057304e+02
  -2.732897e+02   1.261764e+02
  -3.802165e+02  -1.680407e+02
  -2.018234e+02  -3.624170e+02
   9.926917e+01  -3.229776e+02
   2.373380e+02  -1.344887e+02
   1.571726e+02  -9.589443e+00
   1.050271e+02  -3.386054e+01
   2.405871e+02  -6.469886e+01
   4.154184e+02   5.294984e+01
   3.540411e+02   2.840111e+02
   7.337104e+00   4.650339e+02
  -3.656941e+02   4.431353e+02
  -5.125350e+02   2.251744e+02
  -3.605948e+02  -9.209236e+01
  -6.664648e+01  -3.100361e+02
   1.329854e+02  -2.646033e+02
   8.793514e+01  -2.840854e+01
  -1.095188e+02   1.132482e+02
  -2.017392e+02  -6.038045e+00
  -5.587732e+01  -2.029425e+02
   1.653919e+02  -1.812230e+02
   1.882507e+02   5.977698e+01
  -1.361561e+01   2.003510e+02
  -2.006429e+02   3.758147e+01
  -1.754431e+02  -2.507678e+02
   2.224865e+01  -3.608903e+02
   2.347279e+02  -2.104761e+02
   3.398451e+02   5.213594e+01
   2.967815e+02   2.396860e+02
   1.061908e+02   2.745632e+02
  -1.157649e+02   1.742331e+02
  -1.855220e+02   2.701078e+01
  -6.349491e+01  -3.408591e+01
   7.412630e+01   3.671157e+01
   3.454035e+01   1.296222e+02
  -1.269897e+02   1.096077e+02
  -1.907663e+02  -9.094193e+00
  -6.718027e+01  -7.738585e+01
   8.190066e+01  -2.330426e+01
   6.070336e+01   7.171863e+01
  -1.217249e+02   9.151388e+01
  -2.876560e+02   5.609121e+00
  -2.722960e+02  -1.367726e+02
  -6.989731e+01  -2.614645e+02
   1.827380e+02  -2.749322e+02
   2.920196e+02  -1.360665e+02
   1.799640e+02   5.158673e+01
  -2.262206e+01   1.186483e+02
  -9.714299e+01   1.188248e+01
   2.725420e+01  -1.075632e+02
   1.991097e+02  -7.018240e+01
   2.245021e+02   9.835501e+01
   7.762915e+01   2.162053e+02
  -9.570571e+01   1.694172e+02
  -1.520533e+02   3.212847e+01
  -7.561556e+01  -4.547724e+01
   3.005199e+01  -7.774123e+00
   4.316063e+01   8.411248e+01
  -6.808422e+01   1.213393e+02
  -2.026585e+02   3.843778e+01
  -2.030478e+02  -1.212784e+02
  -3.099197e+01  -2.268567e+02
   1.655692e+02  -1.746896e+02
   2.037360e+02  -8.976566e+00
   7.213779e+01   1.207389e+02
  -6.849463e+01   1.187430e+02
  -8.967152e+01   3.206290e+01
  -2.178998e+01  -2.907035e+01
   2.318576e+01  -2.227066e+01
  -7.060328e+00   7.686533e+00
  -7.048652e+01  -4.232959e+00
  -9.344340e+01  -7.855427e+01
  -2.175941e+01  -1.611801e+02
   1.251887e+02  -1.619871e+02
   2.425611e+02  -3.487895e+01
   2.166266e+02   1.496461e+02
   5.147352e+01   2.466430e+02
  -1.106833e+02   1.820070e+02
  -1.435432e+02   3.333935e+01
  -7.680138e+01  -5.606917e+01
  -2.855629e+01  -3.773816e+01
  -5.116240e+01   1.416937e+01
  -8.189696e+01   9.773196e+00
  -4.783975e+01  -5.029593e+01
   3.852199e+01  -9.425490e+01
   1.043228e+02  -6.318834e+01
   9.210271e+01   3.227040e+01
  -8.286283e+00   1.142937e+02
  -1.414926e+02   9.548054e+01
  -2.040510e+02  -4.425019e+01
  -1.103248e+02  -2.045775e+02
   1.025899e+02  -2.401832e+02
   2.719807e+02  -1.080822e+02
   2.670527e+02   8.125120e+01
   1.168378e+02   1.796543e+02
  -3.691497e+01   1.534287e+02
  -9.419592e+01   8.972925e+01
  -7.824368e+01   7.338271e+01
  -6.504304e+01   9.364591e+01
  -9.281730e+01   7.710786e+01
  -1.330406e+02  -1.863217e+01
  -1.257938e+02  -1.534919e+02
  -3.506571e+01  -2.291500e+02
   9.850116e+01  -1.782109e+02
   1.808519e+02  -2.505910e+01
   1.435405e+02   1.227707e+02
   2.255724e+01   1.634909e+02
  -7.013608e+01   9.609307e+01
  -6.375367e+01   1.342590e+00
  -7.278121e+00  -4.530778e+01
   1.049899e+01  -3.792392e+01
  -3.557144e+01  -1.972164e+01
  -7.999089e+01  -2.159301e+01
  -4.481362e+01  -3.703419e+01
   6.391696e+01  -3.736658e+01
   1.594338e+02  -6.799329e+00
   1.441716e+02   4.646236e+01
   1.907923e+01   8.921914e+01
  -1.177816e+02   7.953984e+01
  -1.473949e+02   1.788520e+01
  -5.361941e+01  -4.009285e+01
   5.626621e+01  -4.014505e+01
   7.807156e+01   1.635921e+01
   1.324236e+01   6.901956e+01
  -5.307639e+01   5.998667e+01
  -6.582955e+01   1.432567e+00
  -4.814156e+01  -4.834156e+01
  -4.635132e+01  -4.122720e+01
  -6.042510e+01  -2.285703e+00
  -6.566900e+01  -1.340105e+00
  -3.898997e+01  -6.748223e+01
   2.944211e+01  -1.467145e+02
   1.179783e+02  -1.470065e+02
   1.700471e+02  -3.779615e+01
   1.283382e+02   9.068565e+01
   8.817682e+00   1.308084e+02
  -8.475810e+01   6.585446e+01
  -6.080126e+01  -1.383208e+01
   5.797658e+01  -2.460906e+01
   1.411004e+02   3.853881e+01
   8.275371e+01   1.089110e+02
  -7.633442e+01   1.201420e+02
  -1.944321e+02   6.018929e+01
  -1.702323e+02  -3.230274e+01
  -4.182706e+01  -8.907975e+01
   6.071701e+01  -7.376716e+01
   5.084823e+01  -8.532382e+00
  -3.761080e+01   2.828550e+01
  -9.312526e+01  -2.160158e+01
  -3.736524e+01  -1.206907e+02
   8.846302e+01  -1.578050e+02
   1.680934e+02  -6.751057e+01
   1.319915e+02   1.004460e+02
   1.540843e+01   2.011210e+02
  -8.415074e+01   1.489810e+02
  -1.084793e+02  -4.430866e+00
  -6.539659e+01  -1.196805e+02
   2.108107e-01  -1.097167e+02
   4.886014e+01  -2.283415e+01
   5.446472e+01   3.197708e+01
   2.629690e+01   1.100691e+01
   4.372446e+00  -1.985005e+01
   2.351846e+01   1.522859e+01
   5.879008e+01   8.848152e+01
   4.241199e+01   1.110676e+02
  -4.849113e+01   4.854187e+01
  -1.408581e+02  -3.671647e+01
  -1.315698e+02  -7.178888e+01
  -1.932695e+01  -5.295980e+01
   8.675863e+01  -2.432168e+01
   9.063275e+01  -8.069127e+00
   1.403997e+01   8.616131e+00
  -3.862388e+01   2.371082e+01
  -1.657268e+01   1.798710e+01
   2.023089e+01  -2.114052e+00
  -3.208381e+00  -9.259439e+00
  -7.292234e+01  -1.876725e+00
  -9.407334e+01  -2.159687e+01
  -1.305719e+01  -7.768275e+01
   1.160718e+02  -1.176978e+02
   1.866753e+02  -6.513077e+01
   1.465948e+02   6.385240e+01
   2.787349e+01   1.658347e+02
  -7.869324e+01   1.578434e+02
  -1.171935e+02   6.232442e+01
  -8.380310e+01  -2.314076e+01
  -2.704807e+01  -3.852132e+01
   1.794814e+00  -8.815172e+00
  -1.056156e+01  -1.642553e+00
  -3.456236e+01  -4.509323e+01
  -2.444830e+01  -9.299720e+01
   2.839496e+01  -7.588194e+01
   8.406593e+01   1.642862e+01
   8.123534e+01   1.091751e+02
   6.307125e+00   1.143875e+02
  -8.465536e+01   2.640866e+01
  -1.064697e+02  -7.556861e+01
  -3.377174e+01  -1.059995e+02
   6.676032e+01  -5.932433e+01
   1.000112e+02   8.664262e+00
   4.256921e+01   5.133287e+01
  -3.200024e+01   5.530138e+01
  -3.312726e+01   3.001197e+01
   3.247474e+01  -1.667968e+00
   7.024348e+01  -7.402243e+00
   1.829539e+01   2.611074e+01
  -7.889022e+01   7.008965e+01
  -1.196914e+02   6.179767e+01
  -6.876183e+01  -1.183139e+01
   1.324057e+01  -8.636990e+01
   5.457711e+01  -8.380716e+01
   3.912197e+01  -8.049565e+00
   1.782898e+00   5.626054e+01
  -2.682515e+01   4.423515e+01
  -3.747286e+01  -1.856299e+01
  -2.822287e+01  -5.536549e+01
   1.428073e+00  -3.545021e+01
   3.357272e+01   7.290643e+00
   4.147644e+01   2.080975e+01
   2.124628e+01   5.817929e-01
  -8.784244e-01  -1.588330e+01
  -7.168225e+00   1.865179e+00
  -4.624640e+00   3.696724e+01
  -1.371744e+01   4.682666e+01
  -3.102148e+01   9.226286e+00
  -3.234856e+01  -4.326573e+01
  -7.327398e-01  -6.145448e+01
   4.468606e+01  -2.227583e+01
   5.885244e+01   3.806359e+01
   1.602083e+01   6.395181e+01
  -5.608336e+01   3.759681e+01
  -9.096139e+01  -1.286599e+01
  -5.003032e+01  -4.377005e+01
   2.811192e+01  -4.199563e+01
   6.390438e+01  -2.246178e+01
   2.341078e+01  -4.676266e+00
  -3.758810e+01  -1.790121e+00
  -3.849538e+01  -1.700830e+01
   2.984878e+01  -3.353957e+01
   9.153907e+01  -2.149908e+01
