
 $NMID
 id='ANONYMOUS ', fmtdat='(2E16.6)'
 volume=1.0
 tramp=1.0
 $END
  -3.500773e+03  -3.632680e+01
  -2.151291e+03  -2.000143e+03
   3.757467e+02  -2.264343e+03
   1.607436e+03  -9.532969e+02
   8.634263e+02   2.654391e+02
  -3.388383e+02   3.495158e+02
  -5.917553e+02  -2.990479e+02
   3.378554e+01  -7.930048e+02
   6.390857e+02  -6.207442e+02
   7.511512e+02   2.609036e+01
   4.113484e+02   6.791727e+02
  -1.040574e+02   7.113470e+02
  -4.331887e+02   1.304248e+02
  -2.849043e+02  -5.528021e+02
   1.853184e+02  -6.116343e+02
   4.580948e+02  -4.496344e+01
   2.640317e+02   5.543009e+02
  -2.074527e+02   5.927619e+02
  -4.954819e+02   1.639360e+02
  -3.892080e+02  -2.479890e+02
  -6.903915e+01  -3.729721e+02
   1.731944e+02  -2.260374e+02
   1.299877e+02  -3.452426e+01
  -1.528859e+02  -4.169897e+00
  -3.422343e+02  -1.934554e+02
  -8.797409e+01  -4.005905e+02
   4.642143e+02  -2.867832e+02
   7.177682e+02   1.365754e+02
   3.051499e+02   4.542857e+02
  -3.647185e+02   3.289569e+02
  -6.077757e+02  -9.688264e+01
  -2.515921e+02  -4.167268e+02
   2.745419e+02  -4.205431e+02
   5.012120e+02  -1.443765e+02
   3.476102e+02   1.979965e+02
   5.436851e+01   3.746358e+02
  -1.291383e+02   2.003412e+02
  -5.269955e+01  -1.735845e+02
   1.877222e+02  -2.583012e+02
   3.221389e+02   1.062965e+02
   1.014986e+02   5.828881e+02
  -2.957372e+02   5.403564e+02
  -4.426551e+02  -2.046271e+01
  -1.572351e+02  -4.244132e+02
   2.290996e+02  -2.102542e+02
   2.593206e+02   3.056566e+02
  -1.017553e+02   4.525635e+02
  -4.878300e+02   8.453060e+01
  -5.159620e+02  -3.775893e+02
  -1.498384e+02  -5.180583e+02
   3.271436e+02  -2.908941e+02
   5.477968e+02   7.069847e+01
   3.334376e+02   3.065761e+02
  -1.026947e+02   2.792193e+02
  -3.444990e+02   5.352782e+01
  -2.053544e+02  -1.064684e+02
   5.981735e+01  -5.251337e+01
   8.443391e+01   1.058751e+02
  -1.354299e+02   1.116064e+02
  -2.716591e+02  -6.730213e+01
  -1.195744e+02  -2.383614e+02
   1.848385e+02  -2.403757e+02
   3.196669e+02  -1.000887e+02
   2.231611e+02   8.311624e+01
  -8.984440e+00   2.606175e+02
  -2.430956e+02   3.380297e+02
  -3.404942e+02   1.859814e+02
  -2.609830e+02  -1.471783e+02
  -6.146372e+01  -3.778409e+02
   7.412598e+01  -3.243498e+02
   5.838888e+01  -1.225904e+02
   1.289801e+01  -5.218529e+01
   8.188859e+01  -1.127918e+02
   2.179795e+02  -1.001298e+02
   2.562365e+02   8.265385e+01
   1.219547e+02   2.567241e+02
  -8.304324e+01   2.190188e+02
  -2.050613e+02  -1.456380e+01
  -1.604594e+02  -2.323385e+02
   3.387757e+01  -2.616023e+02
   2.499357e+02  -8.137919e+01
   3.178545e+02   1.689983e+02
   1.631405e+02   3.131084e+02
  -7.616306e+01   2.668806e+02
  -1.860009e+02   1.222062e+02
  -1.352104e+02   4.065534e+01
  -1.139097e+02   5.778273e+01
  -2.424135e+02   5.388750e+01
  -3.915878e+02  -7.047715e+01
  -3.157879e+02  -2.806605e+02
   9.900993e+00  -4.195568e+02
   3.600480e+02  -3.843167e+02
   4.617252e+02  -1.719040e+02
   2.928372e+02   9.836297e+01
   2.848680e+01   2.582918e+02
  -1.074356e+02   2.081959e+02
  -3.965817e+01   2.575969e+01
   1.081815e+02  -7.000749e+01
   1.540109e+02   2.035745e+01
   2.939117e+01   1.595078e+02
  -1.285559e+02   1.264598e+02
  -1.330571e+02  -5.541535e+01
   2.672839e+01  -1.514194e+02
   1.701526e+02  -1.175824e+01
   1.483937e+02   2.318665e+02
  -2.540339e+01   3.302016e+02
  -2.280985e+02   1.929229e+02
  -3.311584e+02  -5.717276e+01
  -2.674691e+02  -2.418347e+02
  -7.334403e+01  -2.659489e+02
   1.211592e+02  -1.462072e+02
   1.598123e+02  -9.846610e+00
   4.447208e+01   2.582783e+01
  -5.840374e+01  -4.752785e+01
  -1.231304e+01  -1.151168e+02
   1.196465e+02  -7.673986e+01
   1.532895e+02   2.201725e+01
   3.752065e+01   6.327385e+01
  -8.131469e+01   1.871391e+00
  -4.760704e+01  -8.240155e+01
   1.275114e+02  -9.001694e+01
   2.761172e+02   5.214014e+00
   2.486809e+02   1.457809e+02
   4.401318e+01   2.497746e+02
  -1.853310e+02   2.374191e+02
  -2.646563e+02   1.044193e+02
  -1.473628e+02  -5.048791e+01
   2.661947e+01  -9.048293e+01
   7.534687e+01   6.549399e-01
  -4.122102e+01   8.857623e+01
  -1.822059e+02   4.462054e+01
  -1.909853e+02  -9.984176e+01
  -5.943560e+01  -1.891855e+02
   8.866187e+01  -1.408068e+02
   1.289739e+02  -2.092398e+01
   5.603955e+01   3.922491e+01
  -3.517410e+01  -6.944540e+00
  -3.211326e+01  -9.293881e+01
   8.019537e+01  -1.128856e+02
   1.950049e+02  -2.001497e+01
   1.773646e+02   1.230913e+02
   1.667020e+01   2.022366e+02
  -1.494275e+02   1.484137e+02
  -1.720035e+02   8.185744e+00
  -5.763178e+01  -9.750386e+01
   5.837920e+01  -9.614182e+01
   7.185139e+01  -2.562566e+01
   9.600242e+00   2.336068e+01
  -2.722299e+01   1.211989e+01
   7.909863e+00  -1.496130e+01
   7.357970e+01   3.312967e+00
   9.098535e+01   8.057350e+01
   1.329495e+01   1.569434e+02
  -1.256782e+02   1.452146e+02
  -2.230622e+02   1.753206e+01
  -1.871028e+02  -1.451378e+02
  -3.836466e+01  -2.194970e+02
   1.002901e+02  -1.555817e+02
   1.260757e+02  -2.782903e+01
   6.893305e+01   4.732283e+01
   2.828527e+01   3.141531e+01
   5.074009e+01  -1.199096e+01
   7.914965e+01  -8.393260e+00
   4.849303e+01   4.763669e+01
  -3.473722e+01   9.049364e+01
  -1.033770e+02   6.127959e+01
  -9.111229e+01  -3.467303e+01
   1.216604e+01  -1.127945e+02
   1.441950e+02  -8.459203e+01
   1.920612e+02   5.455277e+01
   8.875136e+01   1.979967e+02
  -1.099026e+02   2.150368e+02
  -2.542462e+02   8.445270e+01
  -2.388216e+02  -8.407714e+01
  -9.848698e+01  -1.650693e+02
   3.672509e+01  -1.356634e+02
   8.687059e+01  -7.780326e+01
   6.932046e+01  -6.453756e+01
   5.685007e+01  -8.701928e+01
   8.439670e+01  -7.432788e+01
   1.220350e+02   1.522502e+01
   1.142486e+02   1.428048e+02
   3.008135e+01   2.127827e+02
  -9.287569e+01   1.600421e+02
  -1.635987e+02   1.533496e+01
  -1.236418e+02  -1.182438e+02
  -1.208742e+01  -1.493042e+02
   7.063185e+01  -8.050898e+01
   6.076308e+01   7.031684e+00
   1.213540e+00   4.716514e+01
  -1.935012e+01   3.541474e+01
   2.763681e+01   1.473805e+01
   7.774933e+01   1.972539e+01
   4.555444e+01   3.757107e+01
  -6.421134e+01   3.911013e+01
  -1.579087e+02   1.197546e+00
  -1.389072e+02  -5.573300e+01
  -6.321123e+00  -9.007700e+01
   1.210112e+02  -7.123024e+01
   1.368370e+02  -8.672308e+00
   4.358156e+01   4.507417e+01
  -5.712915e+01   4.024713e+01
  -7.334041e+01  -1.766514e+01
  -1.296328e+01  -6.793754e+01
   4.794435e+01  -5.990304e+01
   6.328908e+01  -1.508110e-01
   5.055156e+01   4.625340e+01
   4.447597e+01   4.057871e+01
   5.573363e+01   3.080025e+00
   6.244703e+01   1.051620e+00
   3.781876e+01   6.567850e+01
  -2.738511e+01   1.403067e+02
  -1.141389e+02   1.341732e+02
  -1.620593e+02   3.208821e+01
  -1.216099e+02  -8.727640e+01
  -6.162514e+00  -1.239297e+02
   8.432845e+01  -6.510721e+01
   6.037573e+01   1.089320e+01
  -5.267117e+01   1.952412e+01
  -1.281986e+02  -3.939907e+01
  -7.021700e+01  -1.007563e+02
   7.726571e+01  -1.045921e+02
   1.811653e+02  -4.486289e+01
   1.519010e+02   3.575176e+01
   3.216738e+01   8.142985e+01
  -5.964250e+01   6.200387e+01
  -4.691803e+01   3.106039e+00
   3.659593e+01  -2.815210e+01
   8.703229e+01   1.834261e+01
   3.569182e+01   1.090988e+02
  -7.819718e+01   1.471633e+02
  -1.510153e+02   6.373846e+01
  -1.182817e+02  -8.991042e+01
  -1.258492e+01  -1.828412e+02
   7.902445e+01  -1.336338e+02
   9.807110e+01   9.150691e+00
   5.387504e+01   1.132388e+02
  -8.851712e+00   1.010931e+02
  -4.713777e+01   1.700414e+01
  -4.617695e+01  -3.083713e+01
  -1.883974e+01  -9.042683e+00
  -5.121323e+00   1.819604e+01
  -2.598622e+01  -1.425450e+01
  -5.623031e+01  -8.257002e+01
  -3.630467e+01  -1.035372e+02
   4.945204e+01  -4.422825e+01
   1.299011e+02   3.703382e+01
   1.197867e+02   6.847903e+01
   1.692055e+01   4.971289e+01
  -7.914582e+01   2.153631e+01
  -8.266446e+01   3.568073e+00
  -1.407907e+01  -9.382470e+00
   3.437710e+01  -2.031459e+01
   1.608738e+01  -1.421618e+01
  -1.771099e+01   1.494217e+00
   3.338200e+00   5.848955e+00
   6.625322e+01   8.419457e-02
   8.787168e+01   2.162950e+01
   1.646912e+01   7.623215e+01
  -1.043739e+02   1.100882e+02
  -1.765328e+02   6.128710e+01
  -1.396410e+02  -5.707703e+01
  -2.921286e+01  -1.495825e+02
   7.225860e+01  -1.460854e+02
   1.071032e+02  -6.148577e+01
   7.682332e+01   1.898178e+01
   2.512768e+01   3.579212e+01
   1.842234e-01   9.908046e+00
   1.089766e+01   4.648576e+00
   3.037134e+01   4.391984e+01
   1.951585e+01   8.532712e+01
  -2.669373e+01   6.843389e+01
  -7.454303e+01  -1.443658e+01
  -7.456264e+01  -9.697644e+01
  -1.122273e+01  -1.035192e+02
   7.245707e+01  -2.724907e+01
   9.809828e+01   6.282027e+01
   3.635568e+01   9.486332e+01
  -5.923858e+01   5.798715e+01
  -9.533104e+01  -5.945840e+00
  -4.179763e+01  -5.003236e+01
   3.070026e+01  -5.453356e+01
   3.457504e+01  -2.768083e+01
  -2.723120e+01   2.415083e+00
  -6.406559e+01   7.199716e+00
  -1.551947e+01  -2.504421e+01
   7.498361e+01  -6.184854e+01
   1.117169e+02  -5.116784e+01
   6.331172e+01   1.470504e+01
  -1.308321e+01   7.967578e+01
  -5.156848e+01   7.732958e+01
  -3.886359e+01   8.980954e+00
  -4.877002e+00  -5.053222e+01
   2.199460e+01  -4.398931e+01
   3.438869e+01   1.174772e+01
   2.679168e+01   5.083808e+01
  -1.420021e+00   3.570355e+01
  -3.194133e+01  -5.912380e+00
  -3.916106e+01  -2.252279e+01
  -1.999743e+01  -2.884744e+00
   2.875111e+00   1.704685e+01
   5.718498e+00   2.164611e+00
  -2.272514e-01  -3.338335e+01
   7.410644e+00  -4.713206e+01
   2.833426e+01  -1.399222e+01
   3.444919e+01   3.730105e+01
   6.813506e+00   5.475439e+01
  -3.846251e+01   2.121150e+01
  -5.611359e+01  -3.259790e+01
  -1.740774e+01  -5.601141e+01
   5.262977e+01  -3.370485e+01
   8.735143e+01   1.018105e+01
   4.894539e+01   4.006947e+01
  -2.567395e+01   4.198057e+01
  -6.090204e+01   2.606607e+01
  -2.553104e+01   7.726938e+00
   2.967311e+01  -1.863573e-01
   3.230141e+01   9.358931e+00
  -2.565695e+01   2.595705e+01
  -7.857877e+01   1.956563e+01
