
 $NMID
 id='ANONYMOUS ', fmtdat='(2E16.6)'
 volume=1.0
 tramp=1.0
 $END
  -3.464187e+03  -2.138001e+02
  -2.126614e+03  -1.835947e+03
   1.381722e+02  -2.122201e+03
   1.387851e+03  -1.145959e+03
   9.020007e+02  -2.642752e+01
  -1.200548e+02   2.745260e+02
  -4.595922e+02  -1.452246e+02
  -2.128720e+01  -6.178376e+02
   5.292102e+02  -5.676103e+02
   6.614677e+02  -4.569041e+01
   4.285489e+02   5.415964e+02
  -4.245635e+01   6.637684e+02
  -3.376464e+02   1.729245e+02
  -2.681437e+02  -4.546755e+02
   1.242774e+02  -5.561934e+02
   3.910982e+02  -4.010118e+01
   2.801052e+02   4.893674e+02
  -1.447025e+02   5.789802e+02
  -4.644203e+02   2.233280e+02
  -4.160565e+02  -1.893512e+02
  -1.198727e+02  -3.485951e+02
   1.328749e+02  -2.524646e+02
   1.010305e+02  -8.674253e+01
  -1.433153e+02  -7.172285e+01
  -2.789348e+02  -2.223381e+02
  -2.598337e+01  -3.447926e+02
   4.481671e+02  -1.935069e+02
   6.123373e+02   1.458502e+02
   2.452003e+02   3.655933e+02
  -3.089823e+02   2.410281e+02
  -5.163199e+02  -1.023658e+02
  -2.068009e+02  -3.573637e+02
   2.394241e+02  -3.578008e+02
   4.435821e+02  -1.450151e+02
   3.287687e+02   1.599403e+02
   8.505866e+01   3.317009e+02
  -6.599281e+01   1.982897e+02
  -8.196479e+00  -1.112350e+02
   1.894484e+02  -1.981521e+02
   2.294101e+02   1.141705e+02
   4.443406e+01   5.026786e+02
  -2.590876e+02   4.617101e+02
  -3.643212e+02  -5.224223e+00
  -1.398533e+02  -3.404483e+02
   1.614377e+02  -1.712979e+02
   2.034674e+02   2.593034e+02
  -9.392946e+01   3.854262e+02
  -4.295665e+02   7.104907e+01
  -4.732181e+02  -3.501322e+02
  -1.522864e+02  -4.798529e+02
   2.871683e+02  -2.714218e+02
   5.066776e+02   5.202472e+01
   3.353550e+02   2.539259e+02
  -5.393226e+01   2.391591e+02
  -2.932528e+02   7.606514e+01
  -2.109147e+02  -5.322790e+01
   1.215130e+01  -3.430409e+01
   6.417770e+01   6.551568e+01
  -1.029892e+02   8.060879e+01
  -2.387847e+02  -4.587445e+01
  -1.232010e+02  -2.003798e+02
   1.474557e+02  -2.383616e+02
   3.196283e+02  -1.176010e+02
   2.392540e+02   8.870064e+01
  -1.907068e+01   2.805341e+02
  -2.655631e+02   3.351214e+02
  -3.397965e+02   1.671829e+02
  -2.338297e+02  -1.433019e+02
  -4.772867e+01  -3.591894e+02
   5.430962e+01  -3.176470e+02
   4.819329e+01  -1.486221e+02
   3.351689e+01  -7.219197e+01
   1.120391e+02  -1.015752e+02
   2.207638e+02  -6.545816e+01
   2.295721e+02   9.943675e+01
   1.010342e+02   2.463520e+02
  -7.846959e+01   1.970536e+02
  -1.839457e+02  -2.340367e+01
  -1.435808e+02  -2.274655e+02
   3.611484e+01  -2.469474e+02
   2.404468e+02  -7.109406e+01
   3.056784e+02   1.639757e+02
   1.653832e+02   2.965528e+02
  -5.993702e+01   2.609437e+02
  -1.705992e+02   1.399664e+02
  -1.395076e+02   6.389044e+01
  -1.329188e+02   6.304738e+01
  -2.606507e+02   3.567060e+01
  -3.880126e+02  -8.774394e+01
  -3.015968e+02  -2.814083e+02
   2.405590e+01  -4.072051e+02
   3.521537e+02  -3.720640e+02
   4.555798e+02  -1.680326e+02
   2.844252e+02   9.420717e+01
   2.279775e+01   2.487939e+02
  -1.005255e+02   1.961283e+02
  -2.447430e+01   3.109442e+01
   1.155954e+02  -4.993057e+01
   1.375056e+02   3.282080e+01
   1.230290e+01   1.459351e+02
  -1.241534e+02   1.113566e+02
  -1.187540e+02  -5.426582e+01
   2.678504e+01  -1.386678e+02
   1.612638e+02  -8.563182e+00
   1.452573e+02   2.235990e+02
  -2.186652e+01   3.273767e+02
  -2.285702e+02   1.977301e+02
  -3.295486e+02  -5.751325e+01
  -2.616076e+02  -2.467725e+02
  -6.110280e+01  -2.573727e+02
   1.207352e+02  -1.333433e+02
   1.468148e+02  -3.533419e+00
   3.629077e+01   1.853287e+01
  -4.902862e+01  -5.545324e+01
  -1.480559e+00  -1.104360e+02
   1.171202e+02  -6.744665e+01
   1.417492e+02   2.500961e+01
   3.294501e+01   5.592224e+01
  -7.878972e+01  -9.685361e+00
  -3.997157e+01  -8.793630e+01
   1.383276e+02  -8.404741e+01
   2.838116e+02   2.172273e+01
   2.428983e+02   1.628895e+02
   2.826900e+01   2.473984e+02
  -1.967381e+02   2.216700e+02
  -2.580343e+02   8.838457e+01
  -1.303088e+02  -4.719134e+01
   3.268250e+01  -7.610101e+01
   6.658513e+01   6.654147e+00
  -4.920283e+01   8.087723e+01
  -1.772722e+02   3.422991e+01
  -1.813793e+02  -9.870632e+01
  -5.264335e+01  -1.815527e+02
   8.581663e+01  -1.316941e+02
   1.218009e+02  -1.568994e+01
   4.568175e+01   3.761766e+01
  -4.014350e+01  -1.592190e+01
  -2.758921e+01  -1.012919e+02
   9.057966e+01  -1.133243e+02
   2.008502e+02  -1.384890e+01
   1.729171e+02   1.299744e+02
   8.384857e+00   2.000240e+02
  -1.512855e+02   1.414558e+02
  -1.669503e+02   4.639232e+00
  -5.066222e+01  -9.347567e+01
   6.139698e+01  -8.952147e+01
   6.743022e+01  -2.126608e+01
   1.607186e+00   2.316725e+01
  -3.308085e+01   5.935872e+00
   1.113555e+01  -2.397953e+01
   8.506358e+01   4.427871e-01
   9.872855e+01   8.772144e+01
   9.199400e+00   1.661209e+02
  -1.382220e+02   1.443538e+02
  -2.274869e+02   7.865103e+00
  -1.802750e+02  -1.516626e+02
  -3.069574e+01  -2.159063e+02
   9.978923e+01  -1.499953e+02
   1.223846e+02  -2.748300e+01
   6.787069e+01   4.455585e+01
   3.090794e+01   2.891977e+01
   5.348876e+01  -1.132254e+01
   8.165083e+01  -5.819130e+00
   5.048861e+01   5.348970e+01
  -4.023714e+01   9.749810e+01
  -1.159298e+02   6.102749e+01
  -1.000287e+02  -4.399712e+01
   1.887163e+01  -1.229645e+02
   1.572554e+02  -8.466589e+01
   1.948746e+02   6.312157e+01
   8.081777e+01   2.019800e+02
  -1.182285e+02   2.126297e+02
  -2.543427e+02   8.048127e+01
  -2.335228e+02  -8.582648e+01
  -9.461899e+01  -1.626746e+02
   3.697029e+01  -1.315310e+02
   8.351557e+01  -7.538723e+01
   6.661658e+01  -6.419146e+01
   5.591768e+01  -8.864110e+01
   8.617822e+01  -7.625517e+01
   1.254883e+02   1.673686e+01
   1.126158e+02   1.468244e+02
   2.454930e+01   2.142596e+02
  -9.699379e+01   1.579669e+02
  -1.635259e+02   9.840380e+00
  -1.206876e+02  -1.219912e+02
  -6.442154e+00  -1.481925e+02
   7.185766e+01  -7.597231e+01
   5.866153e+01   1.222093e+01
  -3.418203e+00   4.921721e+01
  -2.302899e+01   3.311984e+01
   2.830697e+01   1.121443e+01
   7.938315e+01   1.669734e+01
   4.803212e+01   3.838262e+01
  -6.572056e+01   4.002137e+01
  -1.615702e+02  -7.144670e-01
  -1.375055e+02  -5.649611e+01
  -3.980134e+00  -9.073913e+01
   1.235320e+02  -6.846206e+01
   1.378181e+02  -5.882007e+00
   4.346786e+01   4.580913e+01
  -5.746540e+01   4.143444e+01
  -7.474879e+01  -1.686883e+01
  -1.743340e+01  -6.948043e+01
   4.561348e+01  -6.186116e+01
   6.498015e+01  -2.718507e+00
   5.192915e+01   4.831776e+01
   4.395877e+01   4.331207e+01
   5.314697e+01   1.809218e+00
   6.245594e+01  -1.156879e-01
   3.970728e+01   6.593701e+01
  -2.763409e+01   1.411591e+02
  -1.178484e+02   1.383267e+02
  -1.699113e+02   3.195553e+01
  -1.241036e+02  -8.993921e+01
  -2.974490e+00  -1.267497e+02
   8.736687e+01  -6.608790e+01
   5.992956e+01   1.014209e+01
  -5.404172e+01   2.128680e+01
  -1.273693e+02  -3.716104e+01
  -6.809970e+01  -1.017141e+02
   7.864025e+01  -1.043095e+02
   1.779549e+02  -4.257065e+01
   1.476135e+02   3.827494e+01
   2.949224e+01   7.939083e+01
  -5.979838e+01   5.751351e+01
  -4.577990e+01   4.642536e-01
   3.746994e+01  -2.869563e+01
   8.742928e+01   1.893275e+01
   3.714979e+01   1.096930e+02
  -7.469290e+01   1.473523e+02
  -1.494857e+02   6.537597e+01
  -1.194083e+02  -8.652873e+01
  -1.420462e+01  -1.806926e+02
   7.633626e+01  -1.329244e+02
   9.782554e+01   1.041248e+01
   5.179710e+01   1.123360e+02
  -1.119797e+01   9.853541e+01
  -4.953310e+01   1.467938e+01
  -4.606960e+01  -3.186702e+01
  -1.704885e+01  -9.591906e+00
  -2.955825e+00   1.660434e+01
  -2.455116e+01  -1.820937e+01
  -5.427570e+01  -8.297618e+01
  -3.240105e+01  -9.920081e+01
   5.191544e+01  -4.173437e+01
   1.304815e+02   3.509458e+01
   1.182053e+02   6.563928e+01
   1.767275e+01   5.241782e+01
  -7.726951e+01   2.556617e+01
  -8.201099e+01   4.794088e+00
  -1.425374e+01  -1.201558e+01
   3.478926e+01  -2.010185e+01
   1.808446e+01  -1.151363e+01
  -1.576601e+01   5.061890e+00
   1.345866e+00   5.925111e+00
   6.201530e+01  -7.478471e-01
   8.648213e+01   1.924903e+01
   2.045815e+01   7.599439e+01
  -1.004275e+02   1.117458e+02
  -1.748164e+02   6.334693e+01
  -1.423743e+02  -5.640255e+01
  -3.186457e+01  -1.497992e+02
   7.260798e+01  -1.441624e+02
   1.091928e+02  -6.085615e+01
   7.841998e+01   1.777000e+01
   2.610371e+01   3.541233e+01
   6.845475e-01   1.178541e+01
   1.152077e+01   7.411568e+00
   2.806203e+01   4.579910e+01
   1.759975e+01   8.594729e+01
  -2.704948e+01   6.862669e+01
  -7.425876e+01  -1.294274e+01
  -7.553754e+01  -9.462898e+01
  -1.418636e+01  -1.035505e+02
   7.066484e+01  -3.127255e+01
   9.935547e+01   5.992097e+01
   3.732084e+01   9.654952e+01
  -5.971988e+01   6.074576e+01
  -9.774281e+01  -5.621271e+00
  -4.373492e+01  -5.351878e+01
   3.148032e+01  -5.825132e+01
   3.656826e+01  -2.873394e+01
  -2.615837e+01   4.950017e+00
  -6.571293e+01   8.343877e+00
  -1.746131e+01  -2.672847e+01
   7.693404e+01  -6.550413e+01
   1.177327e+02  -5.279039e+01
   6.801237e+01   1.700518e+01
  -1.377876e+01   8.221726e+01
  -5.557964e+01   7.962738e+01
  -4.350074e+01   1.170740e+01
  -6.868427e+00  -4.999248e+01
   2.173316e+01  -4.430309e+01
   3.454028e+01   1.062596e+01
   2.745298e+01   4.967368e+01
  -2.715017e-01   3.559721e+01
  -3.163974e+01  -4.898256e+00
  -3.898962e+01  -2.291500e+01
  -1.862075e+01  -4.264060e+00
   5.533167e+00   1.740806e+01
   6.636807e+00   7.857088e+00
  -3.800340e+00  -2.848387e+01
   1.161811e+00  -4.786413e+01
   2.530311e+01  -2.129568e+01
   3.804716e+01   3.274114e+01
   1.039252e+01   5.699862e+01
  -3.868543e+01   2.459818e+01
  -5.869780e+01  -3.202275e+01
  -1.827536e+01  -5.792855e+01
   5.294506e+01  -3.506552e+01
   8.732793e+01   1.029742e+01
   4.808944e+01   4.073151e+01
  -2.637882e+01   4.245337e+01
  -6.097774e+01   2.629898e+01
  -2.617706e+01   7.001593e+00
   2.811109e+01  -2.905266e+00
   3.232520e+01   6.556838e+00
  -2.309876e+01   2.446688e+01
  -7.551474e+01   1.946833e+01
