
 $NMID
 id='ANONYMOUS ', fmtdat='(2E16.6)'
 volume=1.0
 tramp=1.0
 $END
  -4.056535e+03   8.624860e+01
  -2.504228e+03  -2.387845e+03
   6.052797e+02  -2.693771e+03
   1.992455e+03  -9.957194e+02
   1.000609e+03   5.279394e+02
  -5.388453e+02   5.317238e+02
  -8.369722e+02  -3.699065e+02
  -3.594070e+01  -9.875926e+02
   7.480589e+02  -7.728473e+02
   8.993011e+02   5.709118e+01
   4.333286e+02   7.998580e+02
  -2.008077e+02   8.658955e+02
  -6.030461e+02   1.301253e+02
  -3.719718e+02  -6.714037e+02
   2.490420e+02  -7.326134e+02
   6.212410e+02  -1.323956e+01
   2.932238e+02   6.602410e+02
  -2.872753e+02   6.513159e+02
  -5.762580e+02   1.417431e+02
  -4.118338e+02  -3.259445e+02
  -3.617055e+01  -4.403852e+02
   2.286054e+02  -2.608821e+02
   1.998008e+02  -1.640704e+01
  -1.272427e+02   6.619862e+01
  -3.941280e+02  -1.467038e+02
  -1.763593e+02  -4.284631e+02
   4.545176e+02  -3.792523e+02
   8.208794e+02   8.490443e+01
   4.059803e+02   5.165753e+02
  -3.826262e+02   4.504494e+02
  -7.131145e+02  -4.504162e+01
  -3.313174e+02  -4.641541e+02
   2.766244e+02  -4.999575e+02
   5.498217e+02  -2.084188e+02
   4.133538e+02   2.084759e+02
   8.120239e+01   4.476329e+02
  -1.735159e+02   2.724650e+02
  -1.430319e+02  -2.013271e+02
   1.570057e+02  -4.284508e+02
   4.170325e+02   2.346869e+01
   2.224324e+02   6.512154e+02
  -2.978867e+02   6.710421e+02
  -5.661165e+02   1.511845e+01
  -2.473878e+02  -5.187674e+02
   2.650641e+02  -3.018212e+02
   3.644303e+02   3.004659e+02
  -5.342899e+01   5.293774e+02
  -5.341505e+02   1.455628e+02
  -5.922189e+02  -3.921559e+02
  -1.814645e+02  -5.796345e+02
   3.665527e+02  -3.454737e+02
   6.198581e+02   6.559159e+01
   3.758208e+02   3.664485e+02
  -1.332378e+02   3.476267e+02
  -4.185837e+02   6.564613e+01
  -2.356414e+02  -1.666935e+02
   9.702266e+01  -9.198896e+01
   1.261748e+02   1.397863e+02
  -1.525458e+02   1.699283e+02
  -3.304666e+02  -6.899171e+01
  -1.434389e+02  -2.870103e+02
   1.838069e+02  -2.649204e+02
   3.326004e+02  -9.520923e+01
   2.155393e+02   8.104756e+01
  -8.037057e+00   2.447901e+02
  -2.164798e+02   3.415659e+02
  -3.433672e+02   2.170424e+02
  -2.842587e+02  -1.379690e+02
  -8.147958e+01  -4.177435e+02
   1.024481e+02  -3.696954e+02
   1.082818e+02  -1.185185e+02
   2.703465e+01  -6.525325e+00
   5.505886e+01  -9.106467e+01
   2.005234e+02  -1.175525e+02
   2.731453e+02   5.936184e+01
   1.521347e+02   2.662001e+02
  -7.361290e+01   2.522455e+02
  -2.256577e+02   1.078380e+01
  -1.933633e+02  -2.389251e+02
   9.294250e+00  -2.939315e+02
   2.601297e+02  -1.172443e+02
   3.564749e+02   1.622173e+02
   1.938416e+02   3.408392e+02
  -8.277884e+01   3.036772e+02
  -2.148564e+02   1.341083e+02
  -1.506935e+02   2.374733e+01
  -1.052001e+02   4.126292e+01
  -2.353915e+02   5.533317e+01
  -3.950181e+02  -6.004305e+01
  -3.314706e+02  -2.780582e+02
  -1.022727e+01  -4.441024e+02
   3.462872e+02  -4.146776e+02
   4.866346e+02  -2.040867e+02
   3.365424e+02   9.020547e+01
   5.505515e+01   2.933248e+02
  -1.283690e+02   2.464312e+02
  -7.967118e+01   3.269392e+01
   1.043214e+02  -9.777507e+01
   1.867292e+02   6.805516e+00
   4.829024e+01   1.838893e+02
  -1.510848e+02   1.639089e+02
  -1.680107e+02  -5.448668e+01
   1.467414e+01  -1.831179e+02
   1.874918e+02  -3.294857e+01
   1.656068e+02   2.397868e+02
  -2.533154e+01   3.500395e+02
  -2.297490e+02   2.024857e+02
  -3.333046e+02  -5.724471e+01
  -2.829190e+02  -2.422137e+02
  -9.666145e+01  -2.702462e+02
   1.130375e+02  -1.625125e+02
   1.767496e+02  -1.942579e+01
   5.843723e+01   3.277054e+01
  -6.766680e+01  -3.867807e+01
  -2.764502e+01  -1.235812e+02
   1.231385e+02  -9.761638e+01
   1.750293e+02   1.254447e+01
   5.759741e+01   6.961661e+01
  -7.931379e+01   1.438173e+01
  -5.461386e+01  -7.272951e+01
   1.215088e+02  -8.665571e+01
   2.827012e+02  -5.872411e-01
   2.617182e+02   1.361208e+02
   6.375956e+01   2.531961e+02
  -1.795126e+02   2.595626e+02
  -2.776037e+02   1.270813e+02
  -1.704953e+02  -4.824943e+01
   1.866656e+01  -1.070826e+02
   8.524733e+01  -1.072487e+01
  -3.186075e+01   9.592457e+01
  -1.915894e+02   5.735676e+01
  -2.097583e+02  -9.948092e+01
  -7.194146e+01  -2.032147e+02
   9.040352e+01  -1.582403e+02
   1.425907e+02  -3.116984e+01
   6.939886e+01   4.214424e+01
  -2.917962e+01   3.217039e+00
  -3.881551e+01  -8.387998e+01
   7.044001e+01  -1.144218e+02
   1.953265e+02  -3.136007e+01
   1.914434e+02   1.210908e+02
   2.438012e+01   2.171386e+02
  -1.613964e+02   1.651058e+02
  -1.949697e+02   9.599897e+00
  -6.829629e+01  -1.142278e+02
   6.533783e+01  -1.140213e+02
   8.505258e+01  -3.268989e+01
   2.092260e+01   2.776604e+01
  -2.402928e+01   2.148125e+01
   6.193667e+00  -9.301418e+00
   7.125538e+01   3.182634e+00
   9.296828e+01   7.970339e+01
   1.800258e+01   1.606015e+02
  -1.248563e+02   1.555363e+02
  -2.350818e+02   2.820467e+01
  -2.054031e+02  -1.483744e+02
  -4.740628e+01  -2.389658e+02
   1.054788e+02  -1.738423e+02
   1.369355e+02  -3.353378e+01
   7.563964e+01   5.225431e+01
   3.169900e+01   3.588253e+01
   5.188006e+01  -1.214825e+01
   7.824172e+01  -7.734681e+00
   4.521972e+01   4.751187e+01
  -3.655078e+01   8.914517e+01
  -1.003751e+02   6.030673e+01
  -8.864369e+01  -3.181959e+01
   8.996863e+00  -1.115999e+02
   1.393051e+02  -8.994055e+01
   1.982649e+02   4.734200e+01
   1.042027e+02   2.013705e+02
  -1.024158e+02   2.301364e+02
  -2.658936e+02   1.001185e+02
  -2.599544e+02  -8.040161e+01
  -1.144715e+02  -1.728007e+02
   3.613463e+01  -1.475543e+02
   9.226614e+01  -8.481599e+01
   7.615413e+01  -6.949223e+01
   6.163339e+01  -9.215487e+01
   8.967530e+01  -7.609191e+01
   1.283380e+02   1.844825e+01
   1.195786e+02   1.505107e+02
   2.973155e+01   2.239945e+02
  -9.730849e+01   1.700256e+02
  -1.724231e+02   2.120846e+01
  -1.337567e+02  -1.192324e+02
  -2.072208e+01  -1.570189e+02
   6.618823e+01  -9.330315e+01
   6.072984e+01  -1.390459e+00
   7.174811e+00   4.393244e+01
  -1.058627e+01   3.596978e+01
   3.375895e+01   1.856832e+01
   7.759341e+01   2.195741e+01
   4.461515e+01   3.914480e+01
  -6.378488e+01   3.878670e+01
  -1.572840e+02   5.169660e+00
  -1.428552e+02  -5.370577e+01
  -1.606197e+01  -9.218168e+01
   1.194439e+02  -7.645665e+01
   1.453853e+02  -1.358816e+01
   5.038229e+01   4.307907e+01
  -5.749181e+01   3.969717e+01
  -7.587973e+01  -1.752016e+01
  -1.168074e+01  -6.892278e+01
   5.202116e+01  -5.897561e+01
   6.422464e+01  -4.869864e-02
   4.638119e+01   5.040119e+01
   4.206115e+01   4.059202e+01
   5.814909e+01   7.992680e-01
   6.500170e+01  -1.491943e+00
   4.098936e+01   6.518750e+01
  -2.538119e+01   1.445263e+02
  -1.124018e+02   1.438072e+02
  -1.648106e+02   3.601680e+01
  -1.250355e+02  -8.891947e+01
  -8.705997e+00  -1.247821e+02
   8.312059e+01  -6.299329e+01
   5.856054e+01   1.395601e+01
  -5.731171e+01   2.179767e+01
  -1.378425e+02  -3.888321e+01
  -7.925048e+01  -1.051210e+02
   7.564923e+01  -1.159589e+02
   1.904843e+02  -5.686842e+01
   1.656152e+02   3.263051e+01
   3.926821e+01   8.853138e+01
  -6.160881e+01   7.096622e+01
  -4.983894e+01   5.701708e+00
   3.746462e+01  -2.816144e+01
   8.971403e+01   1.993435e+01
   3.575951e+01   1.156589e+02
  -8.558237e+01   1.526101e+02
  -1.603232e+02   6.517227e+01
  -1.261194e+02  -9.431517e+01
  -1.415177e+01  -1.925624e+02
   8.258265e+01  -1.426651e+02
   1.038913e+02   5.962890e+00
   6.194597e+01   1.157026e+02
  -3.916872e-01   1.047412e+02
  -4.617282e+01   2.042189e+01
  -5.050170e+01  -3.100613e+01
  -2.290509e+01  -8.747146e+00
  -3.954619e+00   2.035456e+01
  -2.334934e+01  -1.371328e+01
  -5.618073e+01  -8.532930e+01
  -4.153192e+01  -1.059770e+02
   4.502842e+01  -4.615740e+01
   1.361202e+02   3.546990e+01
   1.290336e+02   7.089083e+01
   1.882374e+01   5.055154e+01
  -8.546967e+01   2.350471e+01
  -8.808960e+01   8.066705e+00
  -1.353248e+01  -8.822232e+00
   3.672308e+01  -2.277495e+01
   1.634161e+01  -1.710075e+01
  -1.865115e+01   2.126583e+00
   5.000086e+00   9.220066e+00
   7.161626e+01   3.263393e+00
   9.097282e+01   2.232923e+01
   1.059583e+01   7.681358e+01
  -1.140829e+02   1.148500e+02
  -1.822619e+02   6.293149e+01
  -1.403539e+02  -6.113011e+01
  -2.638281e+01  -1.588336e+02
   7.609849e+01  -1.501671e+02
   1.118536e+02  -5.945393e+01
   7.871459e+01   2.253152e+01
   2.556427e+01   3.645912e+01
  -1.772080e+00   8.470929e+00
   1.106477e+01   2.454262e+00
   3.240195e+01   4.407551e+01
   2.238050e+01   9.003542e+01
  -2.762547e+01   7.123692e+01
  -7.882019e+01  -1.719618e+01
  -7.654974e+01  -1.049381e+02
  -6.185614e+00  -1.095131e+02
   8.019006e+01  -2.495140e+01
   1.034085e+02   7.302643e+01
   3.427769e+01   1.029685e+02
  -6.485071e+01   5.792065e+01
  -9.850827e+01  -9.084384e+00
  -4.131173e+01  -4.980374e+01
   3.113354e+01  -5.230318e+01
   3.219722e+01  -2.893599e+01
  -3.268941e+01   6.864020e-01
  -6.949600e+01   6.254312e+00
  -1.608283e+01  -2.548130e+01
   7.704697e+01  -6.370220e+01
   1.147473e+02  -5.643763e+01
   6.609864e+01   1.094884e+01
  -1.329856e+01   8.163100e+01
  -5.205629e+01   7.999725e+01
  -3.769389e+01   8.273382e+00
  -3.045126e+00  -5.440491e+01
   2.527617e+01  -4.412999e+01
   3.614663e+01   1.727064e+01
   2.602470e+01   5.360466e+01
  -1.680031e+00   3.411233e+01
  -3.211324e+01  -7.268490e+00
  -4.092453e+01  -1.998257e+01
  -2.164455e+01  -1.309655e+00
   1.226893e+00   1.463374e+01
   9.103472e+00  -1.070837e+00
   4.709591e+00  -3.412152e+01
   1.161069e+01  -4.409041e+01
   2.832714e+01  -9.581598e+00
   3.070778e+01   4.071488e+01
   1.992569e+00   5.851836e+01
  -4.270254e+01   2.136753e+01
  -5.746286e+01  -3.618164e+01
  -1.531836e+01  -6.170346e+01
   5.432288e+01  -3.544844e+01
   8.793549e+01   1.238582e+01
   4.901019e+01   4.231962e+01
  -2.748658e+01   4.129707e+01
  -6.281931e+01   2.216124e+01
  -2.405360e+01   4.687547e+00
   3.399337e+01   1.886609e+00
   3.589699e+01   1.462667e+01
  -2.846447e+01   2.948389e+01
  -8.654900e+01   1.933570e+01
