
 $NMID
 id='ANONYMOUS ', fmtdat='(2E16.6)'
 volume=1.0
 tramp=1.0
 $END
   3.174365e+03   1.620270e+02
   1.916933e+03   1.792449e+03
  -1.699795e+02   1.927678e+03
  -1.254293e+03   1.048710e+03
  -8.103937e+02   1.138550e+02
   5.287050e+01  -1.455262e+02
   3.391697e+02   2.071983e+02
  -4.299510e+01   5.621050e+02
  -4.965109e+02   5.133643e+02
  -6.166812e+02   3.123318e+01
  -3.816237e+02  -5.489988e+02
   3.301367e+01  -6.214008e+02
   2.989057e+02  -1.377668e+02
   2.017568e+02   4.363111e+02
  -1.427584e+02   5.197602e+02
  -3.737031e+02   6.667915e+01
  -2.537683e+02  -4.829636e+02
   1.492811e+02  -5.718534e+02
   4.426037e+02  -2.196573e+02
   3.884271e+02   1.885987e+02
   9.635006e+01   3.453381e+02
  -1.285108e+02   2.085012e+02
  -5.866118e+01   4.862751e+01
   1.975187e+02   7.712616e+01
   2.760426e+02   2.889905e+02
  -3.066563e+01   3.849815e+02
  -5.046989e+02   1.614169e+02
  -6.136463e+02  -2.280313e+02
  -1.895376e+02  -4.121582e+02
   3.754508e+02  -2.075259e+02
   5.177414e+02   1.730732e+02
   1.635805e+02   3.891600e+02
  -2.974637e+02   3.434841e+02
  -4.588733e+02   9.832474e+01
  -2.919326e+02  -1.772771e+02
  -4.277492e+01  -3.027693e+02
   4.803067e+01  -1.609264e+02
  -5.857509e+01   1.129883e+02
  -2.020691e+02   1.247985e+02
  -2.112713e+02  -1.779582e+02
   1.631457e+01  -5.244605e+02
   2.901443e+02  -4.286671e+02
   3.299372e+02   4.002677e+01
   8.957450e+01   3.371219e+02
  -1.723593e+02   1.158924e+02
  -1.492935e+02  -2.890631e+02
   1.466592e+02  -3.741693e+02
   4.467232e+02  -1.957521e+01
   4.450231e+02   3.884425e+02
   1.160501e+02   4.836924e+02
  -3.132324e+02   2.405152e+02
  -5.012040e+02  -9.131499e+01
  -3.095107e+02  -2.698016e+02
   7.781828e+01  -2.252244e+02
   2.875557e+02  -5.596028e+01
   1.913859e+02   4.564576e+01
  -9.332344e+00   9.988008e+00
  -3.412886e+01  -6.850905e+01
   1.157406e+02  -4.766288e+01
   2.148984e+02   7.623122e+01
   9.912428e+01   1.942908e+02
  -1.616773e+02   2.173684e+02
  -3.181722e+02   1.187710e+02
  -2.527380e+02  -8.565697e+01
   1.749705e+01  -3.105834e+02
   2.945235e+02  -3.609977e+02
   3.766690e+02  -1.571307e+02
   2.339435e+02   1.839534e+02
   2.461560e+01   3.657023e+02
  -5.924713e+01   3.022627e+02
  -2.229694e+01   1.499885e+02
  -2.103442e+01   1.002530e+02
  -1.349174e+02   1.241374e+02
  -2.596292e+02   5.339627e+01
  -2.444000e+02  -1.351515e+02
  -7.573214e+01  -2.710455e+02
   1.150830e+02  -1.945671e+02
   1.965181e+02   5.328199e+01
   1.259251e+02   2.544938e+02
  -6.312499e+01   2.515219e+02
  -2.548893e+02   5.229947e+01
  -3.000853e+02  -1.880554e+02
  -1.448288e+02  -3.015208e+02
   6.616539e+01  -2.489310e+02
   1.601142e+02  -1.315711e+02
   1.340443e+02  -7.481922e+01
   1.449176e+02  -7.800666e+01
   2.874643e+02  -3.890240e+01
   4.122995e+02   1.103547e+02
   3.065089e+02   3.160252e+02
  -3.645557e+01   4.320813e+02
  -3.907051e+02   3.749161e+02
  -4.786463e+02   1.477661e+02
  -2.787501e+02  -1.166152e+02
  -5.243835e+00  -2.492108e+02
   1.053535e+02  -1.854038e+02
   1.206610e+01  -2.530284e+01
  -1.251806e+02   3.357563e+01
  -1.298421e+02  -5.073439e+01
   8.815147e+00  -1.424110e+02
   1.289585e+02  -8.891163e+01
   9.795235e+01   6.660420e+01
  -4.869265e+01   1.272272e+02
  -1.641143e+02  -1.372068e+01
  -1.339528e+02  -2.397163e+02
   3.632727e+01  -3.314916e+02
   2.377115e+02  -1.969340e+02
   3.449996e+02   6.786353e+01
   2.665446e+02   2.648582e+02
   5.496100e+01   2.755527e+02
  -1.291575e+02   1.366667e+02
  -1.518591e+02   1.786533e-01
  -3.248467e+01  -1.296980e+01
   4.660189e+01   6.633844e+01
  -1.247240e+01   1.180379e+02
  -1.321771e+02   6.016998e+01
  -1.476040e+02  -3.883851e+01
  -2.349872e+01  -6.081247e+01
   8.621598e+01   1.385505e+01
   3.609459e+01   9.663360e+01
  -1.505177e+02   8.417024e+01
  -3.000312e+02  -2.928102e+01
  -2.511367e+02  -1.799987e+02
  -1.675606e+01  -2.690019e+02
   2.192346e+02  -2.253448e+02
   2.748796e+02  -8.282685e+01
   1.329214e+02   5.671851e+01
  -3.642924e+01   7.643016e+01
  -6.292966e+01  -1.172149e+01
   6.012532e+01  -7.753040e+01
   1.879960e+02  -2.077204e+01
   1.755933e+02   1.156462e+02
   3.936920e+01   1.885126e+02
  -9.752987e+01   1.267638e+02
  -1.236783e+02   4.630671e+00
  -4.029970e+01  -4.436099e+01
   4.644821e+01   2.129633e+01
   2.548710e+01   1.129591e+02
  -1.007365e+02   1.174027e+02
  -2.094247e+02   4.638966e+00
  -1.726428e+02  -1.408926e+02
  -4.771435e-01  -2.067444e+02
   1.588900e+02  -1.403842e+02
   1.692641e+02  -2.589117e+00
   4.905792e+01   9.478092e+01
  -6.235973e+01   9.032439e+01
  -6.859803e+01   2.114829e+01
  -4.428679e-01  -2.492594e+01
   3.647422e+01  -8.359526e+00
  -7.980796e+00   2.660488e+01
  -8.655067e+01   1.048163e+00
  -1.016562e+02  -9.243457e+01
  -7.071703e+00  -1.752434e+02
   1.469366e+02  -1.482541e+02
   2.375735e+02  -7.064213e-01
   1.839835e+02   1.655611e+02
   2.487735e+01   2.274162e+02
  -1.082174e+02   1.514910e+02
  -1.268351e+02   2.388735e+01
  -6.948141e+01  -4.597225e+01
  -3.153026e+01  -2.865755e+01
  -5.551828e+01   1.272887e+01
  -8.625888e+01   4.269772e+00
  -5.412827e+01  -5.716774e+01
   3.921466e+01  -1.030196e+02
   1.215598e+02  -6.633370e+01
   1.052256e+02   4.400782e+01
  -1.868511e+01   1.298772e+02
  -1.655392e+02   8.608543e+01
  -2.034321e+02  -7.329260e+01
  -7.542295e+01  -2.189452e+02
   1.354172e+02  -2.174341e+02
   2.681373e+02  -6.902486e+01
   2.341800e+02   1.013409e+02
   8.762133e+01   1.718309e+02
  -4.575345e+01   1.333346e+02
  -8.960185e+01   7.384623e+01
  -7.223804e+01   6.554311e+01
  -6.186269e+01   9.158258e+01
  -9.081935e+01   7.703914e+01
  -1.291418e+02  -2.022119e+01
  -1.156850e+02  -1.557357e+02
  -2.170158e+01  -2.258198e+02
   1.058449e+02  -1.619099e+02
   1.712472e+02  -3.380210e+00
   1.207123e+02   1.341157e+02
   4.239686e-02   1.551018e+02
  -8.079936e+01   7.546838e+01
  -6.361929e+01  -1.886437e+01
   3.515401e+00  -5.418437e+01
   2.563958e+01  -3.589241e+01
  -2.573513e+01  -1.426383e+01
  -7.794146e+01  -2.094613e+01
  -4.421733e+01  -4.124014e+01
   7.455338e+01  -3.742909e+01
   1.683735e+02   7.569841e+00
   1.381394e+02   6.954423e+01
  -4.281641e+00   9.963374e+01
  -1.332419e+02   6.930026e+01
  -1.424365e+02  -6.271757e-01
  -4.112385e+01  -5.276652e+01
   6.020780e+01  -4.091782e+01
   7.481366e+01   2.096817e+01
   1.506490e+01   7.244745e+01
  -4.683600e+01   6.246916e+01
  -6.614220e+01   8.170269e-01
  -5.733918e+01  -4.905799e+01
  -4.718115e+01  -4.512923e+01
  -5.361174e+01  -5.223932e+00
  -6.200238e+01  -4.599930e+00
  -3.998927e+01  -7.167081e+01
   3.270569e+01  -1.491928e+02
   1.291187e+02  -1.413500e+02
   1.787637e+02  -2.868480e+01
   1.261059e+02   9.961279e+01
  -2.349604e+00   1.337326e+02
  -9.341707e+01   6.579252e+01
  -6.069864e+01  -1.382108e+01
   5.631050e+01  -1.956074e+01
   1.265909e+02   4.357005e+01
   6.443392e+01   1.054603e+02
  -8.434461e+01   1.043319e+02
  -1.829139e+02   3.689606e+01
  -1.517109e+02  -4.366018e+01
  -2.734673e+01  -8.511127e+01
   6.610409e+01  -5.799532e+01
   4.834102e+01   2.489725e+00
  -4.048282e+01   2.814874e+01
  -9.111046e+01  -2.243751e+01
  -3.513778e+01  -1.141711e+02
   8.292758e+01  -1.497005e+02
   1.571802e+02  -6.392839e+01
   1.218062e+02   9.300931e+01
   1.207007e+01   1.875405e+02
  -8.379599e+01   1.342675e+02
  -1.011730e+02  -1.437489e+01
  -5.026652e+01  -1.204130e+02
   1.776917e+01  -1.011425e+02
   5.251243e+01  -1.209775e+01
   4.269814e+01   3.540352e+01
   1.614632e+01   9.127705e+00
   8.799900e+00  -1.742354e+01
   3.218860e+01   1.974766e+01
   5.227823e+01   9.093986e+01
   2.474217e+01   1.075639e+02
  -5.678163e+01   4.236122e+01
  -1.305164e+02  -4.122461e+01
  -1.190598e+02  -7.359128e+01
  -1.771999e+01  -5.351297e+01
   7.974468e+01  -2.322910e+01
   8.655147e+01  -3.343357e+00
   1.901839e+01   1.107074e+01
  -3.327368e+01   2.020210e+01
  -2.125250e+01   1.521335e+01
   1.253645e+01  -2.075679e+00
  -2.590174e+00  -7.542759e+00
  -6.356612e+01  -3.742569e+00
  -9.014301e+01  -2.450418e+01
  -1.873045e+01  -7.814205e+01
   1.063406e+02  -1.103226e+02
   1.847891e+02  -5.925019e+01
   1.474800e+02   6.024520e+01
   2.749055e+01   1.556863e+02
  -8.201761e+01   1.491662e+02
  -1.166210e+02   6.145306e+01
  -7.911369e+01  -2.128884e+01
  -2.538329e+01  -3.789512e+01
  -2.440120e+00  -1.206830e+01
  -1.393911e+01  -8.071573e+00
  -2.885109e+01  -5.017643e+01
  -1.403159e+01  -9.075459e+01
   3.139137e+01  -6.908408e+01
   7.498919e+01   1.711915e+01
   7.384039e+01   1.010131e+02
   9.605037e+00   1.059431e+02
  -7.179464e+01   2.843577e+01
  -9.936179e+01  -6.511703e+01
  -3.747612e+01  -1.011232e+02
   6.209488e+01  -6.190845e+01
   1.008955e+02   8.262592e+00
   4.562144e+01   5.664365e+01
  -3.291182e+01   5.988187e+01
  -3.970390e+01   2.951525e+01
   2.303610e+01  -3.340960e+00
   6.616233e+01  -6.121259e+00
   1.685492e+01   2.620366e+01
  -7.762047e+01   6.062471e+01
  -1.200485e+02   4.883474e+01
  -6.948329e+01  -1.711483e+01
   1.439164e+01  -8.291481e+01
   5.807227e+01  -8.230273e+01
   4.453838e+01  -1.280296e+01
   6.450468e+00   5.227719e+01
  -2.377470e+01   4.963696e+01
  -3.627692e+01  -8.802706e+00
  -2.724493e+01  -5.262590e+01
   7.569452e-01  -3.989807e+01
   3.220233e+01   4.943531e+00
   4.164854e+01   2.523925e+01
   2.100337e+01   5.970431e+00
  -4.948282e+00  -1.922523e+01
  -9.833797e+00  -8.524797e+00
   1.387230e+00   2.859557e+01
  -3.375785e-01   4.821030e+01
  -2.323013e+01   1.944525e+01
  -3.689646e+01  -3.208712e+01
  -1.274707e+01  -5.562493e+01
   3.743542e+01  -2.500463e+01
   5.969532e+01   3.029565e+01
   1.942780e+01   5.775764e+01
  -5.484523e+01   3.595064e+01
  -9.026261e+01  -1.049827e+01
  -4.910242e+01  -4.285004e+01
   2.774268e+01  -4.467767e+01
   6.307647e+01  -2.703550e+01
   2.925087e+01  -6.419453e+00
  -2.572149e+01   2.661338e+00
  -3.109529e+01  -5.903084e+00
   2.349433e+01  -2.267025e+01
   7.544058e+01  -1.748539e+01
