
 $NMID
 id='ANONYMOUS ', fmtdat='(2E16.6)'
 volume=1.0
 tramp=1.0
 $END
  -3.506499e+03  -1.067613e+02
  -2.145297e+03  -2.023936e+03
   3.605170e+02  -2.172293e+03
   1.494361e+03  -9.536822e+02
   7.880576e+02   1.517350e+02
  -3.036036e+02   2.301237e+02
  -4.900367e+02  -3.148616e+02
   5.470252e+01  -7.230892e+02
   5.703269e+02  -5.835266e+02
   6.910780e+02   6.228278e+00
   4.080336e+02   6.353971e+02
  -9.727356e+01   6.690041e+02
  -3.986718e+02   1.167568e+02
  -2.575913e+02  -5.195558e+02
   1.725337e+02  -5.746138e+02
   4.256219e+02  -3.997242e+01
   2.582686e+02   5.274313e+02
  -1.786715e+02   5.730734e+02
  -4.640141e+02   1.849951e+02
  -3.818740e+02  -2.229987e+02
  -8.277332e+01  -3.558826e+02
   1.556533e+02  -2.237309e+02
   1.072179e+02  -4.338213e+01
  -1.694870e+02  -2.551041e+01
  -3.337398e+02  -2.157799e+02
  -5.252066e+01  -3.903351e+02
   4.843741e+02  -2.477549e+02
   6.959070e+02   1.717328e+02
   2.650307e+02   4.449455e+02
  -3.853432e+02   2.887654e+02
  -5.859745e+02  -1.380988e+02
  -2.039316e+02  -4.214577e+02
   2.907562e+02  -3.919349e+02
   4.816544e+02  -1.232824e+02
   3.212662e+02   1.932094e+02
   4.614882e+01   3.482085e+02
  -1.070539e+02   1.762151e+02
  -1.792212e+01  -1.560880e+02
   1.982044e+02  -2.205493e+02
   2.960163e+02   1.319293e+02
   7.297764e+01   5.670451e+02
  -2.990452e+02   5.015142e+02
  -4.057395e+02  -3.249437e+01
  -1.282170e+02  -3.915333e+02
   2.247427e+02  -1.711561e+02
   2.234993e+02   3.054090e+02
  -1.252073e+02   4.274562e+02
  -4.818195e+02   5.599037e+01
  -4.889819e+02  -3.869255e+02
  -1.374257e+02  -5.112883e+02
   3.267188e+02  -2.768771e+02
   5.351166e+02   7.776769e+01
   3.272710e+02   2.979580e+02
  -9.627714e+01   2.627274e+02
  -3.264694e+02   5.353749e+01
  -1.982540e+02  -9.001274e+01
   5.125255e+01  -3.325163e+01
   6.923630e+01   9.477883e+01
  -1.358612e+02   1.002297e+02
  -2.648208e+02  -6.427366e+01
  -1.130221e+02  -2.197310e+02
   1.759293e+02  -2.339459e+02
   3.214336e+02  -1.128553e+02
   2.332658e+02   7.857807e+01
  -1.267198e+01   2.818228e+02
  -2.580853e+02   3.549844e+02
  -3.589563e+02   1.774827e+02
  -2.529914e+02  -1.627023e+02
  -4.756844e+01  -3.716365e+02
   6.446493e+01  -3.081279e+02
   3.957049e+01  -1.235908e+02
   7.562189e+00  -6.893090e+01
   9.429116e+01  -1.243154e+02
   2.335304e+02  -9.053098e+01
   2.547795e+02   1.004514e+02
   1.084032e+02   2.661413e+02
  -9.339933e+01   2.102789e+02
  -2.015141e+02  -3.098478e+01
  -1.474487e+02  -2.448494e+02
   4.471574e+01  -2.580162e+02
   2.517956e+02  -7.076344e+01
   3.144757e+02   1.724016e+02
   1.587811e+02   3.096924e+02
  -7.152666e+01   2.623398e+02
  -1.744231e+02   1.260706e+02
  -1.320262e+02   5.305949e+01
  -1.226659e+02   6.509771e+01
  -2.607270e+02   5.439469e+01
  -3.980430e+02  -7.279600e+01
  -3.166474e+02  -2.867486e+02
   1.396089e+01  -4.234310e+02
   3.596723e+02  -3.881432e+02
   4.643333e+02  -1.699924e+02
   2.864657e+02   1.040645e+02
   1.903995e+01   2.567352e+02
  -1.105039e+02   1.981309e+02
  -3.416954e+01   2.039309e+01
   1.221193e+02  -5.938952e+01
   1.525275e+02   3.728573e+01
   1.452188e+01   1.573755e+02
  -1.316503e+02   1.100313e+02
  -1.230198e+02  -6.272541e+01
   3.417338e+01  -1.454076e+02
   1.712949e+02  -4.168723e+00
   1.499265e+02   2.343396e+02
  -2.512413e+01   3.336943e+02
  -2.327087e+02   2.005162e+02
  -3.400302e+02  -5.295515e+01
  -2.738065e+02  -2.465103e+02
  -6.831856e+01  -2.633342e+02
   1.230441e+02  -1.415909e+02
   1.514248e+02  -6.125396e+00
   3.529207e+01   1.925378e+01
  -5.752574e+01  -5.926404e+01
  -2.694637e+00  -1.189793e+02
   1.252259e+02  -7.532808e+01
   1.540555e+02   2.664869e+01
   3.551725e+01   6.271759e+01
  -8.276039e+01  -2.083607e+00
  -4.532177e+01  -8.832639e+01
   1.345157e+02  -9.161815e+01
   2.889996e+02   9.352985e+00
   2.552839e+02   1.572581e+02
   3.648230e+01   2.593634e+02
  -1.982421e+02   2.388492e+02
  -2.683557e+02   9.675682e+01
  -1.411937e+02  -5.349042e+01
   3.104989e+01  -8.618314e+01
   6.936125e+01   5.096917e+00
  -4.954749e+01   8.607582e+01
  -1.810272e+02   3.662622e+01
  -1.854083e+02  -1.049353e+02
  -5.293048e+01  -1.888283e+02
   9.035306e+01  -1.357753e+02
   1.269449e+02  -1.666798e+01
   5.008688e+01   3.942400e+01
  -4.017796e+01  -1.226334e+01
  -3.252086e+01  -1.000060e+02
   8.586405e+01  -1.165447e+02
   2.017509e+02  -1.863693e+01
   1.778140e+02   1.275165e+02
   1.251970e+01   2.044581e+02
  -1.523326e+02   1.470221e+02
  -1.710069e+02   7.574008e+00
  -5.351458e+01  -9.554192e+01
   6.018166e+01  -9.415221e+01
   7.016339e+01  -2.337991e+01
   5.373733e+00   2.599894e+01
  -3.235975e+01   1.336872e+01
   5.406720e+00  -1.942474e+01
   7.714332e+01  -1.991196e+00
   9.920187e+01   8.215197e+01
   1.629566e+01   1.647150e+02
  -1.314809e+02   1.504055e+02
  -2.291105e+02   1.597427e+01
  -1.888149e+02  -1.498526e+02
  -3.679152e+01  -2.221127e+02
   9.987709e+01  -1.540840e+02
   1.262661e+02  -2.808009e+01
   6.966006e+01   4.459771e+01
   3.080704e+01   2.833861e+01
   5.195302e+01  -1.267996e+01
   8.138350e+01  -6.196774e+00
   5.146878e+01   5.099675e+01
  -3.483251e+01   9.757243e+01
  -1.110694e+02   6.626839e+01
  -1.015554e+02  -3.674149e+01
   1.031449e+01  -1.224516e+02
   1.505461e+02  -9.069872e+01
   1.969538e+02   5.702532e+01
   8.679519e+01   2.020990e+02
  -1.166944e+02   2.157696e+02
  -2.580240e+02   8.048660e+01
  -2.374066e+02  -8.968204e+01
  -9.321587e+01  -1.673688e+02
   4.033964e+01  -1.357336e+02
   8.792387e+01  -7.698491e+01
   6.887477e+01  -6.566669e+01
   5.685333e+01  -8.954088e+01
   8.824503e+01  -7.673424e+01
   1.279941e+02   1.768181e+01
   1.166877e+02   1.511419e+02
   2.551722e+01   2.217660e+02
  -9.881381e+01   1.629608e+02
  -1.674725e+02   1.066511e+01
  -1.238217e+02  -1.236882e+02
  -9.627174e+00  -1.511997e+02
   7.236812e+01  -7.931487e+01
   5.929417e+01   9.701135e+00
  -6.926885e-01   4.916332e+01
  -2.083802e+01   3.487357e+01
   2.772772e+01   1.254217e+01
   7.787607e+01   1.869965e+01
   4.579347e+01   3.891704e+01
  -6.861426e+01   4.033214e+01
  -1.651793e+02  -4.519433e-01
  -1.406144e+02  -6.022615e+01
  -2.900822e+00  -9.793826e+01
   1.263815e+02  -7.384949e+01
   1.401828e+02  -6.671185e+00
   4.386408e+01   4.676093e+01
  -5.659901e+01   4.008352e+01
  -7.295180e+01  -1.747311e+01
  -1.420921e+01  -6.734613e+01
   4.518648e+01  -5.999355e+01
   6.334595e+01  -2.541097e+00
   5.386182e+01   4.599307e+01
   4.659352e+01   4.044739e+01
   5.604094e+01   3.020539e+00
   6.288722e+01   1.520310e+00
   4.005545e+01   6.635334e+01
  -2.542714e+01   1.434820e+02
  -1.155896e+02   1.404478e+02
  -1.674200e+02   3.628402e+01
  -1.250337e+02  -8.853491e+01
  -6.611318e+00  -1.285728e+02
   8.518544e+01  -6.776599e+01
   5.922421e+01   1.102348e+01
  -5.427817e+01   2.161867e+01
  -1.284272e+02  -3.961280e+01
  -6.858139e+01  -1.021817e+02
   7.854134e+01  -1.062699e+02
   1.808708e+02  -4.426448e+01
   1.506428e+02   3.666105e+01
   3.010880e+01   8.169522e+01
  -6.189037e+01   6.104346e+01
  -4.849501e+01   2.092603e+00
   3.668875e+01  -2.919599e+01
   8.835520e+01   1.700639e+01
   3.774451e+01   1.091186e+02
  -7.612275e+01   1.485261e+02
  -1.530281e+02   6.664756e+01
  -1.211247e+02  -8.880433e+01
  -1.505556e+01  -1.830111e+02
   7.847861e+01  -1.340410e+02
   9.890126e+01   9.142854e+00
   5.473634e+01   1.139415e+02
  -9.871045e+00   9.901545e+01
  -4.768998e+01   1.580297e+01
  -4.496094e+01  -3.070104e+01
  -1.858842e+01  -7.060195e+00
  -5.106035e+00   1.713089e+01
  -2.797607e+01  -1.836275e+01
  -5.547775e+01  -8.538519e+01
  -3.225658e+01  -1.015630e+02
   5.377929e+01  -4.173169e+01
   1.309689e+02   3.695451e+01
   1.163826e+02   6.641328e+01
   1.619512e+01   4.998526e+01
  -7.881329e+01   2.506177e+01
  -8.264345e+01   6.623404e+00
  -1.437062e+01  -9.494237e+00
   3.325272e+01  -2.039878e+01
   1.666171e+01  -1.555105e+01
  -1.571583e+01   1.119789e+00
   3.181192e+00   5.418468e+00
   6.519606e+01   1.710269e+00
   8.844675e+01   2.102334e+01
   1.812683e+01   7.670173e+01
  -1.057383e+02   1.124987e+02
  -1.786163e+02   6.214118e+01
  -1.424165e+02  -5.671707e+01
  -2.958613e+01  -1.538136e+02
   7.525001e+01  -1.490318e+02
   1.100133e+02  -6.150765e+01
   7.786048e+01   2.014271e+01
   2.630342e+01   3.628238e+01
   1.597575e+00   9.991802e+00
   1.359899e+01   5.416478e+00
   3.124423e+01   4.644950e+01
   1.921144e+01   8.879753e+01
  -2.900874e+01   6.980080e+01
  -7.677456e+01  -1.507642e+01
  -7.637096e+01  -9.835465e+01
  -9.917022e+00  -1.047712e+02
   7.362857e+01  -2.726976e+01
   9.935284e+01   6.265687e+01
   3.648753e+01   9.583759e+01
  -6.034529e+01   6.012689e+01
  -9.796850e+01  -6.049973e+00
  -4.390822e+01  -5.245701e+01
   2.970723e+01  -5.709730e+01
   3.439614e+01  -2.935407e+01
  -2.617608e+01   2.734987e+00
  -6.422787e+01   7.401065e+00
  -1.599714e+01  -2.639301e+01
   7.508644e+01  -6.294014e+01
   1.129619e+02  -5.106250e+01
   6.601054e+01   1.548731e+01
  -1.233302e+01   8.091459e+01
  -5.371946e+01   7.927937e+01
  -4.163981e+01   1.093454e+01
  -5.875378e+00  -5.088525e+01
   2.221640e+01  -4.476905e+01
   3.410906e+01   1.138687e+01
   2.655971e+01   5.124841e+01
  -8.154727e-01   3.613308e+01
  -3.162022e+01  -5.771047e+00
  -3.921006e+01  -2.238612e+01
  -2.057295e+01  -3.010798e+00
   2.310720e+00   1.766230e+01
   7.218396e+00   5.667267e+00
  -6.666604e-01  -2.993184e+01
   4.259677e+00  -4.564074e+01
   2.428253e+01  -1.616570e+01
   3.560970e+01   3.412381e+01
   9.086773e+00   5.568308e+01
  -3.954330e+01   2.274941e+01
  -5.869592e+01  -3.276186e+01
  -1.761194e+01  -5.798146e+01
   5.435206e+01  -3.453319e+01
   8.830545e+01   1.092619e+01
   4.839619e+01   4.093667e+01
  -2.583013e+01   4.239358e+01
  -5.954679e+01   2.691193e+01
  -2.574234e+01   8.839480e+00
   2.720993e+01   6.170892e-01
   3.000487e+01   8.859914e+00
  -2.544065e+01   2.433062e+01
  -7.682861e+01   1.848866e+01
