
 $NMID
 id='ANONYMOUS ', fmtdat='(2E16.6)'
 volume=1.0
 tramp=1.0
 $END
   3.249163e+03  -7.272623e+01
   2.297487e+03   1.457575e+03
   2.420897e+02   2.084495e+03
  -1.133210e+03   1.483901e+03
  -1.052479e+03   4.493840e+02
  -2.531349e+02  -1.424278e+02
   2.284345e+02  -2.042489e+01
   8.253281e+01   4.029176e+02
  -3.284518e+02   5.400018e+02
  -5.642948e+02   1.772669e+02
  -4.724931e+02  -3.895740e+02
  -1.089736e+02  -6.196617e+02
   2.076761e+02  -2.417044e+02
   2.446150e+02   3.364693e+02
  -3.264718e+01   5.165486e+02
  -3.239269e+02   1.218698e+02
  -3.326214e+02  -4.185750e+02
   4.025215e+01  -6.209190e+02
   4.371458e+02  -3.354317e+02
   4.731912e+02   1.265430e+02
   1.793184e+02   3.468367e+02
  -8.541948e+01   2.629639e+02
  -3.492151e+01   1.198625e+02
   1.878003e+02   1.558530e+02
   2.347088e+02   3.046189e+02
  -7.282131e+01   3.300736e+02
  -4.733955e+02   1.033794e+02
  -5.544007e+02  -2.135966e+02
  -1.764472e+02  -3.150526e+02
   3.048263e+02  -1.402986e+02
   4.459640e+02   1.423317e+02
   1.524518e+02   3.271038e+02
  -2.467604e+02   3.101278e+02
  -4.134620e+02   1.160779e+02
  -2.864049e+02  -1.266142e+02
  -9.639887e+01  -2.621929e+02
  -2.669428e+01  -1.645678e+02
  -9.085800e+01   4.429149e+01
  -1.721966e+02   6.923565e+01
  -1.163668e+02  -1.639918e+02
   3.281611e+01  -4.258033e+02
   2.024862e+02  -3.679807e+02
   2.360530e+02  -6.226720e+00
   9.330447e+01   2.342127e+02
  -9.749268e+01   9.029182e+01
  -1.136542e+02  -2.550689e+02
   1.268484e+02  -3.372069e+02
   4.162089e+02  -3.195754e+01
   4.648289e+02   3.538074e+02
   1.610945e+02   4.722232e+02
  -2.753700e+02   2.641143e+02
  -4.946599e+02  -3.858769e+01
  -3.428147e+02  -2.098970e+02
   9.716436e+00  -2.009557e+02
   2.434947e+02  -1.024575e+02
   2.147939e+02  -1.902626e+01
   5.043420e+01   5.109412e+00
  -2.148303e+01  -1.616640e+01
   7.770676e+01  -2.963668e+01
   2.033719e+02   4.003066e+01
   1.256237e+02   1.718935e+02
  -1.355535e+02   2.522907e+02
  -3.494512e+02   1.527760e+02
  -2.873730e+02  -9.700329e+01
   2.778285e+01  -3.437483e+02
   3.239018e+02  -3.772143e+02
   3.809735e+02  -1.485548e+02
   2.205039e+02   1.681931e+02
   4.321261e+01   3.436219e+02
  -1.078761e+01   3.075169e+02
   3.113653e+00   1.955986e+02
  -4.651908e+01   1.464160e+02
  -1.761649e+02   1.274334e+02
  -2.734058e+02   3.300058e+01
  -2.362375e+02  -1.495695e+02
  -6.766517e+01  -2.724000e+02
   1.125089e+02  -1.800792e+02
   1.889885e+02   6.728967e+01
   1.150568e+02   2.621649e+02
  -7.211115e+01   2.396769e+02
  -2.496466e+02   3.419757e+01
  -2.881033e+02  -1.886167e+02
  -1.553752e+02  -2.836555e+02
   3.714541e+01  -2.496352e+02
   1.489280e+02  -1.631014e+02
   1.487835e+02  -1.062964e+02
   1.768628e+02  -8.291625e+01
   3.090891e+02  -3.064051e+01
   4.236988e+02   1.210880e+02
   3.154811e+02   3.202482e+02
  -4.221201e+01   4.447158e+02
  -3.953862e+02   3.985187e+02
  -4.846216e+02   1.636207e+02
  -2.781333e+02  -1.073756e+02
  -8.020269e+00  -2.387868e+02
   8.129816e+01  -1.793590e+02
  -1.236965e+01  -4.243714e+01
  -1.260264e+02   1.369062e+01
  -1.114642e+02  -5.306244e+01
   7.916220e+00  -1.267712e+02
   1.080271e+02  -8.415560e+01
   9.157049e+01   4.644098e+01
  -3.132793e+01   1.138671e+02
  -1.513122e+02  -9.899101e+00
  -1.423599e+02  -2.371071e+02
   2.470908e+01  -3.488660e+02
   2.531788e+02  -2.152247e+02
   3.750933e+02   7.083897e+01
   2.846520e+02   2.848281e+02
   5.120034e+01   2.854454e+02
  -1.373619e+02   1.345025e+02
  -1.456386e+02  -5.557548e-02
  -3.030522e+01  -5.398268e+00
   4.178932e+01   7.529143e+01
  -1.880675e+01   1.112450e+02
  -1.274103e+02   5.340807e+01
  -1.357905e+02  -3.342316e+01
  -1.918828e+01  -4.892210e+01
   8.557296e+01   2.432180e+01
   3.130281e+01   1.049278e+02
  -1.680506e+02   9.196264e+01
  -3.199868e+02  -3.496701e+01
  -2.619447e+02  -1.915366e+02
  -1.395286e+01  -2.776566e+02
   2.235667e+02  -2.299918e+02
   2.699491e+02  -8.303606e+01
   1.253143e+02   4.746491e+01
  -3.449552e+01   6.513051e+01
  -5.298713e+01  -1.492181e+01
   6.780315e+01  -7.364114e+01
   1.867402e+02  -1.778501e+01
   1.790137e+02   1.094816e+02
   4.839071e+01   1.819771e+02
  -8.989715e+01   1.256528e+02
  -1.170312e+02   1.061832e+01
  -3.499234e+01  -3.177252e+01
   4.841231e+01   3.407890e+01
   2.052793e+01   1.258583e+02
  -1.126820e+02   1.237466e+02
  -2.241347e+02   5.497410e+00
  -1.827493e+02  -1.457723e+02
  -6.290816e+00  -2.111566e+02
   1.561690e+02  -1.470547e+02
   1.688772e+02  -1.257914e+01
   5.279441e+01   8.617168e+01
  -5.822019e+01   8.841090e+01
  -6.240531e+01   2.311378e+01
   6.786395e+00  -2.196990e+01
   4.214366e+01  -2.527695e+00
  -1.271254e+01   3.393227e+01
  -1.005523e+02   4.601400e+00
  -1.161846e+02  -1.019661e+02
  -6.303837e+00  -1.910629e+02
   1.574843e+02  -1.586958e+02
   2.485707e+02   1.335908e-02
   1.888151e+02   1.711534e+02
   2.962830e+01   2.316243e+02
  -1.027090e+02   1.556564e+02
  -1.272222e+02   3.083398e+01
  -7.394778e+01  -4.069387e+01
  -3.790903e+01  -2.702849e+01
  -6.183447e+01   1.445232e+01
  -9.527453e+01   6.148599e+00
  -6.270266e+01  -6.390209e+01
   4.159020e+01  -1.174690e+02
   1.340991e+02  -7.389595e+01
   1.171792e+02   5.095483e+01
  -2.214887e+01   1.417282e+02
  -1.774772e+02   9.210182e+01
  -2.130905e+02  -7.846066e+01
  -7.555682e+01  -2.264191e+02
   1.414294e+02  -2.223904e+02
   2.764472e+02  -7.070395e+01
   2.432401e+02   9.897972e+01
   9.380960e+01   1.717662e+02
  -4.173568e+01   1.353067e+02
  -8.787777e+01   7.800935e+01
  -6.920056e+01   7.181952e+01
  -5.968881e+01   9.860537e+01
  -9.479710e+01   8.599361e+01
  -1.411673e+02  -1.716856e+01
  -1.259734e+02  -1.627123e+02
  -2.278212e+01  -2.392332e+02
   1.081894e+02  -1.709125e+02
   1.751493e+02  -6.517584e+00
   1.252751e+02   1.335744e+02
   5.344128e+00   1.585964e+02
  -7.979005e+01   7.793597e+01
  -6.410979e+01  -2.048705e+01
   7.471797e+00  -5.993018e+01
   3.493841e+01  -3.757715e+01
  -2.278978e+01  -7.745715e+00
  -8.824391e+01  -1.345936e+01
  -5.557333e+01  -4.181271e+01
   7.726511e+01  -4.545776e+01
   1.867499e+02   2.260186e+00
   1.490709e+02   7.113279e+01
  -6.907512e+00   1.066695e+02
  -1.447715e+02   7.389755e+01
  -1.519544e+02   9.593136e-01
  -4.566154e+01  -5.733392e+01
   6.222633e+01  -4.638556e+01
   8.259908e+01   1.852531e+01
   2.274073e+01   7.688774e+01
  -4.579478e+01   7.266024e+01
  -7.404969e+01   5.793959e+00
  -6.433832e+01  -5.249011e+01
  -5.103844e+01  -4.653717e+01
  -5.573993e+01  -1.936163e+00
  -6.847416e+01   1.065612e+00
  -4.933982e+01  -7.641484e+01
   2.720871e+01  -1.621237e+02
   1.339875e+02  -1.534765e+02
   1.911570e+02  -3.387651e+01
   1.364261e+02   1.000768e+02
   1.627427e+00   1.404694e+02
  -9.681596e+01   7.427293e+01
  -6.585339e+01  -9.469749e+00
   5.843772e+01  -2.152393e+01
   1.369334e+02   4.064068e+01
   7.202070e+01   1.068367e+02
  -8.584488e+01   1.103733e+02
  -1.925516e+02   4.196478e+01
  -1.565459e+02  -4.458089e+01
  -2.835385e+01  -8.503478e+01
   6.573752e+01  -5.789308e+01
   4.772277e+01   4.481821e+00
  -4.253281e+01   3.271671e+01
  -9.605089e+01  -2.051714e+01
  -4.315171e+01  -1.195139e+02
   7.703196e+01  -1.612522e+02
   1.589176e+02  -7.627595e+01
   1.317930e+02   8.938109e+01
   2.195982e+01   1.943840e+02
  -8.124591e+01   1.446797e+02
  -1.063765e+02  -1.095186e+01
  -5.450462e+01  -1.238950e+02
   1.718757e+01  -1.036281e+02
   5.365079e+01  -1.239660e+01
   4.413047e+01   3.382974e+01
   1.489122e+01   5.556163e+00
   6.956970e+00  -1.929561e+01
   3.462261e+01   2.378311e+01
   5.998360e+01   9.589305e+01
   2.945910e+01   1.099600e+02
  -6.159620e+01   4.452966e+01
  -1.406703e+02  -3.959858e+01
  -1.259833e+02  -7.345060e+01
  -1.978313e+01  -5.776181e+01
   8.223908e+01  -2.778359e+01
   8.813991e+01  -5.749079e+00
   1.879728e+01   1.213873e+01
  -3.386723e+01   2.282263e+01
  -1.967136e+01   1.315216e+01
   1.363726e+01  -5.114532e+00
  -3.435373e+00  -5.544182e+00
  -6.682520e+01   3.713569e+00
  -9.605821e+01  -1.947154e+01
  -2.658445e+01  -8.409794e+01
   1.071248e+02  -1.274281e+02
   1.919499e+02  -7.341079e+01
   1.612136e+02   5.717343e+01
   3.982318e+01   1.650619e+02
  -7.849711e+01   1.638578e+02
  -1.204209e+02   7.071240e+01
  -8.590850e+01  -1.856516e+01
  -2.977209e+01  -3.902153e+01
  -3.055240e+00  -1.439134e+01
  -1.410944e+01  -1.001422e+01
  -3.001222e+01  -5.090897e+01
  -1.824270e+01  -9.217371e+01
   2.759504e+01  -7.348323e+01
   7.921244e+01   1.167090e+01
   8.559737e+01   9.934909e+01
   2.053802e+01   1.127524e+02
  -7.396275e+01   3.847065e+01
  -1.115888e+02  -6.116893e+01
  -4.622071e+01  -1.059457e+02
   6.377662e+01  -7.117723e+01
   1.098434e+02   5.299793e+00
   5.083294e+01   6.288600e+01
  -3.535181e+01   6.876848e+01
  -4.481516e+01   3.226327e+01
   2.506585e+01  -8.725489e+00
   7.036384e+01  -1.146714e+01
   2.042400e+01   2.795152e+01
  -7.937518e+01   6.982802e+01
  -1.238567e+02   5.578022e+01
  -7.541390e+01  -1.714783e+01
   1.006924e+01  -8.900978e+01
   5.807303e+01  -8.806671e+01
   4.906580e+01  -1.666324e+01
   1.223599e+01   5.355553e+01
  -2.201757e+01   5.183328e+01
  -3.919202e+01  -7.758407e+00
  -3.319472e+01  -5.547659e+01
  -1.589567e-01  -4.350193e+01
   3.733908e+01   3.209142e+00
   4.548761e+01   2.751995e+01
   2.070250e+01   7.144587e+00
  -6.568489e+00  -2.107144e+01
  -7.055707e+00  -1.279486e+01
   9.113959e+00   3.004074e+01
   4.890127e+00   5.656006e+01
  -2.574035e+01   2.889173e+01
  -4.629448e+01  -3.069939e+01
  -1.837457e+01  -6.225568e+01
   3.990414e+01  -3.008050e+01
   6.706938e+01   3.188068e+01
   2.294839e+01   6.311138e+01
  -5.864126e+01   4.003127e+01
  -9.933124e+01  -1.009198e+01
  -5.487688e+01  -4.448988e+01
   2.900065e+01  -4.905216e+01
   6.843660e+01  -3.241589e+01
   3.192866e+01  -8.942271e+00
  -2.660434e+01   6.191299e+00
  -3.379375e+01  -1.880589e+00
   2.009350e+01  -2.385345e+01
   7.576783e+01  -2.438142e+01
