
 $NMID
 id='ANONYMOUS ', fmtdat='(2E16.6)'
 volume=1.0
 tramp=1.0
 $END
   4.358822e+03  -9.178300e+01
   2.634809e+03   2.519135e+03
  -6.468638e+02   2.763335e+03
  -2.044090e+03   9.505767e+02
  -9.740068e+02  -6.603783e+02
   6.579610e+02  -6.459335e+02
   9.556657e+02   4.101425e+02
   6.759070e+01   1.087860e+03
  -8.080570e+02   8.351032e+02
  -9.694644e+02  -7.709513e+01
  -4.639011e+02  -8.724505e+02
   2.345981e+02  -9.076159e+02
   6.454187e+02  -1.283102e+02
   3.940803e+02   7.084464e+02
  -2.729882e+02   7.554424e+02
  -6.484197e+02  -1.097877e+01
  -2.842330e+02  -6.966127e+02
   3.244889e+02  -6.646267e+02
   5.912456e+02  -1.137728e+02
   4.040728e+02   3.521517e+02
   2.482511e+01   4.432029e+02
  -2.412071e+02   2.646914e+02
  -2.201576e+02   1.410943e+00
   1.161473e+02  -1.038216e+02
   4.193886e+02   1.044228e+02
   2.213169e+02   4.313114e+02
  -4.367950e+02   4.239695e+02
  -8.540562e+02  -3.985328e+01
  -4.591157e+02  -5.272599e+02
   3.673402e+02  -5.011917e+02
   7.487156e+02  -2.241078e-01
   3.739669e+02   4.728200e+02
  -2.657288e+02   5.344684e+02
  -5.699948e+02   2.274751e+02
  -4.361181e+02  -2.290072e+02
  -8.664694e+01  -4.868146e+02
   2.017853e+02  -2.910360e+02
   1.833844e+02   2.301218e+02
  -1.614721e+02   4.863552e+02
  -4.763758e+02   3.304892e+00
  -2.787566e+02  -6.832699e+02
   3.005717e+02  -7.300410e+02
   6.208861e+02  -3.246468e+01
   2.827942e+02   5.506331e+02
  -2.848223e+02   3.363888e+02
  -4.071866e+02  -3.177217e+02
   5.097166e+01  -5.641925e+02
   5.571956e+02  -1.630248e+02
   6.052822e+02   3.967557e+02
   1.757501e+02   5.928008e+02
  -3.801597e+02   3.627276e+02
  -6.407660e+02  -6.450568e+01
  -3.923491e+02  -3.835886e+02
   1.437608e+02  -3.783987e+02
   4.510359e+02  -7.214801e+01
   2.547251e+02   1.945331e+02
  -1.197693e+02   1.197782e+02
  -1.573594e+02  -1.502637e+02
   1.567434e+02  -1.961837e+02
   3.516371e+02   5.711167e+01
   1.499156e+02   2.990530e+02
  -1.991539e+02   2.682527e+02
  -3.411843e+02   7.393434e+01
  -1.917824e+02  -1.033141e+02
   3.024393e+01  -2.336601e+02
   2.153918e+02  -3.230348e+02
   3.291703e+02  -2.105896e+02
   2.931696e+02   1.314014e+02
   9.611825e+01   4.265271e+02
  -1.066544e+02   3.849939e+02
  -1.233551e+02   1.096759e+02
  -2.558909e+01  -1.960476e+01
  -3.160614e+01   8.252100e+01
  -1.819421e+02   1.335789e+02
  -2.768324e+02  -3.849394e+01
  -1.700006e+02  -2.569492e+02
   6.018734e+01  -2.586356e+02
   2.270728e+02  -2.433443e+01
   2.045172e+02   2.299146e+02
   2.796315e-01   2.953586e+02
  -2.630150e+02   1.283836e+02
  -3.690720e+02  -1.575855e+02
  -1.978014e+02  -3.508286e+02
   9.328264e+01  -3.143826e+02
   2.305024e+02  -1.282847e+02
   1.563125e+02  -3.288428e+00
   9.263360e+01  -3.343874e+01
   2.220829e+02  -7.338435e+01
   3.938962e+02   4.039646e+01
   3.432539e+02   2.714041e+02
   1.865635e+01   4.492497e+02
  -3.451688e+02   4.221681e+02
  -4.817692e+02   2.129521e+02
  -3.410157e+02  -8.839717e+01
  -6.647582e+01  -2.955509e+02
   1.220916e+02  -2.570648e+02
   8.805664e+01  -2.858375e+01
  -1.022734e+02   1.154088e+02
  -1.992001e+02   1.710676e-01
  -6.097808e+01  -2.007596e+02
   1.622530e+02  -1.838639e+02
   1.917318e+02   5.608512e+01
  -4.566158e+00   1.994757e+02
  -1.980419e+02   4.516973e+01
  -1.756242e+02  -2.413082e+02
   2.177149e+01  -3.478891e+02
   2.275129e+02  -1.971377e+02
   3.271588e+02   5.540483e+01
   2.774949e+02   2.324574e+02
   9.366652e+01   2.637058e+02
  -1.118286e+02   1.639568e+02
  -1.793321e+02   2.184633e+01
  -5.931017e+01  -3.725720e+01
   7.745459e+01   3.278493e+01
   3.761615e+01   1.249761e+02
  -1.205482e+02   1.081600e+02
  -1.821973e+02  -6.533160e+00
  -6.166762e+01  -7.456246e+01
   8.262147e+01  -2.296822e+01
   6.013695e+01   7.163349e+01
  -1.186935e+02   9.531776e+01
  -2.804288e+02   1.385088e+01
  -2.659639e+02  -1.284806e+02
  -6.789442e+01  -2.531448e+02
   1.743834e+02  -2.684349e+02
   2.774790e+02  -1.345102e+02
   1.734354e+02   4.857164e+01
  -2.008306e+01   1.140896e+02
  -9.258520e+01   1.097087e+01
   2.618820e+01  -1.061379e+02
   1.920553e+02  -6.841589e+01
   2.154739e+02   9.676507e+01
   7.572072e+01   2.078247e+02
  -9.027870e+01   1.609044e+02
  -1.437312e+02   3.191782e+01
  -7.301576e+01  -4.182916e+01
   2.707789e+01  -6.324914e+00
   4.066166e+01   8.009333e+01
  -6.530012e+01   1.153965e+02
  -1.929328e+02   3.771682e+01
  -1.949533e+02  -1.147018e+02
  -3.002469e+01  -2.191126e+02
   1.595144e+02  -1.715600e+02
   1.974426e+02  -1.239048e+01
   7.033969e+01   1.162264e+02
  -6.480392e+01   1.152021e+02
  -8.368560e+01   3.155701e+01
  -1.911430e+01  -2.673411e+01
   2.102164e+01  -1.841976e+01
  -1.055463e+01   8.184644e+00
  -7.176952e+01  -8.613867e+00
  -8.916516e+01  -7.930190e+01
  -1.774659e+01  -1.546706e+02
   1.206018e+02  -1.531776e+02
   2.305958e+02  -3.216789e+01
   2.053522e+02   1.436338e+02
   4.941214e+01   2.365690e+02
  -1.046812e+02   1.738091e+02
  -1.385188e+02   2.908810e+01
  -7.402855e+01  -5.464512e+01
  -2.734443e+01  -3.546988e+01
  -4.962450e+01   1.424478e+01
  -7.586710e+01   7.617375e+00
  -4.233562e+01  -4.741342e+01
   3.796085e+01  -8.862882e+01
   1.008427e+02  -5.670191e+01
   8.774935e+01   3.337055e+01
  -9.339759e+00   1.106362e+02
  -1.365311e+02   9.126311e+01
  -1.966059e+02  -4.185009e+01
  -1.060871e+02  -1.951567e+02
   9.754184e+01  -2.306835e+02
   2.590371e+02  -1.035565e+02
   2.533328e+02   7.861093e+01
   1.119777e+02   1.690210e+02
  -3.355647e+01   1.436585e+02
  -8.859417e+01   8.558882e+01
  -7.515056e+01   7.114244e+01
  -6.215311e+01   9.146078e+01
  -9.038264e+01   7.336245e+01
  -1.283788e+02  -2.037776e+01
  -1.201107e+02  -1.482328e+02
  -3.512341e+01  -2.194821e+02
   9.154514e+01  -1.707441e+02
   1.716533e+02  -2.677082e+01
   1.385553e+02   1.152015e+02
   2.405831e+01   1.562751e+02
  -6.301511e+01   9.214225e+01
  -5.927709e+01   9.725377e-01
  -5.696126e+00  -4.026859e+01
   8.784238e+00  -3.019693e+01
  -3.725871e+01  -1.580613e+01
  -7.952837e+01  -2.276214e+01
  -4.313332e+01  -3.871218e+01
   6.314732e+01  -3.800113e+01
   1.526932e+02  -7.366681e+00
   1.396620e+02   4.775654e+01
   1.765454e+01   8.703078e+01
  -1.138367e+02   7.839317e+01
  -1.408777e+02   1.883194e+01
  -4.825569e+01  -3.953842e+01
   5.850536e+01  -3.931032e+01
   7.564721e+01   1.839996e+01
   9.346452e+00   7.135725e+01
  -5.421806e+01   6.020073e+01
  -6.256939e+01  -2.492243e+00
  -4.263584e+01  -5.146179e+01
  -4.244826e+01  -3.964719e+01
  -5.970471e+01   2.419466e+00
  -6.509403e+01   8.269209e-01
  -3.834146e+01  -6.622829e+01
   2.444479e+01  -1.448464e+02
   1.074307e+02  -1.422636e+02
   1.592904e+02  -3.784343e+01
   1.240274e+02   8.614762e+01
   9.122995e+00   1.238607e+02
  -8.314813e+01   6.140148e+01
  -5.859495e+01  -1.606548e+01
   5.911010e+01  -2.284490e+01
   1.361383e+02   4.148706e+01
   7.552834e+01   1.075517e+02
  -7.872623e+01   1.127124e+02
  -1.864459e+02   5.257732e+01
  -1.597580e+02  -3.188968e+01
  -3.877767e+01  -8.630391e+01
   5.796896e+01  -7.218782e+01
   4.821102e+01  -8.710326e+00
  -3.690151e+01   2.743017e+01
  -8.793958e+01  -2.012639e+01
  -3.490588e+01  -1.155677e+02
   8.569186e+01  -1.547945e+02
   1.627087e+02  -6.604903e+01
   1.275466e+02   9.649415e+01
   1.635049e+01   1.967462e+02
  -7.999131e+01   1.443829e+02
  -1.042179e+02  -4.056799e+00
  -6.468970e+01  -1.139636e+02
  -1.691949e+00  -1.049913e+02
   4.455645e+01  -2.137234e+01
   5.076425e+01   2.898008e+01
   2.452225e+01   7.896365e+00
   3.916354e+00  -1.909271e+01
   2.286205e+01   1.573672e+01
   5.749860e+01   8.468069e+01
   4.228882e+01   1.034040e+02
  -4.681826e+01   4.498570e+01
  -1.366683e+02  -3.479699e+01
  -1.278888e+02  -6.652412e+01
  -1.531285e+01  -4.985408e+01
   8.700255e+01  -2.481991e+01
   8.544691e+01  -9.713655e+00
   9.354994e+00   8.610246e+00
  -3.749504e+01   2.216975e+01
  -1.309634e+01   1.531854e+01
   2.149253e+01  -3.488234e+00
  -5.619564e+00  -8.245122e+00
  -7.321377e+01  -4.689181e-01
  -9.041494e+01  -2.272045e+01
  -8.689237e+00  -8.168172e+01
   1.151630e+02  -1.159886e+02
   1.811299e+02  -6.085577e+01
   1.395341e+02   6.335759e+01
   2.822808e+01   1.583031e+02
  -7.210368e+01   1.479323e+02
  -1.073511e+02   5.954965e+01
  -7.749997e+01  -1.963905e+01
  -2.508116e+01  -3.421885e+01
   2.074493e+00  -7.920994e+00
  -1.082417e+01  -2.420750e+00
  -3.374781e+01  -4.315962e+01
  -2.405975e+01  -8.738124e+01
   2.771011e+01  -7.085750e+01
   8.047825e+01   1.752812e+01
   7.830893e+01   1.052311e+02
   6.444108e+00   1.095472e+02
  -8.151714e+01   2.400784e+01
  -1.036378e+02  -7.285862e+01
  -3.339445e+01  -1.005044e+02
   6.508764e+01  -5.503302e+01
   9.572782e+01   9.760793e+00
   3.769104e+01   4.772064e+01
  -3.131032e+01   4.835065e+01
  -2.800044e+01   2.527478e+01
   3.524187e+01  -1.751190e+00
   6.777770e+01  -6.214493e+00
   1.507113e+01   2.641581e+01
  -7.563824e+01   6.646291e+01
  -1.099288e+02   5.876022e+01
  -6.166490e+01  -1.138799e+01
   1.438942e+01  -8.076870e+01
   5.021414e+01  -7.658891e+01
   3.540238e+01  -3.972510e+00
   2.305026e+00   5.562792e+01
  -2.495133e+01   4.205311e+01
  -3.626799e+01  -1.847374e+01
  -2.598893e+01  -5.257069e+01
   2.877335e+00  -3.113519e+01
   3.206146e+01   9.026270e+00
   3.790144e+01   1.987047e+01
   1.948316e+01  -4.822690e-01
  -8.341707e-02  -1.515169e+01
  -4.891381e+00   3.359628e+00
  -4.621025e+00   3.823166e+01
  -1.523362e+01   4.569825e+01
  -3.237870e+01   7.899524e+00
  -3.208192e+01  -4.408353e+01
  -2.584846e-01  -5.896369e+01
   4.414874e+01  -2.029072e+01
   5.670684e+01   3.795147e+01
   1.521623e+01   6.130514e+01
  -5.399288e+01   3.414910e+01
  -8.738581e+01  -1.259725e+01
  -4.796127e+01  -4.143198e+01
   2.842491e+01  -4.037529e+01
   6.226777e+01  -2.190477e+01
   2.193570e+01  -3.595700e+00
  -3.788567e+01   7.351217e-02
  -3.779193e+01  -1.506851e+01
   2.968064e+01  -3.336757e+01
   8.832449e+01  -2.235272e+01
