
 $NMID
 id='ANONYMOUS ', fmtdat='(2E16.6)'
 volume=1.0
 tramp=1.0
 $END
  -3.216616e+03   2.277538e+02
  -2.239255e+03  -1.608478e+03
  -3.180790e+01  -2.155757e+03
   1.326581e+03  -1.284080e+03
   1.031637e+03  -9.247683e+01
   6.140429e+00   3.409711e+02
  -4.557569e+02  -2.398673e+01
  -1.184420e+02  -5.742731e+02
   4.337110e+02  -6.252715e+02
   6.532383e+02  -1.293885e+02
   4.519581e+02   4.725208e+02
   2.836114e+01   6.798247e+02
  -3.249325e+02   2.292672e+02
  -2.985673e+02  -3.986667e+02
   7.105248e+01  -5.626232e+02
   3.903446e+02  -9.817434e+01
   3.256559e+02   4.667821e+02
  -9.982782e+01   6.203515e+02
  -4.809850e+02   2.730732e+02
  -4.498429e+02  -1.895948e+02
  -1.347908e+02  -3.749951e+02
   1.325156e+02  -2.530425e+02
   9.112862e+01  -7.660639e+01
  -1.389380e+02  -7.751595e+01
  -2.542932e+02  -2.294516e+02
  -1.422907e+01  -3.138528e+02
   3.964033e+02  -1.708289e+02
   5.701441e+02   1.363372e+02
   2.534197e+02   3.216332e+02
  -2.618921e+02   2.194576e+02
  -4.805870e+02  -7.599065e+01
  -2.182716e+02  -3.225984e+02
   2.190925e+02  -3.518595e+02
   4.335438e+02  -1.497726e+02
   3.233201e+02   1.382885e+02
   1.008850e+02   3.090243e+02
  -2.545490e+01   2.002514e+02
   5.781736e+00  -6.877052e+01
   1.584110e+02  -1.604528e+02
   1.897061e+02   1.011327e+02
   4.673557e+01   4.566438e+02
  -2.008046e+02   4.397983e+02
  -3.174742e+02   3.441735e+01
  -1.578742e+02  -2.903568e+02
   1.214693e+02  -1.721844e+02
   1.875478e+02   2.269437e+02
  -7.757146e+01   3.650500e+02
  -4.136615e+02   7.863332e+01
  -4.744645e+02  -3.223413e+02
  -1.599835e+02  -4.671476e+02
   2.730417e+02  -2.763597e+02
   4.937778e+02   3.386774e+01
   3.411169e+02   2.340920e+02
  -2.631641e+01   2.452739e+02
  -2.827703e+02   1.093520e+02
  -2.290118e+02  -2.728722e+01
  -1.222249e+01  -4.400006e+01
   6.451887e+01   4.132429e+01
  -7.868965e+01   7.370506e+01
  -2.253363e+02  -3.180250e+01
  -1.402096e+02  -1.917647e+02
   1.352763e+02  -2.523943e+02
   3.219899e+02  -1.268046e+02
   2.427463e+02   9.374702e+01
  -2.629837e+01   2.927323e+02
  -2.720140e+02   3.341991e+02
  -3.356522e+02   1.596259e+02
  -2.323468e+02  -1.407558e+02
  -6.888603e+01  -3.429422e+02
   2.276840e+01  -3.228149e+02
   3.334926e+01  -1.782730e+02
   5.127683e+01  -9.442143e+01
   1.356734e+02  -9.651252e+01
   2.299204e+02  -5.098604e+01
   2.246630e+02   1.050829e+02
   9.517098e+01   2.377645e+02
  -8.144424e+01   1.907792e+02
  -1.797599e+02  -2.447345e+01
  -1.392225e+02  -2.190771e+02
   2.975109e+01  -2.343933e+02
   2.233480e+02  -6.815771e+01
   2.964619e+02   1.517710e+02
   1.752824e+02   2.818713e+02
  -4.048296e+01   2.615079e+02
  -1.651902e+02   1.529419e+02
  -1.472219e+02   7.419572e+01
  -1.453320e+02   6.605758e+01
  -2.647235e+02   4.390655e+01
  -3.915654e+02  -8.613719e+01
  -3.074435e+02  -2.860991e+02
   2.233085e+01  -4.204143e+02
   3.553570e+02  -3.844884e+02
   4.542767e+02  -1.701339e+02
   2.771907e+02   8.452082e+01
   2.954297e+01   2.341621e+02
  -8.153877e+01   1.929407e+02
  -1.590506e+01   4.301748e+01
   1.006822e+02  -4.180116e+01
   1.243186e+02   2.193055e+01
   2.380360e+01   1.263962e+02
  -9.887243e+01   1.094273e+02
  -1.056806e+02  -3.861916e+01
   2.007005e+01  -1.252097e+02
   1.512899e+02  -5.893015e+00
   1.446168e+02   2.207303e+02
  -1.950814e+01   3.307354e+02
  -2.303700e+02   1.990457e+02
  -3.404277e+02  -6.253646e+01
  -2.669809e+02  -2.512521e+02
  -6.396338e+01  -2.595811e+02
   1.184909e+02  -1.335756e+02
   1.439481e+02  -9.413363e+00
   4.001406e+01   1.042912e+01
  -4.743793e+01  -5.777047e+01
  -6.525124e-01  -1.060463e+02
   1.125080e+02  -6.387488e+01
   1.388515e+02   2.076180e+01
   3.134308e+01   4.947458e+01
  -7.528311e+01  -1.236377e+01
  -3.495092e+01  -8.627309e+01
   1.418532e+02  -8.276793e+01
   2.853941e+02   2.152584e+01
   2.395121e+02   1.613446e+02
   2.586400e+01   2.482277e+02
  -1.925486e+02   2.211388e+02
  -2.466236e+02   9.618181e+01
  -1.273841e+02  -3.816091e+01
   2.539741e+01  -7.157003e+01
   5.813456e+01   3.941069e+00
  -5.034431e+01   7.647705e+01
  -1.749067e+02   3.423135e+01
  -1.799692e+02  -9.688599e+01
  -5.509472e+01  -1.779976e+02
   8.170297e+01  -1.310717e+02
   1.159862e+02  -1.769073e+01
   4.240606e+01   3.239601e+01
  -3.869285e+01  -2.182900e+01
  -2.122789e+01  -1.049093e+02
   9.468827e+01  -1.105411e+02
   1.993379e+02  -1.093740e+01
   1.712854e+02   1.272279e+02
   1.095773e+01   1.983522e+02
  -1.453737e+02   1.446579e+02
  -1.642791e+02   1.241205e+01
  -5.558680e+01  -8.764155e+01
   5.473980e+01  -8.912726e+01
   6.387315e+01  -2.407653e+01
   1.210949e+00   2.107495e+01
  -3.321051e+01   4.497133e+00
   1.132165e+01  -2.665707e+01
   8.544594e+01  -1.512233e+00
   9.871106e+01   8.904017e+01
   6.830952e+00   1.660709e+02
  -1.364252e+02   1.413164e+02
  -2.235261e+02   6.173819e+00
  -1.781340e+02  -1.507805e+02
  -3.351105e+01  -2.156772e+02
   9.559975e+01  -1.518256e+02
   1.226947e+02  -2.922973e+01
   7.160173e+01   4.236636e+01
   3.254740e+01   2.944186e+01
   5.291335e+01  -1.285016e+01
   8.387897e+01  -7.210670e+00
   5.309983e+01   5.826461e+01
  -4.168916e+01   1.039637e+02
  -1.206212e+02   6.229321e+01
  -1.020117e+02  -4.834207e+01
   2.019872e+01  -1.276824e+02
   1.595430e+02  -8.544004e+01
   1.966903e+02   6.600995e+01
   7.992533e+01   2.041497e+02
  -1.199964e+02   2.091710e+02
  -2.523071e+02   7.570309e+01
  -2.291759e+02  -8.463899e+01
  -9.467069e+01  -1.588693e+02
   3.514372e+01  -1.307536e+02
   7.953815e+01  -7.676713e+01
   6.359010e+01  -6.970874e+01
   5.688728e+01  -9.505463e+01
   8.865326e+01  -7.804968e+01
   1.289515e+02   1.769473e+01
   1.163094e+02   1.487571e+02
   2.505050e+01   2.153298e+02
  -9.725273e+01   1.569752e+02
  -1.631392e+02   1.077165e+01
  -1.199788e+02  -1.191977e+02
  -7.855401e+00  -1.460834e+02
   7.065732e+01  -7.428186e+01
   5.793798e+01   1.485265e+01
  -5.345416e+00   5.113792e+01
  -2.507608e+01   3.241823e+01
   2.796638e+01   8.618385e+00
   8.042169e+01   1.559768e+01
   4.561973e+01   3.848816e+01
  -7.090137e+01   3.893394e+01
  -1.644321e+02  -1.730259e+00
  -1.339283e+02  -6.024417e+01
   2.319465e+00  -9.277791e+01
   1.286427e+02  -6.950914e+01
   1.387858e+02  -4.752060e+00
   4.152893e+01   4.872172e+01
  -5.991090e+01   4.304613e+01
  -7.629752e+01  -1.676356e+01
  -1.811904e+01  -7.183642e+01
   4.651831e+01  -6.373473e+01
   6.784866e+01  -4.214445e-01
   5.335860e+01   5.041253e+01
   4.346075e+01   4.066737e+01
   5.302041e+01  -1.210051e+00
   6.358995e+01   3.867757e-01
   4.209032e+01   7.324091e+01
  -2.730744e+01   1.492410e+02
  -1.200782e+02   1.399776e+02
  -1.716317e+02   3.098817e+01
  -1.244777e+02  -9.127772e+01
  -3.210922e+00  -1.277629e+02
   8.932243e+01  -6.728397e+01
   6.088432e+01   9.987340e+00
  -5.515867e+01   2.079207e+01
  -1.290868e+02  -3.894005e+01
  -6.955679e+01  -1.015333e+02
   7.698763e+01  -1.063985e+02
   1.817504e+02  -4.543457e+01
   1.515710e+02   3.777311e+01
   3.087425e+01   8.026147e+01
  -5.907509e+01   5.708285e+01
  -4.454077e+01  -1.275479e+00
   3.938447e+01  -3.040871e+01
   9.023455e+01   1.763005e+01
   4.082075e+01   1.115936e+02
  -7.417203e+01   1.525700e+02
  -1.499269e+02   7.095498e+01
  -1.231946e+02  -8.529521e+01
  -1.779105e+01  -1.830892e+02
   7.630551e+01  -1.341030e+02
   9.723152e+01   1.093021e+01
   5.072846e+01   1.124135e+02
  -1.250332e+01   9.513292e+01
  -4.766835e+01   1.258282e+01
  -4.307326e+01  -3.008758e+01
  -1.611215e+01  -7.097960e+00
  -5.075652e+00   1.635329e+01
  -2.706739e+01  -1.922042e+01
  -5.468606e+01  -8.393399e+01
  -3.102118e+01  -9.871018e+01
   5.249714e+01  -4.015167e+01
   1.291781e+02   3.408353e+01
   1.161151e+02   6.502910e+01
   1.760437e+01   5.112517e+01
  -7.720234e+01   2.462999e+01
  -8.211483e+01   5.770975e+00
  -1.625066e+01  -1.029643e+01
   3.146069e+01  -2.091744e+01
   1.790016e+01  -1.229246e+01
  -1.366780e+01   4.310318e+00
   4.476878e+00   4.102786e+00
   6.369753e+01  -4.317023e+00
   8.873414e+01   1.899893e+01
   2.120297e+01   7.951624e+01
  -1.014483e+02   1.168503e+02
  -1.803037e+02   6.863602e+01
  -1.474896e+02  -5.384873e+01
  -3.517893e+01  -1.530225e+02
   7.282631e+01  -1.506258e+02
   1.100383e+02  -6.510430e+01
   7.782256e+01   1.702342e+01
   2.652699e+01   3.637734e+01
   2.096695e+00   1.360631e+01
   1.154164e+01   8.563299e+00
   2.780136e+01   4.545431e+01
   1.855953e+01   8.494804e+01
  -2.609946e+01   6.825856e+01
  -7.521134e+01  -1.188956e+01
  -7.897522e+01  -9.597133e+01
  -1.609398e+01  -1.066704e+02
   7.300384e+01  -3.331306e+01
   1.050169e+02   6.111590e+01
   4.027191e+01   1.007265e+02
  -6.157103e+01   6.435014e+01
  -1.022782e+02  -6.305228e+00
  -4.550620e+01  -5.644620e+01
   3.229137e+01  -6.033823e+01
   3.889645e+01  -2.755893e+01
  -2.461213e+01   8.286758e+00
  -6.485077e+01   1.058760e+01
  -1.772844e+01  -2.605415e+01
   7.221522e+01  -6.450729e+01
   1.125716e+02  -5.237522e+01
   6.683277e+01   1.555193e+01
  -1.182273e+01   8.092532e+01
  -5.332779e+01   7.869627e+01
  -4.369212e+01   1.175126e+01
  -7.753103e+00  -5.077946e+01
   2.275734e+01  -4.656738e+01
   3.738962e+01   9.376365e+00
   2.749131e+01   5.210519e+01
  -2.434893e+00   3.881393e+01
  -3.328063e+01  -4.174499e+00
  -3.981420e+01  -2.359676e+01
  -1.873404e+01  -4.269924e+00
   3.616414e+00   1.958530e+01
   4.028268e+00   6.052969e+00
  -4.330976e+00  -3.436590e+01
   2.146100e+00  -5.307884e+01
   2.889218e+01  -2.079214e+01
   4.119356e+01   3.635117e+01
   1.218156e+01   6.042356e+01
  -3.888250e+01   2.640862e+01
  -6.126432e+01  -3.056398e+01
  -2.100217e+01  -5.731100e+01
   5.243083e+01  -3.610882e+01
   8.905076e+01   8.023853e+00
   5.011048e+01   3.999674e+01
  -2.582614e+01   4.503520e+01
  -6.245391e+01   2.879664e+01
  -2.859260e+01   6.107485e+00
   2.705418e+01  -5.894941e+00
   3.334573e+01   4.013175e+00
  -2.053169e+01   2.633209e+01
  -7.391002e+01   2.416976e+01
