
 $NMID
 id='ANONYMOUS ', fmtdat='(2E16.6)'
 volume=1.0
 tramp=1.0
 $END
  -4.371898e+03   5.759318e+01
  -2.694219e+03  -2.512207e+03
   5.162824e+02  -2.854122e+03
   2.043794e+03  -1.171005e+03
   1.116943e+03   3.900878e+02
  -4.255348e+02   5.535293e+02
  -8.001578e+02  -2.901529e+02
  -7.346554e+01  -9.630023e+02
   7.137914e+02  -8.060005e+02
   9.102726e+02  -6.943757e-01
   4.945680e+02   7.815155e+02
  -1.608649e+02   9.098844e+02
  -5.958803e+02   1.672172e+02
  -4.021865e+02  -6.773379e+02
   2.213091e+02  -7.537573e+02
   5.788396e+02  -8.283433e+00
   3.156183e+02   6.743088e+02
  -2.766830e+02   6.813604e+02
  -6.008410e+02   1.614458e+02
  -4.439372e+02  -3.339385e+02
  -6.504620e+01  -4.480484e+02
   2.254838e+02  -2.794835e+02
   1.782794e+02  -4.654144e+01
  -1.301103e+02   1.702427e+01
  -3.780293e+02  -1.591923e+02
  -1.490994e+02  -4.073992e+02
   4.660029e+02  -3.562472e+02
   8.130774e+02   9.964397e+01
   3.979487e+02   5.099140e+02
  -3.808123e+02   4.356503e+02
  -7.085639e+02  -5.394611e+01
  -3.177322e+02  -4.709498e+02
   2.794831e+02  -4.957205e+02
   5.462573e+02  -1.906769e+02
   4.002816e+02   2.085159e+02
   8.560324e+01   4.369425e+02
  -1.431189e+02   2.688258e+02
  -1.201690e+02  -1.629857e+02
   1.707118e+02  -3.514011e+02
   3.759909e+02   4.190144e+01
   2.025530e+02   6.357366e+02
  -2.893098e+02   6.599694e+02
  -5.499328e+02   2.648828e+01
  -2.576498e+02  -4.904762e+02
   2.434655e+02  -3.000591e+02
   3.447149e+02   2.993306e+02
  -7.408410e+01   5.137588e+02
  -5.368988e+02   1.228104e+02
  -5.897173e+02  -4.073440e+02
  -1.816689e+02  -5.852494e+02
   3.645191e+02  -3.466047e+02
   6.199038e+02   6.169820e+01
   3.937802e+02   3.563370e+02
  -1.117722e+02   3.430241e+02
  -4.144350e+02   8.169844e+01
  -2.635981e+02  -1.433465e+02
   7.494592e+01  -9.539490e+01
   1.298984e+02   1.203645e+02
  -1.469461e+02   1.628153e+02
  -3.401966e+02  -6.879496e+01
  -1.527215e+02  -2.933859e+02
   2.045354e+02  -2.818723e+02
   3.641908e+02  -8.658422e+01
   2.176454e+02   1.077746e+02
  -4.770926e+01   2.624228e+02
  -2.553703e+02   3.401538e+02
  -3.516158e+02   2.055436e+02
  -2.879451e+02  -1.407201e+02
  -8.984265e+01  -4.333881e+02
   7.842783e+01  -3.948057e+02
   1.004326e+02  -1.512178e+02
   4.629469e+01  -3.084330e+01
   8.661912e+01  -9.442440e+01
   2.227572e+02  -1.074438e+02
   2.781115e+02   7.831115e+01
   1.493086e+02   2.778259e+02
  -7.993797e+01   2.492822e+02
  -2.255151e+02  -2.336543e+00
  -1.913312e+02  -2.487301e+02
   1.836377e+01  -2.902255e+02
   2.701092e+02  -1.074838e+02
   3.668722e+02   1.727037e+02
   1.958644e+02   3.545681e+02
  -8.775312e+01   3.150312e+02
  -2.259488e+02   1.431366e+02
  -1.655730e+02   2.835472e+01
  -1.266541e+02   4.344012e+01
  -2.603811e+02   6.019058e+01
  -4.254323e+02  -7.774233e+01
  -3.408386e+02  -3.088483e+02
   2.022756e+01  -4.597465e+02
   3.807558e+02  -4.266786e+02
   4.982373e+02  -2.053546e+02
   3.333781e+02   8.928071e+01
   5.603116e+01   2.865278e+02
  -1.100844e+02   2.514022e+02
  -6.166566e+01   4.361836e+01
   1.061064e+02  -9.061998e+01
   1.814819e+02   9.170872e+00
   5.063790e+01   1.871278e+02
  -1.444385e+02   1.706436e+02
  -1.712423e+02  -4.852770e+01
   1.225347e+01  -1.825866e+02
   1.906288e+02  -2.886611e+01
   1.686559e+02   2.597712e+02
  -3.423078e+01   3.670405e+02
  -2.522479e+02   2.039897e+02
  -3.524781e+02  -7.050429e+01
  -2.895391e+02  -2.586633e+02
  -9.257782e+01  -2.761228e+02
   1.198777e+02  -1.617747e+02
   1.752858e+02  -2.410460e+01
   5.950333e+01   2.182883e+01
  -6.363987e+01  -4.952658e+01
  -2.004319e+01  -1.238963e+02
   1.275628e+02  -9.463276e+01
   1.747483e+02   1.337943e+01
   5.300792e+01   6.747482e+01
  -8.235446e+01   7.465405e+00
  -5.074595e+01  -8.144078e+01
   1.382632e+02  -8.884353e+01
   3.009077e+02   1.130335e+01
   2.697657e+02   1.571613e+02
   5.042005e+01   2.647999e+02
  -1.977472e+02   2.607207e+02
  -2.874513e+02   1.210968e+02
  -1.667664e+02  -5.016910e+01
   2.457208e+01  -1.015896e+02
   8.290141e+01  -3.905459e+00
  -4.264808e+01   9.781887e+01
  -1.986863e+02   5.055575e+01
  -2.115854e+02  -1.083877e+02
  -6.704464e+01  -2.081329e+02
   9.401650e+01  -1.550266e+02
   1.390784e+02  -2.644163e+01
   6.334809e+01   3.766282e+01
  -3.013992e+01  -7.075677e+00
  -3.002738e+01  -9.405582e+01
   8.368933e+01  -1.149628e+02
   2.073093e+02  -2.316990e+01
   1.940876e+02   1.309123e+02
   1.947142e+01   2.225624e+02
  -1.667979e+02   1.669312e+02
  -1.958577e+02   9.020703e+00
  -6.659943e+01  -1.115192e+02
   6.535253e+01  -1.110293e+02
   8.002457e+01  -3.216289e+01
   1.321924e+01   2.453942e+01
  -2.672715e+01   1.403292e+01
   1.309473e+01  -1.480021e+01
   8.116132e+01   6.326730e+00
   9.643293e+01   9.029505e+01
   1.220577e+01   1.698186e+02
  -1.363820e+02   1.545624e+02
  -2.401051e+02   1.696164e+01
  -1.997778e+02  -1.584537e+02
  -3.951499e+01  -2.394643e+02
   1.103771e+02  -1.681465e+02
   1.389603e+02  -2.744611e+01
   7.212162e+01   5.395305e+01
   2.986157e+01   3.499969e+01
   5.488215e+01  -1.205783e+01
   8.574237e+01  -4.035617e+00
   4.589737e+01   5.600572e+01
  -4.668630e+01   9.485976e+01
  -1.154641e+02   5.644103e+01
  -9.382806e+01  -4.336561e+01
   2.013262e+01  -1.215640e+02
   1.568314e+02  -8.765940e+01
   2.052581e+02   6.026008e+01
   9.471256e+01   2.104889e+02
  -1.165102e+02   2.305679e+02
  -2.741962e+02   9.215604e+01
  -2.602880e+02  -9.065182e+01
  -1.085556e+02  -1.803964e+02
   4.134015e+01  -1.490347e+02
   9.729565e+01  -8.542650e+01
   7.991422e+01  -7.135695e+01
   6.837920e+01  -9.381100e+01
   9.583777e+01  -7.798130e+01
   1.357199e+02   2.214758e+01
   1.226661e+02   1.604091e+02
   2.861080e+01   2.354895e+02
  -1.030730e+02   1.762194e+02
  -1.802474e+02   1.782388e+01
  -1.367079e+02  -1.266342e+02
  -1.635047e+01  -1.620848e+02
   7.195193e+01  -8.845299e+01
   6.096803e+01   5.691071e+00
   7.893548e-01   4.696962e+01
  -1.721642e+01   3.350093e+01
   3.442514e+01   1.461224e+01
   8.441184e+01   2.347126e+01
   4.858330e+01   4.192854e+01
  -6.966781e+01   3.860108e+01
  -1.696618e+02  -2.529862e-01
  -1.468489e+02  -5.687549e+01
  -8.252103e+00  -9.212007e+01
   1.310440e+02  -7.412018e+01
   1.496083e+02  -1.026279e+01
   4.629817e+01   4.489038e+01
  -6.583773e+01   4.081913e+01
  -8.001832e+01  -2.028416e+01
  -8.923159e+00  -7.425412e+01
   5.678344e+01  -6.423303e+01
   6.703287e+01   1.017847e+00
   4.863225e+01   5.181274e+01
   4.784415e+01   4.345778e+01
   6.471863e+01   2.793280e+00
   6.764671e+01   2.202849e+00
   3.622400e+01   7.345922e+01
  -3.399390e+01   1.520648e+02
  -1.215985e+02   1.452797e+02
  -1.734776e+02   3.311510e+01
  -1.289605e+02  -9.580895e+01
  -6.395966e+00  -1.329031e+02
   9.110357e+01  -6.600317e+01
   6.301397e+01   1.464734e+01
  -6.215473e+01   2.201193e+01
  -1.433235e+02  -4.492049e+01
  -7.802828e+01  -1.127740e+02
   8.538599e+01  -1.182322e+02
   2.019089e+02  -5.328200e+01
   1.692364e+02   3.827253e+01
   3.738761e+01   9.036301e+01
  -6.256554e+01   7.007176e+01
  -4.920191e+01   5.216238e+00
   4.074955e+01  -2.876902e+01
   9.517734e+01   2.328013e+01
   3.657923e+01   1.245922e+02
  -9.086939e+01   1.625947e+02
  -1.731566e+02   6.853255e+01
  -1.330252e+02  -1.011516e+02
  -1.409871e+01  -2.023844e+02
   8.590475e+01  -1.467605e+02
   1.053650e+02   8.853297e+00
   5.758652e+01   1.203117e+02
  -4.787864e+00   1.039537e+02
  -4.629947e+01   1.648527e+01
  -5.013468e+01  -3.128342e+01
  -2.448357e+01  -6.246030e+00
  -3.719826e+00   2.027057e+01
  -2.381416e+01  -1.694378e+01
  -5.746282e+01  -9.022779e+01
  -3.870940e+01  -1.093297e+02
   5.293057e+01  -4.405247e+01
   1.412864e+02   4.026354e+01
   1.272675e+02   7.445809e+01
   1.486056e+01   5.405410e+01
  -9.045445e+01   2.439561e+01
  -9.001564e+01   5.688533e+00
  -1.124863e+01  -1.056578e+01
   3.914826e+01  -2.325667e+01
   1.518319e+01  -1.613785e+01
  -2.161810e+01   3.007572e+00
   4.165086e+00   7.142578e+00
   7.523107e+01   8.435592e-01
   9.630013e+01   2.402153e+01
   1.337585e+01   8.560696e+01
  -1.194298e+02   1.214997e+02
  -1.945450e+02   6.046215e+01
  -1.505390e+02  -7.039032e+01
  -2.957296e+01  -1.666937e+02
   8.238456e+01  -1.562963e+02
   1.189314e+02  -6.300358e+01
   8.361124e+01   2.075358e+01
   2.633082e+01   3.749651e+01
  -1.804874e+00   1.091782e+01
   1.112689e+01   5.464924e+00
   3.319683e+01   4.659641e+01
   2.266111e+01   9.266259e+01
  -2.989178e+01   7.442801e+01
  -8.345036e+01  -1.754818e+01
  -8.102392e+01  -1.102253e+02
  -5.878004e+00  -1.172993e+02
   8.520988e+01  -2.704638e+01
   1.090771e+02   7.498624e+01
   3.481765e+01   1.079311e+02
  -6.994954e+01   6.051129e+01
  -1.044147e+02  -1.200213e+01
  -4.163782e+01  -5.622949e+01
   3.565385e+01  -5.611445e+01
   3.419848e+01  -2.814750e+01
  -3.446267e+01   3.951511e+00
  -7.164554e+01   7.839156e+00
  -1.647821e+01  -2.754443e+01
   8.021218e+01  -6.799795e+01
   1.189609e+02  -5.857215e+01
   6.701470e+01   1.457859e+01
  -1.515832e+01   8.571592e+01
  -5.561399e+01   8.188278e+01
  -4.141933e+01   7.917084e+00
  -3.457301e+00  -5.746768e+01
   2.711871e+01  -4.526565e+01
   3.865970e+01   1.689255e+01
   2.784594e+01   5.586530e+01
  -3.905773e+00   3.664735e+01
  -3.554033e+01  -6.795144e+00
  -4.237520e+01  -2.331031e+01
  -2.264328e+01  -2.647206e+00
  -2.777016e-01   1.545002e+01
   5.802505e+00  -9.894323e-01
   3.812629e+00  -3.916613e+01
   1.450472e+01  -5.100795e+01
   3.330993e+01  -1.225629e+01
   3.485757e+01   4.644998e+01
   1.183056e+00   6.480554e+01
  -4.537126e+01   2.252621e+01
  -6.055081e+01  -3.991066e+01
  -1.687245e+01  -6.536463e+01
   5.672024e+01  -3.475436e+01
   9.347547e+01   1.539974e+01
   5.148041e+01   4.533587e+01
  -3.045950e+01   4.331835e+01
  -6.805089e+01   2.430168e+01
  -2.674913e+01   5.447623e+00
   3.626198e+01  -1.934720e-01
   3.753520e+01   1.253095e+01
  -2.910314e+01   2.989012e+01
  -8.914012e+01   2.076693e+01
