
 $NMID
 id='ANONYMOUS ', fmtdat='(2E16.6)'
 volume=1.0
 tramp=1.0
 $END
  -3.318420e+03  -1.547527e+01
  -2.218561e+03  -1.673606e+03
   2.522723e+01  -2.148120e+03
   1.307706e+03  -1.232767e+03
   9.432369e+02  -1.186528e+02
  -6.320924e+01   2.396499e+02
  -4.314042e+02  -1.281121e+02
  -6.327444e+01  -6.067789e+02
   4.938843e+02  -6.243520e+02
   6.746762e+02  -9.045131e+01
   4.390029e+02   5.558245e+02
   1.105764e+00   6.809833e+02
  -3.391842e+02   2.074285e+02
  -2.921799e+02  -4.349938e+02
   1.066608e+02  -5.768834e+02
   4.568199e+02  -9.407579e+01
   3.130486e+02   5.033768e+02
  -1.437229e+02   6.435285e+02
  -4.936059e+02   2.713851e+02
  -4.555683e+02  -1.894438e+02
  -1.274089e+02  -3.706095e+02
   1.230328e+02  -2.573820e+02
   8.902494e+01  -7.818907e+01
  -1.629777e+02  -8.097824e+01
  -2.786528e+02  -2.558421e+02
  -1.097961e+01  -3.559391e+02
   4.495577e+02  -1.813141e+02
   6.194309e+02   1.634457e+02
   2.491827e+02   3.686907e+02
  -3.206639e+02   2.303166e+02
  -5.196912e+02  -1.087952e+02
  -2.119154e+02  -3.584276e+02
   2.481815e+02  -3.627576e+02
   4.537814e+02  -1.493968e+02
   3.333554e+02   1.589855e+02
   9.119096e+01   3.289269e+02
  -4.749021e+01   2.080264e+02
   5.176265e+00  -9.799867e+01
   1.393177e+02  -2.124485e+02
   2.198446e+02   1.095266e+02
   5.390470e+01   4.818343e+02
  -2.329795e+02   4.604822e+02
  -3.523174e+02   1.447271e+01
  -1.541618e+02  -3.288941e+02
   1.542454e+02  -1.588944e+02
   2.014895e+02   2.628796e+02
  -9.637122e+01   3.963967e+02
  -4.480012e+02   6.825323e+01
  -4.942274e+02  -3.667743e+02
  -1.524144e+02  -5.010797e+02
   3.083537e+02  -2.822626e+02
   5.316207e+02   5.130254e+01
   3.506165e+02   2.624278e+02
  -5.231921e+01   2.576430e+02
  -3.027456e+02   9.689343e+01
  -2.253302e+02  -4.664757e+01
  -1.832131e-01  -4.513512e+01
   5.918240e+01   5.120197e+01
  -9.204887e+01   7.257767e+01
  -2.321400e+02  -3.910247e+01
  -1.212196e+02  -1.990656e+02
   1.463643e+02  -2.365753e+02
   3.334244e+02  -1.179264e+02
   2.449504e+02   1.089704e+02
  -3.192063e+01   3.104422e+02
  -2.830485e+02   3.493817e+02
  -3.619256e+02   1.579115e+02
  -2.369999e+02  -1.632448e+02
  -5.837457e+01  -3.625350e+02
   4.232229e+01  -3.231504e+02
   3.739982e+01  -1.681163e+02
   3.714155e+01  -9.186740e+01
   1.295562e+02  -1.069092e+02
   2.416576e+02  -5.826324e+01
   2.426355e+02   1.148968e+02
   9.204512e+01   2.544911e+02
  -9.439355e+01   1.952922e+02
  -1.947258e+02  -4.031687e+01
  -1.331909e+02  -2.440505e+02
   4.877742e+01  -2.499828e+02
   2.454575e+02  -6.191920e+01
   3.048639e+02   1.725551e+02
   1.658703e+02   3.014170e+02
  -5.567796e+01   2.671653e+02
  -1.722962e+02   1.530256e+02
  -1.549505e+02   6.963638e+01
  -1.472269e+02   6.125428e+01
  -2.690499e+02   3.839077e+01
  -4.021559e+02  -9.234109e+01
  -3.159905e+02  -2.982300e+02
   2.236467e+01  -4.502623e+02
   3.816087e+02  -4.006517e+02
   4.838252e+02  -1.707029e+02
   2.957068e+02   1.085727e+02
   2.209102e+01   2.585341e+02
  -9.779829e+01   2.003501e+02
  -2.194425e+01   3.802740e+01
   1.151700e+02  -4.258437e+01
   1.347970e+02   4.097955e+01
   7.348534e+00   1.455038e+02
  -1.280721e+02   1.062786e+02
  -1.169213e+02  -5.545919e+01
   2.816586e+01  -1.363065e+02
   1.677590e+02  -2.447228e+00
   1.497048e+02   2.381095e+02
  -3.111620e+01   3.448230e+02
  -2.467961e+02   2.042773e+02
  -3.536577e+02  -6.725096e+01
  -2.729886e+02  -2.648632e+02
  -6.075426e+01  -2.776976e+02
   1.240494e+02  -1.406438e+02
   1.510278e+02  -6.795493e+00
   3.688332e+01   1.539395e+01
  -5.313854e+01  -5.849808e+01
   2.457696e+00  -1.142691e+02
   1.233119e+02  -6.862509e+01
   1.501472e+02   2.683752e+01
   3.261987e+01   5.775206e+01
  -8.283398e+01  -1.091075e+01
  -3.830832e+01  -9.503156e+01
   1.497638e+02  -8.968035e+01
   3.046599e+02   2.062526e+01
   2.554876e+02   1.737381e+02
   2.537663e+01   2.646637e+02
  -2.086534e+02   2.321877e+02
  -2.699580e+02   9.152378e+01
  -1.403473e+02  -5.181809e+01
   2.842757e+01  -8.116665e+01
   6.515516e+01   4.526367e+00
  -5.059375e+01   8.153512e+01
  -1.824126e+02   3.520370e+01
  -1.862294e+02  -1.054511e+02
  -5.399843e+01  -1.906483e+02
   9.236069e+01  -1.358558e+02
   1.251239e+02  -1.452176e+01
   4.459055e+01   3.949797e+01
  -4.232797e+01  -2.110276e+01
  -2.504228e+01  -1.117025e+02
   1.013666e+02  -1.195180e+02
   2.125905e+02  -9.669516e+00
   1.798084e+02   1.384390e+02
   7.768878e+00   2.097940e+02
  -1.578528e+02   1.489694e+02
  -1.749925e+02   8.233745e+00
  -5.508645e+01  -9.792206e+01
   6.206199e+01  -9.459924e+01
   7.086472e+01  -2.386246e+01
   2.960389e+00   2.434075e+01
  -3.487351e+01   7.642087e+00
   1.096948e+01  -2.503252e+01
   8.902041e+01   2.305704e+00
   1.022934e+02   9.456922e+01
   6.087035e+00   1.764761e+02
  -1.470708e+02   1.512969e+02
  -2.401839e+02   6.273740e+00
  -1.900117e+02  -1.645048e+02
  -3.247415e+01  -2.327766e+02
   1.064884e+02  -1.592805e+02
   1.312668e+02  -2.719738e+01
   7.324086e+01   4.640339e+01
   3.170611e+01   2.972408e+01
   5.529728e+01  -1.557058e+01
   8.888253e+01  -5.103981e+00
   5.701222e+01   6.085872e+01
  -4.217315e+01   1.074718e+02
  -1.254340e+02   6.419896e+01
  -1.071523e+02  -4.915619e+01
   2.026938e+01  -1.309551e+02
   1.660405e+02  -8.653476e+01
   2.044907e+02   6.863149e+01
   8.214483e+01   2.139723e+02
  -1.256797e+02   2.209759e+02
  -2.677531e+02   7.952159e+01
  -2.423017e+02  -9.484539e+01
  -9.526544e+01  -1.719784e+02
   4.225963e+01  -1.369140e+02
   8.837193e+01  -7.740567e+01
   6.937839e+01  -6.708451e+01
   5.973053e+01  -9.319979e+01
   9.275850e+01  -7.735896e+01
   1.320024e+02   1.989814e+01
   1.174566e+02   1.551560e+02
   2.512966e+01   2.249991e+02
  -1.030426e+02   1.656013e+02
  -1.712391e+02   9.842887e+00
  -1.243040e+02  -1.288568e+02
  -6.305768e+00  -1.566921e+02
   7.760741e+01  -7.939496e+01
   6.141386e+01   1.721138e+01
  -5.940433e+00   5.303939e+01
  -2.604499e+01   3.315328e+01
   2.896809e+01   1.105961e+01
   8.462956e+01   2.071857e+01
   4.644262e+01   4.288682e+01
  -7.570639e+01   4.047097e+01
  -1.722479e+02  -3.949480e+00
  -1.439613e+02  -6.858187e+01
   2.042109e+00  -1.002384e+02
   1.337851e+02  -7.257630e+01
   1.446561e+02  -4.058328e+00
   4.466623e+01   5.218655e+01
  -5.996987e+01   4.216907e+01
  -7.911222e+01  -2.129069e+01
  -1.776279e+01  -7.732258e+01
   4.963545e+01  -6.594503e+01
   7.214146e+01   5.146705e-01
   5.552553e+01   5.663508e+01
   4.333478e+01   4.533685e+01
   5.271570e+01   2.583349e+00
   6.445926e+01   1.013378e+00
   4.432363e+01   7.308675e+01
  -2.840960e+01   1.557324e+02
  -1.291561e+02   1.483145e+02
  -1.828639e+02   3.053138e+01
  -1.314521e+02  -1.012338e+02
  -8.273174e-02  -1.370096e+02
   9.454818e+01  -6.755132e+01
   6.333496e+01   1.499247e+01
  -5.899916e+01   2.146458e+01
  -1.321419e+02  -4.541064e+01
  -6.688917e+01  -1.089796e+02
   8.697118e+01  -1.062263e+02
   1.892407e+02  -3.739187e+01
   1.532087e+02   4.448433e+01
   2.807802e+01   8.565587e+01
  -6.540585e+01   6.109279e+01
  -4.669504e+01  -1.941064e+00
   4.205852e+01  -3.017415e+01
   9.209334e+01   2.065277e+01
   3.810577e+01   1.160587e+02
  -8.158501e+01   1.560698e+02
  -1.582858e+02   6.977365e+01
  -1.258935e+02  -9.265490e+01
  -1.456919e+01  -1.929361e+02
   8.361700e+01  -1.409644e+02
   1.047548e+02   1.293839e+01
   5.477799e+01   1.210261e+02
  -1.353768e+01   1.026526e+02
  -5.103477e+01   1.273704e+01
  -4.407976e+01  -3.346072e+01
  -1.600961e+01  -6.907234e+00
  -5.722755e+00   1.880340e+01
  -2.961069e+01  -1.958075e+01
  -5.644706e+01  -8.750168e+01
  -3.292171e+01  -1.042813e+02
   5.527026e+01  -4.449050e+01
   1.365776e+02   3.659407e+01
   1.232895e+02   7.242251e+01
   1.677239e+01   5.684632e+01
  -8.459976e+01   2.668643e+01
  -8.747438e+01   3.086577e+00
  -1.617683e+01  -1.407303e+01
   3.649044e+01  -2.082906e+01
   1.904218e+01  -1.089524e+01
  -1.640022e+01   3.791210e+00
   2.031668e+00   4.783261e+00
   6.806084e+01  -1.441588e+00
   9.352796e+01   2.196814e+01
   1.979029e+01   8.173141e+01
  -1.104150e+02   1.174446e+02
  -1.882293e+02   6.393998e+01
  -1.510054e+02  -6.160772e+01
  -2.996289e+01  -1.623342e+02
   8.051682e+01  -1.555919e+02
   1.156933e+02  -6.464810e+01
   8.065683e+01   2.066897e+01
   2.738104e+01   3.803781e+01
   2.869993e+00   1.265996e+01
   1.356795e+01   7.728808e+00
   3.090839e+01   4.812128e+01
   1.922203e+01   8.993030e+01
  -2.843150e+01   7.147568e+01
  -7.897769e+01  -1.406945e+01
  -8.106727e+01  -1.001664e+02
  -1.423767e+01  -1.107440e+02
   7.604120e+01  -3.293047e+01
   1.067564e+02   6.464288e+01
   3.993378e+01   1.034845e+02
  -6.514047e+01   6.457361e+01
  -1.037441e+02  -9.285412e+00
  -4.482730e+01  -5.815814e+01
   3.430402e+01  -6.027713e+01
   3.953761e+01  -2.768634e+01
  -2.628201e+01   6.907273e+00
  -6.699975e+01   8.486734e+00
  -1.767849e+01  -2.719183e+01
   7.689318e+01  -6.515759e+01
   1.179033e+02  -5.309656e+01
   6.882611e+01   1.681052e+01
  -1.477742e+01   8.513999e+01
  -5.704191e+01   8.173206e+01
  -4.276976e+01   8.982381e+00
  -5.852974e+00  -5.448057e+01
   2.493087e+01  -4.789439e+01
   3.789318e+01   1.292029e+01
   2.856798e+01   5.583181e+01
  -1.708833e+00   3.930374e+01
  -3.536261e+01  -6.175738e+00
  -4.304585e+01  -2.650404e+01
  -1.933625e+01  -5.866431e+00
   5.963862e+00   1.929753e+01
   7.376250e+00   7.185081e+00
  -4.032524e+00  -3.295897e+01
   2.388648e+00  -5.266457e+01
   2.886496e+01  -1.980038e+01
   4.135842e+01   3.672904e+01
   1.121211e+01   6.140008e+01
  -4.240520e+01   2.676709e+01
  -6.378315e+01  -3.257325e+01
  -2.000626e+01  -6.112180e+01
   5.589722e+01  -3.862184e+01
   9.292558e+01   8.991949e+00
   5.093944e+01   4.313660e+01
  -2.763435e+01   4.659239e+01
  -6.474737e+01   2.848091e+01
  -2.944838e+01   6.077999e+00
   2.833055e+01  -3.849889e+00
   3.460101e+01   6.539536e+00
  -2.211473e+01   2.627067e+01
  -7.861740e+01   2.142687e+01
