
 $NMID
 id='ANONYMOUS ', fmtdat='(2E16.6)'
 volume=1.0
 tramp=1.0
 $END
  -3.840061e+03  -5.994816e+01
  -2.214488e+03  -2.137666e+03
   4.365421e+02  -2.238126e+03
   1.628369e+03  -8.751589e+02
   8.212869e+02   3.177946e+02
  -4.254854e+02   3.633820e+02
  -6.676025e+02  -3.341185e+02
   9.703657e+00  -8.271591e+02
   6.977610e+02  -6.439243e+02
   7.988681e+02   7.291050e+01
   3.960498e+02   7.530106e+02
  -1.777969e+02   7.355951e+02
  -4.846203e+02   1.049483e+02
  -2.873005e+02  -5.876471e+02
   2.314810e+02  -6.241349e+02
   5.217546e+02  -2.366083e+01
   2.459017e+02   5.944284e+02
  -2.490427e+02   5.989843e+02
  -5.092361e+02   1.443613e+02
  -3.728474e+02  -2.707734e+02
  -4.275089e+01  -3.774919e+02
   1.857623e+02  -2.302048e+02
   1.492340e+02  -2.616891e+01
  -1.456301e+02   2.539932e+01
  -3.530221e+02  -1.768323e+02
  -1.060591e+02  -4.044999e+02
   4.654260e+02  -2.957868e+02
   7.366026e+02   1.315195e+02
   3.125530e+02   4.693300e+02
  -3.752681e+02   3.465344e+02
  -6.247372e+02  -9.651027e+01
  -2.580493e+02  -4.322298e+02
   2.893324e+02  -4.257509e+02
   5.107173e+02  -1.493376e+02
   3.588819e+02   2.125631e+02
   5.425460e+01   3.964724e+02
  -1.442332e+02   2.204304e+02
  -8.394621e+01  -1.871428e+02
   1.620138e+02  -3.263105e+02
   3.482304e+02   7.859341e+01
   1.320046e+02   5.979042e+02
  -2.970484e+02   5.680417e+02
  -4.816590e+02  -2.166866e+01
  -1.801370e+02  -4.626457e+02
   2.452082e+02  -2.242884e+02
   2.849210e+02   3.155167e+02
  -1.036152e+02   4.734495e+02
  -4.986240e+02   8.750718e+01
  -5.116679e+02  -3.944223e+02
  -1.309387e+02  -5.240741e+02
   3.512657e+02  -2.818489e+02
   5.606501e+02   8.995616e+01
   3.278552e+02   3.261976e+02
  -1.259387e+02   2.924044e+02
  -3.711515e+02   5.095819e+01
  -2.098061e+02  -1.373071e+02
   7.828526e+01  -6.917002e+01
   1.065325e+02   1.159721e+02
  -1.411087e+02   1.375019e+02
  -2.867735e+02  -6.366523e+01
  -1.217259e+02  -2.571832e+02
   1.891266e+02  -2.393564e+02
   3.331840e+02  -8.344050e+01
   2.173834e+02   1.083407e+02
  -2.784926e+01   2.774652e+02
  -2.507024e+02   3.295015e+02
  -3.407788e+02   1.735584e+02
  -2.566236e+02  -1.612804e+02
  -5.810267e+01  -3.917077e+02
   8.978044e+01  -3.365565e+02
   7.963340e+01  -1.216630e+02
   2.142139e+01  -3.097983e+01
   7.782028e+01  -9.751108e+01
   2.122769e+02  -9.479273e+01
   2.573137e+02   8.265774e+01
   1.221731e+02   2.609546e+02
  -8.472498e+01   2.229152e+02
  -2.072144e+02  -1.388523e+01
  -1.661276e+02  -2.371057e+02
   2.906199e+01  -2.674197e+02
   2.535333e+02  -8.375327e+01
   3.241232e+02   1.724251e+02
   1.634597e+02   3.233268e+02
  -8.909368e+01   2.744606e+02
  -1.978501e+02   1.207145e+02
  -1.439948e+02   2.628178e+01
  -1.130111e+02   4.094061e+01
  -2.396843e+02   5.290965e+01
  -3.864229e+02  -7.323677e+01
  -3.081350e+02  -2.873149e+02
   1.702530e+01  -4.329370e+02
   3.668023e+02  -3.874584e+02
   4.698225e+02  -1.679694e+02
   3.015430e+02   1.115497e+02
   3.158466e+01   2.762124e+02
  -1.212693e+02   2.177034e+02
  -5.407390e+01   2.117989e+01
   1.123608e+02  -7.930222e+01
   1.656505e+02   2.761917e+01
   2.577958e+01   1.758480e+02
  -1.505199e+02   1.359708e+02
  -1.467861e+02  -6.379059e+01
   2.713921e+01  -1.645091e+02
   1.778978e+02  -1.421935e+01
   1.475096e+02   2.354036e+02
  -3.377034e+01   3.310911e+02
  -2.312285e+02   1.879985e+02
  -3.238624e+02  -6.611788e+01
  -2.604643e+02  -2.456284e+02
  -6.936702e+01  -2.593570e+02
   1.175298e+02  -1.438592e+02
   1.601768e+02  -9.984653e+00
   4.377527e+01   2.534969e+01
  -6.214393e+01  -4.925688e+01
  -1.323587e+01  -1.196923e+02
   1.247647e+02  -8.099484e+01
   1.624343e+02   2.418441e+01
   4.282214e+01   6.689748e+01
  -7.931874e+01   3.961386e+00
  -4.539746e+01  -8.083391e+01
   1.316384e+02  -8.324580e+01
   2.791090e+02   1.401860e+01
   2.462127e+02   1.536272e+02
   3.650358e+01   2.530497e+02
  -1.961710e+02   2.373109e+02
  -2.724086e+02   1.014225e+02
  -1.515466e+02  -5.671095e+01
   2.874392e+01  -9.612522e+01
   7.914048e+01   4.474860e-01
  -4.102513e+01   9.071108e+01
  -1.866143e+02   4.321617e+01
  -1.929884e+02  -1.046940e+02
  -5.562586e+01  -1.950925e+02
   9.250150e+01  -1.421145e+02
   1.327440e+02  -2.070731e+01
   5.778927e+01   4.097353e+01
  -3.384120e+01  -6.665337e+00
  -3.051844e+01  -9.229184e+01
   8.323680e+01  -1.119905e+02
   1.995235e+02  -1.719972e+01
   1.789506e+02   1.313275e+02
   8.379716e+00   2.111540e+02
  -1.636825e+02   1.489376e+02
  -1.821168e+02  -1.388469e+00
  -5.487474e+01  -1.093635e+02
   6.750465e+01  -1.003660e+02
   7.811045e+01  -2.246870e+01
   1.066367e+01   2.777482e+01
  -2.867317e+01   1.442703e+01
   6.337363e+00  -1.598819e+01
   7.468024e+01   3.713027e+00
   9.067882e+01   8.454421e+01
   9.752637e+00   1.618853e+02
  -1.352341e+02   1.463438e+02
  -2.328927e+02   1.183244e+01
  -1.892816e+02  -1.575632e+02
  -2.979315e+01  -2.292883e+02
   1.104257e+02  -1.563912e+02
   1.311194e+02  -2.105444e+01
   6.672667e+01   5.156976e+01
   2.708118e+01   3.163266e+01
   5.297585e+01  -1.344364e+01
   7.962954e+01  -6.105950e+00
   4.491081e+01   5.255038e+01
  -4.011501e+01   9.228812e+01
  -1.069384e+02   5.737746e+01
  -9.095259e+01  -3.971277e+01
   1.550965e+01  -1.142384e+02
   1.472761e+02  -8.196535e+01
   1.924134e+02   6.001595e+01
   8.540006e+01   2.045788e+02
  -1.177297e+02   2.192434e+02
  -2.632500e+02   8.086976e+01
  -2.427789e+02  -9.452895e+01
  -9.764864e+01  -1.706141e+02
   4.216294e+01  -1.361252e+02
   8.892186e+01  -7.606464e+01
   7.298081e+01  -6.630257e+01
   6.233248e+01  -8.870526e+01
   9.166722e+01  -7.043236e+01
   1.252547e+02   2.389560e+01
   1.117453e+02   1.514456e+02
   2.368491e+01   2.171548e+02
  -9.998524e+01   1.613693e+02
  -1.685064e+02   1.256247e+01
  -1.263676e+02  -1.227250e+02
  -1.113238e+01  -1.525214e+02
   7.116722e+01  -8.266686e+01
   6.017832e+01   8.241135e+00
   8.437162e-02   4.699087e+01
  -1.799783e+01   3.327979e+01
   3.034014e+01   1.460354e+01
   7.824759e+01   2.193158e+01
   4.341087e+01   3.883727e+01
  -6.743806e+01   3.699486e+01
  -1.585866e+02  -7.292554e-01
  -1.364752e+02  -5.939378e+01
  -3.765856e+00  -9.241641e+01
   1.226901e+02  -6.944448e+01
   1.365571e+02  -4.846608e+00
   4.105712e+01   4.596384e+01
  -5.754939e+01   3.754048e+01
  -7.185494e+01  -2.059909e+01
  -1.098447e+01  -6.934117e+01
   5.015723e+01  -5.788235e+01
   6.250410e+01   2.752816e+00
   4.749760e+01   5.116500e+01
   4.041299e+01   4.161973e+01
   5.113185e+01   1.765379e+00
   6.082782e+01  -4.165614e-01
   3.785724e+01   6.496959e+01
  -3.005015e+01   1.409493e+02
  -1.176294e+02   1.345602e+02
  -1.636802e+02   2.831138e+01
  -1.187918e+02  -9.214278e+01
  -4.389128e-01  -1.248269e+02
   8.545826e+01  -5.857928e+01
   5.847035e+01   1.563267e+01
  -5.451105e+01   1.927840e+01
  -1.249730e+02  -4.232506e+01
  -6.786019e+01  -1.022415e+02
   7.792333e+01  -1.020213e+02
   1.767869e+02  -4.159531e+01
   1.467107e+02   3.788809e+01
   2.882073e+01   8.160969e+01
  -6.076062e+01   6.149634e+01
  -4.595764e+01   1.569390e+00
   3.908334e+01  -2.743949e+01
   8.663096e+01   2.179003e+01
   3.140226e+01   1.116488e+02
  -8.534146e+01   1.451204e+02
  -1.559223e+02   5.852386e+01
  -1.185276e+02  -9.551384e+01
  -7.593867e+00  -1.896456e+02
   8.400709e+01  -1.348468e+02
   1.001198e+02   1.308954e+01
   5.228524e+01   1.155881e+02
  -9.496842e+00   9.836938e+01
  -4.672746e+01   1.498839e+01
  -4.513028e+01  -3.098861e+01
  -1.967319e+01  -7.330228e+00
  -4.393070e+00   1.844507e+01
  -2.414493e+01  -1.630967e+01
  -5.294019e+01  -8.490603e+01
  -3.301680e+01  -1.027052e+02
   5.031750e+01  -4.217260e+01
   1.315959e+02   3.932090e+01
   1.208888e+02   7.088604e+01
   1.386783e+01   5.164869e+01
  -8.348536e+01   2.179476e+01
  -8.609070e+01   4.352301e+00
  -1.446008e+01  -1.130468e+01
   3.656718e+01  -2.124750e+01
   1.862415e+01  -1.489724e+01
  -1.634816e+01   3.588787e+00
   3.182302e+00   7.991265e+00
   6.580289e+01   2.596912e+00
   8.676133e+01   2.263862e+01
   1.377554e+01   7.895761e+01
  -1.085206e+02   1.104274e+02
  -1.808577e+02   5.614806e+01
  -1.406918e+02  -6.590129e+01
  -2.377095e+01  -1.569220e+02
   7.861903e+01  -1.450711e+02
   1.119004e+02  -5.657969e+01
   7.743540e+01   2.265045e+01
   2.407019e+01   3.592506e+01
  -5.390446e-01   1.006884e+01
   1.156468e+01   6.675092e+00
   2.975265e+01   4.705716e+01
   1.759022e+01   8.760921e+01
  -3.058314e+01   6.816430e+01
  -7.693857e+01  -1.800113e+01
  -7.351983e+01  -1.015906e+02
  -6.835956e+00  -1.049005e+02
   7.557829e+01  -2.502088e+01
   9.803387e+01   6.689810e+01
   3.358337e+01   9.712691e+01
  -6.272373e+01   5.617242e+01
  -9.480662e+01  -8.947000e+00
  -3.883985e+01  -5.059323e+01
   3.222435e+01  -5.198052e+01
   3.297610e+01  -2.627266e+01
  -2.891788e+01   1.891768e+00
  -6.488368e+01   5.853801e+00
  -1.538381e+01  -2.586362e+01
   7.488621e+01  -6.232218e+01
   1.121867e+02  -5.099738e+01
   6.333035e+01   1.606721e+01
  -1.534209e+01   8.085475e+01
  -5.331484e+01   7.553139e+01
  -3.913813e+01   5.166306e+00
  -2.900242e+00  -5.223970e+01
   2.379676e+01  -4.228776e+01
   3.415888e+01   1.509896e+01
   2.396311e+01   5.168169e+01
  -2.914703e+00   3.341333e+01
  -3.075861e+01  -8.730937e+00
  -3.774806e+01  -2.343569e+01
  -1.962803e+01  -3.282656e+00
   1.717763e+00   1.565459e+01
   6.891966e+00   1.243036e+00
   2.196657e+00  -3.254035e+01
   8.777971e+00  -4.674410e+01
   2.990350e+01  -1.358232e+01
   3.407277e+01   3.928867e+01
   4.987825e+00   5.796183e+01
  -4.210244e+01   2.199288e+01
  -5.773751e+01  -3.557034e+01
  -1.480883e+01  -5.968820e+01
   5.487022e+01  -3.245446e+01
   8.674265e+01   1.435272e+01
   4.614573e+01   4.270136e+01
  -2.841897e+01   4.051786e+01
  -6.160503e+01   2.220044e+01
  -2.435903e+01   4.204480e+00
   3.187241e+01   5.198544e-02
   3.379581e+01   1.181130e+01
  -2.724353e+01   2.689517e+01
  -8.107247e+01   1.757835e+01
