
 $NMID
 id='ANONYMOUS ', fmtdat='(2E16.6)'
 volume=1.0
 tramp=1.0
 $END
   3.556356e+03   2.653837e+01
   2.009235e+03   2.086294e+03
  -5.181114e+02   2.125689e+03
  -1.618084e+03   7.270403e+02
  -7.611229e+02  -3.893034e+02
   4.400797e+02  -3.478737e+02
   6.437912e+02   3.401166e+02
  -2.816218e+01   8.063449e+02
  -6.654052e+02   6.083874e+02
  -7.572236e+02  -9.245184e+01
  -3.769601e+02  -7.153823e+02
   2.083884e+02  -7.138031e+02
   4.935724e+02  -7.752651e+01
   2.744915e+02   5.915780e+02
  -2.369941e+02   5.947852e+02
  -4.620285e+02   7.736177e+00
  -2.184688e+02  -5.479893e+02
   2.425829e+02  -5.299126e+02
   4.615788e+02  -1.139694e+02
   3.371312e+02   2.604851e+02
   3.297986e+01   3.583312e+02
  -1.934696e+02   2.197920e+02
  -1.677137e+02   2.248047e+01
   1.195063e+02  -5.316829e+01
   3.368911e+02   1.340734e+02
   1.219706e+02   3.705265e+02
  -4.263460e+02   2.966068e+02
  -6.903252e+02  -1.199027e+02
  -3.075345e+02  -4.557671e+02
   3.594907e+02  -3.394769e+02
   5.971826e+02   7.771469e+01
   2.479629e+02   3.985665e+02
  -2.572968e+02   4.062912e+02
  -4.748700e+02   1.432717e+02
  -3.329989e+02  -1.917534e+02
  -4.780553e+01  -3.745175e+02
   1.517068e+02  -2.082495e+02
   9.229350e+01   1.837825e+02
  -1.482673e+02   3.034886e+02
  -3.416763e+02  -4.973351e+01
  -1.492106e+02  -5.640371e+02
   2.789788e+02  -5.494592e+02
   4.505559e+02   1.092807e+01
   1.673465e+02   4.304577e+02
  -2.322455e+02   2.318337e+02
  -2.799630e+02  -2.759839e+02
   7.729048e+01  -4.371134e+02
   4.480396e+02  -9.520686e+01
   4.689032e+02   3.470110e+02
   1.256854e+02   4.814328e+02
  -3.176809e+02   2.677534e+02
  -5.098536e+02  -8.150637e+01
  -2.994341e+02  -3.073631e+02
   1.234559e+02  -2.749875e+02
   3.490254e+02  -4.284729e+01
   2.004539e+02   1.404538e+02
  -8.135003e+01   7.292426e+01
  -1.043979e+02  -1.156647e+02
   1.267333e+02  -1.328409e+02
   2.632053e+02   5.813296e+01
   1.102444e+02   2.278893e+02
  -1.749937e+02   2.145901e+02
  -2.888293e+02   7.771777e+01
  -1.923531e+02  -7.587537e+01
   1.497024e+01  -2.226061e+02
   2.131532e+02  -2.966534e+02
   3.043351e+02  -1.726475e+02
   2.372129e+02   1.337316e+02
   5.247741e+01   3.619793e+02
  -8.891278e+01   3.106632e+02
  -8.557178e+01   1.016864e+02
  -2.312916e+01   1.091422e+01
  -5.501775e+01   7.973208e+01
  -1.781613e+02   9.205323e+01
  -2.304739e+02  -6.383874e+01
  -1.196777e+02  -2.325062e+02
   6.916925e+01  -2.061433e+02
   1.884962e+02   3.822564e+00
   1.562134e+02   2.103643e+02
  -1.806673e+01   2.427301e+02
  -2.243456e+02   8.417614e+01
  -2.933457e+02  -1.514415e+02
  -1.501157e+02  -2.899911e+02
   8.155566e+01  -2.505024e+02
   1.832900e+02  -1.015716e+02
   1.250427e+02  -1.748090e+01
   9.623349e+01  -3.501555e+01
   2.094919e+02  -4.717011e+01
   3.372979e+02   6.221933e+01
   2.723064e+02   2.447972e+02
  -9.893376e+00   3.666614e+02
  -3.123506e+02   3.390265e+02
  -4.117311e+02   1.573266e+02
  -2.718888e+02  -8.706740e+01
  -3.248565e+01  -2.454886e+02
   1.121673e+02  -2.045949e+02
   5.931667e+01  -1.837012e+01
  -9.911439e+01   8.270028e+01
  -1.589523e+02  -1.710271e+01
  -2.952509e+01  -1.633010e+02
   1.393213e+02  -1.345262e+02
   1.441246e+02   5.367379e+01
  -1.972299e+01   1.561844e+02
  -1.606653e+02   2.219634e+01
  -1.352396e+02  -2.074265e+02
   2.633928e+01  -2.935043e+02
   1.999396e+02  -1.655701e+02
   2.843965e+02   5.615265e+01
   2.332629e+02   2.106107e+02
   6.700416e+01   2.287615e+02
  -1.046182e+02   1.317987e+02
  -1.489021e+02   1.040346e+01
  -4.447887e+01  -2.727772e+01
   5.532698e+01   3.849770e+01
   1.497748e+01   1.059221e+02
  -1.097122e+02   7.568647e+01
  -1.465795e+02  -1.924939e+01
  -4.351064e+01  -6.139921e+01
   6.843911e+01  -8.667112e+00
   4.398496e+01   6.685944e+01
  -1.094253e+02   7.135645e+01
  -2.423449e+02  -7.817825e+00
  -2.219858e+02  -1.279513e+02
  -4.162894e+01  -2.208537e+02
   1.664371e+02  -2.180498e+02
   2.455409e+02  -9.927413e+01
   1.414202e+02   4.895983e+01
  -2.357621e+01   9.212403e+01
  -7.370461e+01   6.318743e+00
   3.077293e+01  -8.142262e+01
   1.622778e+02  -4.325328e+01
   1.730867e+02   8.852628e+01
   5.187848e+01   1.744828e+02
  -8.272913e+01   1.298646e+02
  -1.206026e+02   1.968697e+01
  -5.537806e+01  -3.976220e+01
   2.652541e+01  -7.477237e-01
   2.991839e+01   7.418520e+01
  -6.435653e+01   9.582811e+01
  -1.675641e+02   2.102060e+01
  -1.569796e+02  -1.088861e+02
  -1.293165e+01  -1.836206e+02
   1.401995e+02  -1.340457e+02
   1.627718e+02  -1.047982e+00
   5.216309e+01   9.743767e+01
  -5.882866e+01   9.322072e+01
  -7.108588e+01   2.302237e+01
  -1.265366e+01  -2.545323e+01
   2.325454e+01  -1.516326e+01
  -5.703028e+00   1.101565e+01
  -6.256507e+01  -4.774928e+00
  -7.733663e+01  -7.167453e+01
  -1.088133e+01  -1.383845e+02
   1.114332e+02  -1.298730e+02
   1.995698e+02  -1.848320e+01
   1.703497e+02   1.290821e+02
   3.457328e+01   2.008540e+02
  -9.179581e+01   1.422096e+02
  -1.132229e+02   2.449685e+01
  -5.976991e+01  -4.377910e+01
  -2.535445e+01  -2.918494e+01
  -4.585776e+01   1.082342e+01
  -6.989362e+01   5.975807e+00
  -3.901260e+01  -4.191080e+01
   3.490293e+01  -7.647317e+01
   8.963628e+01  -4.928442e+01
   7.573645e+01   3.002092e+01
  -1.360162e+01   9.576307e+01
  -1.246928e+02   7.237430e+01
  -1.669109e+02  -4.845701e+01
  -7.694067e+01  -1.755388e+02
   9.749030e+01  -1.908040e+02
   2.273896e+02  -7.451349e+01
   2.155135e+02   7.872637e+01
   8.964749e+01   1.528502e+02
  -3.456724e+01   1.237422e+02
  -8.084914e+01   7.006170e+01
  -6.830084e+01   5.915628e+01
  -5.683882e+01   7.666019e+01
  -7.948673e+01   6.149806e+01
  -1.086367e+02  -2.202581e+01
  -9.605588e+01  -1.328474e+02
  -1.832808e+01  -1.899843e+02
   8.704062e+01  -1.406782e+02
   1.465082e+02  -1.162608e+01
   1.119072e+02   1.048534e+02
   1.160381e+01   1.333406e+02
  -6.163313e+01   7.589242e+01
  -5.301328e+01  -2.522054e+00
  -2.888359e+00  -4.096463e+01
   1.321174e+01  -3.267558e+01
  -2.590678e+01  -1.431310e+01
  -6.891529e+01  -1.655974e+01
  -3.767619e+01  -3.174577e+01
   5.706564e+01  -3.176071e+01
   1.375199e+02   2.357175e-01
   1.200503e+02   4.842892e+01
   6.351862e+00   7.800467e+01
  -1.050831e+02   6.081003e+01
  -1.194467e+02   6.698350e+00
  -3.981410e+01  -3.793123e+01
   4.766959e+01  -3.303973e+01
   6.293397e+01   1.557021e+01
   1.060971e+01   5.785918e+01
  -4.360002e+01   5.030707e+01
  -5.508478e+01   3.411096e-02
  -4.345953e+01  -4.100719e+01
  -3.689315e+01  -3.560344e+01
  -4.879980e+01  -1.460126e+00
  -5.695996e+01   5.847673e-01
  -3.504514e+01  -5.724769e+01
   2.609099e+01  -1.243199e+02
   1.035007e+02  -1.206150e+02
   1.429944e+02  -2.749676e+01
   1.040985e+02   7.981970e+01
   2.333347e+00   1.095023e+02
  -7.331510e+01   5.265675e+01
  -4.943533e+01  -1.283800e+01
   4.818510e+01  -1.741127e+01
   1.116148e+02   3.444865e+01
   6.261822e+01   8.871935e+01
  -6.768582e+01   9.324911e+01
  -1.602158e+02   4.031675e+01
  -1.364104e+02  -3.159177e+01
  -2.853872e+01  -7.348877e+01
   5.452797e+01  -5.593543e+01
   4.183356e+01  -3.182342e+00
  -3.309688e+01   2.245872e+01
  -7.608889e+01  -2.059458e+01
  -2.591002e+01  -9.949717e+01
   7.768537e+01  -1.260121e+02
   1.386830e+02  -4.984913e+01
   1.040502e+02   8.511064e+01
   5.083552e+00   1.627287e+02
  -7.336573e+01   1.169030e+02
  -8.692331e+01  -8.428982e+00
  -4.648088e+01  -1.012032e+02
   6.688545e+00  -8.996413e+01
   4.161045e+01  -1.567019e+01
   4.200598e+01   2.828952e+01
   2.028054e+01   8.301137e+00
   4.497550e+00  -1.666409e+01
   1.966853e+01   1.420843e+01
   4.604466e+01   7.530189e+01
   3.084957e+01   9.078970e+01
  -4.143302e+01   3.725828e+01
  -1.137578e+02  -3.425874e+01
  -1.074124e+02  -6.228837e+01
  -1.545349e+01  -4.475099e+01
   7.247441e+01  -1.859303e+01
   7.551452e+01  -4.300694e+00
   1.166789e+01   8.246977e+00
  -3.220482e+01   1.811695e+01
  -1.509071e+01   1.476885e+01
   1.415421e+01   6.110504e-01
  -3.382381e+00  -7.336814e+00
  -5.937698e+01  -5.130806e+00
  -7.645852e+01  -2.250743e+01
  -8.938932e+00  -6.706083e+01
   9.775852e+01  -9.368490e+01
   1.552070e+02  -4.739631e+01
   1.191023e+02   5.729358e+01
   1.811404e+01   1.346972e+02
  -6.819705e+01   1.254496e+02
  -9.658528e+01   4.845421e+01
  -6.659177e+01  -1.944121e+01
  -2.190998e+01  -3.173361e+01
   6.152844e-01  -9.369378e+00
  -9.293315e+00  -3.780369e+00
  -2.578580e+01  -3.904752e+01
  -1.634035e+01  -7.645608e+01
   2.603118e+01  -6.000261e+01
   6.803107e+01   1.578714e+01
   6.445882e+01   9.052337e+01
   5.002130e+00   9.308132e+01
  -6.721410e+01   2.052727e+01
  -8.653964e+01  -6.198054e+01
  -2.843253e+01  -8.649025e+01
   5.449217e+01  -4.780615e+01
   8.330091e+01   8.368613e+00
   3.558903e+01   4.322137e+01
  -2.703503e+01   4.558739e+01
  -2.983531e+01   2.390045e+01
   2.473173e+01  -1.316623e+00
   5.765030e+01  -6.065134e+00
   1.403927e+01   2.142255e+01
  -6.617257e+01   5.500597e+01
  -9.865763e+01   4.672453e+01
  -5.558514e+01  -1.242966e+01
   1.403215e+01  -7.090187e+01
   4.672008e+01  -6.796591e+01
   3.237981e+01  -6.743039e+00
   1.899656e+00   4.564238e+01
  -2.067935e+01   3.742674e+01
  -2.931487e+01  -1.372198e+01
  -2.124993e+01  -4.553263e+01
   1.282813e+00  -2.893626e+01
   2.642390e+01   7.129570e+00
   3.295694e+01   1.980297e+01
   1.703163e+01   2.595182e+00
  -1.262804e+00  -1.270171e+01
  -7.064873e+00  -2.385723e-01
  -3.418896e+00   2.956194e+01
  -1.092092e+01   3.906487e+01
  -2.455296e+01   9.212192e+00
  -2.659221e+01  -3.446343e+01
  -2.144562e+00  -5.007218e+01
   3.556725e+01  -1.866677e+01
   4.836908e+01   3.008175e+01
   1.307569e+01   5.247856e+01
  -4.601041e+01   2.866540e+01
  -7.417163e+01  -1.347659e+01
  -4.104645e+01  -3.781602e+01
   2.422702e+01  -3.495695e+01
   5.377743e+01  -1.752674e+01
   2.129388e+01  -4.243350e+00
  -2.783554e+01  -3.029399e+00
  -3.004562e+01  -1.270996e+01
   2.500529e+01  -2.364759e+01
   7.394386e+01  -1.338924e+01
