
 $NMID
 id='ANONYMOUS ', fmtdat='(2E16.6)'
 volume=1.0
 tramp=1.0
 $END
   4.433747e+03  -8.746280e+01
   2.639674e+03   2.572324e+03
  -7.378902e+02   2.856238e+03
  -2.146882e+03   9.402099e+02
  -9.626763e+02  -6.814777e+02
   6.783830e+02  -6.097489e+02
   9.260338e+02   4.417066e+02
  -1.346612e+01   1.110704e+03
  -8.485002e+02   8.047746e+02
  -9.650776e+02  -1.087278e+02
  -4.552531e+02  -9.201695e+02
   2.596663e+02  -9.063484e+02
   6.674851e+02  -1.199850e+02
   4.199250e+02   7.420392e+02
  -2.684483e+02   7.741841e+02
  -6.474505e+02   9.242883e+00
  -2.874871e+02  -6.990056e+02
   3.343287e+02  -6.393643e+02
   5.874031e+02  -8.935311e+01
   3.821858e+02   3.513790e+02
   2.102961e+01   4.307446e+02
  -2.292444e+02   2.621776e+02
  -2.092531e+02   1.523887e+01
   1.126432e+02  -9.852224e+01
   4.168283e+02   9.018040e+01
   2.224142e+02   4.358124e+02
  -4.460017e+02   4.428008e+02
  -8.451856e+02  -3.832819e+01
  -4.456500e+02  -5.461222e+02
   3.893850e+02  -5.099594e+02
   7.645930e+02   1.891605e+01
   3.701004e+02   4.969435e+02
  -2.794475e+02   5.511541e+02
  -5.840272e+02   2.230492e+02
  -4.396970e+02  -2.307406e+02
  -7.720441e+01  -4.871642e+02
   2.105388e+02  -2.924751e+02
   1.981233e+02   2.155499e+02
  -1.333211e+02   4.729661e+02
  -4.626608e+02   1.308259e+00
  -2.645320e+02  -6.742755e+02
   3.118575e+02  -7.139752e+02
   6.220790e+02  -8.043256e+00
   2.739808e+02   5.708366e+02
  -3.020789e+02   3.428396e+02
  -4.135909e+02  -3.153881e+02
   4.982236e+01  -5.657671e+02
   5.574929e+02  -1.585297e+02
   6.176322e+02   3.994368e+02
   1.791712e+02   5.937656e+02
  -3.856599e+02   3.698511e+02
  -6.443621e+02  -5.243452e+01
  -3.896229e+02  -3.812828e+02
   1.461985e+02  -3.752968e+02
   4.449768e+02  -7.055658e+01
   2.437092e+02   1.993301e+02
  -1.281447e+02   1.152868e+02
  -1.582912e+02  -1.555610e+02
   1.628592e+02  -2.060196e+02
   3.616385e+02   6.178858e+01
   1.586985e+02   3.047339e+02
  -2.000779e+02   2.704572e+02
  -3.386979e+02   8.618871e+01
  -2.010454e+02  -8.790987e+01
   2.583873e+01  -2.247215e+02
   2.091070e+02  -3.370859e+02
   3.348532e+02  -2.281080e+02
   3.031569e+02   1.259990e+02
   1.020465e+02   4.403870e+02
  -1.040099e+02   3.938223e+02
  -1.308708e+02   1.048534e+02
  -1.941991e+01  -2.868106e+01
  -2.469730e+01   8.580373e+01
  -1.808014e+02   1.466155e+02
  -2.853438e+02  -3.395307e+01
  -1.792827e+02  -2.664999e+02
   6.093585e+01  -2.683409e+02
   2.384468e+02  -2.341810e+01
   2.166373e+02   2.393876e+02
   6.386433e-01   3.059322e+02
  -2.734331e+02   1.298403e+02
  -3.756369e+02  -1.586741e+02
  -2.004247e+02  -3.556047e+02
   9.653194e+01  -3.148506e+02
   2.304675e+02  -1.277032e+02
   1.562909e+02  -4.436129e+00
   9.482452e+01  -2.974095e+01
   2.164522e+02  -6.503171e+01
   3.887718e+02   4.635952e+01
   3.372979e+02   2.737658e+02
   1.557852e+01   4.486562e+02
  -3.500165e+02   4.234307e+02
  -4.834520e+02   2.081795e+02
  -3.448896e+02  -9.372001e+01
  -6.279308e+01  -3.017645e+02
   1.300602e+02  -2.586948e+02
   8.985967e+01  -2.889778e+01
  -1.039014e+02   1.169007e+02
  -1.996041e+02   2.306328e+00
  -6.015146e+01  -1.996990e+02
   1.592675e+02  -1.812738e+02
   1.856173e+02   5.574652e+01
  -1.233413e+01   1.957404e+02
  -1.966694e+02   3.787130e+01
  -1.683252e+02  -2.441646e+02
   2.595889e+01  -3.480838e+02
   2.273898e+02  -1.950976e+02
   3.222660e+02   5.577509e+01
   2.830993e+02   2.285991e+02
   1.063388e+02   2.601425e+02
  -1.052683e+02   1.692571e+02
  -1.820390e+02   3.152982e+01
  -6.594275e+01  -3.215018e+01
   7.054506e+01   3.028540e+01
   3.620381e+01   1.241950e+02
  -1.225261e+02   1.066741e+02
  -1.828434e+02  -7.007402e+00
  -6.316031e+01  -7.386736e+01
   8.006570e+01  -2.285518e+01
   5.731968e+01   6.841615e+01
  -1.172813e+02   8.862401e+01
  -2.753184e+02   6.330283e+00
  -2.620070e+02  -1.266013e+02
  -6.863756e+01  -2.485511e+02
   1.692683e+02  -2.658995e+02
   2.775879e+02  -1.375832e+02
   1.762667e+02   4.735870e+01
  -1.831733e+01   1.152381e+02
  -9.490975e+01   1.312622e+01
   2.239605e+01  -1.063499e+02
   1.905371e+02  -6.957184e+01
   2.185120e+02   9.658440e+01
   7.647745e+01   2.089010e+02
  -8.963622e+01   1.636605e+02
  -1.446384e+02   3.367401e+01
  -7.281800e+01  -4.131868e+01
   2.573466e+01  -8.054099e+00
   4.163656e+01   7.779636e+01
  -6.330392e+01   1.156199e+02
  -1.937671e+02   3.996450e+01
  -1.963279e+02  -1.137298e+02
  -3.140795e+01  -2.191173e+02
   1.594006e+02  -1.735111e+02
   1.967725e+02  -1.238377e+01
   7.109167e+01   1.150416e+02
  -6.353379e+01   1.146899e+02
  -8.387366e+01   3.232430e+01
  -1.923440e+01  -2.746627e+01
   2.254644e+01  -2.013123e+01
  -8.224450e+00   8.396125e+00
  -6.969450e+01  -6.080186e+00
  -8.822664e+01  -7.588585e+01
  -1.957744e+01  -1.527986e+02
   1.182809e+02  -1.532751e+02
   2.291370e+02  -3.422891e+01
   2.051137e+02   1.437658e+02
   4.777490e+01   2.367873e+02
  -1.064659e+02   1.728660e+02
  -1.373153e+02   2.879808e+01
  -7.172280e+01  -5.612724e+01
  -2.702468e+01  -3.510182e+01
  -5.009357e+01   1.508093e+01
  -7.714466e+01   1.017507e+01
  -4.222416e+01  -4.738105e+01
   3.793744e+01  -8.718565e+01
   9.705244e+01  -5.739587e+01
   8.370246e+01   3.121305e+01
  -8.947674e+00   1.069722e+02
  -1.348192e+02   8.855575e+01
  -1.946295e+02  -4.172695e+01
  -1.071697e+02  -1.942326e+02
   9.708470e+01  -2.307396e+02
   2.610762e+02  -1.056627e+02
   2.576948e+02   7.630519e+01
   1.130382e+02   1.710689e+02
  -3.296074e+01   1.455196e+02
  -8.718673e+01   8.544596e+01
  -7.277442e+01   7.051611e+01
  -6.205135e+01   9.170619e+01
  -8.994616e+01   7.539371e+01
  -1.264389e+02  -1.743203e+01
  -1.181603e+02  -1.451009e+02
  -3.589314e+01  -2.198896e+02
   9.112474e+01  -1.748328e+02
   1.739121e+02  -2.605016e+01
   1.405227e+02   1.178605e+02
   2.481040e+01   1.586165e+02
  -6.513323e+01   9.163064e+01
  -5.996405e+01   8.906513e-01
  -5.905183e+00  -4.232495e+01
   9.759909e+00  -3.275402e+01
  -3.533609e+01  -1.547133e+01
  -7.657123e+01  -2.025160e+01
  -4.424160e+01  -3.596682e+01
   6.048440e+01  -3.910770e+01
   1.535530e+02  -9.758065e+00
   1.431710e+02   4.538534e+01
   1.973690e+01   8.864848e+01
  -1.158708e+02   7.919407e+01
  -1.425621e+02   1.743280e+01
  -4.983513e+01  -4.145969e+01
   5.872764e+01  -4.163224e+01
   7.657369e+01   1.747452e+01
   9.843505e+00   6.947241e+01
  -5.382770e+01   5.850478e+01
  -6.353318e+01  -1.358277e+00
  -4.520367e+01  -4.967093e+01
  -4.287417e+01  -3.988181e+01
  -5.843810e+01   4.269658e-01
  -6.432143e+01   1.614443e+00
  -3.682601e+01  -6.446701e+01
   2.557525e+01  -1.432788e+02
   1.107787e+02  -1.435294e+02
   1.608879e+02  -3.869544e+01
   1.244790e+02   8.623875e+01
   1.028459e+01   1.253412e+02
  -8.084519e+01   6.417111e+01
  -5.888830e+01  -1.315517e+01
   5.616570e+01  -2.157444e+01
   1.331576e+02   3.918742e+01
   7.638826e+01   1.032112e+02
  -7.459814e+01   1.117037e+02
  -1.829177e+02   5.438821e+01
  -1.588222e+02  -2.955952e+01
  -3.953719e+01  -8.403489e+01
   5.674973e+01  -7.045870e+01
   4.759397e+01  -8.310052e+00
  -3.768703e+01   2.811422e+01
  -8.917929e+01  -2.073538e+01
  -3.498032e+01  -1.173708e+02
   8.539532e+01  -1.546717e+02
   1.639126e+02  -6.502199e+01
   1.268791e+02   9.708567e+01
   1.514559e+01   1.923970e+02
  -7.850433e+01   1.400680e+02
  -1.018799e+02  -5.893115e+00
  -6.187809e+01  -1.129635e+02
  -5.743101e-01  -1.039490e+02
   4.404527e+01  -2.080496e+01
   5.122246e+01   2.933461e+01
   2.523174e+01   8.810880e+00
   3.389531e+00  -2.021839e+01
   2.039689e+01   1.261800e+01
   5.809675e+01   8.277918e+01
   4.620982e+01   1.035195e+02
  -4.359831e+01   4.736778e+01
  -1.351753e+02  -3.253683e+01
  -1.303773e+02  -6.451948e+01
  -2.047692e+01  -5.061280e+01
   8.462880e+01  -2.476926e+01
   8.662981e+01  -8.385782e+00
   9.408675e+00   8.130236e+00
  -3.886038e+01   2.247888e+01
  -1.203655e+01   1.698440e+01
   2.301015e+01  -1.295144e+00
  -4.549474e+00  -4.923035e+00
  -7.589015e+01   1.208994e+00
  -9.308505e+01  -2.190593e+01
  -1.224975e+01  -8.093293e+01
   1.132626e+02  -1.166860e+02
   1.802177e+02  -6.311295e+01
   1.398956e+02   6.222420e+01
   2.959273e+01   1.567386e+02
  -7.171540e+01   1.497732e+02
  -1.113115e+02   6.082006e+01
  -8.037746e+01  -1.944373e+01
  -2.541716e+01  -3.545398e+01
   3.445790e+00  -8.603906e+00
  -9.917562e+00  -2.360950e+00
  -3.503190e+01  -4.340617e+01
  -2.469324e+01  -8.847657e+01
   2.779189e+01  -7.097616e+01
   8.105854e+01   1.671715e+01
   7.869023e+01   1.041408e+02
   6.851692e+00   1.091833e+02
  -8.113561e+01   2.530761e+01
  -1.022280e+02  -6.974903e+01
  -3.331181e+01  -9.882536e+01
   6.358367e+01  -5.598634e+01
   9.552712e+01   7.889040e+00
   3.831786e+01   4.808769e+01
  -3.075881e+01   5.026285e+01
  -2.836181e+01   2.718899e+01
   3.442523e+01  -1.214059e+00
   6.770734e+01  -6.665751e+00
   1.425369e+01   2.689871e+01
  -7.601797e+01   6.807253e+01
  -1.108150e+02   5.934760e+01
  -6.182301e+01  -1.241885e+01
   1.361992e+01  -8.119956e+01
   5.011015e+01  -7.737230e+01
   3.514206e+01  -3.786063e+00
   1.150307e+00   5.428191e+01
  -2.567408e+01   4.091268e+01
  -3.631022e+01  -1.905683e+01
  -2.645020e+01  -5.283873e+01
   3.011145e+00  -3.174826e+01
   3.186664e+01   8.215807e+00
   3.738211e+01   1.913284e+01
   1.994647e+01  -1.406977e-01
  -1.208801e-01  -1.311121e+01
  -5.636103e+00   4.418798e+00
  -6.248846e+00   3.654191e+01
  -1.593398e+01   4.382225e+01
  -3.105899e+01   8.030387e+00
  -2.973736e+01  -4.279824e+01
   1.107686e+00  -5.923118e+01
   4.346564e+01  -2.099598e+01
   5.614284e+01   3.743771e+01
   1.508340e+01   6.209579e+01
  -5.337692e+01   3.451691e+01
  -8.603293e+01  -1.347613e+01
  -4.802861e+01  -4.260344e+01
   2.800687e+01  -4.049225e+01
   6.241208e+01  -2.134372e+01
   2.142615e+01  -4.381698e+00
  -3.853850e+01  -1.719758e+00
  -3.734460e+01  -1.663371e+01
   3.132060e+01  -3.304724e+01
   9.075322e+01  -2.019052e+01
