
 $NMID
 id='ANONYMOUS ', fmtdat='(2E16.6)'
 volume=1.0
 tramp=1.0
 $END
   5.004258e+03  -2.521029e+01
   2.819442e+03   3.169375e+03
  -1.003985e+03   3.246989e+03
  -2.522608e+03   8.420863e+02
  -1.022076e+03  -9.921174e+02
   9.072977e+02  -7.541984e+02
   1.124158e+03   5.563536e+02
  -1.190010e+00   1.297945e+03
  -9.892115e+02   8.948601e+02
  -1.108446e+03  -1.464658e+02
  -4.665292e+02  -1.017480e+03
   3.444340e+02  -1.040805e+03
   8.129975e+02  -1.088034e+02
   4.598613e+02   8.735164e+02
  -3.427261e+02   8.840949e+02
  -7.275469e+02  -5.683398e+01
  -2.984097e+02  -8.035827e+02
   4.014828e+02  -6.997847e+02
   6.689349e+02  -4.432086e+01
   4.044529e+02   4.398875e+02
  -1.294373e+01   5.030537e+02
  -3.064786e+02   2.964925e+02
  -2.854559e+02  -6.279704e+00
   8.779845e+01  -1.638773e+02
   4.750768e+02   4.578932e+01
   2.950736e+02   4.651943e+02
  -4.645864e+02   5.260841e+02
  -9.668933e+02  -3.324926e+01
  -5.274295e+02  -6.332133e+02
   4.194353e+02  -6.107144e+02
   8.609943e+02  -6.115153e+00
   4.219090e+02   5.467930e+02
  -2.940403e+02   6.061497e+02
  -6.353665e+02   2.406810e+02
  -4.791432e+02  -2.629563e+02
  -7.633831e+01  -5.587861e+02
   2.720477e+02  -3.373746e+02
   2.633145e+02   2.637026e+02
  -1.948162e+02   5.635702e+02
  -5.542666e+02   3.741531e+01
  -3.466372e+02  -7.718366e+02
   3.444425e+02  -8.344599e+02
   7.298881e+02  -2.453865e+01
   3.308752e+02   6.580049e+02
  -3.458491e+02   4.162838e+02
  -4.846621e+02  -3.445325e+02
   3.865339e+01  -6.344727e+02
   6.165279e+02  -1.841217e+02
   6.713015e+02   4.385335e+02
   1.899951e+02   6.600616e+02
  -4.328292e+02   4.036742e+02
  -7.160994e+02  -7.709075e+01
  -4.280403e+02  -4.548913e+02
   1.892191e+02  -4.380821e+02
   5.168599e+02  -6.125498e+01
   2.706236e+02   2.571289e+02
  -1.650875e+02   1.485529e+02
  -1.909252e+02  -1.904142e+02
   1.905096e+02  -2.515640e+02
   4.116040e+02   7.328677e+01
   1.643270e+02   3.488198e+02
  -2.258105e+02   2.934372e+02
  -3.494885e+02   6.448504e+01
  -1.928419e+02  -8.802331e+01
   2.399684e+01  -2.081236e+02
   2.013745e+02  -3.370823e+02
   3.478985e+02  -2.535140e+02
   3.341556e+02   1.280804e+02
   1.003930e+02   4.832692e+02
  -1.485168e+02   4.235239e+02
  -1.616781e+02   9.329044e+01
  -1.935281e+01  -5.097975e+01
  -8.583500e+00   8.304346e+01
  -1.876649e+02   1.677701e+02
  -3.080564e+02  -3.111514e+01
  -1.974950e+02  -2.898414e+02
   6.379420e+01  -2.952007e+02
   2.471782e+02  -3.640954e+01
   2.345023e+02   2.448444e+02
   1.332903e+01   3.228220e+02
  -2.781934e+02   1.479390e+02
  -4.032962e+02  -1.620512e+02
  -2.153100e+02  -3.854102e+02
   1.149280e+02  -3.451066e+02
   2.677483e+02  -1.278533e+02
   1.674585e+02   1.893936e+01
   8.875312e+01  -1.586237e+01
   2.151643e+02  -7.153115e+01
   4.061906e+02   3.900713e+01
   3.525463e+02   2.838194e+02
   1.117024e+01   4.608538e+02
  -3.529217e+02   4.410184e+02
  -5.050282e+02   2.311152e+02
  -3.724034e+02  -8.557514e+01
  -7.988462e+01  -3.209367e+02
   1.403776e+02  -2.937277e+02
   1.166613e+02  -3.214754e+01
  -9.703533e+01   1.446638e+02
  -2.262698e+02   1.760403e+01
  -7.945643e+01  -2.239794e+02
   1.716738e+02  -2.153045e+02
   2.167354e+02   5.671576e+01
  -6.292345e+00   2.245558e+02
  -2.131007e+02   5.426935e+01
  -1.810583e+02  -2.596040e+02
   3.443339e+01  -3.694380e+02
   2.380400e+02  -1.975535e+02
   3.274508e+02   6.160218e+01
   2.908534e+02   2.321844e+02
   1.158304e+02   2.645824e+02
  -1.105072e+02   1.777232e+02
  -1.934625e+02   3.105827e+01
  -7.096851e+01  -3.887134e+01
   8.230245e+01   2.843963e+01
   4.755727e+01   1.311405e+02
  -1.240512e+02   1.202604e+02
  -1.960879e+02  -1.781892e+00
  -7.262630e+01  -7.913400e+01
   7.983902e+01  -3.038996e+01
   6.333548e+01   6.458173e+01
  -1.150467e+02   8.888259e+01
  -2.785239e+02   1.229270e+01
  -2.750309e+02  -1.272897e+02
  -7.950713e+01  -2.575157e+02
   1.737507e+02  -2.845190e+02
   2.949557e+02  -1.480314e+02
   1.910749e+02   4.898009e+01
  -1.714415e+01   1.262871e+02
  -1.009390e+02   1.663328e+01
   2.345951e+01  -1.136439e+02
   2.042679e+02  -7.450994e+01
   2.345960e+02   1.054638e+02
   8.179180e+01   2.267261e+02
  -9.721172e+01   1.759648e+02
  -1.579195e+02   3.689371e+01
  -8.516842e+01  -4.450811e+01
   2.109454e+01  -1.310712e+01
   4.147963e+01   7.476280e+01
  -6.306786e+01   1.126372e+02
  -1.971985e+02   3.633857e+01
  -2.033639e+02  -1.198223e+02
  -3.039027e+01  -2.302440e+02
   1.709384e+02  -1.802381e+02
   2.122563e+02  -9.443045e+00
   7.687831e+01   1.261228e+02
  -6.839364e+01   1.271755e+02
  -9.325888e+01   3.806416e+01
  -2.786297e+01  -2.701428e+01
   1.637621e+01  -2.483180e+01
  -1.125945e+01   7.752311e-01
  -6.573758e+01  -1.209253e+01
  -8.391119e+01  -7.908253e+01
  -1.729900e+01  -1.535425e+02
   1.207608e+02  -1.544467e+02
   2.343990e+02  -3.401722e+01
   2.098411e+02   1.468165e+02
   4.828366e+01   2.442954e+02
  -1.111398e+02   1.792077e+02
  -1.424796e+02   2.816219e+01
  -7.224201e+01  -6.082675e+01
  -2.735406e+01  -3.854415e+01
  -5.283431e+01   1.134705e+01
  -7.884466e+01   5.059374e+00
  -3.785598e+01  -4.945866e+01
   4.335814e+01  -8.261720e+01
   9.662674e+01  -4.993343e+01
   7.881941e+01   3.250980e+01
  -1.092881e+01   1.043247e+02
  -1.351460e+02   8.790242e+01
  -1.987912e+02  -4.084918e+01
  -1.129711e+02  -1.976339e+02
   9.698004e+01  -2.378582e+02
   2.705075e+02  -1.106809e+02
   2.698341e+02   8.047161e+01
   1.188714e+02   1.832584e+02
  -3.594665e+01   1.574066e+02
  -9.729657e+01   9.184534e+01
  -8.278498e+01   7.319334e+01
  -7.117604e+01   9.165877e+01
  -9.725167e+01   7.345046e+01
  -1.324729e+02  -2.375613e+01
  -1.210234e+02  -1.562097e+02
  -3.253150e+01  -2.321526e+02
   9.913174e+01  -1.809048e+02
   1.839881e+02  -2.737309e+01
   1.459225e+02   1.219791e+02
   2.709959e+01   1.651454e+02
  -6.530936e+01   9.867650e+01
  -6.090863e+01   5.787450e+00
  -8.276905e+00  -3.946801e+01
   5.512736e+00  -3.258119e+01
  -4.082114e+01  -1.891388e+01
  -8.129688e+01  -2.592294e+01
  -4.435187e+01  -4.126507e+01
   6.224257e+01  -3.781344e+01
   1.576365e+02  -4.712756e+00
   1.455104e+02   4.823876e+01
   2.377179e+01   8.804868e+01
  -1.176895e+02   7.963162e+01
  -1.486837e+02   1.669109e+01
  -4.960488e+01  -4.123162e+01
   6.333789e+01  -3.841667e+01
   7.839522e+01   2.066975e+01
   2.927510e+00   7.042241e+01
  -6.173729e+01   5.747343e+01
  -6.402435e+01  -4.261283e+00
  -3.944523e+01  -4.969568e+01
  -4.380052e+01  -4.112160e+01
  -6.644090e+01  -2.155857e+00
  -6.843141e+01  -2.334765e+00
  -3.337578e+01  -6.869599e+01
   3.468701e+01  -1.465602e+02
   1.149367e+02  -1.426122e+02
   1.629946e+02  -3.531560e+01
   1.247924e+02   9.182196e+01
   1.103537e+01   1.273489e+02
  -8.498620e+01   6.180486e+01
  -6.133598e+01  -1.703563e+01
   6.125039e+01  -2.246275e+01
   1.441590e+02   4.552205e+01
   8.265169e+01   1.128117e+02
  -8.036602e+01   1.189017e+02
  -1.967592e+02   5.806130e+01
  -1.706169e+02  -3.085829e+01
  -4.260893e+01  -9.013669e+01
   5.986745e+01  -7.708737e+01
   5.104829e+01  -1.286794e+01
  -3.871835e+01   2.701446e+01
  -9.325242e+01  -2.272656e+01
  -3.227753e+01  -1.236285e+02
   9.724473e+01  -1.594098e+02
   1.761595e+02  -6.362177e+01
   1.311645e+02   1.062345e+02
   1.000560e+01   2.044168e+02
  -8.885391e+01   1.480412e+02
  -1.090035e+02  -5.407029e+00
  -6.540886e+01  -1.189906e+02
  -1.811730e+00  -1.083177e+02
   4.531684e+01  -2.227404e+01
   5.494389e+01   3.098759e+01
   2.862936e+01   9.111194e+00
   2.730358e+00  -2.223973e+01
   1.848509e+01   1.166946e+01
   5.922396e+01   8.672568e+01
   4.601624e+01   1.125718e+02
  -4.703089e+01   4.949067e+01
  -1.418228e+02  -3.929491e+01
  -1.338351e+02  -7.416276e+01
  -1.530137e+01  -5.240078e+01
   9.195696e+01  -2.108992e+01
   8.974944e+01  -6.014431e+00
   8.292693e+00   6.249123e+00
  -4.117349e+01   2.248301e+01
  -1.325437e+01   1.999151e+01
   2.339653e+01  -3.866809e-01
  -6.186838e+00  -9.265007e+00
  -7.890493e+01  -5.014742e+00
  -9.411251e+01  -2.649196e+01
  -4.416650e+00  -8.241943e+01
   1.262355e+02  -1.170827e+02
   1.918299e+02  -5.791818e+01
   1.406090e+02   7.291662e+01
   2.302645e+01   1.693562e+02
  -8.222364e+01   1.543605e+02
  -1.167213e+02   5.594887e+01
  -8.195713e+01  -2.567372e+01
  -2.513249e+01  -3.747945e+01
   4.053859e+00  -6.989727e+00
  -9.043459e+00  -1.225180e+00
  -3.502967e+01  -4.467611e+01
  -2.573119e+01  -9.255898e+01
   3.077138e+01  -7.434134e+01
   8.627762e+01   2.088639e+01
   7.761299e+01   1.152563e+02
  -1.688324e+00   1.165180e+02
  -9.055203e+01   2.056807e+01
  -1.047878e+02  -8.261370e+01
  -2.815804e+01  -1.076698e+02
   7.029787e+01  -5.450032e+01
   9.803642e+01   1.342866e+01
   3.729340e+01   4.950205e+01
  -3.224106e+01   4.863184e+01
  -2.777106e+01   2.739548e+01
   3.686789e+01   9.216937e-01
   7.027441e+01  -4.755661e+00
   1.418174e+01   2.643662e+01
  -7.964173e+01   6.679775e+01
  -1.134637e+02   6.006775e+01
  -6.269879e+01  -1.171382e+01
   1.577801e+01  -8.341158e+01
   5.242201e+01  -7.796491e+01
   3.552401e+01  -3.419679e+00
  -3.967687e-01   5.867674e+01
  -2.771321e+01   4.246745e+01
  -3.764105e+01  -2.061635e+01
  -2.680864e+01  -5.550067e+01
   4.311613e+00  -3.204688e+01
   3.369999e+01   1.019095e+01
   3.862457e+01   2.046292e+01
   2.085820e+01  -9.401972e-01
   1.670416e+00  -1.326086e+01
  -6.009617e+00   7.737119e+00
  -1.050812e+01   4.078502e+01
  -2.412890e+01   4.404063e+01
  -3.580629e+01   1.714104e+00
  -2.744092e+01  -5.125005e+01
   8.865094e+00  -6.247553e+01
   4.848809e+01  -1.795271e+01
   5.547433e+01   4.374496e+01
   1.186604e+01   6.620432e+01
  -5.663372e+01   3.400525e+01
  -9.018697e+01  -1.763171e+01
  -4.987698e+01  -4.672585e+01
   2.977547e+01  -4.144781e+01
   6.646357e+01  -1.973358e+01
   2.348575e+01  -2.324071e+00
  -4.210232e+01  -1.706080e+00
  -4.056551e+01  -1.994124e+01
   3.422581e+01  -3.584884e+01
   9.790427e+01  -1.971005e+01
