
 $NMID
 id='ANONYMOUS ', fmtdat='(2E16.6)'
 volume=1.0
 tramp=1.0
 $END
  -3.973372e+03   1.676965e+02
  -2.550292e+03  -2.272812e+03
   4.120355e+02  -2.718881e+03
   1.870019e+03  -1.165111e+03
   1.035885e+03   3.914410e+02
  -4.471891e+02   5.638204e+02
  -8.146310e+02  -3.013528e+02
  -9.846785e+01  -9.584846e+02
   6.931666e+02  -7.878154e+02
   8.836696e+02  -7.434895e+00
   4.836015e+02   7.765034e+02
  -1.368854e+02   8.530376e+02
  -5.722194e+02   1.839742e+02
  -4.020269e+02  -6.179078e+02
   1.996915e+02  -7.228154e+02
   6.047367e+02  -3.527134e+01
   3.243678e+02   6.386899e+02
  -2.529981e+02   6.821175e+02
  -5.807461e+02   1.744237e+02
  -4.338235e+02  -3.022627e+02
  -7.569018e+01  -4.384271e+02
   2.006402e+02  -2.848371e+02
   1.823362e+02  -4.674172e+01
  -1.053766e+02   4.970888e+01
  -3.769619e+02  -1.187493e+02
  -1.816405e+02  -3.907805e+02
   4.200115e+02  -3.765481e+02
   7.877085e+02   3.832868e+01
   4.191012e+02   4.633443e+02
  -3.374961e+02   4.404249e+02
  -6.869466e+02  -1.746414e+01
  -3.348456e+02  -4.340270e+02
   2.512356e+02  -4.939564e+02
   5.349195e+02  -2.144834e+02
   4.126746e+02   1.935135e+02
   1.037090e+02   4.440147e+02
  -1.501684e+02   2.811150e+02
  -1.541955e+02  -1.767444e+02
   1.405090e+02  -4.221216e+02
   3.932147e+02   4.955272e+00
   2.397855e+02   6.116097e+02
  -2.535481e+02   6.623733e+02
  -5.433877e+02   4.158262e+01
  -2.744560e+02  -4.881012e+02
   2.341858e+02  -3.065393e+02
   3.597597e+02   2.801131e+02
  -4.187553e+01   5.126560e+02
  -5.200415e+02   1.541967e+02
  -5.874090e+02  -3.586692e+02
  -1.959855e+02  -5.597531e+02
   3.444622e+02  -3.580512e+02
   6.069288e+02   2.745094e+01
   4.008266e+02   3.343402e+02
  -9.453066e+01   3.590115e+02
  -4.009684e+02   1.010903e+02
  -2.543286e+02  -1.475789e+02
   8.229549e+01  -1.072516e+02
   1.367754e+02   1.169493e+02
  -1.316313e+02   1.709288e+02
  -3.212507e+02  -4.207800e+01
  -1.562244e+02  -2.691631e+02
   1.697219e+02  -2.736304e+02
   3.332548e+02  -1.003509e+02
   2.130914e+02   9.190218e+01
  -1.570878e+01   2.440219e+02
  -2.151702e+02   3.348119e+02
  -3.222629e+02   2.187111e+02
  -2.811157e+02  -1.163100e+02
  -9.749114e+01  -4.068767e+02
   7.582506e+01  -3.796056e+02
   1.022498e+02  -1.404137e+02
   3.609220e+01  -1.006698e+01
   5.868059e+01  -8.218226e+01
   1.928613e+02  -1.202733e+02
   2.657195e+02   5.177934e+01
   1.583628e+02   2.524277e+02
  -6.123258e+01   2.473313e+02
  -2.172004e+02   1.493692e+01
  -2.005478e+02  -2.269005e+02
  -4.674623e+00  -2.835109e+02
   2.505138e+02  -1.204529e+02
   3.594296e+02   1.444597e+02
   2.069905e+02   3.275888e+02
  -6.865649e+01   3.063443e+02
  -2.137859e+02   1.491334e+02
  -1.586969e+02   2.798991e+01
  -1.071841e+02   3.876867e+01
  -2.287805e+02   6.060038e+01
  -3.953366e+02  -4.831253e+01
  -3.381158e+02  -2.716804e+02
  -1.164334e+01  -4.485576e+02
   3.447194e+02  -4.223363e+02
   4.733240e+02  -2.133101e+02
   3.282664e+02   8.156173e+01
   6.353923e+01   2.818288e+02
  -1.078137e+02   2.549673e+02
  -7.116567e+01   4.265843e+01
   9.697874e+01  -9.914106e+01
   1.775616e+02  -8.850532e+00
   5.434598e+01   1.748911e+02
  -1.386814e+02   1.664853e+02
  -1.663387e+02  -4.650298e+01
   1.012756e+01  -1.778896e+02
   1.849345e+02  -3.523879e+01
   1.687476e+02   2.361238e+02
  -1.650338e+01   3.486081e+02
  -2.261577e+02   2.027735e+02
  -3.332799e+02  -5.065770e+01
  -2.838198e+02  -2.307693e+02
  -9.953346e+01  -2.600033e+02
   1.073197e+02  -1.595610e+02
   1.697472e+02  -2.860089e+01
   5.827521e+01   2.618502e+01
  -6.792815e+01  -3.518648e+01
  -3.163478e+01  -1.173634e+02
   1.144085e+02  -9.889844e+01
   1.710955e+02   3.440179e+00
   5.534999e+01   6.541071e+01
  -7.974105e+01   1.648079e+01
  -5.287573e+01  -7.258870e+01
   1.245103e+02  -9.369034e+01
   2.802061e+02  -1.062866e+01
   2.608849e+02   1.318530e+02
   6.300606e+01   2.489576e+02
  -1.712891e+02   2.590581e+02
  -2.664559e+02   1.294548e+02
  -1.621959e+02  -4.118649e+01
   1.737728e+01  -1.021521e+02
   8.241172e+01  -7.600057e+00
  -3.054716e+01   1.000862e+02
  -1.879880e+02   6.474768e+01
  -2.127171e+02  -9.448756e+01
  -7.825751e+01  -1.999117e+02
   8.321476e+01  -1.575984e+02
   1.359632e+02  -3.182777e+01
   6.598837e+01   3.667681e+01
  -3.083006e+01  -1.142677e+00
  -3.701140e+01  -8.587289e+01
   7.140653e+01  -1.158063e+02
   1.942168e+02  -3.378022e+01
   1.910641e+02   1.139455e+02
   2.953214e+01   2.114376e+02
  -1.507346e+02   1.660080e+02
  -1.855332e+02   1.593405e+01
  -6.808484e+01  -1.065325e+02
   6.065399e+01  -1.091434e+02
   7.930411e+01  -3.264044e+01
   1.625283e+01   2.366310e+01
  -2.165249e+01   1.658689e+01
   1.093758e+01  -1.064129e+01
   7.497503e+01   5.915383e+00
   9.163073e+01   7.948723e+01
   1.936269e+01   1.575647e+02
  -1.203336e+02   1.552084e+02
  -2.278504e+02   3.351359e+01
  -2.028615e+02  -1.391478e+02
  -5.242783e+01  -2.306016e+02
   9.664753e+01  -1.725154e+02
   1.329010e+02  -3.365524e+01
   7.511671e+01   5.092550e+01
   3.054898e+01   3.238280e+01
   5.028729e+01  -1.591836e+01
   8.041641e+01  -7.915045e+00
   4.654645e+01   5.281187e+01
  -3.903186e+01   9.396280e+01
  -1.058322e+02   5.763781e+01
  -9.042191e+01  -3.908000e+01
   1.190197e+01  -1.145352e+02
   1.414998e+02  -8.971703e+01
   1.959927e+02   4.309173e+01
   1.036508e+02   1.923171e+02
  -9.586809e+01   2.272753e+02
  -2.554618e+02   1.081675e+02
  -2.554191e+02  -6.956460e+01
  -1.168572e+02  -1.680313e+02
   2.821956e+01  -1.484432e+02
   8.435036e+01  -9.019691e+01
   7.009927e+01  -7.522578e+01
   5.974493e+01  -9.723529e+01
   9.001530e+01  -7.916176e+01
   1.318473e+02   1.585749e+01
   1.259673e+02   1.471866e+02
   3.862118e+01   2.202553e+02
  -8.990732e+01   1.721716e+02
  -1.709636e+02   2.766560e+01
  -1.385159e+02  -1.141748e+02
  -2.545890e+01  -1.558778e+02
   6.299314e+01  -9.147315e+01
   5.929921e+01   1.588064e+00
   4.408631e+00   4.437619e+01
  -1.201911e+01   3.190391e+01
   3.619384e+01   1.306069e+01
   8.103527e+01   1.972590e+01
   4.360882e+01   4.076043e+01
  -6.595575e+01   4.132610e+01
  -1.600909e+02   6.330986e+00
  -1.440282e+02  -5.102554e+01
  -1.624918e+01  -9.031285e+01
   1.178375e+02  -7.932113e+01
   1.427511e+02  -1.751464e+01
   4.782923e+01   4.160755e+01
  -5.907763e+01   4.126647e+01
  -7.704752e+01  -1.740080e+01
  -1.325388e+01  -7.023277e+01
   5.271271e+01  -6.100215e+01
   6.635797e+01   7.317549e-01
   4.823528e+01   5.041999e+01
   4.440546e+01   4.143400e+01
   5.715459e+01  -4.395328e-01
   6.397954e+01  -7.691690e-01
   3.953309e+01   6.752908e+01
  -2.503276e+01   1.481945e+02
  -1.114610e+02   1.448455e+02
  -1.645966e+02   3.813415e+01
  -1.269613e+02  -8.628377e+01
  -9.987286e+00  -1.265748e+02
   8.456679e+01  -6.659863e+01
   6.201244e+01   1.248047e+01
  -5.576539e+01   2.370330e+01
  -1.351628e+02  -3.612499e+01
  -7.653610e+01  -1.027308e+02
   7.435085e+01  -1.116051e+02
   1.823215e+02  -5.609626e+01
   1.578809e+02   2.660198e+01
   3.972702e+01   8.148357e+01
  -5.586761e+01   7.031682e+01
  -4.749441e+01   8.946759e+00
   3.671762e+01  -2.968928e+01
   9.137385e+01   1.613046e+01
   4.128627e+01   1.137402e+02
  -7.845843e+01   1.583381e+02
  -1.603869e+02   7.260342e+01
  -1.297696e+02  -9.156773e+01
  -2.007099e+01  -1.938294e+02
   7.740445e+01  -1.450086e+02
   1.042895e+02   4.196753e+00
   6.470372e+01   1.141403e+02
  -5.935040e-01   1.038223e+02
  -4.653229e+01   1.980255e+01
  -5.236673e+01  -2.916793e+01
  -2.449463e+01  -7.233158e+00
  -3.517399e+00   1.998279e+01
  -2.314794e+01  -1.551090e+01
  -6.103135e+01  -8.423543e+01
  -4.412784e+01  -1.050800e+02
   4.842175e+01  -4.575497e+01
   1.389587e+02   3.184408e+01
   1.276036e+02   6.427046e+01
   1.615770e+01   5.072830e+01
  -8.492487e+01   2.744202e+01
  -8.510203e+01   9.871508e+00
  -1.242525e+01  -9.842540e+00
   3.549655e+01  -2.448054e+01
   1.347527e+01  -1.614350e+01
  -1.986649e+01   3.398049e+00
   5.869919e+00   5.863475e+00
   7.374812e+01  -2.922443e+00
   9.299167e+01   1.933754e+01
   1.488445e+01   8.285562e+01
  -1.101318e+02   1.227550e+02
  -1.818598e+02   6.977312e+01
  -1.463418e+02  -5.830736e+01
  -3.627586e+01  -1.614881e+02
   6.997171e+01  -1.555018e+02
   1.110434e+02  -6.698035e+01
   8.121878e+01   1.821426e+01
   2.708308e+01   3.618824e+01
  -1.193057e+00   9.820910e+00
   1.078041e+01   3.403342e+00
   3.408302e+01   4.355140e+01
   2.473601e+01   8.782295e+01
  -2.673539e+01   7.249613e+01
  -8.274532e+01  -1.349879e+01
  -8.312790e+01  -1.033902e+02
  -1.128204e+01  -1.116818e+02
   8.073392e+01  -2.975909e+01
   1.078272e+02   6.788293e+01
   3.804117e+01   1.010400e+02
  -6.413073e+01   6.070930e+01
  -1.002918e+02  -5.998578e+00
  -4.211236e+01  -5.008757e+01
   3.112453e+01  -5.544083e+01
   3.235089e+01  -2.908172e+01
  -3.111171e+01   3.393390e+00
  -6.688456e+01   1.007233e+01
  -1.636712e+01  -2.516514e+01
   7.400387e+01  -6.885802e+01
   1.110650e+02  -6.262173e+01
   6.477854e+01   1.050454e+01
  -1.102475e+01   8.369779e+01
  -5.047204e+01   8.063546e+01
  -3.904736e+01   6.199933e+00
  -4.458810e+00  -5.557129e+01
   2.450334e+01  -4.516680e+01
   3.827981e+01   1.435764e+01
   2.831115e+01   5.274400e+01
  -2.715207e+00   3.522441e+01
  -3.390433e+01  -5.826852e+00
  -3.986464e+01  -2.042705e+01
  -1.956892e+01  -1.683148e+00
   2.347519e+00   1.520812e+01
   4.599428e+00  -7.842539e-01
   1.572359e+00  -3.697821e+01
   1.157601e+01  -4.938981e+01
   3.293026e+01  -1.287823e+01
   3.507970e+01   4.249789e+01
   3.070041e+00   6.141860e+01
  -4.265528e+01   2.340639e+01
  -5.858212e+01  -3.485893e+01
  -1.786084e+01  -5.991667e+01
   5.283630e+01  -3.641725e+01
   8.888312e+01   9.854347e+00
   5.054803e+01   4.099563e+01
  -2.616563e+01   4.307390e+01
  -6.243188e+01   2.573940e+01
  -2.407366e+01   4.802743e+00
   3.599463e+01  -1.705925e+00
   3.755099e+01   1.137928e+01
  -2.665486e+01   3.256417e+01
  -8.559663e+01   2.472105e+01
