
 $NMID
 id='ANONYMOUS ', fmtdat='(2E16.6)'
 volume=1.0
 tramp=1.0
 $END
   4.399544e+03   8.788199e+01
   2.562606e+03   2.635540e+03
  -6.839051e+02   2.753612e+03
  -2.070511e+03   9.549671e+02
  -1.023797e+03  -5.320301e+02
   5.583626e+02  -5.591198e+02
   8.644603e+02   4.177475e+02
   2.330165e+01   1.078131e+03
  -8.507410e+02   8.215126e+02
  -1.003148e+03  -8.715044e+01
  -4.936243e+02  -8.554562e+02
   2.524155e+02  -9.201498e+02
   6.489809e+02  -1.087528e+02
   3.516815e+02   7.480114e+02
  -3.203428e+02   7.790708e+02
  -6.191555e+02  -1.447856e+01
  -2.855120e+02  -7.488960e+02
   3.454352e+02  -7.199557e+02
   6.419076e+02  -1.137605e+02
   4.414425e+02   3.798002e+02
   2.352340e+01   4.777741e+02
  -2.618434e+02   2.680928e+02
  -2.080229e+02   5.542148e+00
   1.452519e+02  -5.540369e+01
   4.179190e+02   1.831041e+02
   1.479082e+02   4.727538e+02
  -5.257162e+02   3.886072e+02
  -8.595317e+02  -1.384216e+02
  -3.952477e+02  -5.785335e+02
   4.184905e+02  -4.587319e+02
   7.443392e+02   8.113310e+01
   3.220916e+02   5.238882e+02
  -3.271488e+02   5.305796e+02
  -6.116338e+02   1.761785e+02
  -4.354881e+02  -2.633170e+02
  -6.003609e+01  -4.941942e+02
   2.020809e+02  -2.859842e+02
   1.449647e+02   2.099000e+02
  -2.010511e+02   3.759207e+02
  -4.332575e+02  -5.545153e+01
  -1.872069e+02  -7.047017e+02
   3.681523e+02  -6.958925e+02
   6.078249e+02   1.107958e+01
   2.342754e+02   5.598189e+02
  -3.126506e+02   3.169790e+02
  -3.777955e+02  -3.394075e+02
   9.644305e+01  -5.651699e+02
   5.815897e+02  -1.243030e+02
   6.015219e+02   4.518820e+02
   1.473931e+02   6.316612e+02
  -4.199248e+02   3.481975e+02
  -6.627158e+02  -1.098793e+02
  -3.798882e+02  -4.130112e+02
   1.636438e+02  -3.644216e+02
   4.552752e+02  -5.019805e+01
   2.512324e+02   1.865921e+02
  -1.121175e+02   9.547069e+01
  -1.391439e+02  -1.477521e+02
   1.743549e+02  -1.778250e+02
   3.535564e+02   8.293495e+01
   1.460397e+02   3.111664e+02
  -2.349798e+02   2.863907e+02
  -3.818727e+02   8.554340e+01
  -2.356489e+02  -1.233293e+02
   3.963401e+01  -2.880745e+02
   2.802019e+02  -3.567806e+02
   3.904267e+02  -1.934962e+02
   3.046697e+02   1.767578e+02
   6.406050e+01   4.560874e+02
  -1.227714e+02   3.876865e+02
  -1.184332e+02   1.291538e+02
  -3.678254e+01   1.245121e+01
  -7.543686e+01   9.538255e+01
  -2.266685e+02   1.106650e+02
  -2.865580e+02  -8.317539e+01
  -1.435415e+02  -2.940213e+02
   9.507201e+01  -2.593311e+02
   2.380855e+02   3.881680e+00
   1.914457e+02   2.672669e+02
  -2.982614e+01   3.081595e+02
  -2.890853e+02   1.107024e+02
  -3.765445e+02  -1.916218e+02
  -1.911856e+02  -3.768620e+02
   1.100540e+02  -3.267040e+02
   2.468436e+02  -1.325381e+02
   1.679534e+02  -1.466261e+01
   1.154040e+02  -3.945007e+01
   2.586204e+02  -5.570783e+01
   4.309187e+02   8.824011e+01
   3.449871e+02   3.260187e+02
  -2.211110e+01   4.705212e+02
  -4.031282e+02   4.272620e+02
  -5.295156e+02   1.892754e+02
  -3.494505e+02  -1.202582e+02
  -4.287975e+01  -3.104650e+02
   1.438392e+02  -2.540836e+02
   8.235125e+01  -2.662050e+01
  -1.136500e+02   1.037277e+02
  -1.949035e+02  -1.832683e+01
  -4.725091e+01  -2.034120e+02
   1.588656e+02  -1.718483e+02
   1.704913e+02   6.444909e+01
  -2.898630e+01   1.888684e+02
  -2.029961e+02   1.971981e+01
  -1.616830e+02  -2.714204e+02
   5.034275e+01  -3.771864e+02
   2.644563e+02  -2.028619e+02
   3.612886e+02   7.917561e+01
   2.907335e+02   2.788838e+02
   7.926802e+01   2.959023e+02
  -1.367464e+02   1.654194e+02
  -1.867459e+02   9.272337e+00
  -5.305480e+01  -3.789988e+01
   6.988732e+01   4.858014e+01
   2.100786e+01   1.352597e+02
  -1.370861e+02   9.713518e+01
  -1.859321e+02  -2.103384e+01
  -5.582989e+01  -7.723439e+01
   8.623971e+01  -1.096243e+01
   5.447909e+01   8.388939e+01
  -1.381679e+02   9.143238e+01
  -3.048305e+02  -1.220643e+01
  -2.759291e+02  -1.646232e+02
  -5.054510e+01  -2.821370e+02
   2.120189e+02  -2.726634e+02
   3.055590e+02  -1.209032e+02
   1.766977e+02   6.496237e+01
  -2.926304e+01   1.166109e+02
  -9.325931e+01   4.732857e+00
   4.062869e+01  -1.071901e+02
   2.117297e+02  -5.661792e+01
   2.213915e+02   1.178785e+02
   6.480094e+01   2.251527e+02
  -1.065770e+02   1.658657e+02
  -1.528683e+02   2.416383e+01
  -6.874391e+01  -4.775142e+01
   3.371298e+01   1.667111e+00
   3.536716e+01   9.690519e+01
  -8.657503e+01   1.243174e+02
  -2.176790e+02   2.485047e+01
  -2.022400e+02  -1.415406e+02
  -1.592832e+01  -2.374062e+02
   1.807620e+02  -1.728976e+02
   2.069649e+02  -5.116887e-01
   6.812931e+01   1.237230e+02
  -7.353940e+01   1.159455e+02
  -8.987214e+01   2.751494e+01
  -1.684436e+01  -3.025483e+01
   2.752189e+01  -1.752105e+01
  -7.814512e+00   1.375018e+01
  -7.912101e+01  -6.017123e+00
  -9.827488e+01  -9.093665e+01
  -1.283398e+01  -1.744640e+02
   1.419178e+02  -1.605684e+02
   2.522535e+02  -1.863553e+01
   2.108790e+02   1.666199e+02
   3.868804e+01   2.530557e+02
  -1.193207e+02   1.763727e+02
  -1.474149e+02   2.616590e+01
  -7.587640e+01  -5.971280e+01
  -2.977276e+01  -3.832641e+01
  -5.542048e+01   1.244768e+01
  -8.547018e+01   4.456893e+00
  -4.757768e+01  -5.723329e+01
   4.377307e+01  -9.719415e+01
   1.128239e+02  -5.906934e+01
   9.523409e+01   4.219811e+01
  -1.762100e+01   1.224397e+02
  -1.588033e+02   8.822150e+01
  -2.118419e+02  -6.661568e+01
  -9.598552e+01  -2.243724e+02
   1.277355e+02  -2.399363e+02
   2.939742e+02  -8.816203e+01
   2.728479e+02   1.061366e+02
   1.088646e+02   1.954045e+02
  -4.993920e+01   1.581159e+02
  -1.037706e+02   8.679787e+01
  -8.362823e+01   7.015816e+01
  -7.200351e+01   9.394113e+01
  -1.021801e+02   7.752164e+01
  -1.407348e+02  -2.636576e+01
  -1.231357e+02  -1.700233e+02
  -2.169936e+01  -2.458916e+02
   1.159827e+02  -1.808635e+02
   1.900116e+02  -1.207396e+01
   1.406477e+02   1.387603e+02
   1.239308e+01   1.730250e+02
  -8.015711e+01   9.297150e+01
  -6.895805e+01  -7.230182e+00
  -2.680769e+00  -4.978740e+01
   1.880088e+01  -3.646810e+01
  -3.361385e+01  -1.778587e+01
  -8.292932e+01  -2.621644e+01
  -4.654306e+01  -4.492457e+01
   7.200946e+01  -4.026548e+01
   1.738801e+02   3.492242e+00
   1.487117e+02   6.546103e+01
   5.888509e+00   1.014834e+02
  -1.356001e+02   7.696028e+01
  -1.546443e+02   6.010101e+00
  -4.800669e+01  -5.204615e+01
   6.518082e+01  -4.302285e+01
   7.931917e+01   2.281542e+01
   9.689855e+00   7.617001e+01
  -5.865384e+01   6.145906e+01
  -6.926254e+01  -4.953133e+00
  -4.915128e+01  -5.419081e+01
  -4.311379e+01  -4.555422e+01
  -6.032659e+01  -2.435668e+00
  -6.971134e+01  -2.980573e+00
  -4.004268e+01  -7.480617e+01
   3.546925e+01  -1.555232e+02
   1.305101e+02  -1.476060e+02
   1.833166e+02  -3.003169e+01
   1.324222e+02   1.031255e+02
   1.998008e+00   1.403109e+02
  -9.795498e+01   6.545348e+01
  -6.547206e+01  -1.873096e+01
   6.334804e+01  -2.186415e+01
   1.446190e+02   5.166782e+01
   7.787482e+01   1.193737e+02
  -8.856107e+01   1.194964e+02
  -2.049941e+02   4.680428e+01
  -1.720266e+02  -4.474109e+01
  -3.618250e+01  -9.381513e+01
   6.749138e+01  -6.933618e+01
   5.265775e+01  -2.687181e+00
  -4.371297e+01   2.909895e+01
  -9.840618e+01  -2.640730e+01
  -3.365888e+01  -1.291505e+02
   9.998343e+01  -1.648838e+02
   1.798239e+02  -6.395510e+01
   1.319633e+02   1.104025e+02
   5.290063e+00   2.113623e+02
  -9.553263e+01   1.490674e+02
  -1.113077e+02  -1.370123e+01
  -5.752331e+01  -1.278524e+02
   9.709358e+00  -1.107412e+02
   5.144343e+01  -1.845421e+01
   5.196289e+01   3.411807e+01
   2.405560e+01   9.726281e+00
   6.104725e+00  -2.035860e+01
   2.708429e+01   1.882210e+01
   5.851491e+01   9.740688e+01
   3.543544e+01   1.190310e+02
  -5.885763e+01   4.639100e+01
  -1.461645e+02  -4.563764e+01
  -1.312871e+02  -8.106837e+01
  -1.483687e+01  -5.625105e+01
   9.127890e+01  -2.247905e+01
   9.193836e+01  -2.463385e+00
   1.275441e+01   1.092587e+01
  -4.020712e+01   2.016407e+01
  -1.775685e+01   1.394595e+01
   2.081660e+01  -1.985031e+00
  -4.324735e+00  -6.449171e+00
  -7.438306e+01  -2.459968e+00
  -9.831098e+01  -2.816514e+01
  -1.369861e+01  -9.079922e+01
   1.274067e+02  -1.221056e+02
   2.035049e+02  -5.660959e+01
   1.521444e+02   7.705938e+01
   2.179838e+01   1.748641e+02
  -9.320732e+01   1.583762e+02
  -1.242309e+02   5.837262e+01
  -8.338681e+01  -2.772672e+01
  -2.450921e+01  -4.096936e+01
   7.021837e-01  -1.048115e+01
  -1.311774e+01  -4.675775e+00
  -3.359248e+01  -4.975058e+01
  -1.919558e+01  -9.829576e+01
   3.591546e+01  -7.720648e+01
   8.746263e+01   2.206003e+01
   7.867452e+01   1.176630e+02
   3.070207e-01   1.196649e+02
  -8.945276e+01   2.377953e+01
  -1.093416e+02  -8.166008e+01
  -3.126105e+01  -1.120679e+02
   7.373329e+01  -6.066827e+01
   1.067469e+02   1.482445e+01
   4.163311e+01   5.824386e+01
  -3.709613e+01   5.646350e+01
  -3.724289e+01   2.651328e+01
   3.358291e+01  -3.913217e+00
   7.481846e+01  -5.630691e+00
   1.811663e+01   3.035202e+01
  -8.257131e+01   6.963920e+01
  -1.242214e+02   5.470874e+01
  -6.880800e+01  -1.923283e+01
   2.017169e+01  -8.797792e+01
   6.190055e+01  -7.975255e+01
   4.281964e+01  -5.323833e+00
  -2.612221e-01   5.707003e+01
  -2.970216e+01   4.446992e+01
  -3.778364e+01  -1.948052e+01
  -2.389785e+01  -5.915869e+01
   5.694525e+00  -3.667701e+01
   3.471861e+01   1.085683e+01
   4.045439e+01   2.634511e+01
   2.109169e+01   2.920176e+00
  -1.122933e+00  -1.884154e+01
  -5.139906e+00  -2.186902e+00
  -2.656831e+00   3.745514e+01
  -1.290907e+01   5.086488e+01
  -3.447503e+01   1.219658e+01
  -3.671920e+01  -4.726298e+01
  -6.325986e-01  -6.514118e+01
   4.904943e+01  -2.116232e+01
   6.319363e+01   4.267670e+01
   1.490314e+01   6.765110e+01
  -6.217729e+01   3.533389e+01
  -9.699065e+01  -1.859753e+01
  -5.065934e+01  -4.932386e+01
   3.378283e+01  -4.508554e+01
   7.103996e+01  -2.170542e+01
   2.707704e+01  -2.668869e+00
  -3.727384e+01  -4.693346e-02
  -3.862917e+01  -1.543334e+01
   3.134277e+01  -3.301932e+01
   9.431462e+01  -1.865783e+01
