
 $NMID
 id='ANONYMOUS ', fmtdat='(2E16.6)'
 volume=1.0
 tramp=1.0
 $END
   2.968255e+03   3.001205e+02
   1.562910e+03   1.922857e+03
  -6.568259e+02   1.749038e+03
  -1.454841e+03   4.843194e+02
  -5.752970e+02  -5.254969e+02
   5.025362e+02  -3.867431e+02
   6.191714e+02   3.455239e+02
  -3.781343e+01   7.522776e+02
  -5.948751e+02   5.154603e+02
  -6.325818e+02  -1.042508e+02
  -2.386734e+02  -5.653568e+02
   2.200075e+02  -5.701296e+02
   4.362342e+02  -1.415166e+01
   2.090095e+02   5.220197e+02
  -2.180148e+02   4.892016e+02
  -3.771214e+02  -5.712394e+01
  -1.381230e+02  -4.643223e+02
   2.378104e+02  -3.897276e+02
   3.771645e+02  -1.259659e+01
   2.111831e+02   2.525563e+02
  -2.059078e+01   2.867927e+02
  -1.804670e+02   1.624358e+02
  -1.491600e+02  -2.305667e+00
   7.840377e+01  -7.326669e+01
   2.784764e+02   7.122322e+01
   1.433849e+02   2.876284e+02
  -3.111771e+02   2.837485e+02
  -5.722655e+02  -6.035417e+01
  -2.894584e+02  -3.873060e+02
   2.694496e+02  -3.276780e+02
   4.999200e+02   3.736046e+01
   2.245465e+02   3.317157e+02
  -1.944392e+02   3.378696e+02
  -3.732972e+02   1.163544e+02
  -2.666454e+02  -1.571565e+02
  -3.103002e+01  -3.092924e+02
   1.401991e+02  -1.807687e+02
   1.205940e+02   1.528751e+02
  -1.416676e+02   2.876656e+02
  -3.089228e+02  -1.351795e+01
  -1.595949e+02  -4.663068e+02
   2.340403e+02  -4.670266e+02
   4.179032e+02   5.184612e+00
   1.763350e+02   3.830129e+02
  -2.097259e+02   2.241548e+02
  -2.600502e+02  -2.168295e+02
   4.396481e+01  -3.558843e+02
   3.585139e+02  -7.642494e+01
   3.733636e+02   2.731962e+02
   9.138541e+01   3.798552e+02
  -2.611296e+02   2.074664e+02
  -4.091123e+02  -7.174473e+01
  -2.256581e+02  -2.704655e+02
   1.291464e+02  -2.370125e+02
   3.084645e+02  -1.434633e+01
   1.513950e+02   1.540643e+02
  -9.557218e+01   7.160215e+01
  -9.875218e+01  -1.133279e+02
   1.228277e+02  -1.297294e+02
   2.336491e+02   5.787641e+01
   8.018025e+01   2.028954e+02
  -1.497605e+02   1.596574e+02
  -2.002859e+02   2.401185e+01
  -9.615488e+01  -4.746950e+01
   2.993364e+01  -1.072206e+02
   1.310078e+02  -1.844068e+02
   2.030361e+02  -1.380593e+02
   1.807653e+02   8.256728e+01
   3.652540e+01   2.883458e+02
  -1.000486e+02   2.527577e+02
  -8.984471e+01   5.636439e+01
  -9.395939e+00  -2.594403e+01
  -1.753359e+01   4.582241e+01
  -1.174559e+02   8.335842e+01
  -1.711599e+02  -3.088581e+01
  -9.917262e+01  -1.713444e+02
   4.671237e+01  -1.608381e+02
   1.365190e+02  -7.937151e+00
   1.191350e+02   1.499315e+02
  -3.987991e+00   1.822846e+02
  -1.631578e+02   7.402828e+01
  -2.242677e+02  -1.109970e+02
  -1.079510e+02  -2.294376e+02
   7.818256e+01  -1.942170e+02
   1.565860e+02  -6.262788e+01
   9.605643e+01   1.467225e+01
   5.732704e+01  -8.738587e+00
   1.394880e+02  -3.072981e+01
   2.462332e+02   4.559076e+01
   1.948777e+02   1.841687e+02
  -2.317299e+01   2.657429e+02
  -2.342945e+02   2.422026e+02
  -3.055347e+02   1.168200e+02
  -2.082666e+02  -5.783547e+01
  -3.325878e+01  -1.871683e+02
   8.887776e+01  -1.658302e+02
   6.091370e+01  -1.719366e+01
  -6.856670e+01   7.319653e+01
  -1.315542e+02   1.047412e+00
  -3.378085e+01  -1.298409e+02
   1.084253e+02  -1.154592e+02
   1.233195e+02   3.949337e+01
  -1.024585e+01   1.265659e+02
  -1.238742e+02   2.145663e+01
  -9.502512e+01  -1.570341e+02
   3.211362e+01  -2.114768e+02
   1.443347e+02  -1.049633e+02
   1.896802e+02   4.941070e+01
   1.613473e+02   1.504348e+02
   5.678610e+01   1.595767e+02
  -7.169630e+01   9.725752e+01
  -1.151964e+02   6.571787e+00
  -3.970538e+01  -2.709937e+01
   4.338564e+01   2.257831e+01
   2.054625e+01   7.805696e+01
  -7.828445e+01   6.339449e+01
  -1.133005e+02  -9.025511e+00
  -3.780345e+01  -4.532943e+01
   4.915120e+01  -1.173166e+01
   3.238691e+01   3.909583e+01
  -7.566594e+01   4.388784e+01
  -1.680642e+02  -7.458206e+00
  -1.573341e+02  -8.559405e+01
  -3.467528e+01  -1.513340e+02
   1.179589e+02  -1.592320e+02
   1.796540e+02  -7.881898e+01
   1.077145e+02   3.101038e+01
  -1.732198e+01   7.005573e+01
  -5.903980e+01   7.185991e+00
   2.181984e+01  -6.137359e+01
   1.251176e+02  -3.522763e+01
   1.344301e+02   6.456150e+01
   4.262698e+01   1.301472e+02
  -5.977625e+01   9.918849e+01
  -9.312434e+01   2.225200e+01
  -4.925338e+01  -2.222455e+01
   1.103780e+01  -4.299513e+00
   2.005627e+01   4.362682e+01
  -4.246064e+01   6.249260e+01
  -1.188797e+02   1.356165e+01
  -1.152200e+02  -7.683885e+01
  -9.572022e+00  -1.344721e+02
   1.055209e+02  -1.006891e+02
   1.227378e+02  -2.277752e+00
   4.111981e+01   7.345152e+01
  -4.350136e+01   7.254028e+01
  -5.416731e+01   2.171739e+01
  -1.425719e+01  -1.438098e+01
   8.913454e+00  -1.384396e+01
  -7.390992e+00  -2.030311e+00
  -3.850005e+01  -1.115489e+01
  -4.632364e+01  -4.988829e+01
  -3.149649e+00  -9.051502e+01
   7.661282e+01  -8.472624e+01
   1.370666e+02  -1.094110e+01
   1.155306e+02   9.152001e+01
   1.920801e+01   1.416621e+02
  -6.864324e+01   1.016553e+02
  -8.263946e+01   1.342062e+01
  -3.875882e+01  -3.743060e+01
  -1.701637e+01  -2.464003e+01
  -3.585885e+01   3.448744e+00
  -4.675471e+01  -4.539977e-01
  -1.776882e+01  -2.932971e+01
   3.157596e+01  -4.561210e+01
   5.801386e+01  -2.534738e+01
   4.232795e+01   2.174845e+01
  -1.428656e+01   5.865639e+01
  -8.445236e+01   4.244020e+01
  -1.146195e+02  -3.478132e+01
  -5.654139e+01  -1.215100e+02
   6.956569e+01  -1.349611e+02
   1.665141e+02  -5.201287e+01
   1.561723e+02   5.819382e+01
   6.301212e+01   1.087917e+02
  -2.691256e+01   9.061511e+01
  -6.247352e+01   5.290961e+01
  -5.526738e+01   4.194046e+01
  -4.667228e+01   5.246359e+01
  -5.896850e+01   3.944091e+01
  -7.512494e+01  -2.258740e+01
  -6.286583e+01  -1.016712e+02
  -9.373486e+00  -1.397605e+02
   6.380635e+01  -1.021648e+02
   1.065119e+02  -6.852488e+00
   8.096124e+01   7.823040e+01
   1.064666e+01   9.860435e+01
  -3.923876e+01   5.632018e+01
  -3.409600e+01   4.267783e+00
  -3.419113e+00  -2.204375e+01
   1.949217e+00  -2.224979e+01
  -2.679775e+01  -1.673537e+01
  -4.969247e+01  -1.681921e+01
  -2.507685e+01  -2.111711e+01
   4.014969e+01  -1.632298e+01
   9.389372e+01   2.376897e+00
   8.342465e+01   2.991502e+01
   6.999407e+00   4.820845e+01
  -7.456921e+01   3.980231e+01
  -8.824087e+01   7.178878e+00
  -2.657610e+01  -2.131570e+01
   3.948383e+01  -1.929453e+01
   4.427463e+01   1.335422e+01
  -1.516432e+00   4.017701e+01
  -3.794679e+01   3.052455e+01
  -3.554402e+01  -5.236133e+00
  -2.050875e+01  -2.988095e+01
  -2.476868e+01  -2.422948e+01
  -4.015819e+01  -5.018456e-01
  -4.162078e+01  -3.270683e+00
  -1.449611e+01  -4.350561e+01
   2.940622e+01  -8.556375e+01
   7.411701e+01  -7.728703e+01
   9.660230e+01  -1.400508e+01
   6.733977e+01   5.637912e+01
  -6.523496e-01   7.296929e+01
  -5.263139e+01   3.332778e+01
  -3.392860e+01  -9.844434e+00
   3.832629e+01  -1.003112e+01
   8.605735e+01   2.918654e+01
   4.599643e+01   6.658063e+01
  -5.058135e+01   6.737920e+01
  -1.179719e+02   2.979538e+01
  -1.010336e+02  -2.242525e+01
  -2.233414e+01  -5.421622e+01
   3.884906e+01  -4.401317e+01
   3.152645e+01  -5.938416e+00
  -2.370510e+01   1.380080e+01
  -5.273331e+01  -1.627191e+01
  -1.407876e+01  -7.229353e+01
   6.163657e+01  -9.182016e+01
   1.047113e+02  -3.233544e+01
   7.237783e+01   6.507837e+01
   6.036365e-01   1.218875e+02
  -5.533439e+01   8.637832e+01
  -6.319762e+01  -6.027189e+00
  -3.411291e+01  -7.317975e+01
   2.123900e+00  -6.421621e+01
   2.698023e+01  -1.206438e+01
   3.221703e+01   1.898796e+01
   1.854977e+01   6.272476e+00
   1.613758e+00  -1.159530e+01
   9.040016e+00   1.093277e+01
   2.961678e+01   5.559152e+01
   2.504650e+01   6.638697e+01
  -2.743312e+01   2.342961e+01
  -8.213015e+01  -3.015069e+01
  -7.710103e+01  -4.592955e+01
  -8.070446e+00  -2.814633e+01
   5.455182e+01  -8.633238e+00
   5.342256e+01  -1.974173e+00
   3.415834e+00   2.127997e+00
  -2.512419e+01   1.138418e+01
  -7.244949e+00   1.094071e+01
   1.539669e+01  -2.464182e-01
  -4.390640e+00  -6.800356e+00
  -4.768868e+01  -7.172412e+00
  -5.566763e+01  -1.897416e+01
   1.744087e+00  -4.854592e+01
   8.160415e+01  -6.224627e+01
   1.149037e+02  -2.700609e+01
   7.885354e+01   4.793933e+01
   6.279290e+00   9.994857e+01
  -5.447795e+01   8.721928e+01
  -6.967426e+01   2.959414e+01
  -4.691015e+01  -1.501960e+01
  -1.331051e+01  -2.119857e+01
   2.765252e+00  -3.615752e+00
  -4.970339e+00  -3.283614e+00
  -1.941579e+01  -2.897186e+01
  -1.213320e+01  -5.524194e+01
   1.918909e+01  -4.151090e+01
   4.825093e+01   1.581780e+01
   4.217849e+01   6.986443e+01
  -2.958429e+00   6.754527e+01
  -5.186300e+01   9.237373e+00
  -5.844191e+01  -5.208532e+01
  -1.341129e+01  -6.439388e+01
   4.283931e+01  -2.912936e+01
   5.728083e+01   1.245862e+01
   2.087571e+01   3.094970e+01
  -2.056397e+01   2.871210e+01
  -1.720260e+01   1.704211e+01
   2.301154e+01   3.246203e+00
   4.266559e+01  -1.193739e+00
   6.755020e+00   1.449156e+01
  -5.229321e+01   3.678606e+01
  -7.343012e+01   3.377280e+01
  -3.643780e+01  -7.834892e+00
   1.447455e+01  -4.861885e+01
   3.481111e+01  -4.619987e+01
   2.060317e+01  -3.264365e+00
  -2.437715e+00   3.348493e+01
  -1.624212e+01   2.379331e+01
  -1.978010e+01  -1.309594e+01
  -1.380692e+01  -3.178883e+01
   1.695171e+00  -1.698690e+01
   1.818570e+01   7.529997e+00
   2.196102e+01   1.210263e+01
   1.268486e+01  -1.326679e+00
   1.146617e+00  -9.171475e+00
  -3.597549e+00   3.426131e+00
  -8.203233e+00   2.178627e+01
  -1.362114e+01   2.322521e+01
  -1.947457e+01   5.333944e-01
  -1.379429e+01  -3.035828e+01
   8.254675e+00  -3.545918e+01
   2.897700e+01  -7.974299e+00
   3.066469e+01   2.810709e+01
   4.481860e+00   3.831631e+01
  -3.341395e+01   1.741380e+01
  -5.143754e+01  -1.271418e+01
  -2.681405e+01  -2.747787e+01
   1.876967e+01  -2.183083e+01
   3.904076e+01  -8.873655e+00
   1.330842e+01  -1.821671e+00
  -2.458978e+01  -2.847303e+00
  -2.358944e+01  -1.244624e+01
   2.005165e+01  -1.832390e+01
   5.698744e+01  -8.323311e+00
