
 $NMID
 id='ANONYMOUS ', fmtdat='(2E16.6)'
 volume=1.0
 tramp=1.0
 $END
  -4.888468e+03  -7.269089e+01
  -2.668203e+03  -2.986113e+03
   9.774523e+02  -2.910412e+03
   2.331764e+03  -7.412244e+02
   9.152912e+02   8.557565e+02
  -8.472188e+02   6.468431e+02
  -9.948887e+02  -5.625431e+02
   8.264156e+01  -1.218800e+03
   1.001276e+03  -8.160752e+02
   1.041212e+03   1.944317e+02
   4.435309e+02   9.651138e+02
  -3.465921e+02   9.458964e+02
  -7.287620e+02   5.658558e+01
  -3.833995e+02  -8.302716e+02
   3.536637e+02  -7.947780e+02
   6.358590e+02   4.413813e+01
   2.387895e+02   7.471715e+02
  -3.978973e+02   6.320174e+02
  -6.084067e+02   2.964676e+01
  -3.664148e+02  -4.053646e+02
   2.051301e+01  -4.539893e+02
   2.770458e+02  -2.591068e+02
   2.518678e+02   8.115500e+00
  -1.066941e+02   1.323040e+02
  -4.492056e+02  -9.155747e+01
  -2.301410e+02  -4.714746e+02
   4.991493e+02  -4.650303e+02
   9.336011e+02   7.954108e+01
   4.605134e+02   6.208384e+02
  -4.428070e+02   5.408270e+02
  -8.144355e+02  -4.162463e+01
  -3.747353e+02  -5.388945e+02
   3.136210e+02  -5.655867e+02
   6.206277e+02  -2.058948e+02
   4.483769e+02   2.699031e+02
   5.665667e+01   5.297760e+02
  -2.539831e+02   3.011609e+02
  -2.195453e+02  -2.645413e+02
   1.800109e+02  -4.772193e+02
   5.265915e+02   7.687226e+00
   2.824353e+02   7.627602e+02
  -3.804107e+02   7.742467e+02
  -6.975388e+02  -2.524146e+01
  -2.745933e+02  -6.467547e+02
   3.546546e+02  -3.622957e+02
   4.438525e+02   3.633520e+02
  -7.808392e+01   6.056446e+02
  -6.077877e+02   1.478860e+02
  -6.353260e+02  -4.433218e+02
  -1.573785e+02  -6.348859e+02
   4.222856e+02  -3.707248e+02
   6.741727e+02   8.932009e+01
   3.819430e+02   4.277765e+02
  -1.908525e+02   3.981886e+02
  -4.931725e+02   3.424672e+01
  -2.382966e+02  -2.451505e+02
   1.612739e+02  -1.203411e+02
   1.682342e+02   1.922484e+02
  -1.894963e+02   2.150994e+02
  -3.746255e+02  -8.085030e+01
  -1.402762e+02  -3.270359e+02
   2.323805e+02  -2.566501e+02
   3.325815e+02  -5.924273e+01
   1.842627e+02   8.330751e+01
  -1.925327e+01   2.085984e+02
  -2.141872e+02   3.267981e+02
  -3.436537e+02   2.294704e+02
  -3.187003e+02  -1.490945e+02
  -8.277196e+01  -4.733635e+02
   1.489023e+02  -4.068788e+02
   1.489118e+02  -9.817591e+01
   1.862656e+01   3.913040e+01
   2.221023e+01  -8.719562e+01
   1.871622e+02  -1.496211e+02
   2.975174e+02   3.878956e+01
   1.799039e+02   2.833006e+02
  -6.754474e+01   2.819261e+02
  -2.435866e+02   2.559020e+01
  -2.209710e+02  -2.495060e+02
   1.481280e+00  -3.200427e+02
   2.832457e+02  -1.342123e+02
   3.862290e+02   1.784496e+02
   1.928684e+02   3.818433e+02
  -1.213899e+02   3.235233e+02
  -2.520948e+02   1.066281e+02
  -1.534839e+02  -1.627762e+01
  -8.976052e+01   3.128773e+01
  -2.291788e+02   7.263545e+01
  -4.056030e+02  -5.397049e+01
  -3.365796e+02  -2.915901e+02
  -2.100646e+00  -4.454135e+02
   3.672031e+02  -4.209260e+02
   5.050524e+02  -2.042174e+02
   3.576650e+02   1.028031e+02
   6.187894e+01   3.180649e+02
  -1.498046e+02   2.694839e+02
  -1.034965e+02   2.276369e+01
   1.138350e+02  -1.310878e+02
   2.217224e+02   5.807058e+00
   5.674745e+01   2.239353e+02
  -1.871470e+02   1.920518e+02
  -2.014796e+02  -7.242476e+01
   1.923372e+01  -2.173792e+02
   2.110093e+02  -3.851037e+01
   1.675852e+02   2.565623e+02
  -3.613272e+01   3.572047e+02
  -2.323348e+02   1.929076e+02
  -3.245403e+02  -6.369499e+01
  -2.774222e+02  -2.402886e+02
  -9.580395e+01  -2.713941e+02
   1.193410e+02  -1.668578e+02
   1.906447e+02  -1.686645e+01
   6.227895e+01   4.578480e+01
  -7.931824e+01  -3.485204e+01
  -3.836654e+01  -1.350543e+02
   1.300562e+02  -1.096173e+02
   1.925218e+02   1.395711e+01
   6.479473e+01   8.236055e+01
  -8.323283e+01   2.563151e+01
  -6.255973e+01  -6.973470e+01
   1.158067e+02  -8.845959e+01
   2.740165e+02  -5.962332e+00
   2.675217e+02   1.325037e+02
   6.887437e+01   2.569176e+02
  -1.847424e+02   2.706743e+02
  -2.997585e+02   1.316382e+02
  -1.844799e+02  -6.288389e+01
   2.624039e+01  -1.256542e+02
   1.043170e+02  -1.091608e+01
  -2.550700e+01   1.122484e+02
  -2.028260e+02   6.765687e+01
  -2.217796e+02  -1.060276e+02
  -7.043688e+01  -2.193490e+02
   1.015396e+02  -1.666153e+02
   1.534733e+02  -3.103697e+01
   7.848179e+01   4.648998e+01
  -2.498754e+01   1.323787e+01
  -4.269204e+01  -7.490934e+01
   6.372865e+01  -1.169052e+02
   1.972521e+02  -3.796634e+01
   1.980566e+02   1.235280e+02
   2.350732e+01   2.289645e+02
  -1.751497e+02   1.738784e+02
  -2.082252e+02   7.551063e-01
  -6.976472e+01  -1.284747e+02
   7.291287e+01  -1.212448e+02
   9.108440e+01  -3.219379e+01
   2.344313e+01   2.804092e+01
  -1.906372e+01   2.148555e+01
   6.865551e+00  -3.941532e+00
   6.489400e+01   9.401170e+00
   8.653819e+01   7.725143e+01
   1.881859e+01   1.544888e+02
  -1.219706e+02   1.559416e+02
  -2.365470e+02   3.203816e+01
  -2.087118e+02  -1.503966e+02
  -4.212859e+01  -2.462001e+02
   1.179920e+02  -1.756164e+02
   1.448407e+02  -2.314973e+01
   7.097331e+01   6.374935e+01
   2.453395e+01   4.078188e+01
   4.922285e+01  -1.101093e+01
   7.614270e+01  -8.502005e+00
   3.920451e+01   4.548935e+01
  -4.026002e+01   8.307357e+01
  -9.487223e+01   5.593232e+01
  -8.164557e+01  -2.924543e+01
   9.008520e+00  -1.047457e+02
   1.326276e+02  -8.828706e+01
   1.950127e+02   4.616223e+01
   1.039405e+02   2.028301e+02
  -1.040831e+02   2.352057e+02
  -2.701970e+02   1.009257e+02
  -2.632922e+02  -8.948184e+01
  -1.140798e+02  -1.825225e+02
   4.045718e+01  -1.520732e+02
   9.939365e+01  -8.353728e+01
   8.287865e+01  -6.776481e+01
   6.860519e+01  -9.063651e+01
   9.387123e+01  -7.386882e+01
   1.298785e+02   2.477457e+01
   1.202627e+02   1.585149e+02
   2.987792e+01   2.298350e+02
  -1.022038e+02   1.756870e+02
  -1.809018e+02   2.107262e+01
  -1.408798e+02  -1.232487e+02
  -2.010280e+01  -1.635096e+02
   6.617825e+01  -9.733585e+01
   6.186902e+01  -6.084827e+00
   8.855471e+00   4.080411e+01
  -6.042354e+00   3.719460e+01
   3.796828e+01   2.071328e+01
   7.823097e+01   2.252913e+01
   4.307019e+01   3.714515e+01
  -6.160714e+01   3.569149e+01
  -1.534445e+02   4.329281e+00
  -1.411476e+02  -4.842419e+01
  -1.820429e+01  -8.894107e+01
   1.167933e+02  -7.551374e+01
   1.439746e+02  -1.416845e+01
   5.166432e+01   4.065650e+01
  -5.697423e+01   3.627837e+01
  -7.388911e+01  -1.877838e+01
  -7.068489e+00  -6.649107e+01
   5.491196e+01  -5.561013e+01
   6.185789e+01   3.988165e+00
   4.246687e+01   4.957975e+01
   3.934837e+01   4.093736e+01
   5.941379e+01   1.673316e+00
   6.495186e+01   6.038800e-01
   3.338006e+01   6.526441e+01
  -3.288916e+01   1.403824e+02
  -1.125792e+02   1.382907e+02
  -1.595823e+02   3.311915e+01
  -1.197458e+02  -8.865461e+01
  -6.802648e+00  -1.234028e+02
   8.346303e+01  -5.847267e+01
   5.868503e+01   1.701511e+01
  -5.880814e+01   2.106895e+01
  -1.376809e+02  -4.278131e+01
  -7.775373e+01  -1.086577e+02
   7.786177e+01  -1.143263e+02
   1.901788e+02  -5.327664e+01
   1.657550e+02   3.423661e+01
   3.903919e+01   8.862909e+01
  -6.299414e+01   7.089564e+01
  -5.156159e+01   6.699920e+00
   3.796655e+01  -2.641893e+01
   8.928695e+01   2.432134e+01
   2.810973e+01   1.209450e+02
  -9.796406e+01   1.525778e+02
  -1.704516e+02   5.477282e+01
  -1.238257e+02  -1.069820e+02
  -4.706782e+00  -2.017552e+02
   8.883423e+01  -1.439693e+02
   1.057075e+02   8.134700e+00
   6.185170e+01   1.194932e+02
  -2.635495e-02   1.085780e+02
  -4.533833e+01   2.236092e+01
  -5.409729e+01  -3.098167e+01
  -2.812828e+01  -1.011577e+01
  -3.769298e+00   2.208751e+01
  -1.990068e+01  -1.198065e+01
  -5.574906e+01  -8.883602e+01
  -4.180178e+01  -1.139508e+02
   4.676470e+01  -4.747517e+01
   1.396624e+02   4.120327e+01
   1.303956e+02   7.362895e+01
   1.617239e+01   4.959697e+01
  -9.049725e+01   2.107174e+01
  -8.963460e+01   7.289009e+00
  -9.925193e+00  -5.878793e+00
   4.007133e+01  -2.195439e+01
   1.512047e+01  -1.851769e+01
  -2.224990e+01   1.036331e+00
   5.693824e+00   1.007739e+01
   7.326497e+01   5.638835e+00
   9.054931e+01   2.510967e+01
   4.692771e+00   8.013410e+01
  -1.206950e+02   1.110867e+02
  -1.851000e+02   5.359957e+01
  -1.369728e+02  -7.272815e+01
  -1.973958e+01  -1.643444e+02
   8.139084e+01  -1.468927e+02
   1.136872e+02  -5.365192e+01
   7.975403e+01   2.489270e+01
   2.390770e+01   3.554538e+01
  -3.815242e+00   7.506775e+00
   9.729761e+00   2.527986e+00
   3.333891e+01   4.568297e+01
   2.307767e+01   9.063171e+01
  -3.104140e+01   7.271501e+01
  -8.267704e+01  -2.001306e+01
  -7.623999e+01  -1.127606e+02
  -6.812758e-01  -1.133447e+02
   8.504005e+01  -2.100518e+01
   1.018999e+02   7.915394e+01
   2.858843e+01   1.035433e+02
  -6.744457e+01   5.197902e+01
  -9.501090e+01  -1.392547e+01
  -3.732038e+01  -4.863215e+01
   3.104902e+01  -4.926089e+01
   2.919509e+01  -2.721522e+01
  -3.413285e+01  -2.415064e-01
  -6.914143e+01   5.030569e+00
  -1.477856e+01  -2.601436e+01
   8.012295e+01  -6.620112e+01
   1.173778e+02  -5.565445e+01
   6.346458e+01   1.374904e+01
  -1.657248e+01   8.266231e+01
  -5.225707e+01   7.703153e+01
  -3.525122e+01   4.003533e+00
   9.295332e-01  -5.453853e+01
   2.683579e+01  -3.839757e+01
   3.457619e+01   2.226604e+01
   2.311323e+01   5.301803e+01
  -4.522069e+00   2.923742e+01
  -3.240111e+01  -1.038274e+01
  -3.826452e+01  -2.055521e+01
  -2.002350e+01  -5.358866e-01
   7.586501e-01   1.241387e+01
   8.245196e+00  -6.061198e+00
   1.032324e+01  -3.641956e+01
   1.894613e+01  -4.029960e+01
   3.237109e+01  -3.139235e+00
   2.668366e+01   4.778485e+01
  -5.491800e+00   5.997695e+01
  -4.546372e+01   1.890982e+01
  -5.435932e+01  -4.071355e+01
  -1.197665e+01  -6.286560e+01
   5.421035e+01  -3.248965e+01
   8.636371e+01   1.703883e+01
   4.633483e+01   4.403914e+01
  -2.954092e+01   3.881074e+01
  -6.428729e+01   1.812540e+01
  -2.175687e+01   3.866455e+00
   3.961713e+01   4.942440e+00
   3.734869e+01   2.017204e+01
  -3.440226e+01   3.262893e+01
  -9.543478e+01   1.769774e+01
