
 $NMID
 id='ANONYMOUS ', fmtdat='(2E16.6)'
 volume=1.0
 tramp=1.0
 $END
   4.141276e+03  -6.484984e+01
   2.524653e+03   2.540539e+03
  -7.233144e+02   2.758597e+03
  -2.149754e+03   9.284796e+02
  -9.955678e+02  -6.615206e+02
   6.888601e+02  -6.030494e+02
   9.275372e+02   4.383124e+02
   5.550698e+00   1.090147e+03
  -8.190899e+02   7.890726e+02
  -9.324129e+02  -1.015729e+02
  -4.489957e+02  -8.966158e+02
   2.305621e+02  -8.960330e+02
   6.476443e+02  -1.292137e+02
   3.935210e+02   7.204783e+02
  -2.631673e+02   7.625715e+02
  -6.392819e+02  -5.627104e+00
  -2.795842e+02  -6.923363e+02
   3.194146e+02  -6.503617e+02
   5.954022e+02  -9.964095e+01
   3.986078e+02   3.597822e+02
   2.487877e+01   4.530819e+02
  -2.436174e+02   2.675466e+02
  -2.090819e+02   1.005401e+01
   1.147005e+02  -1.008878e+02
   4.278025e+02   1.135053e+02
   2.096234e+02   4.403327e+02
  -4.647222e+02   4.236030e+02
  -8.696815e+02  -6.852037e+01
  -4.478710e+02  -5.545345e+02
   3.973452e+02  -5.088429e+02
   7.748579e+02   2.129728e+01
   3.658841e+02   4.888251e+02
  -2.859146e+02   5.292044e+02
  -5.740113e+02   2.069118e+02
  -4.100750e+02  -2.287839e+02
  -6.754525e+01  -4.729530e+02
   1.965743e+02  -2.733068e+02
   1.663599e+02   2.319527e+02
  -1.664031e+02   4.725329e+02
  -4.518826e+02  -1.767996e+01
  -2.515556e+02  -6.887614e+02
   3.118760e+02  -7.090154e+02
   6.035078e+02  -1.139866e+01
   2.678892e+02   5.568180e+02
  -2.858932e+02   3.236233e+02
  -3.848126e+02  -3.139628e+02
   6.343821e+01  -5.492321e+02
   5.634215e+02  -1.462888e+02
   6.009967e+02   3.994530e+02
   1.766163e+02   5.855253e+02
  -3.806750e+02   3.615290e+02
  -6.366744e+02  -5.897204e+01
  -3.902153e+02  -3.889708e+02
   1.489418e+02  -3.844412e+02
   4.488519e+02  -6.495329e+01
   2.463923e+02   2.062836e+02
  -1.276818e+02   1.160835e+02
  -1.558832e+02  -1.615756e+02
   1.684894e+02  -1.992585e+02
   3.589543e+02   7.200118e+01
   1.536539e+02   3.100783e+02
  -1.954257e+02   2.755825e+02
  -3.372645e+02   8.050104e+01
  -2.025705e+02  -9.110752e+01
   2.192426e+01  -2.298355e+02
   2.127675e+02  -3.245058e+02
   3.278352e+02  -2.191801e+02
   2.913366e+02   1.319142e+02
   8.661732e+01   4.317528e+02
  -1.107448e+02   3.852038e+02
  -1.258950e+02   1.133495e+02
  -2.899139e+01  -1.268698e+01
  -3.872707e+01   8.763633e+01
  -1.912995e+02   1.348595e+02
  -2.805885e+02  -5.132717e+01
  -1.618979e+02  -2.711234e+02
   7.092984e+01  -2.635944e+02
   2.332034e+02  -1.646021e+01
   2.088138e+02   2.403619e+02
  -3.817184e+00   3.011991e+02
  -2.682311e+02   1.229007e+02
  -3.725517e+02  -1.627169e+02
  -1.991082e+02  -3.498874e+02
   9.237872e+01  -3.095083e+02
   2.271900e+02  -1.275831e+02
   1.520545e+02  -9.647211e+00
   9.714960e+01  -3.970335e+01
   2.273371e+02  -7.039485e+01
   4.002004e+02   4.763435e+01
   3.393329e+02   2.821379e+02
   6.128745e+00   4.581971e+02
  -3.604112e+02   4.305709e+02
  -4.915723e+02   2.092088e+02
  -3.431595e+02  -9.631204e+01
  -5.927247e+01  -3.013403e+02
   1.297595e+02  -2.614690e+02
   8.218637e+01  -3.261562e+01
  -1.139301e+02   1.091920e+02
  -1.992988e+02  -1.345600e+00
  -5.238162e+01  -1.951027e+02
   1.654458e+02  -1.761115e+02
   1.835132e+02   6.020508e+01
  -1.415453e+01   1.988052e+02
  -1.980370e+02   3.937933e+01
  -1.700811e+02  -2.442516e+02
   2.505317e+01  -3.528261e+02
   2.266740e+02  -1.992685e+02
   3.258195e+02   5.750502e+01
   2.808132e+02   2.332977e+02
   1.020129e+02   2.611987e+02
  -1.088449e+02   1.618569e+02
  -1.795142e+02   2.501492e+01
  -6.237864e+01  -3.404387e+01
   7.145938e+01   3.392905e+01
   3.346900e+01   1.256697e+02
  -1.210379e+02   1.052626e+02
  -1.817927e+02  -7.160218e+00
  -5.966396e+01  -7.156600e+01
   8.047550e+01  -2.021698e+01
   5.674740e+01   7.102333e+01
  -1.215501e+02   9.045004e+01
  -2.814994e+02   7.759863e+00
  -2.624523e+02  -1.337085e+02
  -6.238773e+01  -2.527087e+02
   1.779052e+02  -2.624912e+02
   2.759971e+02  -1.305561e+02
   1.683523e+02   4.728010e+01
  -2.261799e+01   1.087307e+02
  -8.980471e+01   6.938339e+00
   3.226214e+01  -1.048711e+02
   1.948070e+02  -6.567105e+01
   2.165328e+02   9.990080e+01
   7.404392e+01   2.090490e+02
  -9.036129e+01   1.623961e+02
  -1.427401e+02   3.140110e+01
  -7.130343e+01  -4.221265e+01
   2.816820e+01  -4.882617e+00
   3.749214e+01   8.273342e+01
  -6.926634e+01   1.143431e+02
  -1.960913e+02   3.175812e+01
  -1.906578e+02  -1.207706e+02
  -2.370342e+01  -2.163128e+02
   1.612476e+02  -1.632561e+02
   1.913515e+02  -6.342220e+00
   6.551608e+01   1.141142e+02
  -6.544994e+01   1.099124e+02
  -8.219717e+01   3.001495e+01
  -1.903999e+01  -2.605341e+01
   2.102663e+01  -1.835463e+01
  -9.155710e+00   6.920411e+00
  -7.011731e+01  -8.586811e+00
  -8.735378e+01  -8.054156e+01
  -1.620009e+01  -1.559183e+02
   1.242246e+02  -1.522449e+02
   2.313251e+02  -2.771951e+01
   2.015385e+02   1.485709e+02
   4.353104e+01   2.366344e+02
  -1.073489e+02   1.714624e+02
  -1.370913e+02   2.798027e+01
  -7.314879e+01  -5.692317e+01
  -2.934925e+01  -3.582905e+01
  -5.180081e+01   1.411924e+01
  -7.949868e+01   7.850733e+00
  -4.369093e+01  -5.076242e+01
   3.983050e+01  -9.050140e+01
   1.020896e+02  -5.688585e+01
   8.747794e+01   3.561067e+01
  -1.009971e+01   1.116743e+02
  -1.387175e+02   8.868531e+01
  -1.979642e+02  -4.658230e+01
  -1.051277e+02  -1.980240e+02
   1.016947e+02  -2.296258e+02
   2.648632e+02  -1.030876e+02
   2.597339e+02   7.923147e+01
   1.130243e+02   1.736654e+02
  -3.677143e+01   1.476491e+02
  -9.106535e+01   8.410454e+01
  -7.597667e+01   7.039180e+01
  -6.112536e+01   9.328022e+01
  -8.883940e+01   7.612996e+01
  -1.282032e+02  -1.865603e+01
  -1.220502e+02  -1.492852e+02
  -3.410015e+01  -2.237238e+02
   9.648655e+01  -1.737641e+02
   1.763573e+02  -2.346465e+01
   1.395564e+02   1.197551e+02
   2.244685e+01   1.582144e+02
  -6.491152e+01   9.213866e+01
  -5.943787e+01   1.242500e+00
  -6.527804e+00  -4.196413e+01
   8.969859e+00  -3.424834e+01
  -3.596820e+01  -1.705036e+01
  -7.714699e+01  -2.030416e+01
  -4.315116e+01  -3.794007e+01
   6.383386e+01  -3.809504e+01
   1.558365e+02  -4.630654e+00
   1.437725e+02   4.962451e+01
   1.716011e+01   8.822347e+01
  -1.189933e+02   7.536589e+01
  -1.451225e+02   1.585171e+01
  -4.931875e+01  -4.000259e+01
   6.002517e+01  -3.923552e+01
   7.637591e+01   1.768945e+01
   8.853074e+00   6.830236e+01
  -5.547906e+01   5.779673e+01
  -6.269390e+01  -3.332517e+00
  -4.277105e+01  -5.189682e+01
  -4.270221e+01  -4.093245e+01
  -6.037078e+01   5.473361e-01
  -6.534894e+01   5.715399e-01
  -3.339312e+01  -6.839751e+01
   3.151340e+01  -1.446210e+02
   1.117592e+02  -1.409218e+02
   1.601183e+02  -3.380730e+01
   1.232748e+02   8.897579e+01
   9.482782e+00   1.256637e+02
  -8.470568e+01   6.306759e+01
  -6.150171e+01  -1.431010e+01
   5.629983e+01  -2.231871e+01
   1.363004e+02   3.851012e+01
   7.608929e+01   1.041700e+02
  -7.773200e+01   1.120060e+02
  -1.861873e+02   5.567176e+01
  -1.610308e+02  -3.035351e+01
  -3.919702e+01  -8.515392e+01
   5.851932e+01  -7.167982e+01
   4.916487e+01  -8.023313e+00
  -3.770354e+01   2.857430e+01
  -9.065802e+01  -1.938394e+01
  -3.614253e+01  -1.166182e+02
   8.848518e+01  -1.541483e+02
   1.658118e+02  -6.305985e+01
   1.268500e+02   9.880225e+01
   1.128813e+01   1.966671e+02
  -8.471525e+01   1.446734e+02
  -1.050541e+02  -6.112811e+00
  -6.370316e+01  -1.170349e+02
  -1.427990e+00  -1.067140e+02
   4.507329e+01  -2.058379e+01
   5.396222e+01   3.046759e+01
   2.758476e+01   8.200202e+00
   4.426239e+00  -2.164502e+01
   2.042560e+01   1.338112e+01
   5.689673e+01   8.735146e+01
   4.370372e+01   1.087474e+02
  -4.649995e+01   4.622748e+01
  -1.381980e+02  -3.663110e+01
  -1.298113e+02  -6.845337e+01
  -1.597128e+01  -4.974632e+01
   8.833074e+01  -2.462041e+01
   8.742272e+01  -9.283700e+00
   1.082474e+01   8.903367e+00
  -3.734415e+01   2.425778e+01
  -1.232257e+01   1.866156e+01
   2.182046e+01  -1.703602e+00
  -6.752861e+00  -7.948290e+00
  -7.558704e+01  -1.317196e+00
  -9.196717e+01  -2.235205e+01
  -1.017421e+01  -8.120015e+01
   1.142490e+02  -1.157416e+02
   1.798097e+02  -6.146592e+01
   1.407321e+02   6.262303e+01
   2.885429e+01   1.598795e+02
  -7.438522e+01   1.492452e+02
  -1.124475e+02   5.966429e+01
  -8.085643e+01  -2.172010e+01
  -2.524765e+01  -3.542284e+01
   4.119675e+00  -7.981099e+00
  -9.524861e+00  -2.141308e+00
  -3.442075e+01  -4.481998e+01
  -2.488980e+01  -8.932629e+01
   2.765699e+01  -7.182551e+01
   8.147576e+01   1.731039e+01
   7.805840e+01   1.065990e+02
   5.384585e+00   1.103217e+02
  -8.271951e+01   2.388046e+01
  -1.041983e+02  -7.362231e+01
  -3.294286e+01  -1.021754e+02
   6.603302e+01  -5.587092e+01
   9.704852e+01   9.572031e+00
   3.833742e+01   4.840881e+01
  -3.223789e+01   5.099900e+01
  -2.955120e+01   2.689784e+01
   3.468567e+01  -2.021228e+00
   6.685667e+01  -8.028344e+00
   1.413197e+01   2.421086e+01
  -7.537129e+01   6.596802e+01
  -1.098063e+02   5.850028e+01
  -6.186401e+01  -1.167998e+01
   1.325119e+01  -8.274399e+01
   5.090869e+01  -7.814022e+01
   3.831102e+01  -4.739335e+00
   4.237070e+00   5.549012e+01
  -2.488838e+01   4.274456e+01
  -3.731128e+01  -1.717949e+01
  -2.564948e+01  -5.272779e+01
   3.156236e+00  -3.189265e+01
   3.306583e+01   8.446589e+00
   3.838294e+01   2.009148e+01
   1.878122e+01   8.926291e-01
  -1.726473e+00  -1.459944e+01
  -7.057711e+00   2.466695e+00
  -6.094781e+00   3.641418e+01
  -1.594688e+01   4.365721e+01
  -3.213856e+01   6.811268e+00
  -2.979332e+01  -4.489628e+01
   1.447615e+00  -5.964785e+01
   4.377765e+01  -2.077619e+01
   5.665898e+01   3.762843e+01
   1.617866e+01   6.142949e+01
  -5.256882e+01   3.495166e+01
  -8.704276e+01  -1.241066e+01
  -4.992660e+01  -4.135977e+01
   2.655433e+01  -4.051978e+01
   6.221454e+01  -2.233158e+01
   2.294221e+01  -5.255314e+00
  -3.698154e+01  -2.320856e+00
  -3.602594e+01  -1.508354e+01
   3.044001e+01  -3.084501e+01
   8.879404e+01  -2.073357e+01
