
 $NMID
 id='ANONYMOUS ', fmtdat='(2E16.6)'
 volume=1.0
 tramp=1.0
 $END
  -4.319355e+03  -1.082144e+02
  -2.507156e+03  -2.635398e+03
   8.375020e+02  -2.813729e+03
   2.250487e+03  -8.413474e+02
   1.015201e+03   7.848420e+02
  -6.931509e+02   6.185419e+02
  -9.403597e+02  -4.662742e+02
   2.211959e+01  -1.118023e+03
   8.707682e+02  -7.734216e+02
   9.542546e+02   1.593540e+02
   4.474605e+02   9.363953e+02
  -2.846331e+02   9.008561e+02
  -6.540079e+02   9.025750e+01
  -3.833650e+02  -7.443757e+02
   2.833692e+02  -7.456479e+02
   6.292601e+02  -1.877752e+00
   2.572079e+02   6.896953e+02
  -3.483995e+02   6.189776e+02
  -6.089399e+02   7.091680e+01
  -3.933942e+02  -3.759711e+02
   6.884610e-01  -4.488150e+02
   2.682324e+02  -2.609877e+02
   2.297187e+02  -1.591607e+00
  -1.176044e+02   1.011350e+02
  -4.222329e+02  -1.138527e+02
  -2.139658e+02  -4.497356e+02
   4.642993e+02  -4.268835e+02
   8.761767e+02   8.226374e+01
   4.415888e+02   5.755676e+02
  -4.105906e+02   5.107554e+02
  -7.749179e+02  -3.633347e+01
  -3.597900e+02  -5.106021e+02
   2.978149e+02  -5.413088e+02
   5.933539e+02  -1.941272e+02
   4.287309e+02   2.640394e+02
   4.693953e+01   5.038344e+02
  -2.367851e+02   2.789322e+02
  -1.745228e+02  -2.534214e+02
   1.701859e+02  -4.660168e+02
   4.781989e+02   3.935820e+01
   2.285990e+02   7.125503e+02
  -3.587437e+02   7.099076e+02
  -6.224088e+02  -2.409075e+01
  -2.375088e+02  -5.871174e+02
   3.254599e+02  -3.273457e+02
   3.943325e+02   3.426696e+02
  -7.982717e+01   5.676095e+02
  -5.685242e+02   1.426688e+02
  -5.916423e+02  -4.243531e+02
  -1.499083e+02  -5.954370e+02
   3.927404e+02  -3.442204e+02
   6.322324e+02   8.923882e+01
   3.705379e+02   3.987355e+02
  -1.653350e+02   3.677529e+02
  -4.472964e+02   4.419316e+01
  -2.359623e+02  -2.092806e+02
   1.352472e+02  -1.053276e+02
   1.490129e+02   1.632657e+02
  -1.745429e+02   1.950782e+02
  -3.587492e+02  -7.586987e+01
  -1.370402e+02  -3.068892e+02
   2.126593e+02  -2.554004e+02
   3.349250e+02  -7.172509e+01
   1.994855e+02   7.909604e+01
  -8.437760e+00   2.179257e+02
  -2.052834e+02   3.337648e+02
  -3.374203e+02   2.327945e+02
  -3.023624e+02  -1.364100e+02
  -8.819035e+01  -4.398458e+02
   1.312176e+02  -3.863332e+02
   1.340958e+02  -1.035116e+02
   1.718351e+01   2.081418e+01
   2.479309e+01  -9.302319e+01
   1.884155e+02  -1.405679e+02
   2.894739e+02   4.652224e+01
   1.714205e+02   2.753959e+02
  -6.790857e+01   2.656961e+02
  -2.346101e+02   1.916802e+01
  -2.067503e+02  -2.409859e+02
   7.558212e+00  -3.041754e+02
   2.680238e+02  -1.240069e+02
   3.688298e+02   1.636184e+02
   1.907214e+02   3.555175e+02
  -1.062641e+02   3.097120e+02
  -2.328077e+02   1.134381e+02
  -1.452305e+02  -4.852059e+00
  -8.350858e+01   3.296370e+01
  -2.183103e+02   7.312026e+01
  -3.985525e+02  -4.556892e+01
  -3.411379e+02  -2.760646e+02
  -6.054094e+00  -4.480116e+02
   3.658139e+02  -4.165099e+02
   4.966832e+02  -1.928401e+02
   3.401651e+02   1.059882e+02
   4.930312e+01   3.070714e+02
  -1.401718e+02   2.540312e+02
  -9.017942e+01   2.420933e+01
   1.126541e+02  -1.082400e+02
   2.026454e+02   1.449583e+01
   4.922029e+01   2.038656e+02
  -1.722445e+02   1.691016e+02
  -1.867876e+02  -7.059711e+01
   1.746917e+01  -2.034525e+02
   1.972672e+02  -3.494202e+01
   1.658093e+02   2.462874e+02
  -3.017298e+01   3.477050e+02
  -2.255884e+02   1.953970e+02
  -3.178410e+02  -5.744087e+01
  -2.751770e+02  -2.331604e+02
  -9.630333e+01  -2.656804e+02
   1.113335e+02  -1.641079e+02
   1.783431e+02  -1.685026e+01
   5.810319e+01   3.894865e+01
  -7.212026e+01  -3.401886e+01
  -3.131798e+01  -1.292538e+02
   1.257667e+02  -1.043368e+02
   1.829342e+02   1.341071e+01
   6.300585e+01   7.787421e+01
  -7.888036e+01   2.139416e+01
  -5.979423e+01  -6.871941e+01
   1.136226e+02  -8.463337e+01
   2.728047e+02  -2.195506e+00
   2.627343e+02   1.358741e+02
   6.682777e+01   2.541449e+02
  -1.808031e+02   2.637488e+02
  -2.891312e+02   1.267956e+02
  -1.759619e+02  -5.822122e+01
   2.709435e+01  -1.169059e+02
   9.756606e+01  -7.772553e+00
  -2.992577e+01   1.085158e+02
  -1.960098e+02   6.415296e+01
  -2.141582e+02  -1.040016e+02
  -6.822562e+01  -2.113692e+02
   9.563297e+01  -1.598667e+02
   1.447185e+02  -2.746145e+01
   7.067481e+01   4.580359e+01
  -2.681078e+01   8.249073e+00
  -4.084307e+01  -7.984292e+01
   6.503973e+01  -1.150629e+02
   1.947098e+02  -3.491587e+01
   1.925349e+02   1.201919e+02
   2.285232e+01   2.185409e+02
  -1.662306e+02   1.637644e+02
  -1.963349e+02   1.971522e+00
  -6.348581e+01  -1.186903e+02
   7.031849e+01  -1.116048e+02
   8.643401e+01  -2.809415e+01
   2.064001e+01   2.797456e+01
  -2.189952e+01   2.106754e+01
   5.616119e+00  -5.271550e+00
   6.473468e+01   7.575686e+00
   8.539788e+01   7.516889e+01
   1.796087e+01   1.506751e+02
  -1.222392e+02   1.508898e+02
  -2.322143e+02   2.896224e+01
  -2.021290e+02  -1.482505e+02
  -3.967457e+01  -2.374719e+02
   1.124444e+02  -1.696321e+02
   1.361741e+02  -2.535644e+01
   6.972947e+01   5.847341e+01
   2.693192e+01   3.705037e+01
   5.048268e+01  -1.074221e+01
   7.632110e+01  -7.516340e+00
   4.099160e+01   4.580400e+01
  -3.899499e+01   8.448604e+01
  -9.684365e+01   5.730721e+01
  -8.463128e+01  -2.943395e+01
   6.574754e+00  -1.055200e+02
   1.329492e+02  -8.858079e+01
   1.937374e+02   4.415396e+01
   1.034718e+02   1.954707e+02
  -1.007006e+02   2.265188e+02
  -2.631872e+02   9.657712e+01
  -2.554445e+02  -8.630352e+01
  -1.085944e+02  -1.778111e+02
   4.072763e+01  -1.472587e+02
   9.411685e+01  -8.178900e+01
   7.824761e+01  -6.676913e+01
   6.596433e+01  -8.839355e+01
   8.978398e+01  -7.043434e+01
   1.236329e+02   2.096251e+01
   1.140750e+02   1.480139e+02
   3.073676e+01   2.205964e+02
  -9.712051e+01   1.708168e+02
  -1.742547e+02   2.213466e+01
  -1.368662e+02  -1.201030e+02
  -1.914784e+01  -1.598174e+02
   6.862333e+01  -9.389389e+01
   6.129956e+01  -3.190834e+00
   7.261570e+00   4.100059e+01
  -9.360198e+00   3.568717e+01
   3.282655e+01   1.963239e+01
   7.456190e+01   2.246337e+01
   4.346088e+01   3.568035e+01
  -5.937888e+01   3.489067e+01
  -1.528166e+02   3.597257e+00
  -1.414696e+02  -4.854056e+01
  -1.641575e+01  -8.708423e+01
   1.183193e+02  -7.235969e+01
   1.415374e+02  -1.218276e+01
   4.781739e+01   4.194350e+01
  -5.858180e+01   3.790403e+01
  -7.504843e+01  -1.787166e+01
  -7.704125e+00  -6.781988e+01
   5.316445e+01  -5.737395e+01
   6.071798e+01   2.441493e+00
   4.285879e+01   5.014567e+01
   4.098706e+01   4.065891e+01
   5.915113e+01   9.520609e-01
   6.405439e+01  -1.267640e+00
   3.535255e+01   6.426884e+01
  -3.067312e+01   1.409347e+02
  -1.123360e+02   1.385679e+02
  -1.594346e+02   3.287436e+01
  -1.203231e+02  -8.741315e+01
  -7.037381e+00  -1.223845e+02
   8.302336e+01  -6.131245e+01
   5.854178e+01   1.515867e+01
  -5.593857e+01   2.036677e+01
  -1.321486e+02  -4.208674e+01
  -7.373250e+01  -1.034118e+02
   7.608698e+01  -1.093786e+02
   1.846832e+02  -5.217633e+01
   1.596606e+02   3.142142e+01
   3.820500e+01   8.483675e+01
  -5.961775e+01   7.004048e+01
  -4.814452e+01   7.125938e+00
   3.810696e+01  -2.536561e+01
   8.744067e+01   2.329135e+01
   2.926697e+01   1.162089e+02
  -9.290029e+01   1.478406e+02
  -1.632721e+02   5.634565e+01
  -1.207640e+02  -1.001480e+02
  -5.813783e+00  -1.913186e+02
   8.399787e+01  -1.389587e+02
   1.010849e+02   7.054788e+00
   5.950833e+01   1.148453e+02
  -1.401234e+00   1.053783e+02
  -4.555767e+01   2.198218e+01
  -5.105248e+01  -3.079211e+01
  -2.496316e+01  -1.004519e+01
  -3.637059e+00   1.962664e+01
  -1.906494e+01  -1.229579e+01
  -5.504804e+01  -8.414772e+01
  -4.209062e+01  -1.086069e+02
   4.636717e+01  -4.946234e+01
   1.367236e+02   3.707388e+01
   1.266620e+02   7.162082e+01
   1.582903e+01   4.989028e+01
  -8.656020e+01   1.998222e+01
  -8.640529e+01   4.237915e+00
  -9.007832e+00  -7.912929e+00
   3.783014e+01  -2.050541e+01
   1.369859e+01  -1.777371e+01
  -2.136932e+01  -3.388643e-01
   4.899919e+00   9.479305e+00
   7.154103e+01   7.702854e+00
   8.729703e+01   2.524083e+01
   6.383159e+00   7.517862e+01
  -1.157348e+02   1.062935e+02
  -1.799601e+02   5.563141e+01
  -1.366625e+02  -6.480841e+01
  -2.250866e+01  -1.555771e+02
   7.743880e+01  -1.459449e+02
   1.123702e+02  -5.620485e+01
   7.895835e+01   2.343921e+01
   2.499255e+01   3.687650e+01
  -3.063780e+00   8.891061e+00
   9.873023e+00   2.620951e+00
   3.127333e+01   4.477306e+01
   2.141224e+01   8.929753e+01
  -2.856938e+01   7.035423e+01
  -7.840509e+01  -1.872280e+01
  -7.303599e+01  -1.061306e+02
  -3.049129e+00  -1.087009e+02
   8.076935e+01  -2.154319e+01
   9.824635e+01   7.557909e+01
   2.776860e+01   1.018223e+02
  -6.537777e+01   5.278658e+01
  -9.350962e+01  -1.231436e+01
  -3.646030e+01  -4.763140e+01
   3.172764e+01  -4.815238e+01
   2.895603e+01  -2.625375e+01
  -3.378586e+01  -6.220832e-01
  -6.543839e+01   4.987560e+00
  -1.404045e+01  -2.399017e+01
   7.587759e+01  -6.219695e+01
   1.118012e+02  -5.542229e+01
   6.197176e+01   1.236288e+01
  -1.589428e+01   7.937536e+01
  -5.298002e+01   7.603441e+01
  -3.634745e+01   4.921520e+00
  -4.771192e-01  -5.364132e+01
   2.601092e+01  -4.028083e+01
   3.470411e+01   1.922544e+01
   2.506384e+01   5.341074e+01
  -2.175448e+00   3.208098e+01
  -3.163419e+01  -8.016657e+00
  -3.882982e+01  -2.049934e+01
  -2.117719e+01  -1.105432e+00
  -1.194776e-02   1.376006e+01
   7.523604e+00  -3.658134e+00
   7.112115e+00  -3.613828e+01
   1.605626e+01  -4.285403e+01
   3.004788e+01  -5.945190e+00
   2.843471e+01   4.393802e+01
  -2.126493e+00   5.886972e+01
  -4.349721e+01   1.946570e+01
  -5.497181e+01  -3.856034e+01
  -1.405517e+01  -6.155742e+01
   5.402047e+01  -3.385508e+01
   8.761630e+01   1.506694e+01
   4.825856e+01   4.299735e+01
  -2.789732e+01   3.879656e+01
  -6.198898e+01   2.002768e+01
  -2.220221e+01   5.112913e+00
   3.608122e+01   4.571472e+00
   3.554147e+01   1.820526e+01
  -3.232502e+01   3.101116e+01
  -8.990291e+01   1.751400e+01
