
 $NMID
 id='ANONYMOUS ', fmtdat='(2E16.6)'
 volume=1.0
 tramp=1.0
 $END
   3.910939e+03   2.014752e+02
   2.356396e+03   2.251624e+03
  -4.281547e+02   2.455134e+03
  -1.697860e+03   1.033678e+03
  -9.887237e+02  -2.242611e+02
   2.396897e+02  -3.956690e+02
   6.047935e+02   2.444849e+02
  -3.134380e+00   8.145209e+02
  -6.788258e+02   6.795600e+02
  -8.159617e+02  -4.067262e+01
  -4.594168e+02  -7.060476e+02
   1.458438e+02  -7.784293e+02
   4.749334e+02  -1.200119e+02
   2.944801e+02   5.869944e+02
  -2.241440e+02   6.450202e+02
  -5.041648e+02   3.281575e+01
  -2.736079e+02  -6.109665e+02
   2.576145e+02  -6.363304e+02
   5.519208e+02  -1.799458e+02
   4.278798e+02   2.809122e+02
   6.024896e+01   4.116937e+02
  -1.967389e+02   2.448842e+02
  -1.301080e+02   3.001894e+01
   1.757484e+02   2.721346e+01
   3.456379e+02   2.439609e+02
   5.486681e+01   4.390718e+02
  -5.101970e+02   2.768775e+02
  -7.366815e+02  -1.826928e+02
  -2.950767e+02  -4.970265e+02
   3.950797e+02  -3.226359e+02
   6.349545e+02   1.369552e+02
   2.445735e+02   4.657748e+02
  -3.097758e+02   4.435296e+02
  -5.438711e+02   1.401837e+02
  -3.767942e+02  -2.273937e+02
  -5.393923e+01  -4.074354e+02
   1.386166e+02  -2.191885e+02
   4.560395e+01   1.710486e+02
  -2.006447e+02   2.625266e+02
  -3.375157e+02  -1.252604e+02
  -8.796982e+01  -6.230849e+02
   3.418906e+02  -5.579856e+02
   4.780663e+02   3.768894e+01
   1.576396e+02   4.539613e+02
  -2.545338e+02   2.163163e+02
  -2.797606e+02  -3.318971e+02
   1.245474e+02  -4.901856e+02
   5.360665e+02  -7.844043e+01
   5.524290e+02   4.304713e+02
   1.435715e+02   5.748604e+02
  -3.725811e+02   3.103169e+02
  -5.940355e+02  -9.400860e+01
  -3.480837e+02  -3.406291e+02
   1.191279e+02  -2.898011e+02
   3.701834e+02  -5.148772e+01
   2.200670e+02   1.178056e+02
  -6.635096e+01   5.424072e+01
  -9.457775e+01  -1.062283e+02
   1.415897e+02  -1.140321e+02
   2.959666e+02   7.816658e+01
   1.258298e+02   2.557931e+02
  -2.062394e+02   2.497281e+02
  -3.631777e+02   9.590154e+01
  -2.426434e+02  -1.115625e+02
   3.465438e+01  -2.974081e+02
   2.904352e+02  -3.588143e+02
   3.803590e+02  -1.710035e+02
   2.636500e+02   1.817754e+02
   4.494249e+01   4.073593e+02
  -8.500249e+01   3.362474e+02
  -6.728546e+01   1.334046e+02
  -2.122183e+01   5.812825e+01
  -1.005797e+02   1.167432e+02
  -2.412701e+02   9.000776e+01
  -2.711772e+02  -1.043833e+02
  -1.206620e+02  -2.832899e+02
   9.759889e+01  -2.311657e+02
   2.204196e+02   2.421077e+01
   1.627104e+02   2.597045e+02
  -4.643720e+01   2.852564e+02
  -2.782335e+02   8.231289e+01
  -3.423146e+02  -1.942951e+02
  -1.715274e+02  -3.487790e+02
   9.188758e+01  -2.903860e+02
   2.086111e+02  -1.278471e+02
   1.524248e+02  -3.932900e+01
   1.268175e+02  -5.706536e+01
   2.652831e+02  -5.293967e+01
   4.200991e+02   8.715434e+01
   3.322500e+02   3.175755e+02
  -2.703626e+01   4.567542e+02
  -4.004662e+02   4.073311e+02
  -5.063877e+02   1.691907e+02
  -3.126629e+02  -1.204680e+02
  -1.947573e+01  -2.863429e+02
   1.323114e+02  -2.204587e+02
   4.982260e+01  -2.577355e+01
  -1.174225e+02   7.392581e+01
  -1.633873e+02  -3.393244e+01
  -2.365064e+01  -1.751606e+02
   1.426238e+02  -1.332300e+02
   1.415944e+02   6.602987e+01
  -3.188703e+01   1.641468e+02
  -1.844960e+02   7.848231e+00
  -1.566263e+02  -2.550695e+02
   3.498729e+01  -3.596805e+02
   2.545024e+02  -2.026729e+02
   3.593614e+02   7.509566e+01
   2.857102e+02   2.712314e+02
   6.791837e+01   2.849063e+02
  -1.360963e+02   1.525678e+02
  -1.693263e+02   2.404557e+00
  -4.135278e+01  -2.845418e+01
   6.229476e+01   5.567467e+01
   7.866929e+00   1.274750e+02
  -1.349768e+02   8.351002e+01
  -1.674210e+02  -2.741526e+01
  -4.273910e+01  -6.998002e+01
   8.755955e+01   2.953853e-01
   4.850078e+01   9.186476e+01
  -1.438176e+02   9.177938e+01
  -3.046547e+02  -2.216229e+01
  -2.661150e+02  -1.751954e+02
  -3.577155e+01  -2.760875e+02
   2.154747e+02  -2.504397e+02
   2.926621e+02  -1.000221e+02
   1.575760e+02   6.552962e+01
  -3.548512e+01   1.008040e+02
  -8.311321e+01  -2.952351e+00
   4.935512e+01  -9.886840e+01
   2.013615e+02  -4.300681e+01
   2.054548e+02   1.175854e+02
   5.524315e+01   2.118987e+02
  -1.022404e+02   1.499455e+02
  -1.423578e+02   1.691537e+01
  -5.631500e+01  -4.709874e+01
   4.055206e+01   9.513051e+00
   3.390860e+01   1.041169e+02
  -9.187476e+01   1.228360e+02
  -2.163786e+02   1.756701e+01
  -1.920811e+02  -1.434576e+02
  -7.085637e+00  -2.244130e+02
   1.749917e+02  -1.564954e+02
   1.920200e+02   3.312393e+00
   5.531988e+01   1.138291e+02
  -7.513115e+01   1.038629e+02
  -8.278269e+01   2.091013e+01
  -6.764684e+00  -3.104166e+01
   3.595342e+01  -1.389469e+01
  -7.358291e+00   2.043011e+01
  -8.353527e+01  -9.640022e-01
  -1.017199e+02  -9.052461e+01
  -1.129098e+01  -1.762359e+02
   1.457775e+02  -1.584190e+02
   2.505284e+02  -1.393800e+01
   2.027471e+02   1.686834e+02
   3.335742e+01   2.461346e+02
  -1.168312e+02   1.677932e+02
  -1.403439e+02   2.481044e+01
  -7.369253e+01  -5.630080e+01
  -2.902123e+01  -3.534846e+01
  -5.381710e+01   1.128584e+01
  -8.576724e+01   5.590393e+00
  -5.242731e+01  -5.731539e+01
   4.224117e+01  -1.019449e+02
   1.189238e+02  -6.500774e+01
   1.041728e+02   4.453423e+01
  -1.678155e+01   1.284083e+02
  -1.626856e+02   9.017254e+01
  -2.099638e+02  -6.874567e+01
  -8.918147e+01  -2.219906e+02
   1.303055e+02  -2.309982e+02
   2.815516e+02  -8.014810e+01
   2.557779e+02   1.033010e+02
   9.933294e+01   1.839151e+02
  -4.736109e+01   1.452050e+02
  -9.595098e+01   8.088140e+01
  -7.411603e+01   6.890774e+01
  -6.516569e+01   9.596791e+01
  -9.744333e+01   7.894978e+01
  -1.381699e+02  -2.321709e+01
  -1.217379e+02  -1.624327e+02
  -2.300310e+01  -2.367236e+02
   1.105779e+02  -1.735292e+02
   1.809263e+02  -1.013772e+01
   1.310709e+02   1.348766e+02
   6.414319e+00   1.655695e+02
  -8.148690e+01   8.510833e+01
  -6.694660e+01  -1.202828e+01
   1.375649e+00  -5.316207e+01
   2.403275e+01  -3.653944e+01
  -2.940566e+01  -1.552348e+01
  -8.342859e+01  -2.290634e+01
  -4.834341e+01  -4.317020e+01
   7.277991e+01  -3.992094e+01
   1.750855e+02   3.172092e+00
   1.491652e+02   6.631777e+01
   2.110398e+00   1.017255e+02
  -1.365843e+02   7.376681e+01
  -1.489460e+02   1.808150e+00
  -4.323826e+01  -5.269855e+01
   6.465444e+01  -4.334241e+01
   7.911046e+01   2.227251e+01
   1.234812e+01   7.604698e+01
  -5.406706e+01   6.365608e+01
  -6.925270e+01  -1.392798e+00
  -5.359805e+01  -5.305896e+01
  -4.492414e+01  -4.437317e+01
  -5.839067e+01  -5.857441e-01
  -6.856810e+01   5.875393e-02
  -4.372239e+01  -7.262662e+01
   3.293601e+01  -1.551331e+02
   1.304265e+02  -1.462896e+02
   1.813300e+02  -3.046207e+01
   1.291288e+02   9.967262e+01
   9.503513e-01   1.364080e+02
  -9.428209e+01   6.659962e+01
  -6.337349e+01  -1.588540e+01
   6.022272e+01  -2.336313e+01
   1.391383e+02   4.585910e+01
   7.532266e+01   1.160511e+02
  -8.564610e+01   1.172362e+02
  -1.988147e+02   4.595877e+01
  -1.640204e+02  -4.693247e+01
  -3.107107e+01  -9.246630e+01
   6.962936e+01  -6.409270e+01
   5.131516e+01   2.256404e+00
  -4.275613e+01   3.099308e+01
  -9.556617e+01  -2.466396e+01
  -3.465719e+01  -1.229188e+02
   9.091724e+01  -1.583473e+02
   1.687448e+02  -6.422408e+01
   1.272348e+02   1.031252e+02
   5.757752e+00   2.011159e+02
  -9.241288e+01   1.406712e+02
  -1.073365e+02  -1.656257e+01
  -5.233285e+01  -1.258638e+02
   1.561702e+01  -1.072145e+02
   5.306323e+01  -1.485748e+01
   4.662604e+01   3.443874e+01
   1.888258e+01   1.000690e+01
   5.729948e+00  -1.990201e+01
   2.852539e+01   1.808406e+01
   5.877833e+01   9.151467e+01
   3.236533e+01   1.114112e+02
  -5.764756e+01   4.352757e+01
  -1.387866e+02  -4.141559e+01
  -1.258046e+02  -7.513211e+01
  -1.593803e+01  -5.536973e+01
   8.660690e+01  -2.284690e+01
   8.927068e+01  -2.111272e+00
   1.300092e+01   1.310530e+01
  -3.942981e+01   2.018178e+01
  -1.857981e+01   1.183309e+01
   1.857400e+01  -2.777737e+00
  -3.157855e+00  -4.090544e+00
  -7.080973e+01  -1.198504e+00
  -9.529002e+01  -2.633356e+01
  -1.663021e+01  -8.661090e+01
   1.191146e+02  -1.176830e+02
   1.969976e+02  -6.110435e+01
   1.525611e+02   6.776961e+01
   2.737079e+01   1.665042e+02
  -8.798290e+01   1.589730e+02
  -1.218894e+02   6.195912e+01
  -8.318526e+01  -2.430839e+01
  -2.562564e+01  -4.198578e+01
  -1.629705e-01  -1.310451e+01
  -1.320727e+01  -6.597389e+00
  -3.119148e+01  -4.938016e+01
  -1.824427e+01  -9.450743e+01
   3.273465e+01  -7.440014e+01
   8.190822e+01   1.879700e+01
   7.820989e+01   1.091982e+02
   7.087792e+00   1.149808e+02
  -8.133050e+01   2.810044e+01
  -1.056599e+02  -7.284517e+01
  -3.539658e+01  -1.072998e+02
   6.807454e+01  -6.215694e+01
   1.046326e+02   1.097715e+01
   4.417592e+01   5.877006e+01
  -3.515718e+01   5.926257e+01
  -3.957650e+01   2.781420e+01
   2.860770e+01  -4.690923e+00
   7.048444e+01  -6.936382e+00
   1.758752e+01   2.957463e+01
  -8.214821e+01   6.674078e+01
  -1.240725e+02   5.021342e+01
  -6.995188e+01  -2.104544e+01
   1.851905e+01  -8.572314e+01
   6.033195e+01  -7.833197e+01
   4.352387e+01  -7.293702e+00
   2.704885e+00   5.461985e+01
  -2.674288e+01   4.481006e+01
  -3.697792e+01  -1.597667e+01
  -2.662583e+01  -5.692662e+01
   3.475008e+00  -3.780252e+01
   3.395205e+01   8.048042e+00
   4.073953e+01   2.527612e+01
   2.097101e+01   2.628091e+00
  -1.557658e+00  -1.808483e+01
  -5.680010e+00  -3.963594e+00
  -4.819488e-01   3.501586e+01
  -7.964912e+00   5.078596e+01
  -2.970066e+01   1.705460e+01
  -3.751159e+01  -3.994739e+01
  -5.834590e+00  -6.109028e+01
   4.415907e+01  -2.347798e+01
   6.184978e+01   3.725873e+01
   1.600759e+01   6.399635e+01
  -5.981278e+01   3.639503e+01
  -9.473463e+01  -1.520833e+01
  -5.022750e+01  -4.739856e+01
   3.126824e+01  -4.582136e+01
   6.743987e+01  -2.520097e+01
   2.731438e+01  -4.915729e+00
  -3.223736e+01   1.386842e+00
  -3.470711e+01  -1.202278e+01
   2.888603e+01  -2.905250e+01
   8.678255e+01  -1.783692e+01
