
 $NMID
 id='ANONYMOUS ', fmtdat='(2E16.6)'
 volume=1.0
 tramp=1.0
 $END
  -2.653958e+03  -3.951637e+01
  -1.795196e+03  -1.223995e+03
  -1.986592e+02  -1.590909e+03
   7.960670e+02  -1.108694e+03
   7.482868e+02  -4.255861e+02
   1.637859e+02   4.450327e+01
  -1.761885e+02  -4.721362e+01
  -2.711014e+01  -3.724544e+02
   3.214099e+02  -4.679334e+02
   4.929155e+02  -1.336101e+02
   3.558534e+02   3.216080e+02
   6.015072e+01   5.059689e+02
  -1.815043e+02   1.663643e+02
  -1.788375e+02  -3.039521e+02
   6.983006e+01  -4.353322e+02
   2.688833e+02  -8.562221e+01
   2.594952e+02   3.646081e+02
  -5.134279e+01   5.274927e+02
  -3.548103e+02   2.763485e+02
  -3.832748e+02  -9.040571e+01
  -1.430449e+02  -2.814473e+02
   7.114407e+01  -2.028998e+02
   3.062506e+01  -8.928365e+01
  -1.730973e+02  -1.337996e+02
  -2.214918e+02  -2.910767e+02
   6.092607e+01  -3.106392e+02
   4.226832e+02  -9.301089e+01
   4.822141e+02   1.904604e+02
   1.428042e+02   2.798152e+02
  -2.703599e+02   1.145775e+02
  -3.812777e+02  -1.323086e+02
  -1.282970e+02  -2.869124e+02
   2.203464e+02  -2.724580e+02
   3.663952e+02  -1.020627e+02
   2.605668e+02   1.153202e+02
   8.113319e+01   2.323411e+02
   1.987585e+01   1.397334e+02
   8.167969e+01  -5.164720e+01
   1.794972e+02  -5.005493e+01
   1.316256e+02   1.488361e+02
  -3.096173e+01   4.046463e+02
  -2.067271e+02   3.359524e+02
  -2.375655e+02  -2.961917e-01
  -8.293534e+01  -2.278656e+02
   1.026290e+02  -8.570051e+01
   1.092962e+02   2.265962e+02
  -1.089819e+02   3.065128e+02
  -3.659459e+02   3.106264e+01
  -4.011786e+02  -3.190844e+02
  -1.379913e+02  -4.140301e+02
   2.398469e+02  -2.207920e+02
   4.245373e+02   5.383253e+01
   2.847701e+02   1.913377e+02
  -1.652650e+01   1.672811e+02
  -2.194511e+02   7.625537e+01
  -1.843846e+02   1.314180e+01
  -3.599887e+01   4.051049e+00
   2.036216e+01   2.311795e+01
  -7.902939e+01   1.317721e+01
  -1.710448e+02  -4.156009e+01
  -1.077042e+02  -1.479279e+02
   1.267094e+02  -2.170256e+02
   3.058744e+02  -1.370650e+02
   2.516467e+02   8.667413e+01
  -1.576375e+01   3.051360e+02
  -2.746683e+02   3.351582e+02
  -3.380623e+02   1.362396e+02
  -2.042464e+02  -1.458028e+02
  -3.992822e+01  -2.999191e+02
   7.844718e+00  -2.622631e+02
  -8.642662e+00  -1.628653e+02
   2.863184e+01  -1.185071e+02
   1.420911e+02  -1.135591e+02
   2.353284e+02  -3.554205e+01
   2.051974e+02   1.252859e+02
   6.359077e+01   2.285549e+02
  -9.089258e+01   1.586272e+02
  -1.640155e+02  -4.895563e+01
  -1.072944e+02  -2.209383e+02
   5.240471e+01  -2.135620e+02
   2.158716e+02  -4.372837e+01
   2.588388e+02   1.583181e+02
   1.428348e+02   2.535603e+02
  -3.382216e+01   2.217985e+02
  -1.284534e+02   1.404635e+02
  -1.230024e+02   8.985701e+01
  -1.392594e+02   7.519570e+01
  -2.573300e+02   3.212626e+01
  -3.662145e+02  -8.610144e+01
  -2.806003e+02  -2.622157e+02
   2.328127e+01  -3.722187e+02
   3.326512e+02  -3.363059e+02
   4.141437e+02  -1.508482e+02
   2.394585e+02   8.510234e+01
   1.088456e+01   2.076436e+02
  -7.432496e+01   1.577971e+02
   7.979563e+00   3.229578e+01
   1.032248e+02  -2.287702e+01
   9.624606e+01   3.824698e+01
  -3.483822e+00   1.105159e+02
  -8.630036e+01   7.712387e+01
  -7.055107e+01  -4.233239e+01
   3.071627e+01  -9.725934e+01
   1.312367e+02   6.842870e+00
   1.276535e+02   1.993785e+02
  -8.801476e+00   2.992715e+02
  -2.090020e+02   1.916246e+02
  -3.232714e+02  -4.417524e+01
  -2.557178e+02  -2.351693e+02
  -5.365197e+01  -2.491169e+02
   1.155089e+02  -1.219183e+02
   1.280455e+02  -4.032527e+00
   2.532772e+01   6.845018e+00
  -3.751578e+01  -6.414448e+01
   1.157493e+01  -9.846105e+01
   1.097494e+02  -4.999325e+01
   1.216638e+02   2.615369e+01
   2.206144e+01   4.503001e+01
  -7.383225e+01  -1.726866e+01
  -3.358845e+01  -8.605791e+01
   1.327513e+02  -7.995346e+01
   2.689285e+02   1.901994e+01
   2.257583e+02   1.543768e+02
   1.973075e+01   2.326039e+02
  -1.861529e+02   1.992915e+02
  -2.296012e+02   7.674139e+01
  -1.110143e+02  -3.756705e+01
   2.715865e+01  -6.015972e+01
   4.903077e+01   8.399506e+00
  -5.147584e+01   6.670694e+01
  -1.589392e+02   2.658327e+01
  -1.597152e+02  -8.859513e+01
  -4.895593e+01  -1.604100e+02
   7.346439e+01  -1.167598e+02
   1.066398e+02  -1.252187e+01
   3.725841e+01   3.308566e+01
  -4.179801e+01  -2.185402e+01
  -2.556531e+01  -1.031966e+02
   8.950994e+01  -1.085433e+02
   1.876001e+02  -8.621420e+00
   1.577718e+02   1.201293e+02
   7.965324e+00   1.799307e+02
  -1.326703e+02   1.294500e+02
  -1.461388e+02   1.332450e+01
  -4.773340e+01  -7.518197e+01
   5.079533e+01  -7.905049e+01
   5.827725e+01  -2.175259e+01
  -1.817909e+00   2.133578e+01
  -3.660330e+01   6.467451e+00
   3.880849e+00  -2.649345e+01
   8.119844e+01  -6.856958e+00
   1.001401e+02   8.158331e+01
   1.289919e+01   1.607329e+02
  -1.274067e+02   1.397610e+02
  -2.120067e+02   1.049999e+01
  -1.703769e+02  -1.372891e+02
  -3.790973e+01  -1.966156e+02
   8.159052e+01  -1.399422e+02
   1.088584e+02  -3.220591e+01
   6.582068e+01   3.250663e+01
   3.219326e+01   2.209356e+01
   5.103761e+01  -1.632085e+01
   8.032833e+01  -8.631548e+00
   5.495627e+01   5.034932e+01
  -3.241074e+01   9.930461e+01
  -1.125143e+02   6.553939e+01
  -1.002833e+02  -4.096273e+01
   1.565392e+01  -1.214291e+02
   1.521773e+02  -8.352541e+01
   1.889557e+02   6.073413e+01
   7.552430e+01   1.946487e+02
  -1.114386e+02   1.983603e+02
  -2.369345e+02   7.204476e+01
  -2.164443e+02  -8.017232e+01
  -8.905269e+01  -1.473111e+02
   3.384377e+01  -1.200485e+02
   7.668704e+01  -6.942399e+01
   5.853279e+01  -6.116505e+01
   4.722927e+01  -8.728408e+01
   7.796688e+01  -7.565589e+01
   1.177570e+02   1.163055e+01
   1.092987e+02   1.348941e+02
   2.600419e+01   1.999054e+02
  -8.741335e+01   1.478271e+02
  -1.491361e+02   9.640887e+00
  -1.099363e+02  -1.138909e+02
  -6.157167e+00  -1.394593e+02
   6.990690e+01  -7.160960e+01
   6.000763e+01   1.529168e+01
  -3.183529e+00   5.177396e+01
  -2.817634e+01   3.439544e+01
   2.107143e+01   9.919367e+00
   7.730846e+01   1.413611e+01
   4.904883e+01   3.616852e+01
  -6.409590e+01   3.758311e+01
  -1.578711e+02  -2.809333e-01
  -1.306458e+02  -5.871014e+01
   1.066600e+00  -9.115176e+01
   1.222711e+02  -6.900630e+01
   1.321344e+02  -5.394326e+00
   4.115554e+01   4.657586e+01
  -5.192609e+01   4.323979e+01
  -7.091780e+01  -1.292862e+01
  -2.418313e+01  -6.605603e+01
   3.586640e+01  -6.311289e+01
   6.330299e+01  -6.668476e+00
   5.759590e+01   4.376565e+01
   4.322554e+01   4.029060e+01
   4.570066e+01   3.542184e-01
   5.713229e+01  -1.463793e+00
   4.580367e+01   6.365392e+01
  -1.731681e+01   1.378533e+02
  -1.102993e+02   1.339847e+02
  -1.647771e+02   3.379110e+01
  -1.213639e+02  -8.182948e+01
  -4.523441e+00  -1.191216e+02
   8.171655e+01  -6.511988e+01
   5.517288e+01   5.651848e+00
  -5.128371e+01   1.676583e+01
  -1.173694e+02  -3.676168e+01
  -6.264136e+01  -9.417314e+01
   7.328093e+01  -9.575961e+01
   1.675315e+02  -3.826006e+01
   1.386171e+02   3.737437e+01
   2.602713e+01   7.378399e+01
  -5.721720e+01   4.946335e+01
  -4.239012e+01  -4.415883e+00
   3.526474e+01  -2.891335e+01
   8.220506e+01   1.416896e+01
   3.802566e+01   9.883236e+01
  -6.187666e+01   1.373604e+02
  -1.311542e+02   6.882202e+01
  -1.114913e+02  -7.307049e+01
  -1.869828e+01  -1.675864e+02
   6.915367e+01  -1.231543e+02
   9.105495e+01   1.210196e+01
   4.640896e+01   1.060819e+02
  -1.399615e+01   8.791782e+01
  -4.672339e+01   1.090620e+01
  -3.803470e+01  -2.779200e+01
  -1.289980e+01  -5.238044e+00
  -5.701638e+00   1.545225e+01
  -3.007291e+01  -2.079946e+01
  -5.314941e+01  -7.959843e+01
  -2.673832e+01  -9.008023e+01
   4.972960e+01  -3.520131e+01
   1.170676e+02   2.978766e+01
   1.083535e+02   5.708987e+01
   1.962571e+01   4.689603e+01
  -6.705632e+01   2.538445e+01
  -7.593792e+01   6.279243e+00
  -1.888994e+01  -1.004267e+01
   2.900411e+01  -1.879845e+01
   1.971478e+01  -9.494501e+00
  -1.115805e+01   3.934364e+00
   1.810239e+00   2.968578e+00
   5.452185e+01  -5.400846e+00
   8.157828e+01   1.533847e+01
   2.559000e+01   7.003799e+01
  -8.711358e+01   1.065393e+02
  -1.651154e+02   6.590848e+01
  -1.389835e+02  -4.400320e+01
  -3.426567e+01  -1.383106e+02
   6.817242e+01  -1.390144e+02
   1.006561e+02  -6.104544e+01
   6.958163e+01   1.502596e+01
   2.300242e+01   3.351101e+01
   4.135055e+00   1.213891e+01
   1.321335e+01   8.616510e+00
   2.664674e+01   4.342245e+01
   1.531792e+01   7.899037e+01
  -2.374594e+01   6.283895e+01
  -6.733652e+01  -1.116615e+01
  -7.240468e+01  -8.561810e+01
  -1.897538e+01  -9.539042e+01
   6.147432e+01  -3.171583e+01
   9.537567e+01   4.991177e+01
   4.139298e+01   8.831995e+01
  -5.266531e+01   6.127947e+01
  -9.392138e+01  -1.396294e+00
  -4.423348e+01  -5.153675e+01
   2.811695e+01  -5.891310e+01
   3.738647e+01  -2.839702e+01
  -2.036176e+01   7.601900e+00
  -6.008055e+01   1.085005e+01
  -1.808137e+01  -2.421056e+01
   6.786723e+01  -6.057073e+01
   1.067243e+02  -4.910719e+01
   6.478404e+01   1.389745e+01
  -9.495559e+00   7.622882e+01
  -5.056789e+01   7.579402e+01
  -4.092563e+01   1.500060e+01
  -9.728647e+00  -4.392486e+01
   1.802695e+01  -4.507122e+01
   3.288637e+01   4.805374e+00
   2.766857e+01   4.672583e+01
   1.747130e+00   3.741331e+01
  -2.901575e+01  -1.944535e+00
  -4.015667e+01  -2.198460e+01
  -2.007604e+01  -5.054384e+00
   4.586030e+00   1.888229e+01
   6.786478e+00   1.105386e+01
  -6.401417e+00  -2.562473e+01
  -5.878400e+00  -4.726812e+01
   1.975386e+01  -2.360557e+01
   3.786280e+01   2.570533e+01
   1.708339e+01   4.951403e+01
  -3.213326e+01   2.422166e+01
  -5.772151e+01  -2.469560e+01
  -2.183649e+01  -5.068204e+01
   4.715999e+01  -3.489619e+01
   8.361354e+01   3.557222e+00
   4.814387e+01   3.536535e+01
  -2.170205e+01   4.215125e+01
  -5.653466e+01   2.890776e+01
  -2.685130e+01   7.969859e+00
   2.214080e+01  -5.966052e+00
   2.852796e+01   1.350600e+00
  -1.657836e+01   2.171239e+01
  -6.435509e+01   2.176803e+01
