
 $NMID
 id='ANONYMOUS ', fmtdat='(2E16.6)'
 volume=1.0
 tramp=1.0
 $END
   3.495330e+03   4.389633e+01
   2.147015e+03   2.055813e+03
  -4.283775e+02   2.267180e+03
  -1.650412e+03   9.409681e+02
  -8.587502e+02  -2.957600e+02
   3.694542e+02  -3.615828e+02
   6.203514e+02   3.177316e+02
   9.099274e+00   7.967147e+02
  -6.285583e+02   6.216384e+02
  -7.562188e+02  -4.278704e+01
  -4.303126e+02  -7.019144e+02
   1.408546e+02  -7.269818e+02
   4.743983e+02  -1.178274e+02
   3.003032e+02   5.545813e+02
  -2.010432e+02   6.164052e+02
  -5.217380e+02   3.861146e+01
  -2.652558e+02  -5.683726e+02
   2.312979e+02  -5.896904e+02
   5.053637e+02  -1.598588e+02
   3.848602e+02   2.625471e+02
   6.134837e+01   3.826817e+02
  -1.780087e+02   2.339986e+02
  -1.330064e+02   2.262141e+01
   1.445185e+02  -1.231366e+01
   3.470265e+02   1.825691e+02
   9.862051e+01   3.901506e+02
  -4.465358e+02   2.936553e+02
  -7.088229e+02  -1.198066e+02
  -3.078368e+02  -4.509531e+02
   3.639895e+02  -3.420518e+02
   6.117363e+02   8.417769e+01
   2.520480e+02   4.179820e+02
  -2.836328e+02   4.220042e+02
  -4.961932e+02   1.509190e+02
  -3.382322e+02  -1.981875e+02
  -5.474569e+01  -3.830087e+02
   1.245999e+02  -2.082785e+02
   6.303128e+01   1.704442e+02
  -1.609923e+02   3.222752e+02
  -3.298968e+02  -8.777878e+01
  -1.232211e+02  -5.837089e+02
   2.896553e+02  -5.475845e+02
   4.545905e+02   2.067709e+01
   1.689640e+02   4.341501e+02
  -2.321664e+02   2.146342e+02
  -2.608205e+02  -3.026286e+02
   1.053467e+02  -4.478067e+02
   4.915904e+02  -8.598437e+01
   5.068608e+02   3.846305e+02
   1.358963e+02   5.249582e+02
  -3.398842e+02   2.978599e+02
  -5.537305e+02  -6.885708e+01
  -3.366985e+02  -3.134254e+02
   1.007964e+02  -2.903748e+02
   3.451446e+02  -5.873653e+01
   2.059948e+02   1.157589e+02
  -6.670657e+01   6.142723e+01
  -9.736824e+01  -1.113379e+02
   1.294855e+02  -1.245286e+02
   2.758518e+02   6.561465e+01
   1.255194e+02   2.384988e+02
  -1.644768e+02   2.284978e+02
  -3.173277e+02   9.327664e+01
  -2.168503e+02  -8.691050e+01
   9.005139e+00  -2.552855e+02
   2.367932e+02  -3.299547e+02
   3.338913e+02  -1.823569e+02
   2.498385e+02   1.509449e+02
   5.915187e+01   3.898134e+02
  -8.029734e+01   3.358597e+02
  -7.531722e+01   1.238182e+02
  -2.511641e+01   3.207499e+01
  -7.780628e+01   9.500705e+01
  -2.086615e+02   9.472387e+01
  -2.514261e+02  -8.351069e+01
  -1.220761e+02  -2.581910e+02
   8.613045e+01  -2.193502e+02
   2.087739e+02   1.985968e+01
   1.625792e+02   2.408246e+02
  -3.434393e+01   2.668417e+02
  -2.538027e+02   8.329291e+01
  -3.212930e+02  -1.688441e+02
  -1.610976e+02  -3.130726e+02
   8.122236e+01  -2.665147e+02
   1.881333e+02  -1.193068e+02
   1.316378e+02  -3.274733e+01
   1.073065e+02  -5.262517e+01
   2.406718e+02  -5.597263e+01
   3.868886e+02   6.635605e+01
   3.110691e+02   2.792199e+02
  -9.494746e+00   4.315585e+02
  -3.585691e+02   3.870775e+02
  -4.627528e+02   1.713442e+02
  -2.991346e+02  -1.069037e+02
  -3.218432e+01  -2.691505e+02
   1.196147e+02  -2.139653e+02
   5.195229e+01  -1.983359e+01
  -1.140942e+02   7.908256e+01
  -1.622710e+02  -2.412707e+01
  -2.607771e+01  -1.655784e+02
   1.359993e+02  -1.285550e+02
   1.369302e+02   6.265351e+01
  -3.137643e+01   1.586138e+02
  -1.779319e+02   1.227869e+01
  -1.486983e+02  -2.351511e+02
   3.252753e+01  -3.329116e+02
   2.299244e+02  -1.885119e+02
   3.240421e+02   6.289257e+01
   2.585938e+02   2.405562e+02
   7.022869e+01   2.559452e+02
  -1.164773e+02   1.401394e+02
  -1.545958e+02   1.105807e+01
  -4.113246e+01  -2.361717e+01
   6.218370e+01   4.668053e+01
   1.264109e+01   1.188586e+02
  -1.206603e+02   8.096205e+01
  -1.573406e+02  -2.146136e+01
  -4.014294e+01  -6.679252e+01
   8.258020e+01  -4.467272e+00
   4.719728e+01   8.293068e+01
  -1.308598e+02   8.981594e+01
  -2.805688e+02  -5.940968e+00
  -2.494074e+02  -1.486255e+02
  -4.326581e+01  -2.509855e+02
   1.869054e+02  -2.371570e+02
   2.639583e+02  -9.908191e+01
   1.425325e+02   5.625035e+01
  -3.330269e+01   9.110980e+01
  -7.818453e+01  -6.179580e+00
   4.465543e+01  -9.310122e+01
   1.872567e+02  -4.432744e+01
   1.917710e+02   1.048934e+02
   5.258550e+01   1.909940e+02
  -9.365649e+01   1.380023e+02
  -1.301904e+02   1.561089e+01
  -5.326850e+01  -4.021342e+01
   3.619756e+01   7.588475e+00
   3.216759e+01   9.301556e+01
  -8.106033e+01   1.117716e+02
  -1.944756e+02   1.984606e+01
  -1.766291e+02  -1.245798e+02
  -1.363678e+01  -2.039347e+02
   1.544202e+02  -1.472848e+02
   1.748748e+02  -2.847519e+00
   5.552194e+01   1.030603e+02
  -6.309039e+01   9.740157e+01
  -7.392683e+01   2.307732e+01
  -8.337741e+00  -2.565416e+01
   2.960418e+01  -1.228177e+01
  -7.746422e+00   1.776774e+01
  -7.688415e+01  -4.248414e-01
  -9.411551e+01  -8.052908e+01
  -1.319238e+01  -1.577379e+02
   1.278844e+02  -1.466668e+02
   2.259319e+02  -1.717373e+01
   1.868946e+02   1.480302e+02
   3.333409e+01   2.222836e+02
  -1.040436e+02   1.536178e+02
  -1.256231e+02   2.342283e+01
  -6.438305e+01  -4.997684e+01
  -2.549792e+01  -2.970554e+01
  -4.993331e+01   1.460885e+01
  -7.918447e+01   7.124300e+00
  -4.749312e+01  -5.063963e+01
   3.702746e+01  -9.206619e+01
   1.051806e+02  -5.939425e+01
   9.061436e+01   3.735233e+01
  -1.331921e+01   1.132897e+02
  -1.431231e+02   8.577661e+01
  -1.911803e+02  -5.443879e+01
  -8.736376e+01  -1.983760e+02
   1.130609e+02  -2.156186e+02
   2.567295e+02  -8.366460e+01
   2.373816e+02   8.801757e+01
   9.376599e+01   1.682903e+02
  -3.991885e+01   1.358316e+02
  -8.539185e+01   7.711553e+01
  -6.784385e+01   6.592501e+01
  -5.826752e+01   8.745204e+01
  -8.616317e+01   7.205854e+01
  -1.242468e+02  -1.930621e+01
  -1.147997e+02  -1.447909e+02
  -2.793527e+01  -2.129187e+02
   9.717836e+01  -1.593192e+02
   1.659483e+02  -1.332802e+01
   1.245958e+02   1.193733e+02
   1.160133e+01   1.487861e+02
  -6.834339e+01   8.017104e+01
  -5.813360e+01  -7.123358e+00
  -1.204040e+00  -4.520818e+01
   1.612439e+01  -3.240493e+01
  -3.049167e+01  -1.471163e+01
  -7.488815e+01  -1.915783e+01
  -4.189145e+01  -3.795429e+01
   6.477108e+01  -3.863299e+01
   1.556361e+02  -2.282583e+00
   1.358359e+02   5.442950e+01
   6.057007e+00   8.926199e+01
  -1.198673e+02   6.940989e+01
  -1.361530e+02   7.231015e+00
  -4.209956e+01  -4.494585e+01
   5.859427e+01  -3.793572e+01
   7.285946e+01   1.945867e+01
   1.177371e+01   6.789906e+01
  -4.971361e+01   5.709574e+01
  -6.304380e+01  -1.763306e+00
  -4.724575e+01  -4.915874e+01
  -4.117409e+01  -3.954258e+01
  -5.396058e+01  -1.062294e+00
  -6.197118e+01   1.322479e-02
  -3.899562e+01  -6.553231e+01
   2.583576e+01  -1.415806e+02
   1.141404e+02  -1.371418e+02
   1.633563e+02  -3.085836e+01
   1.206684e+02   8.854946e+01
   3.934789e+00   1.240356e+02
  -8.467191e+01   6.087783e+01
  -5.664964e+01  -1.579627e+01
   5.710915e+01  -2.211390e+01
   1.271368e+02   3.983067e+01
   6.746694e+01   1.017124e+02
  -7.753883e+01   1.046563e+02
  -1.777921e+02   4.412529e+01
  -1.468690e+02  -3.735270e+01
  -2.985767e+01  -8.099400e+01
   5.851340e+01  -6.089454e+01
   4.570385e+01  -2.229236e+00
  -3.783744e+01   2.624964e+01
  -8.553813e+01  -2.026518e+01
  -3.442984e+01  -1.080900e+02
   8.016320e+01  -1.430216e+02
   1.518625e+02  -5.999956e+01
   1.163969e+02   9.097363e+01
   9.751082e+00   1.812370e+02
  -7.923038e+01   1.327325e+02
  -9.859653e+01  -1.052229e+01
  -5.404890e+01  -1.137838e+02
   8.542837e+00  -1.003070e+02
   4.783303e+01  -1.732743e+01
   4.852096e+01   3.145861e+01
   2.097787e+01   9.066256e+00
   5.378011e+00  -1.794864e+01
   2.463161e+01   1.676576e+01
   5.370303e+01   8.595160e+01
   3.299337e+01   1.021724e+02
  -4.997991e+01   4.294211e+01
  -1.307745e+02  -3.587428e+01
  -1.192831e+02  -6.608785e+01
  -1.491914e+01  -4.932763e+01
   8.019971e+01  -2.260026e+01
   8.314684e+01  -4.457055e+00
   1.268374e+01   9.146553e+00
  -3.430524e+01   1.886940e+01
  -1.487480e+01   1.493089e+01
   1.729939e+01  -7.707815e-01
  -3.677244e+00  -5.736294e+00
  -6.546333e+01  -1.840687e+00
  -8.480470e+01  -2.135409e+01
  -1.398954e+01  -7.469165e+01
   1.047077e+02  -1.062206e+02
   1.734410e+02  -5.707199e+01
   1.356610e+02   5.778082e+01
   2.576636e+01   1.490662e+02
  -7.483795e+01   1.419276e+02
  -1.071786e+02   5.733601e+01
  -7.512261e+01  -2.153652e+01
  -2.332983e+01  -3.636901e+01
   8.914829e-01  -9.393531e+00
  -1.141929e+01  -3.851687e+00
  -3.099759e+01  -4.398820e+01
  -1.922066e+01  -8.603339e+01
   2.883150e+01  -6.844434e+01
   7.646465e+01   1.598132e+01
   7.397547e+01   1.002574e+02
   7.170560e+00   1.051237e+02
  -7.468308e+01   2.540921e+01
  -9.806337e+01  -6.609876e+01
  -3.315609e+01  -9.688095e+01
   6.125720e+01  -5.653309e+01
   9.456835e+01   8.292777e+00
   3.952572e+01   4.987123e+01
  -3.086367e+01   5.267724e+01
  -3.167134e+01   2.699868e+01
   2.981494e+01  -2.736087e+00
   6.536205e+01  -6.474396e+00
   1.513883e+01   2.544344e+01
  -7.443490e+01   6.289737e+01
  -1.105172e+02   5.256003e+01
  -6.134839e+01  -1.414756e+01
   1.470830e+01  -7.871657e+01
   5.299373e+01  -7.408890e+01
   3.980307e+01  -6.054899e+00
   3.149453e+00   5.102675e+01
  -2.379119e+01   4.170626e+01
  -3.310633e+01  -1.362881e+01
  -2.332144e+01  -4.962087e+01
   2.685559e+00  -3.244653e+01
   3.091625e+01   7.731342e+00
   3.684359e+01   2.194673e+01
   1.863609e+01   3.334149e+00
  -3.626051e+00  -1.522112e+01
  -6.154162e+00  -1.781834e+00
  -1.438784e+00   3.209600e+01
  -9.323825e+00   4.692831e+01
  -2.897356e+01   1.387407e+01
  -3.335383e+01  -3.775488e+01
  -4.868601e+00  -5.612898e+01
   3.927276e+01  -2.206188e+01
   5.656823e+01   3.293692e+01
   1.648208e+01   5.767142e+01
  -5.253033e+01   3.376731e+01
  -8.533236e+01  -1.220224e+01
  -4.627375e+01  -4.117110e+01
   2.742216e+01  -4.158408e+01
   6.044610e+01  -2.340558e+01
   2.456993e+01  -5.395401e+00
  -3.085941e+01   8.812702e-01
  -3.286611e+01  -1.028424e+01
   2.581248e+01  -2.678447e+01
   7.910537e+01  -1.912276e+01
