
 $NMID
 id='ANONYMOUS ', fmtdat='(2E16.6)'
 volume=1.0
 tramp=1.0
 $END
  -3.427379e+03  -3.397512e+01
  -1.952494e+03  -2.019816e+03
   6.014827e+02  -2.052131e+03
   1.598660e+03  -6.318716e+02
   6.770340e+02   5.209514e+02
  -5.468077e+02   4.112625e+02
  -6.899458e+02  -3.626882e+02
  -2.357118e+00  -8.255347e+02
   6.385779e+02  -6.146931e+02
   7.240299e+02   5.366837e+01
   3.129725e+02   6.420681e+02
  -1.926173e+02   6.975715e+02
  -5.039278e+02   8.705273e+01
  -2.849411e+02  -5.672285e+02
   2.087932e+02  -5.994797e+02
   4.502646e+02   1.968686e+01
   2.115400e+02   5.195988e+02
  -2.334076e+02   4.845836e+02
  -4.284975e+02   7.323613e+01
  -2.855573e+02  -2.561520e+02
  -2.125595e+01  -3.312597e+02
   1.901075e+02  -2.093641e+02
   1.744736e+02  -1.946332e+01
  -8.137787e+01   7.934756e+01
  -3.303461e+02  -7.320151e+01
  -1.742872e+02  -3.320061e+02
   3.499230e+02  -3.383433e+02
   6.695061e+02   4.868360e+01
   3.433390e+02   4.215752e+02
  -2.943522e+02   3.782772e+02
  -5.688302e+02  -1.539751e+01
  -2.750339e+02  -3.593423e+02
   1.956692e+02  -4.020649e+02
   4.250804e+02  -1.768388e+02
   3.321083e+02   1.537923e+02
   8.046744e+01   3.609469e+02
  -1.361939e+02   2.281079e+02
  -1.442336e+02  -1.628437e+02
   1.413891e+02  -3.447179e+02
   3.537051e+02  -4.432579e+00
   2.195860e+02   5.252541e+02
  -2.320987e+02   5.652494e+02
  -4.764662e+02   2.430515e+01
  -2.167440e+02  -4.245886e+02
   2.212185e+02  -2.619056e+02
   3.128007e+02   2.346396e+02
  -2.905640e+01   4.203645e+02
  -4.141454e+02   1.260128e+02
  -4.652313e+02  -2.868250e+02
  -1.456037e+02  -4.465601e+02
   2.827321e+02  -2.738752e+02
   4.867867e+02   4.613151e+01
   2.919539e+02   2.946962e+02
  -1.246357e+02   2.842519e+02
  -3.521405e+02   4.230071e+01
  -1.868491e+02  -1.592321e+02
   9.987166e+01  -8.573162e+01
   1.116721e+02   1.215838e+02
  -1.354626e+02   1.519757e+02
  -2.772786e+02  -5.054066e+01
  -1.173381e+02  -2.279198e+02
   1.531243e+02  -2.133261e+02
   2.495392e+02  -6.949977e+01
   1.537005e+02   5.322435e+01
  -4.307790e+00   1.650185e+02
  -1.473582e+02   2.534160e+02
  -2.524635e+02   1.832824e+02
  -2.337625e+02  -8.867963e+01
  -7.322212e+01  -3.331162e+02
   8.433231e+01  -2.984665e+02
   9.194646e+01  -8.545042e+01
   1.752265e+01   1.438465e+01
   2.474437e+01  -6.574508e+01
   1.454578e+02  -1.077093e+02
   2.138508e+02   2.841059e+01
   1.317533e+02   2.002831e+02
  -5.033788e+01   1.990997e+02
  -1.732342e+02   1.693218e+01
  -1.568530e+02  -1.758749e+02
  -2.620851e+00  -2.228516e+02
   1.925454e+02  -9.784711e+01
   2.763353e+02   1.155638e+02
   1.526981e+02   2.575662e+02
  -6.615845e+01   2.375859e+02
  -1.743829e+02   9.983312e+01
  -1.144779e+02   4.136875e+00
  -6.713458e+01   2.450452e+01
  -1.684720e+02   5.168770e+01
  -3.073736e+02  -2.669752e+01
  -2.649109e+02  -2.000584e+02
  -1.263619e+01  -3.300906e+02
   2.575860e+02  -3.278962e+02
   3.638356e+02  -1.742032e+02
   2.604456e+02   5.891041e+01
   5.378278e+01   2.211108e+02
  -9.360069e+01   2.002259e+02
  -6.372202e+01   2.579551e+01
   7.837313e+01  -8.871552e+01
   1.510627e+02  -5.668421e+00
   4.814065e+01   1.476746e+02
  -1.148867e+02   1.382944e+02
  -1.404737e+02  -3.956926e+01
   6.773326e+00  -1.462294e+02
   1.466374e+02  -2.934681e+01
   1.294259e+02   1.833751e+02
  -1.274040e+01   2.614052e+02
  -1.658409e+02   1.487032e+02
  -2.437924e+02  -3.520695e+01
  -2.152126e+02  -1.682503e+02
  -8.199901e+01  -1.957525e+02
   8.096785e+01  -1.245619e+02
   1.351104e+02  -2.007715e+01
   4.788199e+01   2.580059e+01
  -5.290068e+01  -2.564713e+01
  -2.924408e+01  -9.357867e+01
   8.990831e+01  -8.222913e+01
   1.380215e+02   1.235810e+00
   4.929012e+01   5.341971e+01
  -5.991569e+01   1.813717e+01
  -4.611157e+01  -4.852462e+01
   8.650821e+01  -6.799243e+01
   2.104804e+02  -1.162448e+01
   2.032520e+02   9.008796e+01
   5.758129e+01   1.879735e+02
  -1.279401e+02   2.069724e+02
  -2.108867e+02   1.073264e+02
  -1.338340e+02  -3.174070e+01
   1.221334e+01  -8.419319e+01
   6.870913e+01  -1.088553e+01
  -2.150391e+01   7.648708e+01
  -1.457992e+02   5.108443e+01
  -1.643363e+02  -6.924654e+01
  -6.147919e+01  -1.559382e+02
   6.441413e+01  -1.247380e+02
   1.075473e+02  -3.000373e+01
   5.835964e+01   2.654634e+01
  -1.729571e+01   7.179943e+00
  -3.096711e+01  -5.495116e+01
   4.485496e+01  -8.455488e+01
   1.420692e+02  -2.872946e+01
   1.477235e+02   8.065379e+01
   2.715685e+01   1.616199e+02
  -1.162325e+02   1.326693e+02
  -1.470935e+02   1.517557e+01
  -5.738237e+01  -8.234064e+01
   4.468113e+01  -8.962907e+01
   6.458407e+01  -3.128750e+01
   1.937115e+01   1.716715e+01
  -1.199160e+01   1.813654e+01
   4.997484e+00  -1.102076e+00
   4.836450e+01   4.414149e+00
   6.645222e+01   5.329542e+01
   1.901696e+01   1.134561e+02
  -8.355583e+01   1.178451e+02
  -1.697556e+02   2.982128e+01
  -1.552429e+02  -1.011942e+02
  -4.076556e+01  -1.745400e+02
   7.528756e+01  -1.316786e+02
   1.018956e+02  -2.460893e+01
   5.409971e+01   4.109191e+01
   2.130516e+01   2.802476e+01
   3.853268e+01  -9.773933e+00
   5.721569e+01  -5.768795e+00
   3.012086e+01   3.285449e+01
  -2.810656e+01   6.276558e+01
  -7.129344e+01   4.321839e+01
  -6.247133e+01  -1.944745e+01
   4.157602e+00  -7.782022e+01
   9.797021e+01  -6.851061e+01
   1.479178e+02   2.430974e+01
   8.865313e+01   1.406825e+02
  -6.377069e+01   1.747169e+02
  -1.939566e+02   8.627747e+01
  -1.996303e+02  -5.022327e+01
  -9.253234e+01  -1.256864e+02
   2.014672e+01  -1.127388e+02
   6.755518e+01  -6.854389e+01
   5.991064e+01  -5.513880e+01
   4.819859e+01  -6.929629e+01
   6.590190e+01  -6.057216e+01
   9.541861e+01   9.837303e+00
   9.230137e+01   1.102727e+02
   3.088022e+01   1.676206e+02
  -6.469294e+01   1.335335e+02
  -1.297354e+02   2.426260e+01
  -1.081003e+02  -8.443737e+01
  -2.417618e+01  -1.199447e+02
   4.437276e+01  -7.367812e+01
   4.647479e+01  -6.093332e+00
   7.883896e+00   2.990893e+01
  -5.248057e+00   2.764714e+01
   2.828413e+01   1.562512e+01
   5.869340e+01   1.678280e+01
   3.503099e+01   2.826226e+01
  -4.522289e+01   2.769846e+01
  -1.170007e+02   4.615272e+00
  -1.078560e+02  -3.262271e+01
  -1.811985e+01  -6.358659e+01
   8.438348e+01  -5.954848e+01
   1.096714e+02  -1.787177e+01
   3.998401e+01   2.681423e+01
  -4.333629e+01   3.041589e+01
  -5.643862e+01  -1.072763e+01
  -8.201613e+00  -4.818800e+01
   3.860729e+01  -4.272942e+01
   4.441548e+01   6.038657e-01
   3.053220e+01   3.387158e+01
   3.222941e+01   2.855239e+01
   4.665148e+01  -1.444976e+00
   5.001683e+01  -3.762301e+00
   2.858244e+01   4.661240e+01
  -1.805275e+01   1.085270e+02
  -7.898834e+01   1.070380e+02
  -1.174879e+02   3.009743e+01
  -9.178871e+01  -6.025539e+01
  -1.008916e+01  -8.880274e+01
   5.890220e+01  -4.472291e+01
   4.317633e+01   8.461247e+00
  -4.388213e+01   1.360044e+01
  -1.023830e+02  -3.113248e+01
  -5.962532e+01  -7.695661e+01
   5.615131e+01  -8.391632e+01
   1.394723e+02  -4.310705e+01
   1.233389e+02   2.018795e+01
   3.208268e+01   6.263997e+01
  -4.218247e+01   5.489148e+01
  -3.739954e+01   1.044654e+01
   2.591386e+01  -1.980508e+01
   6.612748e+01   1.324422e+01
   2.627263e+01   8.535959e+01
  -6.353448e+01   1.168319e+02
  -1.224493e+02   5.253968e+01
  -9.703329e+01  -6.994251e+01
  -1.624421e+01  -1.476724e+02
   5.927211e+01  -1.120440e+02
   7.893123e+01  -3.314873e-01
   5.163537e+01   8.347780e+01
   5.489521e+00   8.029374e+01
  -3.058668e+01   1.860693e+01
  -3.961032e+01  -1.933653e+01
  -2.094529e+01  -5.451550e+00
  -2.126858e+00   1.526283e+01
  -1.403455e+01  -9.599117e+00
  -4.405883e+01  -6.280679e+01
  -3.647272e+01  -7.831074e+01
   2.983275e+01  -3.484778e+01
   1.022042e+02   2.483373e+01
   9.884315e+01   4.876212e+01
   1.604842e+01   3.653153e+01
  -6.554400e+01   1.928081e+01
  -6.767607e+01   8.205780e+00
  -9.101805e+00  -4.908863e+00
   2.714441e+01  -1.888034e+01
   9.784385e+00  -1.760684e+01
  -1.547054e+01  -5.874731e-01
   6.471993e+00   7.511643e+00
   5.552915e+01   5.143450e+00
   6.771348e+01   1.664789e+01
   6.757956e+00   5.562036e+01
  -8.534443e+01   8.540184e+01
  -1.338942e+02   4.913267e+01
  -1.055133e+02  -4.214127e+01
  -2.427953e+01  -1.175420e+02
   5.274309e+01  -1.134851e+02
   8.124146e+01  -4.665321e+01
   6.065488e+01   1.368331e+01
   1.962541e+01   2.409192e+01
  -1.951583e+00   3.764348e+00
   7.754305e+00   8.233267e-01
   2.672988e+01   3.210727e+01
   2.026332e+01   6.623128e+01
  -1.935389e+01   5.394678e+01
  -6.075561e+01  -1.261264e+01
  -6.007473e+01  -7.888723e+01
  -5.415757e+00  -8.196968e+01
   5.994829e+01  -1.810450e+01
   7.732143e+01   5.377100e+01
   2.547670e+01   7.451686e+01
  -4.711644e+01   4.102925e+01
  -7.126793e+01  -6.738315e+00
  -2.953379e+01  -3.471140e+01
   2.251577e+01  -3.771307e+01
   2.069150e+01  -2.242534e+01
  -2.686603e+01  -1.077747e+00
  -5.197240e+01   6.239870e+00
  -1.205976e+01  -1.723525e+01
   5.612611e+01  -4.992405e+01
   8.218953e+01  -4.876315e+01
   4.675686e+01   5.702288e+00
  -9.253380e+00   6.134297e+01
  -3.563450e+01   6.029358e+01
  -2.597238e+01   6.713011e+00
  -1.303200e+00  -3.998937e+01
   1.708776e+01  -3.155501e+01
   2.634378e+01   1.257859e+01
   2.074133e+01   3.821905e+01
  -9.236602e-01   2.342125e+01
  -2.490000e+01  -6.157146e+00
  -2.985294e+01  -1.435715e+01
  -1.525787e+01   8.733931e-01
   3.868310e-01   1.121210e+01
   4.201259e+00  -2.531052e+00
   4.400380e+00  -2.770036e+01
   1.142378e+01  -3.200439e+01
   2.315339e+01  -5.743217e+00
   2.267005e+01   3.238098e+01
  -2.114736e+00   4.296690e+01
  -3.270076e+01   1.443361e+01
  -4.133057e+01  -2.885551e+01
  -1.014196e+01  -4.643901e+01
   3.954464e+01  -2.594310e+01
   6.409159e+01   9.145173e+00
   3.671082e+01   3.127148e+01
  -1.917980e+01   3.097559e+01
  -4.628742e+01   1.812928e+01
  -1.769105e+01   4.868109e+00
   2.688708e+01   1.148803e+00
   2.792484e+01   1.093274e+01
  -2.190170e+01   2.452618e+01
  -6.724674e+01   1.661113e+01
