
 $NMID
 id='ANONYMOUS ', fmtdat='(2E16.6)'
 volume=1.0
 tramp=1.0
 $END
   4.976964e+03   7.905538e+01
   2.751839e+03   3.071212e+03
  -9.824473e+02   3.012119e+03
  -2.422414e+03   8.161400e+02
  -9.845457e+02  -8.875541e+02
   8.373254e+02  -6.629270e+02
   1.026601e+03   5.399315e+02
  -4.267456e+01   1.228861e+03
  -9.805135e+02   8.527027e+02
  -1.064345e+03  -1.664928e+02
  -4.579714e+02  -9.747441e+02
   3.409464e+02  -9.816398e+02
   7.510796e+02  -8.017755e+01
   4.144333e+02   8.437448e+02
  -3.375139e+02   8.172390e+02
  -6.436587e+02  -3.942642e+01
  -2.582624e+02  -7.463065e+02
   3.935525e+02  -6.438949e+02
   6.233997e+02  -4.153758e+01
   3.857772e+02   3.941220e+02
  -1.105060e+01   4.618250e+02
  -2.817623e+02   2.729119e+02
  -2.556016e+02  -2.622652e-01
   1.078093e+02  -1.325407e+02
   4.530258e+02   8.392241e+01
   2.496119e+02   4.714811e+02
  -4.839792e+02   4.798607e+02
  -9.330946e+02  -5.838296e+01
  -4.832716e+02  -6.151174e+02
   4.228454e+02  -5.580237e+02
   8.169017e+02   3.411394e+01
   3.834497e+02   5.351208e+02
  -3.011491e+02   5.746547e+02
  -6.117849e+02   2.178768e+02
  -4.509048e+02  -2.653795e+02
  -6.394990e+01  -5.365249e+02
   2.642552e+02  -3.102338e+02
   2.267792e+02   2.706857e+02
  -1.884432e+02   4.898402e+02
  -5.362384e+02   3.085859e+00
  -3.021511e+02  -7.464024e+02
   3.602032e+02  -7.780277e+02
   7.051918e+02   6.841958e+00
   2.968894e+02   6.429526e+02
  -3.470133e+02   3.765784e+02
  -4.490267e+02  -3.480260e+02
   6.346931e+01  -5.993735e+02
   5.919956e+02  -1.516831e+02
   6.206666e+02   4.344176e+02
   1.549927e+02   6.248940e+02
  -4.190740e+02   3.684669e+02
  -6.702612e+02  -9.687632e+01
  -3.810945e+02  -4.364852e+02
   1.877101e+02  -4.064319e+02
   4.977863e+02  -3.871081e+01
   2.521594e+02   2.489886e+02
  -1.571562e+02   1.301454e+02
  -1.685211e+02  -1.936743e+02
   1.930858e+02  -2.230641e+02
   3.897445e+02   8.744145e+01
   1.442221e+02   3.422187e+02
  -2.420893e+02   2.652668e+02
  -3.408104e+02   5.121722e+01
  -1.808815e+02  -8.645912e+01
   2.488580e+01  -1.977486e+02
   2.041422e+02  -3.220600e+02
   3.386242e+02  -2.307625e+02
   3.214785e+02   1.435717e+02
   8.844188e+01   4.768665e+02
  -1.444758e+02   4.072775e+02
  -1.460504e+02   9.328443e+01
  -1.562637e+01  -3.927646e+01
  -1.995941e+01   9.030827e+01
  -1.897387e+02   1.587620e+02
  -3.012476e+02  -3.595098e+01
  -1.813424e+02  -2.830398e+02
   6.782136e+01  -2.818095e+02
   2.442763e+02  -2.444960e+01
   2.138797e+02   2.482982e+02
  -2.218595e+00   3.131635e+02
  -2.781711e+02   1.325643e+02
  -3.824432e+02  -1.713587e+02
  -1.940261e+02  -3.754626e+02
   1.172469e+02  -3.267887e+02
   2.520484e+02  -1.129728e+02
   1.538843e+02   1.773124e+01
   8.820497e+01  -2.989794e+01
   2.358724e+02  -7.475336e+01
   4.126689e+02   4.608636e+01
   3.438499e+02   2.911596e+02
   4.020198e+00   4.509271e+02
  -3.647890e+02   4.313559e+02
  -5.085625e+02   2.095567e+02
  -3.592032e+02  -1.024016e+02
  -6.641160e+01  -3.165332e+02
   1.423271e+02  -2.683406e+02
   1.023119e+02  -2.099022e+01
  -1.127691e+02   1.301424e+02
  -2.198885e+02  -3.805740e+00
  -5.840726e+01  -2.233002e+02
   1.886257e+02  -1.949769e+02
   2.044660e+02   7.451045e+01
  -1.941368e+01   2.192738e+02
  -2.134822e+02   4.140702e+01
  -1.740712e+02  -2.627629e+02
   3.566974e+01  -3.597958e+02
   2.330799e+02  -1.919455e+02
   3.228806e+02   6.325528e+01
   2.796190e+02   2.382970e+02
   1.017338e+02   2.664059e+02
  -1.128670e+02   1.676927e+02
  -1.872437e+02   2.001625e+01
  -6.149650e+01  -4.136498e+01
   7.967002e+01   3.293688e+01
   4.110230e+01   1.345890e+02
  -1.274397e+02   1.137125e+02
  -1.926679e+02  -8.741536e+00
  -6.680913e+01  -8.007346e+01
   8.147562e+01  -2.763436e+01
   6.373455e+01   6.901284e+01
  -1.174701e+02   9.051998e+01
  -2.787616e+02   8.926840e+00
  -2.691284e+02  -1.322779e+02
  -6.974022e+01  -2.592737e+02
   1.840818e+02  -2.733795e+02
   2.957657e+02  -1.332279e+02
   1.836037e+02   6.283669e+01
  -2.500803e+01   1.267541e+02
  -1.043694e+02   1.107941e+01
   2.509914e+01  -1.151240e+02
   2.040221e+02  -7.083429e+01
   2.249794e+02   1.070293e+02
   7.394584e+01   2.225639e+02
  -1.005581e+02   1.711282e+02
  -1.556755e+02   3.260415e+01
  -8.155276e+01  -4.828233e+01
   2.396112e+01  -1.406297e+01
   4.269615e+01   7.489223e+01
  -6.396203e+01   1.153121e+02
  -1.958003e+02   3.634805e+01
  -1.971304e+02  -1.224938e+02
  -2.453371e+01  -2.275030e+02
   1.741207e+02  -1.742993e+02
   2.071863e+02  -2.915658e+00
   7.108622e+01   1.277404e+02
  -7.209572e+01   1.212956e+02
  -9.264261e+01   3.344012e+01
  -2.631233e+01  -2.761796e+01
   1.705309e+01  -2.242438e+01
  -8.123193e+00   2.221371e+00
  -6.387875e+01  -1.172743e+01
  -8.342466e+01  -7.704896e+01
  -1.797675e+01  -1.541520e+02
   1.199852e+02  -1.559992e+02
   2.342215e+02  -3.553682e+01
   2.106166e+02   1.467840e+02
   4.885657e+01   2.452549e+02
  -1.120967e+02   1.790213e+02
  -1.428770e+02   2.718213e+01
  -7.299695e+01  -6.098541e+01
  -2.567313e+01  -3.834761e+01
  -5.087292e+01   1.087358e+01
  -7.667106e+01   4.744021e+00
  -3.728116e+01  -4.767594e+01
   4.178130e+01  -8.180961e+01
   9.614325e+01  -5.100737e+01
   7.991691e+01   3.162945e+01
  -1.180468e+01   1.040210e+02
  -1.360661e+02   8.388084e+01
  -1.971871e+02  -4.647991e+01
  -1.062848e+02  -2.000903e+02
   1.014732e+02  -2.354250e+02
   2.709268e+02  -1.043711e+02
   2.673052e+02   8.629635e+01
   1.151124e+02   1.843092e+02
  -4.051413e+01   1.540836e+02
  -9.880877e+01   8.650482e+01
  -8.284484e+01   6.928145e+01
  -7.038022e+01   8.855137e+01
  -9.546766e+01   7.135177e+01
  -1.276401e+02  -2.525216e+01
  -1.149869e+02  -1.576264e+02
  -2.846537e+01  -2.289900e+02
   9.847771e+01  -1.767535e+02
   1.788363e+02  -2.490713e+01
   1.419087e+02   1.221393e+02
   2.160541e+01   1.642164e+02
  -6.646050e+01   9.604202e+01
  -6.044790e+01   3.631388e+00
  -6.132180e+00  -3.956525e+01
   8.447536e+00  -3.237928e+01
  -3.847615e+01  -1.896523e+01
  -7.835267e+01  -2.590415e+01
  -4.172377e+01  -4.073609e+01
   6.299296e+01  -3.627901e+01
   1.532936e+02  -3.135798e+00
   1.401073e+02   5.087999e+01
   1.910349e+01   8.776055e+01
  -1.155110e+02   7.463742e+01
  -1.451117e+02   1.570227e+01
  -5.230542e+01  -3.833307e+01
   5.773273e+01  -3.529149e+01
   7.412370e+01   1.936572e+01
   4.712228e+00   6.750872e+01
  -5.740454e+01   5.515005e+01
  -6.196474e+01  -4.025203e+00
  -4.270257e+01  -4.925528e+01
  -4.200253e+01  -4.292135e+01
  -6.153545e+01  -5.509792e+00
  -6.614641e+01  -2.236485e+00
  -3.350884e+01  -6.615432e+01
   3.313126e+01  -1.411421e+02
   1.149820e+02  -1.383761e+02
   1.607224e+02  -3.460619e+01
   1.220308e+02   8.902303e+01
   7.749140e+00   1.236088e+02
  -8.288459e+01   5.851932e+01
  -5.791492e+01  -1.668322e+01
   5.954116e+01  -1.936880e+01
   1.364230e+02   4.527514e+01
   7.572505e+01   1.100572e+02
  -7.987472e+01   1.138435e+02
  -1.895147e+02   5.430973e+01
  -1.632546e+02  -3.160763e+01
  -3.828378e+01  -8.832428e+01
   6.148597e+01  -7.265327e+01
   4.983384e+01  -8.102312e+00
  -3.838582e+01   2.627487e+01
  -8.980022e+01  -2.393835e+01
  -2.900463e+01  -1.210190e+02
   9.711197e+01  -1.544021e+02
   1.712230e+02  -5.775192e+01
   1.265242e+02   1.058780e+02
   8.485582e+00   2.027614e+02
  -8.871457e+01   1.461727e+02
  -1.067911e+02  -7.004088e+00
  -6.367925e+01  -1.183455e+02
  -1.721612e+00  -1.079102e+02
   4.487187e+01  -2.290975e+01
   5.413801e+01   2.896383e+01
   2.961114e+01   7.595779e+00
   5.696465e+00  -2.081666e+01
   2.070016e+01   1.381667e+01
   5.542827e+01   9.005585e+01
   4.171047e+01   1.137006e+02
  -4.707978e+01   4.661580e+01
  -1.388460e+02  -3.969387e+01
  -1.307324e+02  -7.096139e+01
  -1.693282e+01  -4.874561e+01
   8.891485e+01  -2.137425e+01
   8.742094e+01  -7.432305e+00
   1.021207e+01   6.787583e+00
  -4.042807e+01   2.129244e+01
  -1.460482e+01   1.843007e+01
   2.300271e+01  -8.412521e-01
  -4.972554e+00  -1.021384e+01
  -7.447837e+01  -6.680212e+00
  -9.000245e+01  -2.620474e+01
  -3.747254e+00  -7.937109e+01
   1.236890e+02  -1.093663e+02
   1.849282e+02  -5.255263e+01
   1.364724e+02   7.041501e+01
   2.063218e+01   1.633575e+02
  -8.089037e+01   1.480217e+02
  -1.129681e+02   5.577594e+01
  -8.051485e+01  -2.339761e+01
  -2.520494e+01  -3.634199e+01
   4.672633e+00  -8.125839e+00
  -8.500507e+00  -1.341666e+00
  -3.354032e+01  -4.432577e+01
  -2.397623e+01  -9.036295e+01
   3.012083e+01  -7.219581e+01
   8.184932e+01   2.067366e+01
   7.425028e+01   1.115017e+02
  -1.265939e+00   1.124245e+02
  -8.476955e+01   2.028927e+01
  -1.008824e+02  -7.903451e+01
  -2.836770e+01  -1.030748e+02
   6.827257e+01  -5.299525e+01
   9.605136e+01   1.440152e+01
   3.693488e+01   4.966979e+01
  -3.316920e+01   4.875553e+01
  -2.930915e+01   2.595155e+01
   3.535208e+01   6.285813e-01
   7.021705e+01  -4.683172e+00
   1.456860e+01   2.621951e+01
  -8.114723e+01   6.545040e+01
  -1.180391e+02   5.837545e+01
  -6.324955e+01  -1.002715e+01
   1.663882e+01  -8.159451e+01
   5.260480e+01  -7.788004e+01
   3.414039e+01  -4.187807e+00
  -1.970763e+00   5.600059e+01
  -2.759879e+01   3.981307e+01
  -3.515442e+01  -2.227954e+01
  -2.394941e+01  -5.455388e+01
   4.178924e+00  -3.046850e+01
   3.239892e+01   9.932063e+00
   3.974874e+01   2.097933e+01
   2.179774e+01   7.593568e-01
   4.830435e-01  -1.199146e+01
  -8.455497e+00   7.315274e+00
  -1.069586e+01   3.733872e+01
  -2.103648e+01   4.098027e+01
  -3.284714e+01   1.841906e+00
  -2.624864e+01  -4.940774e+01
   7.633027e+00  -6.130010e+01
   4.698907e+01  -1.743958e+01
   5.477889e+01   4.306014e+01
   1.182958e+01   6.441045e+01
  -5.523544e+01   3.182711e+01
  -8.758493e+01  -1.843633e+01
  -4.709601e+01  -4.518621e+01
   2.978927e+01  -3.907641e+01
   6.524196e+01  -1.813598e+01
   2.311282e+01  -3.447247e+00
  -3.993941e+01  -4.898178e+00
  -3.852089e+01  -1.976508e+01
   3.387270e+01  -3.347836e+01
   9.614624e+01  -1.795807e+01
