
 $NMID
 id='ANONYMOUS ', fmtdat='(2E16.6)'
 volume=1.0
 tramp=1.0
 $END
   4.565979e+03  -2.975290e+01
   2.620372e+03   2.677602e+03
  -8.435645e+02   2.860944e+03
  -2.297555e+03   8.896759e+02
  -9.726544e+02  -7.900619e+02
   7.726419e+02  -6.775861e+02
   1.014409e+03   4.767447e+02
  -1.914200e+00   1.168537e+03
  -8.898944e+02   8.392611e+02
  -9.993319e+02  -1.158853e+02
  -4.397474e+02  -9.603704e+02
   2.855476e+02  -9.500818e+02
   7.039357e+02  -1.120064e+02
   4.178911e+02   7.887755e+02
  -3.016091e+02   8.182854e+02
  -6.805026e+02  -3.854797e+01
  -2.960743e+02  -7.432888e+02
   3.487981e+02  -6.706048e+02
   6.113446e+02  -7.778487e+01
   3.933034e+02   3.901464e+02
   6.963809e+00   4.685182e+02
  -2.680544e+02   2.725680e+02
  -2.405825e+02   1.801430e+00
   1.132075e+02  -1.353874e+02
   4.597201e+02   7.844985e+01
   2.527942e+02   4.563308e+02
  -4.767447e+02   4.787698e+02
  -9.302220e+02  -3.910765e+01
  -4.923444e+02  -5.988472e+02
   4.158264e+02  -5.641916e+02
   8.126734e+02  -3.420195e+00
   3.963761e+02   5.077726e+02
  -2.827852e+02   5.615101e+02
  -5.935547e+02   2.331609e+02
  -4.450827e+02  -2.331738e+02
  -7.918039e+01  -5.063831e+02
   2.207749e+02  -3.015542e+02
   2.159052e+02   2.433709e+02
  -1.799456e+02   5.241003e+02
  -4.998307e+02   1.223477e+01
  -3.119221e+02  -7.237508e+02
   3.133570e+02  -7.686894e+02
   6.555993e+02  -2.271433e+01
   3.074784e+02   5.983706e+02
  -3.087985e+02   3.657098e+02
  -4.388014e+02  -3.248938e+02
   3.852949e+01  -5.898683e+02
   5.773939e+02  -1.687926e+02
   6.341216e+02   4.042772e+02
   1.839268e+02   6.154013e+02
  -4.048289e+02   3.782921e+02
  -6.730590e+02  -6.279624e+01
  -4.025294e+02  -4.134743e+02
   1.728625e+02  -4.065277e+02
   4.845863e+02  -6.367525e+01
   2.557592e+02   2.248469e+02
  -1.477461e+02   1.251296e+02
  -1.735190e+02  -1.729087e+02
   1.720262e+02  -2.180100e+02
   3.806420e+02   6.906162e+01
   1.618869e+02   3.140159e+02
  -1.971701e+02   2.755079e+02
  -3.317113e+02   7.001077e+01
  -1.930083e+02  -8.286128e+01
   1.943903e+01  -2.112597e+02
   2.033973e+02  -3.245579e+02
   3.269582e+02  -2.314534e+02
   3.025040e+02   1.288142e+02
   9.241911e+01   4.515921e+02
  -1.255075e+02   3.939260e+02
  -1.441961e+02   9.816922e+01
  -2.637974e+01  -3.397575e+01
  -2.169774e+01   8.358247e+01
  -1.806814e+02   1.517395e+02
  -2.871419e+02  -3.282559e+01
  -1.816890e+02  -2.732350e+02
   6.120642e+01  -2.764439e+02
   2.379885e+02  -3.062882e+01
   2.213740e+02   2.317741e+02
   6.939282e+00   3.065134e+02
  -2.694918e+02   1.394518e+02
  -3.816553e+02  -1.563097e+02
  -2.049715e+02  -3.609594e+02
   1.014160e+02  -3.270389e+02
   2.438631e+02  -1.251982e+02
   1.597261e+02   5.642151e+00
   8.594720e+01  -2.553992e+01
   2.184605e+02  -7.266661e+01
   3.981877e+02   3.666272e+01
   3.459698e+02   2.762451e+02
   1.424184e+01   4.535914e+02
  -3.442770e+02   4.343406e+02
  -4.889003e+02   2.215242e+02
  -3.557906e+02  -8.559943e+01
  -7.434087e+01  -3.054061e+02
   1.345968e+02  -2.722445e+02
   1.007898e+02  -3.100193e+01
  -1.034634e+02   1.295289e+02
  -2.146544e+02   1.420076e+01
  -7.049677e+01  -2.030445e+02
   1.639291e+02  -1.939928e+02
   1.984433e+02   5.264199e+01
  -1.086580e+01   2.090183e+02
  -2.057072e+02   4.764782e+01
  -1.748682e+02  -2.479658e+02
   2.658246e+01  -3.531068e+02
   2.249236e+02  -1.986113e+02
   3.208931e+02   5.165281e+01
   2.845229e+02   2.257353e+02
   1.124795e+02   2.610430e+02
  -1.041564e+02   1.702107e+02
  -1.834090e+02   3.069415e+01
  -6.724599e+01  -3.509906e+01
   7.602210e+01   3.317301e+01
   4.041460e+01   1.310739e+02
  -1.242678e+02   1.136379e+02
  -1.892445e+02  -5.196333e+00
  -6.675044e+01  -7.779714e+01
   8.141564e+01  -2.704307e+01
   6.177315e+01   6.837622e+01
  -1.153688e+02   9.334124e+01
  -2.776565e+02   1.547743e+01
  -2.698250e+02  -1.241960e+02
  -7.749308e+01  -2.542540e+02
   1.677992e+02  -2.783800e+02
   2.832846e+02  -1.469084e+02
   1.815784e+02   4.528408e+01
  -1.703092e+01   1.184887e+02
  -9.484210e+01   1.510731e+01
   2.606138e+01  -1.087015e+02
   1.976482e+02  -7.371710e+01
   2.241196e+02   9.119761e+01
   8.243955e+01   2.112802e+02
  -8.720980e+01   1.696262e+02
  -1.467197e+02   4.091989e+01
  -7.997088e+01  -4.045578e+01
   2.278723e+01  -1.279271e+01
   4.187072e+01   7.263556e+01
  -5.915341e+01   1.130379e+02
  -1.913422e+02   4.084803e+01
  -1.979092e+02  -1.139096e+02
  -3.268992e+01  -2.204194e+02
   1.601327e+02  -1.731666e+02
   2.001204e+02  -1.174414e+01
   7.392975e+01   1.181119e+02
  -6.434796e+01   1.193983e+02
  -8.783046e+01   3.623417e+01
  -2.599571e+01  -2.543581e+01
   1.601502e+01  -2.320334e+01
  -9.467108e+00   2.127192e+00
  -6.774038e+01  -9.047751e+00
  -8.785773e+01  -7.611191e+01
  -2.105806e+01  -1.533799e+02
   1.167482e+02  -1.576537e+02
   2.303514e+02  -4.037966e+01
   2.074864e+02   1.375262e+02
   5.055644e+01   2.356914e+02
  -1.019844e+02   1.761487e+02
  -1.349594e+02   3.225324e+01
  -7.239525e+01  -5.564230e+01
  -2.888623e+01  -3.624881e+01
  -5.052123e+01   1.378538e+01
  -7.427588e+01   8.706741e+00
  -3.863133e+01  -4.616875e+01
   3.856238e+01  -8.337861e+01
   9.377618e+01  -5.371910e+01
   8.123705e+01   3.206846e+01
  -8.183196e+00   1.048375e+02
  -1.315280e+02   8.865079e+01
  -1.943829e+02  -3.897733e+01
  -1.123378e+02  -1.908474e+02
   8.935538e+01  -2.310768e+02
   2.578734e+02  -1.104916e+02
   2.613079e+02   7.087491e+01
   1.203067e+02   1.713125e+02
  -3.031454e+01   1.527956e+02
  -9.282201e+01   9.227865e+01
  -7.961369e+01   7.486307e+01
  -6.537663e+01   9.128671e+01
  -9.186857e+01   7.507145e+01
  -1.301621e+02  -1.976861e+01
  -1.225037e+02  -1.505103e+02
  -3.431403e+01  -2.246134e+02
   9.558514e+01  -1.758804e+02
   1.776384e+02  -2.668678e+01
   1.422844e+02   1.163577e+02
   2.683673e+01   1.602033e+02
  -6.112701e+01   9.700840e+01
  -6.040048e+01   7.089711e+00
  -1.098550e+01  -3.979278e+01
   2.649549e+00  -3.557800e+01
  -3.930067e+01  -1.957202e+01
  -7.481727e+01  -2.148972e+01
  -4.191886e+01  -3.722619e+01
   6.099424e+01  -4.068656e+01
   1.528369e+02  -8.650641e+00
   1.446796e+02   4.609057e+01
   2.192417e+01   8.826867e+01
  -1.127517e+02   7.925686e+01
  -1.438673e+02   2.001671e+01
  -4.983050e+01  -3.720299e+01
   5.833105e+01  -3.913961e+01
   7.451730e+01   1.631072e+01
   7.289745e+00   6.499514e+01
  -5.559329e+01   5.717680e+01
  -6.063136e+01  -7.336920e-01
  -4.022376e+01  -4.770586e+01
  -4.466647e+01  -3.941344e+01
  -6.243230e+01  -1.638371e+00
  -6.541613e+01   5.151805e-01
  -3.433580e+01  -6.531210e+01
   2.898941e+01  -1.442283e+02
   1.068759e+02  -1.422042e+02
   1.573186e+02  -3.678437e+01
   1.243124e+02   8.565070e+01
   1.352450e+01   1.241382e+02
  -8.132141e+01   6.331694e+01
  -6.116418e+01  -1.413419e+01
   5.488065e+01  -2.302394e+01
   1.370947e+02   3.643419e+01
   8.060455e+01   1.024658e+02
  -7.286490e+01   1.145355e+02
  -1.839935e+02   6.102959e+01
  -1.632222e+02  -2.581822e+01
  -4.257936e+01  -8.515976e+01
   5.574523e+01  -7.491897e+01
   4.901941e+01  -1.184992e+01
  -3.647249e+01   2.780197e+01
  -9.032956e+01  -1.900788e+01
  -3.621514e+01  -1.173387e+02
   8.815419e+01  -1.571100e+02
   1.697031e+02  -6.653252e+01
   1.308303e+02   9.991293e+01
   1.503684e+01   1.980508e+02
  -8.339741e+01   1.462824e+02
  -1.067183e+02  -2.793140e+00
  -6.675399e+01  -1.153366e+02
  -5.402900e+00  -1.079402e+02
   4.362502e+01  -2.373813e+01
   5.513125e+01   2.762537e+01
   2.914989e+01   7.925301e+00
   3.197543e+00  -2.262593e+01
   2.040906e+01   1.130116e+01
   6.052466e+01   8.517699e+01
   4.953741e+01   1.098736e+02
  -4.384253e+01   5.004435e+01
  -1.422880e+02  -3.402645e+01
  -1.346117e+02  -6.857552e+01
  -1.887960e+01  -5.179811e+01
   8.934464e+01  -2.718874e+01
   9.020667e+01  -1.177944e+01
   1.013051e+01   8.242728e+00
  -3.948606e+01   2.591827e+01
  -1.300371e+01   1.985232e+01
   2.264951e+01  -3.261197e+00
  -7.578569e+00  -9.807079e+00
  -7.626515e+01  -3.483928e+00
  -9.259654e+01  -2.274641e+01
  -7.983161e+00  -8.067238e+01
   1.182376e+02  -1.151728e+02
   1.806966e+02  -6.112247e+01
   1.402160e+02   6.389042e+01
   2.893004e+01   1.607270e+02
  -7.362590e+01   1.502847e+02
  -1.110931e+02   5.975977e+01
  -8.110585e+01  -2.091324e+01
  -2.473339e+01  -3.462247e+01
   4.256599e+00  -6.338421e+00
  -1.031309e+01  -7.978827e-01
  -3.528258e+01  -4.360782e+01
  -2.577410e+01  -8.944966e+01
   2.758571e+01  -7.217706e+01
   8.183869e+01   1.698259e+01
   7.852643e+01   1.065598e+02
   4.395856e+00   1.099140e+02
  -8.302582e+01   2.329702e+01
  -1.033063e+02  -7.316451e+01
  -3.351882e+01  -1.003247e+02
   6.448458e+01  -5.555177e+01
   9.482104e+01   8.255534e+00
   3.862097e+01   4.643101e+01
  -2.972665e+01   5.042065e+01
  -2.723673e+01   2.918889e+01
   3.479145e+01  -7.897142e-01
   6.797242e+01  -8.609799e+00
   1.492108e+01   2.384732e+01
  -7.425373e+01   6.868665e+01
  -1.092991e+02   6.180082e+01
  -6.141488e+01  -1.079898e+01
   1.286623e+01  -8.282389e+01
   4.922555e+01  -7.879092e+01
   3.630991e+01  -4.125245e+00
   3.009374e+00   5.688415e+01
  -2.477989e+01   4.242924e+01
  -3.683382e+01  -1.875366e+01
  -2.740070e+01  -5.272011e+01
   3.026191e+00  -3.055513e+01
   3.358331e+01   9.103649e+00
   3.964657e+01   1.922585e+01
   2.030057e+01   4.452699e-01
  -8.487443e-01  -1.280198e+01
  -7.613870e+00   5.234836e+00
  -9.196645e+00   3.646802e+01
  -1.866218e+01   4.168192e+01
  -3.215291e+01   5.231180e+00
  -2.830411e+01  -4.542182e+01
   3.601432e+00  -5.848229e+01
   4.435813e+01  -1.928938e+01
   5.602016e+01   3.849895e+01
   1.524573e+01   6.218862e+01
  -5.225214e+01   3.464934e+01
  -8.676434e+01  -1.301659e+01
  -4.944943e+01  -4.108735e+01
   2.692958e+01  -3.941077e+01
   6.256957e+01  -2.147473e+01
   2.244537e+01  -5.009098e+00
  -3.923439e+01  -1.883646e+00
  -3.887509e+01  -1.689847e+01
   3.025306e+01  -3.408535e+01
   9.124283e+01  -2.232369e+01
