
 $NMID
 id='ANONYMOUS ', fmtdat='(2E16.6)'
 volume=1.0
 tramp=1.0
 $END
  -4.122008e+03  -1.389720e+01
  -2.458550e+03  -2.505921e+03
   7.276859e+02  -2.674647e+03
   2.133225e+03  -8.563007e+02
   9.206697e+02   6.635402e+02
  -7.000027e+02   5.279475e+02
  -8.698499e+02  -4.662303e+02
   5.875861e+01  -1.065421e+03
   8.451962e+02  -7.445895e+02
   9.182073e+02   1.379281e+02
   4.289821e+02   8.963202e+02
  -2.671827e+02   8.716513e+02
  -6.301274e+02   9.387502e+01
  -3.520223e+02  -7.340772e+02
   2.970626e+02  -7.440685e+02
   6.385801e+02   1.790830e+01
   2.577233e+02   6.930680e+02
  -3.226561e+02   6.456251e+02
  -5.899592e+02   9.350239e+01
  -3.912845e+02  -3.607323e+02
  -1.458208e+01  -4.447069e+02
   2.476565e+02  -2.573110e+02
   2.072188e+02   2.495589e-01
  -1.309783e+02   9.503575e+01
  -4.321354e+02  -1.356270e+02
  -1.950322e+02  -4.564946e+02
   4.923792e+02  -4.111281e+02
   8.736179e+02   1.065298e+02
   4.230397e+02   5.751561e+02
  -4.183945e+02   4.837633e+02
  -7.663423e+02  -5.988705e+01
  -3.484086e+02  -5.034840e+02
   3.039759e+02  -5.223771e+02
   5.786638e+02  -1.859637e+02
   4.091717e+02   2.441283e+02
   4.516532e+01   4.725645e+02
  -2.053547e+02   2.575673e+02
  -1.455607e+02  -2.407179e+02
   1.974549e+02  -4.477831e+02
   4.512226e+02   5.287702e+01
   2.102124e+02   6.913977e+02
  -3.443690e+02   6.906388e+02
  -6.007392e+02  -8.902985e+00
  -2.502859e+02  -5.609983e+02
   3.039751e+02  -3.100039e+02
   3.774553e+02   3.289032e+02
  -7.243879e+01   5.471378e+02
  -5.580680e+02   1.347867e+02
  -5.872671e+02  -4.154747e+02
  -1.563024e+02  -5.916051e+02
   3.900892e+02  -3.428528e+02
   6.378654e+02   8.197865e+01
   3.772052e+02   3.955485e+02
  -1.571847e+02   3.699678e+02
  -4.447430e+02   5.421761e+01
  -2.346915e+02  -1.951211e+02
   1.235163e+02  -9.814203e+01
   1.410958e+02   1.564792e+02
  -1.682628e+02   1.863497e+02
  -3.441241e+02  -7.374488e+01
  -1.350513e+02  -2.936650e+02
   1.997544e+02  -2.488130e+02
   3.249512e+02  -6.621671e+01
   1.914414e+02   8.633258e+01
  -1.725395e+01   2.291256e+02
  -2.225956e+02   3.301191e+02
  -3.472818e+02   2.204268e+02
  -3.033446e+02  -1.469288e+02
  -8.488007e+01  -4.430606e+02
   1.313832e+02  -3.842608e+02
   1.281832e+02  -1.042125e+02
   2.049316e+01   1.310358e+01
   3.840863e+01  -9.452404e+01
   1.967319e+02  -1.371069e+02
   2.838615e+02   5.363925e+01
   1.582205e+02   2.769444e+02
  -7.835035e+01   2.615517e+02
  -2.348069e+02   1.188200e+01
  -2.052282e+02  -2.451385e+02
   1.188598e+01  -3.019104e+02
   2.729271e+02  -1.190286e+02
   3.666066e+02   1.737049e+02
   1.837512e+02   3.570635e+02
  -1.057650e+02   3.058773e+02
  -2.294475e+02   1.157075e+02
  -1.447848e+02   4.248405e+00
  -9.505976e+01   4.585747e+01
  -2.391864e+02   7.575442e+01
  -4.115026e+02  -5.886252e+01
  -3.372856e+02  -2.965887e+02
   9.841174e-01  -4.620165e+02
   3.616370e+02  -4.209608e+02
   4.900659e+02  -1.971979e+02
   3.376892e+02   9.704014e+01
   5.276728e+01   2.962588e+02
  -1.321770e+02   2.496849e+02
  -7.915131e+01   2.604691e+01
   1.207932e+02  -1.047039e+02
   2.025826e+02   1.453877e+01
   4.569027e+01   2.009657e+02
  -1.705343e+02   1.714333e+02
  -1.824058e+02  -6.648582e+01
   1.942910e+01  -1.927206e+02
   1.971869e+02  -3.076390e+01
   1.655646e+02   2.463056e+02
  -3.103404e+01   3.465797e+02
  -2.299807e+02   1.936920e+02
  -3.252347e+02  -6.069931e+01
  -2.732216e+02  -2.348181e+02
  -9.323712e+01  -2.627488e+02
   1.125889e+02  -1.565835e+02
   1.752895e+02  -1.870760e+01
   5.767730e+01   3.339835e+01
  -7.083269e+01  -3.996972e+01
  -2.921267e+01  -1.296828e+02
   1.259527e+02  -1.012184e+02
   1.816221e+02   1.348136e+01
   5.814400e+01   7.420819e+01
  -8.036800e+01   1.578227e+01
  -5.615528e+01  -7.296555e+01
   1.233607e+02  -8.570647e+01
   2.838199e+02  -9.118329e-02
   2.649043e+02   1.401162e+02
   5.877338e+01   2.578366e+02
  -1.896754e+02   2.644610e+02
  -2.875668e+02   1.249416e+02
  -1.694282e+02  -5.860654e+01
   2.866517e+01  -1.131921e+02
   9.262334e+01  -5.315356e+00
  -3.484223e+01   1.039944e+02
  -1.966664e+02   5.957665e+01
  -2.119591e+02  -1.032859e+02
  -6.624218e+01  -2.084348e+02
   9.532059e+01  -1.579549e+02
   1.418898e+02  -2.745874e+01
   6.731197e+01   4.282304e+01
  -2.972180e+01   2.945372e+00
  -3.577423e+01  -8.532789e+01
   7.385447e+01  -1.144143e+02
   2.000322e+02  -2.848542e+01
   1.915328e+02   1.272837e+02
   2.002451e+01   2.214375e+02
  -1.660919e+02   1.628859e+02
  -1.948082e+02   2.667932e+00
  -6.450435e+01  -1.168701e+02
   6.817780e+01  -1.097330e+02
   8.382580e+01  -2.805668e+01
   1.801424e+01   2.702230e+01
  -2.295795e+01   1.828771e+01
   6.944272e+00  -7.284850e+00
   6.874162e+01   7.982021e+00
   8.756681e+01   8.052548e+01
   1.440596e+01   1.575703e+02
  -1.288423e+02   1.516981e+02
  -2.353802e+02   2.200194e+01
  -2.003722e+02  -1.554587e+02
  -3.740907e+01  -2.408095e+02
   1.126255e+02  -1.705716e+02
   1.374110e+02  -2.543941e+01
   7.202134e+01   5.766799e+01
   2.958593e+01   3.628653e+01
   5.259714e+01  -1.228467e+01
   7.694083e+01  -5.938957e+00
   4.007528e+01   5.051598e+01
  -4.228844e+01   8.895832e+01
  -1.015288e+02   5.448291e+01
  -8.476050e+01  -3.701851e+01
   1.280725e+01  -1.116622e+02
   1.411816e+02  -8.526797e+01
   1.968896e+02   5.324178e+01
   1.000745e+02   2.034665e+02
  -1.076942e+02   2.284784e+02
  -2.690266e+02   9.553116e+01
  -2.589278e+02  -8.472424e+01
  -1.105870e+02  -1.760163e+02
   3.874578e+01  -1.487749e+02
   9.601493e+01  -8.543699e+01
   8.045525e+01  -7.101194e+01
   6.624541e+01  -8.900693e+01
   9.167791e+01  -7.197667e+01
   1.281903e+02   2.264046e+01
   1.188384e+02   1.536115e+02
   2.790805e+01   2.259037e+02
  -1.024124e+02   1.718995e+02
  -1.777233e+02   2.005726e+01
  -1.366940e+02  -1.227476e+02
  -1.745091e+01  -1.601346e+02
   6.806158e+01  -9.218836e+01
   6.065770e+01   7.733181e-02
   5.560335e+00   4.376503e+01
  -1.001722e+01   3.553805e+01
   3.483068e+01   1.959436e+01
   7.561503e+01   2.059530e+01
   4.285897e+01   3.592986e+01
  -6.349886e+01   3.661375e+01
  -1.540750e+02   3.480204e+00
  -1.413645e+02  -5.018012e+01
  -1.444570e+01  -8.993771e+01
   1.206356e+02  -7.341182e+01
   1.434405e+02  -1.088288e+01
   4.772308e+01   4.158942e+01
  -5.950273e+01   3.714494e+01
  -7.488979e+01  -2.006714e+01
  -8.351783e+00  -6.798309e+01
   5.373471e+01  -5.566135e+01
   6.158656e+01   3.589555e+00
   4.244277e+01   4.953662e+01
   4.257308e+01   3.998546e+01
   5.993811e+01   2.447915e+00
   6.369086e+01   2.328022e+00
   3.278459e+01   6.818706e+01
  -3.388140e+01   1.424375e+02
  -1.150916e+02   1.380041e+02
  -1.621890e+02   3.160819e+01
  -1.227266e+02  -9.066136e+01
  -7.032336e+00  -1.260063e+02
   8.556795e+01  -6.166614e+01
   6.042883e+01   1.464513e+01
  -5.625574e+01   1.963972e+01
  -1.346581e+02  -4.078096e+01
  -7.517504e+01  -1.044779e+02
   7.738370e+01  -1.112754e+02
   1.866442e+02  -5.287573e+01
   1.612354e+02   3.312270e+01
   3.819904e+01   8.671605e+01
  -6.077216e+01   7.037867e+01
  -4.973749e+01   6.912242e+00
   3.786497e+01  -2.735851e+01
   9.011486e+01   2.184850e+01
   3.405782e+01   1.177883e+02
  -9.201328e+01   1.540299e+02
  -1.680661e+02   6.099917e+01
  -1.265005e+02  -1.008974e+02
  -1.098682e+01  -1.968746e+02
   8.475433e+01  -1.427700e+02
   1.044190e+02   7.714948e+00
   6.095992e+01   1.166432e+02
  -1.708704e+00   1.052987e+02
  -4.607609e+01   2.097536e+01
  -5.188303e+01  -3.181719e+01
  -2.552838e+01  -9.174158e+00
  -3.246034e+00   2.006667e+01
  -2.097027e+01  -1.382289e+01
  -5.628284e+01  -8.745353e+01
  -4.194497e+01  -1.082714e+02
   4.694572e+01  -4.688987e+01
   1.379644e+02   3.759429e+01
   1.292517e+02   6.981152e+01
   1.704121e+01   4.995176e+01
  -8.771563e+01   2.270113e+01
  -8.767221e+01   6.795784e+00
  -1.076195e+01  -7.565499e+00
   3.808696e+01  -2.173296e+01
   1.326809e+01  -1.882919e+01
  -2.135820e+01   2.820883e-01
   6.698216e+00   8.809983e+00
   7.440835e+01   5.471108e+00
   9.034880e+01   2.414680e+01
   7.442579e+00   7.827841e+01
  -1.164510e+02   1.115562e+02
  -1.802972e+02   5.684493e+01
  -1.368370e+02  -6.382021e+01
  -2.402207e+01  -1.588217e+02
   7.751712e+01  -1.472825e+02
   1.135534e+02  -5.820276e+01
   8.034526e+01   2.233984e+01
   2.505394e+01   3.578404e+01
  -2.916740e+00   8.810182e+00
   1.000804e+01   2.939230e+00
   3.229268e+01   4.487205e+01
   2.239905e+01   8.977544e+01
  -2.934354e+01   7.119300e+01
  -7.997413e+01  -1.936528e+01
  -7.525012e+01  -1.080525e+02
  -3.081512e+00  -1.092958e+02
   8.053728e+01  -2.177995e+01
   1.002433e+02   7.463013e+01
   3.061601e+01   1.005614e+02
  -6.560568e+01   5.448792e+01
  -9.642379e+01  -1.104807e+01
  -3.891694e+01  -4.906273e+01
   3.123913e+01  -5.114803e+01
   3.099643e+01  -2.851403e+01
  -3.225134e+01   9.143726e-01
  -6.772050e+01   7.406235e+00
  -1.503172e+01  -2.381497e+01
   7.666810e+01  -6.440451e+01
   1.145384e+02  -5.571852e+01
   6.238954e+01   1.343385e+01
  -1.542039e+01   8.175508e+01
  -5.328177e+01   7.661662e+01
  -3.824408e+01   3.396532e+00
  -9.701914e-01  -5.471406e+01
   2.624056e+01  -4.123392e+01
   3.617214e+01   1.901251e+01
   2.447522e+01   5.329274e+01
  -3.344099e+00   3.232574e+01
  -3.230562e+01  -8.920039e+00
  -3.871462e+01  -2.114292e+01
  -1.989856e+01  -1.662664e+00
   4.411148e-01   1.468554e+01
   7.115650e+00  -3.347495e+00
   7.523948e+00  -3.544826e+01
   1.727177e+01  -4.306138e+01
   3.197357e+01  -6.098058e+00
   2.891950e+01   4.446130e+01
  -2.048705e+00   5.874789e+01
  -4.388056e+01   1.901721e+01
  -5.514916e+01  -3.813195e+01
  -1.429317e+01  -6.085258e+01
   5.353693e+01  -3.373234e+01
   8.726485e+01   1.452800e+01
   4.816127e+01   4.276363e+01
  -2.779533e+01   3.992214e+01
  -6.272818e+01   2.070283e+01
  -2.246477e+01   5.002531e+00
   3.651772e+01   3.971742e+00
   3.530688e+01   1.673934e+01
  -3.220115e+01   3.002281e+01
  -8.943490e+01   1.758409e+01
