
 $NMID
 id='ANONYMOUS ', fmtdat='(2E16.6)'
 volume=1.0
 tramp=1.0
 $END
   3.718857e+03   2.431109e+01
   2.253303e+03   2.053739e+03
  -3.576411e+02   2.336698e+03
  -1.605668e+03   9.966000e+02
  -8.653897e+02  -1.728916e+02
   3.019485e+02  -2.953316e+02
   5.731691e+02   3.186449e+02
  -4.560893e-01   7.760205e+02
  -6.150475e+02   6.436250e+02
  -7.651122e+02  -1.022018e+01
  -4.320807e+02  -7.095458e+02
   1.173416e+02  -7.603293e+02
   4.744386e+02  -1.465665e+02
   3.110828e+02   5.699968e+02
  -1.939651e+02   6.508231e+02
  -5.348540e+02   3.861050e+01
  -3.042943e+02  -5.812067e+02
   1.879905e+02  -6.411570e+02
   5.149829e+02  -2.150109e+02
   4.191897e+02   2.448265e+02
   8.877166e+01   3.925307e+02
  -1.785579e+02   2.508230e+02
  -1.431226e+02   3.474857e+01
   1.653217e+02  -3.308669e+00
   3.669886e+02   2.034335e+02
   9.931368e+01   4.188060e+02
  -4.950730e+02   2.958413e+02
  -7.597925e+02  -1.533926e+02
  -3.283859e+02  -4.858834e+02
   3.815897e+02  -3.520392e+02
   6.511255e+02   9.037664e+01
   2.740914e+02   4.348689e+02
  -2.825995e+02   4.433571e+02
  -5.136306e+02   1.730961e+02
  -3.657590e+02  -1.910872e+02
  -6.903155e+01  -3.931352e+02
   1.230589e+02  -2.288126e+02
   6.213500e+01   1.729019e+02
  -1.914899e+02   3.386285e+02
  -3.394667e+02  -8.920679e+01
  -1.396009e+02  -6.034674e+02
   2.920424e+02  -5.786638e+02
   4.649041e+02   1.359293e+00
   1.838981e+02   4.387850e+02
  -2.293928e+02   2.287279e+02
  -2.848980e+02  -3.098003e+02
   8.831710e+01  -4.762647e+02
   5.026012e+02  -1.024384e+02
   5.511157e+02   3.855937e+02
   1.741865e+02   5.416620e+02
  -3.390383e+02   3.127773e+02
  -5.771794e+02  -6.156743e+01
  -3.598508e+02  -3.176725e+02
   1.066837e+02  -2.942123e+02
   3.671782e+02  -5.499186e+01
   2.168254e+02   1.231271e+02
  -7.348824e+01   6.141876e+01
  -9.838684e+01  -1.069221e+02
   1.388649e+02  -1.228883e+02
   2.957018e+02   6.960093e+01
   1.286414e+02   2.454644e+02
  -1.659675e+02   2.538319e+02
  -3.342602e+02   1.217576e+02
  -2.486674e+02  -7.018583e+01
  -1.014759e+01  -2.745849e+02
   2.409897e+02  -3.729649e+02
   3.672608e+02  -2.159273e+02
   2.759560e+02   1.445791e+02
   6.981331e+01   3.965503e+02
  -7.806137e+01   3.457680e+02
  -7.072137e+01   1.325741e+02
  -1.984445e+01   4.663083e+01
  -8.127751e+01   1.156463e+02
  -2.228521e+02   1.069925e+02
  -2.669422e+02  -8.658689e+01
  -1.299591e+02  -2.786548e+02
   8.661101e+01  -2.364467e+02
   2.153794e+02   1.051531e+01
   1.762080e+02   2.456747e+02
  -2.419905e+01   2.803390e+02
  -2.584087e+02   9.661132e+01
  -3.419382e+02  -1.644701e+02
  -1.851222e+02  -3.212206e+02
   7.045531e+01  -2.865800e+02
   1.859833e+02  -1.438151e+02
   1.401136e+02  -5.316276e+01
   1.184081e+02  -6.278337e+01
   2.610824e+02  -5.868136e+01
   4.115181e+02   6.828619e+01
   3.362216e+02   2.854202e+02
   2.550277e+00   4.497997e+02
  -3.594168e+02   4.154532e+02
  -4.827036e+02   1.969030e+02
  -3.191805e+02  -9.647724e+01
  -4.466778e+01  -2.785434e+02
   1.151900e+02  -2.319084e+02
   5.218182e+01  -3.079813e+01
  -1.112966e+02   8.028814e+01
  -1.626754e+02  -1.615100e+01
  -2.875483e+01  -1.676179e+02
   1.370505e+02  -1.346795e+02
   1.421668e+02   6.041067e+01
  -2.972972e+01   1.642518e+02
  -1.814973e+02   1.929969e+01
  -1.623751e+02  -2.400882e+02
   1.851323e+01  -3.490782e+02
   2.315275e+02  -2.136579e+02
   3.456327e+02   4.761199e+01
   2.912653e+02   2.435962e+02
   9.265936e+01   2.753332e+02
  -1.184717e+02   1.602570e+02
  -1.691912e+02   1.562735e+01
  -4.892023e+01  -2.614472e+01
   6.836151e+01   4.820427e+01
   1.719385e+01   1.245455e+02
  -1.257200e+02   8.821583e+01
  -1.652967e+02  -2.059485e+01
  -4.373959e+01  -6.728400e+01
   8.541156e+01  -3.156029e+00
   4.977198e+01   8.749770e+01
  -1.339759e+02   9.541005e+01
  -2.935467e+02  -1.087109e+00
  -2.673070e+02  -1.511967e+02
  -5.401579e+01  -2.650488e+02
   1.910927e+02  -2.574174e+02
   2.797370e+02  -1.173705e+02
   1.586074e+02   4.899038e+01
  -2.742529e+01   9.537090e+01
  -8.025841e+01  -7.245454e-01
   4.176256e+01  -9.570964e+01
   1.910813e+02  -5.057387e+01
   2.062169e+02   1.018182e+02
   6.764278e+01   1.982796e+02
  -8.855747e+01   1.481606e+02
  -1.342332e+02   2.369451e+01
  -5.738073e+01  -4.093170e+01
   3.875994e+01   5.494270e+00
   3.775422e+01   9.804828e+01
  -7.952433e+01   1.242943e+02
  -2.051220e+02   3.125741e+01
  -1.920727e+02  -1.239579e+02
  -2.408194e+01  -2.131463e+02
   1.537655e+02  -1.598128e+02
   1.828490e+02  -1.222661e+01
   6.074947e+01   1.012868e+02
  -6.286029e+01   1.007906e+02
  -7.638984e+01   2.652830e+01
  -1.025032e+01  -2.700728e+01
   3.195118e+01  -1.618977e+01
  -4.075704e+00   1.676303e+01
  -7.534251e+01   1.951695e+00
  -9.898046e+01  -8.107571e+01
  -1.915745e+01  -1.661236e+02
   1.321721e+02  -1.585185e+02
   2.398155e+02  -2.171135e+01
   2.006503e+02   1.560079e+02
   4.118442e+01   2.361452e+02
  -1.048719e+02   1.666793e+02
  -1.334254e+02   3.216269e+01
  -7.539000e+01  -4.816830e+01
  -3.259424e+01  -3.214070e+01
  -5.346954e+01   1.286369e+01
  -8.266499e+01   9.198724e+00
  -5.215984e+01  -5.021230e+01
   3.510827e+01  -9.662752e+01
   1.089758e+02  -6.785054e+01
   9.979477e+01   3.364188e+01
  -8.667614e+00   1.219384e+02
  -1.514624e+02   9.713014e+01
  -2.076943e+02  -5.217202e+01
  -1.010928e+02  -2.097808e+02
   1.118869e+02  -2.326851e+02
   2.684675e+02  -9.649514e+01
   2.548664e+02   8.481208e+01
   1.090740e+02   1.723828e+02
  -3.483500e+01   1.442663e+02
  -8.922621e+01   8.338359e+01
  -7.232269e+01   7.067237e+01
  -6.001840e+01   9.458209e+01
  -8.965750e+01   8.022858e+01
  -1.313258e+02  -1.507657e+01
  -1.221975e+02  -1.499054e+02
  -3.250354e+01  -2.266900e+02
   9.913680e+01  -1.719481e+02
   1.768998e+02  -1.818952e+01
   1.363472e+02   1.254274e+02
   1.538684e+01   1.612552e+02
  -7.402325e+01   8.904172e+01
  -6.561192e+01  -5.502099e+00
  -3.597184e+00  -4.981534e+01
   1.834920e+01  -3.795978e+01
  -3.130937e+01  -1.428353e+01
  -8.366560e+01  -1.733033e+01
  -5.051942e+01  -3.916236e+01
   6.522793e+01  -4.418735e+01
   1.664544e+02  -7.185785e+00
   1.494612e+02   5.653985e+01
   1.281384e+01   9.728139e+01
  -1.249193e+02   7.941511e+01
  -1.468784e+02   1.051821e+01
  -4.980687e+01  -4.886523e+01
   5.809959e+01  -4.391060e+01
   7.781142e+01   1.720993e+01
   1.650495e+01   7.076295e+01
  -4.926220e+01   6.300793e+01
  -6.635173e+01   3.759197e+00
  -5.307322e+01  -4.812367e+01
  -4.960520e+01  -4.179795e+01
  -5.985446e+01  -2.778220e+00
  -6.592507e+01   1.191574e+00
  -4.311069e+01  -6.589141e+01
   2.293721e+01  -1.486025e+02
   1.134075e+02  -1.512002e+02
   1.726543e+02  -4.419538e+01
   1.337919e+02   8.767576e+01
   1.311979e+01   1.313053e+02
  -8.554942e+01   7.101974e+01
  -6.354301e+01  -1.036975e+01
   5.338194e+01  -2.234952e+01
   1.339789e+02   3.947089e+01
   7.648479e+01   1.043670e+02
  -7.715621e+01   1.113928e+02
  -1.877280e+02   5.253358e+01
  -1.621512e+02  -3.377105e+01
  -3.780978e+01  -8.542446e+01
   6.175454e+01  -6.819023e+01
   5.179823e+01  -4.657679e+00
  -3.712344e+01   3.164169e+01
  -9.375668e+01  -1.639737e+01
  -4.369547e+01  -1.154924e+02
   7.899983e+01  -1.579241e+02
   1.604607e+02  -7.189238e+01
   1.280056e+02   9.185149e+01
   1.686005e+01   1.916773e+02
  -8.024232e+01   1.408958e+02
  -1.051492e+02  -7.116590e+00
  -6.047261e+01  -1.171039e+02
   5.132062e+00  -1.059307e+02
   4.815850e+01  -2.029686e+01
   4.922618e+01   3.064685e+01
   2.228262e+01   8.386842e+00
   6.000900e+00  -1.878153e+01
   2.712444e+01   1.545551e+01
   5.913864e+01   8.643365e+01
   3.896852e+01   1.080250e+02
  -5.012095e+01   4.873988e+01
  -1.375286e+02  -3.381945e+01
  -1.284012e+02  -7.118125e+01
  -2.134600e+01  -5.520340e+01
   8.231655e+01  -2.570252e+01
   8.915455e+01  -9.123482e+00
   1.690018e+01   8.807500e+00
  -3.573781e+01   2.186647e+01
  -1.753488e+01   1.686148e+01
   1.758933e+01  -2.172798e+00
  -3.381610e+00  -6.863083e+00
  -6.861202e+01  -1.267217e+00
  -9.265517e+01  -2.034101e+01
  -1.936469e+01  -7.765436e+01
   1.070334e+02  -1.165715e+02
   1.835873e+02  -6.940917e+01
   1.502773e+02   5.518817e+01
   3.688569e+01   1.577647e+02
  -7.222079e+01   1.558391e+02
  -1.135080e+02   6.837663e+01
  -8.296540e+01  -1.762443e+01
  -2.899783e+01  -3.606590e+01
  -8.181296e-01  -1.028343e+01
  -1.252509e+01  -4.481429e+00
  -3.272506e+01  -4.608801e+01
  -2.365763e+01  -9.086170e+01
   2.619632e+01  -7.448234e+01
   7.975555e+01   1.193391e+01
   8.222304e+01   1.005805e+02
   1.329599e+01   1.105167e+02
  -7.610962e+01   3.139915e+01
  -1.049053e+02  -6.423063e+01
  -4.031601e+01  -1.008010e+02
   6.033100e+01  -6.342350e+01
   1.001600e+02   3.648209e+00
   4.686364e+01   5.161983e+01
  -2.900650e+01   5.898910e+01
  -3.495646e+01   3.217161e+01
   2.765996e+01  -2.679078e+00
   6.798434e+01  -1.036607e+01
   2.048162e+01   2.468055e+01
  -7.473727e+01   6.897071e+01
  -1.195198e+02   6.041556e+01
  -7.215288e+01  -1.211235e+01
   1.113048e+01  -8.505245e+01
   5.464995e+01  -8.427094e+01
   4.210144e+01  -1.126659e+01
   5.460953e+00   5.454477e+01
  -2.356765e+01   4.744018e+01
  -3.695607e+01  -1.236186e+01
  -3.001928e+01  -5.355612e+01
  -7.988597e-01  -3.706447e+01
   3.328157e+01   5.662439e+00
   4.254377e+01   2.180278e+01
   2.132940e+01   2.180977e+00
  -3.691062e+00  -1.723500e+01
  -8.500215e+00  -3.698577e+00
   4.255132e-02   3.172460e+01
  -3.416777e+00   4.703112e+01
  -2.459186e+01   1.621995e+01
  -3.602850e+01  -3.499768e+01
  -9.911215e+00  -5.623338e+01
   3.950107e+01  -2.490160e+01
   6.098380e+01   3.058163e+01
   2.118336e+01   5.966963e+01
  -5.289852e+01   3.894365e+01
  -9.092451e+01  -7.567689e+00
  -5.287404e+01  -4.104490e+01
   2.432190e+01  -4.483920e+01
   6.208712e+01  -2.883950e+01
   2.720280e+01  -6.806245e+00
  -3.035364e+01   1.693816e+00
  -3.458236e+01  -8.768018e+00
   2.462845e+01  -2.731265e+01
   8.168098e+01  -2.157157e+01
