
 $NMID
 id='ANONYMOUS ', fmtdat='(2E16.6)'
 volume=1.0
 tramp=1.0
 $END
   3.680207e+03   1.285698e+02
   2.156230e+03   2.128471e+03
  -4.902021e+02   2.258833e+03
  -1.636980e+03   8.772970e+02
  -8.836345e+02  -3.264164e+02
   3.755363e+02  -3.861725e+02
   5.983066e+02   2.981383e+02
  -2.553047e+01   7.921298e+02
  -6.466083e+02   5.888697e+02
  -7.344733e+02  -7.176367e+01
  -3.780773e+02  -6.474844e+02
   1.619594e+02  -6.776671e+02
   4.449314e+02  -8.001369e+01
   2.682545e+02   5.626392e+02
  -2.085853e+02   5.770620e+02
  -4.508437e+02   1.194704e+01
  -2.126934e+02  -5.498229e+02
   2.510293e+02  -5.360348e+02
   4.849605e+02  -1.179770e+02
   3.487707e+02   2.635947e+02
   3.381676e+01   3.569771e+02
  -1.857730e+02   2.185888e+02
  -1.351834e+02   2.042675e+01
   1.385191e+02  -2.170077e+01
   3.235990e+02   1.665953e+02
   9.162881e+01   3.698160e+02
  -4.309712e+02   2.746559e+02
  -6.757573e+02  -1.269451e+02
  -2.854545e+02  -4.420718e+02
   3.519104e+02  -3.308064e+02
   5.960964e+02   9.584608e+01
   2.391453e+02   4.143595e+02
  -2.675441e+02   4.058597e+02
  -4.798885e+02   1.276219e+02
  -3.313311e+02  -1.982083e+02
  -3.990938e+01  -3.670648e+02
   1.400558e+02  -1.980523e+02
   6.186045e+01   1.783121e+02
  -1.675128e+02   2.676108e+02
  -3.266944e+02  -9.292258e+01
  -1.059198e+02  -5.699362e+02
   2.914389e+02  -5.204575e+02
   4.421706e+02   4.235991e+01
   1.494665e+02   4.302372e+02
  -2.398427e+02   2.053326e+02
  -2.620110e+02  -2.985963e+02
   1.007517e+02  -4.377496e+02
   4.672247e+02  -7.416099e+01
   4.805283e+02   3.728737e+02
   1.233879e+02   4.955336e+02
  -3.249073e+02   2.652903e+02
  -5.197291e+02  -8.945946e+01
  -3.026566e+02  -3.044195e+02
   1.199127e+02  -2.640762e+02
   3.415741e+02  -4.343178e+01
   2.008529e+02   1.165617e+02
  -6.652382e+01   5.250234e+01
  -8.156359e+01  -1.161185e+02
   1.398760e+02  -1.201067e+02
   2.751266e+02   7.030190e+01
   1.091766e+02   2.462816e+02
  -1.798938e+02   2.230554e+02
  -3.048153e+02   8.530499e+01
  -1.993502e+02  -8.591376e+01
   2.238158e+01  -2.428642e+02
   2.389969e+02  -3.103441e+02
   3.221675e+02  -1.685172e+02
   2.405971e+02   1.435206e+02
   4.766532e+01   3.565644e+02
  -8.457036e+01   3.031355e+02
  -6.752393e+01   1.111096e+02
  -1.158210e+01   3.555359e+01
  -7.065370e+01   1.038119e+02
  -1.999998e+02   9.532826e+01
  -2.438136e+02  -7.558681e+01
  -1.173477e+02  -2.431192e+02
   7.401236e+01  -2.082370e+02
   1.951186e+02   1.067694e+01
   1.525692e+02   2.233720e+02
  -3.234558e+01   2.504560e+02
  -2.415503e+02   7.708226e+01
  -3.078354e+02  -1.638073e+02
  -1.555316e+02  -3.053692e+02
   8.137974e+01  -2.610382e+02
   1.848850e+02  -1.124445e+02
   1.304944e+02  -2.779927e+01
   1.043207e+02  -4.842330e+01
   2.300896e+02  -5.089861e+01
   3.711743e+02   6.401610e+01
   2.949294e+02   2.642156e+02
  -1.012684e+01   3.957644e+02
  -3.392082e+02   3.634220e+02
  -4.444258e+02   1.635132e+02
  -2.807262e+02  -9.877425e+01
  -2.129526e+01  -2.523097e+02
   1.152008e+02  -1.934813e+02
   4.417811e+01  -1.593701e+01
  -1.154293e+02   7.126037e+01
  -1.581078e+02  -2.850406e+01
  -2.329609e+01  -1.606528e+02
   1.344621e+02  -1.213586e+02
   1.291840e+02   5.710942e+01
  -2.905431e+01   1.470634e+02
  -1.631561e+02   7.164511e+00
  -1.361988e+02  -2.240725e+02
   3.123940e+01  -3.108454e+02
   2.125635e+02  -1.777477e+02
   3.073220e+02   5.596968e+01
   2.548592e+02   2.298756e+02
   7.154955e+01   2.514142e+02
  -1.140849e+02   1.395332e+02
  -1.534113e+02   6.402979e+00
  -4.186459e+01  -2.554261e+01
   5.698036e+01   4.422579e+01
   1.383617e+01   1.113744e+02
  -1.150106e+02   7.633495e+01
  -1.486452e+02  -2.050061e+01
  -3.986105e+01  -6.034216e+01
   7.513861e+01  -2.640114e+00
   4.399004e+01   7.455308e+01
  -1.212001e+02   7.807524e+01
  -2.612363e+02  -8.869117e+00
  -2.331870e+02  -1.399077e+02
  -3.956082e+01  -2.351275e+02
   1.786838e+02  -2.240697e+02
   2.518362e+02  -9.616582e+01
   1.412933e+02   5.116794e+01
  -2.864590e+01   8.749131e+01
  -7.426294e+01  -3.112353e+00
   4.060258e+01  -8.771198e+01
   1.779280e+02  -3.908497e+01
   1.827183e+02   1.025044e+02
   5.236384e+01   1.846425e+02
  -8.873914e+01   1.324672e+02
  -1.252090e+02   1.679003e+01
  -5.393273e+01  -4.057947e+01
   3.179831e+01   4.610270e+00
   3.213438e+01   8.603698e+01
  -7.431517e+01   1.068856e+02
  -1.836908e+02   2.133450e+01
  -1.682596e+02  -1.175786e+02
  -1.115116e+01  -1.943864e+02
   1.492298e+02  -1.389217e+02
   1.672568e+02   2.265450e-01
   4.932389e+01   1.000505e+02
  -6.419486e+01   9.120667e+01
  -7.210719e+01   2.031996e+01
  -9.846713e+00  -2.622599e+01
   2.813294e+01  -1.400180e+01
  -5.511051e+00   1.299250e+01
  -6.768859e+01  -4.026244e+00
  -8.466720e+01  -7.554133e+01
  -1.378394e+01  -1.469763e+02
   1.199114e+02  -1.371150e+02
   2.143393e+02  -1.667256e+01
   1.779086e+02   1.407800e+02
   3.171420e+01   2.106682e+02
  -9.891921e+01   1.459631e+02
  -1.190175e+02   2.177312e+01
  -6.264666e+01  -4.720467e+01
  -2.638704e+01  -2.886502e+01
  -4.902896e+01   1.208465e+01
  -7.392949e+01   7.705014e+00
  -4.347388e+01  -4.492443e+01
   3.467668e+01  -8.488767e+01
   9.743067e+01  -5.620072e+01
   8.581528e+01   3.275119e+01
  -1.296779e+01   1.060626e+02
  -1.364811e+02   7.896791e+01
  -1.808633e+02  -5.376666e+01
  -8.019209e+01  -1.880728e+02
   1.086322e+02  -2.016140e+02
   2.429997e+02  -7.491905e+01
   2.233144e+02   8.373151e+01
   8.943247e+01   1.576708e+02
  -3.983556e+01   1.269776e+02
  -8.432458e+01   7.135209e+01
  -6.855958e+01   5.963192e+01
  -5.753372e+01   8.060063e+01
  -8.235937e+01   6.721457e+01
  -1.143215e+02  -1.886425e+01
  -1.025151e+02  -1.396694e+02
  -2.020968e+01  -2.045617e+02
   9.253917e+01  -1.508927e+02
   1.553177e+02  -1.025180e+01
   1.144368e+02   1.146031e+02
   9.095313e+00   1.418058e+02
  -6.518170e+01   7.809953e+01
  -5.433187e+01  -5.564060e+00
  -2.451973e-01  -4.280871e+01
   1.588465e+01  -3.201753e+01
  -2.851312e+01  -1.492129e+01
  -7.121701e+01  -1.918424e+01
  -4.133583e+01  -3.504231e+01
   5.937506e+01  -3.437250e+01
   1.472173e+02  -6.719351e-01
   1.310685e+02   5.016039e+01
   9.862530e+00   8.453973e+01
  -1.130519e+02   6.566077e+01
  -1.302595e+02   7.848627e+00
  -4.258960e+01  -3.835134e+01
   5.188346e+01  -3.332600e+01
   6.752391e+01   1.762304e+01
   9.728333e+00   6.308700e+01
  -4.624137e+01   5.232841e+01
  -5.907299e+01  -1.796240e+00
  -4.597948e+01  -4.571382e+01
  -3.875779e+01  -3.976648e+01
  -5.084130e+01  -4.572242e+00
  -5.764272e+01  -2.613330e+00
  -3.380277e+01  -6.251486e+01
   2.897643e+01  -1.308322e+02
   1.110952e+02  -1.263226e+02
   1.540707e+02  -2.824571e+01
   1.120542e+02   8.366492e+01
   3.529078e+00   1.156193e+02
  -7.897427e+01   5.746878e+01
  -5.248830e+01  -1.228755e+01
   5.388964e+01  -1.572391e+01
   1.199206e+02   4.185282e+01
   6.235283e+01   9.699833e+01
  -7.578522e+01   9.815050e+01
  -1.731173e+02   4.150951e+01
  -1.434912e+02  -3.408093e+01
  -2.983587e+01  -7.773582e+01
   5.771158e+01  -5.816387e+01
   4.273223e+01  -1.244431e+00
  -3.541213e+01   2.509015e+01
  -7.978312e+01  -2.056450e+01
  -2.917184e+01  -1.048787e+02
   7.725483e+01  -1.360609e+02
   1.416047e+02  -5.566923e+01
   1.087912e+02   8.646611e+01
   8.390791e+00   1.735497e+02
  -7.485617e+01   1.261189e+02
  -9.234731e+01  -8.722451e+00
  -5.003587e+01  -1.060590e+02
   9.437177e+00  -9.328790e+01
   4.430181e+01  -1.497078e+01
   4.145037e+01   2.923930e+01
   1.679572e+01   7.761097e+00
   2.998076e+00  -1.688596e+01
   2.170562e+01   1.463806e+01
   4.934801e+01   7.729854e+01
   3.282010e+01   9.506554e+01
  -4.563672e+01   3.994634e+01
  -1.205732e+02  -3.515436e+01
  -1.112207e+02  -6.566204e+01
  -1.564313e+01  -4.539413e+01
   7.524778e+01  -1.956777e+01
   7.715973e+01  -4.106260e+00
   1.224552e+01   8.523567e+00
  -3.255690e+01   1.865880e+01
  -1.530456e+01   1.232109e+01
   1.662782e+01  -1.984479e+00
  -3.598586e+00  -7.759376e+00
  -6.280478e+01  -3.241208e+00
  -8.149074e+01  -2.285948e+01
  -1.089256e+01  -7.216383e+01
   1.029008e+02  -1.013996e+02
   1.666309e+02  -5.113894e+01
   1.264378e+02   5.977510e+01
   2.103822e+01   1.433438e+02
  -7.236309e+01   1.319781e+02
  -1.013970e+02   5.056052e+01
  -6.990599e+01  -1.959875e+01
  -2.233473e+01  -3.136895e+01
   3.406367e-02  -8.361082e+00
  -1.065544e+01  -5.854329e+00
  -2.664090e+01  -4.259209e+01
  -1.673867e+01  -8.026097e+01
   2.632881e+01  -6.157929e+01
   6.904948e+01   1.704930e+01
   6.525467e+01   9.305204e+01
   5.984281e+00   9.688969e+01
  -6.968742e+01   2.198000e+01
  -9.040070e+01  -6.377283e+01
  -2.970217e+01  -9.173546e+01
   5.863206e+01  -5.208566e+01
   8.918932e+01   9.190190e+00
   3.792159e+01   4.704497e+01
  -2.850579e+01   4.897235e+01
  -3.101003e+01   2.505879e+01
   2.681264e+01  -1.155641e+00
   6.040626e+01  -4.884775e+00
   1.446524e+01   2.414115e+01
  -7.050591e+01   5.758699e+01
  -1.055147e+02   4.767006e+01
  -6.092945e+01  -1.337416e+01
   1.274257e+01  -7.297268e+01
   4.862065e+01  -7.003216e+01
   3.501472e+01  -8.105658e+00
   2.783207e+00   4.617321e+01
  -2.234448e+01   3.753080e+01
  -3.173114e+01  -1.439497e+01
  -2.343360e+01  -4.742798e+01
   1.963394e+00  -3.120566e+01
   2.958796e+01   5.575579e+00
   3.699515e+01   2.088866e+01
   1.865220e+01   3.610178e+00
  -2.739746e+00  -1.392297e+01
  -7.806867e+00  -2.121757e+00
  -2.360124e+00   2.933132e+01
  -8.105424e+00   4.100132e+01
  -2.482719e+01   1.152036e+01
  -2.863956e+01  -3.557515e+01
  -1.933922e+00  -5.421609e+01
   3.862682e+01  -1.916768e+01
   5.068316e+01   3.461069e+01
   1.318343e+01   5.545833e+01
  -4.930621e+01   2.981471e+01
  -8.003813e+01  -1.311519e+01
  -4.404700e+01  -3.913457e+01
   2.556690e+01  -3.736200e+01
   5.731007e+01  -2.101305e+01
   2.269314e+01  -5.617347e+00
  -2.910437e+01  -2.301495e+00
  -3.013618e+01  -1.270553e+01
   2.591790e+01  -2.409785e+01
   7.678462e+01  -1.455362e+01
