
 $NMID
 id='ANONYMOUS ', fmtdat='(2E16.6)'
 volume=1.0
 tramp=1.0
 $END
   4.153476e+03  -2.127073e+02
   2.560528e+03   2.309246e+03
  -4.776762e+02   2.722515e+03
  -1.985055e+03   1.026189e+03
  -1.013963e+03  -5.515459e+02
   5.398030e+02  -6.555791e+02
   9.088076e+02   3.281050e+02
   9.981585e+01   1.059931e+03
  -7.609684e+02   8.498591e+02
  -9.409839e+02  -2.207157e+01
  -4.588140e+02  -8.194821e+02
   1.976805e+02  -8.888927e+02
   6.192721e+02  -1.569795e+02
   4.000981e+02   6.753332e+02
  -2.426412e+02   7.547969e+02
  -5.956164e+02   9.548160e-01
  -3.103846e+02  -6.675086e+02
   2.887955e+02  -6.638824e+02
   5.766267e+02  -1.207470e+02
   4.072071e+02   3.306511e+02
   3.954846e+01   4.369040e+02
  -2.381061e+02   2.630756e+02
  -2.154887e+02   1.884197e+01
   1.053340e+02  -8.307007e+01
   4.014801e+02   1.034913e+02
   2.086844e+02   4.059424e+02
  -4.198142e+02   4.041734e+02
  -8.070860e+02  -3.238417e+01
  -4.307632e+02  -4.964132e+02
   3.444523e+02  -4.798512e+02
   7.039414e+02  -1.243996e+00
   3.563498e+02   4.516345e+02
  -2.436889e+02   5.151954e+02
  -5.405252e+02   2.249791e+02
  -4.276238e+02  -2.057396e+02
  -9.726052e+01  -4.709324e+02
   1.859824e+02  -2.959173e+02
   1.845546e+02   1.953914e+02
  -1.678034e+02   4.332043e+02
  -4.290321e+02   1.328940e+01
  -2.729883e+02  -6.425280e+02
   2.689943e+02  -7.034144e+02
   5.940867e+02  -5.391105e+01
   2.886188e+02   5.190805e+02
  -2.646261e+02   3.392497e+02
  -3.976319e+02  -2.791680e+02
   3.283624e+01  -5.399437e+02
   5.346346e+02  -1.703210e+02
   6.028955e+02   3.725091e+02
   1.866305e+02   5.793518e+02
  -3.592570e+02   3.632669e+02
  -6.197243e+02  -4.339384e+01
  -3.882135e+02  -3.596620e+02
   1.243362e+02  -3.646121e+02
   4.308505e+02  -7.993347e+01
   2.476929e+02   1.799928e+02
  -1.053806e+02   1.190550e+02
  -1.559582e+02  -1.302694e+02
   1.432948e+02  -1.877660e+02
   3.387639e+02   4.432012e+01
   1.569367e+02   2.816115e+02
  -1.898985e+02   2.769680e+02
  -3.356181e+02   8.410699e+01
  -2.040897e+02  -1.008256e+02
   2.068632e+01  -2.397707e+02
   2.052983e+02  -3.211245e+02
   3.190882e+02  -2.144574e+02
   2.927376e+02   1.157832e+02
   1.060953e+02   4.135245e+02
  -9.284993e+01   3.725166e+02
  -1.227893e+02   1.209312e+02
  -3.790124e+01  -1.002286e+01
  -3.894554e+01   7.509079e+01
  -1.759110e+02   1.243228e+02
  -2.674763e+02  -3.908417e+01
  -1.655272e+02  -2.529862e+02
   5.862551e+01  -2.541231e+02
   2.245526e+02  -2.789529e+01
   2.080850e+02   2.235062e+02
   7.340702e+00   2.894882e+02
  -2.544092e+02   1.328032e+02
  -3.603390e+02  -1.416146e+02
  -2.027143e+02  -3.339785e+02
   8.166141e+01  -3.092111e+02
   2.257964e+02  -1.379280e+02
   1.589853e+02  -1.364445e+01
   9.840363e+01  -3.010589e+01
   2.196782e+02  -6.375439e+01
   3.879992e+02   3.898640e+01
   3.390143e+02   2.658616e+02
   1.272519e+01   4.309162e+02
  -3.339763e+02   4.172250e+02
  -4.696440e+02   2.147373e+02
  -3.355592e+02  -7.534519e+01
  -7.515061e+01  -2.790664e+02
   1.092241e+02  -2.585900e+02
   8.419265e+01  -4.215481e+01
  -8.938375e+01   1.055858e+02
  -1.871205e+02   1.026607e+01
  -6.685603e+01  -1.834625e+02
   1.390527e+02  -1.800966e+02
   1.770529e+02   4.590935e+01
  -5.715655e+00   1.859803e+02
  -1.861662e+02   4.447820e+01
  -1.692843e+02  -2.311786e+02
   1.904481e+01  -3.382994e+02
   2.168487e+02  -1.936094e+02
   3.141025e+02   4.499970e+01
   2.728658e+02   2.148364e+02
   1.023560e+02   2.502688e+02
  -9.908147e+01   1.607104e+02
  -1.682582e+02   3.258347e+01
  -5.913330e+01  -2.970697e+01
   6.653069e+01   3.460291e+01
   3.460065e+01   1.184269e+02
  -1.145648e+02   1.032914e+02
  -1.744040e+02  -4.752481e-01
  -6.391105e+01  -6.672682e+01
   7.108527e+01  -2.184475e+01
   5.497394e+01   6.340938e+01
  -1.099573e+02   8.591092e+01
  -2.647572e+02   1.084842e+01
  -2.528309e+02  -1.231090e+02
  -6.940416e+01  -2.423347e+02
   1.633956e+02  -2.589612e+02
   2.671247e+02  -1.337433e+02
   1.709477e+02   4.176322e+01
  -1.266694e+01   1.069702e+02
  -8.544574e+01   1.462686e+01
   2.298870e+01  -9.652407e+01
   1.813298e+02  -6.684768e+01
   2.071599e+02   8.747052e+01
   7.729600e+01   1.956982e+02
  -8.011746e+01   1.558832e+02
  -1.340144e+02   3.489015e+01
  -6.994067e+01  -3.490957e+01
   2.475195e+01  -4.334288e+00
   3.702030e+01   7.636440e+01
  -6.356489e+01   1.103957e+02
  -1.878581e+02   3.515402e+01
  -1.894940e+02  -1.106266e+02
  -3.175008e+01  -2.102544e+02
   1.504101e+02  -1.679304e+02
   1.891624e+02  -1.632428e+01
   7.312194e+01   1.077289e+02
  -5.782404e+01   1.120606e+02
  -8.051156e+01   3.601877e+01
  -1.988299e+01  -2.180055e+01
   1.949071e+01  -1.557169e+01
  -9.127092e+00   8.469833e+00
  -6.986756e+01  -5.386535e+00
  -8.829228e+01  -7.395446e+01
  -2.213184e+01  -1.488455e+02
   1.127678e+02  -1.490924e+02
   2.195956e+02  -3.572149e+01
   1.985171e+02   1.302313e+02
   5.388139e+01   2.230750e+02
  -9.580844e+01   1.695568e+02
  -1.323665e+02   3.299652e+01
  -7.423468e+01  -5.132479e+01
  -2.866905e+01  -3.516804e+01
  -4.780809e+01   1.208058e+01
  -7.419759e+01   7.375734e+00
  -4.177965e+01  -4.692846e+01
   3.693149e+01  -8.385453e+01
   9.634140e+01  -5.419741e+01
   8.352467e+01   3.136323e+01
  -7.466152e+00   1.042167e+02
  -1.295886e+02   8.574940e+01
  -1.879534e+02  -3.817216e+01
  -1.053085e+02  -1.843391e+02
   8.694210e+01  -2.218056e+02
   2.471659e+02  -1.036303e+02
   2.488508e+02   7.137951e+01
   1.128274e+02   1.662467e+02
  -2.955897e+01   1.446116e+02
  -8.662533e+01   8.612440e+01
  -7.457731e+01   6.926610e+01
  -6.287336e+01   8.878888e+01
  -8.833435e+01   7.497506e+01
  -1.252409e+02  -1.463352e+01
  -1.197901e+02  -1.413101e+02
  -3.748276e+01  -2.140283e+02
   8.804798e+01  -1.687513e+02
   1.672947e+02  -2.798191e+01
   1.342797e+02   1.102533e+02
   2.334366e+01   1.506523e+02
  -6.067839e+01   8.830048e+01
  -5.793726e+01   2.456321e+00
  -6.217328e+00  -3.877689e+01
   8.963829e+00  -3.120451e+01
  -3.551829e+01  -1.592929e+01
  -7.479235e+01  -2.384582e+01
  -4.233956e+01  -3.963144e+01
   5.927008e+01  -4.062562e+01
   1.495486e+02  -8.462984e+00
   1.362125e+02   4.722973e+01
   1.924548e+01   8.649852e+01
  -1.107822e+02   7.564435e+01
  -1.373944e+02   1.617127e+01
  -4.829009e+01  -4.149486e+01
   5.620272e+01  -4.131414e+01
   7.364070e+01   1.544947e+01
   1.160415e+01   6.717317e+01
  -5.095248e+01   5.972114e+01
  -6.235324e+01  -6.242273e-01
  -4.330597e+01  -4.787716e+01
  -4.128337e+01  -4.001166e+01
  -5.531458e+01  -5.244695e-01
  -6.159932e+01   1.911138e+00
  -3.748122e+01  -6.193682e+01
   2.213239e+01  -1.394805e+02
   1.026997e+02  -1.391376e+02
   1.557266e+02  -3.873846e+01
   1.231161e+02   8.164654e+01
   1.106253e+01   1.203603e+02
  -8.015906e+01   6.023515e+01
  -5.844248e+01  -1.321005e+01
   5.463908e+01  -2.217239e+01
   1.322657e+02   3.667553e+01
   7.744480e+01   1.011811e+02
  -7.065297e+01   1.118003e+02
  -1.766925e+02   5.719782e+01
  -1.563562e+02  -2.648095e+01
  -4.095104e+01  -8.084420e+01
   5.128985e+01  -6.771869e+01
   4.481124e+01  -8.705907e+00
  -3.651157e+01   2.664712e+01
  -8.800524e+01  -1.852447e+01
  -3.641021e+01  -1.144482e+02
   8.206137e+01  -1.526520e+02
   1.609803e+02  -6.736580e+01
   1.271050e+02   9.258455e+01
   1.681685e+01   1.903112e+02
  -7.776396e+01   1.403104e+02
  -1.011174e+02  -3.468321e+00
  -6.146670e+01  -1.073298e+02
  -2.469794e+00  -9.892486e+01
   4.207810e+01  -2.083672e+01
   5.056240e+01   2.586865e+01
   2.591602e+01   6.401608e+00
   3.776196e+00  -1.971482e+01
   2.119360e+01   1.343864e+01
   5.747762e+01   8.149763e+01
   4.407324e+01   1.037953e+02
  -4.446908e+01   4.795659e+01
  -1.347895e+02  -2.911836e+01
  -1.271254e+02  -6.309610e+01
  -1.818505e+01  -4.974387e+01
   8.250770e+01  -2.765667e+01
   8.312661e+01  -1.010984e+01
   1.083724e+01   8.115378e+00
  -3.665390e+01   2.408014e+01
  -1.372257e+01   1.734453e+01
   1.894846e+01  -1.981819e+00
  -5.432654e+00  -6.683191e+00
  -7.107646e+01  -1.116276e+00
  -8.845582e+01  -2.083611e+01
  -1.295477e+01  -7.731241e+01
   1.078910e+02  -1.133395e+02
   1.765398e+02  -6.267129e+01
   1.395058e+02   5.871133e+01
   2.984091e+01   1.551460e+02
  -7.238954e+01   1.461719e+02
  -1.076993e+02   5.771686e+01
  -7.754376e+01  -1.999562e+01
  -2.525921e+01  -3.445115e+01
   1.582776e+00  -8.136828e+00
  -9.794297e+00  -1.608743e+00
  -3.297225e+01  -4.109682e+01
  -2.302011e+01  -8.525498e+01
   2.629912e+01  -7.033762e+01
   7.911095e+01   1.454975e+01
   7.739413e+01   1.015603e+02
   6.037511e+00   1.084457e+02
  -7.917955e+01   2.524336e+01
  -1.010574e+02  -6.884456e+01
  -3.244851e+01  -9.754881e+01
   6.286582e+01  -5.571599e+01
   9.470839e+01   8.448833e+00
   3.888745e+01   4.789905e+01
  -3.078290e+01   5.102364e+01
  -3.037254e+01   2.658696e+01
   3.159704e+01  -2.127976e+00
   6.563800e+01  -6.559401e+00
   1.508634e+01   2.553612e+01
  -7.370471e+01   6.339849e+01
  -1.059949e+02   5.457025e+01
  -5.865888e+01  -1.252982e+01
   1.334823e+01  -7.970598e+01
   4.871542e+01  -7.494224e+01
   3.593378e+01  -4.723135e+00
   3.897560e+00   5.350734e+01
  -2.351763e+01   4.166389e+01
  -3.594046e+01  -1.658848e+01
  -2.702766e+01  -5.194685e+01
   3.007685e+00  -3.248703e+01
   3.215627e+01   8.144220e+00
   3.779486e+01   2.017629e+01
   1.871694e+01   9.328162e-01
  -6.408644e-01  -1.392659e+01
  -4.581320e+00   2.233164e+00
  -3.072934e+00   3.492041e+01
  -1.377137e+01   4.405922e+01
  -3.145875e+01   9.662771e+00
  -3.245940e+01  -4.099685e+01
  -2.061719e+00  -5.754971e+01
   4.198766e+01  -2.268993e+01
   5.772697e+01   3.299391e+01
   1.734394e+01   6.002926e+01
  -5.106012e+01   3.645344e+01
  -8.639987e+01  -9.690074e+00
  -4.882337e+01  -4.059175e+01
   2.555845e+01  -4.110944e+01
   6.078656e+01  -2.312179e+01
   2.319768e+01  -4.237288e+00
  -3.520820e+01   1.084002e+00
  -3.694018e+01  -1.328883e+01
   2.706088e+01  -3.249418e+01
   8.536152e+01  -2.325470e+01
