
 $NMID
 id='ANONYMOUS ', fmtdat='(2E16.6)'
 volume=1.0
 tramp=1.0
 $END
   4.408915e+03   1.171343e+02
   2.440478e+03   2.759668e+03
  -9.017702e+02   2.762128e+03
  -2.167319e+03   7.187013e+02
  -8.460120e+02  -8.265479e+02
   8.271982e+02  -5.637176e+02
   9.294745e+02   5.674571e+02
  -7.635536e+01   1.153592e+03
  -9.090010e+02   7.591975e+02
  -9.563380e+02  -1.773256e+02
  -4.336467e+02  -9.478121e+02
   3.119327e+02  -9.056619e+02
   6.847123e+02  -5.453359e+01
   3.771573e+02   7.857411e+02
  -3.140214e+02   7.505268e+02
  -6.481381e+02  -3.740813e+01
  -2.341727e+02  -7.017254e+02
   3.509537e+02  -5.957771e+02
   5.704573e+02  -4.523793e+01
   3.464896e+02   3.671104e+02
  -1.046963e+01   4.199937e+02
  -2.564210e+02   2.401674e+02
  -2.141104e+02  -1.388522e+01
   1.228731e+02  -1.255056e+02
   4.389731e+02   9.888454e+01
   2.239279e+02   4.677191e+02
  -4.866306e+02   4.628094e+02
  -9.077997e+02  -8.057618e+01
  -4.575693e+02  -6.089662e+02
   4.319018e+02  -5.389182e+02
   8.064748e+02   4.125781e+01
   3.657071e+02   5.214994e+02
  -3.038602e+02   5.493397e+02
  -5.879674e+02   1.958426e+02
  -4.093709e+02  -2.578830e+02
  -3.203945e+01  -4.948314e+02
   2.428671e+02  -2.636171e+02
   1.823950e+02   2.719322e+02
  -1.800352e+02   5.028358e+02
  -5.044598e+02  -2.944764e+01
  -2.685846e+02  -7.248807e+02
   3.509759e+02  -7.285805e+02
   6.320738e+02   1.778183e+01
   2.501670e+02   5.928725e+02
  -3.323472e+02   3.184283e+02
  -4.087818e+02  -3.516796e+02
   7.887324e+01  -5.686685e+02
   5.764616e+02  -1.415739e+02
   6.040380e+02   4.098981e+02
   1.597124e+02   5.933531e+02
  -3.985274e+02   3.529999e+02
  -6.420677e+02  -8.250448e+01
  -3.653028e+02  -4.067039e+02
   1.825477e+02  -3.748019e+02
   4.551884e+02  -3.623508e+01
   2.187125e+02   2.202856e+02
  -1.560526e+02   1.023963e+02
  -1.560538e+02  -1.819833e+02
   1.817840e+02  -2.051646e+02
   3.673708e+02   8.988549e+01
   1.335976e+02   3.089656e+02
  -2.044825e+02   2.438873e+02
  -3.156324e+02   6.191002e+01
  -1.767595e+02  -6.981862e+01
   1.887154e+01  -1.985535e+02
   1.968041e+02  -3.215136e+02
   3.361945e+02  -2.317584e+02
   3.046975e+02   1.402172e+02
   8.569381e+01   4.483918e+02
  -1.277834e+02   3.884230e+02
  -1.363351e+02   9.130186e+01
  -1.364624e+01  -2.876383e+01
  -1.934014e+01   9.739943e+01
  -1.867869e+02   1.554360e+02
  -2.908935e+02  -4.046930e+01
  -1.770146e+02  -2.789860e+02
   6.892736e+01  -2.720342e+02
   2.428906e+02  -2.020112e+01
   2.171254e+02   2.409277e+02
  -2.863318e+00   3.043808e+02
  -2.737385e+02   1.265262e+02
  -3.709464e+02  -1.648755e+02
  -1.852345e+02  -3.546587e+02
   1.118127e+02  -3.026671e+02
   2.308331e+02  -1.033195e+02
   1.350828e+02   1.266172e+01
   7.398403e+01  -3.699806e+01
   2.222509e+02  -8.347607e+01
   3.974835e+02   3.928019e+01
   3.329856e+02   2.725601e+02
   1.276504e+01   4.451131e+02
  -3.419035e+02   4.191019e+02
  -4.813751e+02   2.080434e+02
  -3.454552e+02  -9.100495e+01
  -5.915976e+01  -3.053323e+02
   1.415622e+02  -2.600753e+02
   9.939430e+01  -1.860421e+01
  -1.128035e+02   1.259898e+02
  -2.136178e+02  -5.806855e+00
  -5.530579e+01  -2.120254e+02
   1.765899e+02  -1.796856e+02
   1.944084e+02   6.885234e+01
  -1.640242e+01   2.094876e+02
  -2.012916e+02   4.194670e+01
  -1.678683e+02  -2.449259e+02
   2.785782e+01  -3.447034e+02
   2.188072e+02  -1.907557e+02
   3.132876e+02   5.809425e+01
   2.765615e+02   2.264420e+02
   1.018165e+02   2.594697e+02
  -1.104765e+02   1.651046e+02
  -1.827406e+02   2.155517e+01
  -5.815587e+01  -3.909734e+01
   7.975411e+01   3.418593e+01
   3.529092e+01   1.310646e+02
  -1.273203e+02   1.071177e+02
  -1.868016e+02  -1.378164e+01
  -6.071224e+01  -8.083379e+01
   8.348146e+01  -2.604828e+01
   6.262343e+01   6.842036e+01
  -1.110178e+02   9.013995e+01
  -2.702990e+02   1.162566e+01
  -2.613623e+02  -1.224367e+02
  -7.346749e+01  -2.514252e+02
   1.704009e+02  -2.689239e+02
   2.789056e+02  -1.322907e+02
   1.746573e+02   5.778749e+01
  -2.362688e+01   1.188430e+02
  -9.715076e+01   8.114015e+00
   2.741898e+01  -1.098460e+02
   1.952108e+02  -6.714902e+01
   2.157209e+02   1.006979e+02
   7.218180e+01   2.099431e+02
  -9.143944e+01   1.623735e+02
  -1.452191e+02   3.444079e+01
  -7.576626e+01  -4.321112e+01
   2.252974e+01  -1.190220e+01
   4.280219e+01   7.417828e+01
  -5.843393e+01   1.135449e+02
  -1.896918e+02   4.017420e+01
  -1.947230e+02  -1.155150e+02
  -2.920802e+01  -2.177914e+02
   1.594996e+02  -1.677965e+02
   1.935549e+02  -7.601729e+00
   6.658520e+01   1.155311e+02
  -6.452665e+01   1.126370e+02
  -8.326974e+01   3.077354e+01
  -2.285411e+01  -2.793009e+01
   1.891202e+01  -2.434434e+01
  -4.726548e+00   3.321420e+00
  -6.022488e+01  -5.292445e+00
  -8.475283e+01  -7.087017e+01
  -2.320245e+01  -1.498326e+02
   1.142004e+02  -1.525311e+02
   2.267457e+02  -3.341748e+01
   2.006102e+02   1.421758e+02
   4.241709e+01   2.341596e+02
  -1.072982e+02   1.669141e+02
  -1.329784e+02   2.652335e+01
  -6.978134e+01  -5.621644e+01
  -2.775595e+01  -3.660185e+01
  -4.976793e+01   9.723614e+00
  -7.291076e+01   7.989905e+00
  -3.946093e+01  -4.340369e+01
   3.447917e+01  -8.175487e+01
   8.878312e+01  -5.692744e+01
   8.026450e+01   2.531390e+01
  -3.786884e+00   1.032057e+02
  -1.272888e+02   9.106758e+01
  -1.932165e+02  -3.849945e+01
  -1.083240e+02  -1.921200e+02
   9.483346e+01  -2.291714e+02
   2.600460e+02  -1.015570e+02
   2.547351e+02   8.083907e+01
   1.095811e+02   1.748025e+02
  -3.655525e+01   1.448805e+02
  -9.111127e+01   8.170105e+01
  -7.731042e+01   6.648030e+01
  -6.530407e+01   8.761284e+01
  -8.773142e+01   7.232157e+01
  -1.251497e+02  -1.841415e+01
  -1.197107e+02  -1.455881e+02
  -3.805923e+01  -2.206969e+02
   9.177762e+01  -1.730744e+02
   1.751606e+02  -2.781449e+01
   1.419886e+02   1.136512e+02
   2.546348e+01   1.565966e+02
  -6.416318e+01   9.441567e+01
  -5.973879e+01   5.102084e+00
  -1.003779e+01  -3.896935e+01
   4.633064e+00  -3.456669e+01
  -3.616129e+01  -1.936884e+01
  -7.402983e+01  -2.053258e+01
  -4.222824e+01  -3.522969e+01
   5.757510e+01  -3.900313e+01
   1.503535e+02  -1.105570e+01
   1.428147e+02   4.305034e+01
   2.164128e+01   8.681291e+01
  -1.132516e+02   7.677388e+01
  -1.429471e+02   1.854566e+01
  -5.010857e+01  -3.826384e+01
   5.660664e+01  -3.654153e+01
   7.262975e+01   1.772789e+01
   5.509799e+00   6.438932e+01
  -5.428384e+01   5.285708e+01
  -5.800678e+01  -1.279856e+00
  -4.042310e+01  -4.641802e+01
  -4.250388e+01  -3.820192e+01
  -6.344736e+01  -1.459717e+00
  -6.578021e+01   1.202556e+00
  -3.351443e+01  -6.362811e+01
   3.161508e+01  -1.413595e+02
   1.087198e+02  -1.406870e+02
   1.546248e+02  -3.661847e+01
   1.187368e+02   8.411707e+01
   1.217619e+01   1.195590e+02
  -7.749456e+01   5.797501e+01
  -5.563332e+01  -1.477370e+01
   5.506492e+01  -1.848998e+01
   1.329258e+02   4.187614e+01
   7.642907e+01   1.017621e+02
  -7.366707e+01   1.109925e+02
  -1.843940e+02   5.575242e+01
  -1.611401e+02  -2.863799e+01
  -4.101449e+01  -8.511319e+01
   5.793476e+01  -7.376917e+01
   4.903707e+01  -1.122002e+01
  -3.620573e+01   2.586745e+01
  -8.763512e+01  -2.139323e+01
  -3.275438e+01  -1.145799e+02
   8.940514e+01  -1.486044e+02
   1.621886e+02  -5.999614e+01
   1.235882e+02   9.632017e+01
   1.274848e+01   1.880651e+02
  -7.924360e+01   1.414810e+02
  -1.018385e+02  -1.285780e+00
  -6.474911e+01  -1.130917e+02
  -3.420658e+00  -1.068720e+02
   4.349332e+01  -2.340869e+01
   5.313859e+01   3.002290e+01
   2.632227e+01   9.113707e+00
   2.086710e+00  -2.123261e+01
   1.901115e+01   1.096720e+01
   5.560185e+01   8.382507e+01
   4.506606e+01   1.070761e+02
  -4.363749e+01   4.585282e+01
  -1.358146e+02  -3.812682e+01
  -1.263240e+02  -6.887143e+01
  -1.751712e+01  -4.745587e+01
   8.674050e+01  -2.085494e+01
   8.606549e+01  -1.051765e+01
   8.861939e+00   4.520116e+00
  -3.750787e+01   2.237770e+01
  -1.210822e+01   2.077264e+01
   2.115766e+01  -8.727500e-01
  -6.900159e+00  -1.032396e+01
  -7.349164e+01  -5.672435e+00
  -8.682597e+01  -2.178470e+01
  -4.330473e+00  -7.689301e+01
   1.172094e+02  -1.115386e+02
   1.764913e+02  -5.813056e+01
   1.336249e+02   6.227458e+01
   2.739827e+01   1.545443e+02
  -6.908827e+01   1.452953e+02
  -1.058287e+02   5.761184e+01
  -7.699222e+01  -1.974279e+01
  -2.537595e+01  -3.242385e+01
   2.778824e+00  -6.145472e+00
  -1.029086e+01  -2.593204e+00
  -3.525135e+01  -4.344542e+01
  -2.673470e+01  -8.694785e+01
   2.574878e+01  -6.944422e+01
   7.841002e+01   1.789903e+01
   7.414742e+01   1.029897e+02
   2.373511e+00   1.057127e+02
  -7.991856e+01   2.051819e+01
  -9.958652e+01  -7.312204e+01
  -3.171668e+01  -9.782707e+01
   6.159601e+01  -5.230590e+01
   9.085048e+01   8.980212e+00
   3.764573e+01   4.389027e+01
  -2.692901e+01   4.641298e+01
  -2.531478e+01   2.791595e+01
   3.443052e+01   1.797580e+00
   6.598719e+01  -7.454374e+00
   1.475263e+01   2.219613e+01
  -7.176075e+01   6.644673e+01
  -1.076235e+02   6.384206e+01
  -6.213812e+01  -6.589640e+00
   1.182485e+01  -7.820817e+01
   4.542845e+01  -7.657652e+01
   3.153038e+01  -5.494767e+00
   9.506084e-01   5.345425e+01
  -2.308102e+01   3.987586e+01
  -3.356480e+01  -1.857982e+01
  -2.508752e+01  -5.021601e+01
   1.665922e+00  -2.856474e+01
   3.099503e+01   8.599466e+00
   3.735258e+01   1.793450e+01
   1.972349e+01  -6.702200e-01
  -8.243851e-01  -1.182783e+01
  -7.769881e+00   5.747202e+00
  -9.803121e+00   3.466356e+01
  -1.823887e+01   3.809091e+01
  -2.930612e+01   2.080412e+00
  -2.484148e+01  -4.308808e+01
   4.835175e+00  -5.608610e+01
   4.262089e+01  -1.803684e+01
   5.225796e+01   3.748616e+01
   1.341410e+01   5.994555e+01
  -5.168202e+01   3.366479e+01
  -8.320145e+01  -1.432709e+01
  -4.693240e+01  -4.197498e+01
   2.669404e+01  -3.879589e+01
   6.058624e+01  -1.950404e+01
   2.064623e+01  -4.416405e+00
  -3.690735e+01  -3.557373e+00
  -3.527371e+01  -1.725183e+01
   3.129222e+01  -3.087695e+01
   8.898253e+01  -1.889245e+01
