
 $NMID
 id='ANONYMOUS ', fmtdat='(2E16.6)'
 volume=1.0
 tramp=1.0
 $END
  -4.321242e+03  -8.880780e+01
  -2.569333e+03  -2.544226e+03
   5.727262e+02  -2.749062e+03
   2.084490e+03  -1.072979e+03
   1.047921e+03   5.016821e+02
  -5.379051e+02   5.796727e+02
  -8.651212e+02  -3.501603e+02
  -2.223544e+01  -1.008076e+03
   8.356798e+02  -7.890357e+02
   9.653405e+02   7.387830e+01
   4.432070e+02   8.738169e+02
  -2.334578e+02   9.056744e+02
  -6.192533e+02   1.488815e+02
  -3.719204e+02  -7.027153e+02
   2.786989e+02  -7.452605e+02
   5.982078e+02   1.935591e+01
   2.953500e+02   6.977338e+02
  -3.110365e+02   6.862586e+02
  -6.070799e+02   1.376962e+02
  -4.372521e+02  -3.417942e+02
  -4.094871e+01  -4.501785e+02
   2.379851e+02  -2.802908e+02
   2.114924e+02  -3.370045e+01
  -1.250728e+02   6.484262e+01
  -4.056527e+02  -1.329962e+02
  -1.801608e+02  -4.373101e+02
   4.754410e+02  -3.982305e+02
   8.414613e+02   7.031298e+01
   4.269062e+02   5.309325e+02
  -3.729210e+02   4.686196e+02
  -7.268065e+02  -3.802546e+01
  -3.420025e+02  -4.851590e+02
   2.836379e+02  -5.220712e+02
   5.853498e+02  -2.010555e+02
   4.407226e+02   2.451704e+02
   8.428351e+01   4.879355e+02
  -1.919925e+02   2.908663e+02
  -1.634555e+02  -2.023227e+02
   1.954729e+02  -4.026479e+02
   4.325476e+02   3.062573e+01
   2.137428e+02   6.740463e+02
  -3.251786e+02   6.949899e+02
  -6.012373e+02   1.689818e+01
  -2.643771e+02  -5.420785e+02
   2.741176e+02  -3.300011e+02
   3.807082e+02   3.050835e+02
  -6.399235e+01   5.428254e+02
  -5.534430e+02   1.435398e+02
  -5.988008e+02  -4.096429e+02
  -1.683584e+02  -6.039977e+02
   3.863013e+02  -3.556815e+02
   6.433235e+02   7.479853e+01
   3.969946e+02   3.869580e+02
  -1.372899e+02   3.620156e+02
  -4.452934e+02   5.947559e+01
  -2.516990e+02  -1.923829e+02
   1.073565e+02  -1.098573e+02
   1.508763e+02   1.383417e+02
  -1.443648e+02   1.818915e+02
  -3.368656e+02  -5.292833e+01
  -1.509680e+02  -2.834087e+02
   2.067945e+02  -2.778633e+02
   3.554248e+02  -8.477258e+01
   2.163548e+02   1.027777e+02
  -3.859089e+01   2.643193e+02
  -2.503892e+02   3.453102e+02
  -3.554478e+02   2.045521e+02
  -2.934987e+02  -1.508741e+02
  -7.407091e+01  -4.335567e+02
   1.160618e+02  -3.824366e+02
   1.137561e+02  -1.246595e+02
   2.720429e+01  -3.918708e+00
   5.053942e+01  -9.155976e+01
   2.035665e+02  -1.207982e+02
   2.795508e+02   6.079023e+01
   1.562957e+02   2.755463e+02
  -7.154829e+01   2.552217e+02
  -2.241928e+02   1.007228e+01
  -1.926260e+02  -2.423764e+02
   1.215574e+01  -2.958311e+02
   2.684573e+02  -1.170365e+02
   3.637555e+02   1.677859e+02
   1.953345e+02   3.538483e+02
  -9.498419e+01   3.179486e+02
  -2.349368e+02   1.401379e+02
  -1.646879e+02   1.632291e+01
  -1.080340e+02   3.005857e+01
  -2.448269e+02   5.534230e+01
  -4.112098e+02  -6.605373e+01
  -3.469231e+02  -2.939906e+02
   5.040766e+00  -4.540767e+02
   3.763044e+02  -4.292652e+02
   5.125503e+02  -2.025138e+02
   3.486010e+02   9.951777e+01
   5.789903e+01   2.987564e+02
  -1.263220e+02   2.521057e+02
  -8.151211e+01   2.979572e+01
   1.086393e+02  -1.015740e+02
   1.924761e+02   1.005972e+01
   4.931345e+01   1.962120e+02
  -1.590753e+02   1.738169e+02
  -1.805335e+02  -5.805152e+01
   1.328971e+01  -1.914671e+02
   1.989876e+02  -3.341834e+01
   1.744212e+02   2.548526e+02
  -2.955873e+01   3.637090e+02
  -2.475504e+02   2.035403e+02
  -3.448154e+02  -6.680554e+01
  -2.802978e+02  -2.523487e+02
  -8.297551e+01  -2.729230e+02
   1.204355e+02  -1.620409e+02
   1.765672e+02  -1.908623e+01
   5.529878e+01   3.362010e+01
  -7.061190e+01  -4.101933e+01
  -2.655461e+01  -1.269199e+02
   1.266097e+02  -1.008400e+02
   1.804118e+02   1.311344e+01
   5.761339e+01   7.305588e+01
  -8.109742e+01   1.491586e+01
  -5.589541e+01  -7.650881e+01
   1.283027e+02  -9.105027e+01
   2.903873e+02   1.969780e+00
   2.691476e+02   1.472816e+02
   6.107613e+01   2.638246e+02
  -1.869624e+02   2.674936e+02
  -2.904477e+02   1.321029e+02
  -1.794131e+02  -5.054030e+01
   1.867291e+01  -1.130627e+02
   9.106040e+01  -1.253465e+01
  -3.091297e+01   1.006842e+02
  -1.978481e+02   6.032108e+01
  -2.175106e+02  -1.036170e+02
  -7.167577e+01  -2.143551e+02
   9.655745e+01  -1.650173e+02
   1.471891e+02  -3.108907e+01
   7.195862e+01   4.092083e+01
  -2.876555e+01   1.544662e+00
  -3.642769e+01  -8.751832e+01
   7.442241e+01  -1.186655e+02
   2.037872e+02  -3.134101e+01
   1.981567e+02   1.262851e+02
   2.505234e+01   2.257600e+02
  -1.679873e+02   1.709793e+02
  -2.004028e+02   9.767320e+00
  -7.030233e+01  -1.157208e+02
   6.742514e+01  -1.142388e+02
   8.517389e+01  -3.112029e+01
   1.625453e+01   2.496548e+01
  -2.534437e+01   1.699873e+01
   8.964470e+00  -1.071120e+01
   7.570195e+01   8.239983e+00
   9.259634e+01   8.474321e+01
   1.467229e+01   1.639076e+02
  -1.302132e+02   1.569936e+02
  -2.385456e+02   2.530589e+01
  -2.078979e+02  -1.532071e+02
  -4.719914e+01  -2.432606e+02
   1.082245e+02  -1.765866e+02
   1.417031e+02  -3.110192e+01
   7.902682e+01   5.387433e+01
   3.251743e+01   3.703558e+01
   5.366033e+01  -9.739480e+00
   7.972382e+01  -3.693201e+00
   4.288817e+01   5.173693e+01
  -4.260796e+01   8.938104e+01
  -1.061183e+02   5.737491e+01
  -9.039383e+01  -3.501034e+01
   1.289779e+01  -1.124968e+02
   1.458375e+02  -8.783155e+01
   2.031983e+02   5.207291e+01
   1.032817e+02   2.080008e+02
  -1.099262e+02   2.374293e+02
  -2.768750e+02   1.007523e+02
  -2.667739e+02  -8.872615e+01
  -1.136570e+02  -1.833677e+02
   4.034283e+01  -1.541167e+02
   9.784944e+01  -8.842482e+01
   8.090684e+01  -7.262290e+01
   6.824916e+01  -9.260345e+01
   9.707136e+01  -7.561002e+01
   1.322799e+02   2.340010e+01
   1.192847e+02   1.595061e+02
   2.894678e+01   2.315444e+02
  -9.914370e+01   1.761199e+02
  -1.781320e+02   2.222742e+01
  -1.400108e+02  -1.247564e+02
  -2.102778e+01  -1.623530e+02
   6.957938e+01  -9.256419e+01
   6.391285e+01   3.419522e+00
   4.148784e+00   4.531230e+01
  -1.535305e+01   3.536296e+01
   3.295245e+01   1.841165e+01
   8.150054e+01   2.328591e+01
   4.628806e+01   4.069920e+01
  -6.680700e+01   3.640828e+01
  -1.644769e+02   2.955349e-01
  -1.456443e+02  -5.651955e+01
  -1.317748e+01  -9.287118e+01
   1.244318e+02  -7.677190e+01
   1.472526e+02  -1.477554e+01
   5.160042e+01   4.375801e+01
  -5.870611e+01   4.198960e+01
  -7.785609e+01  -1.835334e+01
  -1.351523e+01  -7.419487e+01
   5.274431e+01  -6.335989e+01
   6.656981e+01   2.304425e+00
   4.956092e+01   5.310677e+01
   4.445070e+01   4.356254e+01
   5.908036e+01   1.322476e+00
   6.539069e+01   1.515646e+00
   3.817140e+01   7.199331e+01
  -3.217335e+01   1.500155e+02
  -1.208697e+02   1.414993e+02
  -1.707335e+02   3.110377e+01
  -1.282544e+02  -9.323543e+01
  -4.932942e+00  -1.297322e+02
   8.977524e+01  -6.519500e+01
   6.402111e+01   1.335554e+01
  -5.792477e+01   2.122309e+01
  -1.388284e+02  -4.064749e+01
  -7.754893e+01  -1.091252e+02
   8.126447e+01  -1.156153e+02
   1.910766e+02  -5.205915e+01
   1.634142e+02   3.499042e+01
   3.854138e+01   8.716712e+01
  -5.950225e+01   6.881753e+01
  -4.947406e+01   5.272919e+00
   3.885521e+01  -2.837365e+01
   9.222337e+01   2.210213e+01
   3.613436e+01   1.214336e+02
  -8.902347e+01   1.604492e+02
  -1.691711e+02   6.735157e+01
  -1.311854e+02  -1.014887e+02
  -1.343931e+01  -2.026396e+02
   8.738106e+01  -1.461391e+02
   1.081756e+02   9.611479e+00
   6.101327e+01   1.218436e+02
  -6.123721e+00   1.077068e+02
  -4.983673e+01   1.985217e+01
  -5.158673e+01  -3.078455e+01
  -2.191485e+01  -7.461863e+00
  -3.245429e+00   2.022388e+01
  -2.552890e+01  -1.645034e+01
  -5.998610e+01  -9.102905e+01
  -4.053856e+01  -1.106593e+02
   5.183814e+01  -4.816976e+01
   1.418845e+02   3.851349e+01
   1.311671e+02   7.276043e+01
   1.689811e+01   5.475304e+01
  -8.773206e+01   2.612154e+01
  -8.959807e+01   6.636733e+00
  -1.451124e+01  -1.165477e+01
   3.757527e+01  -2.376658e+01
   1.711424e+01  -1.531357e+01
  -1.789226e+01   4.654129e+00
   4.961502e+00   7.738699e+00
   7.196883e+01   7.738122e-02
   9.472064e+01   2.426119e+01
   1.272874e+01   8.590231e+01
  -1.172366e+02   1.192233e+02
  -1.905125e+02   6.030888e+01
  -1.494202e+02  -6.964090e+01
  -2.650171e+01  -1.660263e+02
   8.192377e+01  -1.527650e+02
   1.178690e+02  -6.060247e+01
   8.270262e+01   2.275317e+01
   2.668957e+01   3.727509e+01
  -1.429545e+00   1.053677e+01
   1.119034e+01   4.318766e+00
   3.316936e+01   4.796792e+01
   2.274361e+01   9.345592e+01
  -3.050031e+01   7.459752e+01
  -8.398738e+01  -1.788170e+01
  -7.994172e+01  -1.096680e+02
  -4.720025e+00  -1.138958e+02
   8.380759e+01  -2.609850e+01
   1.057366e+02   7.450366e+01
   3.351195e+01   1.059839e+02
  -6.894815e+01   5.997293e+01
  -1.015525e+02  -1.122925e+01
  -4.042071e+01  -5.433841e+01
   3.505737e+01  -5.603223e+01
   3.412723e+01  -2.783262e+01
  -3.229695e+01   2.929320e+00
  -7.083002e+01   5.233153e+00
  -1.628568e+01  -2.856434e+01
   8.121656e+01  -6.597541e+01
   1.199750e+02  -5.448974e+01
   6.789108e+01   1.685479e+01
  -1.507593e+01   8.569796e+01
  -5.664089e+01   8.054512e+01
  -4.182598e+01   6.005315e+00
  -3.612010e+00  -5.614399e+01
   2.684091e+01  -4.462779e+01
   3.768454e+01   1.759752e+01
   2.571176e+01   5.481511e+01
  -3.811901e+00   3.552137e+01
  -3.309086e+01  -8.222529e+00
  -3.998586e+01  -2.318041e+01
  -2.159571e+01  -2.172905e+00
  -2.595027e-01   1.540633e+01
   5.473002e+00  -1.016505e+00
   3.593692e+00  -3.704117e+01
   1.323582e+01  -4.763163e+01
   3.269700e+01  -1.126073e+01
   3.428236e+01   4.342560e+01
   2.043616e+00   6.194451e+01
  -4.625107e+01   2.199947e+01
  -6.105227e+01  -3.999583e+01
  -1.557642e+01  -6.471012e+01
   5.878100e+01  -3.578897e+01
   9.225355e+01   1.493685e+01
   4.940000e+01   4.422172e+01
  -3.002810e+01   4.265585e+01
  -6.618423e+01   2.278603e+01
  -2.467932e+01   4.228505e+00
   3.660467e+01   7.358914e-01
   3.765147e+01   1.519391e+01
  -3.013606e+01   3.261621e+01
  -9.091898e+01   2.035439e+01
