
 $NMID
 id='ANONYMOUS ', fmtdat='(2E16.6)'
 volume=1.0
 tramp=1.0
 $END
  -3.421631e+03  -2.592922e+02
  -1.960622e+03  -1.998808e+03
   4.169992e+02  -2.117684e+03
   1.477583e+03  -9.561751e+02
   8.395125e+02   1.115566e+02
  -1.972871e+02   2.537721e+02
  -4.852324e+02  -2.697261e+02
   3.875471e+01  -6.849298e+02
   5.819927e+02  -5.519040e+02
   6.738326e+02   4.948615e+01
   3.645114e+02   6.319520e+02
  -1.325757e+02   6.648585e+02
  -3.923246e+02   9.507131e+01
  -2.124055e+02  -5.177000e+02
   2.043840e+02  -5.530181e+02
   4.649148e+02  -8.504314e+00
   2.355145e+02   5.350876e+02
  -1.939868e+02   5.755242e+02
  -4.687223e+02   1.836338e+02
  -3.850184e+02  -2.359623e+02
  -7.627104e+01  -3.685074e+02
   1.644719e+02  -2.161223e+02
   9.776155e+01  -2.266409e+01
  -1.855169e+02  -3.960401e+01
  -3.146129e+02  -2.696867e+02
  -1.130157e+01  -4.098100e+02
   5.053324e+02  -1.997951e+02
   6.619007e+02   2.279990e+02
   2.193288e+02   4.515911e+02
  -3.976815e+02   2.424623e+02
  -5.616387e+02  -1.713766e+02
  -1.788944e+02  -4.215215e+02
   3.180096e+02  -3.629161e+02
   4.841914e+02  -1.017023e+02
   3.089407e+02   2.023174e+02
   3.593814e+01   3.409718e+02
  -9.139174e+01   1.797180e+02
   7.119786e+00  -1.452057e+02
   2.121285e+02  -2.466887e+02
   2.711381e+02   1.500123e+02
   3.094459e+01   5.605284e+02
  -3.124082e+02   4.698578e+02
  -3.817895e+02  -5.096700e+01
  -1.021821e+02  -3.895730e+02
   2.145420e+02  -1.551738e+02
   2.073474e+02   3.154640e+02
  -1.335316e+02   4.248978e+02
  -4.796598e+02   4.389580e+01
  -4.800152e+02  -4.062701e+02
  -1.190533e+02  -5.139372e+02
   3.414365e+02  -2.578048e+02
   5.323929e+02   1.041190e+02
   3.063941e+02   3.024035e+02
  -1.009410e+02   2.421877e+02
  -3.159749e+02   3.294361e+01
  -1.856812e+02  -8.690490e+01
   4.099273e+01  -2.500282e+01
   6.125067e+01   9.376486e+01
  -1.327605e+02   8.314456e+01
  -2.517878e+02  -8.003863e+01
  -1.104394e+02  -2.294411e+02
   1.661006e+02  -2.300303e+02
   3.330561e+02  -1.034107e+02
   2.482765e+02   1.008210e+02
  -1.512950e+01   2.922376e+02
  -2.835531e+02   3.451375e+02
  -3.672936e+02   1.598998e+02
  -2.346661e+02  -1.645460e+02
  -2.957373e+01  -3.687112e+02
   7.509698e+01  -3.047900e+02
   4.191050e+01  -1.374944e+02
   1.754975e+01  -7.898770e+01
   1.118502e+02  -1.156017e+02
   2.427926e+02  -6.757290e+01
   2.434064e+02   1.186483e+02
   8.839102e+01   2.688255e+02
  -1.091876e+02   2.030114e+02
  -2.017273e+02  -4.165024e+01
  -1.360679e+02  -2.515039e+02
   5.669295e+01  -2.583743e+02
   2.580066e+02  -6.052666e+01
   3.079032e+02   1.897701e+02
   1.485215e+02   3.122499e+02
  -8.016452e+01   2.560669e+02
  -1.770345e+02   1.207991e+02
  -1.331077e+02   5.407706e+01
  -1.257307e+02   6.440976e+01
  -2.670441e+02   4.390523e+01
  -3.980220e+02  -1.031407e+02
  -2.984261e+02  -3.089526e+02
   4.334145e+01  -4.352005e+02
   3.945483e+02  -3.710194e+02
   4.789824e+02  -1.433501e+02
   2.839773e+02   1.214831e+02
   6.435779e+00   2.609608e+02
  -1.229161e+02   1.962833e+02
  -3.290339e+01   2.418239e+01
   1.207646e+02  -5.122509e+01
   1.430152e+02   4.158972e+01
   6.966318e-01   1.525858e+02
  -1.358789e+02   1.047040e+02
  -1.172339e+02  -6.652325e+01
   4.107760e+01  -1.425765e+02
   1.676445e+02   3.148962e+00
   1.348307e+02   2.380941e+02
  -3.977160e+01   3.309720e+02
  -2.387621e+02   1.897647e+02
  -3.372938e+02  -7.369498e+01
  -2.631776e+02  -2.640603e+02
  -5.827253e+01  -2.737612e+02
   1.337372e+02  -1.370513e+02
   1.569764e+02   7.227781e+00
   3.367817e+01   2.526141e+01
  -5.668606e+01  -6.101890e+01
   5.499000e+00  -1.214644e+02
   1.334892e+02  -6.567811e+01
   1.512631e+02   3.917286e+01
   2.763456e+01   6.528007e+01
  -8.668928e+01  -1.022978e+01
  -3.886627e+01  -9.391048e+01
   1.467247e+02  -8.553998e+01
   2.932653e+02   2.935307e+01
   2.495877e+02   1.768919e+02
   2.266843e+01   2.658248e+02
  -2.126706e+02   2.280018e+02
  -2.753779e+02   7.918086e+01
  -1.325118e+02  -6.102609e+01
   4.099892e+01  -7.997571e+01
   7.014008e+01   1.594583e+01
  -5.834011e+01   8.600691e+01
  -1.911638e+02   2.376074e+01
  -1.839179e+02  -1.190107e+02
  -4.227936e+01  -1.942414e+02
   9.880429e+01  -1.281963e+02
   1.272350e+02  -6.720834e+00
   4.411558e+01   4.453070e+01
  -4.263850e+01  -1.465454e+01
  -2.692420e+01  -1.059793e+02
   9.542314e+01  -1.144150e+02
   2.063716e+02  -6.628815e+00
   1.728792e+02   1.419487e+02
  -2.555385e+00   2.082758e+02
  -1.658364e+02   1.366138e+02
  -1.736646e+02  -7.676557e+00
  -4.510207e+01  -1.027007e+02
   7.130760e+01  -9.002301e+01
   7.369639e+01  -1.619636e+01
   2.981448e+00   2.799048e+01
  -3.652147e+01   8.588853e+00
   7.484322e+00  -2.225171e+01
   8.130270e+01   1.880022e+00
   9.693646e+01   9.135956e+01
   3.646253e+00   1.698974e+02
  -1.455892e+02   1.428841e+02
  -2.343793e+02  -2.489868e+00
  -1.773491e+02  -1.677585e+02
  -1.663488e+01  -2.272634e+02
   1.127137e+02  -1.474188e+02
   1.264805e+02  -1.822053e+01
   6.483627e+01   4.921517e+01
   2.823023e+01   3.051856e+01
   5.217961e+01  -1.213008e+01
   8.261253e+01  -4.735707e+00
   5.026127e+01   5.361063e+01
  -4.066816e+01   9.614046e+01
  -1.158274e+02   6.079816e+01
  -9.975638e+01  -4.311799e+01
   1.838999e+01  -1.242777e+02
   1.586587e+02  -8.486914e+01
   1.985441e+02   7.173044e+01
   7.574669e+01   2.143293e+02
  -1.315847e+02   2.133016e+02
  -2.663004e+02   6.535831e+01
  -2.335064e+02  -1.044437e+02
  -8.614538e+01  -1.701940e+02
   4.777794e+01  -1.328184e+02
   9.346696e+01  -7.241594e+01
   7.362471e+01  -6.232269e+01
   6.000725e+01  -8.550086e+01
   8.849174e+01  -6.983339e+01
   1.250238e+02   2.513894e+01
   1.076592e+02   1.526728e+02
   1.492260e+01   2.188968e+02
  -1.084166e+02   1.572260e+02
  -1.699171e+02   1.825849e+00
  -1.194527e+02  -1.314409e+02
  -1.943687e+00  -1.556940e+02
   7.829018e+01  -7.597918e+01
   6.388659e+01   1.571595e+01
  -1.188941e+00   5.243356e+01
  -2.382518e+01   3.516888e+01
   2.667350e+01   1.283723e+01
   7.921993e+01   1.848541e+01
   4.528890e+01   4.134183e+01
  -6.983477e+01   3.954857e+01
  -1.640338e+02  -5.152281e+00
  -1.398680e+02  -6.412460e+01
   6.887729e-01  -9.555856e+01
   1.305122e+02  -6.714559e+01
   1.421136e+02   9.233005e-01
   4.170273e+01   5.133590e+01
  -6.119832e+01   3.871963e+01
  -7.564313e+01  -2.221794e+01
  -1.257383e+01  -7.010189e+01
   5.063674e+01  -5.886646e+01
   6.517749e+01   1.534334e+00
   5.014730e+01   4.941259e+01
   4.400404e+01   4.130916e+01
   5.409909e+01   4.713942e+00
   6.284125e+01   4.340606e+00
   3.846709e+01   6.985395e+01
  -3.319303e+01   1.444000e+02
  -1.253599e+02   1.370333e+02
  -1.734022e+02   2.638066e+01
  -1.215611e+02  -9.745399e+01
   4.545668e-01  -1.299196e+02
   9.007836e+01  -6.240131e+01
   5.857399e+01   1.539401e+01
  -5.636711e+01   1.823263e+01
  -1.276591e+02  -4.740213e+01
  -6.459303e+01  -1.074567e+02
   8.329063e+01  -1.033101e+02
   1.843496e+02  -3.652876e+01
   1.536618e+02   4.718102e+01
   2.772828e+01   8.694438e+01
  -6.696329e+01   5.994694e+01
  -5.118508e+01  -1.470923e+00
   3.838776e+01  -2.782489e+01
   8.850148e+01   2.323945e+01
   3.300219e+01   1.131998e+02
  -8.565991e+01   1.447417e+02
  -1.561644e+02   5.762917e+01
  -1.172844e+02  -9.681963e+01
  -5.380340e+00  -1.865104e+02
   8.643001e+01  -1.303888e+02
   1.017247e+02   1.566625e+01
   4.952400e+01   1.213978e+02
  -1.597925e+01   1.029308e+02
  -5.172987e+01   1.276186e+01
  -4.349969e+01  -3.519617e+01
  -1.741598e+01  -8.940119e+00
  -8.408692e+00   1.925761e+01
  -3.043317e+01  -1.912076e+01
  -5.282798e+01  -8.880514e+01
  -2.720271e+01  -1.065838e+02
   5.533930e+01  -4.102364e+01
   1.288345e+02   4.210235e+01
   1.155368e+02   7.278540e+01
   1.637492e+01   5.213533e+01
  -7.902796e+01   2.022724e+01
  -8.482517e+01   1.840953e+00
  -1.541144e+01  -1.075609e+01
   3.560258e+01  -1.838120e+01
   1.915929e+01  -1.266061e+01
  -1.559957e+01   2.958553e+00
   1.747421e+00   6.873441e+00
   6.404480e+01   4.063797e+00
   8.722381e+01   2.482661e+01
   1.555099e+01   7.608404e+01
  -1.095792e+02   1.069884e+02
  -1.800749e+02   5.705453e+01
  -1.412129e+02  -6.137768e+01
  -2.513434e+01  -1.541424e+02
   8.192935e+01  -1.472661e+02
   1.138688e+02  -5.828108e+01
   7.640765e+01   2.301941e+01
   2.285503e+01   3.874729e+01
   2.708514e-01   1.066783e+01
   1.325356e+01   5.955517e+00
   2.840481e+01   4.728389e+01
   1.391943e+01   8.836345e+01
  -3.217364e+01   6.794661e+01
  -7.510011e+01  -1.925223e+01
  -7.059224e+01  -1.024370e+02
  -6.175687e+00  -1.056443e+02
   7.365876e+01  -2.439575e+01
   9.665864e+01   6.830212e+01
   3.330219e+01   9.934185e+01
  -6.190943e+01   5.796847e+01
  -9.760103e+01  -9.946535e+00
  -4.228235e+01  -5.465715e+01
   3.328990e+01  -5.625405e+01
   3.822984e+01  -2.844872e+01
  -2.612222e+01   2.006082e+00
  -6.637460e+01   5.637241e+00
  -1.693220e+01  -2.594833e+01
   7.728531e+01  -6.123752e+01
   1.204026e+02  -4.892196e+01
   6.849980e+01   1.773810e+01
  -1.668183e+01   8.170440e+01
  -5.887435e+01   7.825525e+01
  -4.345253e+01   9.805990e+00
  -3.928087e+00  -5.211579e+01
   2.446477e+01  -4.567925e+01
   3.457171e+01   1.151674e+01
   2.685930e+01   5.297337e+01
  -1.468485e+00   3.736300e+01
  -3.216026e+01  -6.727986e+00
  -3.989969e+01  -2.523540e+01
  -1.910190e+01  -4.921810e+00
   3.996810e+00   1.896267e+01
   7.138028e+00   7.379202e+00
  -5.491255e-01  -2.888572e+01
   3.676373e+00  -4.637092e+01
   2.402886e+01  -1.801006e+01
   3.430691e+01   3.314931e+01
   7.820720e+00   5.418085e+01
  -3.844523e+01   2.145408e+01
  -5.608508e+01  -3.327082e+01
  -1.554056e+01  -5.823406e+01
   5.451794e+01  -3.278689e+01
   8.796363e+01   1.484613e+01
   4.771597e+01   4.430297e+01
  -2.813061e+01   4.239494e+01
  -6.225642e+01   2.361870e+01
  -2.699033e+01   6.426894e+00
   2.800395e+01   3.815369e-01
   3.121802e+01   1.003846e+01
  -2.499295e+01   2.364728e+01
  -7.800560e+01   1.563063e+01
