
 $NMID
 id='ANONYMOUS ', fmtdat='(2E16.6)'
 volume=1.0
 tramp=1.0
 $END
   3.999974e+03   2.453201e+01
   2.404608e+03   2.415635e+03
  -6.490010e+02   2.558909e+03
  -1.907204e+03   9.438112e+02
  -9.033125e+02  -4.247769e+02
   4.715348e+02  -4.047893e+02
   6.871362e+02   3.779354e+02
  -6.276510e+01   9.052696e+02
  -7.291151e+02   6.753723e+02
  -8.305932e+02  -8.669471e+01
  -4.316660e+02  -7.513957e+02
   2.078446e+02  -7.983802e+02
   5.457198e+02  -9.533836e+01
   3.085237e+02   6.559961e+02
  -2.619838e+02   6.720197e+02
  -5.631327e+02   1.832142e+01
  -2.531178e+02  -6.355302e+02
   2.783577e+02  -6.181042e+02
   5.472625e+02  -1.395148e+02
   4.006732e+02   3.045805e+02
   4.436572e+01   4.209466e+02
  -2.117285e+02   2.460676e+02
  -1.634783e+02   1.176253e+01
   1.456077e+02  -4.003175e+01
   3.846645e+02   1.893029e+02
   1.193627e+02   4.492438e+02
  -4.952055e+02   3.391982e+02
  -7.869597e+02  -1.484492e+02
  -3.456228e+02  -5.198087e+02
   4.031241e+02  -3.946174e+02
   6.894068e+02   1.022768e+02
   2.831649e+02   4.762340e+02
  -3.101290e+02   4.715482e+02
  -5.535780e+02   1.608432e+02
  -3.752558e+02  -2.265304e+02
  -4.398521e+01  -4.267985e+02
   1.650248e+02  -2.312943e+02
   8.429375e+01   2.002300e+02
  -1.863739e+02   3.405354e+02
  -3.850864e+02  -9.109844e+01
  -1.435304e+02  -6.552268e+02
   3.423544e+02  -6.109124e+02
   5.296969e+02   3.798094e+01
   1.874210e+02   5.021015e+02
  -2.785209e+02   2.527938e+02
  -3.128809e+02  -3.265931e+02
   1.037680e+02  -5.058521e+02
   5.383135e+02  -9.748160e+01
   5.459485e+02   4.163204e+02
   1.438430e+02   5.709386e+02
  -3.716716e+02   3.150213e+02
  -5.918436e+02  -9.333761e+01
  -3.500054e+02  -3.615189e+02
   1.355759e+02  -3.239554e+02
   3.865572e+02  -4.792495e+01
   2.178431e+02   1.469492e+02
  -8.815588e+01   6.766949e+01
  -1.073742e+02  -1.339893e+02
   1.580487e+02  -1.386453e+02
   3.081827e+02   8.746497e+01
   1.229040e+02   2.765776e+02
  -2.027862e+02   2.379132e+02
  -3.393279e+02   7.558078e+01
  -2.118678e+02  -1.020908e+02
   2.349321e+01  -2.549589e+02
   2.545058e+02  -3.350589e+02
   3.592151e+02  -1.881410e+02
   2.781923e+02   1.689903e+02
   5.377797e+01   4.227917e+02
  -1.117445e+02   3.514617e+02
  -9.331870e+01   1.193680e+02
  -2.115215e+01   2.624139e+01
  -7.559047e+01   1.050369e+02
  -2.277798e+02   1.085909e+02
  -2.755485e+02  -8.427980e+01
  -1.295158e+02  -2.791163e+02
   9.619267e+01  -2.423953e+02
   2.269580e+02   1.206490e+01
   1.750396e+02   2.525794e+02
  -3.445751e+01   2.853151e+02
  -2.677346e+02   9.139177e+01
  -3.407462e+02  -1.834557e+02
  -1.684977e+02  -3.405159e+02
   9.617109e+01  -2.850155e+02
   2.101272e+02  -1.149122e+02
   1.411407e+02  -2.318150e+01
   1.065932e+02  -5.273258e+01
   2.495734e+02  -6.349739e+01
   4.061120e+02   7.952411e+01
   3.213814e+02   2.994847e+02
  -1.341695e+01   4.406905e+02
  -3.742052e+02   3.987241e+02
  -4.862951e+02   1.785165e+02
  -3.154702e+02  -1.095968e+02
  -3.269954e+01  -2.837112e+02
   1.325497e+02  -2.253165e+02
   6.289229e+01  -2.397935e+01
  -1.185345e+02   8.327863e+01
  -1.777005e+02  -2.809806e+01
  -2.985145e+01  -1.842692e+02
   1.551543e+02  -1.427222e+02
   1.545293e+02   7.081929e+01
  -2.860963e+01   1.762341e+02
  -1.909148e+02   1.860803e+01
  -1.602331e+02  -2.458507e+02
   3.157078e+01  -3.480260e+02
   2.370372e+02  -1.943239e+02
   3.345463e+02   6.385033e+01
   2.739771e+02   2.504571e+02
   7.589898e+01   2.718302e+02
  -1.270338e+02   1.511475e+02
  -1.703058e+02   6.620408e+00
  -4.622401e+01  -3.280935e+01
   6.563593e+01   4.788345e+01
   1.389727e+01   1.275073e+02
  -1.300526e+02   8.616750e+01
  -1.686375e+02  -2.674984e+01
  -4.486749e+01  -7.358867e+01
   8.476386e+01  -7.442613e+00
   5.136916e+01   8.143749e+01
  -1.300050e+02   8.869008e+01
  -2.843337e+02  -5.846738e+00
  -2.580109e+02  -1.525549e+02
  -4.610128e+01  -2.612787e+02
   1.962864e+02  -2.492635e+02
   2.778372e+02  -1.048419e+02
   1.532836e+02   5.910948e+01
  -3.475594e+01   9.834261e+01
  -8.550912e+01  -5.643823e+00
   4.440593e+01  -1.000261e+02
   1.989078e+02  -4.756948e+01
   2.070505e+02   1.112268e+02
   6.015161e+01   2.054371e+02
  -9.686982e+01   1.490016e+02
  -1.404970e+02   2.013175e+01
  -6.189770e+01  -4.301846e+01
   3.514454e+01   3.458315e+00
   3.544934e+01   9.385977e+01
  -8.119433e+01   1.159827e+02
  -2.033892e+02   1.981274e+01
  -1.856160e+02  -1.329945e+02
  -1.092910e+01  -2.169143e+02
   1.676570e+02  -1.533652e+02
   1.862994e+02   2.902164e+00
   5.618674e+01   1.136179e+02
  -7.097016e+01   1.041469e+02
  -8.197443e+01   2.327764e+01
  -1.508840e+01  -2.811394e+01
   2.721411e+01  -1.686114e+01
  -5.526840e+00   1.333055e+01
  -7.451757e+01  -4.070746e+00
  -9.475762e+01  -8.536415e+01
  -1.291376e+01  -1.648875e+02
   1.364288e+02  -1.509295e+02
   2.385138e+02  -1.363050e+01
   1.933066e+02   1.599070e+02
   3.005494e+01   2.364722e+02
  -1.133771e+02   1.633208e+02
  -1.337916e+02   2.350770e+01
  -6.831000e+01  -5.384202e+01
  -2.868381e+01  -3.372908e+01
  -5.212256e+01   1.216438e+01
  -8.041934e+01   7.925786e+00
  -4.704710e+01  -5.033112e+01
   3.906814e+01  -9.331817e+01
   1.078467e+02  -6.082935e+01
   9.466982e+01   3.741138e+01
  -1.046407e+01   1.178886e+02
  -1.463510e+02   8.842560e+01
  -2.001804e+02  -5.796519e+01
  -9.453854e+01  -2.081642e+02
   1.171741e+02  -2.224305e+02
   2.699848e+02  -8.302881e+01
   2.513848e+02   9.454494e+01
   1.021834e+02   1.756840e+02
  -4.310801e+01   1.444444e+02
  -9.530243e+01   7.969085e+01
  -7.600240e+01   6.595591e+01
  -6.257607e+01   8.862380e+01
  -8.949284e+01   7.377878e+01
  -1.277587e+02  -2.085448e+01
  -1.167817e+02  -1.525022e+02
  -2.506133e+01  -2.252417e+02
   1.041855e+02  -1.696826e+02
   1.753909e+02  -1.421962e+01
   1.296034e+02   1.273779e+02
   1.110046e+01   1.593254e+02
  -7.211605e+01   8.700528e+01
  -6.262239e+01  -6.523430e+00
  -3.825154e+00  -4.648296e+01
   1.489805e+01  -3.547586e+01
  -3.080546e+01  -1.798564e+01
  -7.522014e+01  -2.192075e+01
  -4.386111e+01  -3.956939e+01
   6.624623e+01  -3.646998e+01
   1.587372e+02   6.992614e-01
   1.427623e+02   5.457340e+01
   1.159902e+01   9.357461e+01
  -1.242662e+02   7.303338e+01
  -1.457385e+02   8.973790e+00
  -4.689007e+01  -4.471352e+01
   5.963503e+01  -3.898497e+01
   7.430836e+01   1.924325e+01
   8.455041e+00   6.684225e+01
  -5.270943e+01   5.613186e+01
  -6.255669e+01  -2.868271e+00
  -4.674566e+01  -5.044919e+01
  -4.234635e+01  -4.227714e+01
  -5.726744e+01  -3.878176e+00
  -6.429082e+01  -2.613074e+00
  -3.583382e+01  -6.909335e+01
   3.316812e+01  -1.429697e+02
   1.182231e+02  -1.369143e+02
   1.665999e+02  -2.959780e+01
   1.222824e+02   9.226656e+01
   4.421669e+00   1.264458e+02
  -8.700392e+01   6.169874e+01
  -5.926339e+01  -1.550419e+01
   5.784826e+01  -2.011613e+01
   1.339063e+02   4.411853e+01
   7.101081e+01   1.089644e+02
  -8.139676e+01   1.099314e+02
  -1.891762e+02   4.781448e+01
  -1.597805e+02  -3.842633e+01
  -3.472612e+01  -8.764468e+01
   6.278572e+01  -6.692853e+01
   5.048950e+01  -3.768246e+00
  -3.774194e+01   2.665599e+01
  -8.834042e+01  -2.291205e+01
  -3.186577e+01  -1.147331e+02
   8.999341e+01  -1.481696e+02
   1.620828e+02  -5.779302e+01
   1.198847e+02   9.882794e+01
   6.821963e+00   1.926709e+02
  -8.624197e+01   1.391167e+02
  -1.034855e+02  -1.141346e+01
  -5.726096e+01  -1.201183e+02
   8.615305e+00  -1.058556e+02
   4.924036e+01  -1.776190e+01
   4.941831e+01   3.358143e+01
   2.217144e+01   9.774768e+00
   4.525901e+00  -1.922042e+01
   2.457086e+01   1.663680e+01
   5.534630e+01   8.777532e+01
   3.544522e+01   1.066892e+02
  -5.078240e+01   4.276643e+01
  -1.349423e+02  -4.134326e+01
  -1.230494e+02  -7.170697e+01
  -1.609632e+01  -5.055746e+01
   8.440468e+01  -2.042606e+01
   8.539861e+01  -2.951247e+00
   1.162475e+01   9.631816e+00
  -3.665588e+01   2.035102e+01
  -1.569204e+01   1.493825e+01
   1.876916e+01  -2.016908e+00
  -5.190164e+00  -8.214197e+00
  -6.918326e+01  -3.521038e+00
  -8.948547e+01  -2.266625e+01
  -1.149945e+01  -7.852495e+01
   1.134355e+02  -1.118529e+02
   1.829797e+02  -5.953024e+01
   1.400291e+02   6.372862e+01
   2.408050e+01   1.593158e+02
  -8.053344e+01   1.480907e+02
  -1.133903e+02   5.770723e+01
  -7.728506e+01  -2.351493e+01
  -2.372513e+01  -3.759266e+01
   3.172745e-01  -9.834673e+00
  -1.113167e+01  -5.302209e+00
  -2.987885e+01  -4.699664e+01
  -1.885871e+01  -8.840958e+01
   2.986469e+01  -6.926085e+01
   7.733650e+01   1.885434e+01
   7.433454e+01   1.045989e+02
   6.139728e+00   1.084029e+02
  -7.862064e+01   2.414246e+01
  -1.016856e+02  -7.230155e+01
  -3.316299e+01  -1.020681e+02
   6.575585e+01  -5.727595e+01
   9.930219e+01   1.027001e+01
   4.102048e+01   5.160011e+01
  -3.212688e+01   5.296109e+01
  -3.426145e+01   2.894501e+01
   3.030188e+01   3.977067e-01
   6.762507e+01  -5.275425e+00
   1.600566e+01   2.537091e+01
  -7.771861e+01   6.254679e+01
  -1.172827e+02   5.339632e+01
  -6.569667e+01  -1.420890e+01
   1.469794e+01  -8.130948e+01
   5.375504e+01  -7.732328e+01
   3.880115e+01  -7.272585e+00
   1.819331e+00   5.281673e+01
  -2.501319e+01   4.236658e+01
  -3.463646e+01  -1.657354e+01
  -2.459219e+01  -5.368724e+01
   2.389449e+00  -3.458866e+01
   3.130606e+01   7.477600e+00
   4.016633e+01   2.198547e+01
   2.153705e+01   2.300121e+00
  -8.963737e-01  -1.537499e+01
  -7.513726e+00   3.620182e-01
  -4.918417e+00   3.429944e+01
  -1.221499e+01   4.500201e+01
  -2.943283e+01   1.007026e+01
  -3.171699e+01  -4.232857e+01
  -1.119779e+00  -5.906720e+01
   4.284721e+01  -1.944867e+01
   5.605920e+01   3.781894e+01
   1.447305e+01   6.012802e+01
  -5.442851e+01   3.227769e+01
  -8.765789e+01  -1.469815e+01
  -4.811032e+01  -4.307012e+01
   2.792227e+01  -4.039066e+01
   6.329189e+01  -2.181322e+01
   2.385839e+01  -6.251041e+00
  -3.354451e+01  -2.843521e+00
  -3.339410e+01  -1.397713e+01
   2.975113e+01  -2.795134e+01
   8.711248e+01  -1.738112e+01
