
 $NMID
 id='ANONYMOUS ', fmtdat='(2E16.6)'
 volume=1.0
 tramp=1.0
 $END
  -4.326697e+03   1.059603e+02
  -2.638936e+03  -2.592611e+03
   6.684813e+02  -2.785349e+03
   2.153159e+03  -9.035505e+02
   9.835231e+02   6.893559e+02
  -6.630141e+02   6.375203e+02
  -9.633766e+02  -4.251024e+02
  -4.548741e+01  -1.107835e+03
   8.370330e+02  -8.348842e+02
   9.794985e+02   6.531998e+01
   4.692645e+02   9.066314e+02
  -2.353649e+02   9.208133e+02
  -6.550264e+02   1.371477e+02
  -3.964051e+02  -7.307620e+02
   2.760273e+02  -7.804806e+02
   6.449615e+02   1.263995e+01
   3.106004e+02   6.997074e+02
  -3.109897e+02   6.800280e+02
  -6.011158e+02   1.193965e+02
  -4.189197e+02  -3.452909e+02
  -2.759924e+01  -4.565092e+02
   2.511706e+02  -2.715846e+02
   2.280524e+02  -1.376364e+01
  -1.096714e+02   9.122034e+01
  -4.214130e+02  -1.054504e+02
  -2.186762e+02  -4.294541e+02
   4.477947e+02  -4.223274e+02
   8.486524e+02   5.264047e+01
   4.474051e+02   5.452103e+02
  -3.796202e+02   5.087880e+02
  -7.519366e+02  -1.120146e+01
  -3.655511e+02  -4.803434e+02
   2.744342e+02  -5.370425e+02
   5.833574e+02  -2.243487e+02
   4.483305e+02   2.313412e+02
   8.618694e+01   5.031481e+02
  -2.141807e+02   3.087148e+02
  -2.030653e+02  -2.140585e+02
   1.720294e+02  -4.656102e+02
   4.511905e+02  -1.235858e+01
   2.650722e+02   6.677012e+02
  -3.039663e+02   7.162608e+02
  -6.178100e+02   3.759530e+01
  -2.880559e+02  -5.482154e+02
   2.771493e+02  -3.521676e+02
   4.031158e+02   2.986890e+02
  -4.168063e+01   5.624995e+02
  -5.524533e+02   1.644702e+02
  -6.069616e+02  -3.956071e+02
  -1.839750e+02  -5.996084e+02
   3.768813e+02  -3.721784e+02
   6.419681e+02   5.770289e+01
   3.986465e+02   3.838832e+02
  -1.412077e+02   3.814491e+02
  -4.559547e+02   7.390648e+01
  -2.615460e+02  -1.979710e+02
   1.114537e+02  -1.236324e+02
   1.632521e+02   1.353938e+02
  -1.498451e+02   1.986401e+02
  -3.519977e+02  -5.426565e+01
  -1.582757e+02  -2.978857e+02
   2.016804e+02  -2.805800e+02
   3.461513e+02  -8.510150e+01
   2.071934e+02   9.251407e+01
  -2.518937e+01   2.403189e+02
  -2.239165e+02   3.350347e+02
  -3.397075e+02   2.167078e+02
  -3.006199e+02  -1.325363e+02
  -9.330018e+01  -4.396541e+02
   1.150025e+02  -3.934344e+02
   1.361795e+02  -1.157790e+02
   3.779688e+01   2.622522e+01
   3.728804e+01  -7.536156e+01
   1.811510e+02  -1.341894e+02
   2.759369e+02   3.702127e+01
   1.718719e+02   2.673178e+02
  -5.945447e+01   2.671221e+02
  -2.295252e+02   2.836613e+01
  -2.141310e+02  -2.336891e+02
  -5.480041e+00  -3.020039e+02
   2.640466e+02  -1.343997e+02
   3.748639e+02   1.558541e+02
   2.059152e+02   3.521063e+02
  -9.206227e+01   3.203134e+02
  -2.357547e+02   1.349784e+02
  -1.617150e+02   8.981652e+00
  -9.716611e+01   2.898184e+01
  -2.218082e+02   6.827507e+01
  -3.929074e+02  -4.812147e+01
  -3.448823e+02  -2.777062e+02
  -9.043280e+00  -4.471701e+02
   3.517271e+02  -4.207767e+02
   4.880424e+02  -2.122977e+02
   3.436454e+02   8.336525e+01
   6.703440e+01   2.945132e+02
  -1.214885e+02   2.656552e+02
  -8.760740e+01   4.058856e+01
   9.943239e+01  -1.112417e+02
   1.952019e+02  -3.898791e+00
   6.089654e+01   1.956035e+02
  -1.544752e+02   1.849641e+02
  -1.861214e+02  -5.342279e+01
   7.261350e+00  -2.027201e+02
   1.973712e+02  -4.657102e+01
   1.762159e+02   2.461934e+02
  -2.179564e+01   3.584424e+02
  -2.335817e+02   2.024160e+02
  -3.343200e+02  -5.833799e+01
  -2.830221e+02  -2.367821e+02
  -9.838197e+01  -2.639079e+02
   1.106495e+02  -1.628810e+02
   1.773107e+02  -2.715687e+01
   6.348363e+01   3.338966e+01
  -7.012465e+01  -3.480807e+01
  -3.568572e+01  -1.216729e+02
   1.181591e+02  -1.056448e+02
   1.809290e+02   2.760673e+00
   6.709982e+01   7.150257e+01
  -7.610956e+01   2.312224e+01
  -5.919399e+01  -6.664478e+01
   1.136261e+02  -8.953299e+01
   2.726815e+02  -1.014455e+01
   2.611958e+02   1.263381e+02
   6.994431e+01   2.494214e+02
  -1.713524e+02   2.651246e+02
  -2.769685e+02   1.368495e+02
  -1.774458e+02  -4.515699e+01
   1.370190e+01  -1.133999e+02
   8.952404e+01  -1.621035e+01
  -2.431606e+01   9.949753e+01
  -1.886213e+02   6.681749e+01
  -2.159944e+02  -9.636456e+01
  -7.623091e+01  -2.099852e+02
   9.087400e+01  -1.648672e+02
   1.459973e+02  -3.298663e+01
   7.459724e+01   4.132945e+01
  -2.544997e+01   6.249962e+00
  -3.832926e+01  -7.950077e+01
   6.730945e+01  -1.136488e+02
   1.937609e+02  -3.409306e+01
   1.946855e+02   1.166367e+02
   3.039673e+01   2.176374e+02
  -1.571910e+02   1.706254e+02
  -1.956465e+02   1.385407e+01
  -7.363876e+01  -1.128780e+02
   6.185088e+01  -1.142005e+02
   8.555026e+01  -3.402307e+01
   2.176554e+01   2.445783e+01
  -2.060067e+01   1.874779e+01
   7.722584e+00  -7.771659e+00
   7.004216e+01   6.286731e+00
   9.006442e+01   7.873955e+01
   2.140816e+01   1.561641e+02
  -1.184229e+02   1.568147e+02
  -2.291465e+02   3.557908e+01
  -2.075147e+02  -1.404446e+02
  -5.322589e+01  -2.355255e+02
   1.035054e+02  -1.749221e+02
   1.385940e+02  -3.050052e+01
   7.425899e+01   5.476020e+01
   2.736824e+01   3.572986e+01
   4.999300e+01  -1.481527e+01
   7.743682e+01  -8.471475e+00
   4.306701e+01   4.912795e+01
  -3.996408e+01   8.727804e+01
  -1.006766e+02   5.475241e+01
  -8.542008e+01  -3.472356e+01
   1.140340e+01  -1.102584e+02
   1.379684e+02  -8.950135e+01
   1.974604e+02   4.378781e+01
   1.069226e+02   1.967638e+02
  -9.713524e+01   2.305652e+02
  -2.614002e+02   1.055109e+02
  -2.601110e+02  -7.675988e+01
  -1.194352e+02  -1.743742e+02
   3.237023e+01  -1.517781e+02
   9.190889e+01  -8.989651e+01
   7.955591e+01  -7.113426e+01
   6.487596e+01  -9.055684e+01
   9.186150e+01  -7.388708e+01
   1.300515e+02   1.853638e+01
   1.217434e+02   1.498375e+02
   3.371247e+01   2.220299e+02
  -9.523779e+01   1.730997e+02
  -1.748387e+02   2.678004e+01
  -1.380827e+02  -1.156130e+02
  -2.338127e+01  -1.570795e+02
   6.284187e+01  -9.331945e+01
   6.036558e+01  -2.871937e+00
   6.653479e+00   4.204568e+01
  -9.703650e+00   3.461289e+01
   3.414886e+01   1.787271e+01
   7.752695e+01   2.220368e+01
   4.516581e+01   3.807332e+01
  -6.001987e+01   3.793613e+01
  -1.518979e+02   5.397113e+00
  -1.418866e+02  -5.051272e+01
  -1.746039e+01  -8.930209e+01
   1.168991e+02  -7.639779e+01
   1.430934e+02  -1.513276e+01
   4.979822e+01   4.304854e+01
  -5.886004e+01   4.185145e+01
  -7.660614e+01  -1.680731e+01
  -1.082106e+01  -7.046025e+01
   5.413788e+01  -6.132579e+01
   6.430478e+01   6.029331e-01
   4.479671e+01   4.942100e+01
   4.340564e+01   4.179585e+01
   5.940410e+01  -4.357216e-01
   6.438257e+01  -9.148858e-01
   3.800646e+01   6.632278e+01
  -2.657980e+01   1.452323e+02
  -1.081280e+02   1.419233e+02
  -1.598854e+02   3.651597e+01
  -1.257947e+02  -8.625103e+01
  -1.121117e+01  -1.247577e+02
   8.529619e+01  -6.383266e+01
   6.340658e+01   1.286562e+01
  -5.508500e+01   2.344904e+01
  -1.369666e+02  -3.862025e+01
  -7.979400e+01  -1.049305e+02
   7.622302e+01  -1.155829e+02
   1.877757e+02  -5.599032e+01
   1.627536e+02   3.166700e+01
   3.925516e+01   8.659753e+01
  -5.867215e+01   7.140518e+01
  -4.922419e+01   7.777246e+00
   3.712231e+01  -2.804417e+01
   8.994246e+01   1.960178e+01
   3.594033e+01   1.175619e+02
  -8.685145e+01   1.554259e+02
  -1.648341e+02   6.573947e+01
  -1.289311e+02  -9.846135e+01
  -1.417739e+01  -1.974965e+02
   8.309697e+01  -1.427300e+02
   1.053094e+02   5.870516e+00
   6.368792e+01   1.152529e+02
   1.485334e+00   1.050940e+02
  -4.529834e+01   2.101887e+01
  -5.293746e+01  -2.907253e+01
  -2.705682e+01  -8.735686e+00
  -3.239204e+00   1.953466e+01
  -1.948939e+01  -1.249738e+01
  -5.714418e+01  -8.347272e+01
  -4.457890e+01  -1.082042e+02
   4.550427e+01  -4.892904e+01
   1.386453e+02   3.425379e+01
   1.315283e+02   6.752576e+01
   1.788440e+01   5.175787e+01
  -8.577618e+01   2.572373e+01
  -8.637102e+01   8.205022e+00
  -1.079264e+01  -8.753715e+00
   3.838643e+01  -2.254527e+01
   1.472865e+01  -1.610249e+01
  -2.124674e+01   2.271783e+00
   4.029524e+00   8.383860e+00
   7.104762e+01   1.218059e+00
   9.253500e+01   2.154133e+01
   1.337383e+01   8.062718e+01
  -1.143521e+02   1.151865e+02
  -1.823530e+02   6.045738e+01
  -1.413464e+02  -6.599810e+01
  -2.699149e+01  -1.593047e+02
   7.557868e+01  -1.467562e+02
   1.106140e+02  -5.829902e+01
   7.960072e+01   2.029805e+01
   2.581345e+01   3.526982e+01
  -2.008261e+00   8.378907e+00
   9.592214e+00   2.492281e+00
   3.331124e+01   4.312975e+01
   2.415920e+01   8.843362e+01
  -2.784354e+01   7.226950e+01
  -8.141061e+01  -1.588644e+01
  -7.851215e+01  -1.064722e+02
  -5.431976e+00  -1.122404e+02
   8.261276e+01  -2.518198e+01
   1.030984e+02   7.322970e+01
   3.166666e+01   1.015693e+02
  -6.525739e+01   5.618923e+01
  -9.620863e+01  -1.015405e+01
  -3.856309e+01  -4.886950e+01
   3.120648e+01  -5.103486e+01
   3.048024e+01  -2.801952e+01
  -3.316995e+01   1.724625e+00
  -6.814052e+01   7.752715e+00
  -1.612672e+01  -2.481619e+01
   7.581777e+01  -6.603282e+01
   1.125597e+02  -6.016892e+01
   6.307736e+01   1.113028e+01
  -1.422766e+01   8.289759e+01
  -5.263318e+01   8.023340e+01
  -3.898538e+01   4.773800e+00
  -3.078497e+00  -5.623944e+01
   2.647933e+01  -4.308542e+01
   3.847438e+01   1.948540e+01
   2.666938e+01   5.478856e+01
  -4.333989e+00   3.255369e+01
  -3.362965e+01  -9.762323e+00
  -3.939841e+01  -2.077904e+01
  -2.050691e+01  -2.151032e-01
   1.952445e-01   1.412604e+01
   6.210728e+00  -4.180216e+00
   6.096094e+00  -3.705231e+01
   1.563532e+01  -4.476601e+01
   3.342861e+01  -8.324265e+00
   3.295283e+01   4.520165e+01
  -1.130707e-02   6.129681e+01
  -4.478782e+01   2.180093e+01
  -5.802073e+01  -3.769942e+01
  -1.583708e+01  -6.146253e+01
   5.443684e+01  -3.465545e+01
   8.830249e+01   1.395343e+01
   4.890882e+01   4.330312e+01
  -2.842798e+01   4.081038e+01
  -6.439819e+01   2.152088e+01
  -2.458254e+01   4.239361e+00
   3.730865e+01   6.384669e-01
   3.838280e+01   1.526716e+01
  -2.914171e+01   3.280034e+01
  -9.020477e+01   2.065735e+01
