
 $NMID
 id='ANONYMOUS ', fmtdat='(2E16.6)'
 volume=1.0
 tramp=1.0
 $END
   4.403900e+03   9.698235e+01
   2.427892e+03   2.793321e+03
  -9.335855e+02   2.747182e+03
  -2.187661e+03   7.060013e+02
  -8.667199e+02  -7.704434e+02
   7.709643e+02  -5.437147e+02
   9.275832e+02   5.191075e+02
  -6.135788e+01   1.105479e+03
  -8.799607e+02   7.732272e+02
  -9.478496e+02  -1.421124e+02
  -4.405617e+02  -9.293281e+02
   2.881506e+02  -8.963444e+02
   6.605291e+02  -7.811970e+01
   3.643084e+02   7.479707e+02
  -3.112759e+02   7.562368e+02
  -6.544983e+02  -4.003766e+01
  -2.544987e+02  -6.948664e+02
   3.319144e+02  -6.315451e+02
   5.708189e+02  -8.002059e+01
   3.665282e+02   3.524123e+02
   1.241230e+00   4.259704e+02
  -2.426892e+02   2.495415e+02
  -2.074141e+02   2.419296e+00
   1.219710e+02  -9.918877e+01
   4.087220e+02   1.167732e+02
   1.999726e+02   4.403209e+02
  -4.650333e+02   4.126905e+02
  -8.425426e+02  -9.961666e+01
  -4.175795e+02  -5.737622e+02
   4.134063e+02  -4.926441e+02
   7.470288e+02   5.282739e+01
   3.337958e+02   4.995820e+02
  -2.989709e+02   5.176493e+02
  -5.719233e+02   1.946710e+02
  -4.227026e+02  -2.445291e+02
  -5.739928e+01  -4.893930e+02
   2.145670e+02  -2.828521e+02
   1.774826e+02   2.264476e+02
  -1.760720e+02   4.635893e+02
  -4.595279e+02  -3.257283e+01
  -2.310195e+02  -6.934792e+02
   3.537410e+02  -6.946457e+02
   6.123767e+02   2.413241e+01
   2.454016e+02   5.791616e+02
  -3.131988e+02   3.187089e+02
  -3.905368e+02  -3.358231e+02
   7.785653e+01  -5.651952e+02
   5.696540e+02  -1.348701e+02
   5.882789e+02   4.195581e+02
   1.501084e+02   5.943301e+02
  -3.934743e+02   3.444717e+02
  -6.300720e+02  -9.027866e+01
  -3.625089e+02  -4.016427e+02
   1.729521e+02  -3.629622e+02
   4.483354e+02  -3.451781e+01
   2.232799e+02   2.149009e+02
  -1.404830e+02   9.947126e+01
  -1.471389e+02  -1.703215e+02
   1.720851e+02  -1.934746e+02
   3.525743e+02   8.489938e+01
   1.325071e+02   3.079568e+02
  -1.985550e+02   2.497293e+02
  -3.140442e+02   6.621714e+01
  -1.831850e+02  -6.757850e+01
   1.591167e+01  -2.034833e+02
   1.962199e+02  -3.220683e+02
   3.336056e+02  -2.292996e+02
   2.955696e+02   1.306854e+02
   8.000340e+01   4.362876e+02
  -1.268870e+02   3.769402e+02
  -1.289262e+02   9.991409e+01
  -2.258004e+01  -2.310167e+01
  -3.190863e+01   8.747193e+01
  -1.889202e+02   1.389207e+02
  -2.799276e+02  -4.719656e+01
  -1.631551e+02  -2.741177e+02
   7.104176e+01  -2.614120e+02
   2.334029e+02  -1.350504e+01
   2.039524e+02   2.437493e+02
  -5.227121e+00   2.963503e+02
  -2.632574e+02   1.181009e+02
  -3.568767e+02  -1.655616e+02
  -1.847441e+02  -3.493933e+02
   1.010551e+02  -3.035714e+02
   2.266866e+02  -1.126276e+02
   1.447983e+02   2.536308e+00
   8.759255e+01  -3.289723e+01
   2.236410e+02  -7.282530e+01
   3.872922e+02   5.213667e+01
   3.246932e+02   2.783883e+02
   6.335083e-01   4.378157e+02
  -3.485227e+02   3.991338e+02
  -4.789128e+02   1.952633e+02
  -3.328224e+02  -9.435406e+01
  -5.225621e+01  -2.959199e+02
   1.400902e+02  -2.540646e+02
   9.328254e+01  -2.766889e+01
  -1.065612e+02   1.145243e+02
  -2.036186e+02  -3.016945e+00
  -5.190968e+01  -1.999914e+02
   1.637686e+02  -1.785236e+02
   1.804115e+02   5.937046e+01
  -2.045657e+01   1.977501e+02
  -1.962911e+02   3.758252e+01
  -1.600208e+02  -2.452445e+02
   3.595417e+01  -3.471186e+02
   2.260659e+02  -1.918408e+02
   3.195486e+02   6.347586e+01
   2.735923e+02   2.408854e+02
   9.212132e+01   2.680192e+02
  -1.155474e+02   1.625470e+02
  -1.823076e+02   1.778108e+01
  -6.144954e+01  -3.816569e+01
   7.269929e+01   3.563511e+01
   3.144504e+01   1.260887e+02
  -1.235833e+02   1.012753e+02
  -1.802061e+02  -1.403419e+01
  -6.138664e+01  -7.702989e+01
   7.992692e+01  -2.248602e+01
   5.942251e+01   6.847851e+01
  -1.157385e+02   8.620378e+01
  -2.716758e+02   4.368292e+00
  -2.602347e+02  -1.331137e+02
  -6.432676e+01  -2.498797e+02
   1.793108e+02  -2.584892e+02
   2.806843e+02  -1.254970e+02
   1.710837e+02   5.333015e+01
  -2.185537e+01   1.111003e+02
  -8.982548e+01   8.287552e+00
   3.099695e+01  -1.010427e+02
   1.919626e+02  -5.874473e+01
   2.108877e+02   1.027344e+02
   6.879965e+01   2.076077e+02
  -9.506017e+01   1.591521e+02
  -1.440674e+02   2.763551e+01
  -7.149475e+01  -4.573850e+01
   2.612556e+01  -8.239719e+00
   3.883287e+01   7.768840e+01
  -6.532705e+01   1.120432e+02
  -1.893759e+02   3.373762e+01
  -1.880847e+02  -1.169162e+02
  -2.391088e+01  -2.137407e+02
   1.593027e+02  -1.613767e+02
   1.904727e+02  -3.929869e+00
   6.409229e+01   1.146150e+02
  -6.645733e+01   1.078682e+02
  -8.463388e+01   2.787628e+01
  -2.282668e+01  -2.639318e+01
   1.940451e+01  -2.090557e+01
  -5.099839e+00   5.093427e+00
  -6.291137e+01  -8.279748e+00
  -8.296223e+01  -7.530519e+01
  -1.841759e+01  -1.484747e+02
   1.176559e+02  -1.464118e+02
   2.244682e+02  -2.676919e+01
   1.962794e+02   1.441057e+02
   3.920370e+01   2.290968e+02
  -1.088746e+02   1.628215e+02
  -1.319838e+02   2.414332e+01
  -6.775565e+01  -5.458491e+01
  -2.626385e+01  -3.480636e+01
  -5.014088e+01   1.156061e+01
  -7.621960e+01   5.996288e+00
  -3.962132e+01  -4.588073e+01
   3.908250e+01  -8.253752e+01
   9.507070e+01  -5.378649e+01
   8.114657e+01   3.152556e+01
  -1.002160e+01   1.050972e+02
  -1.317972e+02   8.657041e+01
  -1.899181e+02  -4.418781e+01
  -1.003131e+02  -1.914136e+02
   9.847232e+01  -2.201782e+02
   2.560817e+02  -9.620729e+01
   2.527682e+02   8.138899e+01
   1.116113e+02   1.751969e+02
  -3.820491e+01   1.475030e+02
  -9.483787e+01   8.322432e+01
  -7.899002e+01   6.591713e+01
  -6.537556e+01   8.588825e+01
  -8.844153e+01   6.991461e+01
  -1.226618e+02  -2.141414e+01
  -1.139123e+02  -1.478220e+02
  -2.943337e+01  -2.192750e+02
   9.629416e+01  -1.667712e+02
   1.719885e+02  -1.956370e+01
   1.346825e+02   1.178750e+02
   2.055459e+01   1.550263e+02
  -6.557601e+01   9.220811e+01
  -6.122400e+01   2.838072e+00
  -8.171380e+00  -4.130469e+01
   9.409712e+00  -3.467703e+01
  -3.256279e+01  -1.925106e+01
  -7.472173e+01  -2.243936e+01
  -4.295586e+01  -3.755099e+01
   5.937530e+01  -3.769118e+01
   1.518657e+02  -6.776261e+00
   1.428591e+02   5.059566e+01
   1.709428e+01   8.902257e+01
  -1.150430e+02   7.365045e+01
  -1.400389e+02   1.288051e+01
  -4.723244e+01  -3.832634e+01
   5.885446e+01  -3.488811e+01
   7.307147e+01   1.818312e+01
   6.019171e+00   6.507103e+01
  -5.512736e+01   5.487938e+01
  -5.995873e+01  -1.029724e+00
  -4.087065e+01  -4.735183e+01
  -4.157834e+01  -4.022012e+01
  -6.169163e+01  -3.933109e+00
  -6.439230e+01  -2.355443e+00
  -3.469483e+01  -6.478326e+01
   3.126549e+01  -1.423030e+02
   1.116318e+02  -1.401141e+02
   1.585437e+02  -3.410729e+01
   1.196869e+02   8.787402e+01
   9.032893e+00   1.228876e+02
  -8.112973e+01   6.060782e+01
  -5.900588e+01  -1.479407e+01
   5.259814e+01  -2.116253e+01
   1.297201e+02   3.982549e+01
   7.279543e+01   1.017717e+02
  -7.657785e+01   1.063988e+02
  -1.840891e+02   4.846227e+01
  -1.560085e+02  -3.485379e+01
  -3.489111e+01  -8.533731e+01
   6.132161e+01  -6.906530e+01
   4.917412e+01  -6.759120e+00
  -3.704494e+01   2.642987e+01
  -8.801146e+01  -1.977477e+01
  -3.285117e+01  -1.130730e+02
   8.767917e+01  -1.465874e+02
   1.606973e+02  -5.788835e+01
   1.213861e+02   9.760640e+01
   8.656872e+00   1.906296e+02
  -8.240800e+01   1.373144e+02
  -1.006817e+02  -6.489271e+00
  -6.111022e+01  -1.142877e+02
  -8.864312e-01  -1.036155e+02
   4.456422e+01  -2.046162e+01
   5.230104e+01   3.102547e+01
   2.786190e+01   1.114392e+01
   3.312145e+00  -1.951237e+01
   1.758829e+01   1.116301e+01
   5.280977e+01   8.234242e+01
   4.127010e+01   1.063857e+02
  -4.454724e+01   4.691775e+01
  -1.336068e+02  -3.798421e+01
  -1.260579e+02  -7.287399e+01
  -1.827507e+01  -4.978697e+01
   8.411404e+01  -2.166143e+01
   8.532653e+01  -8.013940e+00
   1.113878e+01   5.240055e+00
  -3.659737e+01   1.977867e+01
  -1.363871e+01   1.777382e+01
   2.052284e+01  -5.735041e-01
  -3.742479e+00  -1.030932e+01
  -6.776901e+01  -5.837085e+00
  -8.726518e+01  -2.126490e+01
  -1.082210e+01  -7.363677e+01
   1.120476e+02  -1.089899e+02
   1.791914e+02  -5.666284e+01
   1.372899e+02   6.514277e+01
   2.282379e+01   1.566328e+02
  -7.644248e+01   1.439121e+02
  -1.085596e+02   5.473167e+01
  -7.580353e+01  -2.170259e+01
  -2.350984e+01  -3.324529e+01
   2.441854e+00  -6.428445e+00
  -1.041850e+01  -1.929816e+00
  -3.275641e+01  -4.341384e+01
  -2.362167e+01  -8.716648e+01
   2.698026e+01  -6.923093e+01
   7.801339e+01   1.816129e+01
   7.279465e+01   1.051330e+02
   2.837177e+00   1.073043e+02
  -7.928255e+01   2.139256e+01
  -9.740084e+01  -7.301035e+01
  -2.972312e+01  -9.836022e+01
   6.267864e+01  -5.221877e+01
   9.236939e+01   1.094711e+01
   3.851284e+01   4.732204e+01
  -2.890156e+01   4.968260e+01
  -2.931164e+01   2.857704e+01
   3.046105e+01   9.128579e-01
   6.399192e+01  -5.842890e+00
   1.506256e+01   2.252397e+01
  -7.380648e+01   6.347258e+01
  -1.111121e+02   5.895859e+01
  -6.374941e+01  -8.512846e+00
   1.417035e+01  -7.969045e+01
   5.000561e+01  -7.742083e+01
   3.396652e+01  -6.077758e+00
   1.078883e+00   5.369344e+01
  -2.485236e+01   4.065731e+01
  -3.467256e+01  -1.895921e+01
  -2.514687e+01  -5.207414e+01
   2.695501e+00  -3.053879e+01
   3.186396e+01   9.036777e+00
   3.963689e+01   2.006775e+01
   2.099423e+01   6.975500e-01
  -1.629498e+00  -1.181145e+01
  -1.063201e+01   4.698044e+00
  -1.016883e+01   3.436511e+01
  -1.671366e+01   3.849924e+01
  -2.864657e+01   3.150143e+00
  -2.525467e+01  -4.300823e+01
   3.321037e+00  -5.615737e+01
   4.221280e+01  -1.772461e+01
   5.294498e+01   3.826526e+01
   1.415877e+01   5.970343e+01
  -5.146046e+01   3.297011e+01
  -8.484597e+01  -1.468790e+01
  -4.723126e+01  -4.281559e+01
   2.747824e+01  -3.842119e+01
   6.141207e+01  -1.910120e+01
   2.244284e+01  -3.827153e+00
  -3.587753e+01  -3.765027e+00
  -3.580356e+01  -1.730687e+01
   3.077927e+01  -2.924383e+01
   8.904207e+01  -1.624409e+01
