
 $NMID
 id='ANONYMOUS ', fmtdat='(2E16.6)'
 volume=1.0
 tramp=1.0
 $END
  -4.040479e+03  -1.503751e+02
  -2.291752e+03  -2.508576e+03
   8.039840e+02  -2.576557e+03
   1.962009e+03  -8.356799e+02
   8.552816e+02   5.212870e+02
  -5.959513e+02   4.283552e+02
  -7.498067e+02  -4.537232e+02
   7.302187e+01  -9.517408e+02
   7.734793e+02  -6.702506e+02
   8.532579e+02   1.164970e+02
   4.215281e+02   8.000721e+02
  -2.365433e+02   8.209444e+02
  -5.778973e+02   8.070326e+01
  -3.071181e+02  -6.821083e+02
   2.833960e+02  -6.726652e+02
   5.816250e+02   1.996689e+01
   2.288634e+02   6.522498e+02
  -3.143903e+02   5.905323e+02
  -5.459353e+02   8.741322e+01
  -3.587621e+02  -3.299909e+02
  -1.644375e+01  -4.064927e+02
   2.224682e+02  -2.351885e+02
   1.744720e+02  -5.548722e+00
  -1.472199e+02   6.268479e+01
  -3.904212e+02  -1.569184e+02
  -1.374171e+02  -4.340767e+02
   4.965406e+02  -3.538290e+02
   8.078485e+02   1.477516e+02
   3.452899e+02   5.547176e+02
  -4.289343e+02   4.207773e+02
  -7.089407e+02  -9.568261e+01
  -2.788105e+02  -4.885368e+02
   3.163999e+02  -4.778053e+02
   5.451230e+02  -1.450611e+02
   3.690116e+02   2.410675e+02
   4.136206e+01   4.357472e+02
  -1.742806e+02   2.409059e+02
  -1.149590e+02  -2.132549e+02
   1.692169e+02  -3.877222e+02
   4.043054e+02   7.227243e+01
   1.752493e+02   6.662426e+02
  -3.392152e+02   6.338978e+02
  -5.503050e+02  -3.780916e+01
  -1.958623e+02  -5.226737e+02
   3.004683e+02  -2.595504e+02
   3.364275e+02   3.496569e+02
  -1.120050e+02   5.208215e+02
  -5.536168e+02   9.104296e+01
  -5.561058e+02  -4.268131e+02
  -1.327537e+02  -5.746867e+02
   3.851498e+02  -3.138378e+02
   6.016029e+02   1.004124e+02
   3.409345e+02   3.808239e+02
  -1.557052e+02   3.275560e+02
  -4.168076e+02   3.447944e+01
  -2.177397e+02  -1.766255e+02
   1.102688e+02  -7.582788e+01
   1.157840e+02   1.523371e+02
  -1.717173e+02   1.524225e+02
  -3.242316e+02  -9.907805e+01
  -1.136848e+02  -2.872757e+02
   2.083314e+02  -2.318420e+02
   3.264626e+02  -6.608645e+01
   1.990813e+02   8.726141e+01
  -2.179490e+01   2.246503e+02
  -2.318019e+02   3.264669e+02
  -3.493181e+02   2.010408e+02
  -2.750451e+02  -1.557189e+02
  -5.161342e+01  -4.202426e+02
   1.221189e+02  -3.516982e+02
   1.059702e+02  -1.031518e+02
   1.562951e+01  -5.960581e+00
   5.724825e+01  -1.004246e+02
   2.123902e+02  -1.181384e+02
   2.733905e+02   7.539042e+01
   1.356612e+02   2.773766e+02
  -9.233647e+01   2.437697e+02
  -2.239488e+02  -9.506346e+00
  -1.763790e+02  -2.470147e+02
   3.285953e+01  -2.843993e+02
   2.659647e+02  -9.369154e+01
   3.406576e+02   1.800860e+02
   1.662441e+02   3.421354e+02
  -1.028833e+02   2.888419e+02
  -2.120112e+02   1.105764e+02
  -1.428618e+02   1.046089e+01
  -9.888224e+01   4.307751e+01
  -2.401251e+02   6.720589e+01
  -3.977337e+02  -6.874029e+01
  -3.143841e+02  -2.937309e+02
   1.238940e+01  -4.368716e+02
   3.616215e+02  -3.897132e+02
   4.754428e+02  -1.838065e+02
   3.193088e+02   1.015983e+02
   3.728422e+01   2.878099e+02
  -1.359525e+02   2.385063e+02
  -7.325626e+01   2.696419e+01
   1.135771e+02  -9.768372e+01
   1.862957e+02   1.580674e+01
   3.713317e+01   1.858768e+02
  -1.575872e+02   1.514642e+02
  -1.612929e+02  -6.462878e+01
   3.019085e+01  -1.779911e+02
   1.881248e+02  -1.845703e+01
   1.482218e+02   2.481649e+02
  -4.162387e+01   3.409082e+02
  -2.320681e+02   1.869121e+02
  -3.242832e+02  -6.769051e+01
  -2.713486e+02  -2.467934e+02
  -8.276300e+01  -2.691302e+02
   1.226832e+02  -1.542086e+02
   1.743252e+02  -6.579529e+00
   5.067174e+01   3.607959e+01
  -7.092383e+01  -4.249307e+01
  -1.984940e+01  -1.275783e+02
   1.297317e+02  -9.151074e+01
   1.726879e+02   2.352191e+01
   4.885242e+01   7.531133e+01
  -8.387400e+01   1.036060e+01
  -5.091344e+01  -7.962590e+01
   1.305434e+02  -8.608902e+01
   2.845423e+02   8.277472e+00
   2.583791e+02   1.512926e+02
   4.729359e+01   2.583767e+02
  -1.945867e+02   2.525402e+02
  -2.847330e+02   1.091787e+02
  -1.613846e+02  -5.992297e+01
   3.235002e+01  -1.048129e+02
   8.856448e+01  -8.521849e-01
  -4.040249e+01   1.006373e+02
  -1.954299e+02   4.980725e+01
  -2.034935e+02  -1.086510e+02
  -5.828816e+01  -2.035737e+02
   9.743983e+01  -1.468274e+02
   1.377730e+02  -2.010970e+01
   5.990504e+01   4.436968e+01
  -3.122613e+01  -2.252639e+00
  -3.444430e+01  -8.933325e+01
   7.624950e+01  -1.140177e+02
   1.975717e+02  -2.475453e+01
   1.863307e+02   1.269661e+02
   1.559034e+01   2.147717e+02
  -1.641943e+02   1.545602e+02
  -1.888334e+02  -1.978616e+00
  -5.651555e+01  -1.132183e+02
   7.153846e+01  -1.036917e+02
   8.216942e+01  -2.360443e+01
   1.389526e+01   2.781319e+01
  -2.600087e+01   1.739858e+01
   9.124315e+00  -9.038577e+00
   7.058362e+01   8.084127e+00
   8.612120e+01   8.269306e+01
   9.577933e+00   1.574220e+02
  -1.314190e+02   1.454352e+02
  -2.324497e+02   1.436160e+01
  -1.909300e+02  -1.577460e+02
  -3.052591e+01  -2.348909e+02
   1.128472e+02  -1.606599e+02
   1.335736e+02  -2.171513e+01
   6.799000e+01   5.504336e+01
   2.710918e+01   3.402594e+01
   5.135124e+01  -1.185526e+01
   7.772599e+01  -4.191758e+00
   4.150597e+01   5.083527e+01
  -4.196328e+01   8.736258e+01
  -1.028135e+02   5.335000e+01
  -8.594290e+01  -3.666431e+01
   1.460323e+01  -1.097229e+02
   1.422405e+02  -8.330897e+01
   1.931900e+02   5.469375e+01
   9.090948e+01   2.016643e+02
  -1.147655e+02   2.223196e+02
  -2.658931e+02   8.634668e+01
  -2.483174e+02  -9.159951e+01
  -9.933782e+01  -1.776567e+02
   4.295523e+01  -1.435553e+02
   9.547445e+01  -7.733482e+01
   7.864580e+01  -6.323029e+01
   6.886090e+01  -8.568270e+01
   9.021644e+01  -6.859297e+01
   1.235833e+02   2.499185e+01
   1.107109e+02   1.525504e+02
   2.288883e+01   2.222607e+02
  -1.022536e+02   1.644357e+02
  -1.731734e+02   1.254629e+01
  -1.300155e+02  -1.239303e+02
  -1.327638e+01  -1.553910e+02
   7.189585e+01  -8.612198e+01
   6.115680e+01   4.465287e+00
   3.543303e+00   4.432287e+01
  -1.404798e+01   3.451339e+01
   3.138061e+01   1.864770e+01
   7.467602e+01   2.323996e+01
   4.211433e+01   3.839875e+01
  -6.279568e+01   3.599520e+01
  -1.564114e+02  -5.176156e-01
  -1.416904e+02  -5.328902e+01
  -1.221999e+01  -9.064696e+01
   1.216517e+02  -7.258377e+01
   1.444850e+02  -9.471876e+00
   4.532127e+01   4.404174e+01
  -6.106688e+01   3.554678e+01
  -7.479569e+01  -2.207080e+01
  -5.261918e+00  -6.805491e+01
   5.658117e+01  -5.414962e+01
   6.234320e+01   4.545629e+00
   4.242632e+01   5.053419e+01
   4.058296e+01   4.155918e+01
   5.949713e+01   4.890765e+00
   6.319185e+01   2.402862e-01
   3.285175e+01   6.445914e+01
  -3.416931e+01   1.414843e+02
  -1.165379e+02   1.369844e+02
  -1.626441e+02   3.033320e+01
  -1.185795e+02  -9.380702e+01
  -3.873008e+00  -1.242232e+02
   8.637985e+01  -5.820467e+01
   5.666389e+01   1.755654e+01
  -5.916422e+01   1.848912e+01
  -1.347264e+02  -4.921269e+01
  -7.119521e+01  -1.087828e+02
   8.411305e+01  -1.055344e+02
   1.902209e+02  -4.322888e+01
   1.577639e+02   3.967663e+01
   3.240939e+01   8.592741e+01
  -6.282047e+01   6.722511e+01
  -4.910306e+01   6.762403e+00
   3.795951e+01  -2.560014e+01
   8.696648e+01   2.310487e+01
   2.904149e+01   1.138202e+02
  -9.017418e+01   1.455349e+02
  -1.616257e+02   5.474834e+01
  -1.189626e+02  -9.986850e+01
  -5.684655e+00  -1.881432e+02
   8.249138e+01  -1.350550e+02
   9.977349e+01   9.426063e+00
   5.623419e+01   1.153243e+02
  -4.582744e+00   1.016142e+02
  -4.559229e+01   1.667008e+01
  -4.821266e+01  -3.276318e+01
  -2.254939e+01  -9.052342e+00
  -4.506428e+00   2.034440e+01
  -2.312655e+01  -1.399102e+01
  -5.345677e+01  -8.842989e+01
  -3.593346e+01  -1.078607e+02
   4.894490e+01  -4.350510e+01
   1.327587e+02   4.236270e+01
   1.208056e+02   7.591069e+01
   1.482171e+01   4.964422e+01
  -8.548147e+01   1.868939e+01
  -8.587000e+01   4.170398e+00
  -1.083509e+01  -7.314413e+00
   3.712813e+01  -2.041719e+01
   1.436822e+01  -1.884626e+01
  -1.857623e+01  -1.315663e-01
   7.064438e+00   8.572999e+00
   7.291212e+01   6.517446e+00
   8.705596e+01   2.575113e+01
   6.376954e+00   7.765698e+01
  -1.166171e+02   1.085150e+02
  -1.798792e+02   5.412003e+01
  -1.349953e+02  -6.488164e+01
  -2.406561e+01  -1.551949e+02
   7.809655e+01  -1.451937e+02
   1.107108e+02  -5.587059e+01
   7.652117e+01   2.238194e+01
   2.392144e+01   3.519788e+01
  -1.907641e+00   8.801244e+00
   1.104124e+01   5.048582e+00
   2.995394e+01   4.596430e+01
   1.873593e+01   8.807216e+01
  -2.961057e+01   6.811195e+01
  -7.744858e+01  -2.107224e+01
  -7.176676e+01  -1.060516e+02
  -1.741269e+00  -1.080358e+02
   7.974653e+01  -2.038955e+01
   9.909175e+01   7.491611e+01
   3.034276e+01   1.015292e+02
  -6.480455e+01   5.413794e+01
  -9.598003e+01  -1.262802e+01
  -3.903608e+01  -5.076089e+01
   3.078766e+01  -5.075214e+01
   3.086823e+01  -2.764120e+01
  -3.174204e+01  -2.641514e-01
  -6.525394e+01   5.333096e+00
  -1.493929e+01  -2.364208e+01
   7.583510e+01  -6.292915e+01
   1.130100e+02  -5.575652e+01
   6.480331e+01   1.200561e+01
  -1.571819e+01   8.070988e+01
  -5.357463e+01   7.686334e+01
  -3.726329e+01   6.151040e+00
   7.274410e-01  -5.472020e+01
   2.633452e+01  -4.064806e+01
   3.384003e+01   1.827358e+01
   2.322087e+01   5.325216e+01
  -3.475829e+00   3.157404e+01
  -3.232300e+01  -9.083879e+00
  -3.930957e+01  -2.189860e+01
  -2.040169e+01  -2.015168e+00
   2.005384e+00   1.431545e+01
   8.718247e+00  -2.277972e-01
   7.748132e+00  -3.344478e+01
   1.550225e+01  -4.239077e+01
   2.876060e+01  -7.643719e+00
   2.766873e+01   4.200448e+01
  -1.935218e+00   5.785074e+01
  -4.232114e+01   1.909222e+01
  -5.469541e+01  -3.746847e+01
  -1.392685e+01  -6.034414e+01
   5.330589e+01  -3.288717e+01
   8.520486e+01   1.487305e+01
   4.670359e+01   4.273395e+01
  -2.791802e+01   3.972472e+01
  -6.200994e+01   2.246002e+01
  -2.403749e+01   6.080559e+00
   3.262058e+01   3.060013e+00
   3.351035e+01   1.428916e+01
  -2.949645e+01   2.730753e+01
  -8.580283e+01   1.577048e+01
