
 $NMID
 id='ANONYMOUS ', fmtdat='(2E16.6)'
 volume=1.0
 tramp=1.0
 $END
  -4.286071e+03   3.021260e+02
  -2.809964e+03  -2.511724e+03
   5.696034e+02  -2.986925e+03
   2.266863e+03  -1.122149e+03
   1.158853e+03   7.243676e+02
  -6.293096e+02   7.898988e+02
  -1.020354e+03  -3.390621e+02
  -1.220492e+02  -1.121510e+03
   8.146987e+02  -8.964792e+02
   9.952421e+02   3.579472e+01
   5.234013e+02   9.127746e+02
  -2.013874e+02   9.562630e+02
  -6.699814e+02   1.814331e+02
  -4.560965e+02  -7.040983e+02
   2.293357e+02  -7.950126e+02
   6.465139e+02  -7.296888e+00
   3.299607e+02   6.996207e+02
  -3.261867e+02   6.963971e+02
  -6.365255e+02   1.318078e+02
  -4.398353e+02  -3.748221e+02
  -3.442191e+01  -4.685047e+02
   2.525438e+02  -2.933166e+02
   2.376408e+02  -3.395353e+01
  -8.683942e+01   8.100758e+01
  -3.922339e+02  -7.327269e+01
  -2.342268e+02  -3.885112e+02
   3.995915e+02  -4.197569e+02
   8.396412e+02   7.736909e+00
   4.930199e+02   5.095481e+02
  -3.215964e+02   5.216193e+02
  -7.342202e+02   3.377330e+01
  -3.944668e+02  -4.558005e+02
   2.349226e+02  -5.359843e+02
   5.606344e+02  -2.486182e+02
   4.552400e+02   2.103148e+02
   1.137908e+02   4.962511e+02
  -1.902541e+02   3.328342e+02
  -2.174457e+02  -1.921088e+02
   1.331658e+02  -4.791497e+02
   4.556988e+02  -4.456936e+01
   3.235057e+02   6.590815e+02
  -2.685441e+02   7.524305e+02
  -6.328866e+02   7.080115e+01
  -3.257632e+02  -5.408530e+02
   2.630369e+02  -3.741906e+02
   4.266625e+02   2.859426e+02
  -2.778830e+01   5.624503e+02
  -5.506541e+02   1.811311e+02
  -6.233273e+02  -3.851423e+02
  -1.934888e+02  -5.962248e+02
   3.724279e+02  -3.810109e+02
   6.465306e+02   4.445549e+01
   4.129199e+02   3.797044e+02
  -1.261069e+02   3.960308e+02
  -4.592094e+02   9.035873e+01
  -2.775399e+02  -2.025286e+02
   1.122963e+02  -1.454768e+02
   1.808378e+02   1.391386e+02
  -1.400555e+02   2.137618e+02
  -3.690878e+02  -4.275015e+01
  -1.695561e+02  -3.040653e+02
   2.073978e+02  -2.850222e+02
   3.522729e+02  -6.254763e+01
   1.875194e+02   1.095042e+02
  -4.568156e+01   2.295100e+02
  -2.232542e+02   3.063607e+02
  -3.156410e+02   2.138163e+02
  -2.863793e+02  -1.174739e+02
  -1.045465e+02  -4.280981e+02
   9.417889e+01  -3.966270e+02
   1.369140e+02  -1.272700e+02
   4.728681e+01   2.105656e+01
   3.760318e+01  -6.641110e+01
   1.689445e+02  -1.279925e+02
   2.702029e+02   3.217188e+01
   1.777508e+02   2.533562e+02
  -4.530816e+01   2.615041e+02
  -2.221930e+02   3.107828e+01
  -2.097664e+02  -2.236126e+02
  -8.314025e+00  -2.920417e+02
   2.592088e+02  -1.309089e+02
   3.686132e+02   1.493976e+02
   2.043810e+02   3.500755e+02
  -9.288092e+01   3.235661e+02
  -2.373353e+02   1.366049e+02
  -1.642472e+02   2.225192e+00
  -9.502424e+01   2.318408e+01
  -2.173394e+02   6.789443e+01
  -3.948234e+02  -3.615147e+01
  -3.429202e+02  -2.648538e+02
  -1.401490e+01  -4.418990e+02
   3.402488e+02  -4.255070e+02
   4.770784e+02  -2.183308e+02
   3.422378e+02   7.548762e+01
   7.599853e+01   2.916616e+02
  -1.161202e+02   2.651859e+02
  -8.959691e+01   4.005024e+01
   9.407367e+01  -1.171789e+02
   1.990484e+02  -1.184483e+01
   7.186254e+01   1.911623e+02
  -1.464874e+02   1.924773e+02
  -1.903655e+02  -4.163515e+01
  -3.587905e+00  -1.983313e+02
   1.922091e+02  -5.026875e+01
   1.753985e+02   2.419053e+02
  -2.361465e+01   3.525774e+02
  -2.315638e+02   1.995402e+02
  -3.277504e+02  -6.097777e+01
  -2.763118e+02  -2.368913e+02
  -9.621430e+01  -2.581189e+02
   1.087972e+02  -1.607482e+02
   1.753718e+02  -2.585441e+01
   5.991614e+01   3.056542e+01
  -7.105173e+01  -3.485574e+01
  -3.859525e+01  -1.211142e+02
   1.143737e+02  -1.071583e+02
   1.794826e+02   1.025875e+00
   6.770954e+01   6.845886e+01
  -7.235371e+01   2.180939e+01
  -5.457370e+01  -6.616548e+01
   1.193494e+02  -8.467155e+01
   2.762661e+02  -5.818345e+00
   2.624121e+02   1.277980e+02
   7.179174e+01   2.490302e+02
  -1.683226e+02   2.699247e+02
  -2.801017e+02   1.443524e+02
  -1.809645e+02  -4.248907e+01
   1.023087e+01  -1.164421e+02
   9.004407e+01  -2.088607e+01
  -2.198394e+01   1.002798e+02
  -1.889536e+02   6.925327e+01
  -2.185198e+02  -9.167435e+01
  -8.099690e+01  -2.071817e+02
   8.714992e+01  -1.658511e+02
   1.453632e+02  -3.789719e+01
   7.641116e+01   3.806145e+01
  -2.054652e+01   5.869793e+00
  -3.575539e+01  -7.605782e+01
   6.531004e+01  -1.094121e+02
   1.913797e+02  -3.539214e+01
   1.931749e+02   1.138917e+02
   3.193966e+01   2.165067e+02
  -1.571502e+02   1.724188e+02
  -1.971265e+02   1.523817e+01
  -7.375546e+01  -1.114223e+02
   6.009193e+01  -1.150086e+02
   8.163453e+01  -3.506158e+01
   1.896738e+01   2.248013e+01
  -1.972331e+01   1.555098e+01
   1.236899e+01  -8.856766e+00
   7.087430e+01   9.896033e+00
   8.548877e+01   8.064304e+01
   1.523832e+01   1.524695e+02
  -1.178669e+02   1.484831e+02
  -2.231672e+02   3.346036e+01
  -2.031710e+02  -1.365761e+02
  -5.399368e+01  -2.316100e+02
   1.006176e+02  -1.759190e+02
   1.369643e+02  -3.398107e+01
   7.538697e+01   5.229471e+01
   3.145475e+01   3.683290e+01
   5.176622e+01  -1.080298e+01
   7.707286e+01  -4.975210e+00
   3.929973e+01   4.863054e+01
  -4.191706e+01   8.242430e+01
  -9.668238e+01   4.962299e+01
  -7.923570e+01  -3.424885e+01
   1.503479e+01  -1.033903e+02
   1.350349e+02  -8.244342e+01
   1.915966e+02   4.445743e+01
   1.055905e+02   1.918163e+02
  -9.259296e+01   2.276098e+02
  -2.577014e+02   1.076135e+02
  -2.612540e+02  -7.340979e+01
  -1.213784e+02  -1.750501e+02
   3.107083e+01  -1.527935e+02
   9.184496e+01  -8.999255e+01
   8.031453e+01  -7.249417e+01
   6.805423e+01  -9.168182e+01
   9.251893e+01  -7.306971e+01
   1.272595e+02   2.027240e+01
   1.161315e+02   1.470897e+02
   3.118133e+01   2.181307e+02
  -9.202289e+01   1.719939e+02
  -1.713100e+02   2.828407e+01
  -1.385906e+02  -1.131806e+02
  -2.510565e+01  -1.567202e+02
   6.330537e+01  -9.358209e+01
   5.877867e+01  -2.013208e+00
   4.774214e+00   4.044856e+01
  -8.731692e+00   3.035743e+01
   3.798451e+01   1.569851e+01
   7.918896e+01   2.457390e+01
   4.430431e+01   3.934786e+01
  -6.233719e+01   3.652295e+01
  -1.555958e+02   3.776682e+00
  -1.435051e+02  -4.863978e+01
  -1.706592e+01  -8.464192e+01
   1.166269e+02  -7.614410e+01
   1.420292e+02  -1.820785e+01
   4.877434e+01   4.078702e+01
  -5.961581e+01   4.061585e+01
  -7.606257e+01  -1.800136e+01
  -8.776335e+00  -7.164402e+01
   5.641545e+01  -6.116568e+01
   6.377650e+01   2.946987e+00
   4.218609e+01   5.216240e+01
   4.321286e+01   4.083665e+01
   6.106408e+01  -1.420279e+00
   6.561842e+01  -7.041326e-01
   3.522576e+01   7.007210e+01
  -3.002560e+01   1.484117e+02
  -1.115980e+02   1.411814e+02
  -1.621820e+02   3.257451e+01
  -1.240025e+02  -8.943715e+01
  -9.071490e+00  -1.234692e+02
   8.429690e+01  -6.055056e+01
   5.959735e+01   1.322428e+01
  -5.727618e+01   1.734826e+01
  -1.346927e+02  -4.269289e+01
  -7.610506e+01  -1.046172e+02
   7.882238e+01  -1.116485e+02
   1.878061e+02  -5.567225e+01
   1.611527e+02   2.930182e+01
   3.924418e+01   8.438167e+01
  -5.626335e+01   7.139534e+01
  -4.618974e+01   8.743654e+00
   3.820160e+01  -2.738218e+01
   8.941716e+01   2.021104e+01
   3.407855e+01   1.180772e+02
  -8.642963e+01   1.555902e+02
  -1.631766e+02   6.663181e+01
  -1.291696e+02  -9.500188e+01
  -1.615558e+01  -1.936528e+02
   7.844551e+01  -1.438397e+02
   1.021545e+02   3.446052e+00
   6.254145e+01   1.131315e+02
   4.963417e+00   1.037568e+02
  -4.318900e+01   2.053853e+01
  -5.221036e+01  -2.758112e+01
  -2.562039e+01  -5.944375e+00
  -2.448352e+00   2.132267e+01
  -1.820315e+01  -1.442642e+01
  -5.582845e+01  -8.588745e+01
  -4.492008e+01  -1.049196e+02
   4.449918e+01  -4.519461e+01
   1.369239e+02   3.421599e+01
   1.303675e+02   6.718941e+01
   1.928158e+01   5.102049e+01
  -8.625997e+01   2.674059e+01
  -8.721681e+01   1.106093e+01
  -1.082248e+01  -9.808192e+00
   3.705044e+01  -2.471085e+01
   1.290609e+01  -1.708198e+01
  -2.156897e+01   2.901428e+00
   6.656184e+00   6.234246e+00
   7.537971e+01  -5.480561e-01
   9.152037e+01   2.247270e+01
   9.514447e+00   8.286406e+01
  -1.152083e+02   1.159756e+02
  -1.821679e+02   5.928268e+01
  -1.419209e+02  -6.582901e+01
  -2.954872e+01  -1.578491e+02
   7.376527e+01  -1.484942e+02
   1.120229e+02  -5.969257e+01
   8.164755e+01   1.932396e+01
   2.617862e+01   3.559512e+01
  -4.088844e+00   1.009959e+01
   9.259666e+00   3.064789e+00
   3.384045e+01   4.180243e+01
   2.616950e+01   8.773728e+01
  -2.666377e+01   7.186978e+01
  -8.164539e+01  -1.520289e+01
  -8.060685e+01  -1.053092e+02
  -6.478911e+00  -1.122672e+02
   8.340663e+01  -2.567525e+01
   1.056661e+02   7.293209e+01
   3.343294e+01   1.034414e+02
  -6.728264e+01   5.690127e+01
  -9.789456e+01  -1.065329e+01
  -3.723790e+01  -4.978705e+01
   3.363037e+01  -5.013980e+01
   2.971017e+01  -2.554249e+01
  -3.534057e+01   3.187319e+00
  -7.006601e+01   8.216187e+00
  -1.712553e+01  -2.570375e+01
   7.267058e+01  -6.798937e+01
   1.105428e+02  -6.005697e+01
   6.496681e+01   1.218306e+01
  -1.351549e+01   8.255539e+01
  -5.322703e+01   7.696957e+01
  -3.936292e+01   2.340883e+00
  -2.529694e+00  -5.824665e+01
   2.830884e+01  -4.292455e+01
   3.821657e+01   1.894115e+01
   2.482441e+01   5.402663e+01
  -5.410398e+00   3.194964e+01
  -3.269844e+01  -8.908540e+00
  -3.692353e+01  -2.099075e+01
  -1.919074e+01  -5.519255e-01
  -4.879917e-01   1.357632e+01
   4.847915e+00  -3.207951e+00
   5.687030e+00  -3.820074e+01
   1.681217e+01  -4.528859e+01
   3.326625e+01  -8.569233e+00
   3.251670e+01   4.512168e+01
  -1.932733e-01   6.327354e+01
  -4.522356e+01   2.190704e+01
  -5.931118e+01  -3.918651e+01
  -1.597196e+01  -6.339491e+01
   5.457135e+01  -3.451154e+01
   8.926668e+01   1.423139e+01
   4.930065e+01   4.304789e+01
  -2.945033e+01   4.073657e+01
  -6.476004e+01   2.158934e+01
  -2.377351e+01   3.674306e+00
   3.747354e+01  -2.776813e-01
   3.908305e+01   1.489607e+01
  -2.836276e+01   3.445043e+01
  -9.055849e+01   2.431512e+01
