
 $NMID
 id='ANONYMOUS ', fmtdat='(2E16.6)'
 volume=1.0
 tramp=1.0
 $END
   4.452407e+03   1.228346e+02
   2.450679e+03   2.693948e+03
  -9.126729e+02   2.778805e+03
  -2.177645e+03   7.819724e+02
  -8.936571e+02  -7.639181e+02
   7.550089e+02  -5.824152e+02
   9.127138e+02   4.843836e+02
  -3.153020e+01   1.105772e+03
  -8.858509e+02   7.776556e+02
  -9.620179e+02  -1.417476e+02
  -4.614230e+02  -9.306628e+02
   3.036883e+02  -9.096640e+02
   6.839242e+02  -6.687614e+01
   3.659664e+02   7.866338e+02
  -3.290961e+02   7.730705e+02
  -6.691364e+02  -5.035193e+01
  -2.552822e+02  -7.242184e+02
   3.598667e+02  -6.432484e+02
   5.984357e+02  -6.707039e+01
   3.753299e+02   3.727576e+02
  -3.617146e+00   4.451619e+02
  -2.578621e+02   2.476386e+02
  -2.148303e+02  -1.020681e+01
   1.421212e+02  -9.812619e+01
   4.439428e+02   1.330661e+02
   2.089937e+02   4.758823e+02
  -4.898890e+02   4.397513e+02
  -8.889113e+02  -9.329423e+01
  -4.339226e+02  -5.979870e+02
   4.290141e+02  -5.133953e+02
   7.847518e+02   5.267889e+01
   3.529432e+02   5.231094e+02
  -3.172321e+02   5.378105e+02
  -6.028613e+02   1.941804e+02
  -4.328320e+02  -2.594828e+02
  -5.071805e+01  -5.030488e+02
   2.341941e+02  -2.858354e+02
   1.863339e+02   2.535907e+02
  -1.987975e+02   4.929452e+02
  -4.878753e+02  -3.348627e+01
  -2.428305e+02  -7.278089e+02
   3.589072e+02  -7.284668e+02
   6.392533e+02   9.206682e+00
   2.579544e+02   5.842590e+02
  -3.236188e+02   3.270780e+02
  -4.067778e+02  -3.551398e+02
   8.474529e+01  -5.834256e+02
   5.871254e+02  -1.382347e+02
   6.181563e+02   4.347567e+02
   1.545619e+02   6.167797e+02
  -4.100443e+02   3.559362e+02
  -6.511869e+02  -9.383731e+01
  -3.691713e+02  -4.125592e+02
   1.767828e+02  -3.750353e+02
   4.596531e+02  -4.639487e+01
   2.354895e+02   2.125087e+02
  -1.340766e+02   1.042601e+02
  -1.514272e+02  -1.658039e+02
   1.763134e+02  -1.983686e+02
   3.591450e+02   8.121311e+01
   1.410320e+02   3.165064e+02
  -2.072246e+02   2.633645e+02
  -3.416638e+02   7.304953e+01
  -2.045139e+02  -9.164725e+01
   1.844358e+01  -2.352315e+02
   2.250563e+02  -3.393740e+02
   3.563495e+02  -2.226155e+02
   3.023422e+02   1.516762e+02
   7.328369e+01   4.576535e+02
  -1.346330e+02   3.878917e+02
  -1.305247e+02   9.855435e+01
  -1.923737e+01  -2.613907e+01
  -3.776008e+01   8.942400e+01
  -2.009135e+02   1.395981e+02
  -2.871094e+02  -4.953769e+01
  -1.623064e+02  -2.792223e+02
   7.884925e+01  -2.664158e+02
   2.416348e+02  -1.071377e+01
   2.096244e+02   2.551735e+02
  -1.214457e+01   3.120659e+02
  -2.824771e+02   1.247397e+02
  -3.781740e+02  -1.742435e+02
  -1.871875e+02  -3.630254e+02
   1.108267e+02  -3.133316e+02
   2.353004e+02  -1.191626e+02
   1.505519e+02  -3.045594e-01
   8.780294e+01  -3.618440e+01
   2.248042e+02  -7.373925e+01
   4.047655e+02   5.143647e+01
   3.440396e+02   2.832657e+02
   5.943424e+00   4.581936e+02
  -3.591700e+02   4.301278e+02
  -4.996114e+02   2.101561e+02
  -3.501018e+02  -1.007888e+02
  -5.738819e+01  -3.081106e+02
   1.422587e+02  -2.578738e+02
   8.967028e+01  -2.072742e+01
  -1.165693e+02   1.166823e+02
  -2.090891e+02  -1.250786e+01
  -5.345448e+01  -2.104581e+02
   1.709804e+02  -1.846088e+02
   1.912140e+02   6.448631e+01
  -2.072956e+01   2.033725e+02
  -2.060672e+02   3.462873e+01
  -1.677649e+02  -2.536017e+02
   3.576436e+01  -3.558165e+02
   2.357040e+02  -1.966125e+02
   3.314591e+02   6.207286e+01
   2.817721e+02   2.408875e+02
   9.584104e+01   2.697318e+02
  -1.188555e+02   1.641856e+02
  -1.819140e+02   1.946181e+01
  -5.737780e+01  -3.650616e+01
   7.713205e+01   3.951142e+01
   3.297815e+01   1.296127e+02
  -1.285476e+02   1.039996e+02
  -1.834529e+02  -1.298755e+01
  -5.832580e+01  -7.720291e+01
   8.501173e+01  -1.835810e+01
   5.857887e+01   7.459234e+01
  -1.245297e+02   9.104690e+01
  -2.881002e+02   2.683841e+00
  -2.706756e+02  -1.417248e+02
  -6.479770e+01  -2.642774e+02
   1.900263e+02  -2.713090e+02
   2.930804e+02  -1.283132e+02
   1.766189e+02   5.808847e+01
  -2.557207e+01   1.181387e+02
  -9.652072e+01   8.850882e+00
   3.230144e+01  -1.080086e+02
   2.016561e+02  -6.373658e+01
   2.192453e+02   1.103022e+02
   6.796288e+01   2.203870e+02
  -9.945237e+01   1.647486e+02
  -1.502529e+02   2.596204e+01
  -7.377961e+01  -4.700256e+01
   2.710704e+01  -7.601527e+00
   3.975685e+01   8.358101e+01
  -6.918738e+01   1.175955e+02
  -1.988373e+02   3.395832e+01
  -1.969446e+02  -1.233314e+02
  -2.459806e+01  -2.241310e+02
   1.669581e+02  -1.691386e+02
   2.002907e+02  -4.349222e+00
   6.629509e+01   1.195349e+02
  -7.138097e+01   1.131386e+02
  -8.690269e+01   2.782739e+01
  -1.796617e+01  -2.900216e+01
   2.573334e+01  -1.844116e+01
  -6.953518e+00   9.809668e+00
  -7.176890e+01  -4.752532e+00
  -9.199871e+01  -7.972353e+01
  -1.976614e+01  -1.574908e+02
   1.231492e+02  -1.536559e+02
   2.340293e+02  -2.772270e+01
   2.035650e+02   1.482335e+02
   4.322074e+01   2.381405e+02
  -1.111117e+02   1.717945e+02
  -1.388743e+02   2.664634e+01
  -7.038115e+01  -5.500947e+01
  -2.850678e+01  -3.503654e+01
  -5.350969e+01   1.368873e+01
  -7.844421e+01   6.737820e+00
  -4.031140e+01  -4.994943e+01
   4.118375e+01  -8.668391e+01
   9.953305e+01  -5.517363e+01
   8.332530e+01   3.380046e+01
  -1.220343e+01   1.092001e+02
  -1.403333e+02   8.854973e+01
  -2.003733e+02  -4.652597e+01
  -1.053234e+02  -2.037249e+02
   1.060612e+02  -2.362200e+02
   2.723721e+02  -1.035218e+02
   2.638675e+02   8.568717e+01
   1.111898e+02   1.816820e+02
  -4.151378e+01   1.517945e+02
  -9.620623e+01   8.551875e+01
  -7.944609e+01   6.845978e+01
  -6.554492e+01   8.853047e+01
  -9.148379e+01   7.347152e+01
  -1.294716e+02  -2.126079e+01
  -1.207245e+02  -1.528983e+02
  -3.127364e+01  -2.266154e+02
   1.010266e+02  -1.734345e+02
   1.811334e+02  -2.062302e+01
   1.413914e+02   1.242592e+02
   2.015569e+01   1.638636e+02
  -6.926686e+01   9.436368e+01
  -6.437298e+01   7.735044e-01
  -7.874684e+00  -4.430872e+01
   9.702203e+00  -3.587986e+01
  -3.517410e+01  -1.976940e+01
  -7.762155e+01  -2.411819e+01
  -4.430635e+01  -3.847434e+01
   6.272501e+01  -3.827706e+01
   1.561559e+02  -6.132247e+00
   1.457232e+02   4.952149e+01
   1.798335e+01   9.232158e+01
  -1.203578e+02   7.852369e+01
  -1.475456e+02   1.487680e+01
  -5.024216e+01  -4.224857e+01
   5.953520e+01  -3.903964e+01
   7.614286e+01   1.855450e+01
   8.366791e+00   6.898502e+01
  -5.529727e+01   5.752411e+01
  -6.287027e+01  -1.488718e+00
  -4.403151e+01  -4.908212e+01
  -4.416912e+01  -4.241364e+01
  -6.214987e+01  -3.952070e+00
  -6.456138e+01  -9.479360e-01
  -3.429251e+01  -6.656426e+01
   3.178971e+01  -1.442813e+02
   1.119387e+02  -1.430176e+02
   1.607230e+02  -3.511077e+01
   1.239153e+02   9.045893e+01
   9.422298e+00   1.283898e+02
  -8.631560e+01   6.189178e+01
  -6.122583e+01  -1.630083e+01
   5.795584e+01  -2.163057e+01
   1.380791e+02   4.512723e+01
   7.770927e+01   1.091617e+02
  -7.900353e+01   1.140498e+02
  -1.925160e+02   5.223548e+01
  -1.633192e+02  -3.427389e+01
  -3.814500e+01  -8.810680e+01
   6.108301e+01  -7.238155e+01
   5.041314e+01  -9.041718e+00
  -3.841990e+01   2.671523e+01
  -9.106579e+01  -2.230202e+01
  -3.278983e+01  -1.198998e+02
   9.360518e+01  -1.562769e+02
   1.690812e+02  -6.143364e+01
   1.265213e+02   1.029790e+02
   1.023012e+01   1.988430e+02
  -8.352967e+01   1.427243e+02
  -1.039733e+02  -7.485146e+00
  -6.136850e+01  -1.179023e+02
  -1.367605e-01  -1.083633e+02
   4.597060e+01  -2.112418e+01
   5.335793e+01   3.196320e+01
   2.530174e+01   1.075868e+01
   2.232300e+00  -2.195644e+01
   1.899230e+01   1.125123e+01
   5.724588e+01   8.723452e+01
   4.193341e+01   1.121474e+02
  -4.799793e+01   4.734125e+01
  -1.385252e+02  -4.005134e+01
  -1.299466e+02  -7.237517e+01
  -1.547677e+01  -5.069693e+01
   9.017376e+01  -2.199301e+01
   9.056191e+01  -6.943273e+00
   1.121912e+01   7.100954e+00
  -4.026677e+01   2.280858e+01
  -1.512388e+01   1.959176e+01
   2.101447e+01   3.587821e-01
  -6.126797e+00  -9.406180e+00
  -7.440206e+01  -5.432094e+00
  -9.210658e+01  -2.459739e+01
  -8.007961e+00  -8.005624e+01
   1.205774e+02  -1.137576e+02
   1.862742e+02  -5.825385e+01
   1.381949e+02   6.652160e+01
   2.399515e+01   1.606602e+02
  -7.676230e+01   1.495061e+02
  -1.104473e+02   5.829297e+01
  -7.968680e+01  -2.146709e+01
  -2.638227e+01  -3.532597e+01
   1.237080e+00  -7.649676e+00
  -1.042197e+01  -3.190790e+00
  -3.323540e+01  -4.516282e+01
  -2.341232e+01  -9.068704e+01
   2.815569e+01  -7.182077e+01
   8.108981e+01   1.867529e+01
   7.703298e+01   1.075506e+02
   4.287067e+00   1.109421e+02
  -8.249920e+01   2.256614e+01
  -1.030827e+02  -7.670754e+01
  -3.156434e+01  -1.038292e+02
   6.584011e+01  -5.503414e+01
   9.757130e+01   1.138693e+01
   3.984844e+01   4.879143e+01
  -3.091943e+01   5.063952e+01
  -3.128807e+01   2.859362e+01
   3.440497e+01   4.049698e-01
   7.008899e+01  -4.782027e+00
   1.659467e+01   2.543320e+01
  -7.713921e+01   6.754613e+01
  -1.160266e+02   6.084800e+01
  -6.462832e+01  -1.234160e+01
   1.442117e+01  -8.337705e+01
   5.244637e+01  -7.763658e+01
   3.664501e+01  -4.266779e+00
   5.116670e-03   5.566391e+01
  -2.642830e+01   4.138521e+01
  -3.627252e+01  -2.046112e+01
  -2.551877e+01  -5.520258e+01
   3.960687e+00  -3.128519e+01
   3.348624e+01   1.055370e+01
   3.976474e+01   2.144475e+01
   2.029012e+01   9.106593e-01
  -2.317925e+00  -1.383508e+01
  -8.077272e+00   3.634938e+00
  -7.278445e+00   3.472805e+01
  -1.536973e+01   4.186729e+01
  -3.076765e+01   6.164621e+00
  -2.957690e+01  -4.457743e+01
   2.028302e+00  -5.911410e+01
   4.442445e+01  -1.982177e+01
   5.657424e+01   3.858529e+01
   1.437135e+01   6.296044e+01
  -5.536593e+01   3.447515e+01
  -9.006831e+01  -1.503778e+01
  -4.869764e+01  -4.624753e+01
   2.935419e+01  -4.206653e+01
   6.496215e+01  -2.113151e+01
   2.376145e+01  -3.967248e+00
  -3.639251e+01  -1.907079e+00
  -3.657985e+01  -1.701073e+01
   3.150346e+01  -3.199754e+01
   9.094351e+01  -1.838282e+01
