
 $NMID
 id='ANONYMOUS ', fmtdat='(2E16.6)'
 volume=1.0
 tramp=1.0
 $END
   3.525080e+03  -7.945519e+01
   2.434383e+03   1.877114e+03
  -4.967612e+00   2.383695e+03
  -1.561031e+03   1.352032e+03
  -1.139519e+03  -9.926527e+00
   8.081192e+01  -4.596014e+02
   5.583774e+02   8.180527e+01
   1.207146e+02   6.945176e+02
  -5.314145e+02   6.946862e+02
  -7.375725e+02   8.982562e+01
  -4.633872e+02  -6.205519e+02
   1.330330e+01  -7.361464e+02
   3.738163e+02  -2.242308e+02
   3.235625e+02   4.605417e+02
  -1.173368e+02   6.050674e+02
  -4.434859e+02   6.160113e+01
  -3.186391e+02  -5.274261e+02
   1.627793e+02  -6.434346e+02
   5.102086e+02  -2.534560e+02
   4.599063e+02   2.149369e+02
   1.223510e+02   3.849929e+02
  -1.368092e+02   2.777752e+02
  -1.099694e+02   1.055696e+02
   1.282917e+02   7.684813e+01
   2.612574e+02   2.083074e+02
   3.685684e+01   3.213585e+02
  -4.237322e+02   2.032436e+02
  -6.278638e+02  -1.182290e+02
  -2.949643e+02  -3.593658e+02
   2.807830e+02  -2.738813e+02
   5.239004e+02   5.401359e+01
   2.407601e+02   3.454515e+02
  -2.278158e+02   3.790682e+02
  -4.476728e+02   1.673296e+02
  -3.451730e+02  -1.537693e+02
  -1.107905e+02  -3.501955e+02
   4.645242e+01  -2.337676e+02
   3.644725e+01   8.654600e+01
  -1.435284e+02   2.216746e+02
  -2.269058e+02  -7.088972e+01
  -9.426073e+01  -4.852331e+02
   2.109383e+02  -4.915853e+02
   3.773665e+02  -3.874123e+01
   1.916297e+02   3.370159e+02
  -1.431958e+02   1.948062e+02
  -2.237199e+02  -2.482438e+02
   7.790648e+01  -4.042927e+02
   4.483153e+02  -8.639631e+01
   5.042136e+02   3.559269e+02
   1.634397e+02   5.011472e+02
  -3.006971e+02   2.894406e+02
  -5.299216e+02  -4.605111e+01
  -3.610013e+02  -2.657455e+02
   4.902548e+01  -2.696978e+02
   3.179230e+02  -9.929078e+01
   2.379745e+02   6.053190e+01
  -8.862138e+00   6.268703e+01
  -8.480729e+01  -5.860794e+01
   9.365902e+01  -1.007459e+02
   2.564500e+02   3.054243e+01
   1.424215e+02   2.154668e+02
  -1.605098e+02   2.627151e+02
  -3.446036e+02   1.133566e+02
  -2.374714e+02  -1.082433e+02
   4.262539e+01  -2.963969e+02
   2.795560e+02  -3.316861e+02
   3.408742e+02  -1.579210e+02
   2.327541e+02   1.447791e+02
   6.301969e+01   3.578841e+02
  -3.764286e+01   3.376934e+02
  -5.162959e+01   1.712153e+02
  -4.948009e+01   7.797894e+01
  -1.211592e+02   9.142308e+01
  -2.231337e+02   5.952235e+01
  -2.361778e+02  -9.995085e+01
  -1.027337e+02  -2.512127e+02
   8.339697e+01  -2.013546e+02
   1.898553e+02   2.609535e+01
   1.427301e+02   2.335580e+02
  -3.652556e+01   2.488015e+02
  -2.397326e+02   7.301347e+01
  -3.063560e+02  -1.614208e+02
  -1.746749e+02  -2.987360e+02
   5.371423e+01  -2.743337e+02
   1.801540e+02  -1.549595e+02
   1.586440e+02  -6.430445e+01
   1.432289e+02  -5.079215e+01
   2.554884e+02  -3.475720e+01
   3.845441e+02   8.750080e+01
   3.095110e+02   2.816967e+02
  -2.202204e+01   4.226968e+02
  -3.619334e+02   3.866616e+02
  -4.661175e+02   1.733355e+02
  -2.873932e+02  -9.196713e+01
  -3.046701e+01  -2.463090e+02
   9.059792e+01  -2.032134e+02
   2.616411e+01  -4.413369e+01
  -1.042756e+02   5.010853e+01
  -1.355793e+02  -2.063483e+01
  -2.461982e+01  -1.448801e+02
   1.159428e+02  -1.274251e+02
   1.243147e+02   4.069020e+01
  -1.400105e+01   1.403150e+02
  -1.568594e+02   1.355377e+01
  -1.490616e+02  -2.279010e+02
   2.183715e+01  -3.335372e+02
   2.341537e+02  -1.969678e+02
   3.384749e+02   6.811222e+01
   2.593554e+02   2.547118e+02
   5.349992e+01   2.586735e+02
  -1.220224e+02   1.317560e+02
  -1.480409e+02   9.852183e+00
  -3.755133e+01  -1.405348e+01
   5.160447e+01   5.425397e+01
   4.545642e+00   1.082189e+02
  -1.153162e+02   7.077774e+01
  -1.477139e+02  -1.654328e+01
  -3.828982e+01  -5.042068e+01
   7.442025e+01   9.114839e+00
   3.596430e+01   8.375586e+01
  -1.431642e+02   7.981539e+01
  -2.897473e+02  -2.246147e+01
  -2.461571e+02  -1.616980e+02
  -2.803498e+01  -2.527285e+02
   1.966273e+02  -2.307131e+02
   2.620341e+02  -1.035278e+02
   1.440080e+02   4.265697e+01
  -2.056231e+01   8.302501e+01
  -6.452414e+01   2.220645e+00
   4.530653e+01  -7.690103e+01
   1.779657e+02  -3.465941e+01
   1.836812e+02   1.003960e+02
   5.544524e+01   1.860984e+02
  -8.682562e+01   1.365188e+02
  -1.236942e+02   1.974214e+01
  -4.998767e+01  -3.280811e+01
   3.333962e+01   1.852086e+01
   2.110705e+01   1.008670e+02
  -9.362854e+01   1.085291e+02
  -2.004194e+02   1.038785e+01
  -1.751358e+02  -1.328561e+02
  -1.115571e+01  -2.054533e+02
   1.547602e+02  -1.499956e+02
   1.774206e+02  -1.124893e+01
   6.161765e+01   9.590906e+01
  -5.690253e+01   9.651361e+01
  -6.957401e+01   2.774601e+01
  -4.038510e+00  -1.997857e+01
   3.268354e+01  -5.130040e+00
  -1.291352e+01   2.520493e+01
  -8.928012e+01  -2.782784e+00
  -9.952514e+01  -9.417911e+01
  -6.690476e+00  -1.700734e+02
   1.394396e+02  -1.460474e+02
   2.302398e+02  -9.338497e+00
   1.864853e+02   1.529096e+02
   3.805364e+01   2.241600e+02
  -9.937172e+01   1.598778e+02
  -1.285143e+02   3.082811e+01
  -7.405708e+01  -4.544420e+01
  -3.321225e+01  -3.148687e+01
  -5.379814e+01   1.265707e+01
  -8.334842e+01   5.424504e+00
  -4.947169e+01  -5.700791e+01
   4.441865e+01  -9.992259e+01
   1.188536e+02  -5.899244e+01
   9.695235e+01   4.689326e+01
  -2.282953e+01   1.231702e+02
  -1.583380e+02   8.086024e+01
  -1.951918e+02  -6.745079e+01
  -7.909851e+01  -2.057184e+02
   1.222728e+02  -2.118051e+02
   2.599243e+02  -7.790719e+01
   2.391854e+02   8.811995e+01
   9.816101e+01   1.640864e+02
  -3.749875e+01   1.337186e+02
  -8.675595e+01   7.872677e+01
  -6.996752e+01   7.138864e+01
  -6.257450e+01   9.415944e+01
  -9.248784e+01   7.648763e+01
  -1.296618e+02  -2.087461e+01
  -1.135592e+02  -1.537658e+02
  -2.154042e+01  -2.211208e+02
   9.861712e+01  -1.604654e+02
   1.640121e+02  -1.084351e+01
   1.223973e+02   1.228692e+02
   9.398382e+00   1.500410e+02
  -6.837612e+01   7.867663e+01
  -5.679029e+01  -1.153208e+01
   5.483016e+00  -4.804651e+01
   2.397869e+01  -3.096261e+01
  -2.874492e+01  -1.012839e+01
  -8.164831e+01  -1.728120e+01
  -4.714614e+01  -3.889188e+01
   7.021938e+01  -3.521321e+01
   1.656918e+02   5.471348e+00
   1.373911e+02   6.313461e+01
  -2.476467e+00   9.120622e+01
  -1.295051e+02   6.749142e+01
  -1.389406e+02   5.192457e+00
  -4.055996e+01  -4.646602e+01
   6.093575e+01  -4.060108e+01
   7.631472e+01   1.896357e+01
   1.650532e+01   7.472640e+01
  -4.791750e+01   6.670278e+01
  -6.694761e+01   1.755066e+00
  -5.322200e+01  -5.173059e+01
  -4.656501e+01  -4.395067e+01
  -5.643551e+01  -9.093360e-01
  -6.530501e+01  -1.306631e+00
  -4.083405e+01  -7.323558e+01
   3.088423e+01  -1.499252e+02
   1.241034e+02  -1.404143e+02
   1.734632e+02  -2.841609e+01
   1.248194e+02   9.421356e+01
   9.766115e-01   1.279609e+02
  -9.088991e+01   6.335785e+01
  -6.175540e+01  -1.255888e+01
   5.596468e+01  -2.093728e+01
   1.316553e+02   3.930957e+01
   6.942239e+01   1.035792e+02
  -8.156990e+01   1.062965e+02
  -1.840345e+02   4.202947e+01
  -1.496645e+02  -4.101847e+01
  -2.774695e+01  -8.198045e+01
   6.075726e+01  -5.896798e+01
   4.388180e+01   9.890942e-01
  -4.092797e+01   2.838456e+01
  -9.030697e+01  -2.050525e+01
  -3.765892e+01  -1.154136e+02
   8.139802e+01  -1.537339e+02
   1.574944e+02  -6.951199e+01
   1.250756e+02   9.185938e+01
   1.456242e+01   1.900378e+02
  -8.174026e+01   1.370603e+02
  -1.001065e+02  -1.346895e+01
  -5.254221e+01  -1.168221e+02
   1.067287e+01  -9.699803e+01
   4.723719e+01  -1.297988e+01
   4.407241e+01   2.943952e+01
   1.749777e+01   5.021060e+00
   5.144971e+00  -1.698401e+01
   2.626024e+01   2.197671e+01
   5.365642e+01   8.969587e+01
   3.185550e+01   1.004919e+02
  -5.023579e+01   3.870400e+01
  -1.327202e+02  -3.764392e+01
  -1.210692e+02  -6.681332e+01
  -1.842401e+01  -5.120728e+01
   8.032502e+01  -2.544960e+01
   8.480450e+01  -5.780184e+00
   1.611603e+01   1.160311e+01
  -3.473609e+01   2.136192e+01
  -1.675278e+01   1.215012e+01
   1.637563e+01  -5.632988e+00
  -4.851817e+00  -5.875787e+00
  -6.797323e+01   1.797385e+00
  -9.054464e+01  -2.169787e+01
  -1.535556e+01  -8.278895e+01
   1.087085e+02  -1.158625e+02
   1.839787e+02  -6.181403e+01
   1.476425e+02   6.251391e+01
   2.974208e+01   1.592481e+02
  -7.899586e+01   1.512884e+02
  -1.155981e+02   6.297976e+01
  -8.091028e+01  -1.902315e+01
  -2.677964e+01  -3.651745e+01
  -1.502728e+00  -1.324175e+01
  -1.178275e+01  -8.205948e+00
  -2.894839e+01  -4.782897e+01
  -1.839466e+01  -8.776591e+01
   2.795482e+01  -7.048861e+01
   7.784408e+01   1.386622e+01
   8.028988e+01   9.969483e+01
   1.322755e+01   1.090688e+02
  -7.506446e+01   3.150053e+01
  -1.042718e+02  -6.453277e+01
  -3.716692e+01  -1.012375e+02
   6.554060e+01  -6.159335e+01
   1.020337e+02   9.499046e+00
   4.250599e+01   5.736883e+01
  -3.562482e+01   6.044353e+01
  -3.926838e+01   2.705826e+01
   2.702270e+01  -7.687235e+00
   6.696310e+01  -7.867864e+00
   1.658586e+01   2.769035e+01
  -7.675946e+01   6.357132e+01
  -1.158223e+02   5.033537e+01
  -6.663111e+01  -1.808992e+01
   1.405203e+01  -8.334844e+01
   5.681453e+01  -7.889726e+01
   4.398406e+01  -8.571736e+00
   7.394978e+00   5.339534e+01
  -2.504391e+01   4.616335e+01
  -3.807584e+01  -1.263393e+01
  -2.628320e+01  -5.216105e+01
   3.285151e+00  -3.654287e+01
   3.294722e+01   6.097722e+00
   3.935818e+01   2.452257e+01
   1.960460e+01   4.954563e+00
  -2.208955e+00  -1.740823e+01
  -4.803064e+00  -5.510517e+00
   3.397088e+00   3.345462e+01
  -5.867975e+00   5.377240e+01
  -3.012634e+01   2.035585e+01
  -3.988577e+01  -3.700218e+01
  -1.165954e+01  -6.136949e+01
   4.003693e+01  -2.621368e+01
   6.151878e+01   3.402689e+01
   1.921440e+01   6.047154e+01
  -5.584021e+01   3.451675e+01
  -9.158070e+01  -1.380977e+01
  -4.837462e+01  -4.307025e+01
   3.021308e+01  -4.339100e+01
   6.545055e+01  -2.453570e+01
   2.723230e+01  -4.733747e+00
  -3.210979e+01   3.921872e+00
  -3.560246e+01  -7.732415e+00
   2.417448e+01  -2.756860e+01
   8.047726e+01  -2.201255e+01
