
 $NMID
 id='ANONYMOUS ', fmtdat='(2E16.6)'
 volume=1.0
 tramp=1.0
 $END
   3.776976e+03   1.202547e+02
   2.153375e+03   2.175226e+03
  -5.200908e+02   2.242732e+03
  -1.569014e+03   9.818159e+02
  -8.174117e+02  -1.795360e+02
   2.903170e+02  -2.420343e+02
   5.238743e+02   3.316429e+02
  -5.871303e+01   7.687618e+02
  -6.533435e+02   6.246433e+02
  -7.682788e+02  -3.756266e+01
  -4.369899e+02  -6.773529e+02
   1.564915e+02  -7.452686e+02
   4.700564e+02  -1.068545e+02
   2.735491e+02   5.976596e+02
  -2.230383e+02   6.410518e+02
  -5.313672e+02   2.820067e+01
  -2.675893e+02  -5.975036e+02
   2.178670e+02  -6.337320e+02
   5.007767e+02  -1.949814e+02
   4.072822e+02   2.488832e+02
   8.053538e+01   4.016759e+02
  -1.824957e+02   2.450500e+02
  -1.414707e+02   2.787714e+01
   1.804784e+02  -4.614885e+00
   3.868831e+02   2.293056e+02
   8.129710e+01   4.500369e+02
  -5.315416e+02   2.892549e+02
  -7.706725e+02  -1.984065e+02
  -2.935411e+02  -5.041469e+02
   4.290976e+02  -3.261497e+02
   6.544048e+02   1.469803e+02
   2.464361e+02   4.631910e+02
  -3.204837e+02   4.366364e+02
  -5.388245e+02   1.519138e+02
  -3.744493e+02  -2.056978e+02
  -5.613322e+01  -3.932343e+02
   1.283402e+02  -2.154594e+02
   3.697622e+01   1.794325e+02
  -2.124103e+02   3.151587e+02
  -3.546489e+02  -1.237286e+02
  -1.001778e+02  -6.385849e+02
   3.347892e+02  -5.765755e+02
   4.719971e+02   3.170588e+01
   1.554822e+02   4.564214e+02
  -2.472267e+02   2.077431e+02
  -2.663986e+02  -3.304275e+02
   1.173474e+02  -4.828610e+02
   5.221643e+02  -8.789069e+01
   5.511891e+02   4.126182e+02
   1.542234e+02   5.571620e+02
  -3.589020e+02   3.055795e+02
  -5.892697e+02  -8.844741e+01
  -3.468434e+02  -3.315461e+02
   1.156370e+02  -2.803083e+02
   3.612142e+02  -4.762717e+01
   2.042999e+02   1.086261e+02
  -6.850488e+01   3.881261e+01
  -8.129968e+01  -1.149286e+02
   1.481118e+02  -1.092936e+02
   2.814523e+02   7.976058e+01
   1.179724e+02   2.441338e+02
  -1.755992e+02   2.376069e+02
  -3.353454e+02   1.155389e+02
  -2.494541e+02  -8.125168e+01
   2.761202e+00  -2.802249e+02
   2.586836e+02  -3.732488e+02
   3.757314e+02  -1.985695e+02
   2.698082e+02   1.670900e+02
   5.560156e+01   4.062497e+02
  -8.696892e+01   3.308562e+02
  -5.171733e+01   1.282647e+02
  -9.188190e+00   6.357051e+01
  -9.614694e+01   1.268011e+02
  -2.481226e+02   9.938445e+01
  -2.722997e+02  -9.730406e+01
  -1.203828e+02  -2.785973e+02
   9.520573e+01  -2.276625e+02
   2.151516e+02   2.151353e+01
   1.674664e+02   2.513192e+02
  -3.620992e+01   2.793925e+02
  -2.695263e+02   8.869654e+01
  -3.472063e+02  -1.789548e+02
  -1.778026e+02  -3.324749e+02
   8.406546e+01  -2.876353e+02
   1.964404e+02  -1.347013e+02
   1.436270e+02  -4.726132e+01
   1.203417e+02  -6.720557e+01
   2.652499e+02  -6.797001e+01
   4.229141e+02   7.349867e+01
   3.373329e+02   2.985374e+02
  -5.536275e+00   4.576475e+02
  -3.738934e+02   4.211742e+02
  -4.948271e+02   1.973629e+02
  -3.200883e+02  -1.021815e+02
  -3.355735e+01  -2.821196e+02
   1.233909e+02  -2.244116e+02
   4.781903e+01  -2.415641e+01
  -1.257081e+02   7.687961e+01
  -1.714812e+02  -3.162456e+01
  -2.065686e+01  -1.770882e+02
   1.499764e+02  -1.347939e+02
   1.445597e+02   6.535839e+01
  -3.553918e+01   1.614146e+02
  -1.872280e+02   1.093415e+01
  -1.599780e+02  -2.472896e+02
   2.239086e+01  -3.500014e+02
   2.371621e+02  -2.112154e+02
   3.506642e+02   5.447138e+01
   2.937862e+02   2.557598e+02
   8.864108e+01   2.849569e+02
  -1.289271e+02   1.600821e+02
  -1.754673e+02   8.685039e+00
  -4.769905e+01  -3.071928e+01
   6.480509e+01   5.340747e+01
   9.900025e+00   1.284266e+02
  -1.350064e+02   8.421514e+01
  -1.687952e+02  -2.665475e+01
  -4.171311e+01  -7.046889e+01
   8.959183e+01  -1.869419e+00
   5.166155e+01   8.905193e+01
  -1.394656e+02   9.656861e+01
  -3.061228e+02  -8.156060e+00
  -2.748778e+02  -1.622199e+02
  -4.549882e+01  -2.729721e+02
   2.096417e+02  -2.560183e+02
   2.883592e+02  -1.064384e+02
   1.534756e+02   5.551565e+01
  -3.344922e+01   9.344014e+01
  -7.997285e+01  -6.024893e+00
   4.837926e+01  -9.640435e+01
   1.974064e+02  -4.438820e+01
   2.039824e+02   1.107366e+02
   6.220720e+01   2.041037e+02
  -9.459680e+01   1.478057e+02
  -1.381912e+02   2.031797e+01
  -5.744723e+01  -4.377429e+01
   3.994425e+01   7.624788e+00
   3.695765e+01   1.019642e+02
  -8.615201e+01   1.241032e+02
  -2.122100e+02   2.528318e+01
  -1.946084e+02  -1.328971e+02
  -1.587596e+01  -2.210034e+02
   1.645858e+02  -1.605263e+02
   1.865785e+02  -6.341993e+00
   5.797120e+01   1.082040e+02
  -6.874159e+01   1.045862e+02
  -8.037324e+01   2.614726e+01
  -1.061013e+01  -2.924936e+01
   3.344216e+01  -1.627760e+01
  -5.295876e+00   1.703576e+01
  -8.027543e+01  -9.057538e-02
  -1.019754e+02  -8.669158e+01
  -1.585959e+01  -1.731694e+02
   1.387921e+02  -1.586954e+02
   2.442495e+02  -1.577021e+01
   2.001522e+02   1.619627e+02
   3.590653e+01   2.393216e+02
  -1.089564e+02   1.660259e+02
  -1.357958e+02   2.846322e+01
  -7.143652e+01  -4.874457e+01
  -3.163997e+01  -3.230138e+01
  -5.397404e+01   1.207950e+01
  -8.429545e+01   6.800721e+00
  -5.270912e+01  -5.240001e+01
   3.824127e+01  -9.924477e+01
   1.142866e+02  -6.762545e+01
   1.022756e+02   3.656718e+01
  -1.282129e+01   1.242135e+02
  -1.555157e+02   9.413145e+01
  -2.089619e+02  -5.750266e+01
  -9.589939e+01  -2.159929e+02
   1.204350e+02  -2.334366e+02
   2.751892e+02  -9.021374e+01
   2.554131e+02   9.242995e+01
   1.045283e+02   1.749628e+02
  -4.003146e+01   1.461993e+02
  -9.303330e+01   8.511591e+01
  -7.642357e+01   7.067988e+01
  -6.223799e+01   9.191406e+01
  -9.159442e+01   7.867021e+01
  -1.332801e+02  -1.873123e+01
  -1.234084e+02  -1.553995e+02
  -3.013963e+01  -2.320888e+02
   1.030303e+02  -1.759749e+02
   1.799675e+02  -1.586512e+01
   1.375848e+02   1.302401e+02
   1.608710e+01   1.655808e+02
  -7.554490e+01   9.073129e+01
  -6.845618e+01  -7.246949e+00
  -5.385799e+00  -5.242112e+01
   1.710854e+01  -4.021290e+01
  -3.041232e+01  -1.843105e+01
  -8.136755e+01  -1.904322e+01
  -4.842568e+01  -4.089908e+01
   7.122716e+01  -4.335358e+01
   1.718155e+02  -3.922394e+00
   1.498899e+02   5.756618e+01
   8.822083e+00   1.005614e+02
  -1.295638e+02   7.903323e+01
  -1.482127e+02   9.352964e+00
  -4.811566e+01  -4.679356e+01
   5.866949e+01  -4.168073e+01
   7.706887e+01   1.832511e+01
   1.506270e+01   6.877281e+01
  -4.935290e+01   6.024648e+01
  -6.793843e+01   1.791018e+00
  -5.517739e+01  -4.950503e+01
  -4.695721e+01  -4.315736e+01
  -5.610708e+01  -5.558027e+00
  -6.523309e+01  -2.205681e+00
  -4.213576e+01  -7.024685e+01
   2.943387e+01  -1.518801e+02
   1.236203e+02  -1.486263e+02
   1.795835e+02  -3.757253e+01
   1.321441e+02   9.442996e+01
   6.783362e+00   1.355924e+02
  -9.118609e+01   6.858835e+01
  -6.213747e+01  -1.260400e+01
   5.953440e+01  -2.170092e+01
   1.389049e+02   4.309047e+01
   7.717982e+01   1.096777e+02
  -8.122627e+01   1.144377e+02
  -1.940555e+02   5.062424e+01
  -1.653131e+02  -3.858528e+01
  -3.570835e+01  -9.000908e+01
   6.594660e+01  -6.749525e+01
   5.334402e+01  -2.529202e+00
  -3.929630e+01   3.024475e+01
  -9.374020e+01  -2.132684e+01
  -3.798713e+01  -1.191204e+02
   8.529090e+01  -1.572771e+02
   1.639150e+02  -6.553468e+01
   1.280132e+02   9.711706e+01
   1.615479e+01   1.965264e+02
  -8.285612e+01   1.448059e+02
  -1.074564e+02  -8.155725e+00
  -6.113778e+01  -1.224246e+02
   8.151493e+00  -1.100783e+02
   5.258806e+01  -2.019460e+01
   5.091324e+01   3.320599e+01
   2.169076e+01   1.074338e+01
   5.759919e+00  -1.954139e+01
   3.027384e+01   1.532873e+01
   6.056727e+01   9.018786e+01
   3.728209e+01   1.129262e+02
  -5.469142e+01   4.957472e+01
  -1.385870e+02  -3.727296e+01
  -1.261382e+02  -7.218547e+01
  -1.862180e+01  -5.329176e+01
   8.339663e+01  -2.424686e+01
   8.938764e+01  -6.984197e+00
   1.652827e+01   8.296661e+00
  -3.726519e+01   2.169786e+01
  -2.062747e+01   1.696331e+01
   1.640183e+01  -1.534455e+00
  -1.723426e+00  -8.158508e+00
  -6.724267e+01  -3.031227e+00
  -9.403673e+01  -2.210351e+01
  -2.041463e+01  -7.923155e+01
   1.109753e+02  -1.181036e+02
   1.878627e+02  -6.644752e+01
   1.499785e+02   6.009806e+01
   3.175439e+01   1.620006e+02
  -7.892121e+01   1.577338e+02
  -1.146375e+02   6.568135e+01
  -8.203795e+01  -1.970075e+01
  -2.897678e+01  -3.797044e+01
  -3.405603e+00  -1.055187e+01
  -1.399313e+01  -5.465559e+00
  -3.217296e+01  -4.757816e+01
  -2.081219e+01  -9.327757e+01
   2.891638e+01  -7.477273e+01
   7.975744e+01   1.481353e+01
   7.995115e+01   1.028126e+02
   1.163901e+01   1.098660e+02
  -7.648915e+01   2.981715e+01
  -1.058497e+02  -6.642775e+01
  -4.031916e+01  -1.024576e+02
   6.231767e+01  -6.318220e+01
   1.022558e+02   6.149380e+00
   4.712719e+01   5.281525e+01
  -3.024260e+01   5.773720e+01
  -3.689691e+01   3.107231e+01
   2.801120e+01  -6.734194e-01
   6.969327e+01  -7.021971e+00
   1.920892e+01   2.642327e+01
  -7.888477e+01   6.625753e+01
  -1.239231e+02   5.880758e+01
  -7.234146e+01  -1.327711e+01
   1.315398e+01  -8.515333e+01
   5.511494e+01  -8.461285e+01
   4.219014e+01  -1.387046e+01
   5.128523e+00   5.305640e+01
  -2.300402e+01   4.761546e+01
  -3.511615e+01  -1.206411e+01
  -2.913041e+01  -5.444654e+01
  -8.521407e-01  -3.748738e+01
   3.291551e+01   6.716691e+00
   4.217610e+01   2.368796e+01
   2.169962e+01   3.076416e+00
  -4.894299e+00  -1.832512e+01
  -8.902580e+00  -4.566875e+00
  -8.360646e-01   3.192096e+01
  -3.705756e+00   4.679689e+01
  -2.525368e+01   1.605425e+01
  -3.607809e+01  -3.687868e+01
  -7.754701e+00  -5.769097e+01
   4.176901e+01  -2.366702e+01
   6.185174e+01   3.333712e+01
   1.904115e+01   6.114719e+01
  -5.505951e+01   3.716660e+01
  -9.181001e+01  -1.036370e+01
  -5.144340e+01  -4.245208e+01
   2.732094e+01  -4.472643e+01
   6.427079e+01  -2.716055e+01
   2.700758e+01  -7.975361e+00
  -3.093270e+01  -1.607970e-01
  -3.427514e+01  -1.059313e+01
   2.652912e+01  -2.667959e+01
   8.311894e+01  -1.920443e+01
