
 $NMID
 id='ANONYMOUS ', fmtdat='(2E16.6)'
 volume=1.0
 tramp=1.0
 $END
   3.823953e+03   2.904147e+02
   2.002749e+03   2.365796e+03
  -7.151332e+02   2.324203e+03
  -1.754795e+03   7.426747e+02
  -7.179798e+02  -4.080874e+02
   5.074279e+02  -3.024046e+02
   6.315262e+02   4.524135e+02
  -1.274766e+02   8.600472e+02
  -7.464957e+02   5.856980e+02
  -7.876213e+02  -1.332221e+02
  -3.612880e+02  -7.258428e+02
   2.297014e+02  -7.572792e+02
   5.350354e+02  -6.791393e+01
   2.844496e+02   6.511011e+02
  -2.746685e+02   6.360511e+02
  -5.366819e+02  -1.314008e+01
  -2.185236e+02  -6.244486e+02
   2.990106e+02  -5.834844e+02
   5.256896e+02  -1.061008e+02
   3.480132e+02   3.033185e+02
   1.647701e+01   3.919737e+02
  -2.060796e+02   2.217275e+02
  -1.492822e+02   1.034467e+01
   1.701283e+02  -3.323156e+01
   3.767252e+02   1.910671e+02
   1.068941e+02   4.351243e+02
  -4.961924e+02   3.115078e+02
  -7.668311e+02  -1.732036e+02
  -3.030833e+02  -5.289585e+02
   4.271940e+02  -3.654611e+02
   6.634522e+02   1.329811e+02
   2.505139e+02   4.769290e+02
  -3.258181e+02   4.490632e+02
  -5.429046e+02   1.344786e+02
  -3.555847e+02  -2.357357e+02
  -2.914574e+01  -4.136604e+02
   1.672129e+02  -2.215713e+02
   8.194261e+01   1.980974e+02
  -1.843825e+02   3.307376e+02
  -3.677763e+02  -1.068611e+02
  -1.234068e+02  -6.527112e+02
   3.510799e+02  -5.812189e+02
   5.126951e+02   5.616419e+01
   1.627287e+02   5.025733e+02
  -2.842587e+02   2.303612e+02
  -2.978481e+02  -3.433081e+02
   1.222039e+02  -4.933561e+02
   5.313848e+02  -7.602242e+01
   5.297049e+02   4.201143e+02
   1.251111e+02   5.525358e+02
  -3.764156e+02   2.931129e+02
  -5.780091e+02  -1.062524e+02
  -3.232743e+02  -3.627178e+02
   1.542813e+02  -3.059304e+02
   3.862636e+02  -3.011564e+01
   2.052594e+02   1.563140e+02
  -9.216799e+01   5.569652e+01
  -8.964067e+01  -1.410922e+02
   1.739977e+02  -1.354552e+02
   3.051888e+02   1.003352e+02
   1.099846e+02   2.782553e+02
  -2.006513e+02   2.294140e+02
  -3.212525e+02   7.442032e+01
  -2.103625e+02  -9.248073e+01
   2.216483e+01  -2.480530e+02
   2.467687e+02  -3.296270e+02
   3.564005e+02  -1.815454e+02
   2.652672e+02   1.668933e+02
   4.130559e+01   4.064764e+02
  -1.142000e+02   3.305069e+02
  -8.587924e+01   1.082560e+02
  -1.326479e+01   2.829233e+01
  -7.116176e+01   1.086770e+02
  -2.259927e+02   1.087137e+02
  -2.720251e+02  -8.924565e+01
  -1.230528e+02  -2.797730e+02
   1.025694e+02  -2.372340e+02
   2.248081e+02   2.073123e+01
   1.660642e+02   2.555519e+02
  -4.260284e+01   2.836960e+02
  -2.705321e+02   8.758836e+01
  -3.364267e+02  -1.896521e+02
  -1.568891e+02  -3.443553e+02
   1.025554e+02  -2.796139e+02
   2.042094e+02  -1.043603e+02
   1.384475e+02  -2.044200e+01
   1.115264e+02  -5.067625e+01
   2.504669e+02  -5.377218e+01
   3.960571e+02   9.112343e+01
   2.989022e+02   3.043688e+02
  -3.277887e+01   4.308235e+02
  -3.795155e+02   3.728579e+02
  -4.796291e+02   1.614015e+02
  -3.089673e+02  -1.093544e+02
  -2.639800e+01  -2.791368e+02
   1.345642e+02  -2.254109e+02
   6.293821e+01  -2.208970e+01
  -1.190199e+02   8.268011e+01
  -1.742058e+02  -2.900756e+01
  -2.306294e+01  -1.786196e+02
   1.540418e+02  -1.332673e+02
   1.468332e+02   7.243243e+01
  -4.010029e+01   1.679788e+02
  -1.848971e+02   6.480058e+00
  -1.407513e+02  -2.485142e+02
   4.401910e+01  -3.352672e+02
   2.352568e+02  -1.842585e+02
   3.248363e+02   6.877855e+01
   2.671151e+02   2.459461e+02
   7.860132e+01   2.668047e+02
  -1.234351e+02   1.491354e+02
  -1.680469e+02   7.145919e+00
  -4.591978e+01  -3.118982e+01
   6.476246e+01   4.662187e+01
   1.233669e+01   1.239366e+02
  -1.323930e+02   8.457909e+01
  -1.671409e+02  -2.911683e+01
  -4.110731e+01  -7.291193e+01
   8.699135e+01  -5.890344e+00
   4.874749e+01   8.399152e+01
  -1.326004e+02   8.478362e+01
  -2.862422e+02  -1.332361e+01
  -2.558517e+02  -1.576138e+02
  -3.799656e+01  -2.594045e+02
   2.046587e+02  -2.440089e+02
   2.853396e+02  -1.011144e+02
   1.523211e+02   6.307215e+01
  -3.776690e+01   9.723163e+01
  -8.429651e+01  -4.619181e+00
   4.670325e+01  -9.733986e+01
   1.981749e+02  -4.266718e+01
   1.977447e+02   1.146113e+02
   5.145252e+01   2.044326e+02
  -1.016605e+02   1.437761e+02
  -1.389086e+02   1.526220e+01
  -5.906909e+01  -4.803243e+01
   3.565037e+01   2.835318e+00
   3.413747e+01   9.342691e+01
  -8.255818e+01   1.140534e+02
  -1.999274e+02   1.721233e+01
  -1.798072e+02  -1.339810e+02
  -6.589566e+00  -2.134045e+02
   1.672098e+02  -1.464497e+02
   1.846872e+02   6.964107e+00
   5.275062e+01   1.126693e+02
  -7.218226e+01   1.019578e+02
  -8.161385e+01   2.154998e+01
  -1.217031e+01  -3.007678e+01
   2.994216e+01  -1.635484e+01
  -6.479196e+00   1.463606e+01
  -7.251926e+01  -4.438165e+00
  -8.990934e+01  -8.369756e+01
  -9.546873e+00  -1.614295e+02
   1.347606e+02  -1.458409e+02
   2.333815e+02  -1.114918e+01
   1.875225e+02   1.599537e+02
   2.625671e+01   2.311480e+02
  -1.121647e+02   1.558401e+02
  -1.299911e+02   1.964300e+01
  -6.488820e+01  -5.360783e+01
  -2.652978e+01  -3.291495e+01
  -5.032980e+01   1.354171e+01
  -7.869513e+01   5.951246e+00
  -4.525969e+01  -5.154854e+01
   4.117444e+01  -9.080754e+01
   1.083464e+02  -5.560672e+01
   9.156224e+01   4.165671e+01
  -1.700826e+01   1.179748e+02
  -1.510480e+02   8.463817e+01
  -1.987264e+02  -6.307176e+01
  -8.844953e+01  -2.092169e+02
   1.199054e+02  -2.200378e+02
   2.661927e+02  -7.738050e+01
   2.413769e+02   9.862437e+01
   9.168467e+01   1.762698e+02
  -4.697890e+01   1.380086e+02
  -9.520019e+01   7.599910e+01
  -7.834325e+01   6.270670e+01
  -6.534328e+01   8.691448e+01
  -9.020576e+01   6.959406e+01
  -1.247007e+02  -2.544291e+01
  -1.093612e+02  -1.557399e+02
  -1.776195e+01  -2.214676e+02
   1.055474e+02  -1.591258e+02
   1.701548e+02  -5.917214e+00
   1.234385e+02   1.283373e+02
   8.424428e+00   1.558330e+02
  -7.356721e+01   8.262502e+01
  -6.079502e+01  -7.758612e+00
  -2.506494e+00  -4.770865e+01
   1.568669e+01  -3.638137e+01
  -3.032132e+01  -1.738781e+01
  -7.551436e+01  -2.055709e+01
  -4.281214e+01  -3.905204e+01
   6.576502e+01  -3.597193e+01
   1.567773e+02   2.665004e+00
   1.372846e+02   5.649074e+01
   7.616703e+00   9.095219e+01
  -1.247126e+02   6.832087e+01
  -1.424743e+02   2.946059e+00
  -4.378690e+01  -4.722728e+01
   6.002485e+01  -3.519830e+01
   7.346736e+01   2.164800e+01
   7.355321e+00   6.502309e+01
  -5.226413e+01   5.205928e+01
  -6.067542e+01  -4.015934e+00
  -4.378724e+01  -4.861295e+01
  -4.038682e+01  -4.038301e+01
  -5.893781e+01  -4.986324e+00
  -6.240702e+01  -3.863792e+00
  -3.176080e+01  -6.576363e+01
   3.797931e+01  -1.392873e+02
   1.203949e+02  -1.313131e+02
   1.619527e+02  -2.750649e+01
   1.161036e+02   9.344452e+01
   1.852072e-01   1.243839e+02
  -8.774985e+01   5.941572e+01
  -5.671212e+01  -1.789572e+01
   6.036512e+01  -2.099155e+01
   1.335163e+02   4.626881e+01
   7.072421e+01   1.091582e+02
  -8.333322e+01   1.078635e+02
  -1.871669e+02   4.163928e+01
  -1.563418e+02  -4.216676e+01
  -3.066377e+01  -8.722921e+01
   6.458183e+01  -6.322939e+01
   4.989092e+01  -1.298780e+00
  -3.838113e+01   2.736271e+01
  -8.846690e+01  -2.557109e+01
  -2.879440e+01  -1.160815e+02
   9.195683e+01  -1.442408e+02
   1.610963e+02  -5.111068e+01
   1.153795e+02   1.014947e+02
   1.770962e+00   1.860848e+02
  -8.774775e+01   1.304758e+02
  -9.944417e+01  -1.299715e+01
  -5.014232e+01  -1.170264e+02
   1.180999e+01  -1.028811e+02
   4.796922e+01  -1.627461e+01
   4.607852e+01   3.450991e+01
   2.110375e+01   1.028493e+01
   6.282486e+00  -2.013084e+01
   2.485087e+01   1.473613e+01
   5.387306e+01   8.641096e+01
   3.580022e+01   1.080551e+02
  -4.900078e+01   4.237610e+01
  -1.292020e+02  -4.244119e+01
  -1.182329e+02  -7.386031e+01
  -1.285210e+01  -4.780183e+01
   8.403341e+01  -1.566273e+01
   8.600983e+01  -2.522408e+00
   1.206831e+01   8.146727e+00
  -3.804807e+01   2.060560e+01
  -1.710713e+01   1.651517e+01
   1.756765e+01  -6.739728e-01
  -4.627909e+00  -8.885865e+00
  -6.951028e+01  -5.336687e+00
  -8.769793e+01  -2.677268e+01
  -7.522294e+00  -7.851833e+01
   1.166706e+02  -1.059111e+02
   1.816989e+02  -5.061343e+01
   1.349351e+02   6.864490e+01
   2.006724e+01   1.570414e+02
  -8.186544e+01   1.440741e+02
  -1.113934e+02   5.544286e+01
  -7.701947e+01  -2.271651e+01
  -2.446351e+01  -3.690159e+01
   9.948264e-01  -1.016130e+01
  -1.083154e+01  -5.853900e+00
  -2.902792e+01  -4.609481e+01
  -1.581347e+01  -8.841742e+01
   3.118462e+01  -6.730882e+01
   7.661038e+01   2.133337e+01
   7.018498e+01   1.062198e+02
   1.973938e+00   1.072589e+02
  -7.843929e+01   2.063490e+01
  -9.751054e+01  -7.365623e+01
  -2.990130e+01  -1.008320e+02
   6.452849e+01  -5.402131e+01
   9.589885e+01   1.203491e+01
   3.911864e+01   5.178899e+01
  -3.207078e+01   5.156407e+01
  -3.377269e+01   2.700195e+01
   2.986266e+01  -8.001703e-01
   6.687076e+01  -5.657769e+00
   1.517823e+01   2.552422e+01
  -7.749147e+01   6.106925e+01
  -1.156305e+02   5.088400e+01
  -6.386264e+01  -1.614308e+01
   1.771135e+01  -8.006015e+01
   5.626374e+01  -7.522377e+01
   3.815410e+01  -6.657724e+00
  -2.336073e-01   5.384509e+01
  -2.606374e+01   4.204092e+01
  -3.416001e+01  -1.598766e+01
  -2.442459e+01  -5.235024e+01
   2.403818e+00  -3.317499e+01
   3.111285e+01   8.071202e+00
   3.885666e+01   2.184783e+01
   2.078905e+01   2.225820e+00
  -6.248356e-01  -1.499538e+01
  -7.584365e+00  -5.573617e-01
  -6.756252e+00   3.201140e+01
  -1.269198e+01   4.149668e+01
  -2.670218e+01   1.044697e+01
  -2.909900e+01  -3.953194e+01
   1.114055e-01  -5.648475e+01
   4.110787e+01  -1.958916e+01
   5.336681e+01   3.626883e+01
   1.367284e+01   6.033697e+01
  -5.382398e+01   3.176986e+01
  -8.583821e+01  -1.582947e+01
  -4.658723e+01  -4.413888e+01
   2.773184e+01  -4.008436e+01
   6.197059e+01  -2.167486e+01
   2.485925e+01  -5.799212e+00
  -3.104345e+01  -2.525472e+00
  -3.192093e+01  -1.297946e+01
   2.996529e+01  -2.526381e+01
   8.409518e+01  -1.285829e+01
