
 $NMID
 id='ANONYMOUS ', fmtdat='(2E16.6)'
 volume=1.0
 tramp=1.0
 $END
   4.405675e+03   2.135381e+01
   2.504112e+03   2.759217e+03
  -8.295130e+02   2.742490e+03
  -2.088273e+03   8.237294e+02
  -8.614578e+02  -6.232997e+02
   6.755733e+02  -4.794243e+02
   8.453417e+02   4.812256e+02
  -5.323169e+01   1.071789e+03
  -8.260332e+02   7.653464e+02
  -9.460083e+02  -1.037878e+02
  -4.592482e+02  -8.352060e+02
   2.512443e+02  -8.922120e+02
   6.473228e+02  -1.079478e+02
   3.770086e+02   7.352638e+02
  -2.905677e+02   7.623829e+02
  -6.320007e+02   9.667408e+00
  -2.711566e+02  -7.138977e+02
   3.413536e+02  -6.530148e+02
   5.942133e+02  -7.797658e+01
   3.850520e+02   3.565608e+02
   1.178852e+01   4.373000e+02
  -2.468756e+02   2.537107e+02
  -2.130071e+02   9.016868e+00
   1.290022e+02  -8.501718e+01
   4.212601e+02   1.359704e+02
   1.879165e+02   4.513268e+02
  -4.873811e+02   4.035475e+02
  -8.516966e+02  -1.118800e+02
  -4.041130e+02  -5.725607e+02
   4.298693e+02  -4.746994e+02
   7.608299e+02   7.893274e+01
   3.382139e+02   5.187539e+02
  -3.100827e+02   5.358377e+02
  -5.887708e+02   1.926504e+02
  -4.258176e+02  -2.447615e+02
  -6.552817e+01  -4.861179e+02
   2.043331e+02  -2.828864e+02
   1.718459e+02   2.222396e+02
  -1.453638e+02   4.239004e+02
  -4.420089e+02  -2.661188e+01
  -2.361628e+02  -6.855834e+02
   3.339676e+02  -7.062661e+02
   6.105189e+02   3.173434e+00
   2.547394e+02   5.724083e+02
  -3.093384e+02   3.236997e+02
  -3.936597e+02  -3.317309e+02
   7.615544e+01  -5.626020e+02
   5.691991e+02  -1.317273e+02
   6.028472e+02   4.234926e+02
   1.663529e+02   6.094014e+02
  -3.986406e+02   3.549393e+02
  -6.499994e+02  -8.970252e+01
  -3.786623e+02  -4.077249e+02
   1.682721e+02  -3.665176e+02
   4.565345e+02  -4.548764e+01
   2.413894e+02   2.066597e+02
  -1.293261e+02   1.043082e+02
  -1.458799e+02  -1.685353e+02
   1.773230e+02  -1.948390e+02
   3.649181e+02   8.116625e+01
   1.487883e+02   3.160101e+02
  -2.176170e+02   2.679940e+02
  -3.443767e+02   7.035246e+01
  -2.118445e+02  -9.978917e+01
   2.937397e+01  -2.452958e+02
   2.322449e+02  -3.387290e+02
   3.603774e+02  -2.175009e+02
   2.991616e+02   1.522860e+02
   7.056554e+01   4.431196e+02
  -1.217032e+02   3.848715e+02
  -1.233687e+02   1.166025e+02
  -2.627375e+01  -3.227388e+00
  -4.644540e+01   9.329499e+01
  -2.057904e+02   1.305489e+02
  -2.902016e+02  -5.886748e+01
  -1.620402e+02  -2.837400e+02
   7.978416e+01  -2.663345e+02
   2.410973e+02  -9.668308e+00
   2.073492e+02   2.535166e+02
  -1.339334e+01   3.073868e+02
  -2.787161e+02   1.193611e+02
  -3.733253e+02  -1.764698e+02
  -1.925118e+02  -3.625555e+02
   1.031800e+02  -3.156291e+02
   2.321181e+02  -1.210134e+02
   1.544417e+02  -4.986899e+00
   1.015875e+02  -3.843937e+01
   2.376844e+02  -6.989420e+01
   4.137525e+02   6.089561e+01
   3.402216e+02   2.958581e+02
   2.477224e+00   4.568971e+02
  -3.749017e+02   4.215028e+02
  -5.023930e+02   2.034092e+02
  -3.462976e+02  -9.981347e+01
  -5.455765e+01  -3.007608e+02
   1.347397e+02  -2.546234e+02
   8.326350e+01  -2.983206e+01
  -1.136467e+02   1.062187e+02
  -2.026960e+02  -1.070343e+01
  -5.228794e+01  -2.034792e+02
   1.683796e+02  -1.731385e+02
   1.805380e+02   6.485253e+01
  -2.369396e+01   1.962212e+02
  -2.020177e+02   2.931966e+01
  -1.650702e+02  -2.565446e+02
   4.093952e+01  -3.599866e+02
   2.443534e+02  -1.990944e+02
   3.394774e+02   6.740253e+01
   2.852907e+02   2.532294e+02
   9.339267e+01   2.790380e+02
  -1.199781e+02   1.653018e+02
  -1.835439e+02   1.833035e+01
  -6.169252e+01  -3.571107e+01
   6.982883e+01   3.980494e+01
   2.523804e+01   1.311689e+02
  -1.297687e+02   1.004187e+02
  -1.826810e+02  -1.931543e+01
  -5.610615e+01  -7.791097e+01
   8.485112e+01  -1.805393e+01
   5.678803e+01   7.767539e+01
  -1.270355e+02   9.098675e+01
  -2.873992e+02  -5.535076e-01
  -2.668681e+02  -1.470831e+02
  -5.690859e+01  -2.628829e+02
   1.929154e+02  -2.631998e+02
   2.926006e+02  -1.220794e+02
   1.723977e+02   5.655721e+01
  -2.726502e+01   1.094695e+02
  -9.332221e+01   1.757556e+00
   3.640199e+01  -1.052009e+02
   2.041331e+02  -5.767172e+01
   2.212028e+02   1.101451e+02
   6.970448e+01   2.163714e+02
  -1.005859e+02   1.634381e+02
  -1.481103e+02   2.816646e+01
  -7.098625e+01  -4.543178e+01
   3.021726e+01  -1.862418e+00
   3.700202e+01   8.735467e+01
  -7.507555e+01   1.177904e+02
  -2.027608e+02   2.997829e+01
  -1.941957e+02  -1.271047e+02
  -2.135347e+01  -2.247794e+02
   1.680500e+02  -1.676635e+02
   1.967141e+02  -3.431964e+00
   6.427087e+01   1.189427e+02
  -6.983535e+01   1.115689e+02
  -8.551960e+01   2.772011e+01
  -1.896638e+01  -2.923232e+01
   2.224287e+01  -2.076326e+01
  -7.583871e+00   6.870245e+00
  -6.835649e+01  -1.008732e+01
  -8.617889e+01  -8.314176e+01
  -1.338026e+01  -1.599027e+02
   1.297453e+02  -1.521647e+02
   2.378413e+02  -2.139592e+01
   2.033041e+02   1.587882e+02
   3.725453e+01   2.443424e+02
  -1.167655e+02   1.722744e+02
  -1.419085e+02   2.468781e+01
  -7.216007e+01  -5.955365e+01
  -2.781032e+01  -3.738928e+01
  -5.282256e+01   1.314209e+01
  -8.183216e+01   5.112104e+00
  -4.166959e+01  -5.236925e+01
   4.484866e+01  -8.932542e+01
   1.048584e+02  -5.368262e+01
   8.584641e+01   3.640073e+01
  -1.449772e+01   1.119192e+02
  -1.432614e+02   8.653996e+01
  -1.983380e+02  -5.139361e+01
  -9.855188e+01  -2.057765e+02
   1.114671e+02  -2.315715e+02
   2.715747e+02  -9.613111e+01
   2.602244e+02   8.985249e+01
   1.099682e+02   1.834269e+02
  -4.183401e+01   1.520926e+02
  -9.838458e+01   8.441677e+01
  -8.307023e+01   6.852279e+01
  -6.857959e+01   8.968395e+01
  -9.439827e+01   7.487550e+01
  -1.315333e+02  -2.197151e+01
  -1.206420e+02  -1.584148e+02
  -2.782943e+01  -2.325946e+02
   1.047984e+02  -1.739380e+02
   1.803834e+02  -1.608400e+01
   1.370128e+02   1.273314e+02
   1.588441e+01   1.611939e+02
  -7.170397e+01   9.271415e+01
  -6.326687e+01  -1.639752e+00
  -6.329567e+00  -4.437180e+01
   1.099471e+01  -3.563846e+01
  -3.501807e+01  -1.829727e+01
  -8.034425e+01  -2.372753e+01
  -4.544063e+01  -4.208672e+01
   6.527975e+01  -4.116014e+01
   1.615999e+02  -5.758546e+00
   1.478191e+02   5.565852e+01
   1.702866e+01   9.560704e+01
  -1.239884e+02   7.812770e+01
  -1.502404e+02   1.203840e+01
  -5.212960e+01  -4.395395e+01
   5.998632e+01  -3.904114e+01
   7.695775e+01   2.005869e+01
   8.136158e+00   6.967381e+01
  -5.690145e+01   5.821326e+01
  -6.512915e+01  -2.483763e+00
  -4.717630e+01  -5.192846e+01
  -4.247748e+01  -4.374324e+01
  -5.853122e+01  -5.117490e+00
  -6.479493e+01  -1.669644e+00
  -3.505894e+01  -6.643115e+01
   3.236511e+01  -1.446520e+02
   1.173458e+02  -1.410785e+02
   1.655812e+02  -3.480996e+01
   1.248534e+02   9.269393e+01
   6.581821e+00   1.296447e+02
  -8.585979e+01   6.271905e+01
  -6.053962e+01  -1.581036e+01
   5.811016e+01  -2.177182e+01
   1.369921e+02   4.455285e+01
   7.624294e+01   1.104111e+02
  -8.265591e+01   1.139382e+02
  -1.963765e+02   5.067703e+01
  -1.678427e+02  -3.713605e+01
  -3.777804e+01  -8.945346e+01
   6.501796e+01  -7.004548e+01
   5.284241e+01  -5.759504e+00
  -3.873763e+01   2.889335e+01
  -9.365397e+01  -2.335211e+01
  -3.486419e+01  -1.205356e+02
   9.245170e+01  -1.548615e+02
   1.693457e+02  -5.885079e+01
   1.263556e+02   1.041967e+02
   8.867390e+00   1.998277e+02
  -8.882597e+01   1.433288e+02
  -1.070105e+02  -8.424653e+00
  -6.149577e+01  -1.203148e+02
   3.389321e+00  -1.067815e+02
   4.719936e+01  -1.972677e+01
   5.161838e+01   3.240445e+01
   2.547924e+01   8.533974e+00
   5.647624e+00  -2.198031e+01
   2.424922e+01   1.285512e+01
   5.668671e+01   8.771520e+01
   3.972322e+01   1.110213e+02
  -4.972410e+01   4.868184e+01
  -1.383375e+02  -3.947395e+01
  -1.280221e+02  -7.419765e+01
  -1.641667e+01  -5.182958e+01
   8.829446e+01  -2.108232e+01
   8.849815e+01  -5.292632e+00
   1.104052e+01   9.083865e+00
  -3.974722e+01   2.195800e+01
  -1.774384e+01   1.735535e+01
   1.985785e+01  -1.906663e+00
  -2.842843e+00  -9.855750e+00
  -7.074461e+01  -3.418721e+00
  -9.247560e+01  -2.330264e+01
  -1.116453e+01  -7.900659e+01
   1.160429e+02  -1.154313e+02
   1.867692e+02  -5.999237e+01
   1.426038e+02   6.790342e+01
   2.417634e+01   1.660558e+02
  -8.107496e+01   1.515940e+02
  -1.143750e+02   5.616069e+01
  -7.980386e+01  -2.581189e+01
  -2.460482e+01  -3.834901e+01
   2.472191e+00  -8.093734e+00
  -1.043025e+01  -2.445472e+00
  -3.275757e+01  -4.520153e+01
  -2.289041e+01  -9.219518e+01
   3.040266e+01  -7.416519e+01
   8.296761e+01   1.848395e+01
   7.724127e+01   1.116546e+02
   1.899777e+00   1.152718e+02
  -8.581444e+01   2.276027e+01
  -1.037935e+02  -7.923575e+01
  -3.079757e+01  -1.066205e+02
   6.919431e+01  -5.642711e+01
   1.006727e+02   1.282087e+01
   4.108579e+01   5.239888e+01
  -3.344788e+01   5.321662e+01
  -3.398198e+01   2.783651e+01
   3.203281e+01  -1.591133e-01
   6.936489e+01  -5.060055e+00
   1.593840e+01   2.726194e+01
  -8.107676e+01   6.653645e+01
  -1.198849e+02   5.558958e+01
  -6.513605e+01  -1.474070e+01
   1.800877e+01  -8.465702e+01
   5.510547e+01  -7.966731e+01
   3.629866e+01  -5.450527e+00
  -3.121788e-01   5.622412e+01
  -2.699778e+01   4.280797e+01
  -3.640995e+01  -1.966611e+01
  -2.572391e+01  -5.598461e+01
   3.716405e+00  -3.388526e+01
   3.354418e+01   9.849177e+00
   4.052449e+01   2.413216e+01
   2.036419e+01   2.739824e+00
  -1.356078e+00  -1.506361e+01
  -8.701460e+00   6.940762e-01
  -6.382369e+00   3.525076e+01
  -1.566875e+01   4.446495e+01
  -3.151890e+01   7.055178e+00
  -2.967752e+01  -4.630145e+01
   2.372122e+00  -6.188448e+01
   4.606566e+01  -2.031360e+01
   5.828522e+01   4.105895e+01
   1.556797e+01   6.448997e+01
  -5.536320e+01   3.549429e+01
  -8.997571e+01  -1.544160e+01
  -4.992601e+01  -4.529222e+01
   2.885996e+01  -4.231161e+01
   6.572422e+01  -2.163880e+01
   2.547850e+01  -4.226421e+00
  -3.694355e+01  -2.236621e+00
  -3.668353e+01  -1.590409e+01
   3.086430e+01  -3.094056e+01
   9.140731e+01  -1.836767e+01
