
 $NMID
 id='ANONYMOUS ', fmtdat='(2E16.6)'
 volume=1.0
 tramp=1.0
 $END
  -4.931824e+03  -1.368298e+01
  -2.692552e+03  -3.185290e+03
   1.128774e+03  -3.155078e+03
   2.558882e+03  -7.499417e+02
   1.012107e+03   1.039783e+03
  -9.180192e+02   7.619442e+02
  -1.135702e+03  -5.852540e+02
   2.474666e+01  -1.309513e+03
   1.010302e+03  -8.986278e+02
   1.132319e+03   1.800735e+02
   4.681128e+02   1.045727e+03
  -3.596693e+02   1.054197e+03
  -8.326422e+02   1.048531e+02
  -4.690257e+02  -8.856681e+02
   3.536123e+02  -8.811565e+02
   7.214331e+02   2.485992e+01
   2.838075e+02   8.118306e+02
  -4.291818e+02   6.958443e+02
  -6.770731e+02   2.317659e+01
  -3.925378e+02  -4.526405e+02
   2.542636e+01  -4.973266e+02
   3.027707e+02  -2.777270e+02
   2.834650e+02   1.011174e+00
  -8.294529e+01   1.557616e+02
  -4.720401e+02  -5.801132e+01
  -2.973693e+02  -4.716046e+02
   4.763648e+02  -5.276892e+02
   9.891452e+02   3.929303e+01
   5.398429e+02   6.468305e+02
  -4.267119e+02   6.154309e+02
  -8.643584e+02  -6.829311e-01
  -4.195178e+02  -5.516694e+02
   3.003430e+02  -6.139988e+02
   6.367957e+02  -2.345058e+02
   4.732958e+02   2.781020e+02
   6.552241e+01   5.664951e+02
  -2.725080e+02   3.418459e+02
  -2.639947e+02  -2.630990e+02
   1.422562e+02  -5.279017e+02
   5.484525e+02  -3.794505e+01
   3.585523e+02   7.701381e+02
  -3.479080e+02   8.432002e+02
  -7.398412e+02   2.926127e+01
  -3.300383e+02  -6.679498e+02
   3.647608e+02  -4.233100e+02
   4.903686e+02   3.426957e+02
  -4.487002e+01   6.402905e+02
  -6.221379e+02   1.929814e+02
  -6.667940e+02  -4.274764e+02
  -1.803315e+02  -6.531965e+02
   4.309387e+02  -4.037289e+02
   7.090396e+02   8.141508e+01
   4.179968e+02   4.632994e+02
  -2.039972e+02   4.457881e+02
  -5.339693e+02   5.320851e+01
  -2.763124e+02  -2.739519e+02
   1.817908e+02  -1.536291e+02
   2.035633e+02   2.019119e+02
  -1.930724e+02   2.582164e+02
  -4.190260e+02  -8.620034e+01
  -1.531923e+02  -3.619266e+02
   2.537519e+02  -2.818810e+02
   3.508188e+02  -4.212112e+01
   1.723027e+02   1.032399e+02
  -3.601525e+01   2.050210e+02
  -1.992498e+02   3.166421e+02
  -3.348513e+02   2.449273e+02
  -3.293522e+02  -1.307471e+02
  -9.984567e+01  -4.810216e+02
   1.513847e+02  -4.225499e+02
   1.755596e+02  -9.446000e+01
   3.199203e+01   6.267599e+01
   4.124844e+00  -6.944137e+01
   1.709437e+02  -1.621820e+02
   2.993841e+02   2.192770e+01
   1.962482e+02   2.802772e+02
  -6.106261e+01   2.938913e+02
  -2.499800e+02   3.729962e+01
  -2.330285e+02  -2.409230e+02
  -1.016989e+01  -3.231656e+02
   2.790200e+02  -1.488038e+02
   4.010874e+02   1.675316e+02
   2.062611e+02   3.886902e+02
  -1.241671e+02   3.404641e+02
  -2.685710e+02   1.102960e+02
  -1.644520e+02  -2.788167e+01
  -8.189781e+01   1.883635e+01
  -2.164645e+02   7.378182e+01
  -4.078024e+02  -4.654415e+01
  -3.478295e+02  -2.916486e+02
  -1.177647e+01  -4.541132e+02
   3.646801e+02  -4.315043e+02
   5.076347e+02  -2.178860e+02
   3.691558e+02   9.358998e+01
   7.403767e+01   3.201957e+02
  -1.462489e+02   2.886862e+02
  -1.187422e+02   3.272566e+01
   1.002260e+02  -1.385034e+02
   2.285314e+02  -1.335484e+01
   7.701154e+01   2.217314e+02
  -1.765647e+02   2.064363e+02
  -2.140134e+02  -5.960118e+01
   1.002912e+01  -2.219690e+02
   2.129844e+02  -4.789496e+01
   1.721325e+02   2.616283e+02
  -4.609041e+01   3.642080e+02
  -2.402671e+02   1.900107e+02
  -3.202392e+02  -6.627902e+01
  -2.802780e+02  -2.384869e+02
  -1.108280e+02  -2.704981e+02
   1.103785e+02  -1.772948e+02
   1.960001e+02  -2.858116e+01
   7.475453e+01   4.414360e+01
  -7.740608e+01  -2.458844e+01
  -4.700216e+01  -1.324289e+02
   1.244012e+02  -1.215581e+02
   1.984343e+02   3.386936e+00
   7.545108e+01   8.332394e+01
  -7.900885e+01   3.456837e+01
  -6.469687e+01  -6.327327e+01
   1.131531e+02  -8.871646e+01
   2.750581e+02  -1.264917e+01
   2.709699e+02   1.261694e+02
   7.901043e+01   2.562103e+02
  -1.757801e+02   2.801169e+02
  -2.970969e+02   1.442149e+02
  -1.914449e+02  -5.595166e+01
   2.151499e+01  -1.277460e+02
   1.067531e+02  -1.565202e+01
  -2.127680e+01   1.142576e+02
  -2.053130e+02   7.465015e+01
  -2.346688e+02  -1.056343e+02
  -8.093035e+01  -2.235361e+02
   9.948405e+01  -1.745479e+02
   1.572345e+02  -3.835248e+01
   8.501045e+01   4.378727e+01
  -1.953110e+01   1.426487e+01
  -4.121260e+01  -7.223692e+01
   6.172189e+01  -1.130739e+02
   1.954689e+02  -3.831656e+01
   1.998168e+02   1.207684e+02
   2.881367e+01   2.291517e+02
  -1.717247e+02   1.787738e+02
  -2.111092e+02   4.905790e+00
  -7.459121e+01  -1.288616e+02
   7.130878e+01  -1.248649e+02
   9.456632e+01  -3.607845e+01
   2.894280e+01   2.809930e+01
  -1.465222e+01   2.574389e+01
   9.490180e+00   9.910470e-01
   6.403725e+01   1.271147e+01
   8.240408e+01   7.648384e+01
   1.921581e+01   1.521500e+02
  -1.203898e+02   1.563565e+02
  -2.378085e+02   3.490403e+01
  -2.125825e+02  -1.517074e+02
  -4.467646e+01  -2.502866e+02
   1.173839e+02  -1.796219e+02
   1.454172e+02  -2.462047e+01
   7.203027e+01   6.409528e+01
   2.713814e+01   3.875946e+01
   5.386481e+01  -1.183134e+01
   7.890758e+01  -3.329698e+00
   3.496150e+01   4.954598e+01
  -4.514708e+01   7.944944e+01
  -9.522759e+01   4.847701e+01
  -7.602977e+01  -3.216994e+01
   1.220067e+01  -1.004675e+02
   1.331809e+02  -8.347139e+01
   1.953302e+02   4.272427e+01
   1.105844e+02   1.964735e+02
  -9.752578e+01   2.342225e+02
  -2.716448e+02   1.087503e+02
  -2.714613e+02  -8.166136e+01
  -1.183678e+02  -1.856805e+02
   3.924157e+01  -1.582462e+02
   9.864289e+01  -9.008224e+01
   8.605360e+01  -7.143190e+01
   7.243991e+01  -8.899462e+01
   9.448876e+01  -7.131251e+01
   1.283623e+02   2.297451e+01
   1.203114e+02   1.541339e+02
   3.383819e+01   2.285455e+02
  -9.794071e+01   1.798508e+02
  -1.812549e+02   2.625799e+01
  -1.437388e+02  -1.228208e+02
  -2.349040e+01  -1.631143e+02
   6.624998e+01  -9.560511e+01
   5.914009e+01  -3.519920e+00
   9.201941e+00   3.861369e+01
  -2.877487e+00   3.313407e+01
   3.905936e+01   2.199289e+01
   7.578292e+01   2.756920e+01
   4.192092e+01   3.882381e+01
  -6.043113e+01   3.550924e+01
  -1.532044e+02   5.221165e+00
  -1.431810e+02  -4.776683e+01
  -2.328893e+01  -8.513083e+01
   1.163379e+02  -7.564331e+01
   1.461137e+02  -1.758602e+01
   4.982737e+01   3.905152e+01
  -6.093815e+01   3.567503e+01
  -7.585050e+01  -2.171478e+01
  -1.176420e+00  -6.877104e+01
   6.202928e+01  -5.449421e+01
   6.185578e+01   7.506097e+00
   3.875663e+01   5.096206e+01
   4.045270e+01   4.023004e+01
   6.437868e+01   3.799014e-01
   6.779411e+01   9.196808e-01
   3.181188e+01   6.819369e+01
  -3.547540e+01   1.455837e+02
  -1.151937e+02   1.399115e+02
  -1.602194e+02   3.303286e+01
  -1.222697e+02  -9.141364e+01
  -6.293682e+00  -1.233513e+02
   8.678754e+01  -5.858813e+01
   5.918702e+01   1.825333e+01
  -6.235301e+01   2.158952e+01
  -1.415889e+02  -4.481327e+01
  -8.017405e+01  -1.097605e+02
   8.225796e+01  -1.173365e+02
   1.963188e+02  -5.540792e+01
   1.688189e+02   3.349534e+01
   4.146527e+01   9.008442e+01
  -5.943998e+01   7.453352e+01
  -4.972818e+01   1.058022e+01
   3.934222e+01  -2.538400e+01
   9.103490e+01   2.657548e+01
   2.914706e+01   1.228638e+02
  -9.777479e+01   1.539910e+02
  -1.711325e+02   5.645061e+01
  -1.252274e+02  -1.053339e+02
  -7.280596e+00  -1.978028e+02
   8.561678e+01  -1.450782e+02
   1.040754e+02   3.809943e+00
   6.350867e+01   1.158823e+02
   2.293698e+00   1.065921e+02
  -4.363748e+01   2.217315e+01
  -5.366249e+01  -3.030377e+01
  -2.879971e+01  -8.235951e+00
  -3.499242e+00   2.173432e+01
  -1.816768e+01  -1.220970e+01
  -5.644629e+01  -8.867140e+01
  -4.568563e+01  -1.123837e+02
   4.665618e+01  -4.812772e+01
   1.422184e+02   4.019297e+01
   1.329482e+02   7.461702e+01
   1.433390e+01   5.090503e+01
  -9.314043e+01   2.085735e+01
  -8.787743e+01   6.691856e+00
  -5.961704e+00  -6.769468e+00
   4.048750e+01  -2.156284e+01
   1.088201e+01  -1.952755e+01
  -2.300983e+01   7.183311e-01
   7.462502e+00   9.730591e+00
   7.889508e+01   6.453483e+00
   9.173048e+01   2.738827e+01
   2.309090e+00   8.242195e+01
  -1.261450e+02   1.134547e+02
  -1.861108e+02   5.461401e+01
  -1.384620e+02  -7.253583e+01
  -2.304957e+01  -1.636448e+02
   7.946534e+01  -1.493742e+02
   1.145152e+02  -5.660092e+01
   8.056567e+01   2.337269e+01
   2.397980e+01   3.633059e+01
  -5.451436e+00   8.380640e+00
   8.127267e+00   2.761273e+00
   3.411863e+01   4.369119e+01
   2.353086e+01   9.067888e+01
  -3.076240e+01   7.188182e+01
  -8.469206e+01  -2.154144e+01
  -7.678319e+01  -1.146239e+02
   2.561454e+00  -1.156467e+02
   9.008818e+01  -1.890496e+01
   1.031750e+02   8.323842e+01
   2.576580e+01   1.061011e+02
  -7.101989e+01   5.188553e+01
  -9.630444e+01  -1.597121e+01
  -3.482920e+01  -4.872502e+01
   3.368235e+01  -4.689353e+01
   2.807659e+01  -2.608292e+01
  -3.781730e+01  -2.139647e+00
  -6.951462e+01   4.294555e+00
  -1.321532e+01  -2.479217e+01
   8.049562e+01  -6.410634e+01
   1.130477e+02  -5.749416e+01
   6.048820e+01   1.175653e+01
  -1.824626e+01   8.186354e+01
  -5.342561e+01   7.785119e+01
  -3.438966e+01   1.938544e+00
   2.360067e+00  -5.787321e+01
   2.896645e+01  -4.047215e+01
   3.670537e+01   2.291616e+01
   2.412615e+01   5.577605e+01
  -4.936738e+00   3.112583e+01
  -3.314037e+01  -1.141733e+01
  -3.795229e+01  -2.092858e+01
  -2.021482e+01   7.392908e-01
  -1.934252e+00   1.327593e+01
   5.994089e+00  -7.872802e+00
   1.244884e+01  -4.091739e+01
   2.552195e+01  -4.273033e+01
   3.643764e+01  -5.969803e-01
   2.631403e+01   5.204016e+01
  -1.031583e+01   6.409253e+01
  -4.888753e+01   1.753738e+01
  -5.527690e+01  -4.345543e+01
  -1.207010e+01  -6.506890e+01
   5.582361e+01  -3.285412e+01
   8.718498e+01   1.736934e+01
   4.761183e+01   4.458052e+01
  -2.996634e+01   3.901830e+01
  -6.539262e+01   1.917026e+01
  -2.278722e+01   3.035469e+00
   4.099045e+01   3.608879e+00
   4.010884e+01   1.998672e+01
  -3.396792e+01   3.497489e+01
  -9.771025e+01   1.813739e+01
