
 $NMID
 id='ANONYMOUS ', fmtdat='(2E16.6)'
 volume=1.0
 tramp=1.0
 $END
  -3.975845e+03  -5.799452e+01
  -2.422595e+03  -2.212422e+03
   3.371449e+02  -2.558146e+03
   1.749088e+03  -1.122615e+03
   9.929075e+02   2.598166e+02
  -3.808059e+02   4.351148e+02
  -6.728640e+02  -3.114626e+02
  -1.975435e+01  -8.741843e+02
   6.924241e+02  -7.045414e+02
   8.184308e+02   2.480414e+01
   4.575601e+02   7.674764e+02
  -1.398626e+02   7.857117e+02
  -4.957859e+02   1.286753e+02
  -3.207913e+02  -5.943466e+02
   2.082731e+02  -6.555241e+02
   5.270506e+02  -1.984618e+00
   2.994378e+02   6.057962e+02
  -2.282927e+02   6.437249e+02
  -5.462893e+02   1.866302e+02
  -4.326639e+02  -2.734011e+02
  -7.296872e+01  -4.070756e+02
   1.952999e+02  -2.655213e+02
   1.426833e+02  -3.895466e+01
  -1.629439e+02   9.012418e-02
  -3.588536e+02  -1.939628e+02
  -1.014609e+02  -4.178520e+02
   4.825094e+02  -3.181723e+02
   7.589130e+02   1.190461e+02
   3.442273e+02   4.801371e+02
  -3.680223e+02   3.773444e+02
  -6.549479e+02  -6.988182e+01
  -2.878253e+02  -4.440779e+02
   2.814349e+02  -4.582188e+02
   5.354927e+02  -1.644054e+02
   3.850607e+02   2.143944e+02
   6.908484e+01   4.138888e+02
  -1.386203e+02   2.324315e+02
  -8.116559e+01  -1.848725e+02
   2.155982e+02  -3.371817e+02
   3.598038e+02   9.036735e+01
   1.356595e+02   6.163538e+02
  -3.053840e+02   5.925970e+02
  -4.981334e+02  -1.580622e+01
  -1.966694e+02  -4.656723e+02
   2.449687e+02  -2.492101e+02
   3.064865e+02   3.138771e+02
  -9.101541e+01   4.976066e+02
  -5.230533e+02   1.088393e+02
  -5.646339e+02  -4.014733e+02
  -1.587656e+02  -5.658937e+02
   3.572824e+02  -3.214587e+02
   5.906927e+02   7.438252e+01
   3.633286e+02   3.314402e+02
  -1.076075e+02   3.038248e+02
  -3.784503e+02   6.224326e+01
  -2.276431e+02  -1.241988e+02
   6.657833e+01  -7.415648e+01
   1.106896e+02   1.103906e+02
  -1.308824e+02   1.392952e+02
  -3.006313e+02  -4.743918e+01
  -1.461929e+02  -2.500610e+02
   1.760146e+02  -2.645999e+02
   3.448959e+02  -1.057491e+02
   2.342017e+02   9.296012e+01
  -2.263699e+01   2.812343e+02
  -2.556915e+02   3.516479e+02
  -3.531282e+02   1.934560e+02
  -2.724980e+02  -1.463035e+02
  -6.993583e+01  -3.989507e+02
   6.946055e+01  -3.520004e+02
   6.886272e+01  -1.428054e+02
   1.896093e+01  -4.732790e+01
   8.241308e+01  -1.136188e+02
   2.252605e+02  -1.078287e+02
   2.750124e+02   8.032267e+01
   1.402172e+02   2.714900e+02
  -8.162622e+01   2.402467e+02
  -2.210249e+02  -8.352995e+00
  -1.818148e+02  -2.479418e+02
   2.340393e+01  -2.882943e+02
   2.681921e+02  -1.032989e+02
   3.511276e+02   1.680045e+02
   1.877348e+02   3.348459e+02
  -7.672342e+01   2.954468e+02
  -2.037327e+02   1.415157e+02
  -1.447613e+02   3.924623e+01
  -1.100335e+02   6.006721e+01
  -2.457422e+02   7.269864e+01
  -4.218076e+02  -6.040946e+01
  -3.473197e+02  -2.920114e+02
   5.870908e+00  -4.551349e+02
   3.682811e+02  -4.183355e+02
   4.945310e+02  -1.981314e+02
   3.205565e+02   9.827405e+01
   4.060905e+01   2.824217e+02
  -1.097558e+02   2.313412e+02
  -5.041021e+01   2.629010e+01
   1.149698e+02  -8.972162e+01
   1.743112e+02   1.821442e+01
   3.863845e+01   1.822456e+02
  -1.433986e+02   1.544225e+02
  -1.554830e+02  -5.530036e+01
   1.679385e+01  -1.759353e+02
   1.854182e+02  -2.491807e+01
   1.693566e+02   2.469027e+02
  -2.331156e+01   3.578651e+02
  -2.428788e+02   2.083628e+02
  -3.541278e+02  -6.250682e+01
  -2.814948e+02  -2.521288e+02
  -7.295149e+01  -2.725118e+02
   1.247494e+02  -1.521510e+02
   1.659519e+02  -1.148302e+01
   4.267314e+01   2.720794e+01
  -6.774035e+01  -5.017450e+01
  -1.887848e+01  -1.264901e+02
   1.256793e+02  -9.005164e+01
   1.699804e+02   1.574846e+01
   4.876951e+01   6.741730e+01
  -8.438386e+01   7.372441e+00
  -5.496273e+01  -8.322274e+01
   1.327053e+02  -9.457855e+01
   2.953066e+02  -4.420757e-01
   2.707960e+02   1.492297e+02
   5.396232e+01   2.649662e+02
  -1.958025e+02   2.602105e+02
  -2.852172e+02   1.189251e+02
  -1.626741e+02  -5.548467e+01
   2.655170e+01  -1.042788e+02
   8.459710e+01  -2.698187e+00
  -3.909384e+01   1.003261e+02
  -1.962430e+02   5.349655e+01
  -2.075132e+02  -1.071093e+02
  -6.511354e+01  -2.087391e+02
   9.593278e+01  -1.545475e+02
   1.417524e+02  -1.976434e+01
   6.165922e+01   4.762974e+01
  -3.844273e+01  -1.867637e+00
  -4.034725e+01  -9.779858e+01
   8.113524e+01  -1.247209e+02
   2.092326e+02  -3.006013e+01
   1.968302e+02   1.299398e+02
   2.226196e+01   2.217698e+02
  -1.630596e+02   1.654740e+02
  -1.917193e+02   1.041559e+01
  -6.529427e+01  -1.091652e+02
   6.476597e+01  -1.073066e+02
   7.999118e+01  -2.802716e+01
   1.115397e+01   2.722908e+01
  -3.183793e+01   1.511171e+01
   6.411020e+00  -1.926918e+01
   7.984435e+01  -1.250228e+00
   1.027760e+02   8.268147e+01
   2.073135e+01   1.693410e+02
  -1.317410e+02   1.629525e+02
  -2.418565e+02   2.902060e+01
  -2.087929e+02  -1.500256e+02
  -4.956207e+01  -2.388628e+02
   1.027691e+02  -1.731621e+02
   1.354250e+02  -3.334071e+01
   7.575314e+01   4.962757e+01
   3.220574e+01   3.354352e+01
   5.341483e+01  -1.334025e+01
   8.240540e+01  -1.022847e+01
   5.188730e+01   5.052048e+01
  -3.522118e+01   9.805772e+01
  -1.088509e+02   6.745157e+01
  -9.863722e+01  -3.545878e+01
   9.755116e+00  -1.223385e+02
   1.529721e+02  -9.678219e+01
   2.088191e+02   5.581513e+01
   1.002953e+02   2.131043e+02
  -1.130548e+02   2.354947e+02
  -2.725344e+02   9.496445e+01
  -2.594751e+02  -8.939357e+01
  -1.086032e+02  -1.780393e+02
   3.945754e+01  -1.441281e+02
   9.122739e+01  -8.231185e+01
   7.041000e+01  -7.001954e+01
   5.937234e+01  -9.731030e+01
   9.240084e+01  -8.166350e+01
   1.354743e+02   1.503188e+01
   1.260494e+02   1.516053e+02
   3.343157e+01   2.276919e+02
  -9.798959e+01   1.743779e+02
  -1.759974e+02   2.154464e+01
  -1.376380e+02  -1.230179e+02
  -1.817290e+01  -1.625008e+02
   7.216646e+01  -9.164039e+01
   6.522060e+01   7.676779e+00
   2.191752e+00   5.110403e+01
  -2.009655e+01   3.575128e+01
   2.988966e+01   1.376703e+01
   8.154792e+01   1.932168e+01
   4.927761e+01   4.002278e+01
  -6.747686e+01   4.219275e+01
  -1.698421e+02   6.659519e+00
  -1.507741e+02  -5.712653e+01
  -8.838717e+00  -9.830721e+01
   1.310947e+02  -8.113911e+01
   1.517904e+02  -1.134799e+01
   4.800927e+01   5.011808e+01
  -6.214011e+01   4.529632e+01
  -7.944188e+01  -1.788624e+01
  -1.595836e+01  -7.446877e+01
   4.968217e+01  -6.488750e+01
   6.630652e+01  -2.396621e+00
   5.094127e+01   4.849143e+01
   4.663740e+01   4.014071e+01
   5.854483e+01  -6.435997e-01
   6.558506e+01  -1.181235e+00
   4.387980e+01   6.957207e+01
  -2.311004e+01   1.536860e+02
  -1.173537e+02   1.515490e+02
  -1.755811e+02   3.998644e+01
  -1.338764e+02  -9.083435e+01
  -9.967410e+00  -1.324443e+02
   8.987878e+01  -6.780252e+01
   6.285837e+01   1.191274e+01
  -5.777774e+01   2.192765e+01
  -1.362464e+02  -4.145581e+01
  -7.552242e+01  -1.071490e+02
   8.086874e+01  -1.133322e+02
   1.900135e+02  -4.946326e+01
   1.603011e+02   3.701116e+01
   3.483272e+01   8.726304e+01
  -6.256299e+01   6.751157e+01
  -4.923462e+01   2.815374e+00
   3.948183e+01  -3.160042e+01
   9.483910e+01   1.741629e+01
   4.178256e+01   1.191803e+02
  -8.211220e+01   1.612351e+02
  -1.627098e+02   7.265803e+01
  -1.309100e+02  -9.419664e+01
  -1.701089e+01  -1.976789e+02
   8.261592e+01  -1.459196e+02
   1.065997e+02   8.114527e+00
   6.023757e+01   1.203348e+02
  -6.263507e+00   1.066419e+02
  -5.028390e+01   1.907207e+01
  -4.968111e+01  -3.041930e+01
  -2.060145e+01  -6.524571e+00
  -5.026721e+00   1.957780e+01
  -2.864432e+01  -1.833962e+01
  -6.073197e+01  -8.906072e+01
  -3.918926e+01  -1.088640e+02
   5.275311e+01  -4.798337e+01
   1.411507e+02   3.412481e+01
   1.284751e+02   7.039060e+01
   1.872931e+01   5.355342e+01
  -8.435852e+01   2.703893e+01
  -8.811559e+01   7.126912e+00
  -1.606073e+01  -1.103300e+01
   3.602603e+01  -2.360781e+01
   1.860496e+01  -1.495026e+01
  -1.620916e+01   3.939616e+00
   3.991689e+00   6.413761e+00
   7.022518e+01  -1.145378e+00
   9.213007e+01   2.135978e+01
   1.707516e+01   8.185660e+01
  -1.090273e+02   1.198181e+02
  -1.875194e+02   6.727150e+01
  -1.515890e+02  -5.975183e+01
  -3.515983e+01  -1.622558e+02
   7.563451e+01  -1.575956e+02
   1.160031e+02  -6.747346e+01
   8.285521e+01   1.822926e+01
   2.717532e+01   3.766207e+01
   4.069689e-01   1.104845e+01
   1.230543e+01   4.213709e+00
   3.354269e+01   4.563500e+01
   2.440314e+01   9.068070e+01
  -2.620660e+01   7.424284e+01
  -8.123504e+01  -1.421491e+01
  -8.243126e+01  -1.037348e+02
  -1.295001e+01  -1.120755e+02
   7.804417e+01  -3.070885e+01
   1.080114e+02   6.726919e+01
   3.982831e+01   1.029384e+02
  -6.426084e+01   6.327740e+01
  -1.027023e+02  -5.974607e+00
  -4.487871e+01  -5.338307e+01
   3.206665e+01  -5.864082e+01
   3.592700e+01  -2.996058e+01
  -2.963567e+01   5.352652e+00
  -6.976194e+01   9.431662e+00
  -1.832365e+01  -2.694149e+01
   7.651067e+01  -6.865070e+01
   1.173705e+02  -5.844887e+01
   6.729152e+01   1.333688e+01
  -1.274703e+01   8.392127e+01
  -5.314907e+01   8.123780e+01
  -4.051220e+01   9.221001e+00
  -5.493612e+00  -5.324889e+01
   2.368543e+01  -4.536496e+01
   3.716162e+01   1.353800e+01
   2.850128e+01   5.286251e+01
  -2.278702e+00   3.702754e+01
  -3.396075e+01  -5.838881e+00
  -4.177192e+01  -2.436841e+01
  -2.054204e+01  -3.826645e+00
   2.532269e+00   1.694451e+01
   6.277883e+00   2.723641e+00
   2.266460e-01  -3.442567e+01
   7.733375e+00  -5.060040e+01
   2.927676e+01  -1.558355e+01
   3.685043e+01   3.940136e+01
   7.865325e+00   6.048432e+01
  -4.153429e+01   2.417440e+01
  -6.159644e+01  -3.525027e+01
  -1.914363e+01  -6.193699e+01
   5.597536e+01  -3.767021e+01
   9.406669e+01   1.019843e+01
   5.194852e+01   4.321147e+01
  -2.793277e+01   4.581705e+01
  -6.566438e+01   2.697072e+01
  -2.649692e+01   5.723796e+00
   3.367941e+01  -2.200407e+00
   3.542654e+01   1.086941e+01
  -2.687216e+01   3.049770e+01
  -8.508169e+01   2.258954e+01
