
 $NMID
 id='ANONYMOUS ', fmtdat='(2E16.6)'
 volume=1.0
 tramp=1.0
 $END
  -3.803763e+03  -3.138894e+02
  -1.997959e+03  -2.125506e+03
   5.329417e+02  -2.051351e+03
   1.454276e+03  -8.461354e+02
   6.929445e+02   1.294904e+02
  -2.961747e+02   1.205843e+02
  -4.224438e+02  -3.710266e+02
   1.158181e+02  -7.093844e+02
   6.393921e+02  -5.501196e+02
   7.166332e+02   6.529342e+01
   3.739467e+02   6.229591e+02
  -1.609488e+02   6.796849e+02
  -4.237886e+02   6.796047e+01
  -2.137965e+02  -5.727120e+02
   2.568991e+02  -5.853584e+02
   4.927934e+02  -1.933061e+00
   2.275730e+02   5.838655e+02
  -2.394803e+02   6.008276e+02
  -4.913711e+02   1.830116e+02
  -3.852212e+02  -2.419185e+02
  -6.000008e+01  -3.770871e+02
   1.729137e+02  -2.174272e+02
   1.082008e+02  -1.893553e+01
  -2.067433e+02  -1.912578e+01
  -3.603999e+02  -2.599630e+02
  -4.121319e+01  -4.450990e+02
   5.295338e+02  -2.490461e+02
   7.169020e+02   2.224056e+02
   2.453474e+02   4.786868e+02
  -4.156399e+02   2.775004e+02
  -6.130120e+02  -1.716988e+02
  -2.099241e+02  -4.553206e+02
   3.284497e+02  -4.059494e+02
   5.182148e+02  -1.178651e+02
   3.416127e+02   2.193938e+02
   3.455713e+01   3.695003e+02
  -1.237965e+02   1.781619e+02
  -1.440356e+01  -1.876521e+02
   2.188227e+02  -2.702098e+02
   3.264599e+02   1.501624e+02
   6.557862e+01   6.194570e+02
  -3.350914e+02   5.237784e+02
  -4.324298e+02  -5.724572e+01
  -1.105841e+02  -4.245497e+02
   2.566529e+02  -1.630146e+02
   2.344552e+02   3.454619e+02
  -1.488442e+02   4.576417e+02
  -5.074113e+02   5.430794e+01
  -5.126382e+02  -4.196422e+02
  -1.205578e+02  -5.429021e+02
   3.626266e+02  -2.724174e+02
   5.616833e+02   1.088094e+02
   3.210343e+02   3.285484e+02
  -1.172213e+02   2.606205e+02
  -3.397414e+02   4.302460e+01
  -1.985140e+02  -9.405351e+01
   5.172158e+01  -2.325522e+01
   5.662895e+01   1.114387e+02
  -1.602614e+02   9.053832e+01
  -2.689163e+02  -9.178256e+01
  -1.022933e+02  -2.487448e+02
   1.862002e+02  -2.359089e+02
   3.352869e+02  -1.097291e+02
   2.415246e+02   9.803646e+01
  -1.261919e+01   3.013739e+02
  -2.747729e+02   3.637699e+02
  -3.781924e+02   1.729889e+02
  -2.560530e+02  -1.828088e+02
  -3.361063e+01  -3.944977e+02
   8.571776e+01  -3.155473e+02
   4.084159e+01  -1.219449e+02
   1.816444e+00  -6.986258e+01
   1.032360e+02  -1.294353e+02
   2.587335e+02  -8.780104e+01
   2.685506e+02   1.144516e+02
   1.002043e+02   2.859869e+02
  -1.147748e+02   2.164108e+02
  -2.143131e+02  -4.250795e+01
  -1.432079e+02  -2.654373e+02
   5.667461e+01  -2.712792e+02
   2.695249e+02  -6.667961e+01
   3.226421e+02   1.936853e+02
   1.523628e+02   3.266153e+02
  -8.695064e+01   2.685172e+02
  -1.852429e+02   1.222976e+02
  -1.369492e+02   5.055705e+01
  -1.261534e+02   6.989634e+01
  -2.714347e+02   5.458756e+01
  -4.155997e+02  -9.265977e+01
  -3.210280e+02  -3.119137e+02
   2.211153e+01  -4.483452e+02
   3.872665e+02  -3.920895e+02
   4.897628e+02  -1.669521e+02
   3.050112e+02   1.141841e+02
   1.770093e+01   2.755410e+02
  -1.304114e+02   2.076580e+02
  -4.342649e+01   1.719674e+01
   1.279664e+02  -6.706337e+01
   1.622309e+02   4.207837e+01
   7.146451e+00   1.758977e+02
  -1.549842e+02   1.228047e+02
  -1.388165e+02  -7.429759e+01
   4.348695e+01  -1.574951e+02
   1.853811e+02  -1.812203e+00
   1.506098e+02   2.484558e+02
  -3.542897e+01   3.439034e+02
  -2.452358e+02   1.997600e+02
  -3.488366e+02  -6.493403e+01
  -2.770660e+02  -2.674763e+02
  -6.201206e+01  -2.862301e+02
   1.382549e+02  -1.429227e+02
   1.636451e+02   7.818129e+00
   3.621667e+01   3.092833e+01
  -6.513586e+01  -5.956316e+01
  -3.383932e+00  -1.280975e+02
   1.351835e+02  -7.482401e+01
   1.611136e+02   3.634134e+01
   3.252375e+01   7.044430e+01
  -9.158311e+01  -5.601367e+00
  -4.671300e+01  -9.485051e+01
   1.456353e+02  -9.172888e+01
   3.062836e+02   1.756069e+01
   2.660475e+02   1.730686e+02
   3.117401e+01   2.750326e+02
  -2.223459e+02   2.468614e+02
  -2.893438e+02   9.348776e+01
  -1.467083e+02  -6.266033e+01
   3.965257e+01  -9.004890e+01
   7.526645e+01   1.086888e+01
  -5.684249e+01   9.163727e+01
  -1.965980e+02   3.144970e+01
  -1.899203e+02  -1.207287e+02
  -4.762502e+01  -2.021164e+02
   9.924037e+01  -1.382434e+02
   1.325157e+02  -1.147591e+01
   4.966966e+01   4.562158e+01
  -4.329332e+01  -1.302265e+01
  -3.288983e+01  -1.087983e+02
   9.364102e+01  -1.235573e+02
   2.146699e+02  -1.636169e+01
   1.876429e+02   1.416110e+02
   6.552894e+00   2.204757e+02
  -1.682484e+02   1.524105e+02
  -1.813849e+02  -1.544815e+00
  -5.058264e+01  -1.059058e+02
   7.174842e+01  -9.624297e+01
   7.607733e+01  -1.855707e+01
   3.027516e+00   3.023292e+01
  -3.720868e+01   1.211145e+01
   5.502758e+00  -2.138880e+01
   8.421287e+01   1.120028e-01
   1.025364e+02   9.075095e+01
   1.105352e+01   1.751415e+02
  -1.450688e+02   1.524009e+02
  -2.424228e+02   4.322562e+00
  -1.897110e+02  -1.683573e+02
  -2.503376e+01  -2.340528e+02
   1.142848e+02  -1.555442e+02
   1.339113e+02  -2.138402e+01
   6.796922e+01   5.136762e+01
   2.902458e+01   3.101871e+01
   5.413920e+01  -1.313623e+01
   8.422120e+01  -4.676587e+00
   5.216439e+01   5.564091e+01
  -4.003607e+01   1.017213e+02
  -1.193897e+02   6.507136e+01
  -1.049210e+02  -4.386118e+01
   1.533580e+01  -1.286116e+02
   1.620143e+02  -9.045961e+01
   2.076947e+02   6.489619e+01
   8.667145e+01   2.178174e+02
  -1.268371e+02   2.267701e+02
  -2.727750e+02   7.866911e+01
  -2.448153e+02  -1.010071e+02
  -9.253590e+01  -1.773291e+02
   4.715821e+01  -1.393043e+02
   9.384952e+01  -7.542900e+01
   7.234710e+01  -6.427802e+01
   6.060762e+01  -9.016160e+01
   9.221523e+01  -7.754476e+01
   1.324092e+02   2.240661e+01
   1.177974e+02   1.591924e+02
   1.939087e+01   2.291309e+02
  -1.093154e+02   1.662613e+02
  -1.769406e+02   6.204340e+00
  -1.279393e+02  -1.343093e+02
  -7.391115e+00  -1.613399e+02
   7.760599e+01  -8.423041e+01
   6.637142e+01   1.115912e+01
   1.430895e+00   5.255269e+01
  -2.078163e+01   3.779294e+01
   2.905504e+01   1.621022e+01
   8.094141e+01   2.373600e+01
   4.779611e+01   4.422183e+01
  -7.396846e+01   4.259090e+01
  -1.728767e+02  -3.791715e+00
  -1.455802e+02  -6.570511e+01
  -2.319752e+00  -1.015528e+02
   1.351260e+02  -7.271320e+01
   1.488065e+02  -2.344527e+00
   4.395158e+01   5.042706e+01
  -6.053180e+01   4.108711e+01
  -7.771469e+01  -1.980606e+01
  -1.639552e+01  -7.095601e+01
   4.878601e+01  -6.119914e+01
   6.693557e+01  -7.206867e-01
   5.633932e+01   5.072979e+01
   4.728840e+01   4.507140e+01
   5.604446e+01   6.322829e+00
   6.485417e+01   3.669504e+00
   4.063570e+01   7.217101e+01
  -3.316379e+01   1.501504e+02
  -1.276990e+02   1.422378e+02
  -1.784320e+02   3.066415e+01
  -1.277214e+02  -9.705161e+01
  -1.971400e+00  -1.332805e+02
   9.225765e+01  -6.643761e+01
   6.142909e+01   1.277284e+01
  -5.833157e+01   1.959433e+01
  -1.340062e+02  -4.571157e+01
  -7.084507e+01  -1.095635e+02
   8.383237e+01  -1.090629e+02
   1.913273e+02  -4.322769e+01
   1.600873e+02   4.261488e+01
   3.164613e+01   8.808163e+01
  -6.684255e+01   6.363106e+01
  -5.257339e+01   5.610379e-01
   3.932190e+01  -2.953605e+01
   9.207940e+01   2.277717e+01
   3.492598e+01   1.171818e+02
  -8.725718e+01   1.537803e+02
  -1.643067e+02   6.269353e+01
  -1.243169e+02  -9.839073e+01
  -1.011282e+01  -1.944409e+02
   8.681708e+01  -1.397794e+02
   1.046257e+02   1.255185e+01
   5.520836e+01   1.223488e+02
  -1.319945e+01   1.054609e+02
  -5.204546e+01   1.591059e+01
  -4.671405e+01  -3.381704e+01
  -1.863887e+01  -1.008964e+01
  -6.498115e+00   1.813081e+01
  -3.067442e+01  -1.795687e+01
  -5.642673e+01  -9.121084e+01
  -2.913839e+01  -1.093817e+02
   5.823762e+01  -4.247287e+01
   1.359960e+02   4.326573e+01
   1.204997e+02   7.571935e+01
   1.504203e+01   5.448285e+01
  -8.308807e+01   2.323826e+01
  -8.843172e+01   3.571815e+00
  -1.704920e+01  -9.675559e+00
   3.618174e+01  -2.003091e+01
   1.932264e+01  -1.537170e+01
  -1.539156e+01   6.117515e-01
   3.965244e+00   7.002682e+00
   6.852345e+01   5.181191e+00
   9.194515e+01   2.575684e+01
   1.558905e+01   7.982521e+01
  -1.136657e+02   1.132406e+02
  -1.887481e+02   5.960784e+01
  -1.456223e+02  -6.213411e+01
  -2.618149e+01  -1.597328e+02
   8.332397e+01  -1.531647e+02
   1.160197e+02  -6.148288e+01
   7.872118e+01   2.249942e+01
   2.580882e+01   3.823040e+01
   2.848960e+00   1.099506e+01
   1.464389e+01   7.224455e+00
   3.150183e+01   5.014415e+01
   1.559313e+01   9.318428e+01
  -3.319159e+01   7.172724e+01
  -7.952745e+01  -1.955259e+01
  -7.501840e+01  -1.062104e+02
  -7.049968e+00  -1.098473e+02
   7.647905e+01  -2.664474e+01
   1.015636e+02   6.890205e+01
   3.624473e+01   1.017943e+02
  -6.338859e+01   6.028669e+01
  -1.014730e+02  -9.297736e+00
  -4.527740e+01  -5.541606e+01
   3.161539e+01  -5.840107e+01
   3.822605e+01  -2.888540e+01
  -2.651334e+01   1.172586e+00
  -6.678154e+01   5.634022e+00
  -1.676778e+01  -2.726283e+01
   7.913532e+01  -6.353486e+01
   1.212827e+02  -5.132262e+01
   6.994912e+01   1.683768e+01
  -1.403093e+01   8.331838e+01
  -5.587538e+01   8.094147e+01
  -4.245095e+01   1.163056e+01
  -3.793075e+00  -5.206259e+01
   2.423674e+01  -4.542908e+01
   3.495412e+01   1.403511e+01
   2.640415e+01   5.413143e+01
  -1.511047e+00   3.665188e+01
  -3.217017e+01  -7.450518e+00
  -4.019809e+01  -2.472381e+01
  -2.097429e+01  -4.408049e+00
   3.256239e+00   1.739393e+01
   7.599232e+00   5.401230e+00
  -2.488184e-01  -3.071600e+01
   4.842811e+00  -4.662519e+01
   2.554014e+01  -1.702609e+01
   3.613166e+01   3.563558e+01
   8.443152e+00   5.644266e+01
  -4.079812e+01   2.246050e+01
  -5.944982e+01  -3.473374e+01
  -1.636641e+01  -6.039262e+01
   5.644872e+01  -3.379633e+01
   9.022770e+01   1.461130e+01
   4.839691e+01   4.482368e+01
  -2.923526e+01   4.367313e+01
  -6.497901e+01   2.562757e+01
  -2.767556e+01   6.330632e+00
   2.908104e+01   3.947345e-01
   3.190734e+01   1.038599e+01
  -2.692540e+01   2.500147e+01
  -8.085376e+01   1.640321e+01
