
 $NMID
 id='ANONYMOUS ', fmtdat='(2E16.6)'
 volume=1.0
 tramp=1.0
 $END
   3.553333e+03  -1.903918e+02
   2.386978e+03   1.702129e+03
   1.094762e+01   2.171354e+03
  -1.360412e+03   1.341016e+03
  -1.001658e+03   2.210891e+02
  -6.703617e+00  -2.316318e+02
   4.209177e+02   5.766900e+01
   1.182225e+02   5.750602e+02
  -4.335759e+02   6.575755e+02
  -6.960567e+02   1.482507e+02
  -4.834662e+02  -4.923545e+02
  -5.062116e+01  -7.129405e+02
   3.364377e+02  -2.375219e+02
   3.158934e+02   4.287266e+02
  -8.136710e+01   6.066378e+02
  -4.184131e+02   1.455561e+02
  -3.463228e+02  -5.045853e+02
   1.077555e+02  -6.574445e+02
   4.880766e+02  -2.942520e+02
   4.557406e+02   1.778575e+02
   1.432155e+02   3.729201e+02
  -1.183594e+02   2.675347e+02
  -8.159515e+01   9.712688e+01
   1.712195e+02   8.043773e+01
   2.832167e+02   2.491864e+02
   9.707049e+00   3.509950e+02
  -4.501767e+02   1.906501e+02
  -6.198970e+02  -1.479959e+02
  -2.604373e+02  -3.535628e+02
   3.051306e+02  -2.302232e+02
   5.170248e+02   1.025440e+02
   2.197604e+02   3.569918e+02
  -2.404064e+02   3.735316e+02
  -4.602316e+02   1.555760e+02
  -3.447440e+02  -1.408585e+02
  -1.097044e+02  -3.215786e+02
   2.545896e+01  -2.062256e+02
  -9.741032e+00   7.854114e+01
  -1.340630e+02   1.584599e+02
  -2.019081e+02  -1.053712e+02
  -5.795410e+01  -4.825342e+02
   2.091328e+02  -4.800248e+02
   3.339035e+02  -3.814035e+01
   1.642366e+02   3.082978e+02
  -1.378469e+02   1.688011e+02
  -1.951338e+02  -2.477007e+02
   8.387231e+01  -3.948781e+02
   4.434184e+02  -8.504826e+01
   5.113496e+02   3.466075e+02
   1.825123e+02   5.018750e+02
  -2.919169e+02   2.945543e+02
  -5.357538e+02  -3.233524e+01
  -3.657958e+02  -2.487915e+02
   4.178021e+01  -2.543794e+02
   3.023815e+02  -1.138387e+02
   2.352405e+02   2.616263e+01
   5.656767e+00   3.595597e+01
  -6.160287e+01  -4.953976e+01
   9.605195e+01  -7.923223e+01
   2.439151e+02   3.517445e+01
   1.458064e+02   1.987382e+02
  -1.446094e+02   2.575663e+02
  -3.340455e+02   1.441983e+02
  -2.602102e+02  -8.674865e+01
   1.742973e+01  -3.118401e+02
   2.776298e+02  -3.599909e+02
   3.554440e+02  -1.705391e+02
   2.419819e+02   1.588841e+02
   6.691649e+01   3.698346e+02
  -2.525974e+01   3.428864e+02
  -3.198580e+01   1.809438e+02
  -4.463591e+01   1.028386e+02
  -1.388555e+02   1.123320e+02
  -2.479244e+02   5.458788e+01
  -2.467849e+02  -1.158579e+02
  -9.900319e+01  -2.569800e+02
   9.086100e+01  -1.942649e+02
   1.914397e+02   3.965872e+01
   1.431519e+02   2.390426e+02
  -3.847559e+01   2.467757e+02
  -2.387727e+02   6.578527e+01
  -3.123221e+02  -1.628076e+02
  -1.796215e+02  -2.950924e+02
   4.104925e+01  -2.732021e+02
   1.673735e+02  -1.622419e+02
   1.567691e+02  -8.083010e+01
   1.595418e+02  -6.417683e+01
   2.820024e+02  -3.483868e+01
   4.141910e+02   9.431961e+01
   3.251443e+02   2.966579e+02
  -1.347566e+01   4.421507e+02
  -3.832838e+02   4.106878e+02
  -4.904709e+02   1.908802e+02
  -3.018097e+02  -9.422126e+01
  -3.173779e+01  -2.576628e+02
   9.038055e+01  -2.038686e+02
   1.534320e+01  -4.060133e+01
  -1.169400e+02   4.118043e+01
  -1.369776e+02  -3.368559e+01
  -1.635193e+01  -1.445363e+02
   1.179428e+02  -1.127356e+02
   1.168350e+02   5.019375e+01
  -2.511622e+01   1.371029e+02
  -1.652797e+02   2.844812e+00
  -1.567255e+02  -2.407906e+02
   2.309993e+01  -3.524592e+02
   2.488270e+02  -2.109251e+02
   3.617069e+02   6.616248e+01
   2.786215e+02   2.658689e+02
   5.890219e+01   2.739622e+02
  -1.245274e+02   1.359145e+02
  -1.467527e+02   5.136868e+00
  -3.569760e+01  -1.214161e+01
   4.866574e+01   6.375691e+01
  -4.040895e+00   1.157614e+02
  -1.248766e+02   6.968646e+01
  -1.499934e+02  -2.467988e+01
  -3.142465e+01  -5.423878e+01
   8.479753e+01   1.254131e+01
   3.821487e+01   9.540835e+01
  -1.557688e+02   9.084565e+01
  -3.134438e+02  -2.029329e+01
  -2.616253e+02  -1.739563e+02
  -2.513901e+01  -2.674094e+02
   2.095868e+02  -2.389567e+02
   2.665804e+02  -1.003304e+02
   1.364310e+02   4.170972e+01
  -2.820432e+01   7.604542e+01
  -6.151559e+01  -6.582658e+00
   5.400178e+01  -8.220842e+01
   1.858301e+02  -3.722235e+01
   1.888116e+02   1.020407e+02
   5.981423e+01   1.874663e+02
  -8.481990e+01   1.380365e+02
  -1.211821e+02   1.941600e+01
  -4.455036e+01  -3.435526e+01
   4.463345e+01   2.559582e+01
   2.579768e+01   1.152789e+02
  -1.013250e+02   1.224598e+02
  -2.162706e+02   1.348587e+01
  -1.852836e+02  -1.355627e+02
  -1.277342e+01  -2.109080e+02
   1.564157e+02  -1.535948e+02
   1.762633e+02  -1.260591e+01
   5.790096e+01   9.509944e+01
  -5.942075e+01   9.639502e+01
  -6.873779e+01   2.567274e+01
  -1.490466e+00  -2.423861e+01
   3.495950e+01  -6.636669e+00
  -1.225988e+01   2.847212e+01
  -9.314461e+01   1.369882e+00
  -1.075157e+02  -9.614167e+01
  -1.085047e+01  -1.805616e+02
   1.454463e+02  -1.572168e+02
   2.428074e+02  -1.056310e+01
   1.951181e+02   1.607080e+02
   3.774476e+01   2.313138e+02
  -1.009935e+02   1.614811e+02
  -1.306942e+02   3.229467e+01
  -7.486589e+01  -4.363417e+01
  -3.435151e+01  -2.803122e+01
  -5.497006e+01   1.767728e+01
  -9.054252e+01   8.342005e+00
  -5.968360e+01  -6.107726e+01
   4.094123e+01  -1.105817e+02
   1.278267e+02  -6.873829e+01
   1.097816e+02   4.824858e+01
  -1.973980e+01   1.346273e+02
  -1.693743e+02   9.205359e+01
  -2.081566e+02  -6.824329e+01
  -8.243514e+01  -2.168427e+02
   1.268629e+02  -2.244399e+02
   2.691674e+02  -8.197609e+01
   2.434720e+02   9.114791e+01
   9.874178e+01   1.693678e+02
  -3.918729e+01   1.364211e+02
  -8.770484e+01   8.011140e+01
  -7.022992e+01   7.364524e+01
  -5.942425e+01   9.967167e+01
  -9.279691e+01   8.396950e+01
  -1.357103e+02  -1.902598e+01
  -1.250910e+02  -1.593007e+02
  -2.854903e+01  -2.329229e+02
   1.026436e+02  -1.696300e+02
   1.736825e+02  -1.069513e+01
   1.280109e+02   1.291265e+02
   9.685259e+00   1.558698e+02
  -7.393282e+01   8.100619e+01
  -6.061149e+01  -1.351403e+01
   4.397134e+00  -5.282362e+01
   2.568661e+01  -3.626989e+01
  -2.915832e+01  -1.168185e+01
  -8.585693e+01  -1.752212e+01
  -5.006386e+01  -3.938674e+01
   7.522388e+01  -4.083153e+01
   1.767311e+02   3.700345e-01
   1.435577e+02   6.509358e+01
  -1.501400e+00   9.926365e+01
  -1.373264e+02   7.431886e+01
  -1.485699e+02   4.710601e+00
  -4.445379e+01  -5.109473e+01
   6.257157e+01  -4.360821e+01
   8.108187e+01   1.910553e+01
   2.072020e+01   7.594609e+01
  -4.791832e+01   6.772364e+01
  -7.053184e+01   2.573797e+00
  -6.032224e+01  -5.145314e+01
  -4.911616e+01  -4.388972e+01
  -5.850573e+01  -5.838465e-01
  -6.785996e+01  -2.352826e+00
  -4.515334e+01  -7.489656e+01
   2.717498e+01  -1.568714e+02
   1.273064e+02  -1.498696e+02
   1.819355e+02  -3.557442e+01
   1.337096e+02   9.543045e+01
   4.392489e+00   1.356713e+02
  -9.195308e+01   7.072834e+01
  -6.306707e+01  -1.035843e+01
   5.988544e+01  -2.122853e+01
   1.364366e+02   4.257171e+01
   7.255825e+01   1.073290e+02
  -8.399262e+01   1.115584e+02
  -1.918494e+02   4.707587e+01
  -1.583536e+02  -3.752926e+01
  -3.203528e+01  -8.369967e+01
   6.359356e+01  -6.222062e+01
   4.866136e+01   8.066152e-01
  -4.062094e+01   3.257725e+01
  -9.439144e+01  -1.781850e+01
  -4.300146e+01  -1.167553e+02
   7.753992e+01  -1.603157e+02
   1.594743e+02  -7.532165e+01
   1.302504e+02   8.981323e+01
   2.113796e+01   1.921945e+02
  -8.122102e+01   1.444055e+02
  -1.060280e+02  -9.924205e+00
  -5.763779e+01  -1.217007e+02
   1.306526e+01  -1.046352e+02
   5.218944e+01  -1.545356e+01
   4.711233e+01   3.135260e+01
   1.811673e+01   6.834900e+00
   6.768240e+00  -1.668221e+01
   3.078511e+01   2.284762e+01
   5.886484e+01   9.218484e+01
   3.302571e+01   1.060347e+02
  -5.656385e+01   4.310605e+01
  -1.387889e+02  -3.640733e+01
  -1.244730e+02  -6.888392e+01
  -1.795190e+01  -5.372573e+01
   8.164293e+01  -2.795537e+01
   8.763198e+01  -7.475011e+00
   1.838259e+01   1.162370e+01
  -3.279212e+01   2.322448e+01
  -1.798335e+01   1.467182e+01
   1.488691e+01  -3.184610e+00
  -3.831773e+00  -5.131264e+00
  -6.832367e+01   3.824604e+00
  -9.523942e+01  -1.978019e+01
  -2.284270e+01  -8.216848e+01
   1.057933e+02  -1.219812e+02
   1.876127e+02  -7.089675e+01
   1.553332e+02   5.589072e+01
   3.527010e+01   1.630039e+02
  -7.916336e+01   1.606601e+02
  -1.185816e+02   6.831478e+01
  -8.322706e+01  -1.946811e+01
  -2.765068e+01  -3.799198e+01
  -2.482086e+00  -1.299263e+01
  -1.408507e+01  -8.327358e+00
  -3.187902e+01  -4.938534e+01
  -2.137403e+01  -9.232858e+01
   2.836703e+01  -7.332316e+01
   8.152259e+01   1.365797e+01
   8.401441e+01   1.019548e+02
   1.617132e+01   1.114298e+02
  -7.725514e+01   3.486904e+01
  -1.111633e+02  -6.360228e+01
  -4.293002e+01  -1.052146e+02
   6.507642e+01  -6.825368e+01
   1.067887e+02   6.116716e+00
   4.787988e+01   5.905591e+01
  -3.404241e+01   6.466657e+01
  -4.116066e+01   2.946827e+01
   2.505477e+01  -8.724519e+00
   6.890251e+01  -1.169221e+01
   2.048107e+01   2.875876e+01
  -7.742011e+01   7.040127e+01
  -1.218127e+02   5.604996e+01
  -7.243988e+01  -1.614461e+01
   1.095174e+01  -8.698874e+01
   5.686263e+01  -8.571150e+01
   4.546352e+01  -1.343806e+01
   8.106901e+00   5.394506e+01
  -2.411416e+01   4.998926e+01
  -3.966724e+01  -1.058630e+01
  -3.012436e+01  -5.515244e+01
   8.837165e-01  -4.130471e+01
   3.522071e+01   4.756038e+00
   4.336204e+01   2.614642e+01
   1.974777e+01   5.022809e+00
  -4.912451e+00  -2.089330e+01
  -6.876588e+00  -8.570514e+00
   4.955673e+00   3.148449e+01
  -7.902559e-01   5.448286e+01
  -2.745449e+01   2.314542e+01
  -4.241131e+01  -3.458088e+01
  -1.414703e+01  -6.006404e+01
   4.105656e+01  -2.704672e+01
   6.454070e+01   3.309710e+01
   2.121629e+01   6.149033e+01
  -5.754690e+01   3.965879e+01
  -9.538354e+01  -8.183498e+00
  -5.262824e+01  -4.229675e+01
   2.730171e+01  -4.796704e+01
   6.569577e+01  -3.088463e+01
   3.048867e+01  -7.388062e+00
  -2.848439e+01   5.541297e+00
  -3.522746e+01  -4.980092e+00
   2.235714e+01  -2.737555e+01
   7.902011e+01  -2.450033e+01
