
 $NMID
 id='ANONYMOUS ', fmtdat='(2E16.6)'
 volume=1.0
 tramp=1.0
 $END
  -3.888087e+03  -1.052796e+02
  -2.277191e+03  -2.346931e+03
   5.537043e+02  -2.406736e+03
   1.782084e+03  -8.679209e+02
   8.454863e+02   3.764703e+02
  -4.415658e+02   3.650146e+02
  -6.721308e+02  -3.764288e+02
   5.034816e+01  -8.650875e+02
   7.241675e+02  -6.633088e+02
   8.431686e+02   8.191856e+01
   4.090901e+02   7.368486e+02
  -1.984577e+02   8.052319e+02
  -5.423737e+02   1.102238e+02
  -3.154758e+02  -6.488204e+02
   2.531356e+02  -6.761312e+02
   5.444821e+02  -2.216497e+01
   2.717915e+02   6.364054e+02
  -2.694774e+02   6.453817e+02
  -5.471425e+02   1.566651e+02
  -4.069662e+02  -2.879489e+02
  -5.502471e+01  -4.142118e+02
   2.024413e+02  -2.490341e+02
   1.500607e+02  -2.527288e+01
  -1.718908e+02   2.569655e+01
  -3.879392e+02  -1.995162e+02
  -1.101729e+02  -4.511127e+02
   5.163359e+02  -3.376624e+02
   8.033606e+02   1.585211e+02
   3.384612e+02   5.321757e+02
  -4.217701e+02   3.867641e+02
  -6.848132e+02  -1.135251e+02
  -2.691275e+02  -4.824045e+02
   3.216980e+02  -4.676028e+02
   5.568696e+02  -1.500488e+02
   3.810717e+02   2.390204e+02
   4.717330e+01   4.286375e+02
  -1.615578e+02   2.363211e+02
  -8.321642e+01  -1.949691e+02
   1.849910e+02  -3.288930e+02
   3.724915e+02   9.730065e+01
   1.328212e+02   6.567032e+02
  -3.414530e+02   6.042958e+02
  -5.078600e+02  -3.478720e+01
  -1.652462e+02  -4.975723e+02
   2.827404e+02  -2.389950e+02
   3.010533e+02   3.397416e+02
  -1.137829e+02   5.111184e+02
  -5.359742e+02   9.934447e+01
  -5.568342e+02  -4.226763e+02
  -1.458179e+02  -5.763135e+02
   3.770046e+02  -3.158141e+02
   6.045925e+02   9.268297e+01
   3.516666e+02   3.628031e+02
  -1.398618e+02   3.108666e+02
  -3.926918e+02   3.992426e+01
  -2.119128e+02  -1.441926e+02
   9.223304e+01  -5.285863e+01
   1.017547e+02   1.382771e+02
  -1.602179e+02   1.425630e+02
  -3.123285e+02  -8.465587e+01
  -1.320067e+02  -2.724334e+02
   1.980210e+02  -2.521364e+02
   3.362863e+02  -9.419168e+01
   2.290601e+02   9.453829e+01
  -1.181836e+01   2.655963e+02
  -2.505542e+02   3.566712e+02
  -3.690396e+02   1.983039e+02
  -2.767602e+02  -1.692365e+02
  -6.158490e+01  -4.102284e+02
   8.745097e+01  -3.442009e+02
   6.505810e+01  -1.206647e+02
   1.292407e+01  -4.378906e+01
   8.573486e+01  -1.169617e+02
   2.376516e+02  -1.065581e+02
   2.791435e+02   9.239626e+01
   1.309985e+02   2.822232e+02
  -9.670491e+01   2.434569e+02
  -2.235821e+02  -1.482176e+01
  -1.727717e+02  -2.521847e+02
   3.387633e+01  -2.848455e+02
   2.692565e+02  -9.287363e+01
   3.466512e+02   1.830500e+02
   1.751234e+02   3.444186e+02
  -9.217436e+01   2.917215e+02
  -2.041905e+02   1.216892e+02
  -1.439598e+02   3.254776e+01
  -1.189341e+02   6.173695e+01
  -2.650419e+02   6.156764e+01
  -4.228772e+02  -8.368344e+01
  -3.296690e+02  -3.112460e+02
   1.374566e+01  -4.561125e+02
   3.831806e+02  -4.143657e+02
   5.017418e+02  -1.776912e+02
   3.270706e+02   1.186510e+02
   3.335961e+01   2.905809e+02
  -1.306864e+02   2.303707e+02
  -6.245751e+01   2.135017e+01
   1.165267e+02  -8.307429e+01
   1.751556e+02   2.981735e+01
   2.724489e+01   1.865511e+02
  -1.559090e+02   1.446137e+02
  -1.587516e+02  -6.830503e+01
   3.076658e+01  -1.746804e+02
   1.925463e+02  -1.592580e+01
   1.606251e+02   2.501776e+02
  -3.198388e+01   3.549352e+02
  -2.463416e+02   2.065526e+02
  -3.493246e+02  -6.207825e+01
  -2.854715e+02  -2.610583e+02
  -8.021525e+01  -2.819669e+02
   1.300005e+02  -1.574007e+02
   1.724214e+02  -4.302729e+00
   4.544486e+01   3.380258e+01
  -6.458540e+01  -4.888406e+01
  -1.201226e+01  -1.279404e+02
   1.340286e+02  -8.735419e+01
   1.716170e+02   2.719258e+01
   4.481327e+01   7.264294e+01
  -8.692014e+01   5.444831e+00
  -5.130932e+01  -8.809680e+01
   1.355278e+02  -9.159515e+01
   2.966173e+02   1.413855e+01
   2.669872e+02   1.654502e+02
   4.346304e+01   2.746959e+02
  -2.097499e+02   2.570463e+02
  -2.955869e+02   1.070546e+02
  -1.632746e+02  -6.078678e+01
   3.462190e+01  -1.019931e+02
   8.640621e+01   2.189117e+00
  -4.538345e+01   9.857708e+01
  -1.991711e+02   4.617890e+01
  -2.068922e+02  -1.113934e+02
  -5.887390e+01  -2.098142e+02
   1.006866e+02  -1.520515e+02
   1.416190e+02  -1.969251e+01
   5.818459e+01   4.761527e+01
  -4.060227e+01  -4.246652e+00
  -3.664582e+01  -1.010317e+02
   8.843303e+01  -1.255336e+02
   2.153184e+02  -2.174370e+01
   1.945231e+02   1.394848e+02
   1.236852e+01   2.273794e+02
  -1.718568e+02   1.608235e+02
  -1.910655e+02   2.731022e-01
  -5.849186e+01  -1.137133e+02
   6.986326e+01  -1.048108e+02
   8.053364e+01  -2.307171e+01
   1.099795e+01   2.963366e+01
  -2.975706e+01   1.597168e+01
   7.215549e+00  -1.484123e+01
   7.641110e+01   3.662406e+00
   9.526824e+01   8.656779e+01
   1.194811e+01   1.700690e+02
  -1.399788e+02   1.567057e+02
  -2.465011e+02   1.515827e+01
  -2.026528e+02  -1.674303e+02
  -3.422701e+01  -2.469975e+02
   1.165897e+02  -1.709394e+02
   1.417318e+02  -2.596965e+01
   7.305304e+01   5.645676e+01
   3.053950e+01   3.518957e+01
   5.321376e+01  -1.265686e+01
   8.423658e+01  -6.339391e+00
   5.014804e+01   5.589133e+01
  -4.199452e+01   9.929403e+01
  -1.145281e+02   6.272396e+01
  -9.980962e+01  -4.143587e+01
   1.351280e+01  -1.259625e+02
   1.560929e+02  -9.298485e+01
   2.092407e+02   5.970807e+01
   9.831430e+01   2.170193e+02
  -1.207903e+02   2.342508e+02
  -2.797048e+02   8.997545e+01
  -2.610689e+02  -9.753747e+01
  -1.050423e+02  -1.831730e+02
   4.390486e+01  -1.483890e+02
   9.659737e+01  -8.271676e+01
   7.708823e+01  -7.128812e+01
   6.382761e+01  -9.506461e+01
   9.504597e+01  -7.833806e+01
   1.357797e+02   2.169072e+01
   1.223565e+02   1.595848e+02
   2.624465e+01   2.340148e+02
  -1.079708e+02   1.760364e+02
  -1.837115e+02   1.215137e+01
  -1.345712e+02  -1.360801e+02
  -9.273687e+00  -1.666340e+02
   7.940828e+01  -8.706913e+01
   6.799745e+01   1.077346e+01
   3.473259e+00   5.217901e+01
  -1.745542e+01   3.839903e+01
   3.184905e+01   1.781652e+01
   8.066097e+01   2.236356e+01
   4.595292e+01   4.207809e+01
  -7.168416e+01   4.088126e+01
  -1.711873e+02  -1.260557e+00
  -1.470488e+02  -6.273075e+01
  -7.572311e+00  -1.016285e+02
   1.318454e+02  -7.814214e+01
   1.510455e+02  -6.893125e+00
   4.776050e+01   5.066450e+01
  -6.109885e+01   4.254695e+01
  -7.854654e+01  -2.084275e+01
  -1.174270e+01  -7.183226e+01
   5.281364e+01  -6.047521e+01
   6.660925e+01   8.594723e-01
   5.235998e+01   5.047911e+01
   4.608614e+01   4.247423e+01
   5.854583e+01   1.945682e+00
   6.781535e+01   1.969845e+00
   4.089593e+01   7.053032e+01
  -3.140002e+01   1.511338e+02
  -1.246212e+02   1.456198e+02
  -1.758558e+02   3.374529e+01
  -1.293236e+02  -9.639140e+01
  -4.812666e+00  -1.345585e+02
   9.013584e+01  -6.821706e+01
   6.199640e+01   1.478614e+01
  -5.975998e+01   2.368458e+01
  -1.395024e+02  -4.399024e+01
  -7.741161e+01  -1.122467e+02
   8.287839e+01  -1.177765e+02
   1.957050e+02  -5.123896e+01
   1.665168e+02   3.825976e+01
   3.519651e+01   9.047748e+01
  -6.584855e+01   6.760768e+01
  -5.098453e+01   1.974623e+00
   4.160498e+01  -3.008183e+01
   9.463074e+01   2.358294e+01
   3.466189e+01   1.208195e+02
  -9.172756e+01   1.565896e+02
  -1.669350e+02   6.191307e+01
  -1.255285e+02  -1.012995e+02
  -1.018158e+01  -1.973094e+02
   8.678711e+01  -1.429631e+02
   1.079216e+02   1.010184e+01
   5.970126e+01   1.238581e+02
  -8.099608e+00   1.085844e+02
  -5.118877e+01   1.842200e+01
  -4.915119e+01  -3.475759e+01
  -2.087193e+01  -9.433849e+00
  -6.382329e+00   2.028424e+01
  -3.058419e+01  -1.648023e+01
  -5.873083e+01  -9.007077e+01
  -3.520969e+01  -1.124273e+02
   5.591907e+01  -4.629819e+01
   1.387917e+02   4.172145e+01
   1.239743e+02   7.502956e+01
   1.531663e+01   5.404193e+01
  -8.551605e+01   2.228526e+01
  -8.950213e+01   4.161477e+00
  -1.538035e+01  -9.373266e+00
   3.865059e+01  -2.082190e+01
   1.916590e+01  -1.620347e+01
  -1.838907e+01   2.539207e+00
   2.385823e+00   8.791333e+00
   6.902496e+01   5.372061e+00
   9.187920e+01   2.557982e+01
   1.383430e+01   8.081895e+01
  -1.169561e+02   1.140480e+02
  -1.902045e+02   6.105389e+01
  -1.475827e+02  -6.511645e+01
  -2.606112e+01  -1.620924e+02
   8.215061e+01  -1.544800e+02
   1.169039e+02  -6.220184e+01
   8.154138e+01   2.390395e+01
   2.610348e+01   4.031981e+01
   8.189905e-03   1.088976e+01
   1.203002e+01   5.038663e+00
   3.141963e+01   4.749508e+01
   1.856837e+01   9.272533e+01
  -3.166165e+01   7.376603e+01
  -8.133046e+01  -1.807442e+01
  -7.734636e+01  -1.080731e+02
  -5.757567e+00  -1.127065e+02
   8.141653e+01  -2.555907e+01
   1.047195e+02   7.376548e+01
   3.473726e+01   1.055863e+02
  -6.723605e+01   6.023654e+01
  -1.025940e+02  -1.036194e+01
  -4.376591e+01  -5.470442e+01
   3.345920e+01  -5.642031e+01
   3.622700e+01  -2.846042e+01
  -2.971516e+01   9.643413e-01
  -6.805863e+01   5.478504e+00
  -1.715239e+01  -2.720115e+01
   7.874284e+01  -6.598324e+01
   1.193838e+02  -5.516569e+01
   6.906523e+01   1.606167e+01
  -1.436448e+01   8.520577e+01
  -5.575645e+01   8.246483e+01
  -4.031699e+01   9.693357e+00
  -1.907062e+00  -5.472567e+01
   2.623175e+01  -4.520055e+01
   3.563112e+01   1.612899e+01
   2.662583e+01   5.452701e+01
  -2.007399e+00   3.596804e+01
  -3.301616e+01  -7.921251e+00
  -4.027500e+01  -2.281530e+01
  -2.049856e+01  -1.674353e+00
   1.741041e+00   1.765901e+01
   6.159330e+00   2.093267e+00
   2.181199e+00  -3.431482e+01
   9.139802e+00  -4.649011e+01
   2.865280e+01  -1.368703e+01
   3.412075e+01   3.939807e+01
   3.276562e+00   5.969942e+01
  -4.332279e+01   2.242008e+01
  -5.905440e+01  -3.637532e+01
  -1.724335e+01  -6.286950e+01
   5.670649e+01  -3.716737e+01
   9.215209e+01   1.273952e+01
   5.189730e+01   4.449222e+01
  -2.674945e+01   4.465518e+01
  -6.486550e+01   2.525310e+01
  -2.754727e+01   6.372483e+00
   3.171938e+01   5.428788e-01
   3.435464e+01   1.293172e+01
  -2.847156e+01   2.893886e+01
  -8.623265e+01   1.842426e+01
