
 $NMID
 id='ANONYMOUS ', fmtdat='(2E16.6)'
 volume=1.0
 tramp=1.0
 $END
   2.384106e+03  -2.517893e+02
   1.876155e+03   9.387029e+02
   2.935835e+02   1.622525e+03
  -8.524605e+02   1.226751e+03
  -8.888380e+02   3.515248e+02
  -1.943894e+02  -2.017049e+02
   2.712108e+02  -1.024993e+02
   1.493974e+02   3.254891e+02
  -1.852821e+02   4.892386e+02
  -4.398213e+02   1.962944e+02
  -3.645693e+02  -2.740821e+02
  -1.455601e+02  -4.891980e+02
   1.444549e+02  -2.488782e+02
   2.349122e+02   2.166945e+02
   4.007090e+01   4.086880e+02
  -2.180410e+02   1.589181e+02
  -2.778041e+02  -2.898880e+02
   5.691890e+00  -4.813290e+02
   3.333017e+02  -2.775411e+02
   3.699592e+02   7.241623e+01
   1.596128e+02   2.613221e+02
  -3.928932e+01   2.148062e+02
  -2.891209e+01   1.298004e+02
   1.035105e+02   1.298101e+02
   1.464161e+02   1.954911e+02
  -3.334479e+01   1.951394e+02
  -2.983921e+02   7.660403e+01
  -3.873173e+02  -8.469821e+01
  -1.807519e+02  -1.628344e+02
   1.497317e+02  -1.128882e+02
   3.082768e+02   4.031812e+01
   1.426167e+02   1.891538e+02
  -1.337902e+02   2.306426e+02
  -2.760747e+02   1.242655e+02
  -2.264507e+02  -5.429296e+01
  -1.166269e+02  -1.847544e+02
  -5.158143e+01  -1.550174e+02
  -4.743094e+01  -1.153407e+01
  -6.524273e+01   3.437048e+01
  -5.566148e+01  -6.313219e+01
  -1.269863e+01  -2.578694e+02
   7.826149e+01  -2.830027e+02
   1.599277e+02  -6.668808e+01
   1.202743e+02   1.336484e+02
  -2.052041e+01   8.878961e+01
  -7.760594e+01  -1.350708e+02
   4.543824e+01  -2.250900e+02
   2.701867e+02  -4.659028e+01
   3.352942e+02   2.232970e+02
   1.467597e+02   3.216057e+02
  -1.652364e+02   1.970594e+02
  -3.503315e+02   1.242364e+00
  -2.781655e+02  -1.271354e+02
  -2.801067e+01  -1.567022e+02
   1.791109e+02  -1.139582e+02
   1.993148e+02  -3.176746e+01
   6.057747e+01   2.339592e+01
  -3.349139e+01   8.589099e+00
   3.293427e+01  -2.465814e+01
   1.475773e+02   1.250499e+01
   1.154723e+02   1.124246e+02
  -9.081084e+01   1.870411e+02
  -2.526043e+02   1.120918e+02
  -1.986706e+02  -7.068504e+01
   2.419460e+01  -2.355045e+02
   2.210674e+02  -2.588839e+02
   2.475393e+02  -1.168157e+02
   1.589577e+02   9.645063e+01
   6.041239e+01   2.412677e+02
   1.893067e+01   2.500184e+02
  -1.049905e+00   1.690556e+02
  -4.893746e+01   1.043025e+02
  -1.302482e+02   7.126511e+01
  -1.854810e+02   1.683585e+01
  -1.606344e+02  -9.286726e+01
  -5.842081e+01  -1.724631e+02
   5.891763e+01  -1.225789e+02
   1.188428e+02   3.370831e+01
   8.617368e+01   1.642542e+02
  -3.229401e+01   1.595023e+02
  -1.600687e+02   3.344024e+01
  -2.073862e+02  -1.125491e+02
  -1.304111e+02  -1.954929e+02
   7.724049e+00  -1.887249e+02
   1.053725e+02  -1.347711e+02
   1.199828e+02  -8.233175e+01
   1.382114e+02  -4.887112e+01
   2.137183e+02  -8.715346e+00
   2.877744e+02   7.963416e+01
   2.240327e+02   2.092437e+02
  -1.471431e+01   3.018665e+02
  -2.716753e+02   2.876835e+02
  -3.405697e+02   1.327371e+02
  -1.991982e+02  -5.791904e+01
  -2.107107e+01  -1.612123e+02
   4.343554e+01  -1.404747e+02
  -8.431958e+00  -4.653526e+01
  -7.560282e+01   7.696785e+00
  -7.019301e+01  -1.652008e+01
  -4.134623e+00  -7.754451e+01
   6.069146e+01  -6.789919e+01
   6.461759e+01   1.932158e+01
  -5.633538e+00   7.912848e+01
  -9.837639e+01   5.690010e+00
  -1.138282e+02  -1.595145e+02
   1.379220e+00  -2.515808e+02
   1.719747e+02  -1.556173e+02
   2.637724e+02   4.591826e+01
   2.071770e+02   1.911405e+02
   4.835303e+01   1.891405e+02
  -8.275870e+01   9.483512e+01
  -9.980020e+01   1.416194e+01
  -3.104958e+01   6.821287e+00
   1.994315e+01   4.929182e+01
  -8.873070e+00   7.095841e+01
  -8.204651e+01   3.872858e+01
  -9.679964e+01  -1.348880e+01
  -2.208430e+01  -2.564695e+01
   5.170338e+01   1.803269e+01
   1.846374e+01   6.709612e+01
  -1.158503e+02   5.535001e+01
  -2.201198e+02  -2.779394e+01
  -1.810798e+02  -1.285389e+02
  -1.213816e+01  -1.834408e+02
   1.480746e+02  -1.586021e+02
   1.814919e+02  -6.993409e+01
   9.009228e+01   1.842987e+01
  -1.718305e+01   4.306299e+01
  -3.670568e+01  -3.277269e+00
   4.190237e+01  -4.717643e+01
   1.266526e+02  -1.896468e+01
   1.326261e+02   6.719605e+01
   4.425750e+01   1.235142e+02
  -5.387034e+01   9.320994e+01
  -8.109593e+01   1.736197e+01
  -2.961054e+01  -1.392611e+01
   2.989827e+01   2.745181e+01
   1.047661e+01   8.516569e+01
  -7.920163e+01   8.112422e+01
  -1.541525e+02   1.137149e+00
  -1.259491e+02  -9.769073e+01
  -6.939132e+00  -1.433502e+02
   1.055538e+02  -1.064141e+02
   1.187749e+02  -1.493785e+01
   4.202755e+01   5.931325e+01
  -3.659783e+01   6.560249e+01
  -4.339381e+01   2.047747e+01
   2.794535e+00  -1.169782e+01
   2.598909e+01   6.110943e-01
  -1.240315e+01   2.206365e+01
  -7.320762e+01  -1.201464e+00
  -8.011471e+01  -7.528630e+01
  -2.683603e+00  -1.340990e+02
   1.112019e+02  -1.108582e+02
   1.751712e+02  -2.361922e+00
   1.379927e+02   1.169049e+02
   2.875523e+01   1.643423e+02
  -6.520599e+01   1.182258e+02
  -9.004084e+01   2.914866e+01
  -5.619266e+01  -2.709317e+01
  -3.082080e+01  -1.981760e+01
  -4.710474e+01   1.044689e+01
  -7.120703e+01   5.270326e+00
  -4.356646e+01  -4.765752e+01
   3.525377e+01  -8.486885e+01
   1.009114e+02  -4.971107e+01
   8.149696e+01   3.987234e+01
  -2.003660e+01   1.010269e+02
  -1.279106e+02   6.262415e+01
  -1.491561e+02  -5.456674e+01
  -5.487069e+01  -1.553924e+02
   9.319479e+01  -1.561707e+02
   1.910653e+02  -5.674123e+01
   1.767133e+02   6.095330e+01
   7.569952e+01   1.141713e+02
  -2.227700e+01   9.690115e+01
  -5.869874e+01   5.995523e+01
  -4.520638e+01   5.813740e+01
  -3.993890e+01   7.731236e+01
  -6.700331e+01   6.496840e+01
  -9.860271e+01  -1.171262e+01
  -8.976410e+01  -1.133418e+02
  -2.201694e+01  -1.664427e+02
   6.821283e+01  -1.221648e+02
   1.180968e+02  -9.217317e+00
   8.825777e+01   8.958360e+01
   6.974622e+00   1.076582e+02
  -5.003554e+01   5.360830e+01
  -3.958808e+01  -1.295705e+01
   8.114554e+00  -3.865983e+01
   2.225751e+01  -2.351369e+01
  -2.102315e+01  -5.699880e+00
  -6.567652e+01  -1.046214e+01
  -4.028332e+01  -2.798038e+01
   5.483905e+01  -2.823858e+01
   1.302991e+02   3.044530e+00
   1.077944e+02   4.623624e+01
  -2.031209e+00   6.802566e+01
  -9.987946e+01   5.069832e+01
  -1.064875e+02   4.843592e+00
  -3.020697e+01  -3.254554e+01
   4.551435e+01  -3.038083e+01
   5.839753e+01   1.335928e+01
   1.548989e+01   5.602165e+01
  -3.270254e+01   5.315613e+01
  -5.280671e+01   4.111227e+00
  -4.941683e+01  -3.754100e+01
  -4.097509e+01  -3.409125e+01
  -4.319478e+01  -9.032308e-01
  -4.933179e+01  -2.057992e-01
  -3.457628e+01  -5.586787e+01
   2.012659e+01  -1.168294e+02
   9.510483e+01  -1.092201e+02
   1.356502e+02  -2.406245e+01
   9.834631e+01   7.014235e+01
   9.249923e-01   9.824325e+01
  -6.820200e+01   5.230460e+01
  -4.602262e+01  -4.331286e+00
   4.440296e+01  -1.157222e+01
   9.931340e+01   3.051632e+01
   5.058251e+01   7.529644e+01
  -6.270914e+01   7.573137e+01
  -1.370329e+02   3.051079e+01
  -1.098929e+02  -2.495710e+01
  -2.105442e+01  -5.611314e+01
   4.367397e+01  -4.238782e+01
   3.177742e+01  -5.740587e-01
  -3.114901e+01   2.114790e+01
  -6.739794e+01  -1.270879e+01
  -3.104134e+01  -8.276471e+01
   5.311835e+01  -1.171525e+02
   1.118224e+02  -5.961914e+01
   9.518699e+01   5.996956e+01
   2.142940e+01   1.399358e+02
  -5.366068e+01   1.070175e+02
  -7.462307e+01  -6.821251e+00
  -4.084755e+01  -8.686684e+01
   1.068493e+01  -7.184113e+01
   3.805305e+01  -7.413284e+00
   3.283139e+01   2.248959e+01
   1.226563e+01   1.135243e+00
   4.580357e+00  -1.248782e+01
   2.260654e+01   2.150138e+01
   4.333517e+01   6.881954e+01
   2.451903e+01   7.362245e+01
  -3.922952e+01   2.802966e+01
  -9.908116e+01  -2.523172e+01
  -9.199462e+01  -4.302737e+01
  -1.631773e+01  -3.737704e+01
   5.717060e+01  -2.143974e+01
   6.134019e+01  -5.823558e+00
   1.402781e+01   8.766818e+00
  -2.319683e+01   1.637156e+01
  -1.443821e+01   9.396754e+00
   9.521052e+00  -4.894642e+00
  -2.791959e+00  -4.206642e+00
  -4.846790e+01   3.027463e+00
  -6.918501e+01  -1.269969e+01
  -1.884866e+01  -5.930986e+01
   7.551541e+01  -9.075998e+01
   1.389729e+02  -5.451652e+01
   1.184140e+02   3.882843e+01
   2.860795e+01   1.185913e+02
  -5.780445e+01   1.181468e+02
  -8.789992e+01   5.397416e+01
  -6.171391e+01  -1.153487e+01
  -2.103094e+01  -2.785655e+01
  -1.804533e+00  -1.227627e+01
  -8.197331e+00  -9.313260e+00
  -2.054355e+01  -3.665516e+01
  -1.417280e+01  -6.506360e+01
   1.805659e+01  -5.261792e+01
   5.636928e+01   8.449199e+00
   6.347433e+01   7.178038e+01
   1.625589e+01   8.185215e+01
  -5.383403e+01   2.899226e+01
  -8.275031e+01  -4.382027e+01
  -3.492473e+01  -7.652238e+01
   4.618869e+01  -5.233286e+01
   7.873955e+01   2.564254e+00
   3.490366e+01   4.321417e+01
  -2.533806e+01   4.818526e+01
  -2.880650e+01   2.265993e+01
   2.026708e+01  -5.932614e+00
   4.975814e+01  -9.430644e+00
   1.256071e+01   1.886845e+01
  -5.628336e+01   5.022386e+01
  -8.604192e+01   4.335905e+01
  -5.110360e+01  -8.494608e+00
   6.247521e+00  -6.338459e+01
   3.878325e+01  -6.513919e+01
   3.424908e+01  -1.303144e+01
   9.988081e+00   3.812160e+01
  -1.432936e+01   3.923881e+01
  -2.882792e+01  -4.146780e+00
  -2.453624e+01  -3.902601e+01
  -1.588491e+00  -3.156826e+01
   2.545782e+01   1.947053e+00
   3.274452e+01   1.878213e+01
   1.566071e+01   3.532397e+00
  -2.991139e+00  -1.572057e+01
  -4.070792e+00  -6.256387e+00
   5.754576e+00   2.504633e+01
   4.825743e-01   4.332804e+01
  -2.244898e+01   1.888670e+01
  -3.443764e+01  -2.588899e+01
  -1.272253e+01  -4.572695e+01
   2.923770e+01  -2.169152e+01
   4.922964e+01   2.216262e+01
   1.753544e+01   4.358265e+01
  -4.077060e+01   2.727255e+01
  -6.974739e+01  -5.533646e+00
  -3.958892e+01  -2.899821e+01
   1.963681e+01  -3.430653e+01
   4.893967e+01  -2.416410e+01
   2.307243e+01  -6.914453e+00
  -1.984608e+01   5.188667e+00
  -2.617812e+01  -6.103153e-02
   1.336518e+01  -1.807500e+01
   5.467387e+01  -2.107357e+01
