
 $NMID
 id='ANONYMOUS ', fmtdat='(2E16.6)'
 volume=1.0
 tramp=1.0
 $END
  -4.018291e+03  -5.826239e+01
  -2.254569e+03  -2.352632e+03
   6.535652e+02  -2.504479e+03
   1.818737e+03  -8.679510e+02
   8.107785e+02   4.348067e+02
  -5.585105e+02   3.549904e+02
  -7.124845e+02  -4.500045e+02
   5.552129e+01  -9.259597e+02
   7.678282e+02  -6.759487e+02
   8.343745e+02   9.521616e+01
   4.359068e+02   7.497809e+02
  -2.162260e+02   7.846040e+02
  -5.515472e+02   8.321788e+01
  -3.078080e+02  -6.513799e+02
   2.677457e+02  -6.694814e+02
   5.832887e+02   1.134702e+01
   2.616881e+02   6.371976e+02
  -2.831257e+02   6.265005e+02
  -5.413315e+02   1.362943e+02
  -3.903744e+02  -3.024563e+02
  -3.927060e+01  -4.056368e+02
   2.170170e+02  -2.443694e+02
   1.792322e+02   1.093987e+00
  -1.645432e+02   6.451076e+01
  -4.188779e+02  -1.643961e+02
  -1.506119e+02  -4.545209e+02
   4.939116e+02  -3.582714e+02
   8.033186e+02   1.246717e+02
   3.501585e+02   5.203533e+02
  -4.152447e+02   4.079370e+02
  -7.025879e+02  -8.730253e+01
  -2.947838e+02  -4.814426e+02
   3.030918e+02  -4.820158e+02
   5.486812e+02  -1.780952e+02
   3.875152e+02   2.310896e+02
   5.393228e+01   4.356080e+02
  -1.756480e+02   2.353753e+02
  -1.041842e+02  -2.294335e+02
   1.967745e+02  -4.036298e+02
   4.096237e+02   7.502981e+01
   1.677429e+02   6.613659e+02
  -3.389043e+02   6.240261e+02
  -5.336894e+02  -3.403333e+01
  -1.778126e+02  -5.214751e+02
   2.977599e+02  -2.538634e+02
   3.443758e+02   3.456108e+02
  -9.935464e+01   5.365863e+02
  -5.465552e+02   1.260863e+02
  -5.781449e+02  -4.067192e+02
  -1.606079e+02  -5.714025e+02
   3.723536e+02  -3.241461e+02
   6.037169e+02   8.310303e+01
   3.528460e+02   3.526212e+02
  -1.370547e+02   3.111673e+02
  -3.935652e+02   4.810870e+01
  -2.119570e+02  -1.465925e+02
   9.664808e+01  -6.362175e+01
   1.155182e+02   1.410046e+02
  -1.664923e+02   1.564073e+02
  -3.223693e+02  -6.878348e+01
  -1.328286e+02  -2.702935e+02
   1.838794e+02  -2.499364e+02
   3.272093e+02  -1.060233e+02
   2.245643e+02   8.212718e+01
  -9.447616e+00   2.604418e+02
  -2.383569e+02   3.600578e+02
  -3.645852e+02   2.069030e+02
  -2.792283e+02  -1.539911e+02
  -6.562261e+01  -4.150694e+02
   9.684183e+01  -3.443093e+02
   7.761955e+01  -1.147830e+02
   7.976507e+00  -2.660028e+01
   6.035594e+01  -1.147444e+02
   2.182628e+02  -1.267720e+02
   2.845573e+02   6.882356e+01
   1.499324e+02   2.730644e+02
  -7.894741e+01   2.466447e+02
  -2.280775e+02   1.742788e+00
  -1.902858e+02  -2.442292e+02
   1.882842e+01  -2.917212e+02
   2.725104e+02  -1.075753e+02
   3.590491e+02   1.701280e+02
   1.830943e+02   3.424378e+02
  -9.120322e+01   2.913760e+02
  -2.084674e+02   1.241880e+02
  -1.397331e+02   2.549274e+01
  -9.927547e+01   5.509093e+01
  -2.396783e+02   7.087703e+01
  -4.105303e+02  -4.853622e+01
  -3.420041e+02  -2.770659e+02
  -1.026536e+01  -4.492939e+02
   3.505989e+02  -4.232222e+02
   4.834107e+02  -2.036291e+02
   3.280453e+02   9.797824e+01
   4.411892e+01   2.923040e+02
  -1.285948e+02   2.378225e+02
  -6.606377e+01   2.025455e+01
   1.164135e+02  -9.697338e+01
   1.819260e+02   2.182011e+01
   3.227852e+01   1.871959e+02
  -1.587167e+02   1.494531e+02
  -1.622164e+02  -6.832962e+01
   2.786740e+01  -1.814930e+02
   1.960988e+02  -2.492624e+01
   1.646199e+02   2.440283e+02
  -2.408111e+01   3.464129e+02
  -2.313562e+02   2.026675e+02
  -3.377072e+02  -5.159258e+01
  -2.867000e+02  -2.439282e+02
  -9.061563e+01  -2.768974e+02
   1.242853e+02  -1.638482e+02
   1.773032e+02  -1.271603e+01
   4.983052e+01   3.302471e+01
  -7.244266e+01  -4.357178e+01
  -2.295010e+01  -1.254496e+02
   1.277451e+02  -9.418405e+01
   1.730000e+02   1.985446e+01
   4.975515e+01   7.354227e+01
  -8.750532e+01   1.473213e+01
  -5.902326e+01  -7.873533e+01
   1.237711e+02  -9.737460e+01
   2.893670e+02  -8.309293e+00
   2.705900e+02   1.416517e+02
   6.098271e+01   2.627120e+02
  -1.853278e+02   2.628924e+02
  -2.800217e+02   1.198234e+02
  -1.622749e+02  -5.599857e+01
   2.727373e+01  -1.046088e+02
   8.520710e+01  -9.136096e-01
  -3.782032e+01   1.048163e+02
  -1.942574e+02   5.719086e+01
  -2.093325e+02  -1.049918e+02
  -6.527661e+01  -2.054501e+02
   9.458802e+01  -1.509257e+02
   1.392641e+02  -2.223881e+01
   6.162905e+01   4.653853e+01
  -3.583303e+01   1.450968e+00
  -4.222846e+01  -9.041224e+01
   7.266446e+01  -1.212698e+02
   2.008964e+02  -3.464792e+01
   1.938550e+02   1.208901e+02
   2.356281e+01   2.180244e+02
  -1.595797e+02   1.658661e+02
  -1.889203e+02   9.679755e+00
  -6.175622e+01  -1.085090e+02
   6.459159e+01  -1.079981e+02
   7.902915e+01  -2.781668e+01
   1.247495e+01   2.838950e+01
  -2.967364e+01   1.870600e+01
   4.862766e+00  -1.388939e+01
   7.286629e+01  -2.073539e+00
   9.740801e+01   7.526044e+01
   2.232585e+01   1.605365e+02
  -1.244129e+02   1.555614e+02
  -2.322661e+02   2.754531e+01
  -2.007037e+02  -1.476757e+02
  -4.363550e+01  -2.321759e+02
   1.055784e+02  -1.661923e+02
   1.347585e+02  -2.811947e+01
   7.247047e+01   5.176424e+01
   2.877259e+01   3.233172e+01
   4.975822e+01  -1.370334e+01
   7.905284e+01  -7.397120e+00
   4.796246e+01   4.845985e+01
  -3.453939e+01   9.195987e+01
  -1.029485e+02   6.383521e+01
  -9.400086e+01  -3.069722e+01
   7.704455e+00  -1.152904e+02
   1.418382e+02  -9.382566e+01
   2.013658e+02   4.423991e+01
   1.039543e+02   2.014435e+02
  -1.040381e+02   2.345848e+02
  -2.662181e+02   1.016591e+02
  -2.567962e+02  -8.340852e+01
  -1.077920e+02  -1.787362e+02
   4.004888e+01  -1.489387e+02
   9.198979e+01  -8.446939e+01
   7.453181e+01  -6.670647e+01
   6.159699e+01  -8.857713e+01
   8.902406e+01  -7.369549e+01
   1.282489e+02   1.840449e+01
   1.178042e+02   1.482463e+02
   3.164075e+01   2.195851e+02
  -9.516532e+01   1.697857e+02
  -1.732101e+02   2.006336e+01
  -1.361943e+02  -1.226061e+02
  -1.790086e+01  -1.602662e+02
   7.271507e+01  -9.051250e+01
   6.513516e+01   2.930172e+00
   5.434041e+00   4.862026e+01
  -1.471571e+01   3.639238e+01
   3.153773e+01   1.701540e+01
   7.919012e+01   2.252312e+01
   4.471734e+01   4.016928e+01
  -6.801667e+01   4.139188e+01
  -1.634877e+02   3.844411e+00
  -1.441094e+02  -5.183130e+01
  -1.129038e+01  -9.321971e+01
   1.229000e+02  -7.946935e+01
   1.430170e+02  -1.449818e+01
   4.911512e+01   4.589913e+01
  -5.570585e+01   4.343690e+01
  -7.628044e+01  -1.452312e+01
  -1.556852e+01  -6.810222e+01
   4.696693e+01  -6.094761e+01
   6.475540e+01  -3.305083e-01
   4.998100e+01   4.985054e+01
   4.516952e+01   3.936273e+01
   5.724763e+01  -5.004803e-01
   6.431303e+01  -1.293156e+00
   4.183877e+01   6.639568e+01
  -2.399808e+01   1.459598e+02
  -1.144158e+02   1.430533e+02
  -1.691592e+02   3.715268e+01
  -1.271135e+02  -8.931713e+01
  -6.562190e+00  -1.280104e+02
   8.724515e+01  -6.586669e+01
   6.134511e+01   1.344991e+01
  -5.781258e+01   2.464756e+01
  -1.377192e+02  -3.823367e+01
  -7.868257e+01  -1.066566e+02
   7.810481e+01  -1.158975e+02
   1.893861e+02  -5.673431e+01
   1.635770e+02   3.170154e+01
   3.690940e+01   8.696457e+01
  -6.258952e+01   6.997030e+01
  -5.025909e+01   5.156746e+00
   3.841374e+01  -3.042968e+01
   9.125992e+01   2.038660e+01
   3.576622e+01   1.163706e+02
  -8.307801e+01   1.537022e+02
  -1.593366e+02   6.581436e+01
  -1.259574e+02  -9.383968e+01
  -1.849405e+01  -1.931449e+02
   7.801913e+01  -1.408183e+02
   1.029336e+02   6.179979e+00
   6.145394e+01   1.166352e+02
  -3.823247e+00   1.045835e+02
  -4.916919e+01   1.956078e+01
  -4.960982e+01  -3.159804e+01
  -2.157923e+01  -9.973932e+00
  -4.004120e+00   1.890819e+01
  -2.619663e+01  -1.488429e+01
  -5.854792e+01  -8.434534e+01
  -3.881254e+01  -1.065515e+02
   5.206584e+01  -4.745150e+01
   1.359225e+02   3.490124e+01
   1.255410e+02   6.960262e+01
   1.867161e+01   5.100336e+01
  -8.151690e+01   2.463605e+01
  -8.575342e+01   7.996278e+00
  -1.356860e+01  -9.281242e+00
   3.662626e+01  -2.049851e+01
   1.713247e+01  -1.339609e+01
  -1.943274e+01   2.969564e+00
   2.540034e+00   6.666179e+00
   6.840779e+01   2.124113e-01
   9.104272e+01   2.119669e+01
   1.454428e+01   7.964984e+01
  -1.127670e+02   1.178944e+02
  -1.844056e+02   6.333078e+01
  -1.417360e+02  -6.146994e+01
  -2.813374e+01  -1.570687e+02
   7.516081e+01  -1.528000e+02
   1.115778e+02  -6.159737e+01
   7.915788e+01   2.135451e+01
   2.644592e+01   3.744810e+01
  -3.583585e-01   9.547929e+00
   1.276749e+01   3.441775e+00
   3.360372e+01   4.502366e+01
   2.146738e+01   9.040244e+01
  -2.923478e+01   7.238144e+01
  -8.072505e+01  -1.640672e+01
  -7.832057e+01  -1.046132e+02
  -8.339997e+00  -1.096592e+02
   7.871600e+01  -2.746347e+01
   1.030784e+02   6.803345e+01
   3.606531e+01   1.003549e+02
  -6.320607e+01   5.909090e+01
  -9.852157e+01  -7.228146e+00
  -4.315926e+01  -5.181805e+01
   3.048778e+01  -5.558714e+01
   3.276257e+01  -2.905486e+01
  -2.931968e+01   2.085457e+00
  -6.515462e+01   7.297806e+00
  -1.607696e+01  -2.632889e+01
   7.554953e+01  -6.603607e+01
   1.140901e+02  -5.684707e+01
   6.750206e+01   1.241537e+01
  -1.153161e+01   8.277109e+01
  -5.311598e+01   8.162703e+01
  -4.072537e+01   1.041116e+01
  -4.706263e+00  -5.220315e+01
   2.417868e+01  -4.391628e+01
   3.540148e+01   1.447964e+01
   2.743805e+01   5.172543e+01
  -5.672990e-01   3.336323e+01
  -3.093834e+01  -6.647507e+00
  -3.900178e+01  -2.058315e+01
  -2.129526e+01  -1.332706e+00
   2.678389e+00   1.560991e+01
   8.161271e+00   2.438904e+00
   3.023199e+00  -3.296952e+01
   8.636905e+00  -4.395999e+01
   2.689286e+01  -1.246426e+01
   3.365985e+01   3.802932e+01
   4.843034e+00   5.800887e+01
  -4.241912e+01   2.282345e+01
  -5.905413e+01  -3.423694e+01
  -1.683441e+01  -6.090035e+01
   5.514808e+01  -3.628015e+01
   8.951499e+01   1.076320e+01
   4.911793e+01   4.172337e+01
  -2.712429e+01   4.229851e+01
  -6.079678e+01   2.457765e+01
  -2.321895e+01   5.980082e+00
   3.247018e+01   1.102508e-01
   3.418804e+01   1.261827e+01
  -2.720147e+01   2.985313e+01
  -8.364509e+01   2.150517e+01
