
 $NMID
 id='ANONYMOUS ', fmtdat='(2E16.6)'
 volume=1.0
 tramp=1.0
 $END
  -4.334485e+03  -1.342704e+02
  -2.397330e+03  -2.652451e+03
   8.049364e+02  -2.627724e+03
   2.075880e+03  -7.920887e+02
   8.751083e+02   6.205548e+02
  -6.673248e+02   4.616504e+02
  -8.364578e+02  -4.767080e+02
   6.202873e+01  -1.019079e+03
   8.605085e+02  -7.094928e+02
   9.148830e+02   1.351098e+02
   4.422902e+02   8.724119e+02
  -2.805372e+02   8.669055e+02
  -6.298334e+02   8.716639e+01
  -3.401740e+02  -7.199594e+02
   2.986499e+02  -7.287177e+02
   6.141971e+02   4.866748e+01
   2.431173e+02   6.835816e+02
  -3.405249e+02   6.199509e+02
  -5.755883e+02   7.419788e+01
  -3.752822e+02  -3.607720e+02
  -1.175154e+00  -4.346758e+02
   2.497563e+02  -2.525384e+02
   2.168113e+02   3.622178e+00
  -1.297362e+02   8.591774e+01
  -4.144828e+02  -1.340970e+02
  -1.882298e+02  -4.495331e+02
   4.803376e+02  -3.972832e+02
   8.525470e+02   1.142091e+02
   4.111128e+02   5.779054e+02
  -4.135894e+02   4.737119e+02
  -7.569178e+02  -5.721908e+01
  -3.406413e+02  -4.959083e+02
   2.940236e+02  -5.093892e+02
   5.783290e+02  -1.875817e+02
   4.138470e+02   2.458081e+02
   5.577467e+01   4.688707e+02
  -2.065976e+02   2.674913e+02
  -1.501540e+02  -2.425378e+02
   2.097589e+02  -4.566213e+02
   4.594097e+02   5.420192e+01
   2.024100e+02   7.129747e+02
  -3.645457e+02   6.872685e+02
  -6.102314e+02  -3.308634e+01
  -2.318754e+02  -5.722628e+02
   3.055573e+02  -3.100747e+02
   3.825609e+02   3.330354e+02
  -7.704886e+01   5.508697e+02
  -5.614144e+02   1.322866e+02
  -5.891344e+02  -4.178646e+02
  -1.536935e+02  -5.877095e+02
   3.871149e+02  -3.324401e+02
   6.148712e+02   9.134526e+01
   3.519766e+02   3.849155e+02
  -1.613810e+02   3.416298e+02
  -4.303819e+02   2.830649e+01
  -2.192805e+02  -2.025909e+02
   1.222956e+02  -9.782061e+01
   1.313883e+02   1.605400e+02
  -1.690963e+02   1.839391e+02
  -3.379890e+02  -7.590744e+01
  -1.280843e+02  -2.958512e+02
   1.986066e+02  -2.519494e+02
   3.267968e+02  -6.983484e+01
   1.962686e+02   8.656710e+01
  -1.869802e+01   2.168473e+02
  -2.188776e+02   3.269417e+02
  -3.399146e+02   2.172368e+02
  -2.841150e+02  -1.338541e+02
  -7.264208e+01  -4.298344e+02
   1.199080e+02  -3.754546e+02
   1.149529e+02  -1.128846e+02
   1.832435e+01   5.527935e+00
   4.233673e+01  -9.043108e+01
   1.968639e+02  -1.304595e+02
   2.839626e+02   5.571909e+01
   1.629677e+02   2.765734e+02
  -7.454874e+01   2.635107e+02
  -2.304415e+02   1.071885e+01
  -1.947273e+02  -2.429890e+02
   1.508494e+01  -2.966438e+02
   2.661192e+02  -1.130100e+02
   3.566410e+02   1.728530e+02
   1.792012e+02   3.473333e+02
  -1.001138e+02   2.978261e+02
  -2.229862e+02   1.196391e+02
  -1.457539e+02   5.437153e+00
  -9.225910e+01   3.885171e+01
  -2.262872e+02   6.543866e+01
  -4.002509e+02  -5.532221e+01
  -3.300595e+02  -2.825757e+02
   9.007130e+00  -4.461633e+02
   3.607485e+02  -4.119741e+02
   4.908365e+02  -1.919169e+02
   3.327486e+02   1.013920e+02
   4.289415e+01   2.957015e+02
  -1.352346e+02   2.469898e+02
  -8.051036e+01   2.519623e+01
   1.131868e+02  -1.062499e+02
   1.952508e+02   1.137120e+01
   4.406552e+01   1.954729e+02
  -1.646609e+02   1.644792e+02
  -1.789358e+02  -6.697404e+01
   2.008549e+01  -1.921164e+02
   1.949617e+02  -2.957178e+01
   1.594324e+02   2.463124e+02
  -3.173385e+01   3.439135e+02
  -2.281789e+02   1.877676e+02
  -3.164300e+02  -6.331103e+01
  -2.680361e+02  -2.350301e+02
  -9.329112e+01  -2.585802e+02
   1.129873e+02  -1.562543e+02
   1.754847e+02  -1.461324e+01
   5.717899e+01   3.587178e+01
  -7.357952e+01  -3.838888e+01
  -2.988401e+01  -1.249623e+02
   1.225155e+02  -9.903709e+01
   1.758875e+02   1.310447e+01
   5.617250e+01   7.240938e+01
  -8.030621e+01   1.589749e+01
  -5.317152e+01  -7.083094e+01
   1.219130e+02  -8.456910e+01
   2.750443e+02   7.991097e-01
   2.594402e+02   1.388217e+02
   6.027720e+01   2.533326e+02
  -1.827251e+02   2.600750e+02
  -2.845799e+02   1.206512e+02
  -1.719683e+02  -5.555792e+01
   2.371800e+01  -1.129014e+02
   9.311124e+01  -8.348530e+00
  -3.243014e+01   1.052638e+02
  -1.958334e+02   5.914905e+01
  -2.138956e+02  -1.050154e+02
  -6.621142e+01  -2.105767e+02
   9.803471e+01  -1.566290e+02
   1.463852e+02  -2.627804e+01
   7.000544e+01   4.492036e+01
  -2.654602e+01   7.622095e+00
  -3.752154e+01  -7.891460e+01
   6.735598e+01  -1.112680e+02
   1.914433e+02  -3.059649e+01
   1.887905e+02   1.210472e+02
   1.988206e+01   2.160577e+02
  -1.641545e+02   1.603770e+02
  -1.932420e+02   2.474086e+00
  -6.262924e+01  -1.161944e+02
   6.977794e+01  -1.106516e+02
   8.634992e+01  -2.759361e+01
   1.954410e+01   2.657644e+01
  -2.171162e+01   1.899399e+01
   9.206350e+00  -4.383975e+00
   6.558960e+01   1.216949e+01
   8.177448e+01   7.988941e+01
   1.222788e+01   1.506317e+02
  -1.207332e+02   1.467736e+02
  -2.254513e+02   2.709729e+01
  -1.974442e+02  -1.451636e+02
  -4.379157e+01  -2.330809e+02
   1.054190e+02  -1.673763e+02
   1.338049e+02  -2.617876e+01
   7.050807e+01   5.516424e+01
   2.936962e+01   3.746658e+01
   5.124076e+01  -7.692993e+00
   7.371924e+01  -4.160243e+00
   3.874318e+01   4.482061e+01
  -3.804200e+01   8.029494e+01
  -9.304822e+01   5.311582e+01
  -8.076984e+01  -2.937820e+01
   9.980138e+00  -1.026480e+02
   1.335813e+02  -8.219266e+01
   1.923272e+02   5.004235e+01
   9.878790e+01   2.000151e+02
  -1.059786e+02   2.271040e+02
  -2.652349e+02   9.325195e+01
  -2.541685e+02  -8.756443e+01
  -1.067018e+02  -1.751705e+02
   3.939872e+01  -1.457663e+02
   9.309845e+01  -8.346776e+01
   7.832359e+01  -6.809819e+01
   6.753073e+01  -8.813756e+01
   9.111297e+01  -6.924380e+01
   1.235800e+02   2.283658e+01
   1.107300e+02   1.481922e+02
   2.728351e+01   2.176467e+02
  -9.720021e+01   1.686600e+02
  -1.710599e+02   2.029409e+01
  -1.321488e+02  -1.209932e+02
  -1.733049e+01  -1.586015e+02
   6.774325e+01  -9.070982e+01
   6.150095e+01   2.056951e-01
   7.097016e+00   4.270677e+01
  -9.760432e+00   3.634458e+01
   3.241826e+01   2.103155e+01
   7.505301e+01   2.436474e+01
   4.230271e+01   3.873504e+01
  -6.294715e+01   3.636314e+01
  -1.546251e+02   1.454776e+00
  -1.418733e+02  -4.829131e+01
  -1.647122e+01  -8.722736e+01
   1.178958e+02  -7.330060e+01
   1.435123e+02  -1.341200e+01
   4.838206e+01   4.014292e+01
  -5.730690e+01   3.685548e+01
  -7.319279e+01  -1.777870e+01
  -7.026396e+00  -6.562377e+01
   5.390958e+01  -5.464435e+01
   6.189071e+01   4.390202e+00
   3.946238e+01   5.169770e+01
   4.001611e+01   4.106291e+01
   5.887262e+01   8.472449e-02
   6.519953e+01  -1.271950e+00
   3.569252e+01   6.543222e+01
  -3.198702e+01   1.422125e+02
  -1.150602e+02   1.372181e+02
  -1.603941e+02   3.017440e+01
  -1.183633e+02  -9.008688e+01
  -6.718625e+00  -1.221496e+02
   8.341531e+01  -5.925502e+01
   5.901427e+01   1.494206e+01
  -5.608912e+01   2.012911e+01
  -1.343451e+02  -4.287278e+01
  -7.666071e+01  -1.054610e+02
   7.623268e+01  -1.081270e+02
   1.871244e+02  -4.956082e+01
   1.589872e+02   3.264233e+01
   3.507108e+01   8.458294e+01
  -6.345512e+01   6.828362e+01
  -4.958112e+01   7.897290e+00
   3.849828e+01  -2.543572e+01
   8.804647e+01   2.262964e+01
   2.882651e+01   1.153836e+02
  -9.136451e+01   1.490459e+02
  -1.619014e+02   5.815720e+01
  -1.199020e+02  -9.954996e+01
  -8.358372e+00  -1.922557e+02
   8.383592e+01  -1.406926e+02
   1.022608e+02   7.814030e+00
   5.903489e+01   1.172340e+02
  -2.478568e+00   1.063635e+02
  -4.524888e+01   1.972422e+01
  -5.068378e+01  -3.122948e+01
  -2.556824e+01  -8.531774e+00
  -5.246546e+00   1.980758e+01
  -1.972568e+01  -1.541329e+01
  -5.072691e+01  -8.622214e+01
  -3.858410e+01  -1.075979e+02
   4.722833e+01  -4.365980e+01
   1.338656e+02   3.938578e+01
   1.247206e+02   7.101003e+01
   1.662593e+01   5.038334e+01
  -8.656373e+01   2.073045e+01
  -8.776056e+01   5.288792e+00
  -1.058096e+01  -8.760052e+00
   3.912428e+01  -2.228529e+01
   1.545979e+01  -1.767771e+01
  -2.138239e+01   1.381918e+00
   5.360892e+00   1.050863e+01
   7.279443e+01   6.861824e+00
   8.731498e+01   2.498636e+01
   7.333001e+00   7.640181e+01
  -1.170079e+02   1.072746e+02
  -1.798568e+02   5.448248e+01
  -1.338183e+02  -6.599325e+01
  -2.224020e+01  -1.557719e+02
   7.887804e+01  -1.445934e+02
   1.109141e+02  -5.504835e+01
   7.813377e+01   2.430404e+01
   2.416254e+01   3.630215e+01
  -2.105536e+00   7.439671e+00
   1.006372e+01   3.569969e+00
   3.093902e+01   4.492633e+01
   1.942176e+01   8.845378e+01
  -2.874831e+01   6.877854e+01
  -7.671588e+01  -1.968597e+01
  -7.167975e+01  -1.060657e+02
  -2.962812e+00  -1.072674e+02
   7.991581e+01  -2.108043e+01
   9.918010e+01   7.445402e+01
   3.044636e+01   1.005118e+02
  -6.539429e+01   5.434719e+01
  -9.593555e+01  -1.075950e+01
  -3.847970e+01  -4.866849e+01
   3.173150e+01  -4.966688e+01
   3.036373e+01  -2.886038e+01
  -3.421701e+01  -1.501468e+00
  -6.717254e+01   4.773844e+00
  -1.320271e+01  -2.389209e+01
   7.883097e+01  -6.226183e+01
   1.132014e+02  -5.591473e+01
   6.138512e+01   1.295871e+01
  -1.772828e+01   7.998304e+01
  -5.464587e+01   7.487427e+01
  -3.840885e+01   4.215811e+00
  -1.915931e-01  -5.441360e+01
   2.694878e+01  -4.077871e+01
   3.530458e+01   1.833593e+01
   2.518939e+01   5.272882e+01
  -3.396717e+00   3.131289e+01
  -3.147462e+01  -8.410280e+00
  -3.772533e+01  -2.054007e+01
  -1.996371e+01  -4.973204e-01
   6.716522e-01   1.501478e+01
   5.845072e+00  -1.269502e+00
   6.199714e+00  -3.575955e+01
   1.585386e+01  -4.431359e+01
   3.077188e+01  -7.992539e+00
   2.934757e+01   4.406673e+01
  -3.096809e+00   5.913060e+01
  -4.353226e+01   1.887090e+01
  -5.397959e+01  -3.864429e+01
  -1.302709e+01  -6.092497e+01
   5.345825e+01  -3.188084e+01
   8.633077e+01   1.511584e+01
   4.712825e+01   4.225223e+01
  -2.778197e+01   3.832358e+01
  -6.234099e+01   1.967875e+01
  -2.242203e+01   4.273145e+00
   3.660909e+01   3.583352e+00
   3.556376e+01   1.744877e+01
  -3.118445e+01   3.019389e+01
  -8.936587e+01   1.648009e+01
