
 $NMID
 id='ANONYMOUS ', fmtdat='(2E16.6)'
 volume=1.0
 tramp=1.0
 $END
   4.711851e+03   1.130045e+02
   2.618341e+03   2.890109e+03
  -9.427207e+02   2.884966e+03
  -2.211211e+03   7.748039e+02
  -8.445073e+02  -7.574690e+02
   7.815838e+02  -5.259275e+02
   9.097759e+02   5.798225e+02
  -1.111739e+02   1.161805e+03
  -9.546603e+02   7.532503e+02
  -9.733839e+02  -1.964172e+02
  -4.095810e+02  -9.021070e+02
   3.311777e+02  -8.818145e+02
   6.752829e+02  -3.976710e+01
   3.390003e+02   7.959889e+02
  -3.505764e+02   7.579665e+02
  -6.613893e+02  -5.393312e+01
  -2.354112e+02  -7.376039e+02
   3.790880e+02  -6.209076e+02
   5.906618e+02  -4.978585e+01
   3.585470e+02   3.709012e+02
  -2.053814e+01   4.339096e+02
  -2.589744e+02   2.396758e+02
  -2.175817e+02  -1.700857e+01
   1.497238e+02  -1.153375e+02
   4.606784e+02   1.297372e+02
   2.091443e+02   4.962766e+02
  -5.111471e+02   4.488590e+02
  -9.102253e+02  -1.089810e+02
  -4.252668e+02  -6.270353e+02
   4.691736e+02  -5.156802e+02
   8.070931e+02   7.321918e+01
   3.440727e+02   5.427869e+02
  -3.342402e+02   5.458139e+02
  -6.176991e+02   1.854317e+02
  -4.308415e+02  -2.752583e+02
  -3.565084e+01  -5.136287e+02
   2.499371e+02  -2.680844e+02
   1.775010e+02   2.909516e+02
  -2.096620e+02   5.086089e+02
  -5.140964e+02  -4.529570e+01
  -2.324358e+02  -7.704048e+02
   3.921020e+02  -7.359384e+02
   6.589523e+02   4.645352e+01
   2.323261e+02   6.286509e+02
  -3.567947e+02   3.204799e+02
  -4.132441e+02  -3.822048e+02
   9.766492e+01  -5.984969e+02
   6.025312e+02  -1.304136e+02
   6.204408e+02   4.569302e+02
   1.466035e+02   6.328588e+02
  -4.297838e+02   3.513347e+02
  -6.612750e+02  -1.067230e+02
  -3.595119e+02  -4.280926e+02
   2.011301e+02  -3.708735e+02
   4.675850e+02  -1.923347e+01
   2.119663e+02   2.320948e+02
  -1.598744e+02   9.815490e+01
  -1.439606e+02  -1.936353e+02
   2.021360e+02  -2.021874e+02
   3.782123e+02   9.565711e+01
   1.435819e+02   3.312451e+02
  -2.222219e+02   2.592870e+02
  -3.412742e+02   6.516341e+01
  -2.075601e+02  -9.041491e+01
   1.786498e+01  -2.265733e+02
   2.250433e+02  -3.335743e+02
   3.564786e+02  -2.195045e+02
   3.000790e+02   1.525313e+02
   6.335373e+01   4.537558e+02
  -1.450238e+02   3.730962e+02
  -1.263243e+02   8.446682e+01
  -1.350194e+00  -2.299360e+01
  -2.488593e+01   1.062980e+02
  -2.066859e+02   1.517349e+02
  -2.995975e+02  -5.275325e+01
  -1.655268e+02  -2.915386e+02
   8.064006e+01  -2.754379e+02
   2.446733e+02  -1.419245e+01
   2.078578e+02   2.549456e+02
  -1.384449e+01   3.137947e+02
  -2.826588e+02   1.242190e+02
  -3.767250e+02  -1.817532e+02
  -1.854817e+02  -3.751897e+02
   1.181151e+02  -3.170857e+02
   2.404632e+02  -1.096360e+02
   1.513448e+02   8.760319e+00
   9.249417e+01  -3.565081e+01
   2.331470e+02  -6.897806e+01
   4.123727e+02   6.049140e+01
   3.438056e+02   2.988674e+02
   5.226523e-01   4.636319e+02
  -3.748633e+02   4.221498e+02
  -5.103373e+02   1.974379e+02
  -3.555303e+02  -1.088784e+02
  -4.901447e+01  -3.105068e+02
   1.539250e+02  -2.577711e+02
   9.689726e+01  -1.569187e+01
  -1.213106e+02   1.210927e+02
  -2.177551e+02  -1.419707e+01
  -5.319856e+01  -2.187400e+02
   1.813373e+02  -1.835204e+02
   1.929887e+02   7.375628e+01
  -2.610678e+01   2.073850e+02
  -2.085319e+02   3.235740e+01
  -1.633603e+02  -2.576039e+02
   3.770841e+01  -3.551032e+02
   2.337692e+02  -1.928722e+02
   3.259866e+02   6.497760e+01
   2.828449e+02   2.425213e+02
   1.019444e+02   2.741780e+02
  -1.191616e+02   1.684760e+02
  -1.900906e+02   1.572559e+01
  -6.083075e+01  -4.233236e+01
   8.075637e+01   3.540123e+01
   3.320750e+01   1.364247e+02
  -1.357622e+02   1.060184e+02
  -1.909708e+02  -1.948222e+01
  -5.884227e+01  -8.501110e+01
   8.881242e+01  -2.288878e+01
   6.307306e+01   7.508480e+01
  -1.208705e+02   9.336995e+01
  -2.846827e+02   3.031837e+00
  -2.720780e+02  -1.411217e+02
  -6.422297e+01  -2.649098e+02
   1.913769e+02  -2.729300e+02
   2.986998e+02  -1.277481e+02
   1.807263e+02   6.058934e+01
  -3.003029e+01   1.193095e+02
  -9.934472e+01   5.146210e+00
   3.570747e+01  -1.128049e+02
   2.093290e+02  -6.392431e+01
   2.233817e+02   1.099678e+02
   6.852213e+01   2.216022e+02
  -1.022763e+02   1.651689e+02
  -1.502267e+02   2.654714e+01
  -7.281551e+01  -4.723899e+01
   2.937165e+01  -8.985312e+00
   4.203115e+01   8.180574e+01
  -6.844660e+01   1.182790e+02
  -2.017741e+02   3.318535e+01
  -1.991045e+02  -1.274465e+02
  -2.119190e+01  -2.297896e+02
   1.759345e+02  -1.694605e+02
   2.045461e+02   1.305531e+00
   6.527832e+01   1.253484e+02
  -7.391474e+01   1.159467e+02
  -8.922353e+01   2.782648e+01
  -2.147638e+01  -2.979058e+01
   2.040850e+01  -2.210076e+01
  -7.243475e+00   4.808602e+00
  -6.643800e+01  -9.297374e+00
  -8.637799e+01  -7.957081e+01
  -1.635819e+01  -1.570386e+02
   1.263613e+02  -1.550163e+02
   2.386825e+02  -2.627344e+01
   2.060437e+02   1.554887e+02
   3.911635e+01   2.447308e+02
  -1.166398e+02   1.732233e+02
  -1.412280e+02   2.374613e+01
  -7.013614e+01  -6.022889e+01
  -2.651294e+01  -3.788241e+01
  -5.220827e+01   1.254233e+01
  -7.863411e+01   6.961935e+00
  -4.105140e+01  -4.763285e+01
   4.126460e+01  -8.545541e+01
   9.900433e+01  -5.517039e+01
   8.458338e+01   3.403551e+01
  -1.109527e+01   1.104179e+02
  -1.389680e+02   8.992430e+01
  -2.001442e+02  -4.679815e+01
  -1.060013e+02  -2.034341e+02
   1.043441e+02  -2.357539e+02
   2.706238e+02  -9.950693e+01
   2.621427e+02   8.765802e+01
   1.131109e+02   1.817070e+02
  -3.937163e+01   1.525389e+02
  -9.931943e+01   8.550496e+01
  -8.186295e+01   6.857670e+01
  -6.755462e+01   9.069241e+01
  -9.512437e+01   7.394723e+01
  -1.301355e+02  -2.335466e+01
  -1.187860e+02  -1.558472e+02
  -2.861854e+01  -2.289662e+02
   1.029844e+02  -1.747480e+02
   1.802943e+02  -1.868476e+01
   1.387279e+02   1.259774e+02
   1.854594e+01   1.652147e+02
  -6.953499e+01   9.774179e+01
  -6.478260e+01   3.567172e+00
  -9.800794e+00  -4.346960e+01
   7.901455e+00  -3.845299e+01
  -3.565198e+01  -2.189204e+01
  -7.814784e+01  -2.511991e+01
  -4.208055e+01  -3.995296e+01
   6.383687e+01  -3.886686e+01
   1.562762e+02  -5.315762e+00
   1.446286e+02   4.945410e+01
   1.857502e+01   9.206620e+01
  -1.200208e+02   7.806730e+01
  -1.466242e+02   1.390336e+01
  -4.896583e+01  -4.182196e+01
   6.189734e+01  -3.876925e+01
   7.694019e+01   1.934031e+01
   6.927110e+00   6.809729e+01
  -5.642220e+01   5.761980e+01
  -6.292859e+01  -1.654314e+00
  -4.317763e+01  -5.123024e+01
  -4.255543e+01  -4.153941e+01
  -6.291039e+01  -1.504314e+00
  -6.877630e+01   5.493028e-01
  -3.664311e+01  -6.709492e+01
   3.375811e+01  -1.472462e+02
   1.154710e+02  -1.436958e+02
   1.627104e+02  -3.281185e+01
   1.221572e+02   9.285111e+01
   6.752224e+00   1.283152e+02
  -8.535331e+01   6.145937e+01
  -6.047570e+01  -1.764752e+01
   5.867669e+01  -2.375379e+01
   1.392075e+02   4.276976e+01
   7.964861e+01   1.111730e+02
  -7.833912e+01   1.173893e+02
  -1.939300e+02   5.751476e+01
  -1.683475e+02  -3.200983e+01
  -4.030995e+01  -8.860593e+01
   6.206933e+01  -7.167340e+01
   5.162671e+01  -7.455168e+00
  -3.892547e+01   2.542555e+01
  -9.129060e+01  -2.597610e+01
  -2.986921e+01  -1.206091e+02
   9.755488e+01  -1.513138e+02
   1.717287e+02  -5.572431e+01
   1.262163e+02   1.058400e+02
   6.848274e+00   2.012223e+02
  -9.023100e+01   1.456101e+02
  -1.081681e+02  -8.082895e+00
  -6.172158e+01  -1.207014e+02
   3.361424e+00  -1.106819e+02
   4.753633e+01  -2.115830e+01
   5.354860e+01   3.413939e+01
   2.568643e+01   1.138120e+01
   4.008587e+00  -2.324247e+01
   2.143428e+01   9.445083e+00
   5.646670e+01   8.608211e+01
   4.151530e+01   1.138207e+02
  -4.667622e+01   4.831798e+01
  -1.371533e+02  -4.281956e+01
  -1.292401e+02  -7.647387e+01
  -1.566949e+01  -5.308712e+01
   9.162531e+01  -2.144217e+01
   9.193381e+01  -3.644100e+00
   1.148508e+01   9.683017e+00
  -4.091006e+01   2.374140e+01
  -1.730541e+01   1.917445e+01
   2.041279e+01  -4.916118e-01
  -6.435325e+00  -1.095164e+01
  -7.344453e+01  -7.984973e+00
  -9.014860e+01  -2.700326e+01
  -4.988632e+00  -7.814452e+01
   1.202604e+02  -1.092626e+02
   1.833807e+02  -5.579933e+01
   1.393418e+02   6.915457e+01
   2.313347e+01   1.636188e+02
  -8.159358e+01   1.505289e+02
  -1.147160e+02   5.524790e+01
  -8.027069e+01  -2.597423e+01
  -2.475992e+01  -3.786225e+01
   2.003898e+00  -7.555128e+00
  -1.112639e+01  -2.345904e+00
  -3.313625e+01  -4.637965e+01
  -2.021626e+01  -9.241943e+01
   3.143402e+01  -7.265347e+01
   8.172376e+01   2.056355e+01
   7.401174e+01   1.109471e+02
   1.621233e+00   1.111040e+02
  -8.262778e+01   2.027006e+01
  -9.988142e+01  -7.802003e+01
  -2.949853e+01  -1.032490e+02
   6.706140e+01  -5.379458e+01
   9.737445e+01   1.251121e+01
   3.933242e+01   4.920491e+01
  -3.236458e+01   5.009834e+01
  -3.168155e+01   2.933145e+01
   3.383126e+01   2.306640e+00
   6.877891e+01  -3.314590e+00
   1.405524e+01   2.650917e+01
  -8.151028e+01   6.547115e+01
  -1.185571e+02   5.662390e+01
  -6.357070e+01  -1.369067e+01
   1.807796e+01  -8.304031e+01
   5.444156e+01  -7.681032e+01
   3.680733e+01  -2.814285e+00
  -1.825113e+00   5.624718e+01
  -2.788724e+01   4.032351e+01
  -3.599333e+01  -2.201502e+01
  -2.503267e+01  -5.563330e+01
   4.353703e+00  -3.204272e+01
   3.356804e+01   9.852225e+00
   3.977158e+01   2.119131e+01
   2.063200e+01   1.787584e+00
  -9.648254e-01  -1.246463e+01
  -7.935123e+00   3.106534e+00
  -7.491981e+00   3.441236e+01
  -1.588364e+01   4.176378e+01
  -3.089209e+01   7.015432e+00
  -2.761256e+01  -4.501821e+01
   4.066486e+00  -6.026945e+01
   4.533957e+01  -1.955611e+01
   5.491432e+01   4.157530e+01
   1.178715e+01   6.383669e+01
  -5.488252e+01   3.325379e+01
  -8.749456e+01  -1.728661e+01
  -4.795428e+01  -4.467277e+01
   2.823940e+01  -3.888848e+01
   6.295406e+01  -1.853087e+01
   2.213504e+01  -4.865694e+00
  -3.878078e+01  -5.459403e+00
  -3.697071e+01  -1.979682e+01
   3.432947e+01  -3.186916e+01
   9.498969e+01  -1.696550e+01
