
 $NMID
 id='ANONYMOUS ', fmtdat='(2E16.6)'
 volume=1.0
 tramp=1.0
 $END
   4.119650e+03   5.780305e+01
   2.475898e+03   2.417919e+03
  -5.233887e+02   2.648444e+03
  -1.935106e+03   1.016549e+03
  -9.867218e+02  -4.579351e+02
   5.034590e+02  -5.233934e+02
   8.277656e+02   3.372520e+02
   4.184900e+01   9.741005e+02
  -7.417474e+02   7.920758e+02
  -9.257624e+02  -2.379693e+01
  -4.608213e+02  -8.164879e+02
   1.613333e+02  -8.902280e+02
   5.917766e+02  -1.671543e+02
   3.971057e+02   6.668557e+02
  -2.193477e+02   7.426723e+02
  -5.588632e+02   3.637189e+01
  -3.016404e+02  -6.529214e+02
   2.687383e+02  -6.705207e+02
   5.800225e+02  -1.553480e+02
   4.245764e+02   3.136299e+02
   7.054214e+01   4.349690e+02
  -2.063341e+02   2.663361e+02
  -1.776178e+02   4.597177e+01
   1.313876e+02  -4.269293e+01
   3.944005e+02   1.547873e+02
   1.623570e+02   4.323001e+02
  -4.815628e+02   3.917089e+02
  -8.419942e+02  -8.147691e+01
  -4.183255e+02  -5.161940e+02
   3.826403e+02  -4.419794e+02
   7.142284e+02   4.556733e+01
   3.233623e+02   4.714515e+02
  -2.862359e+02   5.110806e+02
  -5.615976e+02   2.001206e+02
  -4.131177e+02  -2.219320e+02
  -7.978569e+01  -4.562825e+02
   1.593173e+02  -2.732964e+02
   1.221840e+02   1.819506e+02
  -1.709041e+02   3.507764e+02
  -3.894980e+02  -4.773166e+01
  -1.998124e+02  -6.569644e+02
   3.067040e+02  -6.670648e+02
   5.503800e+02  -1.875480e+01
   2.424371e+02   5.060040e+02
  -2.630160e+02   2.977189e+02
  -3.485224e+02  -3.140225e+02
   7.219721e+01  -5.316296e+02
   5.516973e+02  -1.419007e+02
   5.979429e+02   3.954353e+02
   1.847461e+02   5.800163e+02
  -3.645105e+02   3.503536e+02
  -6.230669e+02  -5.447387e+01
  -3.898296e+02  -3.505717e+02
   1.199408e+02  -3.539679e+02
   4.213914e+02  -7.951784e+01
   2.540859e+02   1.526699e+02
  -8.724605e+01   9.337591e+01
  -1.234586e+02  -1.270626e+02
   1.539715e+02  -1.605839e+02
   3.248849e+02   6.987276e+01
   1.363265e+02   2.826662e+02
  -1.991631e+02   2.755127e+02
  -3.419604e+02   9.972658e+01
  -2.260019e+02  -8.857227e+01
   9.586026e+00  -2.608492e+02
   2.328299e+02  -3.585203e+02
   3.593900e+02  -2.235121e+02
   3.085215e+02   1.390147e+02
   1.025609e+02   4.293276e+02
  -8.379197e+01   3.962891e+02
  -9.867238e+01   1.458881e+02
  -3.546288e+01   2.696973e+01
  -7.024147e+01   9.958397e+01
  -2.164591e+02   1.169582e+02
  -2.842252e+02  -6.942432e+01
  -1.579791e+02  -2.793739e+02
   7.565288e+01  -2.583018e+02
   2.298210e+02  -5.652441e+00
   1.990281e+02   2.481484e+02
  -1.143060e+01   2.985280e+02
  -2.689080e+02   1.164052e+02
  -3.685785e+02  -1.663124e+02
  -2.003931e+02  -3.508370e+02
   8.481150e+01  -3.149521e+02
   2.216237e+02  -1.382945e+02
   1.581326e+02  -2.804021e+01
   1.169845e+02  -4.716523e+01
   2.501419e+02  -6.177620e+01
   4.153937e+02   6.300104e+01
   3.473423e+02   2.957925e+02
   5.391453e+00   4.576666e+02
  -3.691942e+02   4.367049e+02
  -5.042431e+02   2.103400e+02
  -3.452958e+02  -9.668010e+01
  -5.560062e+01  -2.961129e+02
   1.176234e+02  -2.538960e+02
   7.012489e+01  -3.762886e+01
  -1.071715e+02   9.460830e+01
  -1.836586e+02  -9.021879e+00
  -4.598662e+01  -1.859736e+02
   1.458646e+02  -1.638482e+02
   1.673117e+02   5.254752e+01
  -1.368412e+01   1.805861e+02
  -1.894047e+02   3.286793e+01
  -1.719167e+02  -2.467847e+02
   2.075696e+01  -3.653168e+02
   2.386503e+02  -2.159776e+02
   3.486397e+02   5.294036e+01
   2.931049e+02   2.503016e+02
   9.545380e+01   2.821560e+02
  -1.207878e+02   1.664819e+02
  -1.794769e+02   1.985916e+01
  -5.639200e+01  -3.017667e+01
   6.652203e+01   4.392961e+01
   2.372536e+01   1.269510e+02
  -1.278923e+02   9.881393e+01
  -1.785271e+02  -1.261236e+01
  -5.557312e+01  -7.114573e+01
   8.405545e+01  -1.293189e+01
   5.562972e+01   8.108649e+01
  -1.324420e+02   9.356480e+01
  -2.950913e+02  -6.424790e-01
  -2.729129e+02  -1.477533e+02
  -5.991976e+01  -2.669008e+02
   1.887092e+02  -2.685473e+02
   2.870916e+02  -1.295468e+02
   1.705929e+02   4.982741e+01
  -2.266741e+01   1.070644e+02
  -8.529679e+01   5.804241e+00
   3.698265e+01  -1.019670e+02
   1.963072e+02  -5.946909e+01
   2.168294e+02   1.032538e+02
   7.516258e+01   2.100698e+02
  -9.178276e+01   1.609868e+02
  -1.440912e+02   2.998628e+01
  -6.812525e+01  -4.203178e+01
   3.418401e+01   1.838343e+00
   3.923739e+01   9.413143e+01
  -7.691049e+01   1.235763e+02
  -2.076481e+02   3.134654e+01
  -1.984110e+02  -1.269102e+02
  -2.369464e+01  -2.233632e+02
   1.637079e+02  -1.687442e+02
   1.955597e+02  -1.024746e+01
   6.708843e+01   1.132709e+02
  -6.583444e+01   1.126521e+02
  -8.293925e+01   2.991699e+01
  -1.511902e+01  -2.739263e+01
   2.706559e+01  -1.706836e+01
  -7.406165e+00   1.387967e+01
  -7.712757e+01  -1.742722e+00
  -9.806332e+01  -8.262176e+01
  -1.945734e+01  -1.676901e+02
   1.316873e+02  -1.624139e+02
   2.444401e+02  -2.728603e+01
   2.102584e+02   1.568988e+02
   4.393053e+01   2.455761e+02
  -1.109481e+02   1.756007e+02
  -1.399261e+02   3.110229e+01
  -7.466292e+01  -5.443405e+01
  -3.133165e+01  -3.462535e+01
  -5.646963e+01   1.477367e+01
  -8.659155e+01   8.415927e+00
  -5.022475e+01  -5.265413e+01
   3.888055e+01  -9.707805e+01
   1.100088e+02  -6.449964e+01
   9.841108e+01   3.573217e+01
  -1.013286e+01   1.209886e+02
  -1.494425e+02   9.656997e+01
  -2.084647e+02  -4.926965e+01
  -1.077074e+02  -2.079510e+02
   1.083185e+02  -2.378516e+02
   2.721991e+02  -1.033248e+02
   2.653787e+02   8.496234e+01
   1.147189e+02   1.815517e+02
  -3.882471e+01   1.526060e+02
  -9.549307e+01   8.637976e+01
  -7.999599e+01   7.234513e+01
  -6.569269e+01   9.740514e+01
  -9.396067e+01   8.082636e+01
  -1.354447e+02  -1.918357e+01
  -1.271303e+02  -1.584820e+02
  -3.589535e+01  -2.363583e+02
   1.007625e+02  -1.811931e+02
   1.836718e+02  -2.223495e+01
   1.437289e+02   1.269404e+02
   1.932094e+01   1.657096e+02
  -7.387572e+01   9.373230e+01
  -6.584621e+01  -1.815679e+00
  -5.019265e+00  -4.923785e+01
   1.452593e+01  -3.895209e+01
  -3.347744e+01  -1.636618e+01
  -8.278654e+01  -1.874690e+01
  -4.824547e+01  -3.811298e+01
   6.739399e+01  -4.059655e+01
   1.684046e+02  -6.366106e+00
   1.501169e+02   5.508411e+01
   1.654045e+01   9.547321e+01
  -1.247861e+02   8.068229e+01
  -1.499524e+02   1.507317e+01
  -5.112517e+01  -4.629961e+01
   6.067996e+01  -4.279144e+01
   7.980989e+01   1.839504e+01
   1.300870e+01   7.239104e+01
  -5.421685e+01   6.283075e+01
  -6.847077e+01  -9.150772e-01
  -5.234973e+01  -5.098265e+01
  -4.646426e+01  -4.353925e+01
  -6.082235e+01  -4.020262e-02
  -6.802792e+01   7.494423e-01
  -4.102700e+01  -6.911534e+01
   2.712770e+01  -1.539555e+02
   1.157795e+02  -1.527227e+02
   1.723864e+02  -4.120263e+01
   1.320164e+02   9.230173e+01
   8.830373e+00   1.322365e+02
  -8.978517e+01   6.772743e+01
  -6.228506e+01  -1.505844e+01
   6.108702e+01  -2.273375e+01
   1.421910e+02   4.589087e+01
   7.825004e+01   1.119315e+02
  -8.281136e+01   1.182199e+02
  -1.965948e+02   5.212673e+01
  -1.685735e+02  -3.740750e+01
  -3.844980e+01  -8.991516e+01
   6.364141e+01  -7.057598e+01
   5.087268e+01  -4.858050e+00
  -4.045300e+01   3.027422e+01
  -9.401489e+01  -2.093115e+01
  -3.691390e+01  -1.212662e+02
   8.811562e+01  -1.601486e+02
   1.674481e+02  -6.893335e+01
   1.306410e+02   9.900160e+01
   1.594865e+01   2.000483e+02
  -8.186921e+01   1.472338e+02
  -1.067019e+02  -6.125751e+00
  -6.315921e+01  -1.198101e+02
   3.173449e+00  -1.075101e+02
   4.867190e+01  -1.968824e+01
   5.134046e+01   3.293761e+01
   2.387355e+01   8.895600e+00
   4.946615e+00  -2.062002e+01
   2.487847e+01   1.651855e+01
   5.998448e+01   9.010565e+01
   4.295891e+01   1.117821e+02
  -4.959665e+01   4.870972e+01
  -1.424041e+02  -3.641798e+01
  -1.342320e+02  -7.114208e+01
  -2.102778e+01  -5.339409e+01
   8.760654e+01  -2.608603e+01
   9.204534e+01  -8.965133e+00
   1.414745e+01   8.844802e+00
  -3.876484e+01   2.329550e+01
  -1.639552e+01   1.712963e+01
   1.927397e+01  -2.757100e+00
  -4.234587e+00  -8.253129e+00
  -7.371045e+01  -1.615026e+00
  -9.615779e+01  -2.283967e+01
  -1.590094e+01  -8.375520e+01
   1.175896e+02  -1.229724e+02
   1.939309e+02  -6.741462e+01
   1.532830e+02   6.357981e+01
   3.223560e+01   1.650358e+02
  -7.818712e+01   1.574746e+02
  -1.166210e+02   6.472299e+01
  -8.270382e+01  -1.981709e+01
  -2.650971e+01  -3.687887e+01
   2.181307e+00  -9.864372e+00
  -1.131415e+01  -4.072373e+00
  -3.510743e+01  -4.599494e+01
  -2.462214e+01  -9.223302e+01
   2.921439e+01  -7.518194e+01
   8.478978e+01   1.616697e+01
   8.413207e+01   1.089600e+02
   8.386383e+00   1.156894e+02
  -8.366644e+01   2.850370e+01
  -1.076709e+02  -7.341387e+01
  -3.558748e+01  -1.070969e+02
   6.734027e+01  -6.126843e+01
   1.026989e+02   9.427262e+00
   4.288627e+01   5.384264e+01
  -3.223521e+01   5.604142e+01
  -3.303240e+01   2.922224e+01
   3.231302e+01  -1.244765e+00
   6.938369e+01  -8.179558e+00
   1.616920e+01   2.529350e+01
  -7.856560e+01   6.644401e+01
  -1.167201e+02   5.897942e+01
  -6.730808e+01  -1.252056e+01
   1.422800e+01  -8.501666e+01
   5.471115e+01  -8.295849e+01
   4.066522e+01  -8.745822e+00
   4.474425e+00   5.725716e+01
  -2.553494e+01   4.754578e+01
  -3.842003e+01  -1.530311e+01
  -2.874869e+01  -5.555916e+01
   1.548861e+00  -3.680616e+01
   3.408969e+01   7.170906e+00
   4.189363e+01   2.096197e+01
   2.148878e+01   7.975217e-01
  -1.600607e+00  -1.626519e+01
  -6.400616e+00   1.012636e+00
  -3.185119e+00   3.786802e+01
  -1.234023e+01   4.765297e+01
  -3.089873e+01   1.218696e+01
  -3.496273e+01  -4.107410e+01
  -3.674593e+00  -6.013875e+01
   4.328540e+01  -2.373564e+01
   6.018463e+01   3.538800e+01
   1.811582e+01   6.309018e+01
  -5.576972e+01   3.740427e+01
  -9.175564e+01  -1.180213e+01
  -5.183130e+01  -4.437373e+01
   2.789237e+01  -4.456767e+01
   6.483388e+01  -2.534027e+01
   2.641773e+01  -5.617308e+00
  -3.383036e+01   8.313485e-01
  -3.722128e+01  -1.174911e+01
   2.819733e+01  -3.020925e+01
   8.853494e+01  -2.203926e+01
