
 $NMID
 id='ANONYMOUS ', fmtdat='(2E16.6)'
 volume=1.0
 tramp=1.0
 $END
  -3.084363e+03   1.435130e+02
  -2.268218e+03  -1.457559e+03
  -1.820925e+02  -2.121363e+03
   1.274675e+03  -1.346908e+03
   1.071503e+03  -1.475752e+02
   1.927350e+01   3.701063e+02
  -4.964143e+02  -1.248711e+01
  -1.726487e+02  -5.920033e+02
   3.918450e+02  -6.583924e+02
   6.534696e+02  -1.552333e+02
   4.822045e+02   5.233177e+02
   6.122386e+01   6.829862e+02
  -3.142676e+02   2.512298e+02
  -3.189521e+02  -3.875422e+02
   5.641086e+01  -5.722160e+02
   3.871149e+02  -1.119275e+02
   3.327366e+02   4.628405e+02
  -9.921452e+01   6.206100e+02
  -4.754022e+02   2.879534e+02
  -4.514031e+02  -1.797043e+02
  -1.434909e+02  -3.723876e+02
   1.146059e+02  -2.680863e+02
   8.794090e+01  -1.034997e+02
  -1.215358e+02  -9.261385e+01
  -2.350439e+02  -2.149169e+02
  -1.438973e+01  -3.036205e+02
   3.967818e+02  -1.851084e+02
   5.853874e+02   1.024627e+02
   2.775789e+02   3.218668e+02
  -2.382658e+02   2.533034e+02
  -4.815665e+02  -4.726065e+01
  -2.228980e+02  -3.138996e+02
   2.023524e+02  -3.543106e+02
   4.170483e+02  -1.532328e+02
   3.224286e+02   1.308160e+02
   1.159166e+02   2.995317e+02
  -2.050021e+01   2.104492e+02
  -5.920652e+00  -5.872745e+01
   1.361151e+02  -1.625423e+02
   1.866046e+02   8.058832e+01
   6.095972e+01   4.465069e+02
  -1.907681e+02   4.447971e+02
  -3.290360e+02   3.926011e+01
  -1.710629e+02  -2.877401e+02
   1.167194e+02  -1.742798e+02
   1.955277e+02   2.239998e+02
  -6.971511e+01   3.682560e+02
  -4.122315e+02   7.940721e+01
  -4.773802e+02  -3.242450e+02
  -1.758460e+02  -4.629780e+02
   2.621075e+02  -2.829236e+02
   4.975590e+02   1.907745e+01
   3.602165e+02   2.224905e+02
  -1.369549e+01   2.482472e+02
  -2.840219e+02   1.163228e+02
  -2.414097e+02  -2.775250e+01
  -1.468391e+01  -4.880400e+01
   6.769793e+01   3.936211e+01
  -7.434758e+01   7.534490e+01
  -2.291300e+02  -2.572317e+01
  -1.453791e+02  -1.841274e+02
   1.367778e+02  -2.486156e+02
   3.258323e+02  -1.270550e+02
   2.382903e+02   8.806198e+01
  -3.218239e+01   2.857795e+02
  -2.709741e+02   3.286971e+02
  -3.285329e+02   1.606281e+02
  -2.238245e+02  -1.309978e+02
  -6.137545e+01  -3.298547e+02
   2.570300e+01  -3.125070e+02
   3.020970e+01  -1.719505e+02
   4.557806e+01  -9.437329e+01
   1.235678e+02  -9.474000e+01
   2.181465e+02  -5.167706e+01
   2.216894e+02   9.833591e+01
   9.713413e+01   2.317756e+02
  -7.320882e+01   1.840462e+02
  -1.730126e+02  -2.561331e+01
  -1.348738e+02  -2.180833e+02
   3.109292e+01  -2.328430e+02
   2.226401e+02  -7.119044e+01
   2.911600e+02   1.465317e+02
   1.719386e+02   2.767399e+02
  -3.567017e+01   2.585805e+02
  -1.593572e+02   1.564630e+02
  -1.474424e+02   7.354225e+01
  -1.460144e+02   5.784571e+01
  -2.530537e+02   3.412491e+01
  -3.779420e+02  -8.111843e+01
  -3.020457e+02  -2.709781e+02
   1.849955e+01  -4.091873e+02
   3.487120e+02  -3.786395e+02
   4.486020e+02  -1.724806e+02
   2.787143e+02   8.518619e+01
   3.389172e+01   2.344427e+02
  -7.706848e+01   1.957275e+02
  -1.695499e+01   4.748799e+01
   9.789828e+01  -3.772740e+01
   1.213534e+02   2.526366e+01
   1.966652e+01   1.335980e+02
  -9.954564e+01   1.133635e+02
  -1.101691e+02  -3.685135e+01
   1.077684e+01  -1.305804e+02
   1.436783e+02  -1.503177e+01
   1.498065e+02   2.156670e+02
  -1.061806e+01   3.288602e+02
  -2.255519e+02   2.010849e+02
  -3.391428e+02  -5.605419e+01
  -2.648901e+02  -2.452912e+02
  -6.041444e+01  -2.492357e+02
   1.133202e+02  -1.273060e+02
   1.360683e+02  -1.158613e+01
   3.321309e+01   7.171774e+00
  -4.542730e+01  -5.767333e+01
  -8.741636e-01  -1.023799e+02
   1.121984e+02  -6.628021e+01
   1.398568e+02   1.538849e+01
   3.538046e+01   4.827659e+01
  -7.335989e+01  -9.717165e+00
  -3.677212e+01  -8.402200e+01
   1.402560e+02  -8.154895e+01
   2.828947e+02   1.805487e+01
   2.447995e+02   1.562689e+02
   3.501695e+01   2.445474e+02
  -1.882703e+02   2.243772e+02
  -2.534333e+02   1.002079e+02
  -1.381254e+02  -3.764811e+01
   1.969212e+01  -7.792471e+01
   6.038939e+01  -1.747815e+00
  -4.450400e+01   7.499834e+01
  -1.697631e+02   3.767608e+01
  -1.789735e+02  -9.375423e+01
  -5.949968e+01  -1.783681e+02
   7.901078e+01  -1.337391e+02
   1.202682e+02  -2.006411e+01
   4.667485e+01   3.338877e+01
  -3.744545e+01  -1.902374e+01
  -2.501416e+01  -1.025527e+02
   8.952586e+01  -1.108768e+02
   1.963239e+02  -1.342203e+01
   1.705830e+02   1.227945e+02
   1.471033e+01   1.935520e+02
  -1.427322e+02   1.435359e+02
  -1.646198e+02   1.522494e+01
  -5.729770e+01  -8.766797e+01
   5.352762e+01  -9.183739e+01
   6.454046e+01  -2.610173e+01
   1.953441e+00   2.088014e+01
  -3.286785e+01   5.648258e+00
   1.135812e+01  -2.531131e+01
   8.572294e+01  -3.488938e-01
   1.011314e+02   8.852150e+01
   1.320333e+01   1.669591e+02
  -1.308354e+02   1.492675e+02
  -2.257405e+02   1.639956e+01
  -1.881206e+02  -1.440124e+02
  -4.394014e+01  -2.164773e+02
   9.098089e+01  -1.563803e+02
   1.217769e+02  -3.245876e+01
   7.038329e+01   4.237644e+01
   3.277728e+01   2.803583e+01
   5.364070e+01  -1.514657e+01
   8.538137e+01  -8.848004e+00
   5.614778e+01   5.531588e+01
  -3.637235e+01   1.035542e+02
  -1.163908e+02   6.698390e+01
  -1.026398e+02  -4.125737e+01
   1.412062e+01  -1.226537e+02
   1.517308e+02  -8.629397e+01
   1.923643e+02   5.841178e+01
   8.142681e+01   1.963494e+02
  -1.120575e+02   2.065381e+02
  -2.448960e+02   8.036482e+01
  -2.288830e+02  -7.886321e+01
  -9.852644e+01  -1.544388e+02
   3.273947e+01  -1.295256e+02
   8.089935e+01  -7.626807e+01
   6.441874e+01  -6.748642e+01
   5.352880e+01  -9.256932e+01
   8.420541e+01  -8.021641e+01
   1.261313e+02   1.282616e+01
   1.190643e+02   1.421493e+02
   3.392055e+01   2.155491e+02
  -9.045773e+01   1.620815e+02
  -1.601582e+02   1.729977e+01
  -1.217927e+02  -1.151021e+02
  -1.321451e+01  -1.443847e+02
   6.550713e+01  -7.631762e+01
   5.488637e+01   1.155000e+01
  -4.954079e+00   4.764634e+01
  -2.451403e+01   3.068718e+01
   2.724502e+01   7.037468e+00
   8.248842e+01   1.432463e+01
   5.074074e+01   3.861111e+01
  -6.594768e+01   3.962848e+01
  -1.625949e+02   5.697820e-01
  -1.406256e+02  -5.836810e+01
  -3.217441e+00  -9.211975e+01
   1.245758e+02  -7.139975e+01
   1.377689e+02  -7.140503e+00
   4.417437e+01   4.782896e+01
  -5.684923e+01   4.320035e+01
  -7.412438e+01  -1.608883e+01
  -1.842431e+01  -7.107157e+01
   4.490672e+01  -6.490204e+01
   6.545976e+01  -2.708858e+00
   5.385345e+01   4.782009e+01
   4.600442e+01   4.174831e+01
   5.226822e+01  -3.442048e-01
   6.178057e+01  -2.333939e+00
   4.368132e+01   6.705911e+01
  -2.357526e+01   1.467869e+02
  -1.151503e+02   1.419095e+02
  -1.693298e+02   3.320548e+01
  -1.253689e+02  -8.852370e+01
  -5.367720e+00  -1.259221e+02
   8.740018e+01  -6.595822e+01
   6.034970e+01   1.115829e+01
  -5.408469e+01   2.145422e+01
  -1.274866e+02  -3.750907e+01
  -6.889488e+01  -9.917823e+01
   7.525689e+01  -1.031124e+02
   1.745662e+02  -4.374783e+01
   1.433499e+02   3.423849e+01
   2.994781e+01   7.767897e+01
  -5.611842e+01   5.851876e+01
  -4.374067e+01  -6.115693e-02
   3.756051e+01  -2.906234e+01
   8.716787e+01   1.548267e+01
   4.059516e+01   1.078199e+02
  -7.062145e+01   1.504139e+02
  -1.464650e+02   7.225588e+01
  -1.223160e+02  -8.181221e+01
  -2.050013e+01  -1.796129e+02
   7.315543e+01  -1.333293e+02
   9.797454e+01   9.498421e+00
   5.377055e+01   1.121341e+02
  -1.122119e+01   9.609700e+01
  -4.843441e+01   1.337359e+01
  -4.408457e+01  -2.944217e+01
  -1.647140e+01  -6.259581e+00
  -4.204196e+00   1.579531e+01
  -2.739967e+01  -2.087020e+01
  -5.650508e+01  -8.296474e+01
  -3.417466e+01  -9.700323e+01
   4.945558e+01  -3.939829e+01
   1.292762e+02   3.122553e+01
   1.191163e+02   5.967704e+01
   1.795174e+01   5.053282e+01
  -7.742446e+01   2.757450e+01
  -8.154096e+01   7.293610e+00
  -1.573925e+01  -1.156783e+01
   3.247157e+01  -2.272083e+01
   1.675102e+01  -1.225704e+01
  -1.466929e+01   5.989481e+00
   3.435432e+00   5.959952e+00
   6.314877e+01  -3.076368e+00
   8.903739e+01   1.705381e+01
   2.213792e+01   7.780850e+01
  -9.787224e+01   1.170928e+02
  -1.772194e+02   6.959680e+01
  -1.477112e+02  -5.140250e+01
  -3.697027e+01  -1.509241e+02
   7.033596e+01  -1.478872e+02
   1.087436e+02  -6.602431e+01
   7.817271e+01   1.458882e+01
   2.691770e+01   3.528578e+01
   6.060451e-01   1.352083e+01
   9.401664e+00   8.030353e+00
   2.799272e+01   4.341339e+01
   2.049369e+01   8.260264e+01
  -2.374294e+01   6.841087e+01
  -7.514375e+01  -1.045951e+01
  -8.174421e+01  -9.418861e+01
  -1.801232e+01  -1.070132e+02
   7.142964e+01  -3.406353e+01
   1.049912e+02   5.881769e+01
   4.184495e+01   9.782183e+01
  -5.964923e+01   6.312729e+01
  -9.917714e+01  -5.222758e+00
  -4.387641e+01  -5.382593e+01
   3.139883e+01  -5.809987e+01
   3.691508e+01  -2.655487e+01
  -2.682517e+01   8.300545e+00
  -6.567081e+01   9.768165e+00
  -1.796134e+01  -2.611944e+01
   7.043931e+01  -6.312450e+01
   1.093787e+02  -5.383967e+01
   6.565968e+01   1.320156e+01
  -8.752114e+00   7.961162e+01
  -4.970708e+01   7.903584e+01
  -4.145863e+01   1.240876e+01
  -9.960907e+00  -5.050418e+01
   2.058526e+01  -4.705661e+01
   3.631373e+01   7.936004e+00
   2.901343e+01   5.086738e+01
  -1.073732e+00   3.844268e+01
  -3.351461e+01  -3.890183e+00
  -4.009663e+01  -2.358980e+01
  -1.859111e+01  -4.201303e+00
   4.526433e+00   1.887052e+01
   5.447934e+00   7.292099e+00
  -4.716201e+00  -3.087740e+01
   9.405426e-01  -5.112675e+01
   2.760531e+01  -2.207051e+01
   4.028713e+01   3.456360e+01
   1.289257e+01   5.866161e+01
  -3.752656e+01   2.725166e+01
  -6.050860e+01  -2.960846e+01
  -2.084046e+01  -5.751948e+01
   5.171157e+01  -3.611882e+01
   8.912734e+01   7.888543e+00
   5.072617e+01   3.982245e+01
  -2.611007e+01   4.425892e+01
  -6.302047e+01   2.853375e+01
  -2.792164e+01   7.105626e+00
   2.757021e+01  -4.596962e+00
   3.301753e+01   4.591414e+00
  -2.077428e+01   2.495623e+01
  -7.321120e+01   2.284465e+01
