
 $NMID
 id='ANONYMOUS ', fmtdat='(2E16.6)'
 volume=1.0
 tramp=1.0
 $END
   3.815351e+03  -1.042430e+02
   2.386496e+03   2.160000e+03
  -4.211838e+02   2.534964e+03
  -1.828065e+03   1.081771e+03
  -1.017598e+03  -3.858048e+02
   4.300851e+02  -5.469595e+02
   7.589402e+02   2.836230e+02
   7.098666e+01   9.022432e+02
  -6.917343e+02   7.391428e+02
  -8.362356e+02  -2.106715e+01
  -4.936164e+02  -7.596908e+02
   1.498787e+02  -8.172377e+02
   5.486289e+02  -1.530248e+02
   3.562615e+02   6.077486e+02
  -2.137728e+02   6.694485e+02
  -5.636688e+02   4.456204e+00
  -2.909123e+02  -6.178042e+02
   2.640473e+02  -6.355622e+02
   5.693395e+02  -1.627110e+02
   4.253678e+02   3.016950e+02
   5.660010e+01   4.270695e+02
  -2.147254e+02   2.747017e+02
  -1.881144e+02   3.310702e+01
   1.047537e+02  -3.774021e+01
   3.420489e+02   1.268384e+02
   1.417975e+02   3.689003e+02
  -4.058878e+02   3.280243e+02
  -7.162866e+02  -6.854806e+01
  -3.682302e+02  -4.571648e+02
   3.287400e+02  -4.069858e+02
   6.486151e+02   2.375556e+01
   3.123690e+02   4.244436e+02
  -2.457438e+02   4.611702e+02
  -5.183330e+02   1.860726e+02
  -3.859513e+02  -2.050180e+02
  -8.162740e+01  -4.182510e+02
   1.537090e+02  -2.559156e+02
   1.307015e+02   1.728498e+02
  -1.563326e+02   3.727498e+02
  -3.628617e+02  -2.538242e+01
  -1.885828e+02  -5.792652e+02
   2.634715e+02  -6.084167e+02
   5.151958e+02  -2.005245e+01
   2.370574e+02   4.645707e+02
  -2.222638e+02   2.803822e+02
  -3.283853e+02  -2.715354e+02
   5.352837e+01  -4.845366e+02
   4.935627e+02  -1.325625e+02
   5.487838e+02   3.580124e+02
   1.741591e+02   5.388103e+02
  -3.353740e+02   3.315051e+02
  -5.797328e+02  -5.054619e+01
  -3.683228e+02  -3.275269e+02
   1.091944e+02  -3.230396e+02
   3.887562e+02  -7.450758e+01
   2.422764e+02   1.357448e+02
  -7.376572e+01   9.247481e+01
  -1.265359e+02  -1.104185e+02
   1.279472e+02  -1.513075e+02
   3.108944e+02   4.676678e+01
   1.504431e+02   2.588227e+02
  -1.716780e+02   2.552526e+02
  -3.277460e+02   9.470612e+01
  -2.071579e+02  -8.805633e+01
   2.835159e+01  -2.430289e+02
   2.280149e+02  -3.221929e+02
   3.202800e+02  -1.943974e+02
   2.616003e+02   1.287657e+02
   7.620064e+01   3.970073e+02
  -8.102150e+01   3.553837e+02
  -9.291595e+01   1.300633e+02
  -3.701260e+01   1.680963e+01
  -6.367021e+01   8.146938e+01
  -1.848174e+02   1.040454e+02
  -2.505179e+02  -5.880680e+01
  -1.397876e+02  -2.461589e+02
   6.440873e+01  -2.298921e+02
   2.089313e+02  -3.635892e+00
   1.814826e+02   2.280200e+02
  -1.152913e+01   2.722185e+02
  -2.469362e+02   1.065634e+02
  -3.379739e+02  -1.490844e+02
  -1.848328e+02  -3.185506e+02
   7.699311e+01  -2.896617e+02
   2.089675e+02  -1.379407e+02
   1.505146e+02  -2.181132e+01
   9.929983e+01  -3.241715e+01
   2.138796e+02  -5.103365e+01
   3.735100e+02   5.259949e+01
   3.142026e+02   2.609446e+02
  -1.731483e+00   4.150256e+02
  -3.328010e+02   3.855393e+02
  -4.480171e+02   1.910942e+02
  -3.017199e+02  -8.445636e+01
  -4.990737e+01  -2.693969e+02
   1.053243e+02  -2.326212e+02
   6.352241e+01  -3.276170e+01
  -9.499168e+01   9.530466e+01
  -1.682621e+02  -1.649385e+00
  -4.948181e+01  -1.720053e+02
   1.324215e+02  -1.589700e+02
   1.539803e+02   4.154200e+01
  -5.774970e+00   1.681530e+02
  -1.700622e+02   3.331599e+01
  -1.583437e+02  -2.257411e+02
   1.948790e+01  -3.319376e+02
   2.212587e+02  -1.895486e+02
   3.227507e+02   5.952508e+01
   2.673081e+02   2.332484e+02
   7.859035e+01   2.523973e+02
  -1.139144e+02   1.502882e+02
  -1.657424e+02   2.011275e+01
  -5.016392e+01  -2.697642e+01
   6.332794e+01   3.809239e+01
   2.540370e+01   1.119381e+02
  -1.121105e+02   8.812527e+01
  -1.609998e+02  -1.012569e+01
  -5.294199e+01  -6.048248e+01
   7.325912e+01  -9.659923e+00
   4.849270e+01   7.128367e+01
  -1.226585e+02   8.136336e+01
  -2.688685e+02  -5.513637e+00
  -2.468736e+02  -1.365238e+02
  -5.128866e+01  -2.402303e+02
   1.726176e+02  -2.413041e+02
   2.631135e+02  -1.180340e+02
   1.575554e+02   4.616144e+01
  -1.756536e+01   1.002734e+02
  -7.809103e+01   1.079251e+01
   3.022210e+01  -9.106839e+01
   1.784907e+02  -5.591095e+01
   1.980330e+02   9.050050e+01
   6.785480e+01   1.916959e+02
  -8.494754e+01   1.485154e+02
  -1.321229e+02   2.900238e+01
  -6.280892e+01  -3.703265e+01
   2.788624e+01   4.199023e-01
   3.219493e+01   8.128445e+01
  -7.145340e+01   1.065464e+02
  -1.856068e+02   2.669479e+01
  -1.784232e+02  -1.141959e+02
  -2.168301e+01  -2.035338e+02
   1.508920e+02  -1.556836e+02
   1.809398e+02  -1.081284e+01
   6.568400e+01   1.042633e+02
  -5.708351e+01   1.051669e+02
  -7.491853e+01   3.014557e+01
  -1.520254e+01  -2.239813e+01
   2.255258e+01  -1.364649e+01
  -1.225384e+01   1.428623e+01
  -7.395861e+01  -6.769391e+00
  -8.749301e+01  -8.048331e+01
  -1.331270e+01  -1.518610e+02
   1.195534e+02  -1.437379e+02
   2.169622e+02  -2.550444e+01
   1.897817e+02   1.356009e+02
   4.681963e+01   2.191458e+02
  -9.576525e+01   1.624015e+02
  -1.276632e+02   3.158125e+01
  -7.157242e+01  -4.919480e+01
  -2.991970e+01  -3.359023e+01
  -5.036834e+01   1.063192e+01
  -7.672056e+01   4.340569e+00
  -4.306932e+01  -4.941717e+01
   3.814662e+01  -8.701300e+01
   1.002104e+02  -5.471019e+01
   8.536971e+01   3.521383e+01
  -1.336049e+01   1.074172e+02
  -1.363905e+02   8.216080e+01
  -1.874669e+02  -4.964823e+01
  -9.208547e+01  -1.906159e+02
   1.019300e+02  -2.124944e+02
   2.493512e+02  -8.873012e+01
   2.414242e+02   8.061376e+01
   1.038811e+02   1.662253e+02
  -3.640991e+01   1.386534e+02
  -8.563911e+01   7.880301e+01
  -7.111835e+01   6.410923e+01
  -5.883910e+01   8.475553e+01
  -8.467823e+01   7.078783e+01
  -1.219627e+02  -1.650576e+01
  -1.132791e+02  -1.408606e+02
  -3.155330e+01  -2.120127e+02
   8.848676e+01  -1.635533e+02
   1.627417e+02  -2.191812e+01
   1.287393e+02   1.132332e+02
   1.990968e+01   1.487817e+02
  -6.329864e+01   8.335222e+01
  -5.635394e+01  -4.704284e+00
  -1.234496e-01  -4.200267e+01
   1.718832e+01  -2.902670e+01
  -3.154847e+01  -1.136459e+01
  -7.842770e+01  -1.997651e+01
  -4.672991e+01  -3.797873e+01
   6.043234e+01  -3.808459e+01
   1.539247e+02  -4.079047e+00
   1.376907e+02   4.951712e+01
   9.914540e+00   8.579910e+01
  -1.154857e+02   7.105299e+01
  -1.348596e+02   1.248197e+01
  -4.506799e+01  -4.114112e+01
   5.536141e+01  -3.843994e+01
   7.219514e+01   1.701605e+01
   1.044324e+01   6.883966e+01
  -5.136051e+01   5.883068e+01
  -6.253970e+01  -2.225761e+00
  -4.407198e+01  -5.073737e+01
  -4.089841e+01  -3.929811e+01
  -5.296497e+01   9.848458e-01
  -6.094087e+01   1.196209e+00
  -3.692425e+01  -6.722221e+01
   2.638566e+01  -1.410819e+02
   1.103994e+02  -1.343657e+02
   1.593881e+02  -3.156633e+01
   1.190882e+02   8.595954e+01
   5.974028e+00   1.206966e+02
  -8.329054e+01   6.130108e+01
  -5.803333e+01  -1.309831e+01
   5.334948e+01  -2.110823e+01
   1.263632e+02   3.731139e+01
   7.097750e+01   9.747703e+01
  -7.302079e+01   1.052798e+02
  -1.745926e+02   5.026632e+01
  -1.478386e+02  -2.871039e+01
  -3.488918e+01  -7.827116e+01
   5.433694e+01  -6.498019e+01
   4.322274e+01  -6.269857e+00
  -3.675057e+01   2.663915e+01
  -8.668537e+01  -1.742572e+01
  -3.554049e+01  -1.105871e+02
   7.914333e+01  -1.481350e+02
   1.513282e+02  -6.494691e+01
   1.200262e+02   8.992341e+01
   1.362858e+01   1.854032e+02
  -7.775669e+01   1.338357e+02
  -9.793977e+01  -7.497729e+00
  -5.660143e+01  -1.107665e+02
   3.704729e+00  -9.803543e+01
   4.441924e+01  -1.780928e+01
   4.884408e+01   2.654791e+01
   2.136767e+01   5.787104e+00
   3.188148e+00  -1.826824e+01
   2.393632e+01   1.588305e+01
   5.699172e+01   8.240082e+01
   3.904636e+01   1.020642e+02
  -4.888319e+01   4.471003e+01
  -1.317440e+02  -3.294730e+01
  -1.199765e+02  -6.471604e+01
  -1.519675e+01  -4.787876e+01
   8.027401e+01  -2.322450e+01
   8.037237e+01  -7.023523e+00
   9.638308e+00   8.525294e+00
  -3.483818e+01   2.027929e+01
  -1.292619e+01   1.319728e+01
   2.053275e+01  -2.930456e+00
  -3.895409e+00  -4.697765e+00
  -6.829821e+01   3.264873e+00
  -8.909942e+01  -2.089719e+01
  -1.501097e+01  -7.822328e+01
   1.047490e+02  -1.132310e+02
   1.755541e+02  -6.066325e+01
   1.368193e+02   5.916187e+01
   2.807399e+01   1.519795e+02
  -7.206879e+01   1.428522e+02
  -1.076461e+02   5.820339e+01
  -7.618698e+01  -2.053928e+01
  -2.379906e+01  -3.552362e+01
   1.786075e+00  -1.012813e+01
  -1.055989e+01  -3.793541e+00
  -3.095823e+01  -4.261865e+01
  -2.193498e+01  -8.486723e+01
   2.618408e+01  -6.783623e+01
   7.685457e+01   1.537523e+01
   7.625659e+01   1.001404e+02
   8.862658e+00   1.066762e+02
  -7.673338e+01   2.716917e+01
  -1.013342e+02  -6.583155e+01
  -3.489107e+01  -9.690568e+01
   6.179975e+01  -5.612153e+01
   9.441321e+01   8.120912e+00
   3.930699e+01   4.911804e+01
  -3.124216e+01   5.097180e+01
  -3.156564e+01   2.430295e+01
   3.082769e+01  -4.808119e+00
   6.578087e+01  -7.613510e+00
   1.607698e+01   2.596668e+01
  -7.164215e+01   6.397721e+01
  -1.088168e+02   5.557246e+01
  -6.203310e+01  -1.145199e+01
   1.299312e+01  -7.775380e+01
   5.042934e+01  -7.447497e+01
   3.714830e+01  -6.753810e+00
   3.163099e+00   5.043755e+01
  -2.401250e+01   3.996087e+01
  -3.366833e+01  -1.580263e+01
  -2.413762e+01  -5.026477e+01
   2.754591e+00  -3.294213e+01
   3.119315e+01   6.493611e+00
   3.863186e+01   2.113878e+01
   2.091905e+01   1.995974e+00
  -8.216220e-01  -1.469356e+01
  -5.830743e+00   1.797911e-01
  -2.970423e+00   3.457223e+01
  -1.114326e+01   4.575732e+01
  -3.074460e+01   1.071169e+01
  -3.332711e+01  -4.254739e+01
  -2.174104e+00  -6.005482e+01
   4.301022e+01  -2.184569e+01
   5.730268e+01   3.592474e+01
   1.697948e+01   5.830562e+01
  -5.134512e+01   3.362678e+01
  -8.519405e+01  -1.115597e+01
  -4.767174e+01  -3.954656e+01
   2.653503e+01  -4.072314e+01
   6.067581e+01  -2.349938e+01
   2.299587e+01  -4.481143e+00
  -3.386370e+01   1.012222e+00
  -3.483635e+01  -1.253483e+01
   2.687155e+01  -3.067452e+01
   8.210731e+01  -2.234629e+01
