
 $NMID
 id='ANONYMOUS ', fmtdat='(2E16.6)'
 volume=1.0
 tramp=1.0
 $END
   3.795476e+07  -1.631018e+06
   2.458070e+07   2.067104e+07
  -2.330862e+06   2.531268e+07
  -1.738002e+07   1.261343e+07
  -1.209672e+07  -2.164277e+06
   9.434887e+05  -6.524342e+06
   6.952780e+06  -8.687380e+05
   3.441425e+06   6.287194e+06
  -3.061460e+06   7.811020e+06
  -6.603764e+06   2.733338e+06
  -5.393832e+06  -4.199227e+06
  -9.181723e+05  -6.495264e+06
   2.943229e+06  -1.928389e+06
   2.372479e+06   4.540615e+06
  -2.190749e+06   5.633797e+06
  -5.681796e+06  -1.172168e+05
  -3.885388e+06  -6.927568e+06
   1.908080e+06  -8.566337e+06
   6.791493e+06  -4.468338e+06
   7.409516e+06   1.334705e+06
   4.261992e+06   4.977825e+06
   3.602574e+05   5.298910e+06
  -1.233735e+06   3.548402e+06
   1.619680e+05   2.148925e+06
   1.763573e+06   2.687221e+06
  -2.984841e+04   4.037551e+06
  -4.843849e+06   3.421789e+06
  -7.783148e+06   9.679364e+04
  -5.208899e+06  -3.248152e+06
   4.214862e+05  -3.703268e+06
   3.483307e+06  -1.505860e+06
   1.873352e+06   8.338952e+05
  -1.455041e+06   1.498614e+06
  -2.955675e+06   2.906913e+05
  -2.008857e+06  -2.004167e+06
  -2.092871e+04  -3.639725e+06
   1.578493e+06  -2.627694e+06
   1.820747e+06   6.243916e+05
   6.054591e+05   2.531881e+06
  -5.759941e+05   5.550992e+05
   8.917157e+04  -2.637507e+06
   1.965622e+06  -2.167787e+06
   2.084607e+06   2.000693e+06
  -8.598607e+05   4.331344e+06
  -4.045124e+06   1.128609e+06
  -3.581940e+06  -4.259094e+06
   7.200980e+05  -5.732654e+06
   5.033270e+06  -1.939960e+06
   5.594698e+06   2.909756e+06
   2.111491e+06   4.552485e+06
  -2.450628e+06   2.596454e+06
  -4.472178e+06  -5.497457e+05
  -2.509390e+06  -2.402451e+06
   1.378234e+06  -1.871773e+06
   3.343018e+06   2.401160e+05
   1.708046e+06   1.725021e+06
  -1.105608e+06   1.081556e+06
  -1.573729e+06  -6.322443e+05
   4.869643e+05  -1.047498e+06
   1.893054e+06   4.229717e+05
   4.163804e+05   1.923330e+06
  -2.477058e+06   1.660860e+06
  -3.695763e+06  -2.196611e+05
  -2.003685e+06  -2.471365e+06
   1.298894e+06  -4.005356e+06
   4.082444e+06  -3.825147e+06
   4.853420e+06  -1.280169e+06
   3.345102e+06   2.529496e+06
   7.483218e+05   4.812467e+06
  -1.000749e+06   3.942691e+06
  -1.030280e+06   1.551583e+06
  -4.362595e+05   4.526115e+05
  -7.696516e+05   1.028419e+06
  -1.975327e+06   1.172341e+06
  -2.567162e+06  -3.639846e+05
  -1.594403e+06  -2.167025e+06
   3.240134e+05  -2.143306e+06
   1.779100e+06  -1.420662e+05
   1.706730e+06   2.055765e+06
  -3.704789e+04   2.660154e+06
  -2.401122e+06   1.259239e+06
  -3.529387e+06  -1.135775e+06
  -2.356632e+06  -2.895914e+06
   3.712321e+04  -3.001377e+06
   1.498611e+06  -1.907867e+06
   1.412694e+06  -9.731560e+05
   1.311200e+06  -8.321793e+05
   2.454787e+06  -7.242554e+05
   3.782013e+06   3.411790e+05
   3.181755e+06   2.198210e+06
   3.201855e+05   3.639056e+06
  -2.750181e+06   3.578904e+06
  -3.752726e+06   1.879877e+06
  -2.327888e+06  -5.292526e+05
  -5.497939e+04  -2.070338e+06
   1.121418e+06  -1.646105e+06
   4.778275e+05   1.047298e+05
  -9.990979e+05   1.163893e+06
  -1.615047e+06   3.922426e+05
  -7.360771e+05  -9.953563e+05
   5.044789e+05  -1.025189e+06
   5.585383e+05   2.928164e+05
  -6.540023e+05   9.090768e+05
  -1.672998e+06  -4.807994e+05
  -1.211571e+06  -2.647604e+06
   5.715227e+05  -3.325051e+06
   2.469927e+06  -1.771508e+06
   3.306203e+06   7.347214e+05
   2.561242e+06   2.434082e+06
   6.451671e+05   2.516081e+06
  -1.131209e+06   1.392343e+06
  -1.463890e+06   2.103994e+05
  -4.455806e+05  -2.245333e+04
   3.584070e+05   6.534858e+05
  -2.556696e+05   1.149419e+06
  -1.560562e+06   5.835431e+05
  -1.795431e+06  -5.990824e+05
  -4.610617e+05  -1.161498e+06
   9.931049e+05  -5.968921e+05
   9.117469e+05   3.535123e+05
  -6.641738e+05   6.580598e+05
  -2.098856e+06   5.654920e+03
  -1.869261e+06  -1.131534e+06
   9.398311e+03  -1.942113e+06
   2.027517e+06  -1.716203e+06
   2.509942e+06  -4.030930e+05
   1.132231e+06   1.029929e+06
  -7.239526e+05   1.292519e+06
  -1.284731e+06   2.073914e+05
  -1.639767e+05  -9.049122e+05
   1.309914e+06  -7.019930e+05
   1.584923e+06   5.772434e+05
   4.717148e+05   1.455364e+06
  -8.534832e+05   1.022295e+06
  -1.169180e+06  -1.028100e+05
  -3.439735e+05  -6.474559e+05
   6.526795e+05  -9.947503e+04
   6.782203e+05   9.003388e+05
  -4.870986e+05   1.285932e+06
  -1.794431e+06   5.331468e+05
  -1.854799e+06  -8.810548e+05
  -4.281718e+05  -1.833725e+06
   1.189378e+06  -1.534345e+06
   1.527059e+06  -3.000950e+05
   5.292935e+05   7.370394e+05
  -5.350076e+05   7.769352e+05
  -6.246700e+05   9.277951e+04
   3.870515e+04  -4.296828e+05
   5.117554e+05  -3.181050e+05
   2.810939e+05   7.491782e+04
  -3.151969e+05   9.026528e+04
  -5.401822e+05  -4.645509e+05
   5.337318e+04  -1.054324e+06
   1.175785e+06  -8.867614e+05
   1.891669e+06   2.699902e+05
   1.395085e+06   1.684677e+06
  -9.634488e+04   2.217131e+06
  -1.410645e+06   1.420678e+06
  -1.607530e+06   1.961931e+04
  -9.331020e+05  -8.414646e+05
  -3.587118e+05  -7.514622e+05
  -3.526486e+05  -2.919972e+05
  -4.665555e+05  -2.207641e+05
  -9.470255e+04  -6.144964e+05
   7.171950e+05  -8.695187e+05
   1.314836e+06  -4.152935e+05
   1.062560e+06   6.260487e+05
  -1.070633e+05   1.421435e+06
  -1.519686e+06   1.110050e+06
  -2.090787e+06  -3.223643e+05
  -1.167437e+06  -1.830692e+06
   7.287280e+05  -2.171024e+06
   2.188383e+06  -1.097934e+06
   2.192960e+06   4.027741e+05
   1.050206e+06   1.160790e+06
  -7.173421e+04   9.715477e+05
  -4.045704e+05   5.832513e+05
  -1.828592e+05   6.779470e+05
  -1.137456e+05   1.101197e+06
  -5.317368e+05   1.125431e+06
  -1.112646e+06   3.175098e+05
  -1.233284e+06  -9.329068e+05
  -5.694465e+05  -1.697979e+06
   5.172993e+05  -1.326705e+06
   1.172076e+06  -6.930718e+04
   8.109953e+05   1.084777e+06
  -2.277916e+05   1.269203e+06
  -9.522939e+05   4.927048e+05
  -7.473646e+05  -4.728357e+05
  -1.626928e+04  -9.043588e+05
   3.432793e+05  -7.400082e+05
   1.346271e+04  -4.223206e+05
  -3.864873e+05  -3.113655e+05
  -5.683044e+04  -3.551722e+05
   9.922272e+05  -2.496892e+05
   1.826140e+06   1.960015e+05
   1.503228e+06   8.343324e+05
   8.907902e+04   1.245994e+06
  -1.313375e+06   1.070936e+06
  -1.615428e+06   3.741270e+05
  -7.957286e+05  -3.224781e+05
   1.791825e+05  -4.822611e+05
   4.361619e+05  -8.696705e+04
   1.526057e+04   3.278049e+05
  -4.200846e+05   2.371721e+05
  -4.393281e+05  -2.926698e+05
  -1.938935e+05  -6.661966e+05
  -4.509740e+04  -4.371539e+05
  -1.262611e+05   1.366709e+05
  -2.891760e+05   3.338693e+05
  -2.709708e+05  -1.917047e+05
   1.197227e+05  -9.229676e+05
   7.691258e+05  -9.894040e+05
   1.152706e+06  -1.672991e+05
   7.331154e+05   8.000025e+05
  -3.330972e+05   9.887406e+05
  -1.085403e+06   2.924089e+05
  -6.789020e+05  -5.112362e+05
   5.935755e+05  -6.286222e+05
   1.471887e+06  -1.402066e+04
   1.031960e+06   7.226354e+05
  -3.350270e+05   9.679587e+05
  -1.355375e+06   5.855475e+05
  -1.183433e+06  -7.449104e+04
  -1.760710e+05  -4.755392e+05
   5.706411e+05  -3.007991e+05
   3.401011e+05   2.328198e+05
  -5.408619e+05   4.692339e+05
  -1.074564e+06  -7.227651e+04
  -6.030222e+05  -1.073022e+06
   5.348208e+05  -1.551888e+06
   1.348635e+06  -8.251123e+05
   1.172299e+06   6.642361e+05
   2.470941e+05   1.641276e+06
  -6.254586e+05   1.242756e+06
  -8.620664e+05  -8.750879e+04
  -4.795922e+05  -1.065751e+06
   1.127475e+05  -9.205340e+05
   4.951109e+05  -1.193193e+05
   4.766771e+05   3.338498e+05
   1.943923e+05   1.304885e+05
   2.527866e+04  -1.007699e+05
   2.106734e+05   2.339221e+05
   4.827876e+05   8.524123e+05
   2.643033e+05   9.858152e+05
  -5.839975e+05   3.962244e+05
  -1.375142e+06  -3.681733e+05
  -1.247605e+06  -7.132473e+05
  -2.018015e+05  -6.221215e+05
   8.015532e+05  -4.140057e+05
   9.065218e+05  -2.202527e+05
   2.998293e+05   1.309539e+04
  -1.388537e+05   2.085955e+05
   1.952986e+04   2.092711e+05
   2.925463e+05   9.941744e+04
   3.357647e+04   1.231980e+05
  -6.450708e+05   2.250724e+05
  -9.514379e+05   1.484196e+04
  -3.549936e+05  -6.110318e+05
   7.683303e+05  -1.081758e+06
   1.495534e+06  -7.201943e+05
   1.251216e+06   3.686964e+05
   2.862437e+05   1.282445e+06
  -6.386643e+05   1.269755e+06
  -9.388811e+05   5.008389e+05
  -6.142823e+05  -2.117553e+05
  -1.168822e+05  -3.223172e+05
   9.963225e+04  -3.946938e+04
  -5.873753e+04   4.657280e+04
  -3.072339e+05  -3.112617e+05
  -2.724864e+05  -7.281694e+05
   1.473762e+05  -6.182801e+05
   6.356360e+05   1.125075e+05
   6.870265e+05   8.691639e+05
   9.982523e+04   9.348480e+05
  -7.034707e+05   2.175602e+05
  -9.604529e+05  -6.548771e+05
  -3.332474e+05  -9.807778e+05
   6.332996e+05  -6.170075e+05
   1.005581e+06   3.850728e+04
   4.852145e+05   5.143529e+05
  -2.356755e+05   5.951207e+05
  -3.019699e+05   3.405087e+05
   2.607039e+05   1.099514e+04
   6.007876e+05  -5.474972e+04
   1.332642e+05   2.696995e+05
  -7.284401e+05   6.550601e+05
  -1.099902e+06   5.641105e+05
  -6.678379e+05  -1.085364e+05
   5.931768e+04  -7.839550e+05
   4.436148e+05  -7.871743e+05
   3.502073e+05  -1.380479e+05
   4.970543e+04   4.499291e+05
  -2.092571e+05   3.886086e+05
  -3.299812e+05  -1.506675e+05
  -2.487633e+05  -5.190164e+05
   4.131818e+04  -3.653743e+05
   3.578491e+05   3.923645e+04
   4.334700e+05   2.184102e+05
   2.239289e+05   6.064136e+04
  -2.112295e+04  -1.132658e+05
  -7.477563e+04   1.127325e+04
  -1.601581e+04   3.427862e+05
  -8.418854e+04   4.741693e+05
  -3.036759e+05   1.586783e+05
  -3.950004e+05  -3.655415e+05
  -1.156158e+05  -5.922057e+05
   3.764310e+05  -2.885203e+05
   5.983386e+05   2.505678e+05
   2.386305e+05   5.264716e+05
  -4.412806e+05   3.479041e+05
  -7.920068e+05  -4.989672e+04
  -4.428285e+05  -3.281068e+05
   2.542286e+05  -3.547471e+05
   5.683140e+05  -2.051934e+05
   2.057149e+05  -2.056262e+04
  -3.458284e+05   5.349516e+04
  -3.881052e+05  -7.441575e+04
   1.674878e+05  -2.922000e+05
   7.105819e+05  -2.760389e+05
