
 $NMID
 id='ANONYMOUS ', fmtdat='(2E16.6)'
 volume=1.0
 tramp=1.0
 $END
  -2.445794e+07   6.217922e+05
  -1.712350e+07  -1.058033e+07
  -9.633235e+05  -1.551557e+07
   1.030072e+07  -1.130880e+07
   9.398645e+06  -1.852127e+06
   9.980388e+05   4.573852e+06
  -5.193914e+06   2.792873e+06
  -4.332084e+06  -3.922289e+06
   8.478327e+05  -7.367966e+06
   4.717929e+06  -3.517761e+06
   4.227367e+06   3.217604e+06
   6.008673e+05   5.420336e+06
  -2.470394e+06   1.087956e+06
  -2.067127e+06  -4.620458e+06
   1.382971e+06  -5.496660e+06
   4.309172e+06  -7.425368e+05
   3.397667e+06   4.895272e+06
  -8.981703e+05   6.390259e+06
  -4.707531e+06   3.103736e+06
  -4.822172e+06  -1.401690e+06
  -1.959621e+06  -3.399344e+06
   3.587984e+05  -2.500290e+06
  -1.883026e+05  -1.310727e+06
  -2.285929e+06  -2.051907e+06
  -2.523378e+06  -4.025701e+06
   7.984216e+05  -4.624022e+06
   5.448106e+06  -2.450324e+06
   7.097547e+06   1.105404e+06
   3.779817e+06   3.338088e+06
  -1.612070e+06   2.767048e+06
  -3.982204e+06   1.955604e+05
  -1.401620e+06  -2.135061e+06
   2.889499e+06  -2.208585e+06
   4.297181e+06   2.459614e+05
   1.917816e+06   3.237991e+06
  -1.127660e+06   3.950162e+06
  -1.842744e+06   1.559514e+06
  -4.564548e+05  -1.459862e+06
   7.621574e+05  -1.759036e+06
   4.467444e+05   9.502172e+05
  -8.976425e+05   3.300960e+06
  -2.001116e+06   2.226355e+06
  -1.901294e+06  -1.228663e+06
  -3.749128e+05  -3.081610e+06
   1.636687e+06  -1.174912e+06
   2.179104e+06   2.342691e+06
   1.414527e+04   3.617289e+06
  -3.445549e+06   1.334003e+06
  -4.860080e+06  -2.245446e+06
  -2.385096e+06  -3.962959e+06
   2.018300e+06  -2.730919e+06
   4.396066e+06  -9.707862e+03
   2.860532e+06   1.890455e+06
  -6.458633e+05   1.748176e+06
  -2.627384e+06   1.839667e+05
  -1.609273e+06  -1.088696e+06
   7.215910e+05  -8.632710e+05
   1.625005e+06   4.642211e+05
   2.455435e+05   1.372667e+06
  -1.600390e+06   8.245394e+05
  -1.522295e+06  -6.604841e+05
   6.744737e+05  -1.532094e+06
   2.594719e+06  -7.028608e+05
   1.825757e+06   1.426918e+06
  -1.336214e+06   3.203805e+06
  -4.146951e+06   2.982932e+06
  -4.344281e+06   5.303924e+05
  -2.318101e+06  -2.583459e+06
  -2.105372e+05  -4.227502e+06
   5.948528e+05  -3.661481e+06
   5.704833e+05  -2.131976e+06
   9.032695e+05  -1.272114e+06
   1.925525e+06  -1.149758e+06
   2.852478e+06  -4.543207e+05
   2.683559e+06   1.381527e+06
   1.140928e+06   2.977456e+06
  -1.013892e+06   2.471124e+06
  -2.365259e+06  -1.119639e+05
  -1.820071e+06  -2.588269e+06
   3.661059e+05  -2.818300e+06
   2.536070e+06  -7.935506e+05
   2.977634e+06   1.615333e+06
   1.530917e+06   2.653253e+06
  -3.085525e+05   2.149804e+06
  -1.053608e+06   1.210885e+06
  -8.334954e+05   8.505510e+05
  -1.050134e+06   1.036408e+06
  -2.429216e+06   8.937978e+05
  -3.796483e+06  -2.995470e+05
  -3.195458e+06  -2.266351e+06
  -2.298492e+05  -3.771867e+06
   3.083086e+06  -3.575790e+06
   4.125533e+06  -1.555943e+06
   2.300638e+06   9.819062e+05
  -4.040340e+05   2.242785e+06
  -1.506810e+06   1.483139e+06
  -4.478631e+05  -2.511575e+05
   1.191651e+06  -1.098267e+06
   1.605180e+06  -2.937156e+05
   5.540929e+05   9.991006e+05
  -6.851654e+05   1.048041e+06
  -7.811892e+05  -3.004865e+05
   4.016483e+05  -1.266162e+06
   1.747669e+06  -1.972443e+05
   1.842142e+06   2.305504e+06
   1.580744e+05   3.807666e+06
  -2.354561e+06   2.622204e+06
  -3.850386e+06  -3.922838e+05
  -3.108337e+06  -2.774626e+06
  -7.206211e+05  -2.932699e+06
   1.348480e+06  -1.440394e+06
   1.610731e+06  -7.600858e+04
   4.671698e+05   4.398023e+04
  -3.570964e+05  -6.913500e+05
   2.277298e+05  -1.106978e+06
   1.488835e+06  -5.429731e+05
   1.780909e+06   5.431616e+05
   5.208077e+05   1.117300e+06
  -1.022392e+06   6.360743e+05
  -1.069322e+06  -3.942500e+05
   6.386999e+05  -8.810599e+05
   2.394200e+06  -1.788241e+05
   2.245347e+06   1.269597e+06
   7.080947e+04   2.266863e+06
  -2.239058e+06   1.895587e+06
  -2.690253e+06   3.757233e+05
  -1.132737e+06  -1.046741e+06
   7.462244e+05  -1.201860e+06
   1.204318e+06  -1.408457e+05
   5.905964e+04   8.698727e+05
  -1.367341e+06   6.542509e+05
  -1.654516e+06  -5.955626e+05
  -5.734388e+05  -1.533512e+06
   8.279686e+05  -1.181749e+06
   1.271265e+06  -1.306690e+04
   4.629732e+05   6.422619e+05
  -6.077162e+05   1.094850e+05
  -6.396191e+05  -9.450166e+05
   5.977249e+05  -1.299469e+06
   1.912044e+06  -4.336787e+05
   1.878480e+06   1.023305e+06
   3.732308e+05   1.914838e+06
  -1.254455e+06   1.560221e+06
  -1.592317e+06   3.099599e+05
  -5.843922e+05  -7.657675e+05
   5.619204e+05  -8.324863e+05
   7.375409e+05  -6.113087e+04
   2.242274e+03   5.941917e+05
  -6.709113e+05   4.550570e+05
  -5.203349e+05  -1.399360e+05
   2.265644e+05  -2.878999e+05
   6.277632e+05   3.505462e+05
   2.107436e+04   1.083436e+06
  -1.227564e+06   9.209339e+05
  -1.976525e+06  -3.348718e+05
  -1.391043e+06  -1.815831e+06
   1.952908e+05  -2.360681e+06
   1.567525e+06  -1.545081e+06
   1.806739e+06  -3.348112e+04
   1.106703e+06   1.031269e+06
   3.869708e+05   1.052031e+06
   2.258894e+05   4.658612e+05
   3.335100e+05   1.870728e+05
   5.900877e+04   5.499205e+05
  -7.413549e+05   9.195680e+05
  -1.437699e+06   4.691145e+05
  -1.209776e+06  -7.356104e+05
   1.001760e+05  -1.628923e+06
   1.666808e+06  -1.205110e+06
   2.248855e+06   3.992229e+05
   1.237157e+06   1.956999e+06
  -7.366652e+05   2.259160e+06
  -2.267935e+06   1.161553e+06
  -2.365101e+06  -3.865831e+05
  -1.242143e+06  -1.270325e+06
   2.504850e+04  -1.180824e+06
   5.658449e+05  -7.352779e+05
   4.172868e+05  -6.804513e+05
   2.568617e+05  -1.030415e+06
   5.694576e+05  -1.075127e+06
   1.123211e+06  -2.613086e+05
   1.231874e+06   1.048505e+06
   5.119212e+05   1.824420e+06
  -6.212780e+05   1.378182e+06
  -1.255216e+06   4.852260e+04
  -8.492257e+05  -1.122690e+06
   1.975284e+05  -1.325844e+06
   9.213816e+05  -5.998355e+05
   7.651455e+05   3.552856e+05
   1.052838e+05   8.642941e+05
  -2.419923e+05   7.961980e+05
   2.692180e+04   5.104482e+05
   3.644208e+05   3.775554e+05
   2.543283e+04   3.905056e+05
  -1.005845e+06   2.448199e+05
  -1.846800e+06  -2.482046e+05
  -1.553486e+06  -8.915934e+05
  -1.390308e+05  -1.252760e+06
   1.319365e+06  -1.048823e+06
   1.684992e+06  -3.978221e+05
   8.683540e+05   2.499131e+05
  -1.562937e+05   4.451748e+05
  -4.330607e+05   1.268854e+05
   3.279796e+04  -2.688294e+05
   4.936812e+05  -2.066480e+05
   4.352151e+05   3.306675e+05
   7.909916e+04   7.343602e+05
  -6.088080e+04   4.655069e+05
   1.535757e+05  -2.032188e+05
   3.972892e+05  -4.168747e+05
   2.970035e+05   2.048146e+05
  -2.158896e+05   1.000014e+06
  -8.518416e+05   9.935665e+05
  -1.112062e+06   6.775732e+04
  -6.273382e+05  -8.768207e+05
   3.930112e+05  -9.412578e+05
   1.091897e+06  -1.709793e+05
   6.773639e+05   6.018312e+05
  -6.327441e+05   6.587583e+05
  -1.603766e+06   1.676802e+02
  -1.188737e+06  -7.929177e+05
   3.089744e+05  -1.094853e+06
   1.495813e+06  -6.933249e+05
   1.341911e+06   6.592135e+04
   2.136767e+05   5.377138e+05
  -6.099387e+05   3.398301e+05
  -3.207803e+05  -2.307718e+05
   6.378048e+05  -4.226166e+05
   1.122146e+06   1.999419e+05
   4.970384e+05   1.199493e+06
  -7.458944e+05   1.576159e+06
  -1.518823e+06   7.384894e+05
  -1.204177e+06  -8.027435e+05
  -1.633308e+05  -1.780919e+06
   7.346635e+05  -1.342880e+06
   9.361455e+05   7.804654e+04
   5.214939e+05   1.156374e+06
  -8.924538e+04   1.027176e+06
  -5.124265e+05   1.383313e+05
  -5.497839e+05  -3.977204e+05
  -2.645871e+05  -1.741858e+05
  -8.357345e+03   1.280637e+05
  -1.222271e+05  -2.096713e+05
  -4.375968e+05  -9.127465e+05
  -3.097495e+05  -1.085425e+06
   5.540833e+05  -4.133609e+05
   1.462079e+06   4.671723e+05
   1.369872e+06   8.302633e+05
   1.935352e+05   6.590758e+05
  -9.418232e+05   3.879341e+05
  -1.005115e+06   2.110541e+05
  -2.665002e+05   1.292513e+04
   1.845153e+05  -2.063316e+05
  -8.440128e+04  -2.676732e+05
  -3.859974e+05  -1.718484e+05
   3.711233e+03  -1.363574e+05
   7.863607e+05  -1.653020e+05
   1.001031e+06   6.522076e+04
   2.205324e+05   6.500845e+05
  -9.578247e+05   1.049163e+06
  -1.574041e+06   6.168498e+05
  -1.202195e+06  -5.095521e+05
  -1.916520e+05  -1.392952e+06
   7.333485e+05  -1.283617e+06
   1.023659e+06  -4.179942e+05
   6.487626e+05   3.098453e+05
   6.870349e+04   3.463393e+05
  -1.764149e+05  -1.672505e+04
   4.203718e+04  -1.028452e+05
   3.466920e+05   3.271705e+05
   2.770147e+05   7.919575e+05
  -2.113139e+05   6.288563e+05
  -6.806812e+05  -2.159554e+05
  -6.221561e+05  -1.018241e+06
   4.295768e+04  -9.851409e+05
   8.047772e+05  -1.056569e+05
   9.466778e+05   8.281781e+05
   2.375674e+05   1.055755e+06
  -7.224032e+05   5.541540e+05
  -1.024576e+06  -1.278526e+05
  -4.392730e+05  -5.220174e+05
   2.800940e+05  -5.452039e+05
   2.779454e+05  -3.281312e+05
  -3.447838e+05  -6.005888e+04
  -6.591777e+05   5.870272e+03
  -9.983878e+04  -2.799282e+05
   8.166797e+05  -6.570667e+05
   1.146712e+06  -5.829550e+05
   6.339527e+05   9.965353e+04
  -1.197415e+05   7.992866e+05
  -4.593745e+05   7.801221e+05
  -3.073641e+05   7.569518e+04
   1.659181e+04  -5.078713e+05
   2.595085e+05  -3.589858e+05
   3.405151e+05   2.454733e+05
   2.184955e+05   5.693515e+05
  -8.275242e+04   3.257525e+05
  -3.726321e+05  -9.385377e+04
  -4.249409e+05  -2.155511e+05
  -2.348244e+05  -3.966236e+04
  -1.487279e+04   6.992853e+04
   8.448264e+04  -1.103929e+05
   1.313128e+05  -3.989098e+05
   2.441567e+05  -4.203030e+05
   3.672970e+05  -2.847272e+04
   3.045207e+05   4.868455e+05
  -3.279849e+04   6.402751e+05
  -4.503081e+05   2.461528e+05
  -5.717459e+05  -3.481447e+05
  -1.817295e+05  -5.992277e+05
   4.724635e+05  -3.294019e+05
   7.964836e+05   1.356559e+05
   4.270836e+05   3.796868e+05
  -2.921205e+05   3.097694e+05
  -5.965535e+05   1.188676e+05
  -1.683632e+05  -5.212045e+02
   4.386703e+05   2.351722e+04
   4.303253e+05   1.801485e+05
  -2.586130e+05   3.380740e+05
  -8.681904e+05   2.345434e+05
