
 $NMID
 id='ANONYMOUS ', fmtdat='(2E16.6)'
 volume=1.0
 tramp=1.0
 $END
   1.656127e+07  -3.717393e+05
   1.137383e+07   6.767623e+06
   7.759639e+05   1.013871e+07
  -6.535640e+06   7.817592e+06
  -6.137952e+06   1.708445e+06
  -8.551132e+05  -2.950712e+06
   3.330734e+06  -2.162804e+06
   3.100171e+06   2.409406e+06
  -2.204592e+05   5.062977e+06
  -3.038532e+06   2.581348e+06
  -2.977470e+06  -2.140005e+06
  -5.384080e+05  -3.772206e+06
   1.739002e+06  -7.835687e+05
   1.628837e+06   3.213894e+06
  -7.295138e+05   3.875091e+06
  -2.878661e+06   6.429282e+05
  -2.417831e+06  -3.248221e+06
   4.867996e+05  -4.354892e+06
   3.186299e+06  -2.147376e+06
   3.318336e+06   9.939207e+05
   1.271296e+06   2.400189e+06
  -3.967831e+05   1.671446e+06
   1.065842e+05   6.911143e+05
   1.808194e+06   1.207798e+06
   2.074838e+06   2.771676e+06
  -3.897129e+05   3.386468e+06
  -3.859728e+06   1.928221e+06
  -5.105576e+06  -6.256732e+05
  -2.726102e+06  -2.320951e+06
   1.166616e+06  -2.050042e+06
   2.928994e+06  -2.530198e+05
   1.138257e+06   1.562740e+06
  -1.990002e+06   1.814022e+06
  -3.161892e+06   5.411891e+04
  -1.560539e+06  -2.293969e+06
   6.915664e+05  -2.935240e+06
   1.334740e+06  -1.129988e+06
   3.598871e+05   1.159601e+06
  -6.038965e+05   1.325361e+06
  -4.505573e+05  -7.499224e+05
   5.077463e+05  -2.462717e+06
   1.327250e+06  -1.655901e+06
   1.326832e+06   7.648891e+05
   3.668999e+05   2.006006e+06
  -9.702160e+05   7.272157e+05
  -1.415640e+06  -1.560311e+06
  -4.318538e+04  -2.382907e+06
   2.335261e+06  -9.289605e+05
   3.432664e+06   1.413768e+06
   1.812231e+06   2.656769e+06
  -1.288080e+06   1.985815e+06
  -3.064134e+06   2.022734e+05
  -2.079109e+06  -1.174034e+06
   3.567248e+05  -1.203921e+06
   1.780659e+06  -2.053119e+05
   1.129977e+06   6.796331e+05
  -4.703848e+05   5.996793e+05
  -1.158432e+06  -2.529130e+05
  -2.912884e+05  -9.293129e+05
   9.961512e+05  -6.956651e+05
   1.077317e+06   2.589830e+05
  -3.232065e+05   9.753108e+05
  -1.679320e+06   5.716201e+05
  -1.261468e+06  -8.913977e+05
   8.809240e+05  -2.271756e+06
   2.880468e+06  -2.222428e+06
   3.073906e+06  -4.617465e+05
   1.682004e+06   1.813032e+06
   2.382699e+05   2.984971e+06
  -2.775603e+05   2.566794e+06
  -2.555677e+05   1.529574e+06
  -5.596348e+05   1.012554e+06
  -1.374457e+06   9.737708e+05
  -2.098859e+06   4.509224e+05
  -2.027810e+06  -9.234007e+05
  -9.520211e+05  -2.139305e+06
   6.382141e+05  -1.853613e+06
   1.728175e+06  -3.876264e+04
   1.430417e+06   1.782497e+06
  -1.583425e+05   2.038985e+06
  -1.803056e+06   6.412038e+05
  -2.168916e+06  -1.094310e+06
  -1.119045e+06  -1.861425e+06
   2.117313e+05  -1.501700e+06
   7.221993e+05  -8.245028e+05
   5.320572e+05  -5.847586e+05
   6.731193e+05  -7.658490e+05
   1.669115e+06  -7.327130e+05
   2.692447e+06   6.293668e+04
   2.350813e+06   1.482561e+06
   3.111981e+05   2.671211e+06
  -2.061429e+06   2.668675e+06
  -2.900844e+06   1.265414e+06
  -1.694554e+06  -6.337966e+05
   2.136564e+05  -1.643210e+06
   1.042254e+06  -1.124355e+06
   3.354620e+05   1.706853e+05
  -8.156870e+05   8.322496e+05
  -1.130206e+06   2.633772e+05
  -4.203291e+05  -6.982084e+05
   4.529564e+05  -7.820266e+05
   5.776664e+05   1.666675e+05
  -1.951382e+05   9.135697e+05
  -1.184181e+06   2.513979e+05
  -1.402747e+06  -1.494805e+06
  -3.336233e+05  -2.662089e+06
   1.497359e+06  -1.984585e+06
   2.743859e+06   7.217971e+04
   2.358806e+06   1.823653e+06
   6.552997e+05   2.064070e+06
  -9.072943e+05   1.087682e+06
  -1.153816e+06   1.178717e+05
  -3.347787e+05  -1.306970e+04
   2.817484e+05   4.771471e+05
  -1.195247e+05   7.869403e+05
  -1.030274e+06   4.339499e+05
  -1.275457e+06  -3.131242e+05
  -4.120640e+05  -7.633009e+05
   6.968855e+05  -4.938947e+05
   7.832560e+05   2.282127e+05
  -3.997989e+05   6.580926e+05
  -1.689738e+06   2.491869e+05
  -1.667055e+06  -7.924846e+05
  -1.646110e+05  -1.612532e+06
   1.509476e+06  -1.450990e+06
   1.899713e+06  -3.798229e+05
   8.423044e+05   6.976256e+05
  -4.890436e+05   8.748599e+05
  -8.462709e+05   1.364478e+05
  -6.698343e+04  -6.181153e+05
   9.480069e+05  -5.165195e+05
   1.197902e+06   3.535230e+05
   4.758282e+05   1.059551e+06
  -5.272059e+05   8.749619e+05
  -8.962196e+05   7.224577e+04
  -3.590415e+05  -4.275861e+05
   4.215326e+05  -9.861484e+04
   4.892172e+05   6.480510e+05
  -3.776838e+05   9.495441e+05
  -1.348189e+06   3.823455e+05
  -1.378214e+06  -6.576828e+05
  -3.398178e+05  -1.347701e+06
   8.288918e+05  -1.157136e+06
   1.117092e+06  -2.853434e+05
   4.481166e+05   5.169118e+05
  -3.627287e+05   6.155590e+05
  -5.280177e+05   7.804180e+04
  -3.890668e+04  -4.263603e+05
   4.558294e+05  -3.666766e+05
   3.914833e+05   6.544406e+04
  -1.296958e+05   2.170152e+05
  -4.537095e+05  -2.109074e+05
  -6.257689e+04  -7.610391e+05
   8.327902e+05  -7.032565e+05
   1.419049e+06   1.587673e+05
   1.061583e+06   1.237921e+06
  -4.332182e+04   1.691344e+06
  -1.049215e+06   1.170499e+06
  -1.286468e+06   1.076285e+05
  -8.452498e+05  -6.856522e+05
  -3.365593e+05  -7.446163e+05
  -1.821586e+05  -3.398769e+05
  -2.323916e+05  -1.268695e+05
  -5.573221e+04  -3.849485e+05
   4.867685e+05  -6.824937e+05
   1.001215e+06  -3.979630e+05
   8.990130e+05   4.696842e+05
   6.400838e+03   1.166401e+06
  -1.133565e+06   9.311201e+05
  -1.619073e+06  -1.894026e+05
  -9.623229e+05  -1.337988e+06
   4.281233e+05  -1.630479e+06
   1.558407e+06  -9.172247e+05
   1.695378e+06   1.694108e+05
   9.457075e+05   8.430949e+05
   4.514023e+04   8.445485e+05
  -3.704995e+05   5.616806e+05
  -2.825360e+05   5.136160e+05
  -1.555685e+05   7.440573e+05
  -3.670876e+05   7.813724e+05
  -7.883916e+05   2.251436e+05
  -9.188678e+05  -7.007128e+05
  -4.372851e+05  -1.281266e+06
   3.887099e+05  -1.008249e+06
   8.916007e+05  -8.717087e+04
   6.481542e+05   7.603105e+05
  -8.293699e+04   9.457480e+05
  -6.186582e+05   4.634180e+05
  -5.469890e+05  -2.134534e+05
  -1.099832e+05  -5.979859e+05
   1.303903e+05  -5.680644e+05
  -4.727497e+04  -3.621526e+05
  -2.752313e+05  -2.584642e+05
  -3.340521e+04  -2.792905e+05
   7.025266e+05  -2.120423e+05
   1.319306e+06   1.064199e+05
   1.138927e+06   5.703361e+05
   1.498278e+05   8.766824e+05
  -8.939736e+05   7.907885e+05
  -1.177986e+06   3.521156e+05
  -6.224550e+05  -1.337579e+05
   9.467894e+04  -3.166755e+05
   2.981135e+05  -1.083702e+05
  -2.014852e+04   1.911166e+05
  -3.477277e+05   1.682397e+05
  -3.226467e+05  -2.197199e+05
  -8.182665e+04  -5.282525e+05
   2.959147e+04  -3.405718e+05
  -9.767425e+04   1.553288e+05
  -2.652416e+05   3.223813e+05
  -2.199263e+05  -1.322258e+05
   1.147226e+05  -7.261446e+05
   5.684319e+05  -7.406021e+05
   7.875978e+05  -8.149990e+04
   4.758305e+05   6.076570e+05
  -2.486608e+05   6.814631e+05
  -7.740259e+05   1.556630e+05
  -5.080050e+05  -4.049760e+05
   4.221790e+05  -4.943021e+05
   1.142229e+06  -6.997131e+04
   8.847419e+05   5.079229e+05
  -1.658968e+05   7.912364e+05
  -1.031240e+06   5.636245e+05
  -9.596609e+05   1.659254e+04
  -1.782811e+05  -3.728476e+05
   4.175400e+05  -2.687032e+05
   2.342199e+05   1.519476e+05
  -4.435982e+05   3.271228e+05
  -8.125087e+05  -1.025930e+05
  -3.997434e+05  -8.437257e+05
   4.777898e+05  -1.158820e+06
   1.061495e+06  -5.868388e+05
   8.934397e+05   5.273194e+05
   1.884131e+05   1.266642e+06
  -4.672254e+05   9.908531e+05
  -6.682571e+05  -1.346111e+04
  -4.217502e+05  -7.995855e+05
   1.462767e+04  -7.339539e+05
   3.563835e+05  -1.197630e+05
   4.126785e+05   2.585769e+05
   2.010374e+05   1.105371e+05
  -1.965060e+03  -9.129696e+04
   8.728357e+04   1.482800e+05
   3.457456e+05   6.350704e+05
   2.703525e+05   7.579330e+05
  -3.726329e+05   3.122243e+05
  -1.063359e+06  -2.739475e+05
  -1.015511e+06  -5.326173e+05
  -1.640721e+05  -4.611099e+05
   6.610565e+05  -3.185632e+05
   7.087694e+05  -1.940712e+05
   1.839049e+05  -1.852023e+04
  -1.254383e+05   1.560225e+05
   7.795975e+04   1.848525e+05
   2.901292e+05   1.043389e+05
   1.261960e+03   9.987481e+04
  -5.621283e+05   1.533300e+05
  -7.185097e+05  -9.060464e+03
  -1.753127e+05  -4.628583e+05
   6.504791e+05  -7.895571e+05
   1.100742e+06  -4.954296e+05
   8.760189e+05   3.261252e+05
   1.908456e+05   9.903787e+05
  -4.737988e+05   9.426009e+05
  -7.183122e+05   3.355073e+05
  -4.793156e+05  -1.975630e+05
  -6.059092e+04  -2.469259e+05
   1.339553e+05   3.014543e+03
  -2.072003e+04   7.650191e+04
  -2.610172e+05  -2.160167e+05
  -2.309262e+05  -5.524873e+05
   1.283051e+05  -4.576493e+05
   4.993426e+05   1.295491e+05
   4.853288e+05   7.093315e+05
   2.285814e+03   7.110139e+05
  -5.787807e+05   1.059065e+05
  -7.121689e+05  -5.604895e+05
  -2.077892e+05  -7.482928e+05
   4.991473e+05  -4.217223e+05
   7.363453e+05   5.520883e+04
   3.280850e+05   3.557335e+05
  -1.832770e+05   3.960318e+05
  -1.831824e+05   2.400241e+05
   2.545756e+05   2.626473e+04
   4.725674e+05  -3.054706e+04
   7.992991e+04   1.969831e+05
  -5.571309e+05   5.019666e+05
  -7.894280e+05   4.603074e+05
  -4.490552e+05  -4.802926e+04
   5.659631e+04  -5.746109e+05
   2.961891e+05  -5.694938e+05
   2.161171e+05  -5.836264e+04
   7.799012e+03   3.677643e+05
  -1.748131e+05   2.653494e+05
  -2.574103e+05  -1.654589e+05
  -1.779213e+05  -3.991578e+05
   5.136543e+04  -2.338755e+05
   2.716986e+05   5.432024e+04
   3.077893e+05   1.364677e+05
   1.666064e+05   1.698593e+04
   1.312028e+04  -4.989611e+04
  -4.897471e+04   8.798110e+04
  -8.053086e+04   2.985574e+05
  -1.700436e+05   3.144782e+05
  -2.716382e+05   3.077997e+04
  -2.369571e+05  -3.462178e+05
   4.296405e+03  -4.672043e+05
   3.162925e+05  -1.938469e+05
   4.226429e+05   2.319653e+05
   1.530592e+05   4.249356e+05
  -3.244371e+05   2.519176e+05
  -5.743575e+05  -7.027166e+04
  -3.190300e+05  -2.561950e+05
   2.000695e+05  -2.300335e+05
   4.248693e+05  -1.035895e+05
   1.182305e+05  -2.105111e+03
  -3.220295e+05   2.146355e+03
  -3.211158e+05  -1.142382e+05
   1.720533e+05  -2.581086e+05
   6.170547e+05  -2.077130e+05
