
 $NMID
 id='ANONYMOUS ', fmtdat='(2E16.6)'
 volume=1.0
 tramp=1.0
 $END
   5.120048e+07  -6.127106e+05
   3.152555e+07   3.087789e+07
  -5.862629e+06   3.468961e+07
  -2.484899e+07   1.422376e+07
  -1.544070e+07  -5.667690e+06
   2.628777e+06  -8.636536e+06
   9.138783e+06   6.279362e+05
   3.012561e+06   8.887514e+06
  -5.396585e+06   8.999220e+06
  -8.879567e+06   2.221970e+06
  -6.550678e+06  -5.660246e+06
  -8.167131e+05  -8.022680e+06
   3.688167e+06  -2.504862e+06
   2.504246e+06   5.215893e+06
  -3.391864e+06   6.317658e+06
  -7.308943e+06  -9.987490e+05
  -4.304551e+06  -9.324439e+06
   3.263119e+06  -1.093146e+07
   9.178527e+06  -5.524958e+06
   9.847733e+06   1.822860e+06
   5.979393e+06   6.734069e+06
   6.686451e+05   7.685480e+06
  -2.376109e+06   5.409137e+06
  -1.304794e+06   2.654106e+06
   1.199443e+06   2.377061e+06
   9.435116e+04   4.112509e+06
  -5.256509e+06   4.040791e+06
  -9.098417e+06   3.196461e+05
  -6.497767e+06  -3.885346e+06
  -5.943341e+04  -4.626778e+06
   3.619782e+06  -2.208017e+06
   2.237742e+06   2.302160e+05
  -9.075082e+05   1.017991e+06
  -2.463865e+06   3.336035e+05
  -2.067395e+06  -1.625594e+06
  -4.419391e+05  -3.809691e+06
   1.726258e+06  -3.483209e+06
   2.789164e+06   2.114897e+05
   1.403976e+06   3.272042e+06
  -6.547332e+05   1.534033e+06
  -1.535356e+05  -2.481251e+06
   2.358467e+06  -2.248926e+06
   2.365776e+06   2.879324e+06
  -1.976319e+06   5.685542e+06
  -6.150288e+06   1.117793e+06
  -4.731639e+06  -6.158118e+06
   1.544744e+06  -7.777396e+06
   6.758798e+06  -2.300748e+06
   6.583232e+06   4.060429e+06
   1.901343e+06   5.672924e+06
  -3.236588e+06   2.681700e+06
  -5.078981e+06  -1.305538e+06
  -2.457189e+06  -3.241440e+06
   2.143864e+06  -2.132395e+06
   4.222753e+06   7.372973e+05
   1.898858e+06   2.461849e+06
  -1.550949e+06   1.297587e+06
  -1.701850e+06  -9.410833e+05
   1.113287e+06  -9.931499e+05
   2.376785e+06   1.380850e+06
  -2.754459e+05   3.073011e+06
  -4.033937e+06   1.899267e+06
  -4.901745e+06  -1.022358e+06
  -2.257488e+06  -3.573623e+06
   1.680372e+06  -4.905712e+06
   4.777135e+06  -4.514251e+06
   5.817479e+06  -1.579404e+06
   4.209058e+06   2.986648e+06
   8.566333e+05   5.794468e+06
  -1.659142e+06   4.565025e+06
  -1.609482e+06   1.337675e+06
  -2.946619e+05  -7.380237e+04
  -2.286501e+05   9.333355e+05
  -1.706563e+06   1.550516e+06
  -2.708506e+06   2.312651e+04
  -1.848947e+06  -2.016457e+06
   1.218786e+05  -2.126761e+06
   1.624952e+06  -1.368532e+05
   1.649714e+06   2.118165e+06
  -5.145826e+04   2.864383e+06
  -2.676287e+06   1.513966e+06
  -4.191495e+06  -1.203647e+06
  -2.965908e+06  -3.524868e+06
   3.444456e+04  -3.885502e+06
   2.055650e+06  -2.503072e+06
   2.016386e+06  -1.108900e+06
   1.717752e+06  -7.284675e+05
   2.845891e+06  -5.231828e+05
   4.222500e+06   6.994278e+05
   3.397321e+06   2.673652e+06
   1.285824e+05   4.027592e+06
  -3.157824e+06   3.792023e+06
  -4.105701e+06   2.002036e+06
  -2.559666e+06  -4.875812e+05
  -1.777448e+05  -2.189236e+06
   1.132941e+06  -1.837493e+06
   5.365061e+05   6.084327e+04
  -1.087446e+06   1.258835e+06
  -1.845215e+06   3.795525e+05
  -8.651218e+05  -1.159610e+06
   5.349182e+05  -1.085514e+06
   4.656399e+05   3.854154e+05
  -9.917906e+05   7.684502e+05
  -1.851644e+06  -1.099940e+06
  -7.919019e+05  -3.334291e+06
   1.391966e+06  -3.450352e+06
   3.051945e+06  -1.279562e+06
   3.347901e+06   1.335551e+06
   2.325331e+06   2.762129e+06
   4.539091e+05   2.623966e+06
  -1.245976e+06   1.432737e+06
  -1.559836e+06   1.976375e+05
  -4.840629e+05  -4.742687e+04
   3.510025e+05   7.388706e+05
  -3.900264e+05   1.302321e+06
  -1.842120e+06   5.678424e+05
  -1.987052e+06  -8.456415e+05
  -3.950767e+05  -1.374437e+06
   1.148194e+06  -5.683390e+05
   8.968568e+05   4.548272e+05
  -8.310716e+05   5.523450e+05
  -2.190209e+06  -2.852763e+05
  -1.769979e+06  -1.358435e+06
   2.345030e+05  -1.986709e+06
   2.293137e+06  -1.646681e+06
   2.738722e+06  -2.646738e+05
   1.192875e+06   1.234524e+06
  -8.923370e+05   1.453394e+06
  -1.506083e+06   1.826890e+05
  -1.834051e+05  -1.044396e+06
   1.487670e+06  -7.148143e+05
   1.693535e+06   7.646482e+05
   3.491291e+05   1.632064e+06
  -1.066932e+06   9.863564e+05
  -1.252273e+06  -2.861708e+05
  -2.626952e+05  -7.675449e+05
   7.715285e+05  -5.924701e+04
   7.153915e+05   1.034046e+06
  -5.778181e+05   1.392837e+06
  -1.978039e+06   5.162422e+05
  -1.993395e+06  -1.045361e+06
  -3.696689e+05  -2.040279e+06
   1.416319e+06  -1.613589e+06
   1.700198e+06  -2.093293e+05
   5.017144e+05   8.559109e+05
  -6.490949e+05   7.958956e+05
  -6.365943e+05   6.714567e+04
   1.151872e+05  -3.809707e+05
   5.113371e+05  -2.206769e+05
   1.557515e+05   8.388785e+04
  -4.324544e+05  -3.902325e+04
  -5.265179e+05  -6.418009e+05
   1.890602e+05  -1.169584e+06
   1.360363e+06  -8.826222e+05
   2.049163e+06   4.138061e+05
   1.433188e+06   1.918886e+06
  -2.267042e+05   2.388731e+06
  -1.606498e+06   1.399905e+06
  -1.685668e+06  -1.249351e+05
  -8.613335e+05  -9.120211e+05
  -3.046978e+05  -6.859657e+05
  -4.403374e+05  -2.360573e+05
  -5.943518e+05  -2.943854e+05
  -8.755840e+04  -7.360453e+05
   8.614206e+05  -8.903235e+05
   1.437741e+06  -3.240259e+05
   1.046849e+06   7.276343e+05
  -2.490493e+05   1.461214e+06
  -1.709174e+06   1.061987e+06
  -2.222265e+06  -4.860720e+05
  -1.120052e+06  -2.074772e+06
   9.873963e+05  -2.330893e+06
   2.500693e+06  -1.021959e+06
   2.329365e+06   6.442204e+05
   9.636043e+05   1.332354e+06
  -2.006872e+05   9.597642e+05
  -4.103418e+05   5.170857e+05
  -1.104242e+05   7.285668e+05
  -1.165122e+05   1.263124e+06
  -6.563485e+05   1.253992e+06
  -1.264785e+06   3.067368e+05
  -1.307941e+06  -1.070857e+06
  -5.371549e+05  -1.869653e+06
   6.219982e+05  -1.412441e+06
   1.270046e+06   5.056942e+03
   8.026217e+05   1.261484e+06
  -3.765671e+05   1.377279e+06
  -1.136839e+06   4.168390e+05
  -8.029478e+05  -6.641271e+05
   1.033320e+05  -1.050887e+06
   5.107272e+05  -7.791544e+05
   7.979661e+04  -4.218966e+05
  -4.196680e+05  -3.362284e+05
  -5.391064e+04  -3.791006e+05
   1.126221e+06  -2.073940e+05
   2.022336e+06   3.283151e+05
   1.591456e+06   1.021206e+06
  -2.668945e+04   1.408406e+06
  -1.553689e+06   1.118159e+06
  -1.804048e+06   2.772179e+05
  -8.307638e+05  -4.749112e+05
   2.496991e+05  -5.540133e+05
   5.024121e+05  -3.982432e+04
   2.722651e+04   4.029886e+05
  -4.417580e+05   2.480193e+05
  -4.713732e+05  -3.383974e+05
  -2.340669e+05  -7.120447e+05
  -8.172993e+04  -4.688570e+05
  -1.405254e+05   1.001923e+05
  -2.895058e+05   2.929262e+05
  -2.730968e+05  -2.299965e+05
   1.504569e+05  -9.731601e+05
   8.889334e+05  -1.045503e+06
   1.327224e+06  -1.664278e+05
   8.242427e+05   8.990506e+05
  -4.085299e+05   1.112048e+06
  -1.229460e+06   3.221378e+05
  -7.184793e+05  -5.697207e+05
   6.933799e+05  -6.398512e+05
   1.572820e+06   9.817860e+04
   1.001730e+06   8.598761e+05
  -4.770842e+05   9.857221e+05
  -1.489712e+06   4.765239e+05
  -1.226790e+06  -1.920234e+05
  -1.332268e+05  -5.123424e+05
   6.433886e+05  -2.672155e+05
   3.772208e+05   2.876551e+05
  -5.795975e+05   5.082596e+05
  -1.163277e+06  -8.677192e+04
  -6.531078e+05  -1.165095e+06
   5.891690e+05  -1.672850e+06
   1.466049e+06  -8.662241e+05
   1.236974e+06   7.520203e+05
   1.943775e+05   1.770646e+06
  -7.376735e+05   1.278710e+06
  -9.173693e+05  -1.759887e+05
  -4.247786e+05  -1.181936e+06
   2.203297e+05  -9.619728e+05
   5.568150e+05  -8.323965e+04
   4.597970e+05   3.776661e+05
   1.611264e+05   1.398636e+05
   4.897064e+04  -9.561316e+04
   2.767669e+05   2.873418e+05
   5.017307e+05   9.541989e+05
   1.855938e+05   1.070244e+06
  -7.073874e+05   3.929014e+05
  -1.456330e+06  -4.637228e+05
  -1.262926e+06  -8.337124e+05
  -1.819079e+05  -6.913374e+05
   8.429512e+05  -4.097835e+05
   9.738876e+05  -1.765912e+05
   3.593640e+05   5.120378e+04
  -1.432268e+05   2.217829e+05
  -3.944574e+04   2.053887e+05
   2.570249e+05   9.613442e+04
   5.083186e+04   1.299304e+05
  -6.492191e+05   2.303003e+05
  -1.033915e+06  -9.432305e+03
  -4.342241e+05  -6.790545e+05
   8.250187e+05  -1.163649e+06
   1.679628e+06  -7.549538e+05
   1.398976e+06   4.175309e+05
   2.749311e+05   1.387430e+06
  -7.567542e+05   1.363538e+06
  -1.034424e+06   5.372585e+05
  -6.454235e+05  -2.261191e+05
  -1.353380e+05  -3.525729e+05
   6.229795e+04  -6.596978e+04
  -8.466912e+04   1.391065e+04
  -2.958830e+05  -3.667703e+05
  -2.431040e+05  -8.002834e+05
   1.736054e+05  -6.725765e+05
   6.699142e+05   1.136251e+05
   7.354483e+05   9.312397e+05
   1.267681e+05   1.016165e+06
  -7.352527e+05   2.533167e+05
  -1.025280e+06  -6.998269e+05
  -3.543150e+05  -1.073877e+06
   6.983372e+05  -6.782380e+05
   1.109215e+06   6.523380e+04
   5.350194e+05   6.070845e+05
  -2.784856e+05   6.794243e+05
  -3.798056e+05   3.698482e+05
   2.355792e+05   8.159564e+03
   6.393977e+05  -4.189068e+04
   1.495891e+05   3.044112e+05
  -8.140765e+05   6.730791e+05
  -1.252462e+06   5.352359e+05
  -7.650709e+05  -1.758029e+05
   8.969566e+04  -8.629037e+05
   5.485268e+05  -8.549563e+05
   4.263770e+05  -1.713225e+05
   5.866034e+04   4.681540e+05
  -2.309971e+05   4.358214e+05
  -3.454606e+05  -1.358614e+05
  -2.553061e+05  -5.687434e+05
   4.504447e+04  -4.294618e+05
   3.858831e+05   3.825885e+04
   4.766147e+05   2.798379e+05
   2.421430e+05   9.933719e+04
  -4.127780e+04  -1.533804e+05
  -8.689915e+04  -5.611393e+04
   2.381846e+04   3.398084e+05
  -2.589462e+04   5.479485e+05
  -3.031788e+05   2.320915e+05
  -4.636034e+05  -3.577283e+05
  -1.743977e+05  -6.328037e+05
   3.955752e+05  -3.165922e+05
   6.628915e+05   2.639379e+05
   2.582818e+05   5.601142e+05
  -5.018310e+05   3.669228e+05
  -8.774774e+05  -6.288058e+04
  -4.789312e+05  -3.691483e+05
   2.855741e+05  -4.049413e+05
   6.302441e+05  -2.395349e+05
   2.547456e+05  -2.374108e+04
  -3.285571e+05   7.472557e+04
  -3.958465e+05  -5.024348e+04
   1.571250e+05  -2.797587e+05
   7.179984e+05  -2.697552e+05
