
 $NMID
 id='ANONYMOUS ', fmtdat='(2E16.6)'
 volume=1.0
 tramp=1.0
 $END
   5.746383e+07   8.948112e+05
   3.383785e+07   3.644646e+07
  -8.496923e+06   3.884840e+07
  -2.848467e+07   1.414247e+07
  -1.652159e+07  -7.771869e+06
   3.701448e+06  -9.423100e+06
   9.929430e+06   1.646526e+06
   2.447725e+06   1.002439e+07
  -6.596755e+06   9.174997e+06
  -9.826573e+06   1.691211e+06
  -6.953090e+06  -6.385859e+06
  -6.922786e+05  -8.656822e+06
   4.055803e+06  -2.752242e+06
   2.540164e+06   5.411209e+06
  -3.950873e+06   6.417902e+06
  -7.939512e+06  -1.581134e+06
  -4.268830e+06  -1.043758e+07
   4.086664e+06  -1.187940e+07
   1.036920e+07  -5.837210e+06
   1.098996e+07   2.209142e+06
   6.722243e+06   7.725178e+06
   6.326629e+05   8.935704e+06
  -3.175320e+06   6.236797e+06
  -2.171413e+06   2.647802e+06
   9.468371e+05   1.970525e+06
   2.800648e+05   4.047488e+06
  -5.331539e+06   4.376312e+06
  -9.644406e+06   4.825588e+05
  -7.080446e+06  -4.189854e+06
  -3.223991e+05  -5.131109e+06
   3.650479e+06  -2.652445e+06
   2.507667e+06  -1.472127e+05
  -4.243001e+05   8.204023e+05
  -2.082088e+06   5.153795e+05
  -2.156246e+06  -1.288964e+06
  -7.706294e+05  -3.855041e+06
   1.811721e+06  -3.920344e+06
   3.374203e+06   4.513129e+04
   1.811303e+06   3.724303e+06
  -8.151604e+05   2.089455e+06
  -4.020520e+05  -2.346588e+06
   2.469147e+06  -2.227011e+06
   2.388631e+06   3.304194e+06
  -2.671103e+06   6.188084e+06
  -7.205736e+06   8.770626e+05
  -5.123957e+06  -7.189964e+06
   2.137095e+06  -8.676350e+06
   7.594628e+06  -2.338440e+06
   6.891330e+06   4.614492e+06
   1.680320e+06   6.080313e+06
  -3.547754e+06   2.602882e+06
  -5.189215e+06  -1.682205e+06
  -2.291277e+06  -3.566211e+06
   2.527275e+06  -2.148246e+06
   4.557469e+06   1.050861e+06
   1.894192e+06   2.811246e+06
  -1.774495e+06   1.353830e+06
  -1.697776e+06  -1.071687e+06
   1.421036e+06  -8.471566e+05
   2.463116e+06   1.939241e+06
  -8.074735e+05   3.559894e+06
  -4.843388e+06   1.822079e+06
  -5.366576e+06  -1.552116e+06
  -2.247595e+06  -4.111069e+06
   1.874613e+06  -5.281102e+06
   5.037117e+06  -4.810579e+06
   6.227751e+06  -1.713517e+06
   4.610724e+06   3.200441e+06
   8.926427e+05   6.203586e+06
  -1.983352e+06   4.729350e+06
  -1.831612e+06   1.106429e+06
  -1.033232e+05  -3.585197e+05
   1.561706e+05   9.523838e+05
  -1.509885e+06   1.834786e+06
  -2.779508e+06   3.164355e+05
  -2.035341e+06  -1.850427e+06
  -7.360828e+04  -2.089926e+06
   1.474035e+06  -2.072928e+05
   1.615749e+06   2.028029e+06
  -8.546189e+03   2.896975e+06
  -2.759784e+06   1.652876e+06
  -4.487150e+06  -1.199936e+06
  -3.236306e+06  -3.817944e+06
   7.501880e+04  -4.303594e+06
   2.363109e+06  -2.747772e+06
   2.311848e+06  -1.107423e+06
   1.869966e+06  -6.198865e+05
   2.941263e+06  -3.992289e+05
   4.312868e+06   8.472339e+05
   3.415533e+06   2.814261e+06
   5.964827e+04   4.097656e+06
  -3.229027e+06   3.823656e+06
  -4.151588e+06   2.074100e+06
  -2.642451e+06  -4.107986e+05
  -2.924092e+05  -2.209414e+06
   1.082872e+06  -1.928396e+06
   5.652760e+05   2.678180e+04
  -1.085905e+06   1.294009e+06
  -1.913449e+06   3.737136e+05
  -9.216943e+05  -1.220558e+06
   5.147451e+05  -1.098524e+06
   3.890426e+05   3.987690e+05
  -1.117559e+06   6.265803e+05
  -1.822202e+06  -1.419459e+06
  -4.862409e+05  -3.546474e+06
   1.766521e+06  -3.308831e+06
   3.180789e+06  -9.246229e+05
   3.196953e+06   1.565148e+06
   2.131234e+06   2.759759e+06
   3.832416e+05   2.557107e+06
  -1.239728e+06   1.428852e+06
  -1.560239e+06   2.136745e+05
  -4.889249e+05  -5.344072e+04
   3.423195e+05   7.555426e+05
  -4.480035e+05   1.341790e+06
  -1.935519e+06   5.449083e+05
  -2.021664e+06  -9.440273e+05
  -3.449662e+05  -1.436981e+06
   1.184202e+06  -5.396145e+05
   8.548727e+05   4.722782e+05
  -8.702004e+05   4.653601e+05
  -2.131732e+06  -4.033320e+05
  -1.653056e+06  -1.381247e+06
   3.118046e+05  -1.916590e+06
   2.319157e+06  -1.573323e+06
   2.757736e+06  -2.135314e+05
   1.192079e+06   1.294942e+06
  -9.520199e+05   1.501865e+06
  -1.583373e+06   1.670992e+05
  -1.957456e+05  -1.094554e+06
   1.529568e+06  -7.128879e+05
   1.695076e+06   8.230118e+05
   2.805076e+05   1.655007e+06
  -1.126844e+06   9.264334e+05
  -1.238435e+06  -3.662668e+05
  -2.060214e+05  -7.938804e+05
   8.107490e+05  -3.484405e+04
   7.228934e+05   1.067771e+06
  -5.915457e+05   1.415174e+06
  -2.008342e+06   5.167218e+05
  -2.016622e+06  -1.076691e+06
  -3.468089e+05  -2.079486e+06
   1.475038e+06  -1.612344e+06
   1.728754e+06  -1.673192e+05
   4.730932e+05   8.810867e+05
  -6.775048e+05   7.811355e+05
  -6.170309e+05   6.647377e+04
   1.376110e+05  -3.288684e+05
   4.702622e+05  -1.700947e+05
   7.530764e+04   5.889472e+04
  -4.676696e+05  -1.248644e+05
  -4.885989e+05  -7.107942e+05
   2.510286e+05  -1.183590e+06
   1.401821e+06  -8.599494e+05
   2.066431e+06   4.543840e+05
   1.426776e+06   1.963796e+06
  -2.573494e+05   2.400432e+06
  -1.628264e+06   1.355820e+06
  -1.656901e+06  -1.720207e+05
  -8.047939e+05  -8.864497e+05
  -2.948007e+05  -6.046577e+05
  -4.973282e+05  -1.967209e+05
  -6.491191e+05  -3.349981e+05
  -8.086975e+04  -7.826918e+05
   8.983482e+05  -8.745955e+05
   1.440107e+06  -2.796834e+05
   1.007523e+06   7.312248e+05
  -2.901747e+05   1.420414e+06
  -1.728900e+06   1.016564e+06
  -2.216641e+06  -5.264050e+05
  -1.074376e+06  -2.114772e+06
   1.071783e+06  -2.337296e+06
   2.566635e+06  -9.624533e+05
   2.314002e+06   7.248963e+05
   8.892922e+05   1.349419e+06
  -2.416070e+05   9.044934e+05
  -3.728133e+05   4.715974e+05
  -4.950127e+04   7.528272e+05
  -1.053641e+05   1.324818e+06
  -6.966562e+05   1.289870e+06
  -1.306050e+06   3.013125e+05
  -1.319426e+06  -1.094566e+06
  -5.261738e+05  -1.892566e+06
   6.385699e+05  -1.419695e+06
   1.276021e+06   2.936583e+04
   7.782884e+05   1.303153e+06
  -4.330584e+05   1.383770e+06
  -1.186802e+06   3.583005e+05
  -7.967771e+05  -7.454101e+05
   1.676738e+05  -1.088287e+06
   5.800918e+05  -7.633644e+05
   1.048766e+05  -3.985112e+05
  -4.322559e+05  -3.337839e+05
  -5.768012e+04  -3.793368e+05
   1.158005e+06  -1.850088e+05
   2.063545e+06   3.724324e+05
   1.591774e+06   1.070147e+06
  -8.305137e+04   1.442510e+06
  -1.625340e+06   1.115140e+06
  -1.835612e+06   2.299177e+05
  -8.124424e+05  -5.339543e+05
   2.809100e+05  -5.749770e+05
   5.170367e+05  -1.305494e+04
   3.235050e+04   4.373067e+05
  -4.351775e+05   2.561820e+05
  -4.778352e+05  -3.469139e+05
  -2.645512e+05  -7.173300e+05
  -1.100739e+05  -4.773522e+05
  -1.350048e+05   7.636895e+04
  -2.640050e+05   2.673664e+05
  -2.657950e+05  -2.379367e+05
   1.436477e+05  -9.716413e+05
   9.118474e+05  -1.051849e+06
   1.386194e+06  -1.696082e+05
   8.631289e+05   9.221068e+05
  -4.299103e+05   1.150651e+06
  -1.273673e+06   3.414631e+05
  -7.264265e+05  -5.724314e+05
   7.146713e+05  -6.292565e+05
   1.566733e+06   1.339246e+05
   9.524770e+05   8.801306e+05
  -5.217626e+05   9.537533e+05
  -1.489764e+06   4.157072e+05
  -1.198537e+06  -2.281246e+05
  -1.117277e+05  -5.065960e+05
   6.530513e+05  -2.445822e+05
   3.867283e+05   3.072100e+05
  -5.762600e+05   5.265702e+05
  -1.180306e+06  -7.338371e+04
  -6.817207e+05  -1.173193e+06
   5.743548e+05  -1.701331e+06
   1.471835e+06  -8.870569e+05
   1.243884e+06   7.555473e+05
   1.865076e+05   1.777476e+06
  -7.501154e+05   1.261872e+06
  -9.111255e+05  -2.064587e+05
  -3.927004e+05  -1.192205e+06
   2.571862e+05  -9.437631e+05
   5.676459e+05  -6.437723e+04
   4.383559e+05   3.752606e+05
   1.382069e+05   1.301965e+05
   5.806164e+04  -8.658928e+04
   3.074437e+05   3.143178e+05
   5.079297e+05   9.739910e+05
   1.488544e+05   1.067680e+06
  -7.476012e+05   3.775307e+05
  -1.456131e+06  -4.775542e+05
  -1.235419e+06  -8.448836e+05
  -1.724919e+05  -7.023251e+05
   8.279382e+05  -4.122749e+05
   9.705553e+05  -1.617562e+05
   3.789162e+05   7.266282e+04
  -1.369457e+05   2.262972e+05
  -6.730001e+04   1.869330e+05
   2.306040e+05   7.675025e+04
   6.254909e+04   1.314549e+05
  -6.248319e+05   2.451968e+05
  -1.047115e+06  -7.328150e+03
  -4.771919e+05  -6.999570e+05
   8.125346e+05  -1.191330e+06
   1.721600e+06  -7.699526e+05
   1.448373e+06   4.180271e+05
   2.825466e+05   1.396682e+06
  -7.800310e+05   1.378904e+06
  -1.049857e+06   5.566266e+05
  -6.480953e+05  -2.135601e+05
  -1.476086e+05  -3.589862e+05
   4.023368e+04  -8.873314e+04
  -9.148090e+04  -8.616878e+03
  -2.806186e+05  -3.778741e+05
  -2.287315e+05  -8.060169e+05
   1.733890e+05  -6.848019e+05
   6.726895e+05   9.641828e+04
   7.586752e+05   9.256752e+05
   1.554692e+05   1.034320e+06
  -7.298464e+05   2.837368e+05
  -1.045253e+06  -6.853130e+05
  -3.717638e+05  -1.089358e+06
   7.060762e+05  -7.034787e+05
   1.134176e+06   6.436317e+04
   5.501051e+05   6.370014e+05
  -2.902240e+05   7.099756e+05
  -4.092634e+05   3.734808e+05
   2.133817e+05  -5.555493e+03
   6.388815e+05  -4.522234e+04
   1.577895e+05   3.142508e+05
  -8.230643e+05   6.718562e+05
  -1.284054e+06   5.110283e+05
  -7.932012e+05  -2.055482e+05
   9.335496e+04  -8.807513e+05
   5.812692e+05  -8.667525e+05
   4.600652e+05  -1.854258e+05
   7.324185e+04   4.640962e+05
  -2.321079e+05   4.538305e+05
  -3.506531e+05  -1.146969e+05
  -2.594794e+05  -5.742994e+05
   4.435584e+04  -4.555825e+05
   3.919935e+05   2.973231e+04
   4.851473e+05   3.016989e+05
   2.415455e+05   1.157265e+05
  -4.971838e+04  -1.753855e+05
  -8.106315e+04  -9.507865e+04
   5.832380e+04   3.335532e+05
   1.397717e+04   5.868157e+05
  -2.993275e+05   2.788830e+05
  -5.030084e+05  -3.397220e+05
  -2.167265e+05  -6.426240e+05
   3.899982e+05  -3.322109e+05
   6.867387e+05   2.550790e+05
   2.730291e+05   5.583835e+05
  -5.150025e+05   3.711533e+05
  -9.011750e+05  -5.747626e+04
  -4.894920e+05  -3.743239e+05
   2.923090e+05  -4.256987e+05
   6.468057e+05  -2.608787e+05
   2.764035e+05  -2.382390e+04
  -3.090199e+05   9.845168e+04
  -3.937801e+05  -2.318382e+04
   1.349734e+05  -2.698398e+05
   6.901360e+05  -2.778072e+05
