
 $NMID
 id='ANONYMOUS ', fmtdat='(2E16.6)'
 volume=1.0
 tramp=1.0
 $END
  -1.743405e+07  -1.381683e+06
  -1.000870e+07  -1.049741e+07
   2.317396e+06  -1.120960e+07
   8.363261e+06  -4.987480e+06
   5.326280e+06   1.306820e+06
  -6.450935e+05   2.855905e+06
  -3.140873e+06   2.281514e+05
  -1.378839e+06  -2.921043e+06
   1.599982e+06  -3.507628e+06
   3.093473e+06  -1.046333e+06
   2.317984e+06   2.208000e+06
   1.353289e+05   3.109037e+06
  -1.503470e+06   7.395156e+05
  -9.762611e+05  -2.301859e+06
   1.195159e+06  -2.592609e+06
   2.586427e+06   2.642416e+05
   1.485991e+06   3.353887e+06
  -1.264148e+06   3.849869e+06
  -3.356274e+06   1.701297e+06
  -3.342870e+06  -1.056406e+06
  -1.620509e+06  -2.568374e+06
   2.291301e+05  -2.402352e+06
   7.417843e+05  -1.415417e+06
  -1.647537e+05  -9.080876e+05
  -9.033092e+05  -1.416294e+06
   1.736001e+05  -2.044423e+06
   2.564090e+06  -1.454567e+06
   3.788811e+06   3.492776e+05
   2.305647e+06   1.840579e+06
  -4.779549e+05   1.777617e+06
  -1.854640e+06   5.402348e+05
  -9.210111e+05  -5.960364e+05
   8.222565e+05  -8.182803e+05
   1.575917e+06  -8.131906e+04
   9.719368e+05   1.137666e+06
  -1.824287e+05   1.854600e+06
  -9.369616e+05   1.151050e+06
  -8.045708e+05  -5.109055e+05
  -5.489739e+04  -1.268495e+06
   3.786962e+05  -1.249392e+05
  -1.539122e+05   1.373384e+06
  -1.022690e+06   9.894249e+05
  -8.800678e+05  -9.894297e+05
   5.418515e+05  -1.895202e+06
   1.805900e+06  -2.677437e+05
   1.365405e+06   2.117795e+06
  -6.121168e+05   2.541365e+06
  -2.414141e+06   6.266328e+05
  -2.512081e+06  -1.588573e+06
  -8.541652e+05  -2.211056e+06
   1.231322e+06  -1.157924e+06
   2.105304e+06   3.776043e+05
   1.128943e+06   1.185675e+06
  -6.811372e+05   8.050581e+05
  -1.528306e+06  -2.394573e+05
  -7.216801e+05  -8.489954e+05
   5.551836e+05  -4.459008e+05
   7.337764e+05   3.428584e+05
  -1.947825e+05   4.711808e+05
  -8.034229e+05  -1.897512e+05
  -1.455544e+05  -7.800581e+05
   1.122642e+06  -6.011616e+05
   1.639302e+06   2.257806e+05
   8.092039e+05   1.192748e+06
  -8.140065e+05   1.834128e+06
  -2.158966e+06   1.652135e+06
  -2.396732e+06   3.676268e+05
  -1.457100e+06  -1.402277e+06
  -1.232754e+05  -2.340435e+06
   6.022465e+05  -1.827068e+06
   4.795536e+05  -7.326007e+05
   2.121901e+05  -2.958226e+05
   4.885373e+05  -5.514052e+05
   1.106397e+06  -4.989074e+05
   1.300693e+06   3.337633e+05
   7.127610e+05   1.192245e+06
  -2.623772e+05   1.093364e+06
  -9.264512e+05   2.480147e+04
  -7.977669e+05  -1.086373e+06
   1.232346e+05  -1.317959e+06
   1.242674e+06  -5.006857e+05
   1.655652e+06   7.385145e+05
   9.641508e+05   1.511252e+06
  -1.913487e+05   1.401135e+06
  -7.966807e+05   7.916340e+05
  -6.784644e+05   3.787193e+05
  -6.295144e+05   3.586036e+05
  -1.199554e+06   2.797334e+05
  -1.816762e+06  -2.876250e+05
  -1.470690e+06  -1.174476e+06
  -3.395481e+04  -1.786997e+06
   1.476360e+06  -1.659171e+06
   1.926991e+06  -7.810841e+05
   1.133792e+06   3.709605e+05
  -6.797539e+04   1.044706e+06
  -6.376213e+05   7.693623e+05
  -2.342875e+05  -8.009612e+04
   5.414442e+05  -5.362405e+05
   7.999133e+05  -1.271863e+05
   3.087760e+05   5.177620e+05
  -2.913812e+05   4.917556e+05
  -2.782884e+05  -1.477110e+05
   3.058454e+05  -4.303996e+05
   7.581536e+05   2.316473e+05
   5.254455e+05   1.256787e+06
  -3.023765e+05   1.582513e+06
  -1.193786e+06   8.329966e+05
  -1.595995e+06  -4.068066e+05
  -1.220263e+06  -1.256585e+06
  -2.588205e+05  -1.266478e+06
   6.077781e+05  -6.524656e+05
   7.346976e+05  -5.109243e+04
   2.177224e+05   2.620590e+04
  -1.537089e+05  -3.312652e+05
   1.627098e+05  -5.426550e+05
   7.716203e+05  -2.224806e+05
   8.441091e+05   3.468091e+05
   1.859417e+05   5.706138e+05
  -5.006442e+05   2.603848e+05
  -4.441612e+05  -1.953345e+05
   3.278155e+05  -3.120658e+05
   1.028027e+06   3.613971e+04
   9.039652e+05   5.979497e+05
  -4.373392e+04   9.595809e+05
  -1.043945e+06   7.890072e+05
  -1.243394e+06   1.195662e+05
  -5.141801e+05  -5.376109e+05
   4.009441e+05  -5.953515e+05
   6.263730e+05  -4.708633e+04
   3.867759e+04   4.470754e+05
  -6.647263e+05   2.954924e+05
  -7.539565e+05  -3.297197e+05
  -1.919179e+05  -7.199056e+05
   4.357341e+05  -4.767498e+05
   5.632047e+05   7.394518e+04
   1.535735e+05   3.173973e+05
  -3.151977e+05   2.447851e+04
  -2.978949e+05  -4.640996e+05
   2.863507e+05  -6.136859e+05
   9.011121e+05  -1.973552e+05
   8.782819e+05   4.979501e+05
   1.463161e+05   9.111091e+05
  -6.303766e+05   7.083185e+05
  -7.532938e+05   9.854188e+04
  -2.372505e+05  -3.733795e+05
   2.837786e+05  -3.639213e+05
   3.161296e+05  -2.821347e+04
  -1.993996e+04   2.170490e+05
  -2.623415e+05   1.571578e+05
  -1.560928e+05  -3.618705e+04
   1.365554e+05  -4.316874e+04
   2.456471e+05   2.285459e+05
  -5.350030e+04   5.059428e+05
  -6.003609e+05   3.954180e+05
  -9.165753e+05  -1.938092e+05
  -6.260938e+05  -8.720968e+05
   1.199169e+05  -1.086416e+06
   7.347125e+05  -6.590642e+05
   7.928826e+05   3.133179e+04
   4.479855e+05   4.425734e+05
   1.685611e+05   3.970896e+05
   1.614307e+05   1.741175e+05
   2.059695e+05   1.277288e+05
   1.863842e+04   2.974561e+05
  -3.747758e+05   4.018970e+05
  -6.560865e+05   1.685509e+05
  -5.110343e+05  -3.378731e+05
   8.624002e+04  -6.996280e+05
   7.778870e+05  -5.024061e+05
   1.017522e+06   2.223132e+05
   5.165328e+05   9.303264e+05
  -4.205274e+05   1.033250e+06
  -1.097814e+06   4.676044e+05
  -1.059792e+06  -2.567203e+05
  -4.906378e+05  -5.937189e+05
   5.104507e+04  -4.810349e+05
   2.186045e+05  -2.900923e+05
   1.291914e+05  -3.361283e+05
   1.072790e+05  -5.320185e+05
   3.008975e+05  -5.249968e+05
   5.531047e+05  -1.126145e+05
   5.722337e+05   5.016697e+05
   2.217636e+05   8.537888e+05
  -2.996761e+05   6.347628e+05
  -5.770841e+05  -2.335076e+03
  -3.612924e+05  -5.526015e+05
   1.469463e+05  -6.089735e+05
   4.683803e+05  -2.129505e+05
   3.400724e+05   2.435581e+05
  -1.787931e+04   4.296065e+05
  -1.796060e+05   3.448261e+05
  -1.226153e+04   2.082852e+05
   1.787670e+05   1.699733e+05
   1.529777e+04   1.782884e+05
  -4.896542e+05   8.803870e+04
  -8.815627e+05  -1.586776e+05
  -7.066473e+05  -4.553411e+05
  -5.718118e+03  -6.033378e+05
   6.730006e+05  -4.728174e+05
   7.980314e+05  -1.329168e+05
   3.754793e+05   1.726805e+05
  -1.032482e+05   2.230507e+05
  -2.112635e+05   3.039859e+04
   1.085019e+04  -1.573176e+05
   2.186632e+05  -1.026383e+05
   2.046369e+05   1.594756e+05
   6.663583e+04   3.408748e+05
   6.358718e+02   2.215098e+05
   6.376058e+04  -6.868294e+04
   1.544647e+05  -1.647946e+05
   1.275034e+05   1.011628e+05
  -9.157193e+04   4.541676e+05
  -4.112682e+05   4.582259e+05
  -5.660013e+05   3.230495e+04
  -3.242885e+05  -4.237767e+05
   2.016706e+05  -4.670658e+05
   5.425802e+05  -9.611056e+04
   3.165892e+05   2.771452e+05
  -3.094149e+05   2.888989e+05
  -7.235457e+05  -3.567502e+04
  -4.913977e+05  -3.801830e+05
   1.848422e+05  -4.653208e+05
   6.797197e+05  -2.546735e+05
   5.818058e+05   6.548733e+04
   7.590206e+04   2.385266e+05
  -2.868657e+05   1.318157e+05
  -1.551504e+05  -1.250124e+05
   2.876544e+05  -2.110991e+05
   5.287502e+05   7.797474e+04
   2.551448e+05   5.554100e+05
  -3.255976e+05   7.473176e+05
  -6.984007e+05   3.574364e+05
  -5.556015e+05  -3.694148e+05
  -6.643145e+04  -8.180753e+05
   3.466550e+05  -5.945530e+05
   4.192982e+05   6.600654e+04
   2.050381e+05   5.361529e+05
  -7.713063e+04   4.484648e+05
  -2.437250e+05   4.370672e+04
  -2.289434e+05  -1.780495e+05
  -9.775489e+04  -6.885435e+04
  -1.267225e+04   4.901363e+04
  -8.578571e+04  -1.235900e+05
  -2.051297e+05  -4.359075e+05
  -1.043432e+05  -4.907987e+05
   2.924328e+05  -1.717023e+05
   6.655784e+05   2.266287e+05
   5.961557e+05   3.885834e+05
   7.838145e+04   3.110564e+05
  -4.140512e+05   1.797860e+05
  -4.541134e+05   8.139045e+04
  -1.404620e+05  -1.631564e+04
   7.784896e+04  -9.880099e+04
  -1.095845e+04  -1.025538e+05
  -1.497908e+05  -5.792834e+04
  -1.003688e+04  -6.396191e+04
   3.341199e+05  -9.108774e+04
   4.693994e+05   2.789658e+04
   1.431769e+05   3.185032e+05
  -4.245430e+05   5.063647e+05
  -7.598212e+05   2.950271e+05
  -5.975222e+05  -2.340655e+05
  -9.481216e+04  -6.441801e+05
   3.579369e+05  -5.996180e+05
   4.824508e+05  -2.095189e+05
   2.986193e+05   1.285349e+05
   4.347271e+04   1.645707e+05
  -5.882702e+04   1.597198e+04
   2.532192e+04  -2.395056e+04
   1.422467e+05   1.597350e+05
   1.116352e+05   3.660791e+05
  -9.631639e+04   2.988251e+05
  -3.134167e+05  -8.104026e+04
  -3.071323e+05  -4.589110e+05
  -8.912494e+03  -4.679995e+05
   3.621308e+05  -7.904315e+04
   4.519668e+05   3.632231e+05
   1.254344e+05   4.971238e+05
  -3.376579e+05   2.777198e+05
  -4.919649e+05  -5.805839e+04
  -2.144302e+05  -2.683689e+05
   1.403156e+05  -2.787903e+05
   1.563384e+05  -1.522608e+05
  -1.351906e+05  -1.286054e+04
  -2.999068e+05   6.076561e+03
  -5.345860e+04  -1.377017e+05
   3.810406e+05  -2.979397e+05
   5.534779e+05  -2.403670e+05
   3.162805e+05   7.616387e+04
  -5.870268e+04   3.820508e+05
  -2.425694e+05   3.663587e+05
  -1.744015e+05   4.767736e+04
  -7.288932e+03  -2.277629e+05
   1.198867e+05  -1.816782e+05
   1.610448e+05   9.066501e+04
   1.036278e+05   2.651095e+05
  -3.778175e+04   1.747538e+05
  -1.762013e+05  -3.431771e+04
  -2.015612e+05  -1.204415e+05
  -1.058968e+05  -3.454502e+04
   1.059261e+03   5.427255e+04
   3.141304e+04  -1.123826e+04
   2.484033e+04  -1.765133e+05
   7.222823e+04  -2.318909e+05
   1.649020e+05  -6.026023e+04
   1.790356e+05   2.048576e+05
   2.744400e+04   3.029114e+05
  -2.000103e+05   1.280856e+05
  -2.848069e+05  -1.503849e+05
  -9.774299e+04  -2.717026e+05
   2.286273e+05  -1.539663e+05
   3.869231e+05   5.701866e+04
   2.050974e+05   1.784811e+05
  -1.404736e+05   1.618695e+05
  -2.891239e+05   7.522178e+04
  -9.854797e+04  -7.996835e+02
   1.808988e+05  -1.384474e+04
   1.948365e+05   5.469914e+04
  -9.516115e+04   1.447464e+05
  -3.677143e+05   1.159186e+05
