
 $NMID
 id='ANONYMOUS ', fmtdat='(2E16.6)'
 volume=1.0
 tramp=1.0
 $END
  -2.922553e+07   1.381838e+06
  -1.990667e+07  -1.446016e+07
   3.312348e+05  -1.928641e+07
   1.302424e+07  -1.147669e+07
   1.030572e+07   6.818882e+04
   9.907776e+04   5.305898e+06
  -5.814986e+06   1.782083e+06
  -3.745114e+06  -4.863654e+06
   1.865204e+06  -7.243047e+06
   5.384722e+06  -2.997152e+06
   4.537561e+06   3.475643e+06
   7.095623e+05   5.601184e+06
  -2.519826e+06   1.412368e+06
  -2.040908e+06  -4.326592e+06
   1.724258e+06  -5.269363e+06
   4.741041e+06  -3.220101e+05
   3.468229e+06   5.567165e+06
  -1.284513e+06   7.066730e+06
  -5.375813e+06   3.598828e+06
  -5.723865e+06  -1.230541e+06
  -2.940201e+06  -3.853975e+06
  -8.777073e+04  -3.609173e+06
   3.895122e+05  -2.329100e+06
  -1.166106e+06  -2.101121e+06
  -1.930541e+06  -3.247573e+06
   4.766633e+05  -4.052199e+06
   4.846473e+06  -2.672688e+06
   6.946059e+06   5.348348e+05
   4.184312e+06   3.081737e+06
  -9.584859e+05   2.969050e+06
  -3.468925e+06   7.232327e+05
  -1.458155e+06  -1.409800e+06
   2.122679e+06  -1.665082e+06
   3.415015e+06   8.977106e+04
   1.766734e+06   2.508333e+06
  -5.903764e+05   3.527587e+06
  -1.588417e+06   1.934134e+06
  -1.007109e+06  -9.380618e+05
   7.505879e+04  -1.945810e+06
   4.046965e+05   2.060783e+05
  -5.403660e+05   2.766270e+06
  -1.899219e+06   2.051820e+06
  -1.900688e+06  -1.524083e+06
   1.884898e+05  -3.537106e+06
   2.661257e+06  -1.175190e+06
   2.756647e+06   3.048977e+06
  -2.698836e+05   4.412772e+06
  -3.966034e+06   1.568204e+06
  -4.926894e+06  -2.442615e+06
  -2.109316e+06  -4.046931e+06
   2.135863e+06  -2.514015e+06
   4.207752e+06   2.885397e+05
   2.544408e+06   2.063224e+06
  -9.535338e+05   1.732962e+06
  -2.826763e+06  -1.395009e+04
  -1.583427e+06  -1.329194e+06
   8.534501e+05  -9.241765e+05
   1.513230e+06   5.325492e+05
  -1.297405e+05   1.180588e+06
  -1.706675e+06   2.046371e+05
  -9.796865e+05  -1.263617e+06
   1.471771e+06  -1.575603e+06
   3.001514e+06  -2.616882e+05
   1.835529e+06   1.837128e+06
  -1.244457e+06   3.376672e+06
  -3.881600e+06   3.155592e+06
  -4.307895e+06   8.202856e+05
  -2.629593e+06  -2.393978e+06
  -4.272583e+05  -4.237757e+06
   7.726760e+05  -3.597956e+06
   7.977517e+05  -1.762901e+06
   6.903893e+05  -7.965873e+05
   1.307154e+06  -9.576331e+05
   2.263327e+06  -6.872822e+05
   2.418867e+06   8.715113e+05
   1.217599e+06   2.429600e+06
  -6.795109e+05   2.140241e+06
  -1.949790e+06  -3.876930e+04
  -1.615323e+06  -2.221059e+06
   2.300308e+05  -2.568519e+06
   2.318807e+06  -9.303750e+05
   3.025567e+06   1.311601e+06
   1.806853e+06   2.596035e+06
  -1.521975e+05   2.405285e+06
  -1.181803e+06   1.471363e+06
  -1.057182e+06   8.756164e+05
  -1.131411e+06   8.845060e+05
  -2.321338e+06   7.403724e+05
  -3.575074e+06  -3.437855e+05
  -2.982573e+06  -2.142840e+06
  -2.122808e+05  -3.497169e+06
   2.795390e+06  -3.328408e+06
   3.725161e+06  -1.557175e+06
   2.153497e+06   7.413432e+05
  -2.016816e+05   2.012723e+06
  -1.252830e+06   1.442550e+06
  -4.269090e+05  -1.717427e+05
   1.043950e+06  -1.045022e+06
   1.516812e+06  -3.068942e+05
   5.960912e+05   9.377839e+05
  -5.737150e+05   9.635779e+05
  -6.303473e+05  -2.965465e+05
   5.226919e+05  -1.036535e+06
   1.644894e+06   1.468577e+05
   1.439367e+06   2.379332e+06
  -2.459799e+05   3.405440e+06
  -2.339635e+06   2.064765e+06
  -3.395989e+06  -5.917396e+05
  -2.639424e+06  -2.519323e+06
  -5.964038e+05  -2.587875e+06
   1.190810e+06  -1.314044e+06
   1.448189e+06  -1.105256e+05
   4.299756e+05   3.726232e+04
  -3.283612e+05  -6.382283e+05
   2.372446e+05  -1.062010e+06
   1.440829e+06  -5.182957e+05
   1.683196e+06   5.551316e+05
   4.547835e+05   1.080987e+06
  -9.580279e+05   5.694398e+05
  -9.292598e+05  -3.706870e+05
   6.338887e+05  -7.218440e+05
   2.132800e+06  -4.988629e+04
   1.926289e+06   1.175159e+06
  -8.363186e+03   1.994142e+06
  -2.043781e+06   1.673516e+06
  -2.458941e+06   3.312541e+05
  -1.057448e+06  -9.914712e+05
   7.019569e+05  -1.166864e+06
   1.171509e+06  -1.549478e+05
   9.647860e+04   8.321276e+05
  -1.268078e+06   6.221391e+05
  -1.521943e+06  -5.735323e+05
  -4.754260e+05  -1.421032e+06
   8.112802e+05  -1.034346e+06
   1.157090e+06   5.773370e+04
   3.758560e+05   6.169609e+05
  -5.944832e+05   9.299832e+04
  -6.077110e+05  -8.765175e+05
   5.287835e+05  -1.207976e+06
   1.750860e+06  -4.283611e+05
   1.744490e+06   9.218646e+05
   3.535173e+05   1.771309e+06
  -1.171350e+06   1.444556e+06
  -1.476376e+06   2.691660e+05
  -5.174829e+05  -7.169406e+05
   5.280484e+05  -7.526020e+05
   6.425474e+05  -6.021756e+04
  -3.039842e+04   4.856948e+05
  -5.704101e+05   3.515265e+05
  -3.760609e+05  -1.181789e+05
   2.667650e+05  -1.815706e+05
   5.532730e+05   3.946440e+05
  -2.797018e+04   1.012959e+06
  -1.146826e+06   8.377101e+05
  -1.820130e+06  -3.117180e+05
  -1.289378e+06  -1.668700e+06
   1.702352e+05  -2.156033e+06
   1.428982e+06  -1.378027e+06
   1.614927e+06   2.168154e+03
   9.466232e+05   9.052551e+05
   3.292315e+05   8.605440e+05
   2.595255e+05   3.575620e+05
   3.751782e+05   1.909020e+05
   6.830904e+04   5.487011e+05
  -7.016391e+05   8.362112e+05
  -1.308862e+06   3.966841e+05
  -1.061949e+06  -6.643488e+05
   1.246731e+05  -1.441858e+06
   1.523420e+06  -1.069150e+06
   2.042483e+06   3.730096e+05
   1.108720e+06   1.805242e+06
  -7.199692e+05   2.082842e+06
  -2.118891e+06   1.038896e+06
  -2.149322e+06  -4.047355e+05
  -1.065978e+06  -1.169510e+06
   6.624770e+04  -1.019786e+06
   4.740780e+05  -6.115168e+05
   2.936602e+05  -6.272102e+05
   1.849776e+05  -9.965891e+05
   5.297244e+05  -1.030141e+06
   1.055762e+06  -2.597640e+05
   1.147144e+06   9.497876e+05
   4.845801e+05   1.666888e+06
  -5.555161e+05   1.265965e+06
  -1.145813e+06   3.832350e+04
  -7.698743e+05  -1.052820e+06
   2.170874e+05  -1.224137e+06
   8.944084e+05  -5.078111e+05
   7.144635e+05   3.985661e+05
   5.034840e+04   8.386668e+05
  -2.859237e+05   7.266043e+05
  -1.998891e+03   4.429997e+05
   3.475948e+05   3.293858e+05
   3.269700e+04   3.517454e+05
  -9.459213e+05   2.215449e+05
  -1.728956e+06  -2.319105e+05
  -1.430820e+06  -8.343907e+05
  -9.386070e+04  -1.182336e+06
   1.253183e+06  -9.849175e+05
   1.563332e+06  -3.433642e+05
   7.859285e+05   2.814399e+05
  -1.616638e+05   4.363817e+05
  -4.131694e+05   9.664958e+04
   9.579416e+03  -2.791182e+05
   4.334411e+05  -2.012882e+05
   4.078939e+05   2.993060e+05
   1.169780e+05   6.586296e+05
  -1.480413e+04   4.217607e+05
   1.373460e+05  -1.585069e+05
   3.331507e+05  -3.464966e+05
   2.653986e+05   1.922065e+05
  -1.740580e+05   9.027247e+05
  -7.776442e+05   9.229159e+05
  -1.065479e+06   9.828933e+04
  -6.279995e+05  -7.955519e+05
   3.523118e+05  -9.036082e+05
   1.025198e+06  -2.047983e+05
   6.301200e+05   5.338855e+05
  -5.876636e+05   5.995447e+05
  -1.452677e+06  -1.610714e+04
  -1.038505e+06  -7.351864e+05
   3.205716e+05  -9.726581e+05
   1.358962e+06  -5.829478e+05
   1.193150e+06   8.703368e+04
   1.760689e+05   4.826234e+05
  -5.626419e+05   2.944445e+05
  -3.089396e+05  -2.215427e+05
   5.603684e+05  -4.094684e+05
   1.030154e+06   1.442898e+05
   4.998433e+05   1.075530e+06
  -6.252337e+05   1.460476e+06
  -1.360261e+06   7.139018e+05
  -1.108024e+06  -7.084230e+05
  -1.678843e+05  -1.615474e+06
   6.617625e+05  -1.209244e+06
   8.489177e+05   9.123541e+04
   4.565646e+05   1.057036e+06
  -1.105245e+05   9.200139e+05
  -4.778592e+05   1.152232e+05
  -4.783180e+05  -3.547798e+05
  -2.137364e+05  -1.496793e+05
  -1.800864e+04   1.088301e+05
  -1.545446e+05  -2.072651e+05
  -4.214158e+05  -8.368576e+05
  -2.557489e+05  -9.835093e+05
   5.419077e+05  -3.770754e+05
   1.331118e+06   4.147450e+05
   1.223125e+06   7.494332e+05
   1.777225e+05   6.069967e+05
  -8.277768e+05   3.626520e+05
  -9.052923e+05   1.886228e+05
  -2.679941e+05  -1.637467e+03
   1.552421e+05  -1.921343e+05
  -4.475091e+04  -2.290848e+05
  -3.166409e+05  -1.365959e+05
  -1.149300e+04  -1.212742e+05
   6.768665e+05  -1.695956e+05
   9.182745e+05   3.775488e+04
   2.613596e+05   5.932606e+05
  -8.272757e+05   9.877274e+05
  -1.452675e+06   6.093502e+05
  -1.146570e+06  -4.278135e+05
  -2.048840e+05  -1.262630e+06
   6.635662e+05  -1.193483e+06
   9.289165e+05  -4.180167e+05
   5.893564e+05   2.558801e+05
   8.214687e+04   3.148543e+05
  -1.289693e+05   5.335470e+03
   5.054662e+04  -7.123873e+04
   3.047115e+05   3.067813e+05
   2.480840e+05   7.212382e+05
  -1.773923e+05   5.838422e+05
  -6.154267e+05  -1.654319e+05
  -6.002788e+05  -8.969134e+05
  -1.245259e+04  -9.009943e+05
   7.100435e+05  -1.386945e+05
   8.844148e+05   7.118935e+05
   2.538051e+05   9.611964e+05
  -6.448066e+05   5.407172e+05
  -9.536645e+05  -9.176556e+04
  -4.295137e+05  -4.925256e+05
   2.483659e+05  -5.327697e+05
   2.766347e+05  -3.129698e+05
  -2.843600e+05  -4.086104e+04
  -5.936335e+05   1.854070e+04
  -1.061272e+05  -2.594801e+05
   7.375718e+05  -6.069243e+05
   1.067899e+06  -5.269630e+05
   6.131533e+05   1.040657e+05
  -9.465740e+04   7.438276e+05
  -4.348317e+05   7.338287e+05
  -3.085411e+05   9.822165e+04
  -7.152541e+03  -4.501462e+05
   2.248081e+05  -3.477992e+05
   3.104652e+05   1.922031e+05
   2.119850e+05   5.155742e+05
  -6.128619e+04   3.233287e+05
  -3.418888e+05  -6.810417e+04
  -4.026649e+05  -2.092128e+05
  -2.169251e+05  -5.012350e+04
   3.266112e+03   8.452236e+04
   7.998730e+04  -5.721798e+04
   7.725146e+04  -3.450811e+05
   1.595244e+05  -4.131451e+05
   3.130744e+05  -8.054410e+04
   3.193894e+05   4.038151e+05
   2.855792e+04   5.765759e+05
  -3.922635e+05   2.441856e+05
  -5.445385e+05  -2.891489e+05
  -1.884064e+05  -5.320989e+05
   4.346355e+05  -3.129862e+05
   7.451150e+05   9.765894e+04
   4.042421e+05   3.388247e+05
  -2.601161e+05   3.084626e+05
  -5.482858e+05   1.443069e+05
  -1.754051e+05   8.696901e+03
   3.681801e+05  -5.105640e+03
   3.809130e+05   1.275593e+05
  -2.074552e+05   2.917819e+05
  -7.478999e+05   2.251909e+05
