
 $NMID
 id='ANONYMOUS ', fmtdat='(2E16.6)'
 volume=1.0
 tramp=1.0
 $END
   3.504562e+07  -3.957461e+04
   2.284611e+07   1.854618e+07
  -1.654615e+06   2.302940e+07
  -1.619478e+07   1.277088e+07
  -1.213194e+07  -8.220551e+05
   2.809210e+05  -6.287042e+06
   6.961683e+06  -1.681140e+06
   4.071394e+06   5.987781e+06
  -2.653841e+06   8.389226e+06
  -6.538533e+06   3.182889e+06
  -5.193731e+06  -4.367117e+06
  -5.559645e+05  -6.663292e+06
   3.067332e+06  -1.564164e+06
   2.207967e+06   5.180675e+06
  -2.313892e+06   6.094151e+06
  -5.627233e+06   8.600749e+04
  -3.791211e+06  -6.800397e+06
   1.927247e+06  -8.311357e+06
   6.597739e+06  -3.992629e+06
   6.780228e+06   1.758300e+06
   3.348598e+06   4.779867e+06
  -8.763352e+04   4.388945e+06
  -6.828662e+05   2.792753e+06
   1.162784e+06   2.474920e+06
   2.106010e+06   3.813351e+06
  -6.948118e+05   4.718907e+06
  -5.800712e+06   2.973388e+06
  -8.185449e+06  -9.062424e+05
  -4.837364e+06  -3.840695e+06
   1.229381e+06  -3.513768e+06
   4.112802e+06  -7.612653e+05
   1.697966e+06   1.670207e+06
  -2.482486e+06   1.850214e+06
  -3.945264e+06  -2.096488e+05
  -1.981334e+06  -2.962468e+06
   7.967233e+05  -4.113299e+06
   1.961206e+06  -2.248262e+06
   1.219073e+06   1.136758e+06
  -1.290302e+05   2.346937e+06
  -5.030901e+05  -1.878537e+05
   7.080672e+05  -3.203591e+06
   2.318543e+06  -2.316199e+06
   2.150098e+06   1.920175e+06
  -4.740355e+05   4.179995e+06
  -3.297349e+06   1.204151e+06
  -3.125730e+06  -3.830964e+06
   5.991895e+05  -5.257780e+06
   4.817489e+06  -1.655662e+06
   5.691678e+06   3.141479e+06
   2.261348e+06   4.868990e+06
  -2.643154e+06   2.833598e+06
  -4.915497e+06  -5.652115e+05
  -2.856383e+06  -2.558289e+06
   1.244770e+06  -1.978519e+06
   3.344396e+06   1.876279e+05
   1.783526e+06   1.670373e+06
  -1.072072e+06   1.047605e+06
  -1.743627e+06  -7.049935e+05
   2.408413e+05  -1.348602e+06
   2.002132e+06  -8.961417e+04
   1.007571e+06   1.572144e+06
  -1.893742e+06   1.750943e+06
  -3.568205e+06   9.864810e+04
  -2.054802e+06  -2.295239e+06
   1.628447e+06  -3.941511e+06
   4.709401e+06  -3.563112e+06
   5.129239e+06  -7.897660e+05
   3.024580e+06   2.947021e+06
   3.178596e+05   5.029227e+06
  -1.100851e+06   4.187367e+06
  -1.027645e+06   1.988390e+06
  -8.028328e+05   8.685325e+05
  -1.514099e+06   1.081651e+06
  -2.657592e+06   7.583242e+05
  -2.813969e+06  -1.080033e+06
  -1.355419e+06  -2.876895e+06
   8.571849e+05  -2.478280e+06
   2.263641e+06   1.123094e+05
   1.797269e+06   2.653726e+06
  -3.709311e+05   3.002056e+06
  -2.767121e+06   1.009057e+06
  -3.524853e+06  -1.666704e+06
  -2.033782e+06  -3.156956e+06
   2.942060e+05  -2.860560e+06
   1.489298e+06  -1.695351e+06
   1.309846e+06  -9.717927e+05
   1.375623e+06  -9.699255e+05
   2.754523e+06  -7.533063e+05
   4.175650e+06   5.686792e+05
   3.399840e+06   2.646671e+06
   9.496675e+04   4.107343e+06
  -3.415433e+06   3.782508e+06
  -4.429364e+06   1.677671e+06
  -2.502640e+06  -9.486849e+05
   3.039177e+05  -2.353288e+06
   1.522263e+06  -1.649025e+06
   4.982061e+05   2.167826e+05
  -1.266255e+06   1.185676e+06
  -1.798112e+06   2.931469e+05
  -6.644523e+05  -1.133120e+06
   7.112424e+05  -1.106485e+06
   7.169090e+05   3.740240e+05
  -6.675166e+05   1.171031e+06
  -1.907706e+06  -2.795791e+05
  -1.540893e+06  -2.861902e+06
   4.732700e+05  -3.944738e+06
   2.828442e+06  -2.269244e+06
   3.920746e+06   8.570716e+05
   2.957890e+06   3.049035e+06
   5.844699e+05   3.040593e+06
  -1.445229e+06   1.487624e+06
  -1.698745e+06   7.135697e+04
  -5.014809e+05  -6.252234e+04
   3.569816e+05   7.627881e+05
  -3.300213e+05   1.237730e+06
  -1.720037e+06   5.421728e+05
  -1.949740e+06  -7.338775e+05
  -4.790531e+05  -1.292740e+06
   1.150418e+06  -6.237239e+05
   1.068512e+06   4.735774e+05
  -7.727849e+05   8.083134e+05
  -2.486758e+06  -4.070965e+04
  -2.190581e+06  -1.452684e+06
   9.889379e+04  -2.321740e+06
   2.460845e+06  -1.864355e+06
   2.891450e+06  -2.792344e+05
   1.194251e+06   1.212121e+06
  -8.793258e+05   1.341450e+06
  -1.387550e+06   1.282001e+05
  -7.884334e+04  -9.858181e+05
   1.515558e+06  -6.751046e+05
   1.756433e+06   7.417076e+05
   4.878819e+05   1.684252e+06
  -9.992729e+05   1.167761e+06
  -1.348812e+06  -1.261328e+05
  -4.065015e+05  -7.412770e+05
   7.052740e+05  -8.219975e+04
   6.775444e+05   1.054487e+06
  -6.686736e+05   1.395420e+06
  -2.069515e+06   4.304978e+05
  -2.005924e+06  -1.153799e+06
  -3.373080e+05  -2.091422e+06
   1.437546e+06  -1.640254e+06
   1.741145e+06  -2.470633e+05
   5.710301e+05   8.641229e+05
  -6.533355e+05   8.570166e+05
  -7.531344e+05   4.387802e+04
   5.615043e+04  -5.613819e+05
   6.753141e+05  -3.841133e+05
   4.265743e+05   1.477549e+05
  -3.205645e+05   1.903618e+05
  -6.242932e+05  -4.907413e+05
   8.137269e+04  -1.183268e+06
   1.379427e+06  -9.295469e+05
   2.117470e+06   4.437055e+05
   1.438517e+06   2.009661e+06
  -2.915376e+05   2.515530e+06
  -1.729950e+06   1.546919e+06
  -1.883803e+06  -7.444727e+04
  -1.062442e+06  -1.093195e+06
  -3.493421e+05  -1.009097e+06
  -2.965449e+05  -4.244167e+05
  -4.370582e+05  -2.439618e+05
  -5.610581e+04  -6.490901e+05
   8.578334e+05  -9.459335e+05
   1.544778e+06  -4.056038e+05
   1.209286e+06   8.183500e+05
  -2.080902e+05   1.674321e+06
  -1.825733e+06   1.182566e+06
  -2.371910e+06  -5.238394e+05
  -1.217087e+06  -2.160862e+06
   9.376347e+05  -2.406530e+06
   2.528218e+06  -1.120072e+06
   2.494167e+06   5.714593e+05
   1.189217e+06   1.412691e+06
  -1.234391e+05   1.182494e+06
  -5.738974e+05   6.907392e+05
  -3.618998e+05   7.256146e+05
  -2.570033e+05   1.165883e+06
  -6.675909e+05   1.186897e+06
  -1.250615e+06   2.592119e+05
  -1.303967e+06  -1.161038e+06
  -4.968659e+05  -1.972318e+06
   7.039202e+05  -1.458812e+06
   1.342496e+06   5.137413e+03
   8.539851e+05   1.267793e+06
  -3.111154e+05   1.422939e+06
  -1.072321e+06   5.494956e+05
  -8.174895e+05  -5.051679e+05
  -1.625078e+04  -9.866515e+05
   3.723910e+05  -8.354768e+05
   2.348560e+04  -5.149417e+05
  -3.942242e+05  -3.989258e+05
  -2.432591e+04  -4.122591e+05
   1.118391e+06  -2.172772e+05
   2.016577e+06   3.473758e+05
   1.638772e+06   1.040164e+06
   5.444456e+04   1.390433e+06
  -1.514617e+06   1.099639e+06
  -1.845986e+06   3.312441e+05
  -9.049432e+05  -3.685224e+05
   2.108624e+05  -5.058154e+05
   4.884459e+05  -9.272596e+04
  -2.253812e+04   3.296275e+05
  -5.142112e+05   2.179981e+05
  -4.649316e+05  -3.678762e+05
  -1.130447e+05  -7.755685e+05
   3.147361e+04  -4.938160e+05
  -1.658987e+05   1.767852e+05
  -4.001209e+05   3.890988e+05
  -3.016212e+05  -2.355777e+05
   2.390250e+05  -1.047804e+06
   9.492596e+05  -1.048275e+06
   1.256801e+06  -7.184322e+04
   7.063444e+05   9.587847e+05
  -4.516718e+05   1.046620e+06
  -1.212405e+06   1.993526e+05
  -7.156220e+05  -6.505014e+05
   7.142342e+05  -6.752631e+05
   1.696707e+06   8.287880e+04
   1.177905e+06   9.041608e+05
  -4.197854e+05   1.119702e+06
  -1.612350e+06   6.185352e+05
  -1.387948e+06  -1.547268e+05
  -1.835701e+05  -5.707544e+05
   6.711978e+05  -3.185649e+05
   3.534468e+05   2.742295e+05
  -6.717796e+05   4.582795e+05
  -1.201001e+06  -2.094350e+05
  -5.437235e+05  -1.279422e+06
   7.896861e+05  -1.685525e+06
   1.620786e+06  -7.810662e+05
   1.267092e+06   8.745169e+05
   1.287173e+05   1.896540e+06
  -8.248781e+05   1.384604e+06
  -9.879417e+05  -1.450547e+05
  -4.867260e+05  -1.255750e+06
   1.710844e+05  -1.069105e+06
   5.646765e+05  -1.131055e+05
   5.424195e+05   4.340275e+05
   2.413359e+05   1.826218e+05
   2.667542e+04  -1.253908e+05
   1.757357e+05   2.520460e+05
   4.590047e+05   9.983891e+05
   2.542259e+05   1.160266e+06
  -6.539022e+05   4.166454e+05
  -1.539336e+06  -5.414644e+05
  -1.396055e+06  -9.278226e+05
  -1.817066e+05  -7.181734e+05
   9.810287e+05  -3.902521e+05
   1.065818e+06  -1.816108e+05
   3.154105e+05   1.549919e+04
  -1.888783e+05   2.187887e+05
   3.963346e+04   2.672823e+05
   3.617724e+05   1.701703e+05
   1.006697e+04   1.424699e+05
  -7.955789e+05   1.724546e+05
  -1.073852e+06  -8.162389e+04
  -2.861729e+05  -7.071135e+05
   1.006737e+06  -1.124242e+06
   1.728698e+06  -6.542688e+05
   1.328762e+06   5.477061e+05
   1.884605e+05   1.485862e+06
  -8.276249e+05   1.369933e+06
  -1.105147e+06   4.529483e+05
  -6.791064e+05  -3.218062e+05
  -8.471441e+04  -3.723483e+05
   1.485119e+05  -3.778816e+03
  -6.268346e+04   7.858343e+04
  -3.419501e+05  -3.724281e+05
  -2.588885e+05  -8.542826e+05
   2.314969e+05  -6.770563e+05
   7.134392e+05   2.167037e+05
   6.678722e+05   1.073084e+06
  -1.932999e+04   1.056425e+06
  -8.355721e+05   1.364704e+05
  -1.007219e+06  -8.673011e+05
  -2.591428e+05  -1.136230e+06
   7.771861e+05  -6.086027e+05
   1.114233e+06   1.464617e+05
   4.837206e+05   5.970412e+05
  -3.136738e+05   6.163436e+05
  -3.397894e+05   3.550783e+05
   3.281686e+05   5.789828e+04
   6.947612e+05   2.310417e+03
   1.143078e+05   3.088879e+05
  -8.884956e+05   6.791368e+05
  -1.274003e+06   5.692805e+05
  -7.158041e+05  -1.505284e+05
   1.418643e+05  -8.679360e+05
   5.425096e+05  -8.413787e+05
   3.687205e+05  -1.036461e+05
  -8.488141e+03   5.261921e+05
  -2.773336e+05   3.994717e+05
  -3.557462e+05  -2.350825e+05
  -2.271101e+05  -6.122249e+05
   8.499054e+04  -3.785629e+05
   3.977332e+05   9.277031e+04
   4.631361e+05   2.638174e+05
   2.514185e+05   6.945080e+04
  -1.266498e+03  -1.015691e+05
  -9.506015e+04   5.911619e+04
  -1.005252e+05   3.997571e+05
  -1.991107e+05   4.811791e+05
  -3.691452e+05   8.668034e+04
  -3.614401e+05  -4.834256e+05
  -1.450116e+04  -6.766453e+05
   4.681088e+05  -2.711960e+05
   6.275972e+05   3.595415e+05
   2.001509e+05   6.297527e+05
  -5.225990e+05   3.485382e+05
  -8.700173e+05  -1.442998e+05
  -4.599530e+05  -4.134847e+05
   3.177600e+05  -3.523742e+05
   6.491133e+05  -1.485206e+05
   2.079311e+05  -2.789890e+03
  -4.286670e+05  -6.363132e+03
  -4.400690e+05  -1.617817e+05
   2.520450e+05  -3.316393e+05
   8.806687e+05  -2.335498e+05
