
 $NMID
 id='ANONYMOUS ', fmtdat='(2E16.6)'
 volume=1.0
 tramp=1.0
 $END
  -1.653244e+07   1.054262e+06
  -1.060623e+07  -9.638996e+06
   1.487369e+06  -1.135378e+07
   7.856202e+06  -4.797479e+06
   4.980348e+06   1.786582e+06
  -8.119561e+05   2.809821e+06
  -2.919495e+06  -1.969483e+05
  -9.834979e+05  -2.832514e+06
   1.670898e+06  -2.848274e+06
   2.804852e+06  -7.502030e+05
   2.159660e+06   1.691071e+06
   3.917015e+05   2.500465e+06
  -1.114803e+06   8.774764e+05
  -8.580952e+05  -1.538860e+06
   9.968227e+05  -1.978676e+06
   2.337232e+06   2.561790e+05
   1.485307e+06   2.915916e+06
  -8.979279e+05   3.529662e+06
  -2.854323e+06   1.919423e+06
  -3.207286e+06  -3.948727e+05
  -2.090207e+06  -2.065791e+06
  -3.782781e+05  -2.529084e+06
   7.412793e+05  -1.847680e+06
   5.159049e+05  -8.374287e+05
  -3.378933e+05  -6.047984e+05
  -1.451387e+05  -1.199672e+06
   1.486822e+06  -1.374044e+06
   2.802853e+06  -3.226092e+05
   2.134470e+06   1.072425e+06
   1.774198e+05   1.469127e+06
  -1.024540e+06   8.192105e+05
  -7.135937e+05   6.181694e+04
   1.547550e+05  -2.643522e+05
   6.397541e+05  -1.736678e+05
   6.537087e+05   3.690975e+05
   2.753857e+05   1.121366e+06
  -4.489016e+05   1.160854e+06
  -9.485607e+05   4.374680e+04
  -5.787245e+05  -1.025680e+06
   1.812702e+05  -5.884890e+05
   1.418029e+05   6.979540e+05
  -6.796306e+05   7.122546e+05
  -7.756208e+05  -8.961059e+05
   6.053235e+05  -1.851291e+06
   2.030459e+06  -4.331027e+05
   1.636959e+06   1.938511e+06
  -4.031529e+05   2.543310e+06
  -2.133928e+06   8.476085e+05
  -2.113800e+06  -1.182687e+06
  -6.411973e+05  -1.737858e+06
   9.753457e+05  -8.518425e+05
   1.566940e+06   3.634763e+05
   7.674565e+05   9.864756e+05
  -6.741653e+05   6.892052e+05
  -1.346601e+06  -1.918684e+05
  -6.207981e+05  -7.664513e+05
   4.799715e+05  -4.336389e+05
   5.263879e+05   2.734363e+05
  -3.795872e+05   2.951636e+05
  -7.668988e+05  -4.772382e+05
   1.182134e+05  -1.034675e+06
   1.331031e+06  -6.504570e+05
   1.587195e+06   3.041515e+05
   7.536935e+05   1.128639e+06
  -4.319874e+05   1.572652e+06
  -1.374673e+06   1.502539e+06
  -1.776988e+06   6.226024e+05
  -1.397495e+06  -8.366239e+05
  -3.870905e+05  -1.786942e+06
   4.658124e+05  -1.430910e+06
   5.045095e+05  -3.867525e+05
   5.729960e+04   8.111846e+04
  -3.117981e+04  -2.741254e+05
   4.268372e+05  -5.469781e+05
   8.095359e+05  -1.229782e+05
   6.219865e+05   5.222577e+05
   4.489839e+04   6.200686e+05
  -4.460979e+05   8.245371e+04
  -5.211747e+05  -5.787052e+05
  -5.052133e+04  -8.565831e+05
   7.779533e+05  -5.329545e+05
   1.328873e+06   2.657519e+05
   1.014076e+06   1.041065e+06
   6.971060e+04   1.241998e+06
  -6.178224e+05   8.431048e+05
  -6.382300e+05   3.770016e+05
  -5.304386e+05   2.317119e+05
  -8.579261e+05   1.879583e+05
  -1.290045e+06  -1.530776e+05
  -1.068484e+06  -7.557740e+05
  -1.046129e+05  -1.209436e+06
   8.769274e+05  -1.195846e+06
   1.186742e+06  -6.907629e+05
   7.841076e+05   7.628584e+04
   1.199697e+05   6.470496e+05
  -2.872258e+05   5.848228e+05
  -1.653644e+05   2.747237e+02
   2.968406e+05  -4.021156e+05
   5.546224e+05  -1.494105e+05
   2.929330e+05   3.383054e+05
  -1.330639e+05   3.346442e+05
  -1.301930e+05  -1.104618e+05
   3.098286e+05  -2.216807e+05
   5.744978e+05   3.576975e+05
   2.428555e+05   1.027363e+06
  -4.279180e+05   1.032837e+06
  -9.181267e+05   3.692996e+05
  -9.950188e+05  -3.831960e+05
  -7.035458e+05  -7.795245e+05
  -1.692881e+05  -7.580203e+05
   3.405512e+05  -4.485472e+05
   4.586229e+05  -9.246895e+04
   1.457469e+05   5.724896e+03
  -1.172925e+05  -2.161904e+05
   1.012491e+05  -4.041027e+05
   5.557943e+05  -2.024920e+05
   6.163722e+05   2.316927e+05
   1.354443e+05   4.147742e+05
  -3.381278e+05   1.861808e+05
  -2.668953e+05  -1.224395e+05
   2.466152e+05  -1.633222e+05
   6.469892e+05   6.813604e+04
   5.282164e+05   3.768064e+05
  -4.895277e+04   5.819252e+05
  -6.559862e+05   5.190154e+05
  -8.130843e+05   1.219589e+05
  -3.797246e+05  -3.556922e+05
   2.474574e+05  -4.606157e+05
   4.599611e+05  -8.264345e+04
   7.885400e+04   3.164858e+05
  -4.363710e+05   2.420416e+05
  -5.196044e+05  -2.059928e+05
  -1.218440e+05  -4.843832e+05
   3.116945e+05  -3.028490e+05
   3.767621e+05   7.763160e+04
   8.188759e+04   2.299108e+05
  -2.368142e+05   2.877393e+04
  -2.351766e+05  -2.997491e+05
   1.464328e+05  -4.298020e+05
   5.832761e+05  -1.929296e+05
   6.178258e+05   2.771058e+05
   1.459864e+05   6.071381e+05
  -4.010761e+05   5.080237e+05
  -5.076631e+05   8.739901e+04
  -1.603431e+05  -2.503469e+05
   1.835140e+05  -2.466471e+05
   1.835921e+05  -3.157388e+04
  -3.298821e+04   1.052192e+05
  -1.404564e+05   6.377283e+04
  -3.042305e+04  -1.907062e+04
   1.389847e+05   1.988396e+04
   1.630045e+05   1.956248e+05
  -4.567435e+04   3.555696e+05
  -3.957523e+05   2.850904e+05
  -6.210531e+05  -9.065159e+04
  -4.628726e+05  -5.509910e+05
   2.661796e+04  -7.166786e+05
   4.552559e+05  -4.382958e+05
   4.980930e+05   1.481016e+04
   2.608528e+05   2.501724e+05
   9.929437e+04   1.809385e+05
   1.459771e+05   5.150154e+04
   1.947942e+05   8.251850e+04
   4.043626e+04   2.266084e+05
  -2.463370e+05   2.789081e+05
  -4.221327e+05   1.151740e+05
  -3.168377e+05  -1.973319e+05
   5.507984e+04  -4.312436e+05
   4.919115e+05  -3.397602e+05
   6.690569e+05   1.093425e+05
   3.646680e+05   6.035555e+05
  -2.648527e+05   7.149477e+05
  -7.376982e+05   3.417667e+05
  -7.031091e+05  -1.629398e+05
  -2.970286e+05  -3.823787e+05
   5.100255e+04  -2.784742e+05
   1.052232e+05  -1.508601e+05
   5.099013e+03  -2.215764e+05
   5.698325e+03  -3.896336e+05
   1.775838e+05  -3.936578e+05
   3.781113e+05  -1.158689e+05
   4.121951e+05   2.968222e+05
   1.943574e+05   5.494627e+05
  -1.602242e+05   4.333369e+05
  -3.790029e+05   1.843093e+04
  -2.590515e+05  -3.681086e+05
   9.640694e+04  -4.191631e+05
   3.414262e+05  -1.352506e+05
   2.524673e+05   1.985143e+05
  -2.238417e+04   3.236429e+05
  -1.512740e+05   2.400448e+05
  -2.138529e+04   1.226531e+05
   1.336595e+05   9.065768e+04
   2.421753e+04   1.113649e+05
  -3.374533e+05   7.988581e+04
  -6.165030e+05  -6.579995e+04
  -4.938183e+05  -2.821282e+05
  -8.913122e+03  -4.273347e+05
   4.542464e+05  -3.637718e+05
   5.379821e+05  -1.086281e+05
   2.538135e+05   1.375736e+05
  -6.912584e+04   1.746140e+05
  -1.521794e+05   1.651556e+04
  -1.808934e+04  -1.260271e+05
   1.245983e+05  -8.371846e+04
   1.480881e+05   9.277128e+04
   8.989330e+04   2.068698e+05
   3.958286e+04   1.384295e+05
   3.930992e+04  -2.734972e+04
   7.565550e+04  -8.650045e+04
   8.429145e+04   6.476267e+04
  -2.421161e+04   2.912052e+05
  -2.479207e+05   3.296972e+05
  -4.028096e+05   7.784516e+04
  -2.710030e+05  -2.542837e+05
   1.027512e+05  -3.467016e+05
   3.671591e+05  -1.250270e+05
   2.260818e+05   1.553330e+05
  -1.980103e+05   2.018719e+05
  -4.684746e+05  -6.023881e+03
  -3.044308e+05  -2.413136e+05
   1.325910e+05  -2.965462e+05
   4.346358e+05  -1.578606e+05
   3.630330e+05   4.139138e+04
   4.489297e+04   1.489008e+05
  -1.884259e+05   8.745357e+04
  -1.201572e+05  -8.178202e+04
   1.608071e+05  -1.658816e+05
   3.500480e+05  -3.052963e+02
   2.228010e+05   3.337859e+05
  -1.381717e+05   5.134111e+05
  -4.186751e+05   2.902226e+05
  -3.833109e+05  -1.995024e+05
  -9.086080e+04  -5.232968e+05
   1.970190e+05  -3.907486e+05
   2.753114e+05   4.083211e+04
   1.427956e+05   3.455713e+05
  -5.482265e+04   2.871307e+05
  -1.664574e+05   3.199976e+04
  -1.392934e+05  -1.032495e+05
  -4.547687e+04  -3.705761e+04
  -1.484113e+04   2.772702e+04
  -9.497986e+04  -8.453396e+04
  -1.694424e+05  -2.772903e+05
  -6.824961e+04  -3.145750e+05
   2.110989e+05  -1.284608e+05
   4.416130e+05   1.120356e+05
   3.856796e+05   2.258968e+05
   6.587731e+04   2.041756e+05
  -2.389229e+05   1.381324e+05
  -2.853125e+05   6.824640e+04
  -1.123811e+05  -1.203337e+04
   3.672233e+04  -6.935372e+04
   1.406834e+04  -5.872895e+04
  -7.205304e+04  -2.027967e+04
  -2.012370e+04  -3.752319e+04
   1.826093e+05  -8.338775e+04
   3.096909e+05  -1.826001e+04
   1.517346e+05   1.960474e+05
  -2.186210e+05   3.668197e+05
  -4.919543e+05   2.612891e+05
  -4.336145e+05  -9.512510e+04
  -1.105820e+05  -4.080335e+05
   2.022818e+05  -4.233504e+05
   2.990793e+05  -1.841766e+05
   1.961258e+05   5.178074e+04
   4.981695e+04   1.029423e+05
  -1.189346e+04   2.485888e+04
   2.697111e+04  -1.300746e+03
   9.214010e+04   1.058438e+05
   8.496896e+04   2.343814e+05
  -3.795329e+04   2.055290e+05
  -2.010716e+05  -1.695463e+04
  -2.411152e+05  -2.600976e+05
  -6.402024e+04  -3.019638e+05
   2.111652e+05  -9.571141e+04
   3.216393e+05   1.839892e+05
   1.302499e+05   3.144293e+05
  -1.948005e+05   2.204180e+05
  -3.356107e+05   3.283500e+03
  -1.747127e+05  -1.754615e+05
   7.085505e+04  -2.138016e+05
   1.115103e+05  -1.188546e+05
  -6.500755e+04   4.353151e+03
  -1.887087e+05   2.561196e+04
  -5.235645e+04  -8.920300e+04
   2.303317e+05  -2.156708e+05
   3.685418e+05  -1.792457e+05
   2.372549e+05   4.254190e+04
  -9.961508e+03   2.616508e+05
  -1.525206e+05   2.679029e+05
  -1.297591e+05   6.316113e+04
  -2.947163e+04  -1.364763e+05
   5.969849e+04  -1.376326e+05
   1.055938e+05   2.898975e+04
   8.792156e+04   1.648108e+05
  -4.017075e+03   1.337450e+05
  -1.162668e+05  -1.845201e+03
  -1.493610e+05  -7.801835e+04
  -7.418008e+04  -2.817913e+04
   1.769055e+04   4.903448e+04
   2.687788e+04   2.325594e+04
  -2.070665e+04  -9.799697e+04
  -1.254263e+04  -1.699702e+05
   8.317430e+04  -8.442972e+04
   1.522176e+05   9.211652e+04
   7.324870e+04   1.851051e+05
  -1.095489e+05   1.047628e+05
  -2.065664e+05  -6.277647e+04
  -9.061539e+04  -1.603451e+05
   1.443581e+05  -1.199855e+05
   2.663914e+05  -3.553282e+02
   1.516996e+05   1.009344e+05
  -7.758952e+04   1.302825e+05
  -1.851312e+05   8.836009e+04
  -7.963912e+04   1.271262e+04
   9.123300e+04  -3.293192e+04
   1.171770e+05   1.600992e+03
  -3.685318e+04   8.333418e+04
  -2.017366e+05   9.489380e+04
