
 $NMID
 id='ANONYMOUS ', fmtdat='(2E16.6)'
 volume=1.0
 tramp=1.0
 $END
   5.529955e+07  -2.521004e+05
   3.323910e+07   3.401423e+07
  -7.187655e+06   3.730154e+07
  -2.682822e+07   1.443935e+07
  -1.601346e+07  -6.719664e+06
   3.186575e+06  -9.077988e+06
   9.521711e+06   1.117086e+06
   2.760406e+06   9.452851e+06
  -5.908520e+06   9.124024e+06
  -9.358344e+06   2.027750e+06
  -6.919881e+06  -6.008029e+06
  -9.130797e+05  -8.433884e+06
   3.911440e+06  -2.745901e+06
   2.704990e+06   5.291425e+06
  -3.557538e+06   6.437084e+06
  -7.683436e+06  -1.240210e+06
  -4.430202e+06  -9.941487e+06
   3.605935e+06  -1.157329e+07
   9.873264e+06  -5.863662e+06
   1.064863e+07   1.954766e+06
   6.551371e+06   7.358542e+06
   6.748562e+05   8.522199e+06
  -2.886124e+06   5.904821e+06
  -1.775605e+06   2.528574e+06
   1.224840e+06   2.025303e+06
   3.911435e+05   4.135956e+06
  -5.258744e+06   4.476943e+06
  -9.542592e+06   6.626403e+05
  -7.008325e+06  -3.987136e+06
  -3.002700e+05  -5.044563e+06
   3.677624e+06  -2.647820e+06
   2.521847e+06  -4.231300e+04
  -5.151178e+05   1.037378e+06
  -2.258196e+06   6.344917e+05
  -2.276505e+06  -1.355327e+06
  -7.979979e+05  -3.919930e+06
   1.754126e+06  -3.841108e+06
   3.235254e+06   1.241774e+05
   1.707935e+06   3.625330e+06
  -8.263456e+05   1.898259e+06
  -4.433207e+05  -2.459068e+06
   2.354662e+06  -2.317885e+06
   2.415869e+06   3.090291e+06
  -2.333457e+06   5.978743e+06
  -6.787301e+06   9.763436e+05
  -5.035113e+06  -6.777907e+06
   1.836854e+06  -8.350298e+06
   7.271329e+06  -2.421741e+06
   6.867661e+06   4.262179e+06
   1.901796e+06   5.856393e+06
  -3.341180e+06   2.706537e+06
  -5.154788e+06  -1.387579e+06
  -2.420211e+06  -3.344409e+06
   2.330838e+06  -2.156694e+06
   4.431206e+06   8.570450e+05
   1.927646e+06   2.632922e+06
  -1.670347e+06   1.354687e+06
  -1.718892e+06  -9.662197e+05
   1.252167e+06  -8.805057e+05
   2.381284e+06   1.682426e+06
  -6.127208e+05   3.307382e+06
  -4.500741e+06   1.841828e+06
  -5.163415e+06  -1.286933e+06
  -2.288057e+06  -3.859771e+06
   1.709906e+06  -5.208007e+06
   4.868958e+06  -4.868481e+06
   6.093845e+06  -1.814911e+06
   4.570401e+06   3.071156e+06
   1.021998e+06   6.076646e+06
  -1.741046e+06   4.697396e+06
  -1.662880e+06   1.209236e+06
  -1.114255e+05  -2.072873e+05
   5.401278e+04   1.045891e+06
  -1.591876e+06   1.857293e+06
  -2.837562e+06   3.051476e+05
  -2.098730e+06  -1.891041e+06
  -9.571493e+04  -2.165271e+06
   1.548006e+06  -2.800487e+05
   1.741255e+06   2.002613e+06
   8.042971e+04   2.917172e+06
  -2.721176e+06   1.701172e+06
  -4.461655e+06  -1.111210e+06
  -3.236281e+06  -3.684665e+06
   1.512436e+03  -4.178177e+06
   2.226914e+06  -2.693052e+06
   2.179804e+06  -1.129419e+06
   1.776895e+06  -6.961807e+05
   2.880505e+06  -5.359511e+05
   4.305881e+06   6.559668e+05
   3.506282e+06   2.655673e+06
   2.260666e+05   4.081407e+06
  -3.085452e+06   3.946729e+06
  -4.102079e+06   2.213030e+06
  -2.667491e+06  -3.593894e+05
  -3.347399e+05  -2.236031e+06
   1.056652e+06  -1.964676e+06
   5.689585e+05   2.473596e+04
  -1.052932e+06   1.333417e+06
  -1.886893e+06   4.350707e+05
  -9.398405e+05  -1.186505e+06
   4.864509e+05  -1.126796e+06
   4.311328e+05   3.622231e+05
  -1.020116e+06   6.923924e+05
  -1.818488e+06  -1.237862e+06
  -6.810927e+05  -3.398452e+06
   1.481202e+06  -3.354026e+06
   3.029803e+06  -1.147107e+06
   3.274074e+06   1.331370e+06
   2.322623e+06   2.646606e+06
   5.277787e+05   2.565323e+06
  -1.193795e+06   1.490040e+06
  -1.566695e+06   2.700824e+05
  -4.910636e+05  -3.393621e+04
   3.729556e+05   7.394710e+05
  -3.886525e+05   1.339884e+06
  -1.889109e+06   6.081070e+05
  -2.035070e+06  -8.463143e+05
  -4.047576e+05  -1.398894e+06
   1.151698e+06  -5.904909e+05
   8.898931e+05   4.254729e+05
  -8.218088e+05   5.235027e+05
  -2.152666e+06  -2.660295e+05
  -1.754001e+06  -1.288201e+06
   1.938341e+05  -1.947032e+06
   2.245940e+06  -1.693919e+06
   2.748741e+06  -3.355479e+05
   1.235423e+06   1.236108e+06
  -8.917516e+05   1.516907e+06
  -1.556674e+06   2.153441e+05
  -2.223651e+05  -1.080219e+06
   1.497345e+06  -7.673531e+05
   1.723442e+06   7.426311e+05
   3.651439e+05   1.629965e+06
  -1.062228e+06   9.825047e+05
  -1.245739e+06  -2.889186e+05
  -2.515610e+05  -7.677842e+05
   7.951786e+05  -6.539945e+04
   7.585313e+05   1.037104e+06
  -5.412533e+05   1.436903e+06
  -1.991659e+06   5.908341e+05
  -2.056455e+06  -1.000473e+06
  -4.282303e+05  -2.060768e+06
   1.401506e+06  -1.666325e+06
   1.713372e+06  -2.431379e+05
   5.141901e+05   8.527382e+05
  -6.381915e+05   8.109316e+05
  -6.256740e+05   9.609930e+04
   1.043528e+05  -3.494394e+05
   4.684994e+05  -2.182951e+05
   1.132003e+05   4.444387e+04
  -4.410781e+05  -8.607243e+04
  -5.153613e+05  -6.623355e+05
   1.881768e+05  -1.180629e+06
   1.357436e+06  -9.179991e+05
   2.081983e+06   3.669874e+05
   1.504007e+06   1.904265e+06
  -1.577806e+05   2.415094e+06
  -1.567751e+06   1.438611e+06
  -1.673115e+06  -8.466656e+04
  -8.713282e+05  -8.557304e+05
  -3.446744e+05  -6.234863e+05
  -4.983646e+05  -2.071564e+05
  -6.369086e+05  -3.116041e+05
  -1.024236e+05  -7.666040e+05
   8.531890e+05  -9.117053e+05
   1.426770e+06  -3.529927e+05
   1.055980e+06   6.854004e+05
  -2.116304e+05   1.445344e+06
  -1.682472e+06   1.102110e+06
  -2.244173e+06  -4.278321e+05
  -1.170223e+06  -2.061728e+06
   9.599139e+05  -2.371468e+06
   2.508405e+06  -1.073311e+06
   2.343071e+06   6.073376e+05
   9.699226e+05   1.299091e+06
  -1.794102e+05   9.292505e+05
  -3.586162e+05   5.151022e+05
  -4.827080e+04   7.670114e+05
  -7.425638e+04   1.319136e+06
  -6.461971e+05   1.302925e+06
  -1.287398e+06   3.456284e+05
  -1.361103e+06  -1.045319e+06
  -6.015823e+05  -1.874308e+06
   5.837149e+05  -1.447641e+06
   1.277740e+06  -2.720996e+04
   8.324397e+05   1.260924e+06
  -3.638282e+05   1.393503e+06
  -1.148439e+06   4.149672e+05
  -8.127542e+05  -6.891768e+05
   1.132144e+05  -1.072680e+06
   5.257876e+05  -7.791450e+05
   7.526045e+04  -4.072285e+05
  -4.443879e+05  -3.232666e+05
  -7.149024e+04  -3.805237e+05
   1.141773e+06  -2.312366e+05
   2.066449e+06   2.894325e+05
   1.631906e+06   9.982699e+05
  -1.614828e+04   1.429331e+06
  -1.567026e+06   1.169002e+06
  -1.816149e+06   3.116749e+05
  -8.303014e+05  -4.804601e+05
   2.547405e+05  -5.745032e+05
   5.080710e+05  -3.904215e+04
   3.904109e+04   4.281431e+05
  -4.325622e+05   2.736115e+05
  -4.901239e+05  -3.293171e+05
  -2.821526e+05  -7.178200e+05
  -1.172094e+05  -4.805661e+05
  -1.287899e+05   9.199090e+04
  -2.578825e+05   2.951198e+05
  -2.775104e+05  -2.244217e+05
   1.086860e+05  -9.861692e+05
   8.705779e+05  -1.086632e+06
   1.369085e+06  -2.087426e+05
   8.854084e+05   8.965506e+05
  -3.902815e+05   1.156238e+06
  -1.258398e+06   3.753430e+05
  -7.502075e+05  -5.491316e+05
   6.848402e+05  -6.597315e+05
   1.575759e+06   5.962317e+04
   1.005584e+06   8.293437e+05
  -4.642221e+05   9.805497e+05
  -1.468304e+06   4.981243e+05
  -1.216498e+06  -1.630121e+05
  -1.413104e+05  -5.023003e+05
   6.388769e+05  -2.772721e+05
   3.930571e+05   2.897860e+05
  -5.655727e+05   5.470603e+05
  -1.188722e+06  -3.697612e+04
  -7.199415e+05  -1.159160e+06
   5.245556e+05  -1.729115e+06
   1.450681e+06  -9.416221e+05
   1.278511e+06   7.128260e+05
   2.580527e+05   1.778020e+06
  -6.974397e+05   1.302570e+06
  -9.199046e+05  -1.600014e+05
  -4.506156e+05  -1.173330e+06
   2.044934e+05  -9.573981e+05
   5.604299e+05  -9.089783e+04
   4.642318e+05   3.561673e+05
   1.548321e+05   1.233228e+05
   4.959150e+04  -9.032452e+04
   3.040943e+05   3.027614e+05
   5.421378e+05   9.555113e+05
   2.051103e+05   1.060834e+06
  -7.199145e+05   4.044696e+05
  -1.481317e+06  -4.191997e+05
  -1.283735e+06  -7.916400e+05
  -2.015848e+05  -6.941428e+05
   8.235236e+05  -4.502844e+05
   9.683475e+05  -2.067774e+05
   3.719692e+05   5.576669e+04
  -1.324687e+05   2.331760e+05
  -4.593524e+04   1.902755e+05
   2.494941e+05   6.842591e+04
   6.359977e+04   1.323666e+05
  -6.320059e+05   2.721676e+05
  -1.050497e+06   2.931622e+04
  -4.872169e+05  -6.897176e+05
   7.832065e+05  -1.224557e+06
   1.692427e+06  -8.263239e+05
   1.457001e+06   3.768739e+05
   3.338441e+05   1.393950e+06
  -7.273379e+05   1.407435e+06
  -1.034858e+06   5.906005e+05
  -6.631500e+05  -1.948957e+05
  -1.566607e+05  -3.565666e+05
   5.065339e+04  -8.847075e+04
  -8.430322e+04   1.139588e+03
  -2.998708e+05  -3.617322e+05
  -2.653544e+05  -7.970035e+05
   1.511079e+05  -6.920316e+05
   6.845044e+05   7.768269e+04
   7.931558e+05   9.104082e+05
   1.820278e+05   1.036271e+06
  -7.334835e+05   3.047041e+05
  -1.075753e+06  -6.595549e+05
  -4.066326e+05  -1.081332e+06
   6.872083e+05  -7.249157e+05
   1.135878e+06   2.727210e+04
   5.657805e+05   6.131940e+05
  -2.681586e+05   7.123848e+05
  -3.880332e+05   3.832511e+05
   2.259620e+05  -1.467604e+04
   6.425410e+05  -6.937754e+04
   1.657103e+05   3.088586e+05
  -7.990794e+05   7.066885e+05
  -1.255664e+06   5.651049e+05
  -7.891452e+05  -1.726868e+05
   6.294497e+04  -8.832033e+05
   5.429157e+05  -8.828612e+05
   4.476526e+05  -1.910676e+05
   8.768340e+04   4.695760e+05
  -2.202055e+05   4.593309e+05
  -3.610658e+05  -1.106452e+05
  -2.807440e+05  -5.672395e+05
   3.379728e+04  -4.513681e+05
   3.958560e+05   1.924866e+04
   4.916630e+05   2.793124e+05
   2.437596e+05   1.011593e+05
  -4.831510e+04  -1.690097e+05
  -7.749437e+04  -7.729017e+04
   6.107741e+04   3.445645e+05
   1.292201e+04   5.866710e+05
  -3.037801e+05   2.768551e+05
  -5.103121e+05  -3.388654e+05
  -2.257532e+05  -6.458808e+05
   3.856860e+05  -3.455708e+05
   6.952040e+05   2.392810e+05
   2.918780e+05   5.559524e+05
  -5.004986e+05   3.889267e+05
  -9.026020e+05  -3.070642e+04
  -5.023882e+05  -3.586917e+05
   2.806383e+05  -4.309516e+05
   6.406631e+05  -2.760870e+05
   2.697196e+05  -2.921117e+04
  -3.202798e+05   1.077174e+05
  -4.050063e+05  -1.708429e+04
   1.307338e+05  -2.861033e+05
   6.959987e+05  -3.108181e+05
