
 $NMID
 id='ANONYMOUS ', fmtdat='(2E16.6)'
 volume=1.0
 tramp=1.0
 $END
  -2.535662e+07   2.640265e+06
  -1.868902e+07  -1.076342e+07
  -1.555993e+06  -1.672858e+07
   1.065914e+07  -1.173211e+07
   9.681316e+06  -1.388024e+06
   8.327627e+05   4.836820e+06
  -5.343071e+06   2.505034e+06
  -4.184791e+06  -4.139438e+06
   1.046081e+06  -7.207967e+06
   4.790487e+06  -3.409917e+06
   4.334522e+06   2.997136e+06
   8.331111e+05   5.224930e+06
  -2.292302e+06   1.274548e+06
  -2.066822e+06  -4.225867e+06
   1.332966e+06  -5.264750e+06
   4.365457e+06  -7.459226e+05
   3.566875e+06   4.852007e+06
  -6.919372e+05   6.508775e+06
  -4.600684e+06   3.465783e+06
  -5.024757e+06  -9.362670e+05
  -2.507570e+06  -3.205426e+06
  -1.440064e+05  -2.815066e+06
  -1.515881e+05  -1.807447e+06
  -1.760613e+06  -2.110036e+06
  -2.139254e+06  -3.521481e+06
   5.673807e+05  -4.131778e+06
   4.815401e+06  -2.516280e+06
   6.651543e+06   5.904465e+05
   3.860793e+06   2.878377e+06
  -1.120898e+06   2.673867e+06
  -3.478012e+06   4.639902e+05
  -1.305975e+06  -1.660058e+06
   2.444941e+06  -1.824962e+06
   3.691888e+06   1.833996e+05
   1.736886e+06   2.731779e+06
  -7.860945e+05   3.523783e+06
  -1.527224e+06   1.670400e+06
  -6.345406e+05  -1.047891e+06
   3.285181e+05  -1.665697e+06
   3.032503e+05   5.674759e+05
  -6.853055e+05   2.880425e+06
  -1.823694e+06   2.098060e+06
  -1.912464e+06  -1.244552e+06
  -2.937136e+05  -3.243014e+06
   1.984645e+06  -1.368378e+06
   2.553184e+06   2.376229e+06
   1.571321e+05   3.867459e+06
  -3.438430e+06   1.593824e+06
  -4.789134e+06  -2.057670e+06
  -2.305823e+06  -3.796351e+06
   1.931513e+06  -2.603296e+06
   4.173655e+06   1.190049e+04
   2.686296e+06   1.848680e+06
  -7.033170e+05   1.744025e+06
  -2.633619e+06   2.106649e+05
  -1.606570e+06  -1.102378e+06
   7.110356e+05  -9.024282e+05
   1.531920e+06   4.420178e+05
   7.544176e+04   1.288787e+06
  -1.665810e+06   5.828211e+05
  -1.345736e+06  -9.531997e+05
   9.426955e+05  -1.655196e+06
   2.719913e+06  -6.362654e+05
   1.872902e+06   1.484194e+06
  -1.095603e+06   3.165988e+06
  -3.711010e+06   3.017350e+06
  -4.063381e+06   7.759475e+05
  -2.406348e+06  -2.248634e+06
  -4.412412e+05  -3.998078e+06
   5.383532e+05  -3.523201e+06
   6.439859e+05  -1.931210e+06
   8.114767e+05  -9.916926e+05
   1.558040e+06  -9.636059e+05
   2.403564e+06  -5.278903e+05
   2.399925e+06   1.049323e+06
   1.125007e+06   2.548985e+06
  -7.979423e+05   2.187857e+06
  -2.066823e+06  -7.117173e+04
  -1.668380e+06  -2.287437e+06
   2.408102e+05  -2.570414e+06
   2.275845e+06  -8.651105e+05
   2.865937e+06   1.299376e+06
   1.664688e+06   2.407963e+06
  -1.059892e+05   2.149977e+06
  -9.751286e+05   1.332019e+06
  -8.624922e+05   8.926950e+05
  -1.032423e+06   9.729042e+05
  -2.271243e+06   8.483185e+05
  -3.547334e+06  -2.179531e+05
  -3.012323e+06  -2.041849e+06
  -2.888042e+05  -3.477805e+06
   2.742393e+06  -3.358275e+06
   3.711340e+06  -1.552911e+06
   2.122524e+06   7.811210e+05
  -2.624690e+05   2.017775e+06
  -1.285381e+06   1.403356e+06
  -4.136803e+05  -1.943108e+05
   1.046336e+06  -1.039915e+06
   1.484058e+06  -3.243516e+05
   5.711053e+05   9.023780e+05
  -5.869977e+05   9.675212e+05
  -6.903794e+05  -2.874431e+05
   4.377832e+05  -1.145026e+06
   1.682592e+06  -7.583937e+04
   1.672605e+06   2.248796e+06
   2.423394e+04   3.529263e+06
  -2.258358e+06   2.333832e+06
  -3.526327e+06  -4.184616e+05
  -2.806983e+06  -2.519802e+06
  -6.683954e+05  -2.647367e+06
   1.192938e+06  -1.336106e+06
   1.457906e+06  -1.117663e+05
   4.299663e+05   3.052081e+04
  -3.425181e+05  -6.306296e+05
   1.926668e+05  -1.048343e+06
   1.388663e+06  -5.499759e+05
   1.680427e+06   4.830623e+05
   4.997405e+05   1.048037e+06
  -9.403458e+05   6.023456e+05
  -9.701866e+05  -3.558997e+05
   6.067927e+05  -7.927819e+05
   2.189230e+06  -1.472038e+05
   2.029499e+06   1.153821e+06
   5.895442e+04   2.057260e+06
  -2.029829e+06   1.752397e+06
  -2.463774e+06   3.870580e+05
  -1.074128e+06  -9.522207e+05
   6.599838e+05  -1.150629e+06
   1.129881e+06  -1.751873e+05
   9.579333e+04   8.065638e+05
  -1.246957e+06   6.394274e+05
  -1.538892e+06  -5.283058e+05
  -5.353024e+05  -1.415145e+06
   7.721545e+05  -1.089235e+06
   1.177958e+06  -2.415986e+03
   4.213235e+05   6.043391e+05
  -5.746698e+05   1.169575e+05
  -6.176471e+05  -8.560659e+05
   5.121593e+05  -1.208903e+06
   1.741232e+06  -4.478432e+05
   1.751532e+06   8.934969e+05
   3.862521e+05   1.757191e+06
  -1.130861e+06   1.466686e+06
  -1.467738e+06   3.097759e+05
  -5.456024e+05  -7.039264e+05
   5.092693e+05  -7.736338e+05
   6.617459e+05  -6.531401e+04
  -1.147799e+04   5.263631e+05
  -5.999664e+05   3.939032e+05
  -4.343141e+05  -1.325854e+05
   2.434409e+05  -2.431351e+05
   5.863640e+05   3.463512e+05
   2.237678e+04   1.011631e+06
  -1.120608e+06   8.695602e+05
  -1.825846e+06  -2.712568e+05
  -1.318240e+06  -1.640983e+06
   1.336570e+05  -2.166546e+06
   1.415311e+06  -1.429309e+06
   1.646619e+06  -4.124584e+04
   9.971508e+05   9.221969e+05
   3.431949e+05   9.179582e+05
   2.257609e+05   3.827782e+05
   3.439099e+05   1.606309e+05
   7.896815e+04   5.202000e+05
  -6.743872e+05   8.586227e+05
  -1.312871e+06   4.408574e+05
  -1.101118e+06  -6.569280e+05
   8.591775e+04  -1.480497e+06
   1.512459e+06  -1.120832e+06
   2.065321e+06   3.314952e+05
   1.163585e+06   1.784206e+06
  -6.521054e+05   2.102516e+06
  -2.084231e+06   1.104995e+06
  -2.180875e+06  -3.374456e+05
  -1.133128e+06  -1.160164e+06
   3.233592e+04  -1.065620e+06
   4.982862e+05  -6.495570e+05
   3.307953e+05  -6.172121e+05
   1.848549e+05  -9.645042e+05
   4.982741e+05  -1.019130e+06
   1.034561e+06  -2.746228e+05
   1.156559e+06   9.318898e+05
   5.095990e+05   1.660966e+06
  -5.385912e+05   1.275924e+06
  -1.151259e+06   6.421139e+04
  -8.016252e+05  -1.027560e+06
   1.711473e+05  -1.232220e+06
   8.652399e+05  -5.590579e+05
   7.290772e+05   3.416711e+05
   1.013116e+05   8.211358e+05
  -2.363013e+05   7.467621e+05
   1.748850e+04   4.626238e+05
   3.440569e+05   3.299415e+05
   3.336266e+04   3.533096e+05
  -9.299899e+05   2.466229e+05
  -1.716993e+06  -1.886570e+05
  -1.449498e+06  -7.962223e+05
  -1.429218e+05  -1.169520e+06
   1.206968e+06  -1.006562e+06
   1.552771e+06  -3.907035e+05
   8.080262e+05   2.385155e+05
  -1.378928e+05   4.276406e+05
  -4.061868e+05   1.189927e+05
   1.008891e+04  -2.575545e+05
   4.389607e+05  -1.999167e+05
   4.086930e+05   2.924128e+05
   1.025313e+05   6.578250e+05
  -3.045965e+04   4.184925e+05
   1.410366e+05  -1.764525e+05
   3.501812e+05  -3.686457e+05
   2.741924e+05   1.853162e+05
  -1.718478e+05   9.110673e+05
  -7.596671e+05   9.328593e+05
  -1.032798e+06   1.079105e+05
  -6.138545e+05  -7.795067e+05
   3.319964e+05  -8.878819e+05
   1.000702e+06  -2.028366e+05
   6.335524e+05   5.306709e+05
  -5.732063e+05   6.160726e+05
  -1.468240e+06   1.896073e+04
  -1.085320e+06  -7.198986e+05
   2.860268e+05  -1.004673e+06
   1.365761e+06  -6.387490e+05
   1.222551e+06   5.463177e+04
   1.954757e+05   4.892587e+05
  -5.588526e+05   3.166725e+05
  -3.075111e+05  -2.074563e+05
   5.629164e+05  -4.049144e+05
   1.027336e+06   1.454796e+05
   4.932409e+05   1.073285e+06
  -6.274456e+05   1.456607e+06
  -1.360102e+06   7.158887e+05
  -1.116998e+06  -7.023890e+05
  -1.871946e+05  -1.621496e+06
   6.491649e+05  -1.234906e+06
   8.609428e+05   6.481879e+04
   4.903149e+05   1.055210e+06
  -7.963935e+04   9.412507e+05
  -4.737877e+05   1.331894e+05
  -4.991986e+05  -3.557854e+05
  -2.318022e+05  -1.563807e+05
  -1.159308e+04   1.160845e+05
  -1.376646e+05  -1.884995e+05
  -4.276107e+05  -8.263459e+05
  -2.898963e+05  -9.917957e+05
   5.164822e+05  -3.957336e+05
   1.344710e+06   3.981117e+05
   1.256782e+06   7.386329e+05
   1.905304e+05   6.027938e+05
  -8.408903e+05   3.695809e+05
  -9.130907e+05   2.070406e+05
  -2.574362e+05   1.556457e+04
   1.591146e+05  -1.914701e+05
  -6.491419e+04  -2.435341e+05
  -3.373434e+05  -1.487616e+05
  -5.000246e+03  -1.206433e+05
   6.963110e+05  -1.655557e+05
   9.164880e+05   3.164318e+04
   2.398069e+05   5.801372e+05
  -8.331367e+05   9.825179e+05
  -1.429843e+06   6.165050e+05
  -1.125054e+06  -4.199664e+05
  -2.115311e+05  -1.263698e+06
   6.426574e+05  -1.197894e+06
   9.212891e+05  -4.161117e+05
   5.936496e+05   2.612493e+05
   7.743009e+04   3.118245e+05
  -1.439315e+05  -9.513132e+03
   4.645094e+04  -8.755007e+04
   3.201023e+05   2.995914e+05
   2.656349e+05   7.213187e+05
  -1.738713e+05   5.815575e+05
  -6.190734e+05  -1.732052e+05
  -5.960987e+05  -9.019252e+05
  -8.439683e+02  -8.945004e+05
   7.169095e+05  -1.246145e+05
   8.825694e+05   7.193364e+05
   2.519682e+05   9.552219e+05
  -6.391776e+05   5.330082e+05
  -9.445328e+05  -8.458467e+04
  -4.275204e+05  -4.720375e+05
   2.369179e+05  -5.185751e+05
   2.562725e+05  -3.161906e+05
  -3.010934e+05  -4.897293e+04
  -5.979681e+05   2.116469e+04
  -1.037369e+05  -2.535770e+05
   7.322123e+05  -6.182861e+05
   1.051146e+06  -5.565452e+05
   6.004811e+05   7.910386e+04
  -8.651938e+04   7.381386e+05
  -4.098189e+05   7.357266e+05
  -2.868191e+05   9.298402e+04
  -7.753658e+02  -4.555797e+05
   2.223127e+05  -3.399892e+05
   3.099984e+05   2.052235e+05
   2.149684e+05   5.137723e+05
  -5.878688e+04   3.085591e+05
  -3.405575e+05  -7.147888e+04
  -4.022403e+05  -1.926258e+05
  -2.198067e+05  -3.778465e+04
  -9.634219e+02   7.005113e+04
   8.533644e+04  -8.429464e+04
   9.854431e+04  -3.513126e+05
   1.830381e+05  -3.899425e+05
   3.157944e+05  -5.192235e+04
   2.977487e+05   4.151050e+05
   5.116789e+03   5.725354e+05
  -3.964116e+05   2.383507e+05
  -5.344283e+05  -2.921020e+05
  -1.840349e+05  -5.351391e+05
   4.262926e+05  -3.163058e+05
   7.352153e+05   9.532729e+04
   4.029464e+05   3.343062e+05
  -2.544267e+05   2.990338e+05
  -5.393720e+05   1.357924e+05
  -1.619906e+05   1.070768e+04
   3.833295e+05   8.581109e+03
   3.852546e+05   1.438777e+05
  -2.219842e+05   3.015601e+05
  -7.701671e+05   2.263619e+05
