
 $NMID
 id='ANONYMOUS ', fmtdat='(2E16.6)'
 volume=1.0
 tramp=1.0
 $END
   5.800296e+07   1.996641e+06
   3.308718e+07   3.742398e+07
  -9.525133e+06   3.881100e+07
  -2.872420e+07   1.347137e+07
  -1.610397e+07  -8.148378e+06
   3.955180e+06  -9.249112e+06
   9.719373e+06   1.887134e+06
   2.160052e+06   9.947495e+06
  -6.645054e+06   8.899745e+06
  -9.741964e+06   1.479598e+06
  -6.907635e+06  -6.474371e+06
  -6.583256e+05  -8.686197e+06
   4.132889e+06  -2.764263e+06
   2.606852e+06   5.371948e+06
  -3.918638e+06   6.306285e+06
  -7.863843e+06  -1.720769e+06
  -4.107162e+06  -1.049983e+07
   4.277831e+06  -1.183063e+07
   1.053494e+07  -5.712979e+06
   1.109900e+07   2.410034e+06
   6.690167e+06   7.996147e+06
   3.988582e+05   9.132054e+06
  -3.471860e+06   6.175048e+06
  -2.275807e+06   2.371377e+06
   1.089588e+06   1.753907e+06
   4.507325e+05   4.073949e+06
  -5.328123e+06   4.541365e+06
  -9.761448e+06   5.709108e+05
  -7.170339e+06  -4.261154e+06
  -3.283920e+05  -5.302907e+06
   3.731920e+06  -2.821187e+06
   2.688733e+06  -1.956360e+05
  -2.225202e+05   9.626536e+05
  -2.041812e+06   7.484441e+05
  -2.323038e+06  -1.184395e+06
  -9.242350e+05  -3.945772e+06
   1.877651e+06  -4.012201e+06
   3.546636e+06   1.344298e+05
   1.823061e+06   3.905578e+06
  -9.950014e+05   2.162183e+06
  -5.661422e+05  -2.386337e+06
   2.413306e+06  -2.235973e+06
   2.312791e+06   3.324619e+06
  -2.829208e+06   6.081049e+06
  -7.286702e+06   6.230904e+05
  -4.994414e+06  -7.386202e+06
   2.355461e+06  -8.666585e+06
   7.689632e+06  -2.228959e+06
   6.842149e+06   4.641750e+06
   1.635507e+06   6.011931e+06
  -3.499106e+06   2.552253e+06
  -5.092819e+06  -1.658106e+06
  -2.218729e+06  -3.496475e+06
   2.546547e+06  -2.066531e+06
   4.519460e+06   1.115880e+06
   1.829455e+06   2.820738e+06
  -1.798870e+06   1.323899e+06
  -1.668583e+06  -1.047970e+06
   1.404487e+06  -7.354123e+05
   2.315168e+06   2.017166e+06
  -1.003892e+06   3.473135e+06
  -4.917970e+06   1.626667e+06
  -5.286516e+06  -1.687839e+06
  -2.145461e+06  -4.143583e+06
   1.904969e+06  -5.314358e+06
   5.049146e+06  -4.889072e+06
   6.289200e+06  -1.748714e+06
   4.681159e+06   3.255928e+06
   9.103773e+05   6.250549e+06
  -1.978358e+06   4.674349e+06
  -1.755780e+06   1.017425e+06
   3.433960e+04  -3.452306e+05
   2.573818e+05   1.089524e+06
  -1.515525e+06   2.000045e+06
  -2.880633e+06   4.263813e+05
  -2.175971e+06  -1.819523e+06
  -1.848666e+05  -2.141381e+06
   1.454206e+06  -3.163203e+05
   1.687321e+06   1.942680e+06
   6.588313e+04   2.905399e+06
  -2.771149e+06   1.717361e+06
  -4.562003e+06  -1.182535e+06
  -3.272363e+06  -3.875755e+06
   1.229031e+05  -4.359711e+06
   2.434938e+06  -2.736704e+06
   2.334295e+06  -1.054230e+06
   1.837063e+06  -5.868903e+05
   2.890843e+06  -4.134674e+05
   4.278842e+06   7.935037e+05
   3.425370e+06   2.746333e+06
   1.276503e+05   4.065191e+06
  -3.138030e+06   3.870979e+06
  -4.111884e+06   2.172914e+06
  -2.686271e+06  -3.522150e+05
  -3.672056e+05  -2.237093e+06
   1.048656e+06  -1.985606e+06
   5.818695e+05   1.486351e+04
  -1.058648e+06   1.324549e+06
  -1.906487e+06   3.962525e+05
  -9.392860e+05  -1.223956e+06
   4.833601e+05  -1.116825e+06
   3.760842e+05   3.611768e+05
  -1.070380e+06   5.759701e+05
  -1.726702e+06  -1.422447e+06
  -4.335750e+05  -3.449103e+06
   1.698777e+06  -3.170307e+06
   3.037289e+06  -8.799952e+05
   3.105010e+06   1.466339e+06
   2.152602e+06   2.616955e+06
   4.586782e+05   2.493382e+06
  -1.192588e+06   1.456104e+06
  -1.552613e+06   2.574785e+05
  -4.866914e+05  -4.323917e+04
   3.526519e+05   7.430624e+05
  -4.372182e+05   1.334156e+06
  -1.923110e+06   5.542281e+05
  -2.007799e+06  -9.196485e+05
  -3.474312e+05  -1.415681e+06
   1.161180e+06  -5.488308e+05
   8.475717e+05   4.355614e+05
  -8.299350e+05   4.529202e+05
  -2.075559e+06  -3.486439e+05
  -1.647683e+06  -1.292155e+06
   2.501778e+05  -1.871499e+06
   2.244178e+06  -1.601580e+06
   2.723369e+06  -2.677380e+05
   1.198042e+06   1.269488e+06
  -9.380812e+05   1.508118e+06
  -1.581948e+06   1.764920e+05
  -2.080404e+05  -1.099268e+06
   1.511284e+06  -7.341125e+05
   1.687223e+06   7.870147e+05
   2.997242e+05   1.618866e+06
  -1.087462e+06   9.165876e+05
  -1.209379e+06  -3.438309e+05
  -2.040082e+05  -7.692628e+05
   8.053536e+05  -3.646945e+04
   7.369216e+05   1.053302e+06
  -5.621113e+05   1.423647e+06
  -1.991248e+06   5.565554e+05
  -2.028629e+06  -1.032930e+06
  -3.809995e+05  -2.059843e+06
   1.436958e+06  -1.621534e+06
   1.706242e+06  -1.928148e+05
   4.785852e+05   8.589629e+05
  -6.540726e+05   7.815011e+05
  -6.076327e+05   8.955712e+04
   1.138968e+05  -3.113368e+05
   4.358583e+05  -1.859015e+05
   6.824881e+04   2.156386e+04
  -4.446795e+05  -1.433559e+05
  -4.714483e+05  -6.951949e+05
   2.368294e+05  -1.164535e+06
   1.372493e+06  -8.727745e+05
   2.056918e+06   4.122223e+05
   1.453945e+06   1.923274e+06
  -2.030882e+05   2.386387e+06
  -1.572403e+06   1.374693e+06
  -1.629470e+06  -1.266681e+05
  -8.214201e+05  -8.341022e+05
  -3.371965e+05  -5.723629e+05
  -5.269525e+05  -1.948779e+05
  -6.517545e+05  -3.450007e+05
  -8.273028e+04  -7.842619e+05
   8.727040e+05  -8.771163e+05
   1.409559e+06  -3.061800e+05
   1.012075e+06   6.869406e+05
  -2.447469e+05   1.396954e+06
  -1.680638e+06   1.040377e+06
  -2.203395e+06  -4.713843e+05
  -1.100606e+06  -2.067362e+06
   1.024848e+06  -2.324358e+06
   2.520468e+06  -9.887061e+05
   2.288539e+06   6.715149e+05
   8.982524e+05   1.295261e+06
  -2.048613e+05   8.792496e+05
  -3.334452e+05   4.830525e+05
  -2.486252e+04   7.780408e+05
  -8.982661e+04   1.338441e+06
  -6.807557e+05   1.294858e+06
  -1.298398e+06   3.181982e+05
  -1.335669e+06  -1.063274e+06
  -5.630846e+05  -1.869919e+06
   6.038132e+05  -1.424988e+06
   1.262703e+06   2.739328e+03
   7.884201e+05   1.275956e+06
  -4.087062e+05   1.368921e+06
  -1.160595e+06   3.569566e+05
  -7.813481e+05  -7.358479e+05
   1.656131e+05  -1.071716e+06
   5.661297e+05  -7.459918e+05
   9.059776e+04  -3.849553e+05
  -4.426080e+05  -3.246570e+05
  -6.824746e+04  -3.773099e+05
   1.145892e+06  -1.983679e+05
   2.055771e+06   3.403267e+05
   1.594288e+06   1.033106e+06
  -6.904162e+04   1.424127e+06
  -1.601912e+06   1.125772e+06
  -1.809660e+06   2.557155e+05
  -7.968301e+05  -5.157452e+05
   2.786783e+05  -5.726351e+05
   5.074065e+05  -1.555555e+04
   3.234950e+04   4.435776e+05
  -4.276858e+05   2.706738e+05
  -4.829209e+05  -3.366406e+05
  -2.870292e+05  -7.189905e+05
  -1.252866e+05  -4.842677e+05
  -1.223100e+05   7.642627e+04
  -2.405933e+05   2.768718e+05
  -2.663120e+05  -2.286838e+05
   1.149583e+05  -9.727329e+05
   8.865329e+05  -1.063798e+06
   1.388696e+06  -1.847046e+05
   8.833323e+05   9.137640e+05
  -4.159288e+05   1.156831e+06
  -1.274858e+06   3.616274e+05
  -7.387265e+05  -5.536787e+05
   6.950172e+05  -6.349611e+05
   1.547868e+06   9.705105e+04
   9.529090e+05   8.365807e+05
  -4.916763e+05   9.394123e+05
  -1.448770e+06   4.400156e+05
  -1.179102e+06  -1.925144e+05
  -1.220824e+05  -4.918911e+05
   6.370137e+05  -2.522453e+05
   3.878342e+05   3.031215e+05
  -5.653234e+05   5.444769e+05
  -1.184918e+06  -4.491445e+04
  -7.127779e+05  -1.161369e+06
   5.333559e+05  -1.719652e+06
   1.449646e+06  -9.241786e+05
   1.257902e+06   7.218768e+05
   2.286908e+05   1.762072e+06
  -7.092070e+05   1.267204e+06
  -8.994393e+05  -1.854835e+05
  -4.117025e+05  -1.166142e+06
   2.320857e+05  -9.283138e+05
   5.584885e+05  -7.108199e+04
   4.423429e+05   3.532762e+05
   1.395294e+05   1.153276e+05
   5.412654e+04  -8.238110e+04
   3.110322e+05   3.216971e+05
   5.253709e+05   9.621143e+05
   1.694637e+05   1.044228e+06
  -7.368713e+05   3.773918e+05
  -1.456329e+06  -4.392810e+05
  -1.241549e+06  -8.000030e+05
  -1.842402e+05  -6.930981e+05
   8.103869e+05  -4.383037e+05
   9.551380e+05  -1.847837e+05
   3.753054e+05   7.406410e+04
  -1.305114e+05   2.320839e+05
  -6.126571e+04   1.735055e+05
   2.328498e+05   5.627808e+04
   6.773483e+04   1.337703e+05
  -6.152875e+05   2.728188e+05
  -1.045654e+06   1.621063e+04
  -4.951069e+05  -7.040474e+05
   7.841252e+05  -1.217555e+06
   1.707015e+06  -7.997516e+05
   1.462749e+06   3.955806e+05
   3.165862e+05   1.386880e+06
  -7.500578e+05   1.387488e+06
  -1.040189e+06   5.803308e+05
  -6.557036e+05  -1.934537e+05
  -1.567457e+05  -3.591490e+05
   4.122293e+04  -1.024342e+05
  -8.445096e+04  -1.355215e+04
  -2.818533e+05  -3.652935e+05
  -2.437993e+05  -7.918071e+05
   1.587204e+05  -6.886940e+05
   6.787797e+05   7.528107e+04
   7.865936e+05   9.080948e+05
   1.818176e+05   1.039436e+06
  -7.285839e+05   3.103595e+05
  -1.067892e+06  -6.581619e+05
  -3.970152e+05  -1.083712e+06
   6.947138e+05  -7.213813e+05
   1.135901e+06   4.280276e+04
   5.565826e+05   6.311867e+05
  -2.836273e+05   7.164607e+05
  -4.050048e+05   3.724557e+05
   2.123433e+05  -2.236706e+04
   6.355456e+05  -6.293480e+04
   1.635351e+05   3.136105e+05
  -8.024971e+05   6.868013e+05
  -1.261914e+06   5.257479e+05
  -7.898514e+05  -2.002010e+05
   7.677614e+04  -8.813127e+05
   5.667037e+05  -8.683753e+05
   4.653213e+05  -1.874378e+05
   8.990840e+04   4.642611e+05
  -2.256979e+05   4.612320e+05
  -3.608401e+05  -1.020615e+05
  -2.723315e+05  -5.672158e+05
   4.144323e+04  -4.604026e+05
   3.952617e+05   1.952495e+04
   4.845465e+05   2.951482e+05
   2.372467e+05   1.120583e+05
  -4.789144e+04  -1.810751e+05
  -6.758934e+04  -9.879185e+04
   7.673998e+04   3.416239e+05
   2.395202e+04   6.065968e+05
  -3.067346e+05   2.970640e+05
  -5.247186e+05  -3.351505e+05
  -2.383724e+05  -6.512867e+05
   3.836903e+05  -3.463727e+05
   6.985075e+05   2.423186e+05
   2.903749e+05   5.533178e+05
  -5.069276e+05   3.790731e+05
  -9.052881e+05  -4.070640e+04
  -4.973805e+05  -3.643939e+05
   2.885835e+05  -4.333763e+05
   6.480282e+05  -2.753521e+05
   2.791168e+05  -2.312451e+04
  -3.092881e+05   1.185376e+05
  -4.018910e+05  -5.915426e+03
   1.186238e+05  -2.780424e+05
   6.761119e+05  -3.067778e+05
