
 $NMID
 id='ANONYMOUS ', fmtdat='(2E16.6)'
 volume=1.0
 tramp=1.0
 $END
   2.593756e+07   5.459534e+05
   1.723365e+07   1.244921e+07
  -2.136947e+05   1.647073e+07
  -1.147283e+07   1.089146e+07
  -9.630825e+06   1.041972e+06
  -5.830858e+05  -4.761055e+06
   5.424882e+06  -2.377166e+06
   4.049072e+06   4.293752e+06
  -1.339039e+06   7.339791e+06
  -5.019364e+06   3.228654e+06
  -4.216844e+06  -3.512890e+06
  -4.112612e+05  -5.580549e+06
   2.595685e+06  -1.075814e+06
   1.953150e+06   4.710914e+06
  -1.659219e+06   5.456501e+06
  -4.457057e+06   4.670937e+05
  -3.221981e+06  -5.244897e+06
   1.293033e+06  -6.560215e+06
   5.080565e+06  -3.015842e+06
   5.047318e+06   1.651714e+06
   2.025406e+06   3.710537e+06
  -4.668484e+05   2.798903e+06
  -7.354861e+04   1.497645e+06
   2.004844e+06   2.074094e+06
   2.361036e+06   3.962463e+06
  -8.607350e+05   4.576759e+06
  -5.518793e+06   2.391191e+06
  -7.191957e+06  -1.251372e+06
  -3.826852e+06  -3.517498e+06
   1.622930e+06  -2.858717e+06
   3.997682e+06  -2.118051e+05
   1.426125e+06   2.074479e+06
  -2.806345e+06   2.094216e+06
  -4.185143e+06  -2.956329e+05
  -1.860269e+06  -3.194286e+06
   1.144677e+06  -3.930718e+06
   1.912678e+06  -1.614869e+06
   5.724043e+05   1.444182e+06
  -7.131671e+05   1.862620e+06
  -4.780842e+05  -8.215602e+05
   9.098405e+05  -3.240535e+06
   2.077092e+06  -2.159430e+06
   1.858644e+06   1.382043e+06
   1.076489e+05   3.190042e+06
  -1.921233e+06   1.040624e+06
  -2.185769e+06  -2.660735e+06
   2.489126e+05  -3.816384e+06
   3.679003e+06  -1.230791e+06
   4.850787e+06   2.506473e+06
   2.211165e+06   4.105872e+06
  -2.157332e+06   2.643910e+06
  -4.400385e+06  -1.985436e+05
  -2.752349e+06  -2.036192e+06
   7.875704e+05  -1.723085e+06
   2.702338e+06  -2.898496e+04
   1.566861e+06   1.217159e+06
  -8.001838e+05   8.530043e+05
  -1.604733e+06  -5.373675e+05
  -1.361216e+05  -1.331156e+06
   1.623897e+06  -6.380775e+05
   1.354009e+06   8.068301e+05
  -9.128947e+05   1.469087e+06
  -2.706394e+06   4.878408e+05
  -1.765823e+06  -1.603692e+06
   1.472138e+06  -3.247261e+06
   4.281538e+06  -2.934413e+06
   4.449731e+06  -4.412045e+05
   2.340489e+06   2.698498e+06
   1.005353e+05   4.323794e+06
  -7.731157e+05   3.666976e+06
  -6.735842e+05   2.043986e+06
  -8.757514e+05   1.175630e+06
  -1.848970e+06   1.112050e+06
  -2.810516e+06   4.602567e+05
  -2.666337e+06  -1.369902e+06
  -1.116045e+06  -2.959283e+06
   1.021184e+06  -2.435465e+06
   2.319682e+06   1.472935e+05
   1.744962e+06   2.601731e+06
  -4.250413e+05   2.810517e+06
  -2.573267e+06   7.610422e+05
  -3.002571e+06  -1.692126e+06
  -1.518852e+06  -2.765063e+06
   3.843930e+05  -2.239320e+06
   1.165457e+06  -1.232453e+06
   9.263796e+05  -8.166895e+05
   1.107284e+06  -9.742478e+05
   2.462975e+06  -7.962882e+05
   3.793645e+06   4.327506e+05
   3.128027e+06   2.374127e+06
   1.159774e+05   3.780278e+06
  -3.179855e+06   3.492495e+06
  -4.164014e+06   1.464641e+06
  -2.292488e+06  -1.019009e+06
   4.296661e+05  -2.234130e+06
   1.529722e+06  -1.465804e+06
   4.499550e+05   2.537747e+05
  -1.215454e+06   1.075069e+06
  -1.625611e+06   2.502461e+05
  -5.409652e+05  -1.027436e+06
   7.049983e+05  -1.033239e+06
   7.530782e+05   3.193911e+05
  -4.585722e+05   1.213740e+06
  -1.730243e+06   7.488141e+04
  -1.695493e+06  -2.388006e+06
   2.793612e+04  -3.752740e+06
   2.434236e+06  -2.461346e+06
   3.782377e+06   5.413301e+05
   2.979227e+06   2.837184e+06
   6.289974e+05   2.921743e+06
  -1.378307e+06   1.400593e+06
  -1.608149e+06   3.911287e+04
  -4.656553e+05  -5.755541e+04
   3.366373e+05   7.018061e+05
  -2.695630e+05   1.106517e+06
  -1.520562e+06   4.966329e+05
  -1.768779e+06  -6.111868e+05
  -4.782304e+05  -1.141984e+06
   1.042946e+06  -6.021234e+05
   1.046141e+06   4.214676e+05
  -6.641189e+05   8.392664e+05
  -2.371421e+06   9.155988e+04
  -2.176074e+06  -1.322728e+06
   2.777439e+03  -2.240902e+06
   2.282923e+06  -1.814423e+06
   2.694260e+06  -2.939527e+05
   1.101375e+06   1.087309e+06
  -7.903151e+05   1.190564e+06
  -1.223717e+06   1.044424e+05
  -3.962634e+04  -8.820484e+05
   1.389623e+06  -6.171693e+05
   1.633571e+06   6.493082e+05
   5.159387e+05   1.547177e+06
  -8.682717e+05   1.141449e+06
  -1.262690e+06  -3.785791e+04
  -4.317839e+05  -6.572339e+05
   6.168781e+05  -8.824560e+04
   6.153730e+05   9.649448e+05
  -6.308559e+05   1.284841e+06
  -1.922973e+06   3.842339e+05
  -1.851386e+06  -1.074643e+06
  -3.176030e+05  -1.926865e+06
   1.304038e+06  -1.521995e+06
   1.601483e+06  -2.576884e+05
   5.562476e+05   7.841773e+05
  -5.874599e+05   8.123300e+05
  -7.326050e+05   4.364790e+04
   1.530571e+04  -5.786288e+05
   6.672922e+05  -4.260971e+05
   4.957933e+05   1.428520e+05
  -2.382813e+05   2.582827e+05
  -6.044309e+05  -3.807280e+05
   2.202952e+04  -1.081030e+06
   1.255429e+06  -8.797594e+05
   1.963936e+06   3.934741e+05
   1.337797e+06   1.854969e+06
  -2.617519e+05   2.349738e+06
  -1.605259e+06   1.489142e+06
  -1.793098e+06  -2.298310e+04
  -1.063637e+06  -1.048155e+06
  -3.587668e+05  -1.038274e+06
  -2.281679e+05  -4.620059e+05
  -3.393708e+05  -2.061548e+05
  -4.139077e+04  -5.601224e+05
   7.704278e+05  -8.918432e+05
   1.442744e+06  -4.197694e+05
   1.176197e+06   7.628687e+05
  -1.497775e+05   1.608617e+06
  -1.694031e+06   1.146823e+06
  -2.227937e+06  -4.637669e+05
  -1.171680e+06  -1.989321e+06
   8.110958e+05  -2.232016e+06
   2.303530e+06  -1.084502e+06
   2.341445e+06   4.637306e+05
   1.187634e+06   1.299249e+06
  -6.284975e+04   1.161547e+06
  -5.718314e+05   7.085365e+05
  -4.188179e+05   6.753771e+05
  -2.810510e+05   1.035931e+06
  -6.054733e+05   1.064830e+06
  -1.135869e+06   2.297617e+05
  -1.203557e+06  -1.081889e+06
  -4.612428e+05  -1.836317e+06
   6.578748e+05  -1.359380e+06
   1.252994e+06  -1.108804e+04
   8.112134e+05   1.149387e+06
  -2.438884e+05   1.316310e+06
  -9.435627e+05   5.591725e+05
  -7.496351e+05  -3.925787e+05
  -6.665842e+04  -8.709924e+05
   2.771954e+05  -7.815691e+05
  -8.678829e+03  -5.031888e+05
  -3.564314e+05  -3.853104e+05
  -1.612896e+04  -3.897900e+05
   1.015303e+06  -2.120720e+05
   1.842338e+06   3.056640e+05
   1.524288e+06   9.391559e+05
   9.288855e+04   1.258336e+06
  -1.358082e+06   1.009297e+06
  -1.695562e+06   3.419848e+05
  -8.531534e+05  -2.843783e+05
   1.750670e+05  -4.436964e+05
   4.373752e+05  -1.086298e+05
  -3.967859e+04   2.753163e+05
  -4.962174e+05   1.953084e+05
  -4.265470e+05  -3.430305e+05
  -6.707321e+04  -7.361247e+05
   6.603907e+04  -4.653540e+05
  -1.561074e+05   1.929300e+05
  -3.992467e+05   4.000573e+05
  -2.883129e+05  -2.128909e+05
   2.388100e+05  -9.903927e+05
   8.791341e+05  -9.691687e+05
   1.123504e+06  -3.852287e+04
   6.114188e+05   8.960767e+05
  -4.215685e+05   9.364514e+05
  -1.103447e+06   1.459081e+05
  -6.615596e+05  -6.178748e+05
   6.520702e+05  -6.372963e+05
   1.595793e+06   4.881878e+04
   1.152226e+06   8.235929e+05
  -3.453169e+05   1.074248e+06
  -1.506361e+06   6.386865e+05
  -1.327824e+06  -1.072162e+05
  -1.944945e+05  -5.392611e+05
   6.180218e+05  -3.178050e+05
   3.156581e+05   2.428363e+05
  -6.458997e+05   4.095660e+05
  -1.117696e+06  -2.247970e+05
  -4.716178e+05  -1.210732e+06
   7.806342e+05  -1.559196e+06
   1.534492e+06  -7.022770e+05
   1.181341e+06   8.316728e+05
   1.155678e+05   1.780468e+06
  -7.685887e+05   1.315389e+06
  -9.285397e+05  -1.084002e+05
  -4.826809e+05  -1.166956e+06
   1.227881e+05  -1.015986e+06
   5.159694e+05  -1.202565e+05
   5.329391e+05   4.088949e+05
   2.543297e+05   1.772151e+05
   1.346709e+04  -1.250946e+05
   1.228946e+05   2.192620e+05
   4.139867e+05   9.255839e+05
   2.728432e+05   1.087973e+06
  -5.716163e+05   3.931857e+05
  -1.444936e+06  -5.058356e+05
  -1.337476e+06  -8.639001e+05
  -1.735966e+05  -6.639662e+05
   9.450695e+05  -3.637779e+05
   1.005803e+06  -1.815394e+05
   2.697831e+05  -4.933738e+02
  -1.878639e+05   2.023005e+05
   7.129559e+04   2.637460e+05
   3.747116e+05   1.755401e+05
  -4.399534e+03   1.363566e+05
  -7.825474e+05   1.490888e+05
  -9.991222e+05  -9.013043e+04
  -2.127617e+05  -6.596601e+05
   9.790844e+05  -1.028322e+06
   1.594639e+06  -5.771746e+05
   1.196749e+06   5.399424e+05
   1.572174e+05   1.395481e+06
  -7.691934e+05   1.263506e+06
  -1.034831e+06   3.947254e+05
  -6.396824e+05  -3.222217e+05
  -6.244951e+04  -3.486630e+05
   1.708863e+05   1.512705e+04
  -4.535947e+04   9.594648e+04
  -3.333421e+05  -3.368749e+05
  -2.526527e+05  -7.971211e+05
   2.266994e+05  -6.243435e+05
   6.741437e+05   2.283592e+05
   6.000438e+05   1.029944e+06
  -6.154411e+04   9.859578e+05
  -8.044927e+05   9.225516e+04
  -9.277008e+05  -8.466158e+05
  -2.136245e+05  -1.062383e+06
   7.365812e+05  -5.396234e+05
   1.023681e+06   1.538957e+05
   4.271649e+05   5.387102e+05
  -2.965235e+05   5.429756e+05
  -2.921660e+05   3.199930e+05
   3.373784e+05   6.480074e+04
   6.570318e+05   1.006956e+04
   9.397918e+04   2.840510e+05
  -8.326254e+05   6.336513e+05
  -1.164228e+06   5.453880e+05
  -6.349431e+05  -1.231880e+05
   1.409813e+05  -7.976608e+05
   4.855802e+05  -7.676001e+05
   3.165157e+05  -6.985624e+04
  -2.589892e+04   5.052591e+05
  -2.685479e+05   3.553299e+05
  -3.350102e+05  -2.485280e+05
  -2.041408e+05  -5.743853e+05
   9.137946e+04  -3.286615e+05
   3.707196e+05   1.011661e+05
   4.193908e+05   2.309430e+05
   2.323773e+05   4.929287e+04
   1.529288e+04  -7.469034e+04
  -8.441669e+04   9.899752e+04
  -1.327249e+05   3.938875e+05
  -2.459204e+05   4.230340e+05
  -3.673868e+05   3.009155e+04
  -3.009247e+05  -4.899873e+05
   3.936197e+04  -6.409129e+05
   4.542123e+05  -2.377208e+05
   5.668126e+05   3.601267e+05
   1.694322e+05   6.018364e+05
  -4.823841e+05   3.168922e+05
  -7.960463e+05  -1.548200e+05
  -4.183547e+05  -3.907471e+05
   3.011991e+05  -3.059940e+05
   6.021342e+05  -1.078437e+05
   1.728668e+05   5.487938e+03
  -4.328359e+05  -2.833317e+04
  -4.247594e+05  -1.840644e+05
   2.608136e+05  -3.288375e+05
   8.650115e+05  -2.145770e+05
