
 $NMID
 id='ANONYMOUS ', fmtdat='(2E16.6)'
 volume=1.0
 tramp=1.0
 $END
   4.086828e+06   7.305776e+05
   2.853594e+06   1.429062e+06
   4.108825e+05   2.322197e+06
  -1.712381e+06   2.486525e+06
  -2.015324e+06   1.011654e+06
  -5.079404e+05  -8.653815e+05
   1.106645e+06  -9.792655e+05
   1.219826e+06   6.965155e+05
   2.123719e+04   1.856980e+06
  -9.848535e+05   9.686998e+05
  -8.387845e+05  -7.915204e+05
   2.975686e+04  -1.278404e+06
   6.134721e+05  -7.641447e+04
   4.021402e+05   1.309871e+06
  -3.419106e+05   1.415812e+06
  -9.087821e+05   2.497065e+05
  -6.906145e+05  -1.018562e+06
   2.212615e+05  -1.280626e+06
   9.640015e+05  -4.493008e+05
   7.845027e+05   5.306697e+05
   8.056717e+02   6.937948e+05
  -3.236023e+05   1.508127e+05
   2.587141e+05  -8.120364e+04
   9.678576e+05   5.561054e+05
   7.525046e+05   1.380302e+06
  -4.517085e+05   1.348879e+06
  -1.647497e+06   3.683505e+05
  -1.776879e+06  -6.860480e+05
  -6.806185e+05  -1.017953e+06
   7.297396e+05  -5.524396e+05
   1.189076e+06   2.714925e+05
   2.610032e+05   8.558651e+05
  -1.086210e+06   6.850821e+05
  -1.411702e+06  -2.425602e+05
  -4.454015e+05  -1.147827e+06
   6.021282e+05  -1.114317e+06
   5.952637e+05  -1.832072e+05
  -1.530230e+05   5.790305e+05
  -5.102677e+05   3.313101e+05
  -9.547647e+04  -5.498203e+05
   4.564123e+05  -1.005390e+06
   5.935869e+05  -5.678124e+05
   4.414608e+05   2.304434e+05
   2.496881e+05   5.882469e+05
  -1.407586e+04   2.582718e+05
  -2.483601e+05  -3.373115e+05
  -3.570732e+04  -5.683746e+05
   6.673667e+05  -1.502511e+05
   1.114538e+06   5.953171e+05
   6.004056e+05   1.005576e+06
  -5.205665e+05   7.121541e+05
  -1.163783e+06   1.124096e+04
  -7.892508e+05  -4.717799e+05
   7.665367e+04  -4.254781e+05
   5.731079e+05  -6.292039e+04
   3.837695e+05   2.111414e+05
  -1.441713e+05   1.717862e+05
  -4.357914e+05  -1.283905e+05
  -1.782085e+05  -4.273556e+05
   3.783937e+05  -4.178945e+05
   5.874101e+05  -4.006946e+04
   1.216750e+05   3.505887e+05
  -4.958734e+05   2.914452e+05
  -4.137601e+05  -2.307148e+05
   4.476935e+05  -6.841041e+05
   1.205948e+06  -5.560062e+05
   1.096693e+06   9.926167e+04
   3.764502e+05   7.705679e+05
  -1.440285e+05   1.041631e+06
  -1.679628e+05   9.160346e+05
  -1.068081e+05   6.647600e+05
  -3.481850e+05   4.824376e+05
  -7.588577e+05   3.055884e+05
  -9.521630e+05  -6.248617e+04
  -7.284510e+05  -6.195765e+05
  -1.688608e+05  -9.852641e+05
   4.517752e+05  -7.150812e+05
   7.486732e+05   1.210036e+05
   4.631428e+05   8.355389e+05
  -2.193543e+05   7.860204e+05
  -7.324240e+05   7.345003e+04
  -6.704021e+05  -5.974375e+05
  -1.966669e+05  -7.140233e+05
   1.923881e+05  -4.165552e+05
   2.362271e+05  -1.664851e+05
   1.361097e+05  -1.800454e+05
   2.537383e+05  -2.911563e+05
   6.668093e+05  -2.195778e+05
   1.018509e+06   1.551629e+05
   8.152586e+05   6.927820e+05
  -3.507548e+04   1.047558e+06
  -9.708877e+05   9.004472e+05
  -1.219934e+06   2.738894e+05
  -5.998940e+05  -3.998497e+05
   2.412599e+05  -6.342639e+05
   5.130170e+05  -3.418525e+05
   1.120085e+05   1.051762e+05
  -3.818641e+05   2.606863e+05
  -4.387469e+05   2.606426e+04
  -9.389954e+04  -2.845558e+05
   2.410510e+05  -2.748527e+05
   2.463052e+05   9.607732e+04
  -8.324773e+04   3.964490e+05
  -4.801804e+05   1.439484e+05
  -5.602704e+05  -5.885967e+05
  -1.033340e+05  -1.110639e+06
   6.585063e+05  -8.137258e+05
   1.126708e+06   1.180477e+05
   8.846212e+05   8.721220e+05
   1.501915e+05   8.832154e+05
  -4.349333e+05   3.707042e+05
  -4.652570e+05  -3.786530e+04
  -1.293538e+05  -2.585208e+04
   8.165285e+04   2.011261e+05
  -8.047079e+04   2.851605e+05
  -4.000997e+05   1.057496e+05
  -4.650699e+05  -1.745201e+05
  -1.272186e+05  -3.035032e+05
   2.941255e+05  -1.574831e+05
   3.099957e+05   1.345560e+05
  -1.830300e+05   2.650004e+05
  -7.019070e+05   3.286376e+04
  -6.499554e+05  -4.115644e+05
   1.059523e+04  -6.722676e+05
   6.818161e+05  -4.988051e+05
   7.675123e+05  -4.014866e+04
   2.830570e+05   3.099722e+05
  -2.325719e+05   2.912237e+05
  -3.136333e+05  -1.608288e+03
   2.287167e+04  -2.306344e+05
   3.940669e+05  -1.386832e+05
   4.464608e+05   1.988062e+05
   1.416190e+05   4.391935e+05
  -2.418492e+05   3.304366e+05
  -3.607771e+05  -6.988320e+02
  -1.335321e+05  -1.806137e+05
   1.572605e+05  -1.794437e+04
   1.452195e+05   2.770171e+05
  -2.095854e+05   3.409773e+05
  -5.477998e+05   5.827620e+04
  -4.902742e+05  -3.428181e+05
  -4.984308e+04  -5.400851e+05
   3.838406e+05  -3.990708e+05
   4.482127e+05  -5.172637e+04
   1.519033e+05   2.238880e+05
  -1.737070e+05   2.232587e+05
  -2.219072e+05  -3.701562e+03
   2.024992e+03  -1.904468e+05
   2.184396e+05  -1.360593e+05
   1.829641e+05   5.775223e+04
  -4.777468e+04   1.084104e+05
  -1.762013e+05  -8.545684e+04
   3.566108e+03  -2.966502e+05
   3.599435e+05  -2.284358e+05
   5.419819e+05   1.442085e+05
   3.363069e+05   5.441393e+05
  -1.206206e+05   6.602123e+05
  -4.838641e+05   4.078679e+05
  -5.249506e+05  -2.499781e+04
  -3.110395e+05  -3.355166e+05
  -9.070291e+04  -3.482756e+05
  -2.908734e+04  -1.649577e+05
  -6.009341e+04  -5.308035e+04
   3.864247e+03  -1.376372e+05
   2.236743e+05  -2.411371e+05
   4.197636e+05  -1.066792e+05
   3.388489e+05   2.431739e+05
  -5.841689e+04   4.754793e+05
  -5.015600e+05   3.081534e+05
  -6.278807e+05  -1.687651e+05
  -3.056815e+05  -5.768688e+05
   2.477006e+05  -6.093445e+05
   6.503317e+05  -2.768335e+05
   6.611195e+05   1.500806e+05
   3.448371e+05   3.873052e+05
  -2.072247e+04   3.564563e+05
  -1.967846e+05   2.166579e+05
  -1.714055e+05   1.779075e+05
  -1.195589e+05   2.606485e+05
  -1.845808e+05   2.683438e+05
  -3.110409e+05   3.556949e+04
  -3.104341e+05  -3.310391e+05
  -8.921159e+04  -5.272661e+05
   2.161832e+05  -3.689774e+05
   3.551961e+05   1.688554e+04
   2.121804e+05   3.274700e+05
  -7.547609e+04   3.631835e+05
  -2.539092e+05   1.614450e+05
  -2.001429e+05  -8.983307e+04
  -2.588934e+04  -2.263021e+05
   6.250426e+04  -2.184672e+05
  -5.024181e+03  -1.542493e+05
  -8.661471e+04  -1.224900e+05
   7.178928e+03  -1.128313e+05
   2.788763e+05  -4.327818e+04
   4.965916e+05   1.166026e+05
   4.093604e+05   2.839985e+05
   1.988139e+04   3.410116e+05
  -3.795346e+05   2.497883e+05
  -4.753945e+05   7.607506e+04
  -2.412800e+05  -7.140462e+04
   4.795295e+04  -1.091675e+05
   1.182595e+05  -3.225734e+04
  -2.469309e+04   6.120175e+04
  -1.519365e+05   4.011047e+04
  -1.097823e+05  -1.058621e+05
   1.552721e+04  -2.140591e+05
   4.621132e+04  -1.309208e+05
  -5.005314e+04   6.431701e+04
  -1.353157e+05   1.208082e+05
  -8.048578e+04  -6.369274e+04
   9.711029e+04  -2.804290e+05
   2.665374e+05  -2.509105e+05
   2.945194e+05   2.534402e+04
   1.308775e+05   2.657587e+05
  -1.382964e+05   2.367634e+05
  -3.007014e+05  -6.347447e+02
  -1.703105e+05  -1.940436e+05
   1.917911e+05  -1.699296e+05
   4.571834e+05   3.566354e+04
   3.335984e+05   2.505942e+05
  -1.003795e+05   3.118504e+05
  -4.430959e+05   1.765740e+05
  -3.899044e+05  -4.309970e+04
  -5.386246e+04  -1.607372e+05
   1.785592e+05  -8.626676e+04
   7.772277e+04   6.894708e+04
  -1.999335e+05   9.247421e+04
  -3.086590e+05  -1.017321e+05
  -8.948161e+04  -3.592955e+05
   2.748383e+05  -4.158569e+05
   4.586372e+05  -1.518315e+05
   3.148713e+05   2.682425e+05
  -8.683258e+03   5.108969e+05
  -2.463963e+05   3.662262e+05
  -2.643496e+05  -3.854076e+04
  -1.245380e+05  -3.393633e+05
   4.036618e+04  -2.945928e+05
   1.439849e+05  -2.998553e+04
   1.541827e+05   1.301279e+05
   8.142356e+04   5.994697e+04
   1.450930e+03  -3.927875e+04
   1.124896e+04   5.572801e+04
   9.032304e+04   2.674090e+05
   6.989135e+04   3.173645e+05
  -1.522929e+05   1.021561e+05
  -4.015302e+05  -1.751695e+05
  -3.757445e+05  -2.738959e+05
  -3.672716e+04  -1.888323e+05
   2.890915e+05  -8.100206e+04
   2.941293e+05  -3.462420e+04
   6.535936e+04  -2.159810e+03
  -6.288965e+04   5.179439e+04
   3.001222e+04   8.412885e+04
   1.189400e+05   6.709181e+04
  -1.085726e+04   3.960918e+04
  -2.430004e+05   1.803985e+04
  -2.786935e+05  -5.379427e+04
  -2.029549e+04  -1.891409e+05
   3.171767e+05  -2.582200e+05
   4.536715e+05  -1.134232e+05
   3.053585e+05   1.907819e+05
   4.921658e+03   4.016102e+05
  -2.431652e+05   3.336957e+05
  -3.019795e+05   7.577345e+04
  -1.758730e+05  -1.156545e+05
  -2.175185e+03  -9.995877e+04
   6.248767e+04   1.794650e+04
  -9.599742e+03   3.723109e+04
  -9.397279e+04  -9.809788e+04
  -5.918049e+04  -2.313295e+05
   8.251815e+04  -1.676831e+05
   1.886156e+05   9.191819e+04
   1.352327e+05   3.169334e+05
  -5.935543e+04   2.759374e+05
  -2.398412e+05  -8.847765e+03
  -2.367804e+05  -2.767130e+05
  -2.392039e+04  -3.050704e+05
   2.243901e+05  -1.228488e+05
   2.779946e+05   7.338806e+04
   9.833993e+04   1.521967e+05
  -9.638064e+04   1.318636e+05
  -7.755396e+04   7.966050e+04
   1.082162e+05   3.184183e+04
   1.894130e+05   2.122259e+04
   1.459067e+04   7.996699e+04
  -2.509519e+05   1.608384e+05
  -3.301269e+05   1.363367e+05
  -1.620223e+05  -3.939469e+04
   6.086906e+04  -2.164291e+05
   1.437584e+05  -1.990083e+05
   7.715173e+04  -1.262582e+03
  -2.729463e+04   1.483494e+05
  -8.764854e+04   8.610768e+04
  -8.969080e+04  -9.137601e+04
  -4.142662e+04  -1.680639e+05
   3.778337e+04  -7.898412e+04
   1.018915e+05   4.353378e+04
   1.081133e+05   6.685640e+04
   6.416160e+04   1.165310e+04
   1.295775e+04  -1.077335e+04
  -2.561859e+04   4.685734e+04
  -6.514334e+04   1.168468e+05
  -1.060170e+05   9.989225e+04
  -1.134405e+05  -2.415334e+04
  -5.594522e+04  -1.620344e+05
   5.026416e+04  -1.829219e+05
   1.412448e+05  -4.948745e+04
   1.427181e+05   1.250852e+05
   2.612619e+04   1.799322e+05
  -1.405733e+05   7.536495e+04
  -2.135996e+05  -7.005620e+04
  -1.045063e+05  -1.215455e+05
   9.322132e+04  -6.907654e+04
   1.698209e+05  -3.063829e+03
   3.854567e+04   8.329701e+03
  -1.363395e+05  -2.917663e+04
  -1.214890e+05  -7.735191e+04
   9.365289e+04  -9.542592e+04
   2.694329e+05  -3.863371e+04
