
 $NMID
 id='ANONYMOUS ', fmtdat='(2E16.6)'
 volume=1.0
 tramp=1.0
 $END
  -2.370815e+07   8.822322e+04
  -1.570372e+07  -1.175849e+07
   4.893140e+05  -1.529157e+07
   1.055346e+07  -9.389739e+06
   8.432659e+06  -3.014576e+05
   2.175389e+05   4.269617e+06
  -4.768001e+06   1.705264e+06
  -3.254485e+06  -3.912068e+06
   1.403006e+06  -6.166814e+06
   4.437680e+06  -2.599303e+06
   3.723170e+06   3.014366e+06
   4.592314e+05   4.782945e+06
  -2.204538e+06   1.060495e+06
  -1.710379e+06  -3.854622e+06
   1.451480e+06  -4.552756e+06
   3.916152e+06  -2.962720e+05
   2.813892e+06   4.640111e+06
  -1.154346e+06   5.809671e+06
  -4.507876e+06   2.792135e+06
  -4.624255e+06  -1.279920e+06
  -2.113997e+06  -3.292943e+06
   2.125039e+05  -2.784752e+06
   2.676425e+05  -1.628160e+06
  -1.319300e+06  -1.726958e+06
  -1.851526e+06  -3.029664e+06
   5.397928e+05  -3.684238e+06
   4.424959e+06  -2.190017e+06
   6.059231e+06   7.526389e+05
   3.436562e+06   2.839584e+06
  -1.103039e+06   2.524871e+06
  -3.204188e+06   4.315741e+05
  -1.267381e+06  -1.475423e+06
   2.060072e+06  -1.626188e+06
   3.228742e+06   1.216802e+05
   1.575335e+06   2.409461e+06
  -7.124129e+05   3.196359e+06
  -1.509265e+06   1.532584e+06
  -7.113346e+05  -1.033727e+06
   3.326316e+05  -1.664982e+06
   4.130783e+05   4.180896e+05
  -5.873621e+05   2.567285e+06
  -1.688508e+06   1.794927e+06
  -1.586248e+06  -1.251524e+06
   7.837791e+04  -2.854945e+06
   1.984680e+06  -8.899153e+05
   2.084519e+06   2.489547e+06
  -2.754551e+05   3.519219e+06
  -3.291063e+06   1.168716e+06
  -4.161897e+06  -2.128734e+06
  -1.826287e+06  -3.471456e+06
   1.829307e+06  -2.186047e+06
   3.653811e+06   2.136925e+05
   2.238797e+06   1.742597e+06
  -7.553691e+05   1.456728e+06
  -2.355431e+06  -1.497631e+04
  -1.327891e+06  -1.095361e+06
   7.153114e+05  -7.517651e+05
   1.323149e+06   4.561691e+05
  -6.139188e+02   1.048085e+06
  -1.393710e+06   3.345030e+05
  -9.487510e+05  -8.746938e+05
   1.043624e+06  -1.258467e+06
   2.424448e+06  -2.831131e+05
   1.513505e+06   1.482262e+06
  -1.170266e+06   2.833437e+06
  -3.489506e+06   2.610341e+06
  -3.751819e+06   5.409564e+05
  -2.134494e+06  -2.188005e+06
  -2.229261e+05  -3.665239e+06
   6.673284e+05  -3.087695e+06
   6.174548e+05  -1.601202e+06
   6.388011e+05  -8.385444e+05
   1.321975e+06  -9.081511e+05
   2.163489e+06  -5.228958e+05
   2.188667e+06   9.338855e+05
   1.021707e+06   2.292441e+06
  -7.049383e+05   1.960590e+06
  -1.815983e+06  -6.033700e+04
  -1.443741e+06  -2.042166e+06
   2.683570e+05  -2.296112e+06
   2.091167e+06  -7.322224e+05
   2.586929e+06   1.281698e+06
   1.424664e+06   2.303033e+06
  -2.417564e+05   1.995813e+06
  -1.019912e+06   1.151883e+06
  -8.541583e+05   7.098962e+05
  -9.508799e+05   7.837373e+05
  -2.032573e+06   6.541451e+05
  -3.136530e+06  -3.264305e+05
  -2.605381e+06  -1.918275e+06
  -1.481151e+05  -3.098550e+06
   2.535416e+06  -2.915209e+06
   3.359289e+06  -1.303902e+06
   1.904730e+06   7.417268e+05
  -2.561917e+05   1.816835e+06
  -1.181933e+06   1.250529e+06
  -3.776045e+05  -1.800697e+05
   9.601611e+05  -9.095101e+05
   1.340772e+06  -2.395335e+05
   4.876516e+05   8.409243e+05
  -5.413271e+05   8.546459e+05
  -5.869659e+05  -2.570290e+05
   4.125562e+05  -9.483831e+05
   1.421348e+06   3.674653e+04
   1.320542e+06   2.018752e+06
  -1.126650e+05   3.024273e+06
  -2.012423e+06   1.914650e+06
  -3.040732e+06  -4.710933e+05
  -2.394481e+06  -2.260126e+06
  -5.330488e+05  -2.337305e+06
   1.087955e+06  -1.161223e+06
   1.301963e+06  -7.031465e+04
   3.813730e+05   3.922652e+04
  -2.848742e+05  -5.699716e+05
   2.161869e+05  -9.240134e+05
   1.262860e+06  -4.326833e+05
   1.469734e+06   4.965646e+05
   3.962753e+05   9.461730e+05
  -8.509360e+05   5.003866e+05
  -8.410037e+05  -3.324586e+05
   5.468650e+05  -6.624219e+05
   1.909800e+06  -6.750974e+04
   1.746137e+06   1.050667e+06
   3.918421e+03   1.796896e+06
  -1.833272e+06   1.489734e+06
  -2.191816e+06   2.732130e+05
  -9.204012e+05  -8.840402e+05
   6.363059e+05  -1.006376e+06
   1.022634e+06  -1.104422e+05
   5.941258e+04   7.331533e+05
  -1.131608e+06   5.311835e+05
  -1.343829e+06  -5.174579e+05
  -4.237254e+05  -1.260234e+06
   7.112965e+05  -9.244747e+05
   1.026714e+06   3.923097e+04
   3.426866e+05   5.402499e+05
  -5.166991e+05   7.727212e+04
  -5.241381e+05  -7.835893e+05
   4.899798e+05  -1.064825e+06
   1.564327e+06  -3.526258e+05
   1.535196e+06   8.453433e+05
   2.903963e+05   1.574392e+06
  -1.051022e+06   1.265450e+06
  -1.309098e+06   2.268625e+05
  -4.575338e+05  -6.374723e+05
   4.730338e+05  -6.669442e+05
   5.850557e+05  -4.763480e+04
  -1.555966e+04   4.505857e+05
  -5.213981e+05   3.339698e+05
  -3.698801e+05  -1.042433e+05
   2.112121e+05  -1.831360e+05
   4.895678e+05   3.286129e+05
  -2.010499e+04   8.892675e+05
  -1.019956e+06   7.334442e+05
  -1.611729e+06  -2.949696e+05
  -1.123650e+06  -1.496782e+06
   1.768103e+05  -1.918669e+06
   1.285365e+06  -1.223989e+06
   1.447752e+06   4.743469e+03
   8.583069e+05   8.240552e+05
   2.998076e+05   8.030303e+05
   2.135247e+05   3.487186e+05
   3.056079e+05   1.716336e+05
   4.668118e+04   4.732714e+05
  -6.237821e+05   7.362362e+05
  -1.167572e+06   3.514946e+05
  -9.539175e+05  -6.009644e+05
   1.102455e+05  -1.295550e+06
   1.363948e+06  -9.474428e+05
   1.818034e+06   3.488966e+05
   9.751377e+05   1.610923e+06
  -6.471528e+05   1.837179e+06
  -1.879226e+06   9.076458e+05
  -1.909838e+06  -3.637132e+05
  -9.605982e+05  -1.044269e+06
   4.989242e+04  -9.249357e+05
   4.390053e+05  -5.639370e+05
   2.992208e+05  -5.599127e+05
   1.967357e+05  -8.696134e+05
   4.826380e+05  -8.941084e+05
   9.338748e+05  -2.107603e+05
   1.004566e+06   8.620083e+05
   4.083243e+05   1.490472e+06
  -5.125456e+05   1.120061e+06
  -1.020727e+06   2.455539e+04
  -6.749108e+05  -9.353633e+05
   1.939206e+05  -1.080561e+06
   7.801360e+05  -4.533787e+05
   6.212472e+05   3.371088e+05
   4.891281e+04   7.265706e+05
  -2.390161e+05   6.397367e+05
   4.608606e+03   4.008437e+05
   3.017429e+05   3.032201e+05
   2.245170e+04   3.156545e+05
  -8.344493e+05   1.862765e+05
  -1.521508e+06  -2.252048e+05
  -1.259858e+06  -7.512978e+05
  -8.067865e+04  -1.038059e+06
   1.110838e+06  -8.513062e+05
   1.385734e+06  -2.949441e+05
   6.958505e+05   2.394400e+05
  -1.438025e+05   3.749401e+05
  -3.611698e+05   8.737434e+04
   2.115644e+04  -2.376325e+05
   3.950475e+05  -1.711229e+05
   3.563308e+05   2.724814e+05
   8.209024e+04   5.949034e+05
  -3.189140e+04   3.794233e+05
   1.228957e+05  -1.494283e+05
   3.080976e+05  -3.195064e+05
   2.359954e+05   1.710752e+05
  -1.714103e+05   8.069551e+05
  -7.026441e+05   8.084053e+05
  -9.343091e+05   6.054309e+04
  -5.318332e+05  -7.202891e+05
   3.282627e+05  -7.857488e+05
   9.082258e+05  -1.525283e+05
   5.524248e+05   4.882644e+05
  -5.258402e+05   5.276895e+05
  -1.296294e+06  -2.286816e+04
  -9.329288e+05  -6.580722e+05
   2.799418e+05  -8.695735e+05
   1.214996e+06  -5.233141e+05
   1.071114e+06   7.797233e+04
   1.591704e+05   4.332488e+05
  -5.010350e+05   2.617407e+05
  -2.665580e+05  -1.977300e+05
   5.126092e+05  -3.521344e+05
   9.166097e+05   1.529976e+05
   4.190559e+05   9.730910e+05
  -5.932269e+05   1.290312e+06
  -1.230857e+06   6.092709e+05
  -9.779006e+05  -6.516933e+05
  -1.267430e+05  -1.445304e+06
   6.038400e+05  -1.076550e+06
   7.556964e+05   8.244676e+04
   4.026426e+05   9.441816e+05
  -9.620322e+04   8.226126e+05
  -4.223741e+05   1.011213e+05
  -4.313894e+05  -3.221601e+05
  -1.994717e+05  -1.369582e+05
  -1.298540e+04   9.891559e+04
  -1.191599e+05  -1.834205e+05
  -3.586451e+05  -7.498917e+05
  -2.277365e+05  -8.794360e+05
   4.736538e+05  -3.279093e+05
   1.183256e+06   3.870841e+05
   1.091866e+06   6.812172e+05
   1.512785e+05   5.404811e+05
  -7.528815e+05   3.134834e+05
  -8.122342e+05   1.609240e+05
  -2.288813e+05  -1.076855e+03
   1.452936e+05  -1.690428e+05
  -4.996708e+04  -2.076771e+05
  -2.947491e+05  -1.296113e+05
  -4.035364e+03  -1.102102e+05
   6.203552e+05  -1.402225e+05
   8.173194e+05   5.107432e+04
   2.052689e+05   5.351426e+05
  -7.657893e+05   8.636196e+05
  -1.297492e+06   5.101210e+05
  -1.001625e+06  -4.094515e+05
  -1.593627e+05  -1.131730e+06
   6.067046e+05  -1.048670e+06
   8.359054e+05  -3.501656e+05
   5.251177e+05   2.432534e+05
   6.319129e+04   2.829956e+05
  -1.277068e+05  -1.723610e+03
   3.985390e+04  -7.019103e+04
   2.719126e+05   2.726153e+05
   2.154501e+05   6.452064e+05
  -1.701689e+05   5.158172e+05
  -5.507501e+05  -1.645189e+05
  -5.161010e+05  -8.188352e+05
   1.677645e+04  -8.054815e+05
   6.454610e+05  -1.027589e+05
   7.760399e+05   6.602650e+05
   2.030880e+05   8.620159e+05
  -5.873610e+05   4.634239e+05
  -8.434547e+05  -1.016377e+05
  -3.662477e+05  -4.391899e+05
   2.315399e+05  -4.599137e+05
   2.422837e+05  -2.696593e+05
  -2.645431e+05  -4.234284e+04
  -5.325819e+05   6.251255e+03
  -8.620452e+04  -2.317390e+05
   6.664467e+05  -5.309035e+05
   9.486119e+05  -4.587380e+05
   5.318015e+05   9.665242e+04
  -9.818339e+04   6.573886e+05
  -3.907403e+05   6.402499e+05
  -2.677182e+05   7.200902e+04
   5.353454e+03  -4.072426e+05
   2.094297e+05  -3.010262e+05
   2.767481e+05   1.857340e+05
   1.792744e+05   4.636537e+05
  -6.474075e+04   2.789886e+05
  -3.043512e+05  -7.057913e+04
  -3.503537e+05  -1.870337e+05
  -1.908052e+05  -4.208679e+04
  -5.340996e+03   6.905149e+04
   6.788772e+04  -6.549768e+04
   8.630602e+04  -3.162028e+05
   1.709530e+05  -3.600085e+05
   2.912474e+05  -5.047767e+04
   2.681890e+05   3.802156e+05
  -8.921681e+02   5.205053e+05
  -3.598600e+05   2.077100e+05
  -4.757905e+05  -2.748484e+05
  -1.552780e+05  -4.826181e+05
   3.898986e+05  -2.696486e+05
   6.578816e+05   1.051886e+05
   3.519127e+05   3.096599e+05
  -2.389142e+05   2.633065e+05
  -4.908849e+05   1.098050e+05
  -1.491465e+05   1.154870e+03
   3.413143e+05   6.567314e+03
   3.446822e+05   1.299520e+05
  -1.968864e+05   2.656868e+05
  -6.851128e+05   1.918674e+05
