
 $NMID
 id='ANONYMOUS ', fmtdat='(2E16.6)'
 volume=1.0
 tramp=1.0
 $END
   5.788025e+07   1.060474e+06
   3.387462e+07   3.670319e+07
  -8.664341e+06   3.898111e+07
  -2.857428e+07   1.416436e+07
  -1.649618e+07  -7.762464e+06
   3.718040e+06  -9.413909e+06
   9.907750e+06   1.628191e+06
   2.457276e+06   1.000944e+07
  -6.554987e+06   9.201095e+06
  -9.830272e+06   1.717051e+06
  -7.014501e+06  -6.423101e+06
  -7.260346e+05  -8.732791e+06
   4.104655e+06  -2.782257e+06
   2.621262e+06   5.453691e+06
  -3.916201e+06   6.473362e+06
  -7.963577e+06  -1.575922e+06
  -4.299937e+06  -1.048864e+07
   4.105239e+06  -1.194750e+07
   1.045075e+07  -5.867207e+06
   1.108384e+07   2.257926e+06
   6.746993e+06   7.832304e+06
   5.671891e+05   9.013359e+06
  -3.243478e+06   6.217712e+06
  -2.138272e+06   2.575427e+06
   1.063075e+06   1.955668e+06
   3.477933e+05   4.134408e+06
  -5.398526e+06   4.494515e+06
  -9.787895e+06   5.341076e+05
  -7.176093e+06  -4.235409e+06
  -3.100546e+05  -5.229053e+06
   3.737431e+06  -2.724953e+06
   2.595732e+06  -1.299319e+05
  -4.004853e+05   9.231572e+05
  -2.145471e+06   6.099963e+05
  -2.258164e+06  -1.300390e+06
  -8.202800e+05  -3.951429e+06
   1.850115e+06  -3.976043e+06
   3.433395e+06   9.773545e+04
   1.805081e+06   3.805524e+06
  -8.830741e+05   2.089094e+06
  -4.565009e+05  -2.419280e+06
   2.465825e+06  -2.277360e+06
   2.400365e+06   3.309059e+06
  -2.682895e+06   6.188035e+06
  -7.227577e+06   8.279305e+05
  -5.121703e+06  -7.254702e+06
   2.172818e+06  -8.710120e+06
   7.652902e+06  -2.344084e+06
   6.958184e+06   4.616341e+06
   1.732036e+06   6.096123e+06
  -3.539816e+06   2.642852e+06
  -5.223659e+06  -1.639105e+06
  -2.327003e+06  -3.548157e+06
   2.524888e+06  -2.152131e+06
   4.577520e+06   1.046525e+06
   1.904537e+06   2.813869e+06
  -1.783761e+06   1.360581e+06
  -1.716326e+06  -1.058480e+06
   1.396997e+06  -8.336750e+05
   2.432864e+06   1.930091e+06
  -8.324400e+05   3.522180e+06
  -4.851335e+06   1.788141e+06
  -5.366363e+06  -1.557911e+06
  -2.251715e+06  -4.120868e+06
   1.881044e+06  -5.341750e+06
   5.081103e+06  -4.901669e+06
   6.302925e+06  -1.757230e+06
   4.676875e+06   3.239572e+06
   9.269425e+05   6.274226e+06
  -1.961363e+06   4.768197e+06
  -1.797630e+06   1.118872e+06
  -6.850789e+04  -3.227251e+05
   1.581400e+05   1.026553e+06
  -1.557592e+06   1.907292e+06
  -2.861266e+06   3.409798e+05
  -2.113153e+06  -1.883298e+06
  -1.049080e+05  -2.152136e+06
   1.508389e+06  -2.539559e+05
   1.683951e+06   2.031336e+06
   2.631198e+04   2.945054e+06
  -2.796225e+06   1.698743e+06
  -4.561275e+06  -1.201083e+06
  -3.282282e+06  -3.862073e+06
   8.120713e+04  -4.347987e+06
   2.388577e+06  -2.764154e+06
   2.320301e+06  -1.108541e+06
   1.865809e+06  -6.341479e+05
   2.955027e+06  -4.355283e+05
   4.360709e+06   8.076292e+05
   3.482009e+06   2.804502e+06
   1.101678e+05   4.142784e+06
  -3.223646e+06   3.913047e+06
  -4.192128e+06   2.154345e+06
  -2.696694e+06  -3.945414e+05
  -3.217736e+05  -2.255360e+06
   1.087146e+06  -1.977262e+06
   5.785402e+05   2.494999e+04
  -1.088934e+06   1.327614e+06
  -1.932922e+06   3.954895e+05
  -9.408725e+05  -1.232552e+06
   5.093461e+05  -1.124614e+06
   4.005441e+05   3.862892e+05
  -1.098060e+06   6.354372e+05
  -1.817899e+06  -1.399686e+06
  -5.186328e+05  -3.534687e+06
   1.710460e+06  -3.325003e+06
   3.151710e+06  -9.730730e+05
   3.232467e+06   1.510290e+06
   2.207739e+06   2.737197e+06
   4.386296e+05   2.578906e+06
  -1.236515e+06   1.468488e+06
  -1.582237e+06   2.386684e+05
  -4.955747e+05  -4.779767e+04
   3.556911e+05   7.597250e+05
  -4.400115e+05   1.357135e+06
  -1.949347e+06   5.660346e+05
  -2.047458e+06  -9.315655e+05
  -3.617173e+05  -1.442992e+06
   1.188099e+06  -5.594336e+05
   8.725854e+05   4.596305e+05
  -8.607666e+05   4.810186e+05
  -2.150941e+06  -3.653194e+05
  -1.696659e+06  -1.357644e+06
   2.749714e+05  -1.938285e+06
   2.317308e+06  -1.627408e+06
   2.785609e+06  -2.546859e+05
   1.218028e+06   1.294663e+06
  -9.504463e+05   1.526105e+06
  -1.599095e+06   1.800263e+05
  -2.057005e+05  -1.108228e+06
   1.540006e+06  -7.384331e+05
   1.721892e+06   8.091526e+05
   3.065427e+05   1.663099e+06
  -1.118425e+06   9.479678e+05
  -1.249013e+06  -3.493116e+05
  -2.176820e+05  -7.925748e+05
   8.170830e+05  -4.142752e+04
   7.432350e+05   1.073127e+06
  -5.828710e+05   1.441473e+06
  -2.029195e+06   5.483357e+05
  -2.055592e+06  -1.066045e+06
  -3.760592e+05  -2.099712e+06
   1.471258e+06  -1.647329e+06
   1.743615e+06  -1.910872e+05
   4.892059e+05   8.817189e+05
  -6.729838e+05   7.979770e+05
  -6.255467e+05   7.939094e+04
   1.257366e+05  -3.336637e+05
   4.676724e+05  -1.876316e+05
   8.379941e+04   4.629217e+04
  -4.611459e+05  -1.230258e+05
  -4.958313e+05  -7.056984e+05
   2.379352e+05  -1.193796e+06
   1.404705e+06  -8.865874e+05
   2.095766e+06   4.326981e+05
   1.468641e+06   1.969213e+06
  -2.274624e+05   2.433461e+06
  -1.624434e+06   1.396564e+06
  -1.676428e+06  -1.445929e+05
  -8.348908e+05  -8.791433e+05
  -3.212096e+05  -6.097998e+05
  -5.120794e+05  -2.027130e+05
  -6.551810e+05  -3.381076e+05
  -8.604837e+04  -7.903012e+05
   8.949216e+05  -8.946497e+05
   1.449486e+06  -3.055557e+05
   1.033216e+06   7.205729e+05
  -2.659110e+05   1.439577e+06
  -1.731154e+06   1.054406e+06
  -2.249875e+06  -4.998555e+05
  -1.115279e+06  -2.121259e+06
   1.052140e+06  -2.372690e+06
   2.578279e+06  -1.004404e+06
   2.345223e+06   6.971986e+05
   9.209444e+05   1.343557e+06
  -2.219171e+05   9.160034e+05
  -3.650925e+05   4.911820e+05
  -4.504934e+04   7.735764e+05
  -9.811440e+04   1.345462e+06
  -6.927715e+05   1.310944e+06
  -1.318488e+06   3.179589e+05
  -1.350085e+06  -1.092521e+06
  -5.576612e+05  -1.909872e+06
   6.280375e+05  -1.446510e+06
   1.290792e+06   1.167067e+04
   8.022923e+05   1.305618e+06
  -4.187767e+05   1.400667e+06
  -1.187865e+06   3.742029e+05
  -8.060763e+05  -7.413176e+05
   1.585720e+05  -1.094931e+06
   5.729018e+05  -7.720155e+05
   9.616526e+04  -4.023934e+05
  -4.433247e+05  -3.344136e+05
  -6.386768e+04  -3.845345e+05
   1.167460e+06  -1.999274e+05
   2.090356e+06   3.533490e+05
   1.622282e+06   1.061247e+06
  -6.730689e+04   1.454480e+06
  -1.630155e+06   1.143216e+06
  -1.850242e+06   2.559509e+05
  -8.228705e+05  -5.253056e+05
   2.791344e+05  -5.816759e+05
   5.195487e+05  -1.912748e+04
   3.346110e+04   4.429198e+05
  -4.392069e+05   2.669298e+05
  -4.881223e+05  -3.457954e+05
  -2.769681e+05  -7.285621e+05
  -1.163463e+05  -4.869495e+05
  -1.321342e+05   8.100053e+04
  -2.605600e+05   2.799293e+05
  -2.720493e+05  -2.360481e+05
   1.315612e+05  -9.888450e+05
   9.101293e+05  -1.076359e+06
   1.402550e+06  -1.825386e+05
   8.840664e+05   9.285164e+05
  -4.250817e+05   1.168889e+06
  -1.288911e+06   3.570939e+05
  -7.444665e+05  -5.713846e+05
   7.135558e+05  -6.454873e+05
   1.585620e+06   1.112449e+05
   9.770417e+05   8.705299e+05
  -5.090627e+05   9.687239e+05
  -1.495416e+06   4.449329e+05
  -1.214101e+06  -2.085236e+05
  -1.221892e+05  -5.089910e+05
   6.550352e+05  -2.566226e+05
   3.933314e+05   3.070470e+05
  -5.800200e+05   5.425022e+05
  -1.200054e+06  -6.054230e+04
  -7.063362e+05  -1.184638e+06
   5.631066e+05  -1.735668e+06
   1.483412e+06  -9.195046e+05
   1.271901e+06   7.494988e+05
   2.139441e+05   1.798899e+06
  -7.396479e+05   1.289337e+06
  -9.225079e+05  -1.944011e+05
  -4.148392e+05  -1.198263e+06
   2.432847e+05  -9.556963e+05
   5.715656e+05  -7.232003e+04
   4.511073e+05   3.709719e+05
   1.443022e+05   1.266930e+05
   5.594739e+04  -8.746542e+04
   3.111940e+05   3.185644e+05
   5.259257e+05   9.811313e+05
   1.678467e+05   1.075095e+06
  -7.493040e+05   3.877297e+05
  -1.481761e+06  -4.630135e+05
  -1.264385e+06  -8.344948e+05
  -1.836196e+05  -7.081103e+05
   8.347351e+05  -4.324818e+05
   9.799086e+05  -1.790465e+05
   3.814069e+05   7.075734e+04
  -1.365717e+05   2.323955e+05
  -6.180888e+04   1.866385e+05
   2.389267e+05   7.083928e+04
   6.478695e+04   1.342926e+05
  -6.333874e+05   2.612379e+05
  -1.062270e+06   5.489842e+03
  -4.895642e+05  -7.094521e+05
   8.118682e+05  -1.221402e+06
   1.736483e+06  -7.986876e+05
   1.473741e+06   4.110708e+05
   3.050526e+05   1.413665e+06
  -7.731586e+05   1.405835e+06
  -1.059609e+06   5.767663e+05
  -6.624657e+05  -2.080714e+05
  -1.535450e+05  -3.638224e+05
   4.382467e+04  -9.348528e+04
  -8.910763e+04  -7.860826e+03
  -2.887777e+05  -3.764990e+05
  -2.431501e+05  -8.118721e+05
   1.679940e+05  -6.968632e+05
   6.864692e+05   8.905530e+04
   7.831712e+05   9.319730e+05
   1.688655e+05   1.051059e+06
  -7.413067e+05   2.983245e+05
  -1.071928e+06  -6.837388e+05
  -3.898331e+05  -1.102031e+06
   7.099193e+05  -7.218173e+05
   1.150856e+06   5.295775e+04
   5.619904e+05   6.397969e+05
  -2.887196e+05   7.216333e+05
  -4.095143e+05   3.799459e+05
   2.191979e+05  -1.187539e+04
   6.479716e+05  -5.508110e+04
   1.627788e+05   3.175246e+05
  -8.247738e+05   6.919871e+05
  -1.290381e+06   5.325269e+05
  -8.019968e+05  -2.007272e+05
   8.476445e+04  -8.936726e+05
   5.780868e+05  -8.820160e+05
   4.652987e+05  -1.889205e+05
   8.121723e+04   4.721720e+05
  -2.317561e+05   4.630116e+05
  -3.605953e+05  -1.127330e+05
  -2.704844e+05  -5.793329e+05
   4.263433e+04  -4.621360e+05
   3.992572e+05   2.573862e+04
   4.927272e+05   2.997890e+05
   2.440761e+05   1.133402e+05
  -4.919164e+04  -1.779155e+05
  -7.752024e+04  -9.321793e+04
   6.397685e+04   3.432305e+05
   1.525034e+04   6.003320e+05
  -3.072305e+05   2.864748e+05
  -5.168931e+05  -3.442013e+05
  -2.263134e+05  -6.552528e+05
   3.934857e+05  -3.430602e+05
   7.010349e+05   2.529255e+05
   2.848674e+05   5.648991e+05
  -5.173604e+05   3.816909e+05
  -9.151620e+05  -4.926539e+04
  -5.008013e+05  -3.742021e+05
   2.935193e+05  -4.343609e+05
   6.553032e+05  -2.706790e+05
   2.794192e+05  -2.467070e+04
  -3.164286e+05   1.067662e+05
  -4.041827e+05  -1.830088e+04
   1.320837e+05  -2.795118e+05
   6.981677e+05  -2.959870e+05
