
 $NMID
 id='ANONYMOUS ', fmtdat='(2E16.6)'
 volume=1.0
 tramp=1.0
 $END
  -4.027657e+07  -2.201451e+05
  -2.508356e+07  -2.283332e+07
   3.504463e+06  -2.657507e+07
   1.890773e+07  -1.278655e+07
   1.281711e+07   2.557843e+06
  -1.166159e+06   6.877544e+06
  -7.451332e+06   7.995239e+05
  -3.536002e+06  -6.793297e+06
   3.495772e+06  -8.335805e+06
   7.155016e+06  -2.741603e+06
   5.579688e+06   4.760312e+06
   6.594732e+05   7.045878e+06
  -3.273424e+06   1.883380e+06
  -2.357859e+06  -5.091190e+06
   2.577529e+06  -6.041387e+06
   6.064534e+06   3.199916e+05
   3.860320e+06   7.561211e+06
  -2.405508e+06   9.055296e+06
  -7.443197e+06   4.415706e+06
  -7.787776e+06  -1.837965e+06
  -4.185978e+06  -5.512273e+06
  -4.504797e+04  -5.544112e+06
   1.398806e+06  -3.584830e+06
  -2.893107e+05  -2.321336e+06
  -1.899819e+06  -3.144024e+06
   2.861408e+05  -4.484921e+06
   5.529679e+06  -3.433908e+06
   8.468550e+06   3.793202e+05
   5.409373e+06   3.821239e+06
  -7.631384e+05   3.955522e+06
  -3.948657e+06   1.363309e+06
  -1.981538e+06  -1.134831e+06
   1.795144e+06  -1.662052e+06
   3.387458e+06  -1.459874e+05
   2.111377e+06   2.408078e+06
  -2.551966e+05   4.027054e+06
  -1.886696e+06   2.698402e+06
  -1.837035e+06  -8.674676e+05
  -3.999908e+05  -2.738486e+06
   6.616597e+05  -4.296762e+05
  -2.904749e+05   2.958073e+06
  -2.252400e+06   2.288298e+06
  -2.160969e+06  -2.210559e+06
   1.032300e+06  -4.561136e+06
   4.238262e+06  -1.024721e+06
   3.561914e+06   4.651762e+06
  -1.002985e+06   6.021342e+06
  -5.446155e+06   1.813082e+06
  -5.908112e+06  -3.382917e+06
  -2.122152e+06  -5.016091e+06
   2.756330e+06  -2.736661e+06
   4.854043e+06   7.521381e+05
   2.663080e+06   2.688710e+06
  -1.524368e+06   1.963093e+06
  -3.571036e+06  -3.837535e+05
  -1.770976e+06  -1.904661e+06
   1.225084e+06  -1.106255e+06
   1.695788e+06   7.472771e+05
  -5.050760e+05   1.147345e+06
  -2.007856e+06  -4.298945e+05
  -4.612734e+05  -1.985371e+06
   2.609222e+06  -1.669213e+06
   3.912679e+06   3.314682e+05
   2.048572e+06   2.693986e+06
  -1.617420e+06   4.243374e+06
  -4.657730e+06   3.915334e+06
  -5.327121e+06   1.097952e+06
  -3.442659e+06  -2.938545e+06
  -5.373999e+05  -5.248036e+06
   1.238945e+06  -4.234434e+06
   1.144997e+06  -1.701496e+06
   5.331745e+05  -5.620160e+05
   1.001781e+06  -1.117004e+06
   2.311353e+06  -1.132794e+06
   2.817205e+06   6.152699e+05
   1.610497e+06   2.530935e+06
  -5.178531e+05   2.371961e+06
  -2.015360e+06   5.561660e+04
  -1.791320e+06  -2.379859e+06
   1.935802e+05  -2.929143e+06
   2.704506e+06  -1.223070e+06
   3.760764e+06   1.458990e+06
   2.360560e+06   3.262347e+06
  -2.155458e+05   3.200538e+06
  -1.690935e+06   1.943808e+06
  -1.533536e+06   9.807349e+05
  -1.443919e+06   8.678326e+05
  -2.714459e+06   6.971603e+05
  -4.123611e+06  -5.414353e+05
  -3.383174e+06  -2.557092e+06
  -1.767366e+05  -4.010964e+06
   3.205877e+06  -3.794379e+06
   4.233296e+06  -1.857674e+06
   2.525948e+06   7.314096e+05
  -7.828697e+04   2.291018e+06
  -1.343237e+06   1.738081e+06
  -5.170791e+05  -1.520907e+05
   1.166946e+06  -1.223944e+06
   1.785991e+06  -3.449316e+05
   7.416222e+05   1.125997e+06
  -6.175339e+05   1.103174e+06
  -6.205989e+05  -3.445989e+05
   7.280775e+05  -9.978722e+05
   1.808474e+06   5.339837e+05
   1.263452e+06   2.910700e+06
  -6.990602e+05   3.651317e+06
  -2.761693e+06   1.908775e+06
  -3.633668e+06  -9.142537e+05
  -2.749541e+06  -2.807601e+06
  -6.035278e+05  -2.823100e+06
   1.322306e+06  -1.479085e+06
   1.627535e+06  -1.514464e+05
   4.887845e+05   4.693181e+04
  -3.627487e+05  -7.354903e+05
   3.302197e+05  -1.241862e+06
   1.728120e+06  -5.622676e+05
   1.935429e+06   7.328183e+05
   4.565382e+05   1.287663e+06
  -1.117207e+06   6.123138e+05
  -9.984195e+05  -4.310101e+05
   7.513794e+05  -7.123460e+05
   2.324463e+06   6.833711e+04
   2.033181e+06   1.332665e+06
  -8.696672e+04   2.156258e+06
  -2.315968e+06   1.805790e+06
  -2.783193e+06   3.256075e+05
  -1.191860e+06  -1.180706e+06
   8.549766e+05  -1.372470e+06
   1.408295e+06  -1.602267e+05
   1.270183e+05   9.958790e+05
  -1.472116e+06   7.042793e+05
  -1.715221e+06  -7.053623e+05
  -4.604783e+05  -1.620960e+06
   9.766741e+05  -1.095217e+06
   1.283813e+06   1.535760e+05
   3.585307e+05   7.229009e+05
  -7.146670e+05   7.997985e+04
  -6.983798e+05  -1.021093e+06
   6.021969e+05  -1.387987e+06
   2.000814e+06  -4.933716e+05
   1.993574e+06   1.062578e+06
   3.802352e+05   2.034913e+06
  -1.377912e+06   1.627866e+06
  -1.691101e+06   2.599566e+05
  -5.510453e+05  -8.333638e+05
   6.234357e+05  -8.317324e+05
   6.998403e+05  -7.087813e+04
  -5.576779e+04   4.849038e+05
  -5.889267e+05   3.407618e+05
  -3.292197e+05  -9.834950e+04
   3.374678e+05  -1.033713e+05
   5.772692e+05   5.201133e+05
  -9.841098e+04   1.153050e+06
  -1.331499e+06   9.208072e+05
  -2.066781e+06  -3.869934e+05
  -1.450856e+06  -1.920056e+06
   2.148626e+05  -2.436995e+06
   1.622695e+06  -1.504217e+06
   1.779469e+06   4.836245e+04
   1.001769e+06   9.802766e+05
   3.641613e+05   8.681762e+05
   3.617377e+05   3.541965e+05
   4.867781e+05   2.606872e+05
   7.149173e+04   6.702891e+05
  -8.258193e+05   9.238415e+05
  -1.468826e+06   4.015256e+05
  -1.149947e+06  -7.422235e+05
   1.785939e+05  -1.570852e+06
   1.726707e+06  -1.156667e+06
   2.289658e+06   4.537018e+05
   1.202509e+06   2.068236e+06
  -8.960965e+05   2.351422e+06
  -2.451939e+06   1.108919e+06
  -2.398285e+06  -5.372863e+05
  -1.116576e+06  -1.326992e+06
   1.158573e+05  -1.080256e+06
   4.837114e+05  -6.367059e+05
   2.543989e+05  -7.362629e+05
   1.897948e+05  -1.194196e+06
   6.375060e+05  -1.202565e+06
   1.233633e+06  -2.911916e+05
   1.308089e+06   1.088608e+06
   5.413308e+05   1.897239e+06
  -6.364140e+05   1.434456e+06
  -1.294337e+06   2.123648e+04
  -8.422996e+05  -1.227368e+06
   3.034522e+05  -1.383801e+06
   1.060287e+06  -5.061916e+05
   7.968393e+05   5.394216e+05
  -1.484123e+04   9.853783e+05
  -3.985819e+05   7.987602e+05
  -2.908220e+04   4.699321e+05
   4.070990e+05   3.650158e+05
   4.326766e+04   3.949254e+05
  -1.098324e+06   2.277401e+05
  -1.991762e+06  -3.024211e+05
  -1.612554e+06  -9.865184e+05
  -4.593489e+04  -1.367736e+06
   1.486688e+06  -1.110004e+06
   1.791472e+06  -3.388756e+05
   8.626314e+05   3.811422e+05
  -2.160519e+05   5.155713e+05
  -4.804457e+05   7.930279e+04
   3.640455e+03  -3.537602e+05
   4.780361e+05  -2.378786e+05
   4.672135e+05   3.440680e+05
   1.709222e+05   7.456119e+05
   1.905673e+04   4.842382e+05
   1.463536e+05  -1.507205e+05
   3.415371e+05  -3.616893e+05
   2.905890e+05   2.228638e+05
  -1.816310e+05   1.012991e+06
  -8.946162e+05   1.048995e+06
  -1.265739e+06   1.204924e+05
  -7.559902e+05  -9.173281e+05
   4.158263e+05  -1.062553e+06
   1.202684e+06  -2.584851e+05
   7.202556e+05   5.993426e+05
  -6.816950e+05   6.641658e+05
  -1.624429e+06  -5.175655e+04
  -1.112641e+06  -8.431058e+05
   4.067265e+05  -1.056279e+06
   1.522656e+06  -5.912143e+05
   1.307331e+06   1.329043e+05
   1.754058e+05   5.342237e+05
  -6.417071e+05   3.075069e+05
  -3.596787e+05  -2.702329e+05
   6.233189e+05  -4.851729e+05
   1.178554e+06   1.402732e+05
   6.016195e+05   1.215237e+06
  -6.767530e+05   1.678164e+06
  -1.531082e+06   8.343498e+05
  -1.256952e+06  -7.937372e+05
  -1.885930e+05  -1.821865e+06
   7.508888e+05  -1.342422e+06
   9.466298e+05   1.332707e+05
   4.814221e+05   1.196640e+06
  -1.618034e+05   1.012684e+06
  -5.487475e+05   1.102140e+05
  -5.144059e+05  -3.926829e+05
  -2.142869e+05  -1.553846e+05
  -3.032366e+04   1.116873e+05
  -2.108028e+05  -2.639195e+05
  -4.855402e+05  -9.611757e+05
  -2.498454e+05  -1.100333e+06
   6.538828e+05  -4.084514e+05
   1.497580e+06   4.745372e+05
   1.346052e+06   8.477694e+05
   1.920570e+05   6.936406e+05
  -9.101792e+05   4.152127e+05
  -1.011900e+06   1.997875e+05
  -3.238681e+05  -2.563038e+04
   1.660689e+05  -2.221040e+05
  -1.888959e+04  -2.350980e+05
  -3.256902e+05  -1.284483e+05
  -2.759246e+04  -1.379915e+05
   7.307901e+05  -2.122906e+05
   1.047489e+06   3.456017e+04
   3.475219e+05   6.898848e+05
  -9.092361e+05   1.147202e+06
  -1.677981e+06   7.103867e+05
  -1.348653e+06  -4.748897e+05
  -2.464309e+05  -1.428201e+06
   7.658630e+05  -1.362603e+06
   1.059328e+06  -4.978596e+05
   6.669312e+05   2.691090e+05
   1.086851e+05   3.608551e+05
  -1.190339e+05   3.374266e+04
   6.418108e+04  -5.380243e+04
   3.261735e+05   3.557686e+05
   2.661492e+05   8.155574e+05
  -1.957017e+05   6.715399e+05
  -6.959401e+05  -1.619678e+05
  -7.071174e+05  -9.978883e+05
  -5.282178e+04  -1.033837e+06
   7.908540e+05  -1.957394e+05
   1.021347e+06   7.777815e+05
   3.111218e+05   1.096706e+06
  -7.305051e+05   6.408342e+05
  -1.101272e+06  -9.661041e+04
  -5.030403e+05  -5.860179e+05
   2.897932e+05  -6.358887e+05
   3.435926e+05  -3.574607e+05
  -2.936175e+05  -2.807131e+04
  -6.661558e+05   2.824292e+04
  -1.302910e+05  -3.024700e+05
   8.356845e+05  -6.846632e+05
   1.233689e+06  -5.695842e+05
   7.223170e+05   1.485308e+05
  -1.064853e+05   8.571953e+05
  -5.228184e+05   8.405893e+05
  -3.857041e+05   1.284807e+05
  -2.779428e+04  -5.009807e+05
   2.519300e+05  -4.131711e+05
   3.561192e+05   1.892877e+05
   2.460243e+05   5.845369e+05
  -6.633579e+04   3.942991e+05
  -3.917607e+05  -6.456031e+04
  -4.634932e+05  -2.584813e+05
  -2.431609e+05  -7.432221e+04
   1.396319e+04   1.208689e+05
   8.241166e+04  -1.899334e+04
   4.419279e+04  -3.810414e+05
   1.302518e+05  -5.110344e+05
   3.470695e+05  -1.472911e+05
   4.075833e+05   4.309472e+05
   8.509993e+04   6.594102e+05
  -4.328014e+05   2.949976e+05
  -6.415153e+05  -3.113967e+05
  -2.321348e+05  -5.947254e+05
   5.019441e+05  -3.590524e+05
   8.655714e+05   9.915854e+04
   4.685195e+05   3.844686e+05
  -2.985268e+05   3.724330e+05
  -6.348056e+05   1.902526e+05
  -2.224450e+05   1.067038e+04
   3.909031e+05  -3.590919e+04
   4.264958e+05   1.093412e+05
  -2.053121e+05   3.175674e+05
  -8.063058e+05   2.669966e+05
