
 $NMID
 id='ANONYMOUS ', fmtdat='(2E16.6)'
 volume=1.0
 tramp=1.0
 $END
   3.543114e+07  -7.253497e+05
   2.288351e+07   1.907443e+07
  -2.032711e+06   2.339337e+07
  -1.624807e+07   1.222602e+07
  -1.165599e+07  -1.464828e+06
   6.154675e+05  -6.170947e+06
   6.693906e+06  -1.219215e+06
   3.609603e+06   5.914043e+06
  -2.744604e+06   7.806743e+06
  -6.336505e+06   2.851271e+06
  -5.132184e+06  -4.147232e+06
  -7.283013e+05  -6.375863e+06
   2.920621e+06  -1.701298e+06
   2.248347e+06   4.696759e+06
  -2.153781e+06   5.669688e+06
  -5.461111e+06  -1.912602e+04
  -3.711361e+06  -6.643398e+06
   1.861487e+06  -8.167573e+06
   6.496699e+06  -4.094488e+06
   6.892535e+06   1.512263e+06
   3.690830e+06   4.760972e+06
   1.018884e+05   4.721967e+06
  -9.699389e+05   3.056418e+06
   6.369326e+05   2.183971e+06
   1.916807e+06   3.105182e+06
  -3.049573e+05   4.251466e+06
  -5.148163e+06   3.146744e+06
  -7.760123e+06  -3.511530e+05
  -4.893204e+06  -3.432329e+06
   7.910794e+05  -3.530879e+06
   3.695480e+06  -1.140020e+06
   1.768721e+06   1.202635e+06
  -1.868197e+06   1.659548e+06
  -3.340277e+06   9.442343e+04
  -1.973108e+06  -2.383159e+06
   3.372606e+05  -3.775672e+06
   1.720015e+06  -2.382139e+06
   1.504100e+06   8.684549e+05
   2.368607e+05   2.395789e+06
  -5.563728e+05   1.890261e+05
   3.470407e+05  -2.841580e+06
   2.057112e+06  -2.182205e+06
   2.043492e+06   1.894199e+06
  -6.577861e+05   4.102640e+06
  -3.561853e+06   1.095108e+06
  -3.235929e+06  -3.939990e+06
   6.587416e+05  -5.319848e+06
   4.780121e+06  -1.737377e+06
   5.468404e+06   2.915060e+06
   2.128071e+06   4.542541e+06
  -2.448322e+06   2.630896e+06
  -4.532361e+06  -5.175206e+05
  -2.595300e+06  -2.379634e+06
   1.266770e+06  -1.854226e+06
   3.232129e+06   2.072150e+05
   1.684526e+06   1.639649e+06
  -1.055686e+06   1.029251e+06
  -1.604334e+06  -6.375131e+05
   3.436036e+05  -1.142250e+06
   1.859132e+06   1.660527e+05
   6.618541e+05   1.671364e+06
  -2.120634e+06   1.623475e+06
  -3.501052e+06  -6.885557e+04
  -1.954820e+06  -2.305259e+06
   1.409848e+06  -3.859261e+06
   4.248806e+06  -3.607645e+06
   4.843135e+06  -1.025137e+06
   3.106182e+06   2.652921e+06
   5.354921e+05   4.773829e+06
  -1.001973e+06   3.931296e+06
  -9.747939e+05   1.703029e+06
  -5.725308e+05   6.470137e+05
  -1.086516e+06   1.053358e+06
  -2.245297e+06   9.737283e+05
  -2.630137e+06  -6.720634e+05
  -1.463970e+06  -2.435797e+06
   5.453743e+05  -2.252756e+06
   1.957433e+06  -4.152673e+04
   1.720440e+06   2.261587e+06
  -1.746929e+05   2.746738e+06
  -2.503127e+06   1.119070e+06
  -3.435643e+06  -1.343718e+06
  -2.142160e+06  -2.935295e+06
   1.602287e+05  -2.848734e+06
   1.453454e+06  -1.746650e+06
   1.317810e+06  -9.365709e+05
   1.291317e+06  -8.723947e+05
   2.511723e+06  -7.287745e+05
   3.850998e+06   4.158988e+05
   3.199689e+06   2.322845e+06
   2.278625e+05   3.747059e+06
  -2.957870e+06   3.587221e+06
  -3.951872e+06   1.756300e+06
  -2.351699e+06  -6.980015e+05
   9.995871e+04  -2.149983e+06
   1.270164e+06  -1.611673e+06
   4.768095e+05   1.526328e+05
  -1.089168e+06   1.148401e+06
  -1.651710e+06   3.420065e+05
  -6.851718e+05  -1.029903e+06
   5.804225e+05  -1.038768e+06
   6.178912e+05   3.139840e+05
  -6.269561e+05   1.002201e+06
  -1.718834e+06  -3.601909e+05
  -1.335720e+06  -2.645021e+06
   4.780516e+05  -3.499634e+06
   2.532310e+06  -1.961703e+06
   3.488636e+06   7.383651e+05
   2.689765e+06   2.620767e+06
   6.204334e+05   2.679420e+06
  -1.234858e+06   1.405356e+06
  -1.530911e+06   1.499525e+05
  -4.586124e+05  -3.768597e+04
   3.512639e+05   6.828594e+05
  -2.774103e+05   1.156431e+06
  -1.585301e+06   5.530872e+05
  -1.814737e+06  -6.346415e+05
  -4.605519e+05  -1.183828e+06
   1.032609e+06  -5.975003e+05
   9.606474e+05   3.904675e+05
  -6.856653e+05   7.119027e+05
  -2.212386e+06   2.642794e+03
  -1.972274e+06  -1.228236e+06
   3.267007e+04  -2.058830e+06
   2.154827e+06  -1.749105e+06
   2.610117e+06  -3.504777e+05
   1.132384e+06   1.077624e+06
  -7.697875e+05   1.280150e+06
  -1.293916e+06   1.688072e+05
  -1.230242e+05  -9.167844e+05
   1.363538e+06  -6.763566e+05
   1.620329e+06   6.264404e+05
   4.745252e+05   1.513201e+06
  -8.865430e+05   1.063273e+06
  -1.215617e+06  -1.019491e+05
  -3.662120e+05  -6.672796e+05
   6.567629e+05  -9.120959e+04
   6.634457e+05   9.420655e+05
  -5.496242e+05   1.303222e+06
  -1.867614e+06   4.814690e+05
  -1.876853e+06  -9.710369e+05
  -3.843537e+05  -1.897132e+06
   1.260224e+06  -1.544821e+06
   1.578643e+06  -2.756778e+05
   5.371783e+05   7.700801e+05
  -5.687736e+05   7.943082e+05
  -6.662596e+05   7.286471e+04
   3.935705e+04  -4.779448e+05
   5.679659e+05  -3.461893e+05
   3.429986e+05   9.963822e+04
  -3.026404e+05   1.344455e+05
  -5.629795e+05  -4.571459e+05
   5.808102e+04  -1.080781e+06
   1.229202e+06  -8.873356e+05
   1.942327e+06   3.305736e+05
   1.384903e+06   1.777535e+06
  -1.694119e+05   2.291625e+06
  -1.506371e+06   1.447541e+06
  -1.687214e+06  -1.169799e+04
  -9.739338e+05  -9.245930e+05
  -3.541285e+05  -8.466408e+05
  -3.208806e+05  -3.460382e+05
  -4.387055e+05  -2.250625e+05
  -7.571477e+04  -6.117853e+05
   7.548161e+05  -8.830359e+05
   1.378404e+06  -4.082945e+05
   1.104642e+06   6.874181e+05
  -1.382848e+05   1.496661e+06
  -1.607903e+06   1.121855e+06
  -2.161836e+06  -3.915566e+05
  -1.168005e+06  -1.921134e+06
   7.900845e+05  -2.219025e+06
   2.272887e+06  -1.088614e+06
   2.268725e+06   4.533939e+05
   1.092134e+06   1.233139e+06
  -8.360962e+04   1.040090e+06
  -4.649514e+05   6.217025e+05
  -2.575407e+05   6.857038e+05
  -1.730224e+05   1.101384e+06
  -5.739790e+05   1.123345e+06
  -1.142588e+06   2.867916e+05
  -1.236269e+06  -1.004404e+06
  -5.301605e+05  -1.772588e+06
   5.804390e+05  -1.353105e+06
   1.216129e+06  -4.066783e+04
   8.131914e+05   1.131856e+06
  -2.514493e+05   1.302887e+06
  -9.741007e+05   5.089411e+05
  -7.573111e+05  -4.687035e+05
  -2.005957e+04  -9.129929e+05
   3.408473e+05  -7.617727e+05
   1.343063e+04  -4.520323e+05
  -3.813383e+05  -3.411338e+05
  -4.260012e+04  -3.713114e+05
   1.019438e+06  -2.326958e+05
   1.861394e+06   2.501567e+05
   1.526529e+06   8.955999e+05
   7.737487e+04   1.273826e+06
  -1.361755e+06   1.058976e+06
  -1.671286e+06   3.531133e+05
  -8.227687e+05  -3.280262e+05
   1.865719e+05  -4.789023e+05
   4.458387e+05  -8.942981e+04
  -2.449940e+03   3.193497e+05
  -4.506390e+05   2.246970e+05
  -4.401825e+05  -3.165718e+05
  -1.550705e+05  -6.983707e+05
  -1.073821e+04  -4.523289e+05
  -1.386979e+05   1.526331e+05
  -3.286463e+05   3.536477e+05
  -2.784260e+05  -2.041053e+05
   1.650438e+05  -9.558279e+05
   8.241665e+05  -9.927603e+05
   1.167138e+06  -1.230472e+05
   7.040843e+05   8.479856e+05
  -3.738961e+05   9.885494e+05
  -1.112454e+06   2.459058e+05
  -6.800145e+05  -5.570711e+05
   6.276919e+05  -6.353125e+05
   1.532260e+06   2.071290e+04
   1.074338e+06   7.762887e+05
  -3.561699e+05   1.010691e+06
  -1.428575e+06   5.937907e+05
  -1.243275e+06  -9.965723e+04
  -1.782450e+05  -5.037968e+05
   5.977483e+05  -3.040050e+05
   3.371852e+05   2.435779e+05
  -5.840501e+05   4.547981e+05
  -1.104010e+06  -1.273827e+05
  -5.653318e+05  -1.135785e+06
   6.288180e+05  -1.574338e+06
   1.432097e+06  -7.901896e+05
   1.187365e+06   7.352355e+05
   1.961337e+05   1.710942e+06
  -6.906282e+05   1.276965e+06
  -8.948986e+05  -1.052913e+05
  -4.762255e+05  -1.118485e+06
   1.290531e+05  -9.621400e+05
   5.114153e+05  -1.159860e+05
   4.962113e+05   3.663278e+05
   2.122173e+05   1.483726e+05
   2.399952e+04  -1.090172e+05
   1.885117e+05   2.358925e+05
   4.628327e+05   8.929355e+05
   2.591967e+05   1.034926e+06
  -5.961499e+05   3.962809e+05
  -1.414077e+06  -4.285734e+05
  -1.285465e+06  -7.823380e+05
  -1.904751e+05  -6.470431e+05
   8.593833e+05  -3.976102e+05
   9.523462e+05  -2.025916e+05
   2.973574e+05   1.279253e+04
  -1.569852e+05   2.086996e+05
   3.085774e+04   2.285671e+05
   3.182557e+05   1.259248e+05
   2.250142e+04   1.290601e+05
  -6.959368e+05   2.001032e+05
  -9.812378e+05  -2.447148e+04
  -3.159257e+05  -6.381798e+05
   8.512674e+05  -1.076727e+06
   1.557019e+06  -6.771126e+05
   1.254052e+06   4.354074e+05
   2.410920e+05   1.338839e+06
  -7.001780e+05   1.283273e+06
  -9.869346e+05   4.700233e+05
  -6.291237e+05  -2.527012e+05
  -1.005187e+05  -3.362492e+05
   1.205532e+05  -2.367486e+04
  -5.727856e+04   6.019902e+04
  -3.162215e+05  -3.277749e+05
  -2.632477e+05  -7.633316e+05
   1.786355e+05  -6.290529e+05
   6.554868e+05   1.534518e+05
   6.649378e+05   9.357169e+05
   4.705592e+04   9.656294e+05
  -7.450475e+05   1.788368e+05
  -9.601870e+05  -7.293901e+05
  -2.952681e+05  -1.023697e+06
   6.792040e+05  -5.994676e+05
   1.027694e+06   8.192763e+04
   4.726111e+05   5.355017e+05
  -2.627073e+05   5.889771e+05
  -3.087039e+05   3.380705e+05
   2.854991e+05   2.945252e+04
   6.271327e+05  -3.091263e+04
   1.219719e+05   2.797234e+05
  -7.774052e+05   6.521853e+05
  -1.144111e+06   5.564158e+05
  -6.701276e+05  -1.218134e+05
   9.151235e+04  -8.008271e+05
   4.720230e+05  -7.911736e+05
   3.485779e+05  -1.186525e+05
   2.458668e+04   4.730261e+05
  -2.332135e+05   3.839433e+05
  -3.347789e+05  -1.836313e+05
  -2.349255e+05  -5.460253e+05
   5.934989e+04  -3.613650e+05
   3.669372e+05   6.086004e+04
   4.351911e+05   2.306984e+05
   2.298215e+05   6.137459e+04
  -1.083697e+04  -1.048877e+05
  -7.981410e+04   3.412066e+04
  -5.215846e+04   3.615698e+05
  -1.341595e+05   4.666687e+05
  -3.269845e+05   1.229309e+05
  -3.716325e+05  -4.094098e+05
  -6.882909e+04  -6.161244e+05
   4.071780e+05  -2.751632e+05
   5.970878e+05   2.912368e+05
   2.177091e+05   5.586266e+05
  -4.642661e+05   3.406309e+05
  -8.063039e+05  -8.814149e+04
  -4.401589e+05  -3.559245e+05
   2.751916e+05  -3.448989e+05
   5.894162e+05  -1.759999e+05
   2.006911e+05  -1.192134e+04
  -3.755009e+05   2.762212e+04
  -4.032574e+05  -1.101409e+05
   1.994697e+05  -3.046578e+05
   7.679808e+05  -2.549504e+05
