
 $NMID
 id='ANONYMOUS ', fmtdat='(2E16.6)'
 volume=1.0
 tramp=1.0
 $END
   5.845042e+07   1.079921e+06
   3.427540e+07   3.713607e+07
  -8.755575e+06   3.944688e+07
  -2.896090e+07   1.430264e+07
  -1.674000e+07  -7.913251e+06
   3.779649e+06  -9.550352e+06
   1.006454e+07   1.683211e+06
   2.467887e+06   1.017102e+07
  -6.696769e+06   9.306602e+06
  -9.975476e+06   1.706277e+06
  -7.063869e+06  -6.506494e+06
  -6.968357e+05  -8.811951e+06
   4.137925e+06  -2.794528e+06
   2.594942e+06   5.511567e+06
  -4.009580e+06   6.524598e+06
  -8.061566e+06  -1.617734e+06
  -4.322252e+06  -1.061704e+07
   4.176020e+06  -1.206976e+07
   1.056107e+07  -5.913101e+06
   1.117940e+07   2.280297e+06
   6.813759e+06   7.889036e+06
   6.011263e+05   9.094427e+06
  -3.257323e+06   6.314565e+06
  -2.195374e+06   2.657290e+06
   9.985053e+05   1.997467e+06
   2.993930e+05   4.139092e+06
  -5.443313e+06   4.471392e+06
  -9.838155e+06   4.876746e+05
  -7.209338e+06  -4.282091e+06
  -3.114699e+05  -5.241239e+06
   3.740825e+06  -2.708602e+06
   2.575528e+06  -1.371942e+05
  -4.250743e+05   8.682331e+05
  -2.137184e+06   5.516658e+05
  -2.221283e+06  -1.317005e+06
  -7.911135e+05  -3.947399e+06
   1.859686e+06  -3.993507e+06
   3.443600e+06   7.139822e+04
   1.827497e+06   3.810865e+06
  -8.550607e+05   2.117562e+06
  -4.218435e+05  -2.408167e+06
   2.508968e+06  -2.272934e+06
   2.421409e+06   3.358993e+06
  -2.726239e+06   6.273692e+06
  -7.320279e+06   8.586990e+05
  -5.183993e+06  -7.328106e+06
   2.197890e+06  -8.811299e+06
   7.731235e+06  -2.359767e+06
   7.007465e+06   4.696743e+06
   1.711630e+06   6.178953e+06
  -3.602434e+06   2.648509e+06
  -5.274842e+06  -1.701938e+06
  -2.330844e+06  -3.616766e+06
   2.567739e+06  -2.176090e+06
   4.629375e+06   1.073782e+06
   1.920032e+06   2.857044e+06
  -1.806565e+06   1.372435e+06
  -1.727253e+06  -1.086219e+06
   1.434970e+06  -8.523159e+05
   2.484957e+06   1.968858e+06
  -8.345796e+05   3.596997e+06
  -4.920358e+06   1.827596e+06
  -5.442203e+06  -1.586990e+06
  -2.274193e+06  -4.179077e+06
   1.914903e+06  -5.376449e+06
   5.136560e+06  -4.903452e+06
   6.349394e+06  -1.741580e+06
   4.695260e+06   3.270627e+06
   9.053355e+05   6.321554e+06
  -2.013976e+06   4.808863e+06
  -1.848507e+06   1.123975e+06
  -9.210046e+04  -3.507870e+05
   1.564635e+05   9.930703e+05
  -1.553406e+06   1.883980e+06
  -2.850196e+06   3.234366e+05
  -2.088748e+06  -1.894080e+06
  -8.090502e+04  -2.143063e+06
   1.508806e+06  -2.234799e+05
   1.659605e+06   2.062936e+06
  -2.499329e+03   2.956852e+06
  -2.816841e+06   1.687612e+06
  -4.576865e+06  -1.227303e+06
  -3.292301e+06  -3.896119e+06
   8.687907e+04  -4.382136e+06
   2.412036e+06  -2.789145e+06
   2.350758e+06  -1.119700e+06
   1.897256e+06  -6.306349e+05
   2.990541e+06  -4.122812e+05
   4.392046e+06   8.542986e+05
   3.484038e+06   2.859317e+06
   7.012678e+04   4.174520e+06
  -3.282822e+06   3.905433e+06
  -4.231729e+06   2.124595e+06
  -2.699777e+06  -4.167860e+05
  -3.022870e+05  -2.258995e+06
   1.104518e+06  -1.971764e+06
   5.781586e+05   2.786239e+04
  -1.105855e+06   1.322755e+06
  -1.949392e+06   3.829209e+05
  -9.394525e+05  -1.244715e+06
   5.228852e+05  -1.122836e+06
   3.982071e+05   4.012387e+05
  -1.128490e+06   6.370774e+05
  -1.845137e+06  -1.436743e+06
  -4.983493e+05  -3.595727e+06
   1.779083e+06  -3.360494e+06
   3.219561e+06  -9.497260e+05
   3.254155e+06   1.575120e+06
   2.184627e+06   2.797202e+06
   4.033728e+05   2.603749e+06
  -1.259924e+06   1.461547e+06
  -1.591571e+06   2.224292e+05
  -4.983875e+05  -5.322252e+04
   3.505770e+05   7.689662e+05
  -4.545371e+05   1.366191e+06
  -1.970159e+06   5.565056e+05
  -2.058801e+06  -9.577107e+05
  -3.530438e+05  -1.461109e+06
   1.204360e+06  -5.521969e+05
   8.729863e+05   4.767146e+05
  -8.807954e+05   4.763247e+05
  -2.169650e+06  -4.000415e+05
  -1.690488e+06  -1.396882e+06
   3.072555e+05  -1.952317e+06
   2.356208e+06  -1.611202e+06
   2.808961e+06  -2.256537e+05
   1.216255e+06   1.316418e+06
  -9.686043e+05   1.530658e+06
  -1.612622e+06   1.708837e+05
  -1.998387e+05  -1.115967e+06
   1.557420e+06  -7.293353e+05
   1.728046e+06   8.337739e+05
   2.905421e+05   1.683027e+06
  -1.142489e+06   9.455704e+05
  -1.259874e+06  -3.682142e+05
  -2.115968e+05  -8.056819e+05
   8.251693e+05  -3.606991e+04
   7.387042e+05   1.087043e+06
  -6.001605e+05   1.444348e+06
  -2.046622e+06   5.315021e+05
  -2.058150e+06  -1.093013e+06
  -3.580718e+05  -2.118188e+06
   1.498830e+06  -1.645627e+06
   1.759949e+06  -1.746919e+05
   4.839738e+05   8.953558e+05
  -6.876130e+05   7.972931e+05
  -6.293922e+05   7.065070e+04
   1.361850e+05  -3.353732e+05
   4.768877e+05  -1.779598e+05
   7.951518e+04   5.561826e+04
  -4.720441e+05  -1.267499e+05
  -4.971379e+05  -7.203951e+05
   2.523645e+05  -1.204305e+06
   1.425354e+06  -8.793906e+05
   2.106592e+06   4.575945e+05
   1.458808e+06   1.997729e+06
  -2.554656e+05   2.447216e+06
  -1.653862e+06   1.387083e+06
  -1.688114e+06  -1.682171e+05
  -8.256102e+05  -8.987303e+05
  -3.072078e+05  -6.161627e+05
  -5.093984e+05  -2.027669e+05
  -6.601896e+05  -3.422510e+05
  -8.241976e+04  -7.970757e+05
   9.121477e+05  -8.929342e+05
   1.465407e+06  -2.902118e+05
   1.030207e+06   7.403392e+05
  -2.887074e+05   1.447818e+06
  -1.757446e+06   1.041666e+06
  -2.260305e+06  -5.292806e+05
  -1.100588e+06  -2.150670e+06
   1.085412e+06  -2.382417e+06
   2.610799e+06  -9.864722e+05
   2.358007e+06   7.305114e+05
   9.110404e+05   1.369260e+06
  -2.400842e+05   9.216331e+05
  -3.766949e+05   4.847998e+05
  -5.028506e+04   7.711295e+05
  -1.070410e+05   1.351436e+06
  -7.081674e+05   1.315008e+06
  -1.330391e+06   3.090374e+05
  -1.347610e+06  -1.112754e+06
  -5.412659e+05  -1.927842e+06
   6.472217e+05  -1.448942e+06
   1.300157e+06   2.613732e+04
   7.957442e+05   1.324944e+06
  -4.371842e+05   1.409455e+06
  -1.205530e+06   3.669596e+05
  -8.104834e+05  -7.565388e+05
   1.690235e+05  -1.106472e+06
   5.876455e+05  -7.766875e+05
   1.041733e+05  -4.056452e+05
  -4.418852e+05  -3.398057e+05
  -5.996596e+04  -3.869045e+05
   1.178881e+06  -1.907593e+05
   2.102895e+06   3.752841e+05
   1.624070e+06   1.086070e+06
  -8.154790e+04   1.468031e+06
  -1.653358e+06   1.138396e+06
  -1.868515e+06   2.388676e+05
  -8.271980e+05  -5.404381e+05
   2.855451e+05  -5.853162e+05
   5.256364e+05  -1.440686e+04
   3.239300e+04   4.457640e+05
  -4.435441e+05   2.628613e+05
  -4.878389e+05  -3.526002e+05
  -2.713681e+05  -7.324054e+05
  -1.129169e+05  -4.879867e+05
  -1.361781e+05   7.890143e+04
  -2.673355e+05   2.752616e+05
  -2.715329e+05  -2.413211e+05
   1.434602e+05  -9.918543e+05
   9.268744e+05  -1.074325e+06
   1.412826e+06  -1.739782e+05
   8.814506e+05   9.397230e+05
  -4.368369e+05   1.173279e+06
  -1.298552e+06   3.495028e+05
  -7.423981e+05  -5.820105e+05
   7.261394e+05  -6.429088e+05
   1.596423e+06   1.310484e+05
   9.735922e+05   8.917725e+05
  -5.269326e+05   9.722355e+05
  -1.514797e+06   4.292507e+05
  -1.221452e+06  -2.270202e+05
  -1.160674e+05  -5.152292e+05
   6.639740e+05  -2.511714e+05
   3.941928e+05   3.124745e+05
  -5.872013e+05   5.388128e+05
  -1.204611e+06  -7.234397e+04
  -6.981070e+05  -1.195982e+06
   5.823522e+05  -1.737458e+06
   1.499518e+06  -9.086460e+05
   1.270675e+06   7.671357e+05
   1.953591e+05   1.811782e+06
  -7.601264e+05   1.288802e+06
  -9.283019e+05  -2.070873e+05
  -4.039788e+05  -1.212877e+06
   2.580030e+05  -9.615547e+05
   5.776137e+05  -6.703033e+04
   4.486309e+05   3.802538e+05
   1.421607e+05   1.312355e+05
   5.835863e+04  -8.808572e+04
   3.126946e+05   3.210247e+05
   5.198513e+05   9.919669e+05
   1.556235e+05   1.086508e+06
  -7.600399e+05   3.852919e+05
  -1.485826e+06  -4.824600e+05
  -1.262304e+06  -8.562990e+05
  -1.775858e+05  -7.151371e+05
   8.434696e+05  -4.238086e+05
   9.886149e+05  -1.682977e+05
   3.852796e+05   7.377465e+04
  -1.393095e+05   2.315027e+05
  -6.673203e+04   1.895281e+05
   2.368211e+05   7.634401e+04
   6.399529e+04   1.345233e+05
  -6.376326e+05   2.531701e+05
  -1.067973e+06  -5.028686e+03
  -4.871920e+05  -7.145683e+05
   8.267556e+05  -1.217903e+06
   1.753883e+06  -7.880590e+05
   1.477898e+06   4.246364e+05
   2.918456e+05   1.423946e+06
  -7.919267e+05   1.407306e+06
  -1.069961e+06   5.698662e+05
  -6.623353e+05  -2.161246e+05
  -1.511628e+05  -3.663008e+05
   4.227211e+04  -9.158193e+04
  -9.201226e+04  -8.620459e+03
  -2.869361e+05  -3.835817e+05
  -2.355995e+05  -8.205369e+05
   1.754439e+05  -6.988549e+05
   6.873131e+05   9.664727e+04
   7.766469e+05   9.431561e+05
   1.603815e+05   1.055817e+06
  -7.452528e+05   2.915525e+05
  -1.068723e+06  -6.970407e+05
  -3.814409e+05  -1.110698e+06
   7.192853e+05  -7.189313e+05
   1.156729e+06   6.355822e+04
   5.612033e+05   6.484983e+05
  -2.953774e+05   7.240226e+05
  -4.161500e+05   3.805217e+05
   2.186083e+05  -7.380631e+03
   6.516553e+05  -4.807157e+04
   1.612601e+05   3.203602e+05
  -8.372387e+05   6.872673e+05
  -1.306381e+06   5.236653e+05
  -8.076675e+05  -2.084250e+05
   9.346947e+04  -8.981687e+05
   5.904716e+05  -8.838549e+05
   4.690452e+05  -1.885162e+05
   7.617289e+04   4.739581e+05
  -2.363157e+05   4.633107e+05
  -3.590856e+05  -1.164355e+05
  -2.660481e+05  -5.851095e+05
   4.528897e+04  -4.645287e+05
   4.002886e+05   2.956487e+04
   4.944309e+05   3.064476e+05
   2.458143e+05   1.170719e+05
  -4.994044e+04  -1.789405e+05
  -8.089760e+04  -9.595765e+04
   6.044732e+04   3.419836e+05
   1.345379e+04   6.001979e+05
  -3.070466e+05   2.850204e+05
  -5.145939e+05  -3.473212e+05
  -2.219787e+05  -6.569677e+05
   3.976702e+05  -3.401449e+05
   7.014076e+05   2.594697e+05
   2.801008e+05   5.695002e+05
  -5.242064e+05   3.793497e+05
  -9.193254e+05  -5.723221e+04
  -4.999778e+05  -3.808077e+05
   2.978971e+05  -4.344590e+05
   6.598722e+05  -2.668870e+05
   2.815838e+05  -2.395045e+04
  -3.164065e+05   1.021465e+05
  -4.031986e+05  -2.265047e+04
   1.365566e+05  -2.769543e+05
   7.037986e+05  -2.868751e+05
