
 $NMID
 id='ANONYMOUS ', fmtdat='(2E16.6)'
 volume=1.0
 tramp=1.0
 $END
   2.014467e+07   1.302161e+06
   1.283968e+07   9.739347e+06
  -4.783336e+05   1.242728e+07
  -8.817448e+06   8.389648e+06
  -7.381133e+06   1.056131e+06
  -5.522352e+05  -3.623079e+06
   4.141729e+06  -2.052080e+06
   3.274427e+06   3.217285e+06
  -8.687780e+05   5.839310e+06
  -3.874611e+06   2.625776e+06
  -3.329819e+06  -2.851545e+06
  -2.843202e+05  -4.520935e+06
   2.151140e+06  -8.173847e+05
   1.637108e+06   3.862260e+06
  -1.247446e+06   4.410427e+06
  -3.465736e+06   3.882267e+05
  -2.480248e+06  -4.136696e+06
   1.102268e+06  -5.118838e+06
   4.077472e+06  -2.224066e+06
   3.934257e+06   1.526675e+06
   1.371994e+06   3.067695e+06
  -6.299160e+05   2.117492e+06
  -1.005716e+05   9.426807e+05
   1.810210e+06   1.525191e+06
   2.106677e+06   3.276600e+06
  -6.917042e+05   3.845667e+06
  -4.606807e+06   1.959713e+06
  -5.921079e+06  -1.108464e+06
  -3.061075e+06  -2.953729e+06
   1.452513e+06  -2.371984e+06
   3.398355e+06  -1.528397e+05
   1.243249e+06   1.816358e+06
  -2.342312e+06   1.897231e+06
  -3.575806e+06  -1.610440e+05
  -1.624589e+06  -2.722949e+06
   9.909746e+05  -3.348371e+06
   1.666970e+06  -1.268822e+06
   4.383514e+05   1.351737e+06
  -7.323890e+05   1.568778e+06
  -4.930997e+05  -8.020035e+05
   7.397631e+05  -2.768789e+06
   1.683986e+06  -1.784166e+06
   1.466348e+06   1.068549e+06
   1.333754e+05   2.415238e+06
  -1.354036e+06   6.994210e+05
  -1.553518e+06  -2.089790e+06
   2.595813e+05  -2.882158e+06
   2.902045e+06  -8.672787e+05
   3.870110e+06   2.004969e+06
   1.817715e+06   3.270092e+06
  -1.698200e+06   2.164443e+06
  -3.557196e+06  -8.472546e+04
  -2.267372e+06  -1.587266e+06
   5.745038e+05  -1.371439e+06
   2.128028e+06  -3.813601e+04
   1.251402e+06   9.443363e+05
  -6.261907e+05   6.693865e+05
  -1.316508e+06  -4.087612e+05
  -2.130252e+05  -1.071651e+06
   1.215111e+06  -6.247259e+05
   1.127984e+06   4.651224e+05
  -5.880529e+05   1.069849e+06
  -2.052813e+06   4.146097e+05
  -1.363955e+06  -1.226105e+06
   1.250638e+06  -2.596882e+06
   3.555041e+06  -2.354460e+06
   3.648276e+06  -2.850633e+05
   1.848214e+06   2.273079e+06
   2.315585e+04   3.530442e+06
  -5.983157e+05   2.958561e+06
  -4.682181e+05   1.693567e+06
  -6.990638e+05   1.061974e+06
  -1.592015e+06   1.004736e+06
  -2.410618e+06   3.952883e+05
  -2.266854e+06  -1.173645e+06
  -9.578160e+05  -2.508280e+06
   8.451200e+05  -2.079313e+06
   1.965132e+06   7.506644e+04
   1.499365e+06   2.147536e+06
  -3.389105e+05   2.341098e+06
  -2.143823e+06   6.154819e+05
  -2.457370e+06  -1.443110e+06
  -1.173816e+06  -2.294206e+06
   3.871382e+05  -1.784529e+06
   9.628246e+05  -9.225232e+05
   7.159522e+05  -6.167226e+05
   8.622194e+05  -7.983980e+05
   1.990102e+06  -6.777057e+05
   3.097303e+06   3.257831e+05
   2.576199e+06   1.925274e+06
   1.230022e+05   3.104730e+06
  -2.601834e+06   2.896837e+06
  -3.448798e+06   1.225436e+06
  -1.914879e+06  -8.542100e+05
   3.582866e+05  -1.877234e+06
   1.285000e+06  -1.229234e+06
   3.827820e+05   2.135804e+05
  -1.002200e+06   8.988860e+05
  -1.334347e+06   2.145641e+05
  -4.404129e+05  -8.485020e+05
   5.782056e+05  -8.728650e+05
   6.397740e+05   2.320378e+05
  -3.115396e+05   1.007387e+06
  -1.364815e+06   1.416027e+05
  -1.429908e+06  -1.862425e+06
  -1.017671e+05  -3.056197e+06
   1.900011e+06  -2.091778e+06
   3.117065e+06   3.513737e+05
   2.526489e+06   2.290506e+06
   5.704190e+05   2.413618e+06
  -1.133981e+06   1.173298e+06
  -1.339382e+06   4.229673e+04
  -3.861406e+05  -4.494739e+04
   2.843344e+05   5.721407e+05
  -2.089504e+05   8.999077e+05
  -1.233454e+06   4.118882e+05
  -1.447724e+06  -4.774163e+05
  -4.087611e+05  -9.201807e+05
   8.407872e+05  -5.102064e+05
   8.738150e+05   3.206137e+05
  -5.125910e+05   7.020443e+05
  -1.942972e+06   1.275462e+05
  -1.826780e+06  -1.046846e+06
  -4.530654e+04  -1.850439e+06
   1.856126e+06  -1.529399e+06
   2.218413e+06  -2.711768e+05
   9.125748e+05   8.826594e+05
  -6.439675e+05   9.756124e+05
  -9.993006e+05   8.603003e+04
  -3.142981e+04  -7.245767e+05
   1.136994e+06  -5.170833e+05
   1.348239e+06   5.124211e+05
   4.511109e+05   1.260043e+06
  -6.845562e+05   9.548243e+05
  -1.033737e+06   1.011436e+03
  -3.733853e+05  -5.217534e+05
   4.915615e+05  -7.609614e+04
   5.059211e+05   7.845866e+05
  -5.131309e+05   1.057406e+06
  -1.581606e+06   3.250807e+05
  -1.530350e+06  -8.747604e+05
  -2.747808e+05  -1.582521e+06
   1.058252e+06  -1.261318e+06
   1.314702e+06  -2.297625e+05
   4.724304e+05   6.351407e+05
  -4.684239e+05   6.780022e+05
  -6.108224e+05   5.184436e+04
  -1.192101e+04  -4.795829e+05
   5.402237e+05  -3.758004e+05
   4.288251e+05   9.739779e+04
  -1.686987e+05   2.182013e+05
  -4.908594e+05  -2.922479e+05
   5.559086e+03  -8.775700e+05
   1.021512e+06  -7.301714e+05
   1.616628e+06   3.090831e+05
   1.112479e+06   1.517900e+06
  -1.967496e+05   1.941875e+06
  -1.306329e+06   1.251524e+06
  -1.483105e+06   9.486746e+03
  -9.079141e+05  -8.554618e+05
  -3.266655e+05  -8.740708e+05
  -1.904783e+05  -4.041521e+05
  -2.606131e+05  -1.752795e+05
  -2.450055e+04  -4.540583e+05
   6.250414e+05  -7.362299e+05
   1.181679e+06  -3.608566e+05
   9.831306e+05   6.171222e+05
  -9.867189e+04   1.330820e+06
  -1.381726e+06   9.630445e+05
  -1.840173e+06  -3.607218e+05
  -9.846545e+05  -1.620770e+06
   6.402791e+05  -1.833853e+06
   1.874294e+06  -9.122657e+05
   1.929289e+06   3.470088e+05
   1.005981e+06   1.047026e+06
  -2.156166e+04   9.644389e+05
  -4.651213e+05   6.097156e+05
  -3.601193e+05   5.738649e+05
  -2.428042e+05   8.530985e+05
  -4.954806e+05   8.716599e+05
  -9.312245e+05   1.902013e+05
  -9.984864e+05  -8.863643e+05
  -3.933636e+05  -1.512233e+06
   5.332354e+05  -1.127356e+06
   1.031450e+06  -2.301322e+04
   6.757896e+05   9.321130e+05
  -1.826457e+05   1.078038e+06
  -7.532247e+05   4.699059e+05
  -6.045711e+05  -3.023088e+05
  -6.477244e+04  -6.976720e+05
   2.056012e+05  -6.351891e+05
  -2.257784e+04  -4.161336e+05
  -2.959043e+05  -3.223186e+05
  -1.386629e+04  -3.246484e+05
   8.289790e+05  -1.779300e+05
   1.509787e+06   2.438594e+05
   1.257816e+06   7.580727e+05
   8.935907e+04   1.020182e+06
  -1.103215e+06   8.287037e+05
  -1.385587e+06   2.984669e+05
  -6.984517e+05  -2.119741e+05
   1.416188e+05  -3.566705e+05
   3.521115e+05  -9.432728e+04
  -4.275062e+04   2.241110e+05
  -4.161093e+05   1.657888e+05
  -3.534326e+05  -2.829833e+05
  -5.246006e+04  -6.189910e+05
   5.971176e+04  -3.932216e+05
  -1.235820e+05   1.668595e+05
  -3.261024e+05   3.456098e+05
  -2.372995e+05  -1.716806e+05
   1.945651e+05  -8.243674e+05
   7.194441e+05  -8.004602e+05
   9.188738e+05  -2.162544e+04
   4.981229e+05   7.451410e+05
  -3.496998e+05   7.655338e+05
  -9.111702e+05   1.119113e+05
  -5.511382e+05  -5.105555e+05
   5.301733e+05  -5.301736e+05
   1.317332e+06   2.082814e+04
   9.667693e+05   6.586963e+05
  -2.619899e+05   8.887283e+05
  -1.229695e+06   5.530401e+05
  -1.098730e+06  -6.451314e+04
  -1.714058e+05  -4.415081e+05
   5.019467e+05  -2.707409e+05
   2.562716e+05   1.969014e+05
  -5.383201e+05   3.411777e+05
  -9.289498e+05  -1.858851e+05
  -3.917909e+05  -1.007742e+06
   6.482525e+05  -1.298402e+06
   1.274326e+06  -5.880666e+05
   9.847849e+05   6.839258e+05
   1.080197e+05   1.474540e+06
  -6.219162e+05   1.097729e+06
  -7.642989e+05  -7.542168e+04
  -4.126281e+05  -9.539180e+05
   8.137004e+04  -8.371404e+05
   4.190454e+05  -1.041780e+05
   4.502057e+05   3.297344e+05
   2.200969e+05   1.403163e+05
   5.715984e+03  -1.037151e+05
   8.922273e+04   1.837788e+05
   3.436817e+05   7.628736e+05
   2.435203e+05   8.916405e+05
  -4.586481e+05   3.226615e+05
  -1.199820e+06  -4.067444e+05
  -1.119519e+06  -6.978879e+05
  -1.472738e+05  -5.451404e+05
   7.865727e+05  -3.123056e+05
   8.304226e+05  -1.617982e+05
   2.136020e+05  -1.137746e+03
  -1.572087e+05   1.706151e+05
   7.205833e+04   2.150166e+05
   3.229671e+05   1.396215e+05
  -6.061472e+03   1.155723e+05
  -6.580058e+05   1.326026e+05
  -8.275552e+05  -7.188797e+04
  -1.659632e+05  -5.538283e+05
   8.162604e+05  -8.585035e+05
   1.315340e+06  -4.753136e+05
   9.867303e+05   4.542516e+05
   1.357726e+05   1.157951e+06
  -6.293894e+05   1.044058e+06
  -8.583030e+05   3.258206e+05
  -5.357615e+05  -2.664181e+05
  -4.958799e+04  -2.905835e+05
   1.530986e+05   1.022939e+04
  -2.905318e+04   8.279933e+04
  -2.790433e+05  -2.703849e+05
  -2.170393e+05  -6.541522e+05
   1.867211e+05  -5.172463e+05
   5.653036e+05   1.888791e+05
   5.023366e+05   8.583658e+05
  -5.520557e+04   8.235233e+05
  -6.773520e+05   7.750134e+04
  -7.763686e+05  -7.054174e+05
  -1.765508e+05  -8.824825e+05
   6.135725e+05  -4.454138e+05
   8.457081e+05   1.281457e+05
   3.462161e+05   4.418773e+05
  -2.485440e+05   4.423687e+05
  -2.343927e+05   2.583047e+05
   2.898335e+05   4.834144e+04
   5.466929e+05   4.667278e+03
   7.523129e+04   2.355565e+05
  -6.846662e+05   5.298007e+05
  -9.490845e+05   4.573852e+05
  -5.135552e+05  -9.946922e+04
   1.157208e+05  -6.586107e+05
   3.941814e+05  -6.288737e+05
   2.591346e+05  -4.725134e+04
  -2.009641e+04   4.249888e+05
  -2.256442e+05   2.925895e+05
  -2.849454e+05  -2.103366e+05
  -1.709647e+05  -4.755839e+05
   8.131533e+04  -2.680585e+05
   3.097446e+05   8.495177e+04
   3.418319e+05   1.864629e+05
   1.887986e+05   3.563817e+04
   2.035378e+04  -5.963463e+04
  -5.944729e+04   9.302853e+04
  -1.131291e+05   3.393707e+05
  -2.211802e+05   3.561495e+05
  -3.193595e+05   1.852440e+04
  -2.500229e+05  -4.201886e+05
   4.034764e+04  -5.426773e+05
   3.813358e+05  -1.987058e+05
   4.704658e+05   3.040423e+05
   1.420251e+05   5.031815e+05
  -3.967140e+05   2.616544e+05
  -6.584289e+05  -1.310348e+05
  -3.463752e+05  -3.234188e+05
   2.524089e+05  -2.498487e+05
   5.019221e+05  -8.454629e+04
   1.391586e+05   9.644722e+03
  -3.706606e+05  -1.971948e+04
  -3.624963e+05  -1.549691e+05
   2.160360e+05  -2.835874e+05
   7.252457e+05  -1.907657e+05
