
 $NMID
 id='ANONYMOUS ', fmtdat='(2E16.6)'
 volume=1.0
 tramp=1.0
 $END
   3.355337e+07   1.376087e+06
   2.048022e+07   1.921930e+07
  -3.220655e+06   2.189010e+07
  -1.593258e+07   1.069838e+07
  -1.088226e+07  -1.898075e+06
   8.700947e+05  -5.766878e+06
   6.350598e+06  -8.749746e+05
   3.145597e+06   5.723505e+06
  -2.923181e+06   7.270263e+06
  -6.113791e+06   2.409433e+06
  -4.661783e+06  -4.213700e+06
  -3.637303e+05  -6.120857e+06
   2.891511e+06  -1.459390e+06
   1.939570e+06   4.610603e+06
  -2.294921e+06   5.300979e+06
  -5.155624e+06  -2.835818e+05
  -3.167610e+06  -6.480197e+06
   2.196715e+06  -7.629959e+06
   6.387227e+06  -3.507919e+06
   6.449519e+06   1.852224e+06
   3.190986e+06   4.752971e+06
  -2.322480e+05   4.461657e+06
  -1.098474e+06   2.766715e+06
   5.686346e+05   2.047092e+06
   1.757382e+06   3.073331e+06
  -4.884723e+05   4.096078e+06
  -5.117526e+06   2.769047e+06
  -7.430241e+06  -7.440928e+05
  -4.491900e+06  -3.556272e+06
   9.800956e+05  -3.359186e+06
   3.647302e+06  -9.063501e+05
   1.669146e+06   1.284097e+06
  -1.883152e+06   1.573134e+06
  -3.260095e+06  -3.474589e+04
  -1.815675e+06  -2.415535e+06
   5.240376e+05  -3.648892e+06
   1.801827e+06  -2.177002e+06
   1.388026e+06   9.727670e+05
   5.197357e+04   2.326526e+06
  -5.855476e+05   1.053460e+05
   4.642893e+05  -2.750217e+06
   2.067164e+06  -1.996730e+06
   1.840883e+06   1.889127e+06
  -8.152817e+05   3.818932e+06
  -3.381336e+06   8.116111e+05
  -2.814353e+06  -3.900582e+06
   9.143062e+05  -4.969735e+06
   4.621483e+06  -1.376345e+06
   5.056144e+06   3.038519e+06
   1.820126e+06   4.416021e+06
  -2.445089e+06   2.399009e+06
  -4.295310e+06  -6.850772e+05
  -2.371863e+06  -2.371679e+06
   1.278362e+06  -1.695630e+06
   3.051531e+06   3.526953e+05
   1.517838e+06   1.632420e+06
  -1.051783e+06   9.218890e+05
  -1.505098e+06  -6.764570e+05
   3.462517e+05  -1.067436e+06
   1.724777e+06   2.123599e+05
   5.547903e+05   1.556021e+06
  -2.049846e+06   1.396528e+06
  -3.283805e+06  -2.323711e+05
  -1.726320e+06  -2.268651e+06
   1.553619e+06  -3.603567e+06
   4.260713e+06  -3.232120e+06
   4.689590e+06  -7.191488e+05
   2.820918e+06   2.715824e+06
   2.588775e+05   4.593578e+06
  -1.136228e+06   3.696481e+06
  -9.807849e+05   1.588063e+06
  -5.676678e+05   6.304508e+05
  -1.118470e+06   9.967990e+05
  -2.240382e+06   8.358487e+05
  -2.521825e+06  -7.885158e+05
  -1.304128e+06  -2.436601e+06
   6.334229e+05  -2.165327e+06
   1.902373e+06   3.576166e+04
   1.566743e+06   2.254839e+06
  -2.958721e+05   2.637636e+06
  -2.466069e+06   9.484323e+05
  -3.225801e+06  -1.475064e+06
  -1.882569e+06  -2.926791e+06
   3.201740e+05  -2.701594e+06
   1.480272e+06  -1.568130e+06
   1.290199e+06  -8.119663e+05
   1.260335e+06  -7.729152e+05
   2.429147e+06  -5.873581e+05
   3.663662e+06   5.713943e+05
   2.957958e+06   2.369858e+06
   4.962939e+04   3.602425e+06
  -3.002996e+06   3.308147e+06
  -3.883563e+06   1.503066e+06
  -2.233783e+06  -7.892043e+05
   2.009918e+05  -2.073518e+06
   1.306677e+06  -1.493713e+06
   4.551264e+05   1.722723e+05
  -1.101475e+06   1.055081e+06
  -1.600023e+06   2.509846e+05
  -6.051930e+05  -1.022968e+06
   6.070457e+05  -9.770499e+05
   5.857930e+05   3.194480e+05
  -6.238475e+05   9.343693e+05
  -1.607637e+06  -3.968862e+05
  -1.166735e+06  -2.559602e+06
   5.774215e+05  -3.318978e+06
   2.480708e+06  -1.785044e+06
   3.310507e+06   8.376442e+05
   2.482933e+06   2.623793e+06
   4.877539e+05   2.602679e+06
  -1.251224e+06   1.296814e+06
  -1.481546e+06   7.421509e+04
  -4.389177e+05  -5.727688e+04
   3.070325e+05   6.700815e+05
  -3.171302e+05   1.091997e+06
  -1.540774e+06   4.551200e+05
  -1.706938e+06  -6.869499e+05
  -3.898745e+05  -1.150692e+06
   1.013404e+06  -5.292827e+05
   9.085028e+05   4.109328e+05
  -6.781418e+05   6.552827e+05
  -2.118803e+06  -8.215582e+04
  -1.847316e+06  -1.255671e+06
   1.109303e+05  -1.975547e+06
   2.141574e+06  -1.588594e+06
   2.520517e+06  -2.221832e+05
   1.036213e+06   1.083511e+06
  -7.980463e+05   1.189014e+06
  -1.246331e+06   9.895773e+04
  -7.298861e+04  -8.853899e+05
   1.338304e+06  -5.867768e+05
   1.525553e+06   6.704706e+05
   3.923609e+05   1.469063e+06
  -8.900752e+05   9.829008e+05
  -1.158972e+06  -1.442334e+05
  -3.257845e+05  -6.507971e+05
   6.289612e+05  -5.766346e+04
   5.919197e+05   9.320481e+05
  -5.869359e+05   1.224534e+06
  -1.814337e+06   3.764179e+05
  -1.756598e+06  -1.017503e+06
  -2.828510e+05  -1.836905e+06
   1.277185e+06  -1.424410e+06
   1.525860e+06  -1.949845e+05
   4.833445e+05   7.608423e+05
  -5.784640e+05   7.382388e+05
  -6.461038e+05   4.367481e+04
   5.088804e+04  -4.586330e+05
   5.580937e+05  -3.154374e+05
   3.330219e+05   1.038108e+05
  -2.853547e+05   1.170944e+05
  -5.154874e+05  -4.564586e+05
   1.020249e+05  -1.028811e+06
   1.216482e+06  -7.948833e+05
   1.847292e+06   4.039575e+05
   1.247842e+06   1.767629e+06
  -2.649235e+05   2.192812e+06
  -1.508274e+06   1.326095e+06
  -1.620202e+06  -8.098649e+04
  -9.021031e+05  -9.303045e+05
  -3.111791e+05  -8.362018e+05
  -2.922821e+05  -3.563158e+05
  -4.028271e+05  -2.387465e+05
  -3.997400e+04  -5.872776e+05
   7.619806e+05  -8.116127e+05
   1.338748e+06  -3.322895e+05
   1.032563e+06   7.070962e+05
  -1.939798e+05   1.431262e+06
  -1.590446e+06   1.006959e+06
  -2.057280e+06  -4.703890e+05
  -1.036474e+06  -1.892106e+06
   8.533339e+05  -2.089522e+06
   2.223783e+06  -9.430368e+05
   2.155116e+06   5.301065e+05
   9.994302e+05   1.226417e+06
  -1.182686e+05   9.968491e+05
  -4.734691e+05   5.843651e+05
  -2.857910e+05   6.523427e+05
  -2.231921e+05   1.048200e+06
  -6.032350e+05   1.048031e+06
  -1.108215e+06   2.207858e+05
  -1.140760e+06  -1.020956e+06
  -4.289901e+05  -1.725919e+06
   6.183819e+05  -1.273381e+06
   1.168615e+06   1.385321e+04
   7.290629e+05   1.119215e+06
  -2.965095e+05   1.235603e+06
  -9.496842e+05   4.453689e+05
  -6.992725e+05  -4.776461e+05
   2.047999e+04  -8.692756e+05
   3.546380e+05  -7.114012e+05
   2.867452e+04  -4.337168e+05
  -3.503178e+05  -3.471764e+05
  -2.343792e+04  -3.594281e+05
   9.860943e+05  -1.759163e+05
   1.770728e+06   3.255658e+05
   1.422692e+06   9.261178e+05
   1.845514e+04   1.219731e+06
  -1.351083e+06   9.500233e+05
  -1.616128e+06   2.652684e+05
  -7.721665e+05  -3.455588e+05
   2.007587e+05  -4.471306e+05
   4.288164e+05  -6.644823e+04
  -2.138337e+04   3.048898e+05
  -4.456771e+05   1.956322e+05
  -4.077426e+05  -3.248135e+05
  -1.141739e+05  -6.819395e+05
   1.346443e+04  -4.380953e+05
  -1.383500e+05   1.428751e+05
  -3.311654e+05   3.299243e+05
  -2.575134e+05  -2.073458e+05
   2.028478e+05  -9.122234e+05
   8.360125e+05  -9.141160e+05
   1.122926e+06  -5.885039e+04
   6.328912e+05   8.495813e+05
  -4.066383e+05   9.282390e+05
  -1.079558e+06   1.796620e+05
  -6.279866e+05  -5.674486e+05
   6.298075e+05  -5.814235e+05
   1.469967e+06   8.569739e+04
   1.000346e+06   7.885179e+05
  -3.813259e+05   9.540762e+05
  -1.394663e+06   5.117439e+05
  -1.189993e+06  -1.459107e+05
  -1.512121e+05  -4.908791e+05
   5.853888e+05  -2.665649e+05
   3.105274e+05   2.486119e+05
  -5.844208e+05   4.098806e+05
  -1.056179e+06  -1.752358e+05
  -4.892451e+05  -1.120521e+06
   6.805112e+05  -1.485400e+06
   1.415437e+06  -6.930534e+05
   1.108211e+06   7.616522e+05
   1.111840e+05   1.653630e+06
  -7.193337e+05   1.197416e+06
  -8.533449e+05  -1.384246e+05
  -4.092641e+05  -1.093038e+06
   1.622063e+05  -9.172058e+05
   4.939653e+05  -8.896316e+04
   4.629112e+05   3.725416e+05
   2.006163e+05   1.505044e+05
   2.624388e+04  -1.037189e+05
   1.650332e+05   2.363405e+05
   4.023414e+05   8.788873e+05
   2.063159e+05   1.003684e+06
  -5.861809e+05   3.513616e+05
  -1.339699e+06  -4.750042e+05
  -1.202595e+06  -8.068322e+05
  -1.535012e+05  -6.290888e+05
   8.464894e+05  -3.450330e+05
   9.240543e+05  -1.534979e+05
   2.813653e+05   2.604735e+04
  -1.615712e+05   1.941230e+05
   2.373305e+04   2.199806e+05
   3.048093e+05   1.342420e+05
   1.456416e+04   1.260960e+05
  -6.822832e+05   1.623201e+05
  -9.418733e+05  -6.944351e+04
  -2.689742e+05  -6.310704e+05
   8.718048e+05  -9.963958e+05
   1.526535e+06  -5.751251e+05
   1.182350e+06   4.810668e+05
   1.696423e+05   1.298998e+06
  -7.312580e+05   1.198867e+06
  -9.713405e+05   4.040366e+05
  -5.948130e+05  -2.728624e+05
  -7.970900e+04  -3.286249e+05
   1.214443e+05  -1.767697e+04
  -5.472269e+04   5.655373e+04
  -2.895086e+05  -3.268798e+05
  -2.195279e+05  -7.440392e+05
   2.014488e+05  -5.960799e+05
   6.252862e+05   1.789102e+05
   5.961077e+05   9.332406e+05
  -2.836910e+03   9.327602e+05
  -7.287766e+05   1.363328e+05
  -8.906994e+05  -7.486834e+05
  -2.344956e+05  -9.988163e+05
   6.826771e+05  -5.428702e+05
   9.828071e+05   1.281383e+05
   4.257515e+05   5.354290e+05
  -2.816067e+05   5.505899e+05
  -3.098522e+05   3.077277e+05
   2.769462e+05   4.015304e+04
   6.051254e+05  -1.055492e+03
   1.028148e+05   2.746743e+05
  -7.764958e+05   5.914630e+05
  -1.120405e+06   4.823271e+05
  -6.334453e+05  -1.479474e+05
   1.258846e+05  -7.643937e+05
   4.882932e+05  -7.351758e+05
   3.392635e+05  -9.334258e+04
   1.356889e+03   4.582157e+05
  -2.436645e+05   3.570551e+05
  -3.156527e+05  -1.943422e+05
  -2.003203e+05  -5.359210e+05
   7.640390e+04  -3.427070e+05
   3.506980e+05   7.656872e+04
   4.051215e+05   2.406027e+05
   2.165920e+05   6.793194e+04
  -2.508212e+03  -1.003221e+05
  -7.455322e+04   3.337847e+04
  -6.892808e+04   3.499018e+05
  -1.580745e+05   4.438626e+05
  -3.257206e+05   9.970896e+04
  -3.375037e+05  -4.167150e+05
  -3.343666e+04  -5.997075e+05
   4.064344e+05  -2.455034e+05
   5.600831e+05   3.106614e+05
   1.830209e+05   5.490566e+05
  -4.613421e+05   3.048476e+05
  -7.701979e+05  -1.243635e+05
  -4.058754e+05  -3.630280e+05
   2.820336e+05  -3.168139e+05
   5.759614e+05  -1.389764e+05
   1.917601e+05   4.525718e+01
  -3.669101e+05   9.724203e+03
  -3.862591e+05  -1.263661e+05
   2.065315e+05  -2.874953e+05
   7.538304e+05  -2.129869e+05
