
 $NMID
 id='ANONYMOUS ', fmtdat='(2E16.6)'
 volume=1.0
 tramp=1.0
 $END
  -3.477222e+07  -2.985508e+04
  -2.187058e+07  -1.960368e+07
   2.844135e+06  -2.302719e+07
   1.636027e+07  -1.120757e+07
   1.121004e+07   2.146329e+06
  -9.663698e+05   5.999790e+06
  -6.520195e+06   7.355281e+05
  -3.123180e+06  -5.921240e+06
   3.043474e+06  -7.293417e+06
   6.234213e+06  -2.412726e+06
   4.831790e+06   4.123378e+06
   5.542816e+05   6.103174e+06
  -2.825418e+06   1.613241e+06
  -2.009771e+06  -4.440631e+06
   2.262900e+06  -5.265524e+06
   5.277414e+06   2.562866e+05
   3.368848e+06   6.549146e+06
  -2.057924e+06   7.855187e+06
  -6.417933e+06   3.837926e+06
  -6.712969e+06  -1.564160e+06
  -3.615640e+06  -4.718164e+06
  -8.041876e+04  -4.748769e+06
   1.141788e+06  -3.112378e+06
  -2.819512e+05  -2.084382e+06
  -1.608872e+06  -2.795433e+06
   3.080189e+05  -3.889465e+06
   4.815492e+06  -2.918909e+06
   7.318554e+06   3.841002e+05
   4.653015e+06   3.318098e+06
  -6.856738e+05   3.383251e+06
  -3.416481e+06   1.119589e+06
  -1.668346e+06  -1.011734e+06
   1.622373e+06  -1.404245e+06
   2.956754e+06  -5.468608e+04
   1.780976e+06   2.126152e+06
  -2.779925e+05   3.469099e+06
  -1.627797e+06   2.306322e+06
  -1.539069e+06  -7.392842e+05
  -3.285758e+05  -2.328258e+06
   5.291588e+05  -3.460023e+05
  -3.063984e+05   2.559835e+06
  -1.975680e+06   1.978219e+06
  -1.886662e+06  -1.917153e+06
   8.652205e+05  -3.979780e+06
   3.652651e+06  -9.426491e+05
   3.106923e+06   3.992161e+06
  -8.290035e+05   5.220522e+06
  -4.703337e+06   1.584769e+06
  -5.130212e+06  -2.944754e+06
  -1.840589e+06  -4.376183e+06
   2.412437e+06  -2.380218e+06
   4.235934e+06   6.722389e+05
   2.321372e+06   2.357092e+06
  -1.324059e+06   1.717504e+06
  -3.105494e+06  -3.278826e+05
  -1.544807e+06  -1.654207e+06
   1.061130e+06  -9.622137e+05
   1.476450e+06   6.602297e+05
  -4.453647e+05   1.023910e+06
  -1.778560e+06  -3.558338e+05
  -4.475549e+05  -1.743431e+06
   2.244604e+06  -1.491533e+06
   3.411210e+06   2.603180e+05
   1.796081e+06   2.331436e+06
  -1.406723e+06   3.666764e+06
  -4.049326e+06   3.362214e+06
  -4.608535e+06   9.266212e+05
  -2.957536e+06  -2.545770e+06
  -4.442558e+05  -4.541552e+06
   1.087286e+06  -3.683393e+06
   1.014748e+06  -1.497340e+06
   4.991329e+05  -4.862968e+05
   9.024587e+05  -9.337468e+05
   2.012994e+06  -9.328511e+05
   2.419727e+06   5.748348e+05
   1.352434e+06   2.214152e+06
  -4.894389e+05   2.045846e+06
  -1.758100e+06   1.198620e+04
  -1.529553e+06  -2.096655e+06
   1.982197e+05  -2.540723e+06
   2.349358e+06  -1.034630e+06
   3.238478e+06   1.283967e+06
   2.026657e+06   2.822033e+06
  -1.846949e+05   2.758828e+06
  -1.451905e+06   1.682349e+06
  -1.324641e+06   8.606068e+05
  -1.262831e+06   7.591964e+05
  -2.371569e+06   5.953125e+05
  -3.587522e+06  -4.944244e+05
  -2.927563e+06  -2.246644e+06
  -1.243511e+05  -3.491743e+06
   2.818492e+06  -3.273385e+06
   3.691902e+06  -1.573809e+06
   2.179055e+06   6.599627e+05
  -9.628388e+04   1.982540e+06
  -1.182045e+06   1.488494e+06
  -4.437824e+05  -1.386182e+05
   1.025503e+06  -1.051051e+06
   1.553882e+06  -2.867500e+05
   6.344307e+05   9.796041e+05
  -5.497433e+05   9.504051e+05
  -5.425163e+05  -3.123301e+05
   6.473598e+05  -8.795422e+05
   1.595081e+06   4.654438e+05
   1.105227e+06   2.554597e+06
  -6.322037e+05   3.205624e+06
  -2.439655e+06   1.664364e+06
  -3.177310e+06  -8.276306e+05
  -2.375154e+06  -2.482986e+06
  -4.968017e+05  -2.470549e+06
   1.164696e+06  -1.273301e+06
   1.415356e+06  -1.146677e+05
   4.244638e+05   4.490334e+04
  -3.101444e+05  -6.434888e+05
   2.935059e+05  -1.079570e+06
   1.505639e+06  -4.802940e+05
   1.681819e+06   6.490982e+05
   3.911507e+05   1.125679e+06
  -9.794513e+05   5.260808e+05
  -8.690881e+05  -3.880276e+05
   6.649917e+05  -6.219810e+05
   2.034611e+06   7.859288e+04
   1.765026e+06   1.186536e+06
  -9.718449e+04   1.885254e+06
  -2.036232e+06   1.554715e+06
  -2.426651e+06   2.602905e+05
  -1.029176e+06  -1.035382e+06
   7.505067e+05  -1.186798e+06
   1.223174e+06  -1.316093e+05
   1.032134e+05   8.641462e+05
  -1.285712e+06   6.013920e+05
  -1.489491e+06  -6.272966e+05
  -3.898891e+05  -1.418672e+06
   8.620993e+05  -9.508919e+05
   1.122466e+06   1.434187e+05
   3.095492e+05   6.361800e+05
  -6.233296e+05   6.752577e+04
  -6.009362e+05  -8.929641e+05
   5.343762e+05  -1.202348e+06
   1.743715e+06  -4.128575e+05
   1.725187e+06   9.398502e+05
   3.152820e+05   1.773256e+06
  -1.211169e+06   1.406849e+06
  -1.474718e+06   2.136153e+05
  -4.739294e+05  -7.315466e+05
   5.508289e+05  -7.203431e+05
   6.111723e+05  -5.247512e+04
  -5.608875e+04   4.272809e+05
  -5.226825e+05   2.912975e+05
  -2.891519e+05  -9.663506e+04
   2.987025e+05  -9.543169e+04
   5.051268e+05   4.559675e+05
  -9.113754e+04   1.005888e+06
  -1.165882e+06   7.931628e+05
  -1.796236e+06  -3.523197e+05
  -1.247565e+06  -1.681664e+06
   2.076893e+05  -2.119029e+06
   1.428113e+06  -1.296592e+06
   1.552312e+06   5.890512e+04
   8.624996e+05   8.680082e+05
   3.019717e+05   7.637419e+05
   3.045635e+05   3.088590e+05
   4.211070e+05   2.240692e+05
   6.051815e+04   5.809025e+05
  -7.252831e+05   7.995276e+05
  -1.284181e+06   3.388412e+05
  -9.958863e+05  -6.585213e+05
   1.704768e+05  -1.370071e+06
   1.514869e+06  -9.942923e+05
   1.990718e+06   4.142084e+05
   1.032165e+06   1.811873e+06
  -7.965202e+05   2.043313e+06
  -2.144328e+06   9.497482e+05
  -2.088137e+06  -4.871551e+05
  -9.638924e+05  -1.170158e+06
   1.134217e+05  -9.450712e+05
   4.327765e+05  -5.486627e+05
   2.299701e+05  -6.313224e+05
   1.722401e+05  -1.032005e+06
   5.607546e+05  -1.040762e+06
   1.073704e+06  -2.450092e+05
   1.128385e+06   9.570924e+05
   4.549368e+05   1.654898e+06
  -5.659451e+05   1.242350e+06
  -1.127770e+06   7.766026e+03
  -7.257103e+05  -1.075285e+06
   2.734352e+05  -1.204959e+06
   9.290992e+05  -4.377091e+05
   6.951573e+05   4.724576e+05
  -1.534625e+04   8.601105e+05
  -3.516283e+05   6.978199e+05
  -3.051393e+04   4.119141e+05
   3.494791e+05   3.200987e+05
   3.380044e+04   3.432627e+05
  -9.571131e+05   1.917213e+05
  -1.730486e+06  -2.756311e+05
  -1.397148e+06  -8.704798e+05
  -3.310206e+04  -1.193025e+06
   1.299682e+06  -9.574765e+05
   1.563510e+06  -2.827428e+05
   7.527509e+05   3.380610e+05
  -1.890919e+05   4.477207e+05
  -4.199540e+05   6.726828e+04
   3.747279e+03  -3.047467e+05
   4.173227e+05  -2.009007e+05
   4.030556e+05   3.024845e+05
   1.400244e+05   6.466889e+05
   1.089045e+04   4.181374e+05
   1.309513e+05  -1.306189e+05
   3.042123e+05  -3.107942e+05
   2.520448e+05   1.963292e+05
  -1.677096e+05   8.785327e+05
  -7.858614e+05   9.056195e+05
  -1.098113e+06   9.808217e+04
  -6.484585e+05  -7.999856e+05
   3.669830e+05  -9.196160e+05
   1.043779e+06  -2.160413e+05
   6.201657e+05   5.271273e+05
  -5.987569e+05   5.733347e+05
  -1.415322e+06  -5.911793e+04
  -9.639922e+05  -7.468868e+05
   3.639233e+05  -9.202840e+05
   1.335013e+06  -5.029958e+05
   1.140403e+06   1.285240e+05
   1.481150e+05   4.685021e+05
  -5.625574e+05   2.633849e+05
  -3.114528e+05  -2.365789e+05
   5.452999e+05  -4.146047e+05
   1.021339e+06   1.326271e+05
   5.104110e+05   1.059472e+06
  -6.030253e+05   1.449522e+06
  -1.337046e+06   7.098049e+05
  -1.084982e+06  -7.014702e+05
  -1.473699e+05  -1.586096e+06
   6.666342e+05  -1.162028e+06
   8.249490e+05   1.237462e+05
   4.099418e+05   1.047469e+06
  -1.499344e+05   8.835779e+05
  -4.793819e+05   9.277587e+04
  -4.446534e+05  -3.485454e+05
  -1.853677e+05  -1.399582e+05
  -2.779120e+04   9.813482e+04
  -1.814312e+05  -2.271339e+05
  -4.142700e+05  -8.387724e+05
  -2.084120e+05  -9.627412e+05
   5.715773e+05  -3.533902e+05
   1.298756e+06   4.263682e+05
   1.164777e+06   7.520159e+05
   1.618977e+05   6.051142e+05
  -7.959901e+05   3.506376e+05
  -8.833043e+05   1.645025e+05
  -2.821412e+05  -2.230114e+04
   1.465667e+05  -1.905798e+05
  -1.409614e+04  -2.081531e+05
  -2.818504e+05  -1.183773e+05
  -2.224115e+04  -1.191424e+05
   6.375404e+05  -1.744641e+05
   9.095465e+05   3.908504e+04
   2.948717e+05   5.980252e+05
  -7.999181e+05   9.858403e+05
  -1.461973e+06   6.043520e+05
  -1.165081e+06  -4.213557e+05
  -2.008497e+05  -1.242874e+06
   6.762122e+05  -1.178622e+06
   9.231775e+05  -4.230218e+05
   5.760818e+05   2.408937e+05
   9.096957e+04   3.133671e+05
  -1.030430e+05   2.485434e+04
   5.798585e+04  -4.815170e+04
   2.821542e+05   3.132488e+05
   2.249373e+05   7.127944e+05
  -1.756400e+05   5.813556e+05
  -6.019106e+05  -1.483813e+05
  -6.032646e+05  -8.728024e+05
  -3.579277e+04  -8.957108e+05
   6.870636e+05  -1.601523e+05
   8.779185e+05   6.852106e+05
   2.602615e+05   9.540078e+05
  -6.385333e+05   5.493220e+05
  -9.550411e+05  -9.236346e+04
  -4.336662e+05  -5.112237e+05
   2.545537e+05  -5.494470e+05
   3.001900e+05  -3.100873e+05
  -2.549685e+05  -3.013434e+04
  -5.791683e+05   1.790941e+04
  -1.107886e+05  -2.628647e+05
   7.328320e+05  -5.880820e+05
   1.078561e+06  -4.876252e+05
   6.276524e+05   1.317794e+05
  -9.906330e+04   7.435319e+05
  -4.596746e+05   7.281142e+05
  -3.332525e+05   1.102760e+05
  -1.806331e+04  -4.347094e+05
   2.212731e+05  -3.558225e+05
   3.054973e+05   1.687889e+05
   2.085144e+05   5.098891e+05
  -5.910850e+04   3.405604e+05
  -3.388427e+05  -5.989429e+04
  -4.019970e+05  -2.271644e+05
  -2.122348e+05  -6.605314e+04
   1.252089e+04   1.031527e+05
   7.580774e+04  -1.749087e+04
   4.477140e+04  -3.280471e+05
   1.169881e+05  -4.370258e+05
   2.990649e+05  -1.215224e+05
   3.461504e+05   3.760599e+05
   6.598280e+04   5.696203e+05
  -3.780266e+05   2.508470e+05
  -5.525115e+05  -2.752512e+05
  -1.950580e+05  -5.180669e+05
   4.387088e+05  -3.083114e+05
   7.497220e+05   9.271599e+04
   4.034871e+05   3.375494e+05
  -2.608697e+05   3.203038e+05
  -5.508265e+05   1.594800e+05
  -1.921656e+05   9.098874e+03
   3.392405e+05  -2.416059e+04
   3.673663e+05   1.010719e+05
  -1.838853e+05   2.726643e+05
  -7.045869e+05   2.212185e+05
