
 $NMID
 id='ANONYMOUS ', fmtdat='(2E16.6)'
 volume=1.0
 tramp=1.0
 $END
  -3.360581e+07  -3.099763e+06
  -1.915132e+07  -1.976490e+07
   4.231378e+06  -2.121390e+07
   1.579945e+07  -1.004758e+07
   1.034041e+07   1.828588e+06
  -9.360216e+05   5.453377e+06
  -6.045034e+06   8.979788e+05
  -3.033646e+06  -5.476142e+06
   2.747219e+06  -7.136239e+06
   5.952268e+06  -2.357248e+06
   4.619373e+06   4.354287e+06
   2.915273e+05   6.253849e+06
  -3.044239e+06   1.405927e+06
  -2.072821e+06  -4.771054e+06
   2.212767e+06  -5.361836e+06
   5.055933e+06   3.423908e+05
   3.015670e+06   6.519408e+06
  -2.381331e+06   7.553350e+06
  -6.556810e+06   3.282988e+06
  -6.471956e+06  -2.213359e+06
  -2.921515e+06  -5.080635e+06
   6.798944e+05  -4.477838e+06
   1.323451e+06  -2.437904e+06
  -8.040571e+05  -1.734718e+06
  -2.169572e+06  -3.126926e+06
   3.912144e+05  -4.416642e+06
   5.439744e+06  -2.973209e+06
   7.816367e+06   8.409510e+05
   4.587220e+06   3.822793e+06
  -1.208430e+06   3.594317e+06
  -4.004989e+06   9.695820e+05
  -1.920479e+06  -1.486781e+06
   1.918876e+06  -1.963006e+06
   3.571379e+06  -2.088036e+05
   2.122964e+06   2.574715e+06
  -5.107392e+05   3.990689e+06
  -2.011931e+06   2.232380e+06
  -1.468171e+06  -1.274371e+06
   1.509585e+05  -2.556771e+06
   8.433556e+05   3.491116e+04
  -3.832539e+05   3.040266e+06
  -2.084335e+06   2.113591e+06
  -1.789258e+06  -1.871319e+06
   8.661737e+05  -3.635157e+06
   3.250235e+06  -5.032691e+05
   2.533222e+06   4.033906e+06
  -1.135771e+06   4.834689e+06
  -4.701415e+06   1.191850e+06
  -5.099494e+06  -3.097832e+06
  -1.891591e+06  -4.419405e+06
   2.411116e+06  -2.460887e+06
   4.340804e+06   5.830965e+05
   2.438001e+06   2.289196e+06
  -1.238288e+06   1.634659e+06
  -3.015515e+06  -3.860984e+05
  -1.479547e+06  -1.609003e+06
   1.068393e+06  -8.842714e+05
   1.539769e+06   6.427121e+05
  -2.165486e+05   1.009876e+06
  -1.544674e+06  -1.240320e+05
  -4.858465e+05  -1.293812e+06
   1.948965e+06  -1.165913e+06
   3.138362e+06   2.756308e+05
   1.635709e+06   2.241563e+06
  -1.665039e+06   3.685522e+06
  -4.474239e+06   3.359852e+06
  -4.903080e+06   6.874477e+05
  -2.883875e+06  -2.919745e+06
  -2.160698e+05  -4.769234e+06
   1.105275e+06  -3.740826e+06
   8.373981e+05  -1.632838e+06
   4.742505e+05  -8.162522e+05
   1.216468e+06  -1.258609e+06
   2.494611e+06  -9.912496e+05
   2.798946e+06   8.342340e+05
   1.488987e+06   2.634578e+06
  -6.163342e+05   2.388933e+06
  -2.055955e+06   7.579554e+04
  -1.758912e+06  -2.321573e+06
   2.548051e+05  -2.793857e+06
   2.613336e+06  -1.008677e+06
   3.388010e+06   1.590127e+06
   1.888098e+06   3.096079e+06
  -4.407521e+05   2.762786e+06
  -1.571323e+06   1.512397e+06
  -1.283108e+06   7.574218e+05
  -1.227083e+06   7.980767e+05
  -2.463753e+06   6.661554e+05
  -3.786029e+06  -5.085022e+05
  -3.112602e+06  -2.387620e+06
  -1.385684e+05  -3.741764e+06
   3.060553e+06  -3.529401e+06
   4.061923e+06  -1.663415e+06
   2.392181e+06   8.132962e+05
  -1.775327e+05   2.234354e+06
  -1.377618e+06   1.615901e+06
  -4.927764e+05  -1.870327e+05
   1.143349e+06  -1.135594e+06
   1.659391e+06  -2.791673e+05
   6.277743e+05   1.073036e+06
  -6.182981e+05   1.049579e+06
  -6.297429e+05  -2.826097e+05
   5.440791e+05  -9.643198e+05
   1.559542e+06   3.065623e+05
   1.253373e+06   2.480858e+06
  -3.828898e+05   3.354248e+06
  -2.369343e+06   1.947103e+06
  -3.422108e+06  -6.738430e+05
  -2.719866e+06  -2.592682e+06
  -6.328449e+05  -2.698439e+06
   1.274667e+06  -1.404213e+06
   1.561219e+06  -1.199694e+05
   4.590244e+05   4.793707e+04
  -3.357620e+05  -6.888046e+05
   3.107784e+05  -1.123827e+06
   1.580473e+06  -4.836578e+05
   1.762083e+06   6.724529e+05
   4.209728e+05   1.164244e+06
  -1.031519e+06   5.724752e+05
  -9.650124e+05  -3.847647e+05
   6.487004e+05  -7.056288e+05
   2.185671e+06  -2.226746e+04
   1.987394e+06   1.207741e+06
  -1.338754e+04   2.055399e+06
  -2.165431e+06   1.733043e+06
  -2.615019e+06   3.080948e+05
  -1.092706e+06  -1.097235e+06
   8.162130e+05  -1.237158e+06
   1.286498e+06  -1.073343e+05
   7.691192e+04   9.257901e+05
  -1.381749e+06   6.366958e+05
  -1.595406e+06  -6.510842e+05
  -4.554791e+05  -1.496363e+06
   8.692560e+05  -1.040014e+06
   1.186625e+06   9.919927e+04
   3.567651e+05   6.441337e+05
  -6.435320e+05   6.400828e+04
  -6.336344e+05  -9.618434e+05
   5.892802e+05  -1.296029e+06
   1.892185e+06  -4.361298e+05
   1.858908e+06   1.022861e+06
   3.375876e+05   1.905304e+06
  -1.289607e+06   1.507817e+06
  -1.572762e+06   2.437149e+05
  -5.221439e+05  -7.674533e+05
   5.752918e+05  -7.811005e+05
   6.798412e+05  -7.297310e+04
  -1.381909e+04   4.821363e+05
  -5.617330e+05   3.747721e+05
  -3.776568e+05  -6.721042e+04
   2.521944e+05  -1.300447e+05
   5.309729e+05   4.358573e+05
  -7.236293e+04   1.054516e+06
  -1.237954e+06   8.573310e+05
  -1.932888e+06  -3.704652e+05
  -1.345351e+06  -1.810397e+06
   2.128760e+05  -2.296334e+06
   1.521212e+06  -1.435390e+06
   1.687448e+06   1.569716e+04
   9.961470e+05   9.275795e+05
   3.910502e+05   8.763639e+05
   3.276063e+05   3.972203e+05
   4.044198e+05   2.574288e+05
   4.054313e+04   6.060928e+05
  -7.628101e+05   8.625256e+05
  -1.376823e+06   3.966900e+05
  -1.112182e+06  -6.928806e+05
   1.349423e+05  -1.498179e+06
   1.617591e+06  -1.105184e+06
   2.159266e+06   4.233462e+05
   1.134963e+06   1.930709e+06
  -8.244008e+05   2.182374e+06
  -2.271604e+06   1.036742e+06
  -2.245937e+06  -4.731608e+05
  -1.090228e+06  -1.222166e+06
   6.304795e+04  -1.040673e+06
   4.647972e+05  -6.522905e+05
   3.007458e+05  -7.181622e+05
   2.325720e+05  -1.103814e+06
   6.124817e+05  -1.095574e+06
   1.149185e+06  -2.473919e+05
   1.216937e+06   1.040167e+06
   4.938657e+05   1.792289e+06
  -6.124244e+05   1.347928e+06
  -1.216516e+06   2.121709e+04
  -7.844570e+05  -1.137107e+06
   2.689993e+05  -1.280712e+06
   9.507048e+05  -4.825251e+05
   7.134388e+05   4.661206e+05
  -2.756339e+03   8.795279e+05
  -3.340684e+05   7.292257e+05
  -2.894425e+03   4.484770e+05
   3.781791e+05   3.599197e+05
   3.528647e+04   3.786401e+05
  -1.016099e+06   2.040260e+05
  -1.844959e+06  -3.003564e+05
  -1.500946e+06  -9.232525e+05
  -4.876295e+04  -1.251003e+06
   1.379430e+06  -1.007198e+06
   1.664064e+06  -3.199321e+05
   7.976315e+05   3.231320e+05
  -2.022733e+05   4.588615e+05
  -4.343968e+05   8.022500e+04
   2.893556e+04  -3.182120e+05
   4.663885e+05  -2.209976e+05
   4.334381e+05   3.301986e+05
   1.341810e+05   7.256981e+05
  -8.692853e+03   4.720862e+05
   1.309798e+05  -1.604825e+05
   3.304302e+05  -3.721562e+05
   2.751496e+05   2.056786e+05
  -1.852424e+05   9.684852e+05
  -8.505411e+05   9.752624e+05
  -1.171708e+06   6.918264e+04
  -6.751569e+05  -8.877619e+05
   4.133715e+05  -9.727413e+05
   1.131194e+06  -1.991378e+05
   6.747149e+05   5.801295e+05
  -6.360621e+05   6.219405e+05
  -1.531664e+06  -3.735302e+04
  -1.073000e+06  -7.728732e+05
   3.506797e+05  -9.985057e+05
   1.422367e+06  -5.887843e+05
   1.242590e+06   9.933356e+04
   1.793830e+05   5.023280e+05
  -5.955324e+05   2.965326e+05
  -3.236148e+05  -2.535391e+05
   6.105064e+05  -4.473318e+05
   1.118708e+06   1.617502e+05
   5.403117e+05   1.174170e+06
  -6.846881e+05   1.583781e+06
  -1.474357e+06   7.655578e+05
  -1.184758e+06  -7.689589e+05
  -1.651862e+05  -1.729270e+06
   7.099699e+05  -1.276659e+06
   8.880303e+05   1.123953e+05
   4.631275e+05   1.120241e+06
  -1.294115e+05   9.547835e+05
  -5.065541e+05   1.062703e+05
  -5.018119e+05  -3.682437e+05
  -2.228180e+05  -1.432959e+05
  -1.910141e+04   1.068503e+05
  -1.642052e+05  -2.533223e+05
  -4.395452e+05  -9.111724e+05
  -2.533420e+05  -1.032053e+06
   5.926959e+05  -3.710164e+05
   1.415637e+06   4.563149e+05
   1.286765e+06   7.972038e+05
   1.769022e+05   6.505166e+05
  -8.819329e+05   3.946301e+05
  -9.599733e+05   1.929356e+05
  -2.841053e+05  -2.450534e+04
   1.667046e+05  -2.108918e+05
  -4.386350e+04  -2.204111e+05
  -3.368171e+05  -1.227681e+05
  -1.686542e+04  -1.372747e+05
   7.220304e+05  -2.001670e+05
   9.908326e+05   5.061934e+04
   2.864191e+05   6.711593e+05
  -8.997660e+05   1.074936e+06
  -1.587104e+06   6.297193e+05
  -1.249671e+06  -4.914041e+05
  -2.125693e+05  -1.361652e+06
   7.354402e+05  -1.269336e+06
   1.014859e+06  -4.445124e+05
   6.385983e+05   2.716327e+05
   8.915799e+04   3.475973e+05
  -1.403670e+05   2.899475e+04
   4.477472e+04  -6.120448e+04
   3.112964e+05   3.263358e+05
   2.525765e+05   7.679391e+05
  -1.992231e+05   6.307387e+05
  -6.697144e+05  -1.727802e+05
  -6.537364e+05  -9.736008e+05
  -1.314626e+04  -9.902567e+05
   7.757890e+05  -1.634702e+05
   9.621260e+05   7.704015e+05
   2.673852e+05   1.047810e+06
  -7.108775e+05   5.841481e+05
  -1.033403e+06  -1.160009e+05
  -4.481793e+05  -5.522608e+05
   2.912039e+05  -5.776488e+05
   3.138819e+05  -3.190546e+05
  -3.012826e+05  -2.565194e+04
  -6.372942e+05   1.934677e+04
  -1.108871e+05  -2.877166e+05
   7.959915e+05  -6.410966e+05
   1.147211e+06  -5.299765e+05
   6.527579e+05   1.445970e+05
  -1.164973e+05   8.027047e+05
  -4.913454e+05   7.709298e+05
  -3.551987e+05   9.143616e+04
  -1.517835e+04  -4.883862e+05
   2.529812e+05  -3.795642e+05
   3.462482e+05   1.997794e+05
   2.236968e+05   5.580196e+05
  -8.159264e+04   3.590473e+05
  -3.736928e+05  -7.371258e+04
  -4.219435e+05  -2.412441e+05
  -2.223632e+05  -6.221752e+04
  -5.320220e+03   1.060662e+05
   6.072739e+04  -4.533056e+04
   6.379021e+04  -3.859411e+05
   1.754430e+05  -4.834803e+05
   3.605300e+05  -1.098697e+05
   3.697805e+05   4.475764e+05
   4.312509e+04   6.465191e+05
  -4.272518e+05   2.706185e+05
  -5.985268e+05  -3.211918e+05
  -2.077275e+05  -5.781045e+05
   4.754791e+05  -3.278584e+05
   8.120747e+05   1.185737e+05
   4.336438e+05   3.730590e+05
  -2.950115e+05   3.354826e+05
  -6.080426e+05   1.531060e+05
  -1.984203e+05  -3.865927e+03
   3.984613e+05  -2.669797e+04
   4.219143e+05   1.238919e+05
  -2.069350e+05   3.195152e+05
  -7.929103e+05   2.579147e+05
