
 $NMID
 id='ANONYMOUS ', fmtdat='(2E16.6)'
 volume=1.0
 tramp=1.0
 $END
   5.820737e+07  -2.724499e+04
   3.482613e+07   3.646577e+07
  -8.058930e+06   3.951886e+07
  -2.866840e+07   1.467949e+07
  -1.682227e+07  -7.721218e+06
   3.652832e+06  -9.598314e+06
   1.007175e+07   1.586803e+06
   2.570162e+06   1.012956e+07
  -6.585023e+06   9.327017e+06
  -9.919568e+06   1.809363e+06
  -7.115378e+06  -6.343245e+06
  -8.316870e+05  -8.714646e+06
   4.043089e+06  -2.852992e+06
   2.630528e+06   5.387494e+06
  -3.910871e+06   6.501929e+06
  -8.049571e+06  -1.504680e+06
  -4.458793e+06  -1.049311e+07
   3.963682e+06  -1.206970e+07
   1.039750e+07  -6.068847e+06
   1.116024e+07   2.043139e+06
   6.956194e+06   7.704418e+06
   8.087375e+05   9.065300e+06
  -3.141754e+06   6.404397e+06
  -2.231115e+06   2.707347e+06
   9.320906e+05   1.914119e+06
   3.617412e+05   4.024282e+06
  -5.255322e+06   4.495441e+06
  -9.684541e+06   6.683068e+05
  -7.215696e+06  -4.091918e+06
  -4.493095e+05  -5.170245e+06
   3.593385e+06  -2.758624e+06
   2.521064e+06  -2.396802e+05
  -3.605855e+05   7.854633e+05
  -2.019793e+06   5.552288e+05
  -2.172531e+06  -1.210575e+06
  -8.702214e+05  -3.832076e+06
   1.743713e+06  -3.998559e+06
   3.434435e+06  -4.732664e+04
   1.930505e+06   3.731427e+06
  -7.818993e+05   2.171198e+06
  -4.625712e+05  -2.312901e+06
   2.445835e+06  -2.263661e+06
   2.453837e+06   3.313146e+06
  -2.638359e+06   6.305593e+06
  -7.317826e+06   9.945932e+05
  -5.310752e+06  -7.212166e+06
   2.040816e+06  -8.826709e+06
   7.648074e+06  -2.485860e+06
   7.010008e+06   4.558552e+06
   1.759571e+06   6.103431e+06
  -3.543225e+06   2.655476e+06
  -5.234845e+06  -1.641546e+06
  -2.334652e+06  -3.570728e+06
   2.536279e+06  -2.199058e+06
   4.618520e+06   1.005507e+06
   1.946302e+06   2.820173e+06
  -1.776271e+06   1.393522e+06
  -1.715983e+06  -1.059948e+06
   1.448180e+06  -8.608906e+05
   2.519372e+06   1.962776e+06
  -7.986823e+05   3.644381e+06
  -4.908864e+06   1.913124e+06
  -5.457729e+06  -1.514656e+06
  -2.325646e+06  -4.135903e+06
   1.801007e+06  -5.355278e+06
   4.977564e+06  -4.926978e+06
   6.238153e+06  -1.837728e+06
   4.709817e+06   3.137077e+06
   1.005622e+06   6.229725e+06
  -1.940901e+06   4.784817e+06
  -1.846497e+06   1.113468e+06
  -9.551985e+04  -3.967345e+05
   2.170630e+05   9.380784e+05
  -1.446843e+06   1.882883e+06
  -2.769700e+06   3.960474e+05
  -2.077641e+06  -1.790694e+06
  -1.275265e+05  -2.074906e+06
   1.448539e+06  -2.326298e+05
   1.637576e+06   1.991206e+06
   4.215581e+04   2.895852e+06
  -2.736100e+06   1.712662e+06
  -4.535252e+06  -1.118708e+06
  -3.333619e+06  -3.788963e+06
  -1.115393e+03  -4.350772e+06
   2.346008e+06  -2.820802e+06
   2.327237e+06  -1.151939e+06
   1.880125e+06  -6.403740e+05
   2.947388e+06  -4.325770e+05
   4.336804e+06   7.943153e+05
   3.461891e+06   2.774453e+06
   1.168048e+05   4.102629e+06
  -3.173799e+06   3.875081e+06
  -4.117650e+06   2.145676e+06
  -2.652663e+06  -3.576767e+05
  -3.403135e+05  -2.200636e+06
   1.042696e+06  -1.951650e+06
   5.670439e+05   1.309938e+04
  -1.063402e+06   1.313149e+06
  -1.913627e+06   4.041469e+05
  -9.480259e+05  -1.210183e+06
   4.944184e+05  -1.105670e+06
   3.858703e+05   3.967843e+05
  -1.126735e+06   6.303798e+05
  -1.849561e+06  -1.429088e+06
  -5.111275e+05  -3.570757e+06
   1.763134e+06  -3.328117e+06
   3.190476e+06  -9.345890e+05
   3.207179e+06   1.546597e+06
   2.147906e+06   2.730012e+06
   4.113869e+05   2.542620e+06
  -1.215587e+06   1.445576e+06
  -1.554476e+06   2.393825e+05
  -4.899039e+05  -4.635814e+04
   3.529978e+05   7.517158e+05
  -4.325105e+05   1.353768e+06
  -1.936791e+06   5.743846e+05
  -2.041145e+06  -9.224820e+05
  -3.625862e+05  -1.439119e+06
   1.179932e+06  -5.547691e+05
   8.566333e+05   4.623681e+05
  -8.699278e+05   4.692787e+05
  -2.132717e+06  -3.862446e+05
  -1.659214e+06  -1.361078e+06
   2.936820e+05  -1.913474e+06
   2.297882e+06  -1.599242e+06
   2.755133e+06  -2.502265e+05
   1.212465e+06   1.282237e+06
  -9.332415e+05   1.522443e+06
  -1.588567e+06   1.919893e+05
  -2.154224e+05  -1.095759e+06
   1.521884e+06  -7.366697e+05
   1.707834e+06   8.029458e+05
   2.981064e+05   1.653783e+06
  -1.120527e+06   9.374243e+05
  -1.243614e+06  -3.569796e+05
  -2.119163e+05  -7.949048e+05
   8.149720e+05  -4.558359e+04
   7.405643e+05   1.059364e+06
  -5.700513e+05   1.425887e+06
  -2.001744e+06   5.481327e+05
  -2.034691e+06  -1.047364e+06
  -3.769891e+05  -2.077148e+06
   1.455515e+06  -1.634940e+06
   1.728858e+06  -1.896471e+05
   4.833646e+05   8.767001e+05
  -6.686734e+05   7.896988e+05
  -6.128837e+05   7.496096e+04
   1.370703e+05  -3.252373e+05
   4.641169e+05  -1.696119e+05
   6.569001e+04   5.762766e+04
  -4.763355e+05  -1.264121e+05
  -4.969848e+05  -7.119830e+05
   2.393511e+05  -1.189987e+06
   1.392697e+06  -8.793432e+05
   2.074524e+06   4.262677e+05
   1.456156e+06   1.945108e+06
  -2.233238e+05   2.403973e+06
  -1.609552e+06   1.374700e+06
  -1.655712e+06  -1.529303e+05
  -8.097734e+05  -8.718063e+05
  -2.997292e+05  -5.898813e+05
  -5.052659e+05  -1.820451e+05
  -6.615976e+05  -3.275269e+05
  -9.379834e+04  -7.863789e+05
   8.887119e+05  -8.869277e+05
   1.435990e+06  -2.964584e+05
   1.013149e+06   7.165848e+05
  -2.742252e+05   1.419829e+06
  -1.715179e+06   1.037348e+06
  -2.222919e+06  -4.966453e+05
  -1.101589e+06  -2.102162e+06
   1.044469e+06  -2.354782e+06
   2.558784e+06  -9.959817e+05
   2.323356e+06   6.986532e+05
   9.006276e+05   1.338773e+06
  -2.342796e+05   9.019160e+05
  -3.621914e+05   4.699741e+05
  -2.964652e+04   7.534385e+05
  -8.129088e+04   1.331848e+06
  -6.795164e+05   1.304770e+06
  -1.304988e+06   3.218686e+05
  -1.336909e+06  -1.075375e+06
  -5.541598e+05  -1.885329e+06
   6.176921e+05  -1.429258e+06
   1.276521e+06   1.243438e+04
   7.959605e+05   1.295508e+06
  -4.178123e+05   1.391562e+06
  -1.187975e+06   3.708573e+05
  -8.094696e+05  -7.422714e+05
   1.571348e+05  -1.096378e+06
   5.765925e+05  -7.719573e+05
   1.024864e+05  -3.976930e+05
  -4.383472e+05  -3.259336e+05
  -6.397269e+04  -3.778835e+05
   1.158396e+06  -2.011183e+05
   2.073396e+06   3.439898e+05
   1.608151e+06   1.050236e+06
  -6.634605e+04   1.448221e+06
  -1.614985e+06   1.141042e+06
  -1.835339e+06   2.533092e+05
  -8.195660e+05  -5.286068e+05
   2.747206e+05  -5.822745e+05
   5.189403e+05  -1.831291e+04
   4.096441e+04   4.402298e+05
  -4.295403e+05   2.633512e+05
  -4.836856e+05  -3.398745e+05
  -2.792094e+05  -7.118850e+05
  -1.210480e+05  -4.750643e+05
  -1.338366e+05   7.530470e+04
  -2.574279e+05   2.671360e+05
  -2.686369e+05  -2.347797e+05
   1.276578e+05  -9.723131e+05
   8.970980e+05  -1.066301e+06
   1.388998e+06  -1.933188e+05
   8.818820e+05   9.090805e+05
  -4.128388e+05   1.161357e+06
  -1.271517e+06   3.646563e+05
  -7.354359e+05  -5.605469e+05
   7.070309e+05  -6.389952e+05
   1.567414e+06   1.141188e+05
   9.596620e+05   8.685692e+05
  -5.129509e+05   9.583750e+05
  -1.483719e+06   4.308235e+05
  -1.198476e+06  -2.147521e+05
  -1.165877e+05  -5.043327e+05
   6.504822e+05  -2.519387e+05
   3.928464e+05   3.029296e+05
  -5.663942e+05   5.369231e+05
  -1.181593e+06  -5.286553e+04
  -7.027457e+05  -1.161199e+06
   5.445720e+05  -1.711019e+06
   1.456271e+06  -9.114132e+05
   1.254969e+06   7.355866e+05
   2.130055e+05   1.773511e+06
  -7.318348e+05   1.270302e+06
  -9.135443e+05  -1.960725e+05
  -4.070908e+05  -1.187107e+06
   2.474698e+05  -9.457147e+05
   5.679854e+05  -7.115577e+04
   4.409228e+05   3.685408e+05
   1.369023e+05   1.275793e+05
   5.808544e+04  -8.659833e+04
   3.166239e+05   3.113667e+05
   5.237896e+05   9.671437e+05
   1.605627e+05   1.065083e+06
  -7.463087e+05   3.881798e+05
  -1.462174e+06  -4.561897e+05
  -1.243993e+06  -8.271340e+05
  -1.823838e+05  -7.004800e+05
   8.186307e+05  -4.243085e+05
   9.669999e+05  -1.746117e+05
   3.827329e+05   6.862139e+04
  -1.323533e+05   2.284373e+05
  -6.837805e+04   1.864957e+05
   2.276057e+05   7.171042e+04
   6.598666e+04   1.301139e+05
  -6.167855e+05   2.554732e+05
  -1.047483e+06   9.562376e+03
  -4.933911e+05  -6.927229e+05
   7.906328e+05  -1.205309e+06
   1.712162e+06  -7.989145e+05
   1.459071e+06   3.934232e+05
   3.050207e+05   1.391453e+06
  -7.600697e+05   1.391976e+06
  -1.041170e+06   5.750718e+05
  -6.504821e+05  -2.016839e+05
  -1.546927e+05  -3.566232e+05
   3.531244e+04  -9.121875e+04
  -9.315005e+04  -9.684676e+03
  -2.846552e+05  -3.749948e+05
  -2.393342e+05  -8.027338e+05
   1.621628e+05  -6.881137e+05
   6.730700e+05   8.374702e+04
   7.746342e+05   9.113233e+05
   1.753768e+05   1.031808e+06
  -7.228023e+05   2.981452e+05
  -1.056436e+06  -6.658470e+05
  -3.908038e+05  -1.083528e+06
   6.943745e+05  -7.168662e+05
   1.136789e+06   4.576812e+04
   5.621898e+05   6.308356e+05
  -2.792393e+05   7.177419e+05
  -4.064715e+05   3.808494e+05
   2.098219e+05  -9.716918e+03
   6.372182e+05  -5.542109e+04
   1.638069e+05   3.123269e+05
  -8.128221e+05   6.839037e+05
  -1.279314e+06   5.284088e+05
  -7.998984e+05  -1.956530e+05
   7.944814e+04  -8.834065e+05
   5.707340e+05  -8.772801e+05
   4.602257e+05  -1.952450e+05
   8.194533e+04   4.613670e+05
  -2.242953e+05   4.590913e+05
  -3.518542e+05  -1.063734e+05
  -2.687340e+05  -5.701124e+05
   3.623613e+04  -4.588617e+05
   3.924008e+05   2.238897e+04
   4.910350e+05   2.961938e+05
   2.435555e+05   1.138707e+05
  -5.418979e+04  -1.767784e+05
  -8.313665e+04  -9.866815e+04
   6.737072e+04   3.302244e+05
   2.928414e+04   5.891557e+05
  -2.924796e+05   2.887144e+05
  -5.117712e+05  -3.279124e+05
  -2.318895e+05  -6.381419e+05
   3.831428e+05  -3.395217e+05
   6.924145e+05   2.422190e+05
   2.830462e+05   5.527388e+05
  -5.100925e+05   3.796418e+05
  -9.036440e+05  -4.198036e+04
  -4.961378e+05  -3.665575e+05
   2.854471e+05  -4.324527e+05
   6.432184e+05  -2.737333e+05
   2.783212e+05  -2.886101e+04
  -3.038780e+05   1.052659e+05
  -3.924080e+05  -1.386450e+04
   1.283130e+05  -2.695706e+05
   6.813115e+05  -2.880735e+05
