
 $NMID
 id='ANONYMOUS ', fmtdat='(2E16.6)'
 volume=1.0
 tramp=1.0
 $END
  -5.888468e+07   1.543276e+06
  -3.603371e+07  -3.624421e+07
   7.370649e+06  -4.024505e+07
   2.869809e+07  -1.529271e+07
   1.706065e+07   7.666533e+06
  -3.593098e+06   9.764347e+06
  -1.015855e+07  -1.545472e+06
  -2.669106e+06  -1.018666e+07
   6.517061e+06  -9.391809e+06
   9.942150e+06  -1.927841e+06
   7.293939e+06   6.188548e+06
   1.065628e+06   8.685156e+06
  -3.967287e+06   3.004152e+06
  -2.755570e+06  -5.231472e+06
   3.787765e+06  -6.511233e+06
   8.121174e+06   1.388218e+06
   4.699171e+06   1.046061e+07
  -3.729697e+06   1.223225e+07
  -1.033394e+07   6.384538e+06
  -1.133923e+07  -1.735269e+06
  -7.302974e+06  -7.602833e+06
  -1.097660e+06  -9.233039e+06
   3.106047e+06  -6.641759e+06
   2.379439e+06  -2.728996e+06
  -8.762319e+05  -1.704702e+06
  -5.438911e+05  -3.885208e+06
   4.995253e+06  -4.667054e+06
   9.599426e+06  -1.032234e+06
   7.369902e+06   3.844646e+06
   7.056599e+05   5.189587e+06
  -3.413775e+06   2.956181e+06
  -2.532315e+06   4.486293e+05
   1.677383e+05  -7.000119e+05
   1.818470e+06  -6.592727e+05
   2.179607e+06   9.947489e+05
   1.084071e+06   3.715838e+06
  -1.589625e+06   4.103766e+06
  -3.540054e+06   2.264387e+05
  -2.150165e+06  -3.718267e+06
   7.334994e+05  -2.332482e+06
   6.064387e+05   2.188848e+06
  -2.348899e+06   2.280964e+06
  -2.516724e+06  -3.292896e+06
   2.590416e+06  -6.417066e+06
   7.462191e+06  -1.149032e+06
   5.565717e+06   7.197300e+06
  -1.883100e+06   8.986438e+06
  -7.655704e+06   2.702182e+06
  -7.097238e+06  -4.396609e+06
  -1.847551e+06  -6.035063e+06
   3.474604e+06  -2.683911e+06
   5.201897e+06   1.555051e+06
   2.343198e+06   3.518473e+06
  -2.529747e+06   2.240027e+06
  -4.654641e+06  -9.285327e+05
  -1.995203e+06  -2.803916e+06
   1.760275e+06  -1.440035e+06
   1.708806e+06   1.021700e+06
  -1.490543e+06   8.439263e+05
  -2.561117e+06  -2.017726e+06
   8.286300e+05  -3.754257e+06
   4.997595e+06  -2.016001e+06
   5.537897e+06   1.467860e+06
   2.409728e+06   4.137823e+06
  -1.639577e+06   5.409655e+06
  -4.774076e+06   5.069705e+06
  -6.157038e+06   2.047634e+06
  -4.832926e+06  -2.968847e+06
  -1.203260e+06  -6.177570e+06
   1.842711e+06  -4.790076e+06
   1.844153e+06  -1.072528e+06
   4.818709e+04   4.837906e+05
  -3.718065e+05  -9.050874e+05
   1.276853e+06  -1.973483e+06
   2.704428e+06  -5.760509e+05
   2.142394e+06   1.618259e+06
   2.565963e+05   2.001809e+06
  -1.352118e+06   2.941167e+05
  -1.647445e+06  -1.858429e+06
  -1.501004e+05  -2.831677e+06
   2.636828e+06  -1.806847e+06
   4.556901e+06   9.359267e+05
   3.470042e+06   3.678494e+06
   1.375516e+05   4.383077e+06
  -2.293870e+06   2.915070e+06
  -2.331056e+06   1.204365e+06
  -1.865849e+06   6.519115e+05
  -2.894134e+06   4.774042e+05
  -4.287137e+06  -6.818397e+05
  -3.473860e+06  -2.639649e+06
  -2.249618e+05  -4.020777e+06
   2.991877e+06  -3.892502e+06
   3.958518e+06  -2.250246e+06
   2.623701e+06   2.350613e+05
   4.420759e+05   2.138476e+06
  -9.343710e+05   1.965897e+06
  -5.621530e+05   1.782830e+04
   9.927508e+05  -1.326341e+06
   1.875458e+06  -4.556012e+05
   9.838391e+05   1.168239e+06
  -4.389620e+05   1.097875e+06
  -3.634700e+05  -3.803698e+05
   1.123391e+06  -6.059643e+05
   1.846375e+06   1.441495e+06
   5.156257e+05   3.542653e+06
  -1.740315e+06   3.262211e+06
  -3.131306e+06   8.977102e+05
  -3.130950e+06  -1.484640e+06
  -2.116889e+06  -2.595444e+06
  -4.580257e+05  -2.444453e+06
   1.136271e+06  -1.447123e+06
   1.507466e+06  -2.891029e+05
   4.808930e+05   3.124979e+04
  -3.658946e+05  -7.271396e+05
   3.964009e+05  -1.348243e+06
   1.901365e+06  -6.170139e+05
   2.033498e+06   8.654495e+05
   3.846738e+05   1.413253e+06
  -1.144901e+06   5.701407e+05
  -8.362078e+05  -4.297053e+05
   8.479511e+05  -4.570673e+05
   2.074428e+06   3.486447e+05
   1.622600e+06   1.283432e+06
  -2.519750e+05   1.852922e+06
  -2.198716e+06   1.609248e+06
  -2.685299e+06   3.163303e+05
  -1.224609e+06  -1.231079e+06
   8.794471e+05  -1.532031e+06
   1.568761e+06  -2.351232e+05
   2.507982e+05   1.077781e+06
  -1.473847e+06   7.676927e+05
  -1.692676e+06  -7.470346e+05
  -3.216047e+05  -1.611756e+06
   1.083423e+06  -9.313060e+05
   1.220978e+06   3.349257e+05
   2.138809e+05   7.780692e+05
  -8.066104e+05   6.342086e+04
  -7.593707e+05  -1.019887e+06
   5.137379e+05  -1.416182e+06
   1.943814e+06  -5.998717e+05
   2.025883e+06   9.652266e+05
   4.279018e+05   2.026402e+06
  -1.385778e+06   1.641833e+06
  -1.689814e+06   2.273875e+05
  -4.905906e+05  -8.480598e+05
   6.360935e+05  -7.871484e+05
   5.884213e+05  -9.233682e+04
  -1.317836e+05   3.043321e+05
  -4.341749e+05   1.623512e+05
  -3.818262e+04  -4.740200e+04
   4.822381e+05   1.360307e+05
   4.962416e+05   7.021449e+05
  -2.154627e+05   1.173897e+06
  -1.343725e+06   8.955202e+05
  -2.042840e+06  -3.617567e+05
  -1.481274e+06  -1.864365e+06
   1.499893e+05  -2.355387e+06
   1.532898e+06  -1.377886e+06
   1.610416e+06   1.119819e+05
   7.980902e+05   8.163479e+05
   3.062116e+05   5.382495e+05
   5.167844e+05   1.466797e+05
   6.748585e+05   3.104150e+05
   1.155846e+05   7.794727e+05
  -8.505405e+05   8.888847e+05
  -1.392121e+06   3.204940e+05
  -9.976750e+05  -6.679631e+05
   2.362133e+05  -1.380186e+06
   1.646183e+06  -1.051834e+06
   2.182076e+06   4.259951e+05
   1.127370e+06   2.028120e+06
  -9.702930e+05   2.333326e+06
  -2.485706e+06   1.035124e+06
  -2.284134e+06  -6.333872e+05
  -8.966773e+05  -1.283317e+06
   2.141702e+05  -8.691025e+05
   3.262384e+05  -4.537568e+05
  -1.650424e+04  -7.423135e+05
   3.106452e+04  -1.321539e+06
   6.330073e+05  -1.306918e+06
   1.275776e+06  -3.550697e+05
   1.342474e+06   1.012816e+06
   5.980323e+05   1.827948e+06
  -5.613273e+05   1.416113e+06
  -1.247350e+06   2.113794e+04
  -8.105635e+05  -1.251725e+06
   3.811576e+05  -1.373494e+06
   1.164177e+06  -3.813357e+05
   8.127902e+05   7.249215e+05
  -1.385779e+05   1.087864e+06
  -5.608040e+05   7.673608e+05
  -9.596750e+04   3.836795e+05
   4.420670e+05   3.025020e+05
   7.584562e+04   3.663417e+05
  -1.133978e+06   2.266628e+05
  -2.047233e+06  -2.822789e+05
  -1.602849e+06  -9.882865e+05
   3.607673e+04  -1.426618e+06
   1.561655e+06  -1.165106e+06
   1.792638e+06  -2.910909e+05
   8.111531e+05   5.090492e+05
  -2.590481e+05   5.842486e+05
  -5.108042e+05   2.593412e+04
  -5.661453e+04  -4.393195e+05
   4.078739e+05  -2.732662e+05
   4.849091e+05   3.184309e+05
   3.056022e+05   6.861338e+05
   1.431011e+05   4.614859e+05
   1.267012e+05  -6.960459e+04
   2.342783e+05  -2.595831e+05
   2.671567e+05   2.230597e+05
  -9.078821e+04   9.513667e+05
  -8.476670e+05   1.071110e+06
  -1.367617e+06   2.356618e+05
  -9.026889e+05  -8.646688e+05
   3.712947e+05  -1.158970e+06
   1.242266e+06  -4.040538e+05
   7.378376e+05   5.234286e+05
  -6.759936e+05   6.427105e+05
  -1.530455e+06  -7.269951e+04
  -9.475118e+05  -8.235678e+05
   4.847795e+05  -9.410875e+05
   1.433814e+06  -4.475364e+05
   1.166564e+06   1.833302e+05
   1.226206e+05   4.864065e+05
  -6.297021e+05   2.592412e+05
  -3.963754e+05  -2.889785e+05
   5.332830e+05  -5.478382e+05
   1.159060e+06   8.447903e+03
   7.324591e+05   1.111418e+06
  -4.699518e+05   1.694944e+06
  -1.391726e+06   9.427817e+05
  -1.249662e+06  -6.775514e+05
  -2.625363e+05  -1.724550e+06
   6.768954e+05  -1.256672e+06
   8.954747e+05   1.719797e+05
   4.246836e+05   1.148240e+06
  -2.234402e+05   9.245884e+05
  -5.554437e+05   8.160812e+04
  -4.344944e+05  -3.446512e+05
  -1.296708e+05  -1.171573e+05
  -5.706554e+04   8.345935e+04
  -3.296238e+05  -3.017413e+05
  -5.444260e+05  -9.324297e+05
  -1.785851e+05  -1.033029e+06
   7.288507e+05  -3.982398e+05
   1.440435e+06   4.020761e+05
   1.230490e+06   7.704402e+05
   1.975203e+05   6.808852e+05
  -7.792459e+05   4.406700e+05
  -9.362515e+05   1.964505e+05
  -3.823665e+05  -6.133613e+04
   1.194247e+05  -2.283794e+05
   7.038135e+04  -1.783997e+05
  -2.149048e+05  -5.657294e+04
  -7.249996e+04  -1.249756e+05
   5.845141e+05  -2.735127e+05
   1.025256e+06  -4.419264e+04
   5.183027e+05   6.655052e+05
  -7.269994e+05   1.209679e+06
  -1.657127e+06   8.401656e+05
  -1.451794e+06  -3.354829e+05
  -3.451330e+05  -1.349598e+06
   7.034673e+05  -1.387256e+06
   1.001208e+06  -6.011398e+05
   6.412982e+05   1.712956e+05
   1.665979e+05   3.445592e+05
  -2.357787e+04   9.726918e+04
   9.388309e+04   1.387040e+04
   2.847250e+05   3.604182e+05
   2.545734e+05   7.770441e+05
  -1.354917e+05   6.801776e+05
  -6.594415e+05  -5.401422e+04
  -7.923664e+05  -8.610076e+05
  -2.143989e+05  -1.005734e+06
   6.925525e+05  -3.241759e+05
   1.057874e+06   6.096430e+05
   4.222401e+05   1.048523e+06
  -6.558281e+05   7.299834e+05
  -1.118101e+06  -7.034217e+03
  -5.741667e+05  -6.065594e+05
   2.523283e+05  -7.192651e+05
   3.937723e+05  -3.862563e+05
  -1.964949e+05   2.042035e+04
  -6.191823e+05   7.575192e+04
  -1.727599e+05  -3.023292e+05
   7.733290e+05  -6.928029e+05
   1.241217e+06  -5.490383e+05
   7.962225e+05   1.742870e+05
  -4.972911e+04   8.698746e+05
  -5.387917e+05   8.783611e+05
  -4.534003e+05   2.106714e+05
  -9.963892e+04  -4.454662e+05
   2.038146e+05  -4.609030e+05
   3.477736e+05   8.508997e+04
   2.819501e+05   5.488847e+05
  -1.970993e+04   4.572874e+05
  -3.851510e+05  -6.132664e+03
  -4.916098e+05  -2.800462e+05
  -2.412620e+05  -1.086588e+05
   6.184151e+04   1.778150e+05
   8.307974e+04   1.067332e+05
  -8.784847e+04  -3.169349e+05
  -6.183217e+04  -5.856730e+05
   2.735338e+05  -3.065979e+05
   5.224219e+05   2.962468e+05
   2.611616e+05   6.170479e+05
  -3.603386e+05   3.485332e+05
  -6.907057e+05  -2.102626e+05
  -2.987466e+05  -5.288140e+05
   4.893458e+05  -3.883050e+05
   8.901710e+05   9.382088e+03
   4.991988e+05   3.428217e+05
  -2.661221e+05   4.379533e+05
  -6.233408e+05   2.951997e+05
  -2.776893e+05   3.761840e+04
   2.857714e+05  -1.200408e+05
   3.817496e+05  -8.250630e+03
  -1.091127e+05   2.631572e+05
  -6.453348e+05   3.050231e+05
