
 $NMID
 id='ANONYMOUS ', fmtdat='(2E16.6)'
 volume=1.0
 tramp=1.0
 $END
  -3.196953e+07   4.186382e+06
  -2.378667e+07  -1.492809e+07
  -1.198145e+06  -2.208180e+07
   1.434544e+07  -1.357810e+07
   1.201727e+07   8.834041e+04
   2.347204e+05   6.231069e+06
  -6.764412e+06   1.953824e+06
  -4.283287e+06  -5.632168e+06
   2.223257e+06  -8.115510e+06
   6.085791e+06  -3.393439e+06
   5.057749e+06   3.562857e+06
   9.348460e+05   5.933224e+06
  -2.529485e+06   1.644700e+06
  -2.091325e+06  -4.487408e+06
   1.948904e+06  -5.693711e+06
   5.324878e+06  -4.764875e+05
   4.064020e+06   6.008031e+06
  -1.077444e+06   7.859865e+06
  -5.615974e+06   4.314348e+06
  -6.258227e+06  -7.830633e+05
  -3.643866e+06  -3.741900e+06
  -7.541297e+05  -3.942753e+06
   1.027332e+05  -3.015158e+06
  -9.623712e+05  -2.709101e+06
  -1.580052e+06  -3.444540e+06
   6.030461e+05  -3.993355e+06
   4.824951e+06  -2.702891e+06
   7.075160e+06   3.696466e+05
   4.483082e+06   2.959021e+06
  -6.991309e+05   2.937955e+06
  -3.292139e+06   7.463441e+05
  -1.267818e+06  -1.240613e+06
   2.242313e+06  -1.304478e+06
   3.296825e+06   3.880478e+05
   1.540100e+06   2.490127e+06
  -6.121643e+05   3.387831e+06
  -1.421435e+06   2.063307e+06
  -1.009274e+06  -5.936031e+05
  -2.256883e+05  -1.817794e+06
   9.428913e+04   1.712368e+04
  -6.641164e+05   2.628030e+06
  -2.028677e+06   2.104319e+06
  -2.163723e+06  -1.674633e+06
   1.108042e+05  -4.128491e+06
   3.095963e+06  -1.732474e+06
   3.440626e+06   3.139196e+06
   4.719007e+04   5.030407e+06
  -4.223736e+06   2.014186e+06
  -5.359508e+06  -2.542065e+06
  -2.249746e+06  -4.400524e+06
   2.356826e+06  -2.683315e+06
   4.538891e+06   4.143451e+05
   2.707378e+06   2.340824e+06
  -1.085148e+06   1.982919e+06
  -3.141963e+06   5.466595e+04
  -1.793754e+06  -1.470679e+06
   9.046377e+05  -1.069091e+06
   1.609488e+06   6.131916e+05
  -3.140230e+05   1.364617e+06
  -2.109267e+06   1.090622e+05
  -1.165398e+06  -1.738400e+06
   1.745783e+06  -2.052926e+06
   3.484509e+06  -3.705406e+05
   2.151573e+06   2.032797e+06
  -1.168056e+06   3.600102e+06
  -3.913016e+06   3.326802e+06
  -4.411506e+06   9.955892e+05
  -2.823620e+06  -2.307397e+06
  -5.772063e+05  -4.390187e+06
   8.488550e+05  -3.880308e+06
   1.048511e+06  -1.868820e+06
   8.660863e+05  -6.199358e+05
   1.274528e+06  -7.058284e+05
   2.114275e+06  -5.711605e+05
   2.275667e+06   8.560799e+05
   1.107920e+06   2.365932e+06
  -7.383885e+05   2.037570e+06
  -1.916704e+06  -1.731870e+05
  -1.524816e+06  -2.314992e+06
   2.777250e+05  -2.594169e+06
   2.321712e+06  -9.628308e+05
   3.103755e+06   1.238815e+06
   2.002936e+06   2.586953e+06
   2.820950e+04   2.553341e+06
  -1.153361e+06   1.703789e+06
  -1.159233e+06   1.045571e+06
  -1.274246e+06   9.442165e+05
  -2.482799e+06   7.265654e+05
  -3.745380e+06  -4.216494e+05
  -3.073181e+06  -2.283798e+06
  -1.500278e+05  -3.629167e+06
   2.937449e+06  -3.367765e+06
   3.807457e+06  -1.527091e+06
   2.144920e+06   7.505029e+05
  -2.272814e+05   1.980939e+06
  -1.253045e+06   1.423349e+06
  -4.158916e+05  -1.630288e+05
   1.071970e+06  -1.043420e+06
   1.573137e+06  -3.123885e+05
   6.308626e+05   9.502649e+05
  -6.006907e+05   9.579212e+05
  -6.295239e+05  -3.696666e+05
   6.730119e+05  -1.094581e+06
   1.866067e+06   2.730933e+05
   1.476004e+06   2.695881e+06
  -5.035613e+05   3.672168e+06
  -2.687611e+06   2.054123e+06
  -3.561034e+06  -8.347518e+05
  -2.584302e+06  -2.763008e+06
  -4.819094e+05  -2.687515e+06
   1.252490e+06  -1.302605e+06
   1.470721e+06  -7.555997e+04
   4.422428e+05   4.828233e+04
  -3.262520e+05  -6.687228e+05
   2.577189e+05  -1.120465e+06
   1.516243e+06  -5.426429e+05
   1.769768e+06   6.101297e+05
   4.637593e+05   1.158805e+06
  -1.017780e+06   5.721207e+05
  -9.413276e+05  -4.326604e+05
   7.269720e+05  -7.268228e+05
   2.238674e+06   6.602804e+04
   1.924670e+06   1.328361e+06
  -1.214258e+05   2.068593e+06
  -2.181481e+06   1.652937e+06
  -2.553015e+06   2.717861e+05
  -1.088595e+06  -1.053004e+06
   7.299325e+05  -1.217290e+06
   1.224053e+06  -1.704264e+05
   1.089739e+05   8.537620e+05
  -1.320075e+06   6.254415e+05
  -1.573427e+06  -6.372978e+05
  -4.470576e+05  -1.509971e+06
   9.048576e+05  -1.058932e+06
   1.226300e+06   1.144558e+05
   3.725383e+05   6.802094e+05
  -6.313079e+05   9.883424e+04
  -6.182919e+05  -9.120487e+05
   5.610211e+05  -1.230166e+06
   1.802926e+06  -4.075390e+05
   1.777735e+06   9.800608e+05
   3.315444e+05   1.838296e+06
  -1.246945e+06   1.477332e+06
  -1.545293e+06   2.432254e+05
  -5.185066e+05  -7.686750e+05
   5.741171e+05  -7.684635e+05
   6.544231e+05  -3.164210e+04
  -8.023451e+04   4.988844e+05
  -6.148188e+05   3.083701e+05
  -3.499714e+05  -1.755515e+05
   3.362897e+05  -1.833524e+05
   5.885615e+05   4.539994e+05
  -5.955880e+04   1.073017e+06
  -1.214564e+06   8.439108e+05
  -1.876117e+06  -3.652630e+05
  -1.295459e+06  -1.750191e+06
   2.321025e+05  -2.215757e+06
   1.527472e+06  -1.371291e+06
   1.671143e+06   7.381164e+04
   9.139854e+05   9.802641e+05
   2.595426e+05   8.782013e+05
   2.408190e+05   3.294288e+05
   4.124128e+05   1.786696e+05
   8.179027e+04   5.740290e+05
  -7.554373e+05   8.529219e+05
  -1.373464e+06   3.612471e+05
  -1.059178e+06  -7.319654e+05
   2.001318e+05  -1.484737e+06
   1.615063e+06  -1.051813e+06
   2.096753e+06   4.480975e+05
   1.097211e+06   1.907792e+06
  -8.037425e+05   2.158072e+06
  -2.239298e+06   1.030773e+06
  -2.228440e+06  -4.970237e+05
  -1.051811e+06  -1.271859e+06
   1.376443e+05  -1.053593e+06
   5.218110e+05  -5.789978e+05
   2.907878e+05  -5.984376e+05
   1.762758e+05  -1.015989e+06
   5.543292e+05  -1.067686e+06
   1.095190e+06  -2.601588e+05
   1.160600e+06   9.980373e+05
   4.601785e+05   1.724909e+06
  -6.004354e+05   1.287647e+06
  -1.186122e+06   6.574963e+03
  -7.774623e+05  -1.118043e+06
   2.618175e+05  -1.278865e+06
   9.718628e+05  -5.133751e+05
   7.668558e+05   4.450896e+05
   3.941566e+04   9.035255e+05
  -3.342547e+05   7.733030e+05
  -3.343564e+04   4.631739e+05
   3.460129e+05   3.374620e+05
   2.426629e+04   3.573137e+05
  -9.906078e+05   2.151059e+05
  -1.791803e+06  -2.672586e+05
  -1.466636e+06  -8.996287e+05
  -7.382510e+04  -1.249761e+06
   1.320618e+06  -1.013646e+06
   1.639417e+06  -3.176899e+05
   8.271769e+05   3.310452e+05
  -1.697774e+05   4.637191e+05
  -4.433331e+05   9.122207e+04
  -4.425088e+03  -2.874329e+05
   4.416428e+05  -1.904630e+05
   4.140917e+05   3.143704e+05
   1.095901e+05   6.572313e+05
  -1.652942e+04   4.138551e+05
   1.582265e+05  -1.500177e+05
   3.605142e+05  -3.237484e+05
   2.687335e+05   2.091933e+05
  -2.024299e+05   9.112062e+05
  -8.189604e+05   9.349703e+05
  -1.098067e+06   1.076973e+05
  -6.396574e+05  -8.090333e+05
   3.645188e+05  -9.320621e+05
   1.047475e+06  -2.110894e+05
   6.309297e+05   5.578074e+05
  -6.266581e+05   6.063885e+05
  -1.502404e+06  -6.730891e+04
  -1.042382e+06  -8.130888e+05
   3.820731e+05  -1.005024e+06
   1.440140e+06  -5.457101e+05
   1.231883e+06   1.460621e+05
   1.587094e+05   5.094956e+05
  -5.979187e+05   2.866313e+05
  -3.228637e+05  -2.321995e+05
   5.710387e+05  -4.033410e+05
   1.041614e+06   1.629074e+05
   4.900656e+05   1.094834e+06
  -6.583110e+05   1.468348e+06
  -1.395740e+06   6.975544e+05
  -1.113918e+06  -7.500379e+05
  -1.288803e+05  -1.658745e+06
   7.215112e+05  -1.219702e+06
   8.811277e+05   1.261102e+05
   4.368271e+05   1.112669e+06
  -1.562280e+05   9.549385e+05
  -5.042198e+05   1.075718e+05
  -4.727028e+05  -3.880297e+05
  -2.038147e+05  -1.710655e+05
  -2.865695e+04   1.145476e+05
  -1.740820e+05  -2.015822e+05
  -4.199177e+05  -8.651843e+05
  -2.252754e+05  -1.032755e+06
   5.800717e+05  -3.916747e+05
   1.354838e+06   4.628917e+05
   1.228743e+06   8.177012e+05
   1.694171e+05   6.319206e+05
  -8.503210e+05   3.379315e+05
  -9.373231e+05   1.623946e+05
  -2.900922e+05  -9.138622e+02
   1.598554e+05  -1.886128e+05
  -2.277923e+04  -2.488633e+05
  -3.024377e+05  -1.609856e+05
  -1.142334e+04  -1.169799e+05
   6.815638e+05  -1.416826e+05
   9.367302e+05   5.556626e+04
   2.706903e+05   5.896311e+05
  -8.521365e+05   9.817333e+05
  -1.497148e+06   6.096783e+05
  -1.166801e+06  -4.379852e+05
  -1.807967e+05  -1.290658e+06
   7.048654e+05  -1.216044e+06
   9.499661e+05  -4.134957e+05
   5.867375e+05   2.735091e+05
   8.121537e+04   3.169788e+05
  -1.136387e+05  -7.726707e+03
   6.869811e+04  -7.143072e+04
   3.064090e+05   3.328557e+05
   2.339649e+05   7.525642e+05
  -1.896059e+05   5.927320e+05
  -6.130539e+05  -1.810777e+05
  -5.880751e+05  -9.163385e+05
  -3.924315e+03  -9.049904e+05
   7.084327e+05  -1.237635e+05
   8.769151e+05   7.359764e+05
   2.447422e+05   9.795861e+05
  -6.586362e+05   5.428598e+05
  -9.741701e+05  -1.046375e+05
  -4.456036e+05  -5.103923e+05
   2.513807e+05  -5.492496e+05
   2.939099e+05  -3.304538e+05
  -2.764732e+05  -6.096282e+04
  -6.038959e+05   2.592272e+03
  -1.085453e+05  -2.643379e+05
   7.717268e+05  -6.038660e+05
   1.124730e+06  -5.229467e+05
   6.460149e+05   1.112177e+05
  -1.069637e+05   7.616124e+05
  -4.626423e+05   7.587962e+05
  -3.147748e+05   1.149254e+05
   5.201541e+03  -4.496438e+05
   2.280994e+05  -3.523958e+05
   2.991551e+05   1.977552e+05
   2.060182e+05   5.302681e+05
  -5.526930e+04   3.323573e+05
  -3.426872e+05  -7.371944e+04
  -4.199785e+05  -2.233058e+05
  -2.299152e+05  -6.050512e+04
   1.610769e+04   8.502063e+04
   1.062613e+05  -4.555410e+04
   8.614223e+04  -3.273987e+05
   1.431047e+05  -3.992822e+05
   2.919930e+05  -7.939400e+04
   3.104322e+05   3.932697e+05
   2.665699e+04   5.645299e+05
  -3.963067e+05   2.374650e+05
  -5.461718e+05  -2.938341e+05
  -1.788891e+05  -5.386061e+05
   4.518408e+05  -3.160311e+05
   7.582513e+05   1.048032e+05
   4.079992e+05   3.513203e+05
  -2.623297e+05   3.152902e+05
  -5.531214e+05   1.459560e+05
  -1.830093e+05   1.735866e+04
   3.575743e+05   1.289549e+04
   3.679272e+05   1.372115e+05
  -2.219511e+05   2.763994e+05
  -7.592820e+05   1.930360e+05
