
 $NMID
 id='ANONYMOUS ', fmtdat='(2E16.6)'
 volume=1.0
 tramp=1.0
 $END
  -5.401241e+07   9.219592e+05
  -3.320506e+07  -3.273500e+07
   6.328683e+06  -3.667744e+07
   2.621056e+07  -1.473005e+07
   1.608102e+07   6.266550e+06
  -2.917903e+06   9.054409e+06
  -9.528956e+06  -8.754804e+05
  -2.966653e+06  -9.348601e+06
   5.754342e+06  -9.227448e+06
   9.278782e+06  -2.183060e+06
   6.852336e+06   5.871082e+06
   9.118012e+05   8.312576e+06
  -3.812816e+06   2.682613e+06
  -2.622060e+06  -5.286096e+06
   3.529612e+06  -6.460492e+06
   7.627861e+06   1.108081e+06
   4.483919e+06   9.754411e+06
  -3.419285e+06   1.144009e+07
  -9.614546e+06   5.848404e+06
  -1.039738e+07  -1.813668e+06
  -6.432104e+06  -7.063857e+06
  -7.969601e+05  -8.217936e+06
   2.609075e+06  -5.816841e+06
   1.608946e+06  -2.698951e+06
  -1.145079e+06  -2.216970e+06
  -2.349131e+05  -4.112657e+06
   5.253083e+06  -4.287291e+06
   9.368196e+06  -5.400095e+05
   6.836725e+06   3.918989e+06
   2.431240e+05   4.851885e+06
  -3.616045e+06   2.456276e+06
  -2.358935e+06  -4.492062e+04
   7.093285e+05  -9.582838e+05
   2.324221e+06  -4.448520e+05
   2.141212e+06   1.469309e+06
   6.382747e+05   3.843375e+06
  -1.709672e+06   3.708257e+06
  -3.039581e+06  -9.602775e+04
  -1.631059e+06  -3.444873e+06
   6.922787e+05  -1.774419e+06
   2.918566e+05   2.441065e+06
  -2.381224e+06   2.296024e+06
  -2.441910e+06  -3.026108e+06
   2.164729e+06  -5.959831e+06
   6.590183e+06  -1.141010e+06
   5.027837e+06   6.524282e+06
  -1.652551e+06   8.214196e+06
  -7.095313e+06   2.449659e+06
  -6.821133e+06  -4.194954e+06
  -1.924818e+06  -5.842377e+06
   3.337086e+06  -2.725002e+06
   5.181591e+06   1.377481e+06
   2.465270e+06   3.351110e+06
  -2.273128e+06   2.190814e+06
  -4.397101e+06  -7.930053e+05
  -1.953212e+06  -2.583648e+06
   1.627228e+06  -1.355300e+06
   1.728202e+06   9.704635e+05
  -1.226412e+06   9.629577e+05
  -2.453859e+06  -1.569495e+06
   4.318024e+05  -3.293533e+06
   4.348641e+06  -1.955043e+06
   5.139079e+06   1.152200e+06
   2.332793e+06   3.771789e+06
  -1.683758e+06   5.116723e+06
  -4.835031e+06   4.743502e+06
  -5.991601e+06   1.742825e+06
  -4.447058e+06  -3.018173e+06
  -9.761191e+05  -5.980328e+06
   1.720398e+06  -4.690970e+06
   1.686845e+06  -1.285033e+06
   2.249883e+05   1.818580e+05
   6.417982e+04  -9.484164e+05
   1.613893e+06  -1.699142e+06
   2.752427e+06  -1.832040e+05
   1.966466e+06   1.933273e+06
  -1.140367e+04   2.127039e+06
  -1.573889e+06   1.906776e+05
  -1.681651e+06  -2.070432e+06
  -1.250829e+04  -2.897155e+06
   2.701213e+06  -1.623633e+06
   4.356220e+06   1.138721e+06
   3.153322e+06   3.612754e+06
   1.734113e+04   4.077263e+06
  -2.146909e+06   2.653161e+06
  -2.127893e+06   1.152131e+06
  -1.778307e+06   7.207766e+05
  -2.895628e+06   5.260216e+05
  -4.300303e+06  -6.917589e+05
  -3.473555e+06  -2.691073e+06
  -1.694963e+05  -4.081526e+06
   3.144917e+06  -3.883607e+06
   4.118477e+06  -2.112432e+06
   2.617036e+06   4.178837e+05
   2.601288e+05   2.208305e+06
  -1.089797e+06   1.903920e+06
  -5.518024e+05  -3.885798e+04
   1.073390e+06  -1.298983e+06
   1.878203e+06  -4.106255e+05
   9.126399e+05   1.176609e+06
  -5.125640e+05   1.106264e+06
  -4.448782e+05  -3.865368e+05
   1.036786e+06  -7.352625e+05
   1.873785e+06   1.202992e+06
   7.342905e+05   3.430196e+06
  -1.492690e+06   3.444725e+06
  -3.105445e+06   1.200709e+06
  -3.335965e+06  -1.380563e+06
  -2.311045e+06  -2.743332e+06
  -4.721940e+05  -2.609029e+06
   1.228447e+06  -1.461811e+06
   1.567275e+06  -2.311978e+05
   4.901108e+05   4.196909e+04
  -3.622095e+05  -7.448518e+05
   3.938548e+05  -1.333617e+06
   1.882301e+06  -5.936987e+05
   2.028808e+06   8.571391e+05
   4.009466e+05   1.402156e+06
  -1.161245e+06   5.797706e+05
  -8.939695e+05  -4.507593e+05
   8.442452e+05  -5.361457e+05
   2.188459e+06   2.981039e+05
   1.759031e+06   1.348772e+06
  -2.343650e+05   1.977559e+06
  -2.292721e+06   1.667360e+06
  -2.761107e+06   2.918410e+05
  -1.221571e+06  -1.246928e+06
   8.975024e+05  -1.497490e+06
   1.543726e+06  -2.032606e+05
   2.069575e+05   1.068049e+06
  -1.502643e+06   7.437036e+05
  -1.718804e+06  -7.649479e+05
  -3.515878e+05  -1.647012e+06
   1.082016e+06  -9.874932e+05
   1.260633e+06   2.992148e+05
   2.547785e+05   7.792388e+05
  -7.917459e+05   6.278192e+04
  -7.405902e+05  -1.042992e+06
   5.643323e+05  -1.421132e+06
   1.995406e+06  -5.528860e+05
   2.033939e+06   1.031911e+06
   3.972391e+05   2.063904e+06
  -1.422491e+06   1.648086e+06
  -1.719851e+06   2.226239e+05
  -5.080469e+05  -8.634695e+05
   6.517807e+05  -8.062696e+05
   6.320022e+05  -7.747019e+04
  -1.193033e+05   3.652824e+05
  -4.958133e+05   2.102829e+05
  -1.264243e+05  -7.302429e+04
   4.508995e+05   6.539109e+04
   5.267413e+05   6.650415e+05
  -1.951902e+05   1.187093e+06
  -1.371829e+06   9.028508e+05
  -2.077526e+06  -3.986204e+05
  -1.472814e+06  -1.926298e+06
   2.006619e+05  -2.413913e+06
   1.603330e+06  -1.419002e+06
   1.688445e+06   1.165964e+05
   8.599660e+05   8.943142e+05
   3.136792e+05   6.535956e+05
   4.695288e+05   2.143736e+05
   6.254407e+05   3.021449e+05
   9.831830e+04   7.582817e+05
  -8.672967e+05   9.051677e+05
  -1.443908e+06   3.328846e+05
  -1.051038e+06  -7.171074e+05
   2.430245e+05  -1.460005e+06
   1.711780e+06  -1.080146e+06
   2.244045e+06   4.685945e+05
   1.144506e+06   2.086900e+06
  -9.889840e+05   2.366708e+06
  -2.527677e+06   1.047518e+06
  -2.350774e+06  -6.420838e+05
  -9.631303e+05  -1.332981e+06
   2.028244e+05  -9.482824e+05
   3.902160e+05  -5.092140e+05
   7.486519e+04  -7.444873e+05
   9.142975e+04  -1.298022e+06
   6.556883e+05  -1.288037e+06
   1.284793e+06  -3.280226e+05
   1.339471e+06   1.065883e+06
   5.676764e+05   1.882856e+06
  -6.094204e+05   1.435498e+06
  -1.281493e+06   6.324773e+03
  -8.198074e+05  -1.273649e+06
   3.786383e+05  -1.396122e+06
   1.158093e+06  -4.158516e+05
   8.178307e+05   6.876297e+05
  -1.117376e+05   1.075267e+06
  -5.289661e+05   7.873982e+05
  -8.348965e+04   4.170749e+05
   4.331975e+05   3.304788e+05
   6.215205e+04   3.809304e+05
  -1.143404e+06   2.190301e+05
  -2.058619e+06  -3.140937e+05
  -1.620022e+06  -1.021295e+06
   2.559552e+04  -1.432659e+06
   1.574352e+06  -1.151112e+06
   1.824829e+06  -2.905788e+05
   8.376313e+05   4.879871e+05
  -2.543937e+05   5.705990e+05
  -5.112823e+05   3.799994e+04
  -3.655470e+04  -4.188797e+05
   4.379182e+05  -2.603172e+05
   4.829136e+05   3.361460e+05
   2.597171e+05   7.148683e+05
   1.014108e+05   4.738273e+05
   1.378626e+05  -9.379404e+04
   2.768693e+05  -2.894436e+05
   2.761469e+05   2.303412e+05
  -1.325993e+05   9.818935e+05
  -8.868648e+05   1.070343e+06
  -1.357145e+06   1.914239e+05
  -8.605631e+05  -9.004243e+05
   4.010274e+05  -1.142083e+06
   1.249993e+06  -3.529026e+05
   7.361170e+05   5.626988e+05
  -6.960497e+05   6.518130e+05
  -1.583243e+06  -8.689710e+04
  -1.003654e+06  -8.576412e+05
   4.819679e+05  -9.882414e+05
   1.492688e+06  -4.804968e+05
   1.227625e+06   1.875493e+05
   1.340772e+05   5.115975e+05
  -6.474552e+05   2.708237e+05
  -3.885302e+05  -2.910960e+05
   5.737251e+05  -5.286304e+05
   1.179415e+06   6.262141e+04
   6.883965e+05   1.165268e+06
  -5.592943e+05   1.705362e+06
  -1.463859e+06   9.049094e+05
  -1.260795e+06  -7.379567e+05
  -2.221229e+05  -1.782421e+06
   7.266001e+05  -1.293257e+06
   9.244619e+05   1.741104e+05
   4.347220e+05   1.187457e+06
  -2.207174e+05   9.654269e+05
  -5.638110e+05   8.566377e+04
  -4.607218e+05  -3.719222e+05
  -1.553503e+05  -1.345592e+05
  -5.140440e+04   9.356941e+04
  -2.958853e+05  -2.951712e+05
  -5.236790e+05  -9.602578e+05
  -1.900202e+05  -1.073860e+06
   7.218622e+05  -4.016292e+05
   1.474138e+06   4.482100e+05
   1.274696e+06   8.231690e+05
   1.910440e+05   6.975584e+05
  -8.359662e+05   4.274973e+05
  -9.765065e+05   1.880842e+05
  -3.706797e+05  -5.391525e+04
   1.379757e+05  -2.274066e+05
   4.751248e+04  -2.003846e+05
  -2.497472e+05  -8.510829e+04
  -5.800507e+04  -1.305261e+05
   6.400802e+05  -2.483806e+05
   1.046459e+06  -8.623870e+03
   4.657751e+05   6.844400e+05
  -8.061598e+05   1.196272e+06
  -1.695216e+06   7.944437e+05
  -1.435224e+06  -3.968792e+05
  -3.030233e+05  -1.396060e+06
   7.484332e+05  -1.391900e+06
   1.038634e+06  -5.660201e+05
   6.546140e+05   2.119713e+05
   1.470574e+05   3.552297e+05
  -5.266988e+04   7.630010e+04
   8.794773e+04  -6.534467e+03
   2.980693e+05   3.689635e+05
   2.524004e+05   8.042122e+05
  -1.634641e+05   6.849508e+05
  -6.773739e+05  -9.645374e+04
  -7.651538e+05  -9.230364e+05
  -1.560938e+05  -1.028004e+06
   7.336742e+05  -2.793124e+05
   1.051787e+06   6.816555e+05
   3.817027e+05   1.081392e+06
  -6.947242e+05   7.046489e+05
  -1.127895e+06  -4.666459e+04
  -5.550956e+05  -6.141602e+05
   2.735169e+05  -7.010245e+05
   3.879903e+05  -3.804289e+05
  -2.283821e+05   9.694450e+02
  -6.428986e+05   5.414231e+04
  -1.590487e+05  -3.078617e+05
   8.120940e+05  -6.908591e+05
   1.265001e+06  -5.504281e+05
   7.847371e+05   1.758484e+05
  -7.725388e+04   8.774741e+05
  -5.510002e+05   8.749833e+05
  -4.397338e+05   1.855312e+05
  -7.261565e+04  -4.686608e+05
   2.256145e+05  -4.498534e+05
   3.519744e+05   1.225866e+05
   2.682418e+05   5.705989e+05
  -3.769211e+04   4.435556e+05
  -3.915278e+05  -2.866337e+04
  -4.881521e+05  -2.824549e+05
  -2.453856e+05  -1.025108e+05
   4.767147e+04   1.624252e+05
   8.648198e+04   7.060011e+04
  -4.328466e+04  -3.389434e+05
   7.437580e+02  -5.672291e+05
   2.994311e+05  -2.572979e+05
   4.882430e+05   3.449540e+05
   2.030469e+05   6.377763e+05
  -3.906798e+05   3.315182e+05
  -6.812642e+05  -2.509912e+05
  -2.752297e+05  -5.588717e+05
   5.043994e+05  -3.796156e+05
   8.939598e+05   4.635652e+04
   4.926215e+05   3.656958e+05
  -2.832954e+05   4.207929e+05
  -6.369842e+05   2.603021e+05
  -2.647067e+05   2.839038e+04
   3.215876e+05  -8.992972e+04
   3.983208e+05   3.327754e+04
  -1.448563e+05   2.801375e+05
  -7.073167e+05   2.864806e+05
