
 $NMID
 id='ANONYMOUS ', fmtdat='(2E16.6)'
 volume=1.0
 tramp=1.0
 $END
   1.473915e+07  -6.105935e+05
   9.612031e+06   7.267847e+06
  -3.919993e+05   9.436697e+06
  -6.254224e+06   5.528999e+06
  -4.766660e+06   1.454775e+04
  -2.142452e+04  -2.476606e+06
   2.661968e+06  -8.887372e+05
   1.789370e+06   2.227609e+06
  -7.370441e+05   3.441882e+06
  -2.508223e+06   1.487277e+06
  -2.301484e+06  -1.665625e+06
  -4.711523e+05  -2.780187e+06
   1.273824e+06  -7.662798e+05
   1.183999e+06   2.075835e+06
  -6.777707e+05   2.586568e+06
  -2.273343e+06   1.948360e+05
  -1.746252e+06  -2.695438e+06
   5.798434e+05  -3.481780e+06
   2.675197e+06  -1.819028e+06
   2.927770e+06   6.161001e+05
   1.506735e+06   2.027009e+06
  -5.372487e+04   1.904427e+06
  -3.409051e+05   1.085343e+06
   5.913945e+05   7.945532e+05
   1.177085e+06   1.416207e+06
  -3.872822e+03   2.064267e+06
  -2.350919e+06   1.580766e+06
  -3.560759e+06  -2.686664e+04
  -2.218646e+06  -1.482372e+06
   4.139443e+05  -1.629323e+06
   1.785833e+06  -5.672847e+05
   9.020526e+05   6.476363e+05
  -8.780865e+05   1.012787e+06
  -1.695381e+06   2.231718e+05
  -1.077039e+06  -1.139903e+06
   9.822560e+04  -1.849697e+06
   7.955450e+05  -1.060150e+06
   6.397257e+05   5.259516e+05
   1.644802e+03   1.103043e+06
  -3.468641e+05  -5.898945e+04
   7.767793e+04  -1.436354e+06
   8.467269e+05  -1.082889e+06
   9.263332e+05   7.122787e+05
  -1.011965e+05   1.665664e+06
  -1.319581e+06   4.608994e+05
  -1.335078e+06  -1.567936e+06
   1.714870e+05  -2.166679e+06
   1.983156e+06  -7.961242e+05
   2.474149e+06   1.092572e+06
   1.132439e+06   1.896585e+06
  -9.517633e+05   1.274601e+06
  -2.029636e+06  -1.036996e+03
  -1.272320e+06  -8.970773e+05
   4.341863e+05  -8.244284e+05
   1.369825e+06  -2.492093e+04
   7.722655e+05   6.186247e+05
  -4.149938e+05   4.578015e+05
  -7.471087e+05  -2.039269e+05
   8.919077e+03  -5.107516e+05
   7.254768e+05  -1.070011e+05
   3.866915e+05   5.164076e+05
  -7.201782e+05   6.713281e+05
  -1.408205e+06   1.210848e+05
  -8.821997e+05  -8.738303e+05
   5.514215e+05  -1.729427e+06
   1.857625e+06  -1.726569e+06
   2.164080e+06  -5.425018e+05
   1.414652e+06   1.165432e+06
   3.336093e+05   2.128019e+06
  -2.769782e+05   1.766297e+06
  -2.823801e+05   8.385382e+05
  -2.204852e+05   4.383683e+05
  -5.631618e+05   6.232403e+05
  -1.127937e+06   5.243714e+05
  -1.312074e+06  -2.975616e+05
  -7.773806e+05  -1.167621e+06
   2.046109e+05  -1.132534e+06
   9.684732e+05  -1.155415e+05
   9.249284e+05   1.005780e+06
   8.335639e+03   1.296872e+06
  -1.142391e+06   5.704457e+05
  -1.594130e+06  -5.653653e+05
  -9.862192e+05  -1.285956e+06
   5.222361e+04  -1.232822e+06
   5.974166e+05  -7.451324e+05
   5.102829e+05  -4.212988e+05
   5.090402e+05  -4.495212e+05
   1.096632e+06  -4.474694e+05
   1.765045e+06   2.941390e+04
   1.553716e+06   9.335948e+05
   2.542661e+05   1.714474e+06
  -1.235609e+06   1.773714e+06
  -1.789304e+06   9.510198e+05
  -1.128404e+06  -2.723902e+05
  -5.891008e+03  -1.034132e+06
   5.653651e+05  -7.957237e+05
   2.308246e+05   6.781018e+04
  -4.740853e+05   5.733196e+05
  -7.433520e+05   2.105229e+05
  -3.338777e+05  -4.548528e+05
   2.392307e+05  -5.114789e+05
   3.171482e+05   1.016858e+05
  -1.911005e+05   4.984846e+05
  -7.514155e+05  -1.836130e+04
  -7.525896e+05  -1.064565e+06
  -3.600905e+04  -1.604124e+06
   9.951358e+05  -1.072905e+06
   1.645636e+06   1.184805e+05
   1.410492e+06   1.077034e+06
   4.289671e+05   1.230559e+06
  -5.239421e+05   7.097429e+05
  -7.153304e+05   1.266501e+05
  -2.138333e+05   6.499558e+02
   1.897082e+05   3.002936e+05
  -8.009380e+04   5.300255e+05
  -6.938515e+05   3.050724e+05
  -8.442571e+05  -2.109846e+05
  -2.595491e+05  -5.102820e+05
   4.453431e+05  -3.191518e+05
   4.716942e+05   1.311781e+05
  -2.634129e+05   3.722571e+05
  -1.022891e+06   1.303944e+05
  -9.952701e+05  -4.648795e+05
  -1.007745e+05  -9.646990e+05
   9.175931e+05  -9.160353e+05
   1.193033e+06  -2.747100e+05
   5.590909e+05   4.460687e+05
  -3.078018e+05   6.047891e+05
  -5.779100e+05   1.154344e+05
  -7.897110e+04  -4.160236e+05
   6.021903e+05  -3.613383e+05
   7.700679e+05   2.163838e+05
   2.928355e+05   6.690092e+05
  -3.454104e+05   5.333732e+05
  -5.582620e+05   2.227231e+04
  -2.051543e+05  -2.788752e+05
   2.893137e+05  -6.529022e+04
   3.385353e+05   4.091917e+05
  -2.081693e+05   6.240882e+05
  -8.493510e+05   2.921285e+05
  -9.051331e+05  -3.792097e+05
  -2.510736e+05  -8.594156e+05
   5.156571e+05  -7.601598e+05
   7.124098e+05  -1.945294e+05
   2.829063e+05   3.271890e+05
  -2.252009e+05   3.915680e+05
  -3.140247e+05   6.512625e+04
  -1.808023e+04  -2.327786e+05
   2.503929e+05  -2.064923e+05
   1.897906e+05   2.005646e+04
  -1.078114e+05   8.705439e+04
  -2.745758e+05  -1.666418e+05
  -2.684602e+04  -4.908475e+05
   5.259060e+05  -4.599719e+05
   9.097438e+05   7.278374e+04
   7.101196e+05   7.663755e+05
   1.539859e+04   1.070765e+06
  -6.334689e+05   7.431300e+05
  -7.869605e+05   7.892868e+04
  -5.122923e+05  -3.877151e+05
  -2.208076e+05  -3.998026e+05
  -1.597620e+05  -1.722834e+05
  -1.919109e+05  -9.141130e+04
  -5.021811e+04  -2.710175e+05
   3.064028e+05  -4.386024e+05
   6.188231e+05  -2.557301e+05
   5.532946e+05   2.683928e+05
   1.364197e+04   7.068527e+05
  -6.939231e+05   5.953597e+05
  -1.020507e+06  -8.735975e+04
  -6.246197e+05  -8.341549e+05
   2.643284e+05  -1.049842e+06
   9.927604e+05  -5.984080e+05
   1.065881e+06   1.003607e+05
   5.740957e+05   5.134082e+05
   2.453464e+04   4.942790e+05
  -1.916080e+05   3.293626e+05
  -1.138759e+05   3.401398e+05
  -5.490497e+04   5.110165e+05
  -2.236676e+05   5.311093e+05
  -5.131703e+05   1.710024e+05
  -6.107186e+05  -4.191424e+05
  -3.155482e+05  -8.019256e+05
   2.165310e+05  -6.514727e+05
   5.612958e+05  -7.134815e+04
   4.217347e+05   4.828487e+05
  -5.463018e+04   6.057435e+05
  -4.108700e+05   2.790779e+05
  -3.557602e+05  -1.690663e+05
  -5.186976e+04  -4.031005e+05
   1.095374e+05  -3.579207e+05
  -2.296013e+04  -2.120605e+05
  -1.897303e+05  -1.483745e+05
  -3.365087e+04  -1.731442e+05
   4.557772e+05  -1.470795e+05
   8.620853e+05   4.307224e+04
   7.391957e+05   3.480457e+05
   9.185729e+04   5.726590e+05
  -5.787897e+05   5.338836e+05
  -7.508140e+05   2.351577e+05
  -3.890404e+05  -1.030020e+05
   6.607965e+04  -2.194798e+05
   1.956528e+05  -6.240962e+04
   2.136208e+03   1.427709e+05
  -2.058229e+05   1.226215e+05
  -2.152045e+05  -1.305283e+05
  -9.167593e+04  -3.270900e+05
  -1.410107e+04  -2.162155e+05
  -5.467918e+04   8.395671e+04
  -1.401297e+05   1.908068e+05
  -1.384205e+05  -8.101169e+04
   4.089960e+04  -4.564097e+05
   3.431496e+05  -4.909075e+05
   5.288832e+05  -8.910001e+04
   3.487532e+05   3.733291e+05
  -1.402598e+05   4.638480e+05
  -5.057103e+05   1.440955e+05
  -3.381159e+05  -2.355207e+05
   2.616075e+05  -3.199887e+05
   7.119925e+05  -6.057397e+04
   5.410492e+05   3.051087e+05
  -1.089703e+05   4.848107e+05
  -6.318471e+05   3.490292e+05
  -5.848718e+05   1.750424e+04
  -1.098535e+05  -2.254201e+05
   2.605836e+05  -1.691549e+05
   1.607990e+05   9.846875e+04
  -2.609144e+05   2.326168e+05
  -5.215641e+05  -2.338752e+04
  -3.010022e+05  -5.148573e+05
   2.429260e+05  -7.593400e+05
   6.435943e+05  -4.204278e+05
   5.829716e+05   2.986165e+05
   1.595727e+05   7.906841e+05
  -2.664720e+05   6.267757e+05
  -4.179030e+05  -5.374343e+03
  -2.724934e+05  -4.954814e+05
   9.524471e+03  -4.517249e+05
   2.281207e+05  -7.647661e+04
   2.526815e+05   1.476805e+05
   1.130477e+05   5.810892e+04
   2.682238e+03  -5.205207e+04
   8.401877e+04   1.039142e+05
   2.459758e+05   3.970317e+05
   1.715853e+05   4.668491e+05
  -2.506264e+05   2.034347e+05
  -6.764381e+05  -1.418383e+05
  -6.372150e+05  -3.069241e+05
  -1.144239e+05  -2.909200e+05
   3.912705e+05  -2.231249e+05
   4.356787e+05  -1.367775e+05
   1.301751e+05  -6.240682e+03
  -6.792358e+04   1.043924e+05
   3.441932e+04   1.037557e+05
   1.649716e+05   4.488353e+04
   1.250336e+04   6.198662e+04
  -3.275880e+05   1.233848e+05
  -4.582157e+05   2.359036e+04
  -1.580767e+05  -2.917693e+05
   3.660405e+05  -5.345166e+05
   6.966111e+05  -3.652576e+05
   5.930214e+05   1.661465e+05
   1.617461e+05   6.175747e+05
  -2.756670e+05   6.199098e+05
  -4.449089e+05   2.509499e+05
  -3.071360e+05  -9.725922e+04
  -5.594677e+04  -1.549894e+05
   6.615992e+04  -1.560991e+04
  -1.756350e+04   3.423715e+04
  -1.621556e+05  -1.349387e+05
  -1.555363e+05  -3.426666e+05
   6.186951e+04  -2.990229e+05
   3.166556e+05   5.084579e+04
   3.442878e+05   4.191541e+05
   4.898835e+04   4.531443e+05
  -3.505807e+05   1.071847e+05
  -4.774010e+05  -3.121831e+05
  -1.709185e+05  -4.685668e+05
   2.987960e+05  -2.998858e+05
   4.791511e+05   3.976200e+03
   2.319976e+05   2.287761e+05
  -1.042890e+05   2.763719e+05
  -1.252086e+05   1.628481e+05
   1.434607e+05   6.244630e+02
   2.936069e+05  -3.852167e+04
   6.392158e+04   1.258732e+05
  -3.362456e+05   3.344705e+05
  -5.011137e+05   3.041979e+05
  -3.051980e+05  -3.021766e+04
   1.466972e+04  -3.738321e+05
   1.850395e+05  -3.789096e+05
   1.539812e+05  -5.807852e+04
   2.763188e+04   2.251144e+05
  -9.813710e+04   1.845817e+05
  -1.678622e+05  -7.913620e+04
  -1.293146e+05  -2.463145e+05
   1.987461e+04  -1.656441e+05
   1.749216e+05   1.753785e+04
   2.058939e+05   8.778351e+04
   1.064257e+05   1.567162e+04
  -2.041023e+03  -4.547417e+04
  -2.831325e+04   2.978251e+04
  -1.695527e+04   1.811020e+05
  -6.311326e+04   2.241016e+05
  -1.603051e+05   6.025164e+04
  -1.851410e+05  -1.907802e+05
  -4.414102e+04  -2.936458e+05
   1.849894e+05  -1.425899e+05
   2.877138e+05   1.206810e+05
   1.209364e+05   2.571128e+05
  -2.020301e+05   1.738383e+05
  -3.769987e+05  -1.639658e+04
  -2.165863e+05  -1.507261e+05
   1.186630e+05  -1.659658e+05
   2.703856e+05  -9.673085e+04
   8.844980e+04  -8.384956e+03
  -1.851306e+05   2.666816e+04
  -2.001818e+05  -4.170478e+04
   8.444224e+04  -1.582075e+05
   3.584283e+05  -1.543557e+05
