
 $NMID
 id='ANONYMOUS ', fmtdat='(2E16.6)'
 volume=1.0
 tramp=1.0
 $END
   2.686962e+07   1.363274e+06
   1.587323e+07   1.633751e+07
  -3.455077e+06   1.771339e+07
  -1.311987e+07   7.574477e+06
  -8.287823e+06  -2.479440e+06
   1.177202e+06  -4.508667e+06
   4.914012e+06  -4.363754e+04
   1.903559e+06   4.657732e+06
  -2.722425e+06   5.184195e+06
  -4.806558e+06   1.403700e+06
  -3.487599e+06  -3.292179e+06
  -2.185565e+05  -4.580154e+06
   2.176859e+06  -1.171703e+06
   1.351595e+06   3.276771e+06
  -1.912658e+06   3.736454e+06
  -3.962439e+06  -4.974028e+05
  -2.236667e+06  -5.117277e+06
   1.926790e+06  -5.867997e+06
   5.067488e+06  -2.688207e+06
   5.134180e+06   1.408378e+06
   2.710780e+06   3.787842e+06
  -7.627089e+04   3.805747e+06
  -1.158310e+06   2.459727e+06
  -1.287805e+05   1.481576e+06
   1.011077e+06   1.895324e+06
  -2.423948e+05   2.752769e+06
  -3.531684e+06   2.089963e+06
  -5.400804e+06  -3.852119e+05
  -3.440933e+06  -2.576817e+06
   4.800710e+05  -2.571360e+06
   2.478567e+06  -8.740643e+05
   1.264234e+06   6.367354e+05
  -1.026583e+06   9.107626e+05
  -1.991432e+06   4.122582e+04
  -1.262887e+06  -1.450047e+06
   1.650980e+05  -2.495779e+06
   1.248802e+06  -1.757222e+06
   1.280739e+06   5.151777e+05
   3.127955e+05   1.825268e+06
  -4.466703e+05   4.155219e+05
   1.902765e+05  -1.781803e+06
   1.490718e+06  -1.361692e+06
   1.308658e+06   1.549473e+06
  -9.384898e+05   2.977488e+06
  -2.971226e+06   4.990248e+05
  -2.245091e+06  -3.262169e+06
   9.135777e+05  -3.995256e+06
   3.668222e+06  -1.029072e+06
   3.692693e+06   2.400588e+06
   1.141573e+06   3.295935e+06
  -1.874575e+06   1.618514e+06
  -3.041928e+06  -6.956015e+05
  -1.550520e+06  -1.837828e+06
   1.105990e+06  -1.199428e+06
   2.316161e+06   4.068636e+05
   1.063582e+06   1.328497e+06
  -8.509415e+05   6.802617e+05
  -1.038020e+06  -5.450629e+05
   4.367938e+05  -6.693695e+05
   1.282173e+06   4.753603e+05
   1.015523e+05   1.404862e+06
  -1.898971e+06   9.786293e+05
  -2.575934e+06  -4.405215e+05
  -1.221304e+06  -1.880840e+06
   1.155206e+06  -2.710059e+06
   3.057534e+06  -2.408028e+06
   3.450333e+06  -5.996047e+05
   2.186850e+06   1.959849e+06
   2.253911e+05   3.390040e+06
  -9.648231e+05   2.658494e+06
  -8.275585e+05   9.702127e+05
  -3.019783e+05   2.467779e+05
  -5.402156e+05   6.588088e+05
  -1.397642e+06   7.179965e+05
  -1.743148e+06  -3.678472e+05
  -9.824013e+05  -1.558553e+06
   3.277393e+05  -1.441772e+06
   1.206986e+06   2.787178e+03
   1.038264e+06   1.499522e+06
  -1.817673e+05   1.822102e+06
  -1.729886e+06   7.334243e+05
  -2.383485e+06  -9.903688e+05
  -1.471711e+06  -2.160961e+06
   2.115414e+05  -2.104421e+06
   1.179307e+06  -1.246386e+06
   1.062935e+06  -5.809539e+05
   9.673039e+05  -4.767059e+05
   1.736395e+06  -3.312875e+05
   2.579432e+06   4.814366e+05
   2.046644e+06   1.715183e+06
  -1.043711e+04   2.518922e+06
  -2.108349e+06   2.286477e+06
  -2.687864e+06   1.067717e+06
  -1.571030e+06  -4.938632e+05
   7.376735e+04  -1.422405e+06
   8.609338e+05  -1.069391e+06
   3.240391e+05   9.666046e+04
  -7.544163e+05   7.401802e+05
  -1.137817e+06   1.693830e+05
  -4.503174e+05  -7.335924e+05
   4.053099e+05  -6.722067e+05
   3.548384e+05   2.366750e+05
  -5.194735e+05   5.649520e+05
  -1.113297e+06  -4.713057e+05
  -6.303356e+05  -1.913305e+06
   6.410235e+05  -2.223916e+06
   1.815259e+06  -1.017763e+06
   2.199372e+06   7.329914e+05
   1.580188e+06   1.821462e+06
   2.795315e+05   1.752752e+06
  -8.578036e+05   8.835764e+05
  -1.014421e+06   5.701664e+04
  -3.040915e+05  -4.317850e+04
   2.044924e+05   4.712571e+05
  -2.521980e+05   7.763421e+05
  -1.115489e+06   3.017753e+05
  -1.196930e+06  -5.317427e+05
  -2.384620e+05  -8.311765e+05
   7.209597e+05  -3.445117e+05
   5.974038e+05   3.000336e+05
  -4.998637e+05   3.994791e+05
  -1.429936e+06  -1.386065e+05
  -1.195928e+06  -8.912423e+05
   1.344257e+05  -1.319998e+06
   1.495358e+06  -1.042109e+06
   1.744650e+06  -1.168584e+05
   7.121552e+05   7.813071e+05
  -5.815186e+05   8.467382e+05
  -9.015952e+05   6.192326e+04
  -5.876271e+04  -6.356543e+05
   9.445581e+05  -4.006213e+05
   1.049918e+06   4.988796e+05
   2.255767e+05   1.027814e+06
  -6.541791e+05   6.402103e+05
  -7.924170e+05  -1.518646e+05
  -1.887476e+05  -4.677600e+05
   4.581186e+05  -2.551454e+04
   4.107877e+05   6.617929e+05
  -4.130843e+05   8.536080e+05
  -1.264364e+06   2.561946e+05
  -1.218942e+06  -7.195003e+05
  -1.788265e+05  -1.285970e+06
   9.146317e+05  -9.777050e+05
   1.066904e+06  -1.071882e+05
   3.136349e+05   5.399403e+05
  -4.172327e+05   4.973313e+05
  -4.307395e+05   2.512806e+04
   5.572222e+04  -2.854807e+05
   3.647513e+05  -1.802103e+05
   1.777543e+05   6.556197e+04
  -2.259018e+05   3.214505e+04
  -3.370508e+05  -3.593990e+05
   1.081450e+05  -7.202925e+05
   8.637346e+05  -5.328653e+05
   1.280535e+06   3.046159e+05
   8.518172e+05   1.243278e+06
  -2.044199e+05   1.512928e+06
  -1.054550e+06   8.809262e+05
  -1.097704e+06  -9.032011e+04
  -5.800081e+05  -6.293953e+05
  -1.981364e+05  -5.256136e+05
  -2.306414e+05  -2.158797e+05
  -3.130739e+05  -1.841887e+05
  -2.703760e+04  -4.321006e+05
   5.481085e+05  -5.497060e+05
   9.253689e+05  -1.990046e+05
   6.842548e+05   4.933151e+05
  -1.647601e+05   9.612145e+05
  -1.109951e+06   6.618578e+05
  -1.410701e+06  -3.525811e+05
  -6.821763e+05  -1.328999e+06
   6.412192e+05  -1.442705e+06
   1.572908e+06  -6.111913e+05
   1.474622e+06   4.191749e+05
   6.387603e+05   8.606815e+05
  -1.135834e+05   6.536706e+05
  -3.077230e+05   3.685925e+05
  -1.584478e+05   4.555750e+05
  -1.430050e+05   7.543736e+05
  -4.371646e+05   7.425567e+05
  -7.859339e+05   1.492025e+05
  -7.888522e+05  -7.162562e+05
  -2.852495e+05  -1.199502e+06
   4.366783e+05  -8.774514e+05
   8.071969e+05   2.685636e+04
   4.862316e+05   7.970306e+05
  -2.401144e+05   8.558198e+05
  -6.882718e+05   2.721637e+05
  -4.824023e+05  -3.792968e+05
   5.173508e+04  -6.249636e+05
   2.887665e+05  -4.839617e+05
   3.822247e+04  -2.853328e+05
  -2.471437e+05  -2.360632e+05
  -1.786104e+04  -2.464420e+05
   6.982426e+05  -1.080122e+05
   1.243204e+06   2.502696e+05
   9.783405e+05   6.684155e+05
  -2.166695e+04   8.627769e+05
  -9.729123e+05   6.531499e+05
  -1.132444e+06   1.520326e+05
  -5.229533e+05  -2.766561e+05
   1.557128e+05  -3.219773e+05
   3.057452e+05  -2.973461e+04
  -8.546974e+03   2.294814e+05
  -3.008661e+05   1.377234e+05
  -2.836623e+05  -2.279349e+05
  -9.613242e+04  -4.680239e+05
  -7.960150e+03  -3.027342e+05
  -9.409711e+04   8.280789e+04
  -2.150722e+05   2.075644e+05
  -1.730152e+05  -1.485920e+05
   1.369669e+05  -6.240595e+05
   5.891909e+05  -6.313941e+05
   8.064442e+05  -4.539150e+04
   4.582244e+05   5.945766e+05
  -2.903935e+05   6.614117e+05
  -7.659169e+05   1.369614e+05
  -4.345100e+05  -3.913009e+05
   4.470786e+05  -3.928641e+05
   1.007408e+06   8.435911e+04
   6.561052e+05   5.599909e+05
  -2.938746e+05   6.381910e+05
  -9.633619e+05   3.106365e+05
  -8.019040e+05  -1.276006e+05
  -8.882575e+04  -3.355003e+05
   4.101500e+05  -1.683492e+05
   2.199465e+05   1.824262e+05
  -3.980552e+05   2.905754e+05
  -7.329961e+05  -1.128917e+05
  -3.511613e+05  -7.716820e+05
   4.581113e+05  -1.032904e+06
   9.734704e+05  -4.853490e+05
   7.626709e+05   5.260783e+05
   6.844485e+04   1.138928e+06
  -5.051217e+05   8.103016e+05
  -5.839775e+05  -1.161359e+05
  -2.594534e+05  -7.599059e+05
   1.378701e+05  -6.210178e+05
   3.475712e+05  -4.928772e+04
   3.031757e+05   2.572427e+05
   1.221138e+05   1.000562e+05
   2.465132e+04  -6.631736e+04
   1.340600e+05   1.760752e+05
   2.795013e+05   6.150702e+05
   1.162538e+05   6.905427e+05
  -4.289042e+05   2.339784e+05
  -9.186333e+05  -3.372024e+05
  -8.069210e+05  -5.654159e+05
  -9.920199e+04  -4.393903e+05
   5.716450e+05  -2.348068e+05
   6.333354e+05  -9.374928e+04
   2.070057e+05   2.974342e+04
  -1.068558e+05   1.348029e+05
  -3.025262e+03   1.422063e+05
   1.906623e+05   8.351137e+04
   1.703016e+04   8.646680e+04
  -4.518402e+05   1.165723e+05
  -6.536041e+05  -4.725421e+04
  -2.114272e+05  -4.420003e+05
   5.896308e+05  -6.969508e+05
   1.072273e+06  -4.041819e+05
   8.400268e+05   3.279439e+05
   1.190285e+05   8.959939e+05
  -5.169370e+05   8.321832e+05
  -6.746615e+05   2.882964e+05
  -4.077395e+05  -1.805674e+05
  -6.203638e+04  -2.283893e+05
   6.759466e+04  -2.370589e+04
  -4.405167e+04   2.548897e+04
  -1.894762e+05  -2.331677e+05
  -1.404457e+05  -5.156605e+05
   1.382961e+05  -4.156822e+05
   4.283523e+05   1.133870e+05
   4.202232e+05   6.355877e+05
   1.530202e+04   6.478250e+05
  -4.936428e+05   1.099602e+05
  -6.198329e+05  -5.044262e+05
  -1.707979e+05  -6.931565e+05
   4.715841e+05  -3.869973e+05
   6.888990e+05   8.710253e+04
   3.029384e+05   3.851065e+05
  -1.986551e+05   3.969001e+05
  -2.310447e+05   2.153594e+05
   1.747593e+05   2.177278e+04
   4.143109e+05  -1.414463e+03
   7.593041e+04   1.938128e+05
  -5.393630e+05   4.038888e+05
  -7.910623e+05   3.163418e+05
  -4.541699e+05  -1.183983e+05
   8.853507e+04  -5.351041e+05
   3.554191e+05  -5.134210e+05
   2.521837e+05  -7.524859e+04
   8.515322e+03   3.102406e+05
  -1.667750e+05   2.554959e+05
  -2.171308e+05  -1.203894e+05
  -1.392704e+05  -3.709098e+05
   5.017144e+04  -2.508136e+05
   2.431838e+05   4.745160e+04
   2.845818e+05   1.784927e+05
   1.495808e+05   5.718119e+04
  -8.818867e+03  -8.152757e+04
  -5.140219e+04  -1.834952e+03
  -2.743244e+04   2.325163e+05
  -8.103038e+04   3.239729e+05
  -2.165719e+05   9.605457e+04
  -2.529494e+05  -2.715106e+05
  -4.861085e+04  -4.131531e+05
   2.742548e+05  -1.765050e+05
   3.971601e+05   2.064657e+05
   1.331822e+05   3.743890e+05
  -3.247094e+05   2.118969e+05
  -5.418711e+05  -8.136637e+04
  -2.844589e+05  -2.519769e+05
   1.962023e+05  -2.299839e+05
   4.032693e+05  -1.087200e+05
   1.447504e+05  -1.747369e+03
  -2.372210e+05   1.846189e+04
  -2.605635e+05  -7.107208e+04
   1.296140e+05  -1.883310e+05
   4.993659e+05  -1.465267e+05
