
 $NMID
 id='ANONYMOUS ', fmtdat='(2E16.6)'
 volume=1.0
 tramp=1.0
 $END
  -3.202656e+07  -8.240727e+05
  -1.948045e+07  -1.895909e+07
   3.519293e+06  -2.124063e+07
   1.545509e+07  -9.491436e+06
   1.004893e+07   2.683862e+06
  -1.247460e+06   5.448757e+06
  -5.916814e+06   2.217932e+05
  -2.447172e+06  -5.537885e+06
   3.122476e+06  -6.323683e+06
   5.731818e+06  -1.835821e+06
   4.252429e+06   3.842967e+06
   3.676766e+05   5.469429e+06
  -2.563738e+06   1.443329e+06
  -1.676646e+06  -3.905219e+06
   2.209717e+06  -4.541052e+06
   4.764440e+06   4.740849e+05
   2.822786e+06   6.055155e+06
  -2.132525e+06   7.068398e+06
  -5.964028e+06   3.349191e+06
  -6.143245e+06  -1.533450e+06
  -3.322725e+06  -4.413280e+06
  -3.465177e+04  -4.503185e+06
   1.264385e+06  -2.969335e+06
   8.534960e+04  -1.831748e+06
  -1.231376e+06  -2.300693e+06
   2.681184e+05  -3.303110e+06
   4.190560e+06  -2.543728e+06
   6.452439e+06   3.674957e+05
   4.152335e+06   2.998043e+06
  -5.283563e+05   3.051275e+06
  -2.938499e+06   1.059446e+06
  -1.489983e+06  -7.540198e+05
   1.260000e+06  -1.091179e+06
   2.402728e+06  -4.399969e+04
   1.511796e+06   1.738308e+06
  -1.806393e+05   2.977906e+06
  -1.445694e+06   2.107401e+06
  -1.501971e+06  -5.770469e+05
  -4.032297e+05  -2.138870e+06
   4.895919e+05  -4.828751e+05
  -2.263868e+05   2.136198e+06
  -1.767072e+06   1.663636e+06
  -1.616100e+06  -1.818075e+06
   1.018523e+06  -3.601242e+06
   3.516461e+06  -7.146785e+05
   2.778798e+06   3.806998e+06
  -9.573546e+05   4.795237e+06
  -4.342862e+06   1.332421e+06
  -4.483191e+06  -2.784275e+06
  -1.452237e+06  -3.933397e+06
   2.216876e+06  -1.991988e+06
   3.679037e+06   7.667205e+05
   1.915281e+06   2.177689e+06
  -1.290043e+06   1.476684e+06
  -2.786865e+06  -4.205275e+05
  -1.315621e+06  -1.561908e+06
   9.973373e+05  -8.382367e+05
   1.261899e+06   6.336707e+05
  -5.069633e+05   8.360412e+05
  -1.574120e+06  -5.171765e+05
  -1.992128e+05  -1.689608e+06
   2.226461e+06  -1.252741e+06
   3.104477e+06   4.371005e+05
   1.524324e+06   2.212667e+06
  -1.317742e+06   3.260907e+06
  -3.607714e+06   2.932345e+06
  -4.105161e+06   7.834043e+05
  -2.642998e+06  -2.288899e+06
  -3.383671e+05  -4.043551e+06
   1.094916e+06  -3.215686e+06
   9.814269e+05  -1.202439e+06
   3.863763e+05  -3.056191e+05
   6.605766e+05  -7.755608e+05
   1.664005e+06  -8.540974e+05
   2.078061e+06   4.308128e+05
   1.180925e+06   1.857654e+06
  -3.876576e+05   1.727100e+06
  -1.454540e+06   2.155623e+01
  -1.264108e+06  -1.794508e+06
   1.943829e+05  -2.186871e+06
   2.055285e+06  -9.012770e+05
   2.859407e+06   1.140395e+06
   1.798715e+06   2.543306e+06
  -1.989112e+05   2.509152e+06
  -1.367794e+06   1.517082e+06
  -1.252007e+06   7.295876e+05
  -1.153041e+06   6.008733e+05
  -2.083121e+06   4.342358e+05
  -3.108536e+06  -5.294890e+05
  -2.488942e+06  -2.023393e+06
  -2.967154e+04  -3.026013e+06
   2.495661e+06  -2.777646e+06
   3.207428e+06  -1.317602e+06
   1.884649e+06   5.716289e+05
  -7.476978e+04   1.701877e+06
  -1.017336e+06   1.287997e+06
  -3.868960e+05  -1.122182e+05
   8.944172e+05  -8.972675e+05
   1.361050e+06  -2.229726e+05
   5.510607e+05   8.684873e+05
  -4.784167e+05   8.109126e+05
  -4.346678e+05  -2.834528e+05
   6.176438e+05  -7.011998e+05
   1.364233e+06   5.346149e+05
   8.129420e+05   2.295521e+06
  -7.268246e+05   2.709963e+06
  -2.180053e+06   1.274908e+06
  -2.673741e+06  -8.462757e+05
  -1.933702e+06  -2.177898e+06
  -3.597068e+05  -2.109557e+06
   1.018933e+06  -1.072853e+06
   1.216734e+06  -8.131042e+04
   3.658778e+05   4.712505e+04
  -2.534981e+05  -5.629652e+05
   2.869261e+05  -9.372111e+05
   1.332030e+06  -3.843117e+05
   1.448779e+06   6.151181e+05
   3.040250e+05   9.947496e+05
  -8.612750e+05   4.273311e+05
  -7.252624e+05  -3.539764e+05
   5.979225e+05  -4.941327e+05
   1.729943e+06   1.436547e+05
   1.456793e+06   1.059903e+06
  -1.432391e+05   1.596030e+06
  -1.784966e+06   1.277821e+06
  -2.096023e+06   1.679996e+05
  -8.695173e+05  -9.255332e+05
   6.809498e+05  -1.025683e+06
   1.078707e+06  -9.186509e+04
   8.132166e+04   7.592960e+05
  -1.127051e+06   4.965722e+05
  -1.271291e+06  -5.817305e+05
  -2.900356e+05  -1.234347e+06
   7.773781e+05  -7.847556e+05
   9.594547e+05   1.681043e+05
   2.377240e+05   5.613273e+05
  -5.493872e+05   4.061432e+04
  -5.041809e+05  -7.871397e+05
   4.824834e+05  -1.030715e+06
   1.513639e+06  -3.267875e+05
   1.474578e+06   8.445916e+05
   2.358418e+05   1.541451e+06
  -1.082189e+06   1.190314e+06
  -1.280928e+06   1.471657e+05
  -3.870194e+05  -6.446804e+05
   4.938641e+05  -6.055498e+05
   5.183162e+05  -3.476925e+04
  -6.486981e+04   3.481629e+05
  -4.411332e+05   2.220242e+05
  -2.176750e+05  -8.250876e+04
   2.738867e+05  -4.878577e+04
   4.160299e+05   4.253006e+05
  -1.156410e+05   8.695307e+05
  -1.029203e+06   6.556333e+05
  -1.543775e+06  -3.451192e+05
  -1.043157e+06  -1.479673e+06
   2.225764e+05  -1.821232e+06
   1.256140e+06  -1.076230e+06
   1.324152e+06   9.262923e+04
   7.068641e+05   7.528986e+05
   2.408345e+05   6.338079e+05
   2.744041e+05   2.549810e+05
   3.778957e+05   2.113635e+05
   4.159364e+04   5.163330e+05
  -6.495987e+05   6.708515e+05
  -1.111245e+06   2.544401e+05
  -8.311315e+05  -5.852234e+05
   1.847846e+05  -1.161583e+06
   1.325766e+06  -8.139691e+05
   1.702062e+06   4.023107e+05
   8.425037e+05   1.587591e+06
  -7.454652e+05   1.746395e+06
  -1.880894e+06   7.628301e+05
  -1.782671e+06  -4.798522e+05
  -7.841735e+05  -1.028649e+06
   1.285326e+05  -7.923110e+05
   3.694610e+05  -4.472872e+05
   1.861612e+05  -5.443768e+05
   1.585122e+05  -9.038981e+05
   5.106235e+05  -8.982274e+05
   9.400150e+05  -1.926473e+05
   9.580496e+05   8.476326e+05
   3.609048e+05   1.436334e+06
  -5.112793e+05   1.060500e+06
  -9.711128e+05  -1.958414e+04
  -5.987671e+05  -9.498966e+05
   2.732139e+05  -1.034280e+06
   8.237301e+05  -3.425857e+05
   5.898405e+05   4.447973e+05
  -4.774875e+04   7.531367e+05
  -3.373034e+05   5.903298e+05
  -4.204170e+04   3.460861e+05
   2.991988e+05   2.795283e+05
   2.463361e+04   2.954976e+05
  -8.367435e+05   1.424406e+05
  -1.497013e+06  -2.786837e+05
  -1.187188e+06  -7.867912e+05
   9.046344e+03  -1.038146e+06
   1.155899e+06  -8.022679e+05
   1.359271e+06  -2.025506e+05
   6.365182e+05   3.229905e+05
  -1.796159e+05   3.895513e+05
  -3.676176e+05   4.228399e+04
   5.350081e+03  -2.734445e+05
   3.593454e+05  -1.686096e+05
   3.439243e+05   2.690370e+05
   1.204046e+05   5.586751e+05
   1.256341e+04   3.613121e+05
   1.136206e+05  -1.017721e+05
   2.585048e+05  -2.522049e+05
   2.107958e+05   1.760506e+05
  -1.564317e+05   7.511245e+05
  -6.974112e+05   7.675071e+05
  -9.645294e+05   6.893886e+04
  -5.576950e+05  -7.042730e+05
   3.362516e+05  -7.975187e+05
   9.144209e+05  -1.765079e+05
   5.269241e+05   4.634598e+05
  -5.310916e+05   4.798328e+05
  -1.213673e+06  -8.598553e+04
  -7.997021e+05  -6.655306e+05
   3.436956e+05  -7.750556e+05
   1.156588e+06  -3.896653e+05
   9.687390e+05   1.420301e+05
   1.121216e+05   4.034137e+05
  -4.912151e+05   2.096521e+05
  -2.673321e+05  -2.144723e+05
   4.732710e+05  -3.532121e+05
   8.802159e+05   1.253763e+05
   4.311428e+05   9.199511e+05
  -5.353573e+05   1.244361e+06
  -1.161086e+06   5.953364e+05
  -9.230159e+05  -6.209220e+05
  -9.852409e+04  -1.367157e+06
   5.960355e+05  -9.818501e+05
   7.052281e+05   1.302092e+05
   3.244186e+05   9.106090e+05
  -1.561829e+05   7.511120e+05
  -4.173654e+05   6.567493e+04
  -3.687429e+05  -3.063181e+05
  -1.487600e+05  -1.204877e+05
  -2.875234e+04   8.104924e+04
  -1.633239e+05  -2.062757e+05
  -3.449167e+05  -7.335061e+05
  -1.509215e+05  -8.302603e+05
   5.106619e+05  -2.901834e+05
   1.108833e+06   3.917975e+05
   9.791386e+05   6.692351e+05
   1.263338e+05   5.263632e+05
  -6.841283e+05   2.887317e+05
  -7.605445e+05   1.218445e+05
  -2.492418e+05  -3.049695e+04
   1.266115e+05  -1.627146e+05
   1.247946e+03  -1.735816e+05
  -2.304860e+05  -1.004274e+05
  -2.107999e+04  -1.028373e+05
   5.416192e+05  -1.438333e+05
   7.848494e+05   4.719948e+04
   2.587901e+05   5.242297e+05
  -6.978003e+05   8.428006e+05
  -1.279166e+06   5.017355e+05
  -1.010657e+06  -3.794584e+05
  -1.552654e+05  -1.073602e+06
   6.073456e+05  -1.007143e+06
   8.043922e+05  -3.553049e+05
   4.913059e+05   2.118957e+05
   7.732542e+04   2.723848e+05
  -8.073466e+04   2.676097e+04
   5.355230e+04  -3.291379e+04
   2.323086e+05   2.777983e+05
   1.768671e+05   6.180472e+05
  -1.597533e+05   5.004802e+05
  -5.148639e+05  -1.311965e+05
  -5.117144e+05  -7.566466e+05
  -2.663458e+04  -7.751430e+05
   5.898966e+05  -1.367072e+05
   7.493225e+05   5.970860e+05
   2.145103e+05   8.283103e+05
  -5.591994e+05   4.702761e+05
  -8.271779e+05  -9.378986e+04
  -3.700837e+05  -4.558343e+05
   2.306852e+05  -4.784262e+05
   2.727107e+05  -2.634225e+05
  -2.106123e+05  -2.591749e+04
  -4.974470e+05   7.109765e+03
  -9.397054e+04  -2.306988e+05
   6.419358e+05  -4.930618e+05
   9.455710e+05  -3.940081e+05
   5.473434e+05   1.326424e+05
  -9.778969e+04   6.431424e+05
  -4.173583e+05   6.228409e+05
  -2.991040e+05   9.506710e+04
  -1.336108e+04  -3.718600e+05
   1.956823e+05  -3.081929e+05
   2.608444e+05   1.425398e+05
   1.724194e+05   4.430513e+05
  -5.530051e+04   3.004150e+05
  -2.918730e+05  -5.381087e+04
  -3.450941e+05  -2.087728e+05
  -1.814755e+05  -6.575707e+04
   1.256647e+04   9.604298e+04
   6.448058e+04  -3.507059e+02
   3.214141e+04  -2.779032e+05
   9.282540e+04  -3.855857e+05
   2.561854e+05  -1.154134e+05
   3.041657e+05   3.213037e+05
   6.218831e+04   4.924444e+05
  -3.263814e+05   2.145000e+05
  -4.779488e+05  -2.416451e+05
  -1.641115e+05  -4.470809e+05
   3.861355e+05  -2.594925e+05
   6.502912e+05   8.923570e+04
   3.448101e+05   2.978617e+05
  -2.308983e+05   2.781353e+05
  -4.806622e+05   1.358510e+05
  -1.725974e+05   5.377883e+03
   2.843536e+05  -2.284386e+04
   3.123989e+05   8.350675e+04
  -1.550033e+05   2.271809e+05
  -5.989157e+05   1.806069e+05
