
 $NMID
 id='ANONYMOUS ', fmtdat='(2E16.6)'
 volume=1.0
 tramp=1.0
 $END
  -2.825806e+07   5.722419e+05
  -1.840687e+07  -1.429044e+07
   9.544682e+05  -1.823052e+07
   1.240668e+07  -1.056619e+07
   9.455030e+06   1.335497e+05
  -8.037171e+03   4.886128e+06
  -5.333233e+06   1.648274e+06
  -3.447992e+06  -4.489872e+06
   1.667966e+06  -6.756916e+06
   5.017311e+06  -2.798716e+06
   4.346229e+06   3.360799e+06
   7.073697e+05   5.406123e+06
  -2.485556e+06   1.373830e+06
  -2.089103e+06  -4.138501e+06
   1.536487e+06  -5.016952e+06
   4.456342e+06  -2.724174e+05
   3.250601e+06   5.324038e+06
  -1.300274e+06   6.719457e+06
  -5.236415e+06   3.369958e+06
  -5.555702e+06  -1.324793e+06
  -2.762662e+06  -3.898757e+06
   1.359979e+05  -3.568100e+06
   5.814672e+05  -2.099558e+06
  -1.148472e+06  -1.739172e+06
  -2.091822e+06  -2.966060e+06
   2.725821e+05  -3.989089e+06
   4.689828e+06  -2.777510e+06
   6.831705e+06   3.950800e+05
   4.124350e+06   3.013462e+06
  -9.414621e+05   3.025247e+06
  -3.463136e+06   8.569825e+05
  -1.594451e+06  -1.359971e+06
   1.900255e+06  -1.817657e+06
   3.333097e+06  -1.658345e+05
   1.905907e+06   2.360827e+06
  -4.283182e+05   3.531904e+06
  -1.594343e+06   1.937215e+06
  -1.098647e+06  -1.026258e+06
   9.873210e+04  -2.035856e+06
   5.694585e+05   1.895400e+05
  -3.604352e+05   2.759534e+06
  -1.760430e+06   2.025556e+06
  -1.778349e+06  -1.440485e+06
   2.396536e+05  -3.270936e+06
   2.538782e+06  -9.230035e+05
   2.521895e+06   3.031489e+06
  -3.881118e+05   4.179062e+06
  -3.849263e+06   1.436700e+06
  -4.728554e+06  -2.301558e+06
  -2.065833e+06  -3.802429e+06
   1.971958e+06  -2.421350e+06
   3.985441e+06   1.768548e+05
   2.435774e+06   1.877013e+06
  -8.920980e+05   1.606649e+06
  -2.673332e+06  -2.442155e+04
  -1.482558e+06  -1.252210e+06
   8.248990e+05  -8.686019e+05
   1.447840e+06   4.670821e+05
  -6.264181e+04   1.050921e+06
  -1.492793e+06   1.978045e+05
  -8.198921e+05  -1.071459e+06
   1.400675e+06  -1.346923e+06
   2.777485e+06  -1.980737e+05
   1.693281e+06   1.743125e+06
  -1.194569e+06   3.286189e+06
  -3.736880e+06   3.149266e+06
  -4.204255e+06   8.522043e+05
  -2.604346e+06  -2.345173e+06
  -4.615132e+05  -4.124376e+06
   6.809146e+05  -3.430555e+06
   6.547476e+05  -1.654945e+06
   5.413310e+05  -8.296261e+05
   1.204221e+06  -1.088124e+06
   2.230465e+06  -8.302888e+05
   2.464160e+06   7.487370e+05
   1.333150e+06   2.346755e+06
  -5.517374e+05   2.151831e+06
  -1.899402e+06   8.525016e+04
  -1.672650e+06  -2.072818e+06
   1.307973e+05  -2.510332e+06
   2.254929e+06  -9.756999e+05
   3.000931e+06   1.237446e+06
   1.783746e+06   2.540966e+06
  -1.771352e+05   2.351489e+06
  -1.178349e+06   1.398643e+06
  -1.009281e+06   8.033476e+05
  -1.040342e+06   8.485230e+05
  -2.189452e+06   7.705357e+05
  -3.437474e+06  -2.305590e+05
  -2.930303e+06  -1.973923e+06
  -3.155394e+05  -3.362144e+06
   2.590998e+06  -3.311390e+06
   3.569337e+06  -1.642496e+06
   2.141093e+06   6.534221e+05
  -1.154322e+05   1.990545e+06
  -1.180520e+06   1.464964e+06
  -4.324307e+05  -1.565733e+05
   9.807930e+05  -1.055410e+06
   1.460926e+06  -3.352676e+05
   5.998437e+05   9.063286e+05
  -5.220915e+05   9.620608e+05
  -6.137271e+05  -2.425745e+05
   4.348694e+05  -9.788760e+05
   1.505953e+06   9.230882e+04
   1.403106e+06   2.175725e+06
  -9.380273e+04   3.189332e+06
  -2.093355e+06   2.026695e+06
  -3.233003e+06  -4.156675e+05
  -2.637805e+06  -2.281658e+06
  -6.907352e+05  -2.456865e+06
   1.100277e+06  -1.318752e+06
   1.401949e+06  -1.631558e+05
   4.160515e+05   2.164441e+04
  -3.374333e+05  -6.041699e+05
   2.040565e+05  -1.024199e+06
   1.375563e+06  -5.293549e+05
   1.626105e+06   4.900727e+05
   4.606247e+05   1.020524e+06
  -9.008635e+05   5.769492e+05
  -9.073103e+05  -3.123997e+05
   5.629165e+05  -7.069133e+05
   2.024808e+06  -1.398095e+05
   1.895501e+06   1.031260e+06
   8.351157e+04   1.903803e+06
  -1.894823e+06   1.686147e+06
  -2.354311e+06   4.059340e+05
  -1.044315e+06  -9.236940e+05
   6.531608e+05  -1.143256e+06
   1.129659e+06  -1.715786e+05
   1.120906e+05   8.095906e+05
  -1.206439e+06   6.393787e+05
  -1.479272e+06  -5.014693e+05
  -5.033704e+05  -1.340061e+06
   7.335151e+05  -1.011609e+06
   1.099487e+06   1.346660e+04
   3.765122e+05   5.696598e+05
  -5.681820e+05   1.013383e+05
  -6.141013e+05  -8.289459e+05
   4.715336e+05  -1.187675e+06
   1.680079e+06  -4.742685e+05
   1.716924e+06   8.335189e+05
   3.977132e+05   1.697255e+06
  -1.082265e+06   1.426555e+06
  -1.409124e+06   3.056654e+05
  -5.192314e+05  -6.687095e+05
   4.806497e+05  -7.403673e+05
   6.190237e+05  -8.833853e+04
   3.197451e+03   4.621607e+05
  -5.213075e+05   3.712979e+05
  -3.706667e+05  -7.490384e+04
   2.284860e+05  -1.703830e+05
   5.282194e+05   3.539144e+05
   4.132049e+03   9.643116e+05
  -1.073517e+06   8.416641e+05
  -1.763098e+06  -2.388805e+05
  -1.299057e+06  -1.566352e+06
   8.735964e+04  -2.085258e+06
   1.319350e+06  -1.379323e+06
   1.547730e+06  -6.455400e+04
   9.537409e+05   8.223557e+05
   3.732915e+05   8.119269e+05
   2.794379e+05   3.492115e+05
   3.624865e+05   1.879401e+05
   7.368383e+04   5.288819e+05
  -6.443187e+05   8.242228e+05
  -1.238107e+06   4.307468e+05
  -1.049051e+06  -5.904770e+05
   5.612293e+04  -1.385222e+06
   1.421002e+06  -1.084729e+06
   1.979041e+06   2.831627e+05
   1.128454e+06   1.694193e+06
  -6.238350e+05   2.020461e+06
  -1.998495e+06   1.064641e+06
  -2.072217e+06  -3.102840e+05
  -1.066916e+06  -1.071462e+06
   1.220397e+04  -9.744859e+05
   4.201026e+05  -6.174911e+05
   2.629162e+05  -6.368618e+05
   1.573942e+05  -9.787184e+05
   4.858925e+05  -1.008358e+06
   1.013007e+06  -2.800470e+05
   1.140839e+06   8.799206e+05
   5.259199e+05   1.593115e+06
  -4.921881e+05   1.242513e+06
  -1.101260e+06   7.793153e+04
  -7.724843e+05  -9.852666e+05
   1.685274e+05  -1.177786e+06
   8.330522e+05  -5.082235e+05
   6.837644e+05   3.616630e+05
   6.649623e+04   7.941774e+05
  -2.487610e+05   6.940088e+05
   1.985548e+04   4.204484e+05
   3.502246e+05   3.086091e+05
   4.524418e+04   3.399122e+05
  -9.023903e+05   2.404007e+05
  -1.672105e+06  -1.720762e+05
  -1.403162e+06  -7.555963e+05
  -1.234607e+05  -1.127246e+06
   1.178564e+06  -9.813382e+05
   1.488790e+06  -3.805070e+05
   7.540324e+05   2.409116e+05
  -1.474180e+05   4.210961e+05
  -3.895250e+05   1.036505e+05
   7.917573e+03  -2.737129e+05
   4.135674e+05  -2.133197e+05
   4.039733e+05   2.764179e+05
   1.385969e+05   6.414660e+05
   1.111932e+03   4.170341e+05
   1.197639e+05  -1.585884e+05
   3.002288e+05  -3.536944e+05
   2.614534e+05   1.737629e+05
  -1.327171e+05   8.815820e+05
  -7.198346e+05   9.170296e+05
  -1.031489e+06   1.202256e+05
  -6.342152e+05  -7.576808e+05
   3.181123e+05  -8.843011e+05
   9.920776e+05  -2.263862e+05
   6.297930e+05   4.948592e+05
  -5.441150e+05   5.960090e+05
  -1.395975e+06   3.937959e+04
  -1.024340e+06  -6.592652e+05
   2.668895e+05  -9.390395e+05
   1.275867e+06  -6.123382e+05
   1.146216e+06   3.290018e+04
   1.891425e+05   4.540231e+05
  -5.276281e+05   3.025337e+05
  -3.028020e+05  -2.063518e+05
   5.313495e+05  -4.198455e+05
   1.007166e+06   1.039736e+05
   5.243856e+05   1.030004e+06
  -5.561559e+05   1.442948e+06
  -1.295089e+06   7.423814e+05
  -1.098632e+06  -6.453491e+05
  -2.217605e+05  -1.555019e+06
   5.902453e+05  -1.190958e+06
   8.161798e+05   5.588160e+04
   4.775716e+05   9.971450e+05
  -6.881170e+04   8.833761e+05
  -4.534221e+05   1.258435e+05
  -4.759036e+05  -3.189108e+05
  -2.139628e+05  -1.298139e+05
  -1.139859e+04   1.029815e+05
  -1.519410e+05  -2.046483e+05
  -4.347654e+05  -7.966289e+05
  -2.836009e+05  -9.318252e+05
   5.081777e+05  -3.736957e+05
   1.300139e+06   3.512718e+05
   1.207507e+06   6.715736e+05
   1.916021e+05   5.785569e+05
  -7.869167e+05   3.867559e+05
  -8.645140e+05   2.171695e+05
  -2.546146e+05   2.052537e+03
   1.438383e+05  -1.938406e+05
  -5.540088e+04  -2.111876e+05
  -3.154231e+05  -1.115716e+05
  -1.616122e+04  -1.201491e+05
   6.510713e+05  -1.976028e+05
   8.914113e+05   4.842700e+03
   2.724143e+05   5.770812e+05
  -7.696557e+05   9.924818e+05
  -1.388998e+06   6.345406e+05
  -1.128556e+06  -3.837232e+05
  -2.444170e+05  -1.216546e+06
   6.019621e+05  -1.174747e+06
   8.890057e+05  -4.369976e+05
   5.837122e+05   2.249470e+05
   9.060466e+04   3.052373e+05
  -1.294969e+05   1.751441e+04
   4.039118e+04  -6.768434e+04
   3.026930e+05   2.816364e+05
   2.653324e+05   6.848682e+05
  -1.526471e+05   5.726488e+05
  -6.068319e+05  -1.362386e+05
  -6.181315e+05  -8.510628e+05
  -4.317490e+04  -8.803855e+05
   6.898556e+05  -1.645958e+05
   8.881630e+05   6.597375e+05
   2.790894e+05   9.260853e+05
  -6.106263e+05   5.472075e+05
  -9.279995e+05  -5.908549e+04
  -4.271944e+05  -4.659897e+05
   2.289190e+05  -5.236279e+05
   2.584093e+05  -3.056813e+05
  -2.791278e+05  -2.187075e+04
  -5.745483e+05   4.097814e+04
  -1.103754e+05  -2.498170e+05
   6.907303e+05  -6.129527e+05
   1.008465e+06  -5.406758e+05
   5.907938e+05   8.672607e+04
  -6.830317e+04   7.234458e+05
  -3.978701e+05   7.184242e+05
  -3.005965e+05   9.842414e+04
  -2.605928e+04  -4.390476e+05
   2.092180e+05  -3.458557e+05
   3.138318e+05   1.743164e+05
   2.235477e+05   4.922518e+05
  -5.405672e+04   3.169138e+05
  -3.361397e+05  -5.402386e+04
  -3.921615e+05  -1.906879e+05
  -2.072878e+05  -4.101649e+04
   8.814637e+02   8.525896e+04
   6.421455e+04  -5.775306e+04
   5.785105e+04  -3.459656e+05
   1.469170e+05  -4.190540e+05
   3.124672e+05  -9.365339e+04
   3.316948e+05   3.883073e+05
   4.942483e+04   5.689815e+05
  -3.741803e+05   2.536991e+05
  -5.417656e+05  -2.649802e+05
  -2.039895e+05  -5.115956e+05
   4.105137e+05  -3.161151e+05
   7.276039e+05   7.217990e+04
   4.033245e+05   3.156158e+05
  -2.460109e+05   3.078068e+05
  -5.318835e+05   1.572790e+05
  -1.706742e+05   9.144867e+03
   3.614963e+05  -2.575217e+04
   3.807944e+05   1.067796e+05
  -1.856174e+05   2.958000e+05
  -7.157332e+05   2.545800e+05
