
 $NMID
 id='ANONYMOUS ', fmtdat='(2E16.6)'
 volume=1.0
 tramp=1.0
 $END
   1.493594e+07   3.804570e+05
   8.577073e+06   9.782340e+06
  -2.518146e+06   1.012411e+07
  -7.506653e+06   3.344914e+06
  -4.139748e+06  -2.311233e+06
   1.111602e+06  -2.404683e+06
   2.515487e+06   6.255136e+05
   4.449978e+05   2.616921e+06
  -1.821546e+06   2.184986e+06
  -2.519528e+06   2.778014e+05
  -1.731980e+06  -1.640851e+06
  -1.556430e+05  -2.159043e+06
   1.019870e+06  -7.156733e+05
   6.073815e+05   1.285563e+06
  -1.043979e+06   1.515348e+06
  -2.007725e+06  -4.954940e+05
  -1.011119e+06  -2.691393e+06
   1.121503e+06  -3.008810e+06
   2.687777e+06  -1.469282e+06
   2.847790e+06   5.674056e+05
   1.783063e+06   2.016797e+06
   1.783815e+05   2.395121e+06
  -9.215574e+05   1.681671e+06
  -7.345652e+05   6.248650e+05
   1.425873e+05   3.386952e+05
   1.246191e+05   9.033230e+05
  -1.224050e+06   1.109209e+06
  -2.355280e+06   1.889529e+05
  -1.798863e+06  -1.016465e+06
  -1.693365e+05  -1.309788e+06
   8.288502e+05  -7.409784e+05
   6.422040e+05  -1.509399e+05
   3.746465e+04   1.241354e+05
  -3.641715e+05   1.670720e+05
  -5.153450e+05  -1.933413e+05
  -2.789826e+05  -8.868861e+05
   4.212376e+05  -1.025824e+06
   9.337396e+05  -5.528467e+04
   5.460949e+05   9.674293e+05
  -2.166057e+05   6.391376e+05
  -1.650285e+05  -4.932933e+05
   5.911092e+05  -5.110189e+05
   5.683015e+05   8.692235e+05
  -7.828715e+05   1.575577e+06
  -1.947528e+06   1.688389e+05
  -1.317892e+06  -1.915800e+06
   6.190188e+05  -2.253205e+06
   1.966186e+06  -5.783629e+05
   1.683696e+06   1.189673e+06
   3.437309e+05   1.505420e+06
  -8.942362e+05   5.871127e+05
  -1.228608e+06  -4.765222e+05
  -4.917834e+05  -9.045919e+05
   6.803368e+05  -5.086804e+05
   1.144634e+06   3.116847e+05
   4.450094e+05   7.367735e+05
  -4.643986e+05   3.336593e+05
  -3.920474e+05  -2.778325e+05
   4.121658e+05  -1.614711e+05
   6.022405e+05   5.933164e+05
  -3.172737e+05   9.626612e+05
  -1.332774e+06   4.209819e+05
  -1.371608e+06  -4.831025e+05
  -5.307189e+05  -1.086533e+06
   4.643005e+05  -1.321649e+06
   1.208739e+06  -1.200393e+06
   1.533575e+06  -4.517903e+05
   1.179143e+06   7.741049e+05
   2.364187e+05   1.531367e+06
  -5.307110e+05   1.138603e+06
  -4.830628e+05   1.964562e+05
   2.410623e+04  -1.652636e+05
   1.465263e+05   2.158152e+05
  -2.804930e+05   4.995451e+05
  -6.495605e+05   1.627430e+05
  -5.193093e+05  -3.682051e+05
  -7.622849e+04  -4.638072e+05
   2.927345e+05  -6.801324e+04
   3.630802e+05   4.351460e+05
   1.761194e+04   6.709297e+05
  -6.482366e+05   4.251924e+05
  -1.112320e+06  -2.574349e+05
  -8.307235e+05  -9.432617e+05
   1.084221e+04  -1.103034e+06
   6.162245e+05  -7.085894e+05
   6.094822e+05  -2.637111e+05
   4.711306e+05  -1.183498e+05
   7.009077e+05  -6.498819e+04
   1.016567e+06   2.237020e+05
   7.954939e+05   6.749506e+05
   5.104373e+03   9.580265e+05
  -7.490613e+05   8.922875e+05
  -9.562695e+05   5.052794e+05
  -6.272225e+05  -6.454870e+04
  -1.047549e+05  -5.081865e+05
   2.272846e+05  -4.683220e+05
   1.367700e+05  -5.414292e+03
  -2.441807e+05   3.083273e+05
  -4.559608e+05   8.960548e+04
  -2.307161e+05  -2.930335e+05
   1.090842e+05  -2.557135e+05
   6.846440e+04   9.537182e+04
  -2.920939e+05   1.081372e+05
  -4.174897e+05  -4.109694e+05
  -3.725221e+04  -8.752879e+05
   5.042864e+05  -7.278233e+05
   7.680350e+05  -1.212976e+05
   6.965656e+05   4.178524e+05
   4.392721e+05   6.290227e+05
   7.255481e+04   5.663994e+05
  -2.785107e+05   3.285398e+05
  -3.561792e+05   5.711289e+04
  -1.134465e+05  -1.265365e+04
   7.789428e+04   1.768177e+05
  -1.149220e+05   3.200365e+05
  -4.680500e+05   1.243817e+05
  -4.760472e+05  -2.381756e+05
  -6.929260e+04  -3.462392e+05
   2.801323e+05  -1.186707e+05
   1.849885e+05   1.116625e+05
  -2.105956e+05   8.457973e+04
  -4.741481e+05  -1.216512e+05
  -3.487425e+05  -3.205953e+05
   8.988557e+04  -4.206986e+05
   5.353711e+05  -3.450737e+05
   6.364913e+05  -4.128622e+04
   2.765749e+05   3.103439e+05
  -2.300857e+05   3.604450e+05
  -3.837475e+05   3.898969e+04
  -5.173031e+04  -2.637145e+05
   3.599393e+05  -1.668266e+05
   3.910644e+05   2.006265e+05
   4.914675e+04   3.854990e+05
  -2.734300e+05   1.987041e+05
  -2.815721e+05  -1.036316e+05
  -3.346749e+04  -1.894249e+05
   1.967823e+05  -3.604096e+03
   1.704621e+05   2.519149e+05
  -1.355182e+05   3.315532e+05
  -4.666700e+05   1.235124e+05
  -4.708479e+05  -2.499506e+05
  -7.846949e+04  -4.862359e+05
   3.501064e+05  -3.729414e+05
   4.037694e+05  -3.106887e+04
   1.026804e+05   2.079255e+05
  -1.613223e+05   1.765500e+05
  -1.353843e+05   1.613555e+04
   3.801228e+04  -6.118087e+04
   9.648816e+04  -2.492929e+04
  -5.817872e+03   7.733754e+03
  -1.187967e+05  -5.105047e+04
  -1.039950e+05  -1.816181e+05
   7.188922e+04  -2.764044e+05
   3.307445e+05  -1.943264e+05
   4.793067e+05   1.102328e+05
   3.299369e+05   4.586006e+05
  -6.163145e+04   5.534858e+05
  -3.761253e+05   3.019117e+05
  -3.721110e+05  -4.920412e+04
  -1.698141e+05  -1.946344e+05
  -6.466412e+04  -1.148589e+05
  -1.296107e+05  -3.174024e+04
  -1.654350e+05  -8.561520e+04
  -1.927307e+04  -1.921650e+05
   2.141638e+05  -1.984203e+05
   3.302677e+05  -5.487524e+04
   2.211802e+05   1.666631e+05
  -7.538758e+04   3.148441e+05
  -3.994816e+05   2.241119e+05
  -5.073839e+05  -1.266945e+05
  -2.385121e+05  -4.932639e+05
   2.633442e+05  -5.403901e+05
   6.044215e+05  -2.105473e+05
   5.280499e+05   1.833620e+05
   1.859209e+05   3.126519e+05
  -6.564472e+04   1.925717e+05
  -7.437886e+04   9.525255e+04
   8.067432e+03   1.780775e+05
  -1.673213e+04   3.204740e+05
  -1.670278e+05   3.074994e+05
  -3.097449e+05   7.119382e+04
  -3.080157e+05  -2.537245e+05
  -1.221109e+05  -4.382793e+05
   1.472481e+05  -3.285471e+05
   2.940170e+05   1.046752e+04
   1.749354e+05   3.084076e+05
  -1.116149e+05   3.203372e+05
  -2.857241e+05   6.909794e+04
  -1.836772e+05  -1.916702e+05
   5.329602e+04  -2.609940e+05
   1.507394e+05  -1.727118e+05
   3.052430e+04  -8.522629e+04
  -1.031875e+05  -7.443094e+04
  -1.515914e+04  -8.665432e+04
   2.738181e+05  -3.928629e+04
   4.852926e+05   9.207339e+04
   3.675426e+05   2.548363e+05
  -3.092988e+04   3.407300e+05
  -3.894092e+05   2.592771e+05
  -4.290271e+05   4.412148e+04
  -1.829281e+05  -1.371907e+05
   7.134609e+04  -1.386421e+05
   1.228323e+05   3.097319e+03
   1.048605e+04   1.095761e+05
  -9.693756e+04   6.184921e+04
  -1.121097e+05  -8.050727e+04
  -7.092557e+04  -1.644298e+05
  -3.446583e+04  -1.108360e+05
  -2.956625e+04   1.097302e+04
  -5.301541e+04   5.410461e+04
  -5.943623e+04  -5.620982e+04
   2.869238e+04  -2.220707e+05
   2.124825e+05  -2.449221e+05
   3.332831e+05  -4.395352e+04
   2.109798e+05   2.147344e+05
  -1.009993e+05   2.754803e+05
  -3.026891e+05   8.733721e+04
  -1.698134e+05  -1.298448e+05
   1.681745e+05  -1.430082e+05
   3.575883e+05   3.711570e+04
   2.063957e+05   2.056361e+05
  -1.302576e+05   2.111452e+05
  -3.408438e+05   8.143997e+04
  -2.673278e+05  -6.003155e+04
  -2.058219e+04  -1.143564e+05
   1.519050e+05  -5.125453e+04
   9.219066e+04   7.471240e+04
  -1.293104e+05   1.269090e+05
  -2.747200e+05  -9.926013e+03
  -1.669255e+05  -2.685282e+05
   1.226667e+05  -3.983024e+05
   3.358312e+05  -2.123796e+05
   2.883289e+05   1.707430e+05
   4.477465e+04   4.081949e+05
  -1.723907e+05   2.858707e+05
  -2.076540e+05  -5.378486e+04
  -8.375339e+04  -2.752208e+05
   6.732800e+04  -2.119564e+05
   1.330720e+05  -1.091141e+04
   9.504739e+04   8.448907e+04
   2.526980e+04   2.711154e+04
   1.579229e+04  -1.754886e+04
   8.019131e+04   7.826528e+04
   1.205748e+05   2.270605e+05
   2.615497e+04   2.437539e+05
  -1.817276e+05   8.446674e+04
  -3.343763e+05  -1.096882e+05
  -2.770044e+05  -1.939507e+05
  -3.864599e+04  -1.635091e+05
   1.841183e+05  -9.671677e+04
   2.209292e+05  -3.504991e+04
   9.273781e+04   2.145420e+04
  -2.892796e+04   5.325568e+04
  -2.313045e+04   3.818312e+04
   4.512742e+04   1.199211e+04
   1.794384e+04   3.015511e+04
  -1.351990e+05   6.135319e+04
  -2.432180e+05   1.618350e+03
  -1.233043e+05  -1.641466e+05
   1.790272e+05  -2.820302e+05
   4.035662e+05  -1.851495e+05
   3.462540e+05   9.148174e+04
   7.024871e+04   3.212872e+05
  -1.814758e+05   3.219910e+05
  -2.428571e+05   1.355356e+05
  -1.492839e+05  -4.372812e+04
  -3.818060e+04  -8.336719e+04
   2.372193e+03  -2.644415e+04
  -2.325639e+04  -8.004691e+03
  -6.095385e+04  -8.916904e+04
  -5.025551e+04  -1.856821e+05
   3.776855e+04  -1.604878e+05
   1.545763e+05   1.555509e+04
   1.821896e+05   2.079602e+05
   4.643526e+04   2.408497e+05
  -1.642166e+05   7.513618e+04
  -2.461063e+05  -1.498306e+05
  -9.281389e+04  -2.523704e+05
   1.615953e+05  -1.698496e+05
   2.666181e+05   1.136667e+04
   1.321050e+05   1.526029e+05
  -6.750657e+04   1.719142e+05
  -1.009920e+05   8.791625e+04
   4.229300e+04  -5.280462e+03
   1.458289e+05  -1.278935e+04
   3.932326e+04   7.414997e+04
  -1.892293e+05   1.554347e+05
  -3.018337e+05   1.136297e+05
  -1.903763e+05  -5.306107e+04
   1.999279e+04  -2.067840e+05
   1.399534e+05  -2.035261e+05
   1.140769e+05  -4.806399e+04
   2.190690e+04   1.045878e+05
  -5.202453e+04   1.094677e+05
  -8.158815e+04  -1.933368e+04
  -6.198761e+04  -1.322469e+05
   8.426498e+03  -1.116836e+05
   9.131317e+04   3.356578e+03
   1.144677e+05   7.388995e+04
   5.563561e+04   3.053914e+04
  -1.454631e+04  -4.607371e+04
  -1.778078e+04  -3.266719e+04
   2.377752e+04   7.380035e+04
   1.652052e+04   1.444978e+05
  -6.591926e+04   7.766088e+04
  -1.266924e+05  -7.075205e+04
  -6.322795e+04  -1.485322e+05
   8.657759e+04  -8.123282e+04
   1.642759e+05   5.380930e+04
   6.791204e+04   1.263362e+05
  -1.205716e+05   8.753574e+04
  -2.128711e+05  -9.081120e+03
  -1.159228e+05  -8.574255e+04
   6.739985e+04  -1.040447e+05
   1.516422e+05  -6.752161e+04
   6.928718e+04  -6.500907e+03
  -6.451892e+04   2.962420e+04
  -8.907808e+04   3.247115e+03
   2.413899e+04  -5.885777e+04
   1.491834e+05  -6.698199e+04
