
 $NMID
 id='ANONYMOUS ', fmtdat='(2E16.6)'
 volume=1.0
 tramp=1.0
 $END
  -5.402692e+07   6.777150e+05
  -3.334687e+07  -3.162222e+07
   5.542524e+06  -3.611068e+07
   2.557529e+07  -1.577892e+07
   1.634355e+07   4.923440e+06
  -2.297443e+06   9.029300e+06
  -9.573293e+06   1.405542e+04
  -3.728153e+06  -9.095191e+06
   5.118437e+06  -9.977035e+06
   9.279798e+06  -2.868102e+06
   7.170603e+06   5.998499e+06
   1.020875e+06   8.771829e+06
  -4.047068e+06   2.673732e+06
  -2.980958e+06  -5.868564e+06
   3.344198e+06  -7.146054e+06
   7.783621e+06   7.510330e+05
   4.840850e+06   9.829395e+06
  -3.227934e+06   1.171882e+07
  -9.720142e+06   5.943448e+06
  -1.045828e+07  -2.028322e+06
  -6.141227e+06  -7.219218e+06
  -4.724901e+05  -7.931501e+06
   2.346854e+06  -5.348936e+06
   7.346548e+05  -2.729118e+06
  -1.882474e+06  -2.936058e+06
  -1.364263e+05  -4.940986e+06
   6.100425e+06  -4.596958e+06
   1.025610e+07  -2.938891e+05
   7.108235e+06   4.351903e+06
  -2.273753e+05   5.125613e+06
  -4.343682e+06   2.332351e+06
  -2.588128e+06  -6.253885e+05
   1.316493e+06  -1.612010e+06
   3.258378e+06  -5.135406e+05
   2.559552e+06   2.137659e+06
   3.613496e+05   4.552816e+06
  -2.036991e+06   3.733473e+06
  -2.874261e+06  -5.670064e+05
  -1.207308e+06  -3.607034e+06
   8.510525e+05  -1.292156e+06
   1.314675e+05   3.119725e+06
  -2.576061e+06   2.671848e+06
  -2.638148e+06  -2.951917e+06
   1.797573e+06  -5.971346e+06
   6.182860e+06  -1.202560e+06
   4.928332e+06   6.390992e+06
  -1.492497e+06   8.131607e+06
  -7.161938e+06   2.488840e+06
  -7.315358e+06  -4.217849e+06
  -2.397602e+06  -6.125643e+06
   3.400283e+06  -3.156257e+06
   5.706338e+06   1.100960e+06
   2.955648e+06   3.360511e+06
  -2.133316e+06   2.366060e+06
  -4.538231e+06  -6.269566e+05
  -2.135907e+06  -2.528689e+06
   1.616290e+06  -1.416121e+06
   1.959750e+06   9.346443e+05
  -9.506910e+05   1.167137e+06
  -2.485557e+06  -1.126110e+06
   2.500251e+04  -2.953490e+06
   3.960189e+06  -2.029761e+06
   5.131229e+06   8.241519e+05
   2.508452e+06   3.659300e+06
  -1.816316e+06   5.391349e+06
  -5.354380e+06   5.073582e+06
  -6.473132e+06   1.741065e+06
  -4.593257e+06  -3.363303e+06
  -9.744283e+05  -6.425413e+06
   1.599452e+06  -5.098731e+06
   1.543150e+06  -1.693824e+06
   3.606179e+05  -2.430506e+05
   5.501738e+05  -1.268763e+06
   2.233387e+06  -1.738580e+06
   3.247407e+06   1.474440e+05
   2.160064e+06   2.513945e+06
  -2.081762e+05   2.612000e+06
  -2.048494e+06   2.320294e+05
  -2.070523e+06  -2.472959e+06
   1.156106e+04  -3.341476e+06
   3.073202e+06  -1.708851e+06
   4.700874e+06   1.405820e+06
   3.227052e+06   3.908323e+06
  -7.465412e+04   4.183130e+06
  -2.184613e+06   2.649322e+06
  -2.077762e+06   1.223258e+06
  -1.805665e+06   9.239019e+05
  -3.168560e+06   7.635421e+05
  -4.810975e+06  -5.944853e+05
  -3.977297e+06  -2.899611e+06
  -3.116725e+05  -4.609157e+06
   3.513370e+06  -4.478169e+06
   4.722423e+06  -2.400373e+06
   2.976658e+06   5.824917e+05
   1.817787e+05   2.589696e+06
  -1.343830e+06   2.135775e+06
  -6.223652e+05  -9.461870e+04
   1.245013e+06  -1.480689e+06
   2.084988e+06  -4.783733e+05
   9.755054e+05   1.303417e+06
  -6.108064e+05   1.285462e+06
  -6.129526e+05  -3.871716e+05
   9.628796e+05  -9.856959e+05
   2.071005e+06   9.496599e+05
   1.183267e+06   3.548687e+06
  -1.137790e+06   4.010051e+06
  -3.244971e+06   1.822176e+06
  -3.965113e+06  -1.186555e+06
  -2.967045e+06  -3.052694e+06
  -7.099069e+05  -3.067451e+06
   1.407966e+06  -1.722042e+06
   1.821657e+06  -2.714717e+05
   5.598299e+05   3.629236e+04
  -4.346507e+05  -8.334195e+05
   3.829980e+05  -1.475333e+06
   2.046178e+06  -7.004697e+05
   2.275087e+06   8.571969e+05
   5.187195e+05   1.518199e+06
  -1.279514e+06   7.097767e+05
  -1.089445e+06  -4.662328e+05
   8.775846e+05  -7.257765e+05
   2.557673e+06   1.333956e+05
   2.197140e+06   1.449932e+06
  -1.088838e+05   2.347190e+06
  -2.564351e+06   2.048818e+06
  -3.148929e+06   4.356537e+05
  -1.406970e+06  -1.351821e+06
   9.676443e+05  -1.660583e+06
   1.683253e+06  -2.403406e+05
   2.161851e+05   1.179583e+06
  -1.678382e+06   8.678668e+05
  -1.975035e+06  -7.884817e+05
  -5.079240e+05  -1.842748e+06
   1.135543e+06  -1.208057e+06
   1.445387e+06   2.204543e+05
   3.661197e+05   8.398090e+05
  -8.564509e+05   9.752307e+04
  -8.501216e+05  -1.159072e+06
   6.253352e+05  -1.622594e+06
   2.267653e+06  -6.572938e+05
   2.330504e+06   1.137209e+06
   5.019896e+05   2.327235e+06
  -1.550372e+06   1.905973e+06
  -1.935027e+06   3.227653e+05
  -6.260010e+05  -9.488551e+05
   7.011812e+05  -9.503793e+05
   7.570759e+05  -1.100388e+05
  -7.791338e+04   4.807273e+05
  -5.982327e+05   3.365362e+05
  -2.619307e+05  -7.370435e+04
   4.362218e+05  -2.183775e+04
   6.343074e+05   6.568365e+05
  -1.366188e+05   1.330863e+06
  -1.513086e+06   1.076319e+06
  -2.373636e+06  -3.873056e+05
  -1.723809e+06  -2.151374e+06
   1.628354e+05  -2.772743e+06
   1.788707e+06  -1.715020e+06
   1.972854e+06   3.603289e+04
   1.094404e+06   1.028449e+06
   4.259237e+05   8.506744e+05
   4.951755e+05   3.188570e+05
   6.407698e+05   3.162017e+05
   1.111084e+05   8.150979e+05
  -9.370064e+05   1.064100e+06
  -1.643512e+06   4.631452e+05
  -1.277157e+06  -7.906767e+05
   1.869959e+05  -1.727355e+06
   1.920504e+06  -1.326589e+06
   2.596648e+06   4.548484e+05
   1.397640e+06   2.329583e+06
  -1.007053e+06   2.710614e+06
  -2.802996e+06   1.296470e+06
  -2.715988e+06  -5.993418e+05
  -1.222803e+06  -1.473209e+06
   1.418336e+05  -1.152492e+06
   4.695801e+05  -6.723694e+05
   1.641480e+05  -8.639706e+05
   1.306510e+05  -1.434487e+06
   7.076063e+05  -1.438788e+06
   1.430352e+06  -3.867016e+05
   1.543758e+06   1.191346e+06
   6.899592e+05   2.140732e+06
  -6.674432e+05   1.657057e+06
  -1.466852e+06   5.486585e+04
  -9.807487e+05  -1.399985e+06
   3.495489e+05  -1.589088e+06
   1.244922e+06  -5.495212e+05
   9.269309e+05   6.791518e+05
  -5.011761e+04   1.169909e+06
  -5.059404e+05   9.073161e+05
  -4.738057e+04   5.023073e+05
   4.924896e+05   3.857260e+05
   7.297847e+04   4.420768e+05
  -1.271225e+06   2.841881e+05
  -2.318208e+06  -2.969120e+05
  -1.870085e+06  -1.097720e+06
  -4.706442e+04  -1.591283e+06
   1.716057e+06  -1.327987e+06
   2.048954e+06  -4.092568e+05
   9.732880e+05   4.695587e+05
  -2.570521e+05   6.237746e+05
  -5.606522e+05   7.856998e+04
  -2.535184e+04  -4.440336e+05
   5.161730e+05  -3.010887e+05
   5.525759e+05   3.749259e+05
   2.707370e+05   8.331234e+05
   8.473686e+04   5.510378e+05
   1.536184e+05  -1.435855e+05
   3.361354e+05  -3.848470e+05
   3.290117e+05   2.487439e+05
  -1.463270e+05   1.145516e+06
  -9.857272e+05   1.235655e+06
  -1.497581e+06   2.102713e+05
  -9.512958e+05  -1.020623e+06
   4.392519e+05  -1.271221e+06
   1.397515e+06  -3.822627e+05
   8.507275e+05   6.417460e+05
  -7.651346e+05   7.693793e+05
  -1.827452e+06  -2.853405e+04
  -1.229260e+06  -9.294978e+05
   4.716877e+05  -1.171820e+06
   1.693806e+06  -6.568623e+05
   1.444575e+06   1.392076e+05
   1.933222e+05   5.880147e+05
  -7.235018e+05   3.479822e+05
  -4.336072e+05  -3.115214e+05
   6.703394e+05  -6.003839e+05
   1.353728e+06   7.976289e+04
   7.759654e+05   1.344522e+06
  -6.552890e+05   1.957313e+06
  -1.686645e+06   1.042374e+06
  -1.462757e+06  -8.355568e+05
  -2.912570e+05  -2.051069e+06
   7.989358e+05  -1.525987e+06
   1.067724e+06   1.461438e+05
   5.579229e+05   1.341712e+06
  -1.855329e+05   1.128108e+06
  -6.295582e+05   1.267137e+05
  -5.683720e+05  -4.167983e+05
  -2.160675e+05  -1.547634e+05
  -4.234361e+04   1.163071e+05
  -2.956685e+05  -3.185322e+05
  -6.044616e+05  -1.083599e+06
  -2.845021e+05  -1.227887e+06
   7.725990e+05  -4.766690e+05
   1.709839e+06   4.797572e+05
   1.520120e+06   9.076422e+05
   2.387358e+05   7.874205e+05
  -9.831272e+05   5.125507e+05
  -1.126508e+06   2.534008e+05
  -3.954087e+05  -3.918814e+04
   1.667916e+05  -2.631485e+05
   7.844175e+03  -2.428716e+05
  -3.338723e+05  -1.064746e+05
  -5.379300e+04  -1.541843e+05
   7.765681e+05  -2.908278e+05
   1.197720e+06  -1.692607e+04
   4.859566e+05   7.810311e+05
  -9.459778e+05   1.370544e+06
  -1.907877e+06   9.076319e+05
  -1.607491e+06  -4.618100e+05
  -3.584805e+05  -1.606251e+06
   8.246014e+05  -1.594668e+06
   1.185589e+06  -6.402173e+05
   7.651063e+05   2.529369e+05
   1.573848e+05   4.075088e+05
  -9.891969e+04   7.120965e+04
   8.226582e+04  -3.415897e+04
   3.652607e+05   4.017791e+05
   3.204821e+05   9.145319e+05
  -1.853253e+05   7.815283e+05
  -7.919435e+05  -1.246266e+05
  -8.747234e+05  -1.077163e+06
  -1.514275e+05  -1.180778e+06
   8.682650e+05  -2.991282e+05
   1.211816e+06   8.026332e+05
   4.294211e+05   1.237075e+06
  -7.973523e+05   7.919288e+05
  -1.277418e+06  -5.014806e+04
  -6.194376e+05  -6.730998e+05
   3.063903e+05  -7.726831e+05
   4.085279e+05  -4.282442e+05
  -2.995846e+05  -2.067578e+03
  -7.469232e+05   6.860950e+04
  -1.739201e+05  -3.460695e+05
   9.192538e+05  -8.106874e+05
   1.406771e+06  -6.728774e+05
   8.625536e+05   1.679750e+05
  -8.031075e+04   9.943429e+05
  -5.898826e+05   9.921561e+05
  -4.712228e+05   1.875605e+05
  -7.480024e+04  -5.545897e+05
   2.621166e+05  -5.016962e+05
   4.137071e+05   1.661670e+05
   3.117462e+05   6.525818e+05
  -5.053760e+04   4.821461e+05
  -4.508842e+05  -4.107603e+04
  -5.489395e+05  -2.965721e+05
  -2.788891e+05  -9.408494e+04
   3.637110e+04   1.638376e+05
   8.981567e+04   2.831238e+04
  -1.463848e+04  -4.171209e+05
   6.171347e+04  -6.279055e+05
   3.709733e+05  -2.454469e+05
   5.302125e+05   4.346115e+05
   1.867000e+05   7.446265e+05
  -4.626570e+05   3.732805e+05
  -7.678890e+05  -3.035066e+05
  -3.098244e+05  -6.532400e+05
   5.644749e+05  -4.361227e+05
   1.009956e+06   5.851552e+04
   5.609313e+05   4.151603e+05
  -3.236970e+05   4.627008e+05
  -7.241347e+05   2.764096e+05
  -2.791048e+05   2.626020e+04
   4.079318e+05  -8.861351e+04
   4.782381e+05   6.587633e+04
  -1.870068e+05   3.504557e+05
  -8.551642e+05   3.463168e+05
