
 $NMID
 id='ANONYMOUS ', fmtdat='(2E16.6)'
 volume=1.0
 tramp=1.0
 $END
   2.080986e+07   2.632257e+06
   1.183855e+07   1.169641e+07
  -2.254076e+06   1.275259e+07
  -9.577806e+06   6.914327e+06
  -6.761970e+06  -2.466954e+05
   1.588495e+05  -3.420231e+06
   3.899111e+06  -1.170512e+06
   2.436065e+06   3.327909e+06
  -1.390178e+06   5.056861e+06
  -3.808836e+06   1.920915e+06
  -3.043493e+06  -2.907118e+06
  -1.262960e+05  -4.264088e+06
   2.091880e+06  -7.961066e+05
   1.431839e+06   3.494528e+06
  -1.386521e+06   3.861609e+06
  -3.300839e+06  -2.267407e+04
  -2.051879e+06  -4.197664e+06
   1.472914e+06  -4.905076e+06
   4.220647e+06  -2.009101e+06
   4.015193e+06   1.648468e+06
   1.492107e+06   3.290810e+06
  -7.129150e+05   2.507075e+06
  -5.939326e+05   1.154468e+06
   1.167178e+06   1.218760e+06
   1.803339e+06   2.636334e+06
  -4.861509e+05   3.385536e+06
  -4.134242e+06   1.910622e+06
  -5.517965e+06  -9.394210e+05
  -2.955915e+06  -2.815719e+06
   1.208248e+06  -2.372440e+06
   3.061729e+06  -3.567647e+05
   1.282383e+06   1.439744e+06
  -1.780658e+06   1.638707e+06
  -2.973516e+06   2.204084e+04
  -1.538662e+06  -2.211892e+06
   6.761071e+05  -3.005612e+06
   1.545433e+06  -1.341948e+06
   7.076955e+05   1.166042e+06
  -4.871292e+05   1.663912e+06
  -5.933530e+05  -4.370844e+05
   4.908573e+05  -2.404259e+06
   1.526376e+06  -1.558666e+06
   1.248631e+06   1.151419e+06
  -3.020821e+05   2.294830e+06
  -1.708777e+06   3.587068e+05
  -1.446460e+06  -2.426236e+06
   6.442037e+05  -2.937656e+06
   2.996530e+06  -6.909434e+05
   3.510326e+06   2.078478e+06
   1.451200e+06   3.054529e+06
  -1.633827e+06   1.827832e+06
  -3.136385e+06  -2.678077e+05
  -1.871311e+06  -1.520855e+06
   6.984824e+05  -1.150877e+06
   1.996261e+06   1.678214e+05
   1.047725e+06   9.955617e+05
  -6.727453e+05   5.812435e+05
  -1.134749e+06  -4.190184e+05
  -4.802128e+04  -8.166437e+05
   1.032438e+06  -2.500797e+05
   6.453344e+05   5.845520e+05
  -9.273958e+05   7.979371e+05
  -1.977666e+06   4.388959e+04
  -1.135692e+06  -1.348349e+06
   1.228256e+06  -2.469868e+06
   3.284036e+06  -2.224392e+06
   3.441228e+06  -2.962271e+05
   1.824896e+06   2.149599e+06
   1.057783e+04   3.320607e+06
  -6.923584e+05   2.647051e+06
  -4.772257e+05   1.346634e+06
  -4.658132e+05   8.252176e+05
  -1.201393e+06   9.623208e+05
  -2.063601e+06   5.354247e+05
  -2.080903e+06  -8.827969e+05
  -9.707740e+05  -2.143092e+06
   6.313231e+05  -1.836251e+06
   1.659092e+06   6.438149e+03
   1.319303e+06   1.833052e+06
  -2.707116e+05   2.081447e+06
  -1.943739e+06   6.117030e+05
  -2.324191e+06  -1.291213e+06
  -1.151705e+06  -2.195881e+06
   4.003567e+05  -1.784286e+06
   1.029143e+06  -9.097955e+05
   7.781385e+05  -5.146737e+05
   8.207653e+05  -6.359505e+05
   1.786348e+06  -5.331570e+05
   2.763078e+06   3.563180e+05
   2.274792e+06   1.755825e+06
   8.069619e+04   2.763355e+06
  -2.318275e+06   2.576566e+06
  -3.063073e+06   1.131018e+06
  -1.740256e+06  -7.136136e+05
   2.508426e+05  -1.679104e+06
   1.108030e+06  -1.138054e+06
   3.516482e+05   1.751808e+05
  -8.846369e+05   8.116715e+05
  -1.205816e+06   1.782044e+05
  -4.086554e+05  -7.830163e+05
   4.972139e+05  -7.726656e+05
   5.186261e+05   2.047508e+05
  -3.230712e+05   7.969148e+05
  -1.149431e+06  -3.704758e+04
  -1.083850e+06  -1.707107e+06
   7.189537e+04  -2.568741e+06
   1.684911e+06  -1.651831e+06
   2.639912e+06   3.890146e+05
   2.137338e+06   1.974174e+06
   4.882490e+05   2.078682e+06
  -9.864832e+05   1.039914e+06
  -1.178884e+06   5.409213e+04
  -3.407701e+05  -3.989360e+04
   2.449049e+05   5.116228e+05
  -2.182722e+05   8.065494e+05
  -1.131254e+06   3.416715e+05
  -1.279033e+06  -4.726553e+05
  -3.234700e+05  -8.339162e+05
   7.577232e+05  -4.279346e+05
   7.454755e+05   2.890413e+05
  -4.637502e+05   5.743098e+05
  -1.671370e+06   6.720525e+04
  -1.552575e+06  -9.126422e+05
  -1.673293e+04  -1.585209e+06
   1.632190e+06  -1.315417e+06
   1.954363e+06  -2.213623e+05
   7.975627e+05   8.024747e+05
  -6.000095e+05   8.773218e+05
  -9.153974e+05   6.077936e+04
  -2.783538e+04  -6.652187e+05
   1.021837e+06  -4.522721e+05
   1.181683e+06   4.770046e+05
   3.617954e+05   1.109497e+06
  -6.231695e+05   8.013387e+05
  -8.904728e+05  -3.830645e+04
  -2.924874e+05  -4.653749e+05
   4.560422e+05  -4.831130e+04
   4.513690e+05   7.133653e+05
  -4.592638e+05   9.492500e+05
  -1.411730e+06   2.927169e+05
  -1.363042e+06  -7.826091e+05
  -2.333530e+05  -1.410524e+06
   9.555445e+05  -1.107430e+06
   1.163082e+06  -1.828255e+05
   3.964728e+05   5.650913e+05
  -4.246725e+05   5.844076e+05
  -5.254914e+05   4.639015e+04
  -2.473275e+03  -3.949500e+05
   4.510485e+05  -3.115652e+05
   3.404792e+05   6.439876e+04
  -1.582991e+05   1.476262e+05
  -4.102422e+05  -2.859499e+05
   3.171821e+04  -7.761834e+05
   9.157261e+05  -6.355370e+05
   1.432758e+06   2.855909e+05
   9.820092e+05   1.354211e+06
  -1.785957e+05   1.713718e+06
  -1.148486e+06   1.082827e+06
  -1.283772e+06  -3.916372e+03
  -7.763806e+05  -7.246393e+05
  -2.971406e+05  -7.196769e+05
  -2.068365e+05  -3.380454e+05
  -2.586015e+05  -1.800596e+05
  -1.957227e+04  -4.252027e+05
   5.618248e+05  -6.435335e+05
   1.036782e+06  -3.059473e+05
   8.527412e+05   5.329936e+05
  -9.342555e+04   1.148801e+06
  -1.217635e+06   8.340088e+05
  -1.617909e+06  -3.264405e+05
  -8.485404e+05  -1.439818e+06
   6.006568e+05  -1.614759e+06
   1.675489e+06  -7.751106e+05
   1.683404e+06   3.367642e+05
   8.486476e+05   9.171826e+05
  -3.013009e+04   8.145737e+05
  -3.802763e+05   5.188010e+05
  -2.821890e+05   5.269966e+05
  -2.082249e+05   7.870550e+05
  -4.562874e+05   7.856427e+05
  -8.407744e+05   1.659686e+05
  -8.884741e+05  -7.885229e+05
  -3.469543e+05  -1.340648e+06
   4.729081e+05  -9.977487e+05
   9.090970e+05  -1.153250e+04
   5.830648e+05   8.379674e+05
  -1.863552e+05   9.484142e+05
  -6.828358e+05   3.807829e+05
  -5.235853e+05  -3.073237e+05
  -2.206063e+04  -6.290755e+05
   2.150041e+05  -5.454923e+05
  -1.026983e+04  -3.500871e+05
  -2.709308e+05  -2.803824e+05
  -1.795913e+04  -2.861347e+05
   7.444292e+05  -1.482157e+05
   1.351322e+06   2.318533e+05
   1.108704e+06   6.869645e+05
   4.962042e+04   9.127915e+05
  -1.006698e+06   7.288065e+05
  -1.230913e+06   2.414468e+05
  -6.000637e+05  -2.144485e+05
   1.414772e+05  -3.242969e+05
   3.152994e+05  -6.947282e+04
  -3.447170e+04   2.168973e+05
  -3.600529e+05   1.544038e+05
  -3.157057e+05  -2.506277e+05
  -6.834126e+04  -5.488496e+05
   3.419367e+04  -3.531167e+05
  -1.020195e+05   1.354640e+05
  -2.689587e+05   2.950934e+05
  -2.079497e+05  -1.534341e+05
   1.596721e+05  -7.284131e+05
   6.420671e+05  -7.134365e+05
   8.445579e+05  -2.336868e+04
   4.650435e+05   6.689927e+05
  -3.176658e+05   6.972515e+05
  -8.278598e+05   1.131514e+05
  -4.929965e+05  -4.469030e+05
   4.733932e+05  -4.624336e+05
   1.152260e+06   2.822911e+04
   8.258507e+05   5.796550e+05
  -2.463305e+05   7.620185e+05
  -1.072914e+06   4.609222e+05
  -9.483821e+05  -6.735523e+04
  -1.419736e+05  -3.822853e+05
   4.438953e+05  -2.274087e+05
   2.306161e+05   1.843304e+05
  -4.715465e+05   3.149776e+05
  -8.299302e+05  -1.511514e+05
  -3.675408e+05  -8.910047e+05
   5.546645e+05  -1.164122e+06
   1.121168e+06  -5.378640e+05
   8.745006e+05   5.966145e+05
   1.007816e+05   1.299109e+06
  -5.448375e+05   9.594116e+05
  -6.671787e+05  -7.793090e+04
  -3.506041e+05  -8.401552e+05
   8.617939e+04  -7.243079e+05
   3.736081e+05  -8.293133e+04
   3.864171e+05   2.844125e+05
   1.818640e+05   1.151277e+05
   8.876363e+03  -8.499494e+04
   9.563557e+04   1.792550e+05
   3.094750e+05   6.806976e+05
   1.987949e+05   7.781841e+05
  -4.234844e+05   2.749073e+05
  -1.056807e+06  -3.572533e+05
  -9.728449e+05  -6.101934e+05
  -1.275725e+05  -4.841906e+05
   6.807431e+05  -2.830765e+05
   7.262893e+05  -1.400046e+05
   1.978090e+05   1.118578e+04
  -1.336314e+05   1.538205e+05
   5.041326e+04   1.755007e+05
   2.716669e+05   1.076200e+05
   2.395962e+03   1.041641e+05
  -5.650732e+05   1.320857e+05
  -7.366435e+05  -5.731806e+04
  -1.734503e+05  -5.014177e+05
   7.066677e+05  -7.777870e+05
   1.179024e+06  -4.330996e+05
   8.999252e+05   3.960966e+05
   1.317312e+05   1.023456e+06
  -5.607737e+05   9.306422e+05
  -7.635347e+05   3.033310e+05
  -4.762035e+05  -2.236860e+05
  -5.243223e+04  -2.604733e+05
   1.237618e+05  -7.115060e+03
  -2.735883e+04   5.953469e+04
  -2.378577e+05  -2.414807e+05
  -1.864833e+05  -5.766761e+05
   1.619706e+05  -4.634502e+05
   5.016843e+05   1.528648e+05
   4.615199e+05   7.502521e+05
  -2.760351e+04   7.372093e+05
  -5.941203e+05   9.086316e+04
  -7.003697e+05  -6.078032e+05
  -1.707554e+05  -7.851000e+05
   5.427120e+05  -4.104936e+05
   7.596696e+05   1.078364e+05
   3.146542e+05   4.050765e+05
  -2.246964e+05   4.083637e+05
  -2.223705e+05   2.289505e+05
   2.429523e+05   3.050040e+04
   4.809417e+05  -2.078369e+03
   7.214355e+04   2.129041e+05
  -6.035525e+05   4.694528e+05
  -8.482296e+05   3.925815e+05
  -4.666326e+05  -1.031319e+05
   1.005149e+05  -5.900892e+05
   3.620819e+05  -5.605063e+05
   2.482383e+05  -4.947755e+04
  -5.687401e+03   3.724925e+05
  -1.981483e+05   2.695526e+05
  -2.566586e+05  -1.707800e+05
  -1.558988e+05  -4.205902e+05
   7.098446e+04  -2.516823e+05
   2.771390e+05   6.800960e+04
   3.053293e+05   1.749637e+05
   1.647617e+05   3.943609e+04
   1.412517e+04  -6.616228e+04
  -4.546612e+04   5.985155e+04
  -7.651214e+04   2.980229e+05
  -1.713707e+05   3.402409e+05
  -2.816365e+05   4.617152e+04
  -2.471364e+05  -3.599020e+05
   7.454543e+03  -4.862224e+05
   3.317502e+05  -1.871180e+05
   4.306551e+05   2.604351e+05
   1.374071e+05   4.416520e+05
  -3.550778e+05   2.346710e+05
  -5.943773e+05  -1.090316e+05
  -3.127426e+05  -2.857857e+05
   2.256589e+05  -2.331007e+05
   4.518809e+05  -8.910706e+04
   1.348891e+05   8.861112e+03
  -3.163972e+05   2.347713e+02
  -3.203772e+05  -1.178919e+05
   1.745099e+05  -2.465583e+05
   6.207252e+05  -1.794280e+05
