
 $NMID
 id='ANONYMOUS ', fmtdat='(2E16.6)'
 volume=1.0
 tramp=1.0
 $END
   3.993841e+07   6.503461e+05
   2.441968e+07   2.315301e+07
  -4.030283e+06   2.632187e+07
  -1.890385e+07   1.214235e+07
  -1.245441e+07  -2.946843e+06
   1.375770e+06  -6.733167e+06
   7.279305e+06  -5.163449e+05
   3.228508e+06   6.739285e+06
  -3.612885e+06   7.982456e+06
  -7.042409e+06   2.483431e+06
  -5.418548e+06  -4.720168e+06
  -5.989994e+05  -6.879025e+06
   3.217923e+06  -1.856099e+06
   2.267380e+06   4.906952e+06
  -2.585748e+06   5.787138e+06
  -5.930294e+06  -4.483896e+05
  -3.666665e+06  -7.481141e+06
   2.500844e+06  -8.861914e+06
   7.395123e+06  -4.278055e+06
   7.707569e+06   1.862132e+06
   4.162387e+06   5.514336e+06
   1.306297e+04   5.594624e+06
  -1.541483e+06   3.604534e+06
   7.492366e+04   2.193052e+06
   1.772536e+06   2.896561e+06
  -2.178683e+05   4.275437e+06
  -5.303117e+06   3.370931e+06
  -8.227093e+06  -3.199205e+05
  -5.307837e+06  -3.727597e+06
   6.711898e+05  -3.908369e+06
   3.789008e+06  -1.416376e+06
   1.970173e+06   9.971695e+05
  -1.591226e+06   1.557690e+06
  -3.150320e+06   2.002430e+05
  -2.052893e+06  -2.218674e+06
   1.579864e+05  -3.868253e+06
   1.829082e+06  -2.684529e+06
   1.901240e+06   8.007953e+05
   4.732326e+05   2.734471e+06
  -6.843235e+05   5.401169e+05
   2.083996e+05  -2.801626e+06
   2.173175e+06  -2.183162e+06
   2.063799e+06   2.209462e+06
  -1.155568e+06   4.461700e+06
  -4.292691e+06   9.027056e+05
  -3.479409e+06  -4.693575e+06
   1.110683e+06  -5.954064e+06
   5.400250e+06  -1.730744e+06
   5.711167e+06   3.360096e+06
   1.974935e+06   4.879663e+06
  -2.699890e+06   2.593801e+06
  -4.655990e+06  -8.009569e+05
  -2.502342e+06  -2.636410e+06
   1.543979e+06  -1.872702e+06
   3.484430e+06   4.425515e+05
   1.686030e+06   1.899229e+06
  -1.222870e+06   1.067159e+06
  -1.617557e+06  -7.413534e+05
   5.494952e+05  -1.054394e+06
   1.925151e+06   5.417825e+05
   3.053032e+05   1.997862e+06
  -2.680443e+06   1.560558e+06
  -3.836093e+06  -4.470155e+05
  -1.946559e+06  -2.697666e+06
   1.592808e+06  -4.142469e+06
   4.512206e+06  -3.814889e+06
   5.189294e+06  -1.081521e+06
   3.385910e+06   2.862201e+06
   5.224501e+05   5.112021e+06
  -1.256420e+06   4.079392e+06
  -1.137292e+06   1.567349e+06
  -4.552091e+05   4.754292e+05
  -8.637037e+05   1.084179e+06
  -2.166784e+06   1.160248e+06
  -2.717876e+06  -5.138710e+05
  -1.593127e+06  -2.380241e+06
   4.420850e+05  -2.263958e+06
   1.891430e+06  -7.831965e+04
   1.711049e+06   2.247702e+06
  -1.692814e+05   2.808167e+06
  -2.605169e+06   1.205379e+06
  -3.667219e+06  -1.393030e+06
  -2.319240e+06  -3.189308e+06
   2.199278e+05  -3.157297e+06
   1.691447e+06  -1.911147e+06
   1.533704e+06  -9.321715e+05
   1.411278e+06  -8.023572e+05
   2.611674e+06  -6.398138e+05
   3.958959e+06   5.462510e+05
   3.238751e+06   2.470177e+06
   1.591248e+05   3.847041e+06
  -3.073023e+06   3.638069e+06
  -4.053906e+06   1.800052e+06
  -2.436942e+06  -6.773319e+05
   4.308527e+04  -2.197122e+06
   1.270213e+06  -1.686698e+06
   5.021597e+05   1.367857e+05
  -1.112936e+06   1.180405e+06
  -1.721866e+06   3.302577e+05
  -7.229376e+05  -1.090306e+06
   5.831422e+05  -1.059084e+06
   5.750597e+05   3.290080e+05
  -7.197098e+05   9.178053e+05
  -1.713552e+06  -5.817722e+05
  -1.134919e+06  -2.820966e+06
   7.456675e+05  -3.446678e+06
   2.656036e+06  -1.741715e+06
   3.431937e+06   9.165584e+05
   2.587071e+06   2.671128e+06
   5.676478e+05   2.678430e+06
  -1.258763e+06   1.415379e+06
  -1.555368e+06   1.520264e+05
  -4.681636e+05  -4.535373e+04
   3.456609e+05   7.057140e+05
  -3.277294e+05   1.195151e+06
  -1.671655e+06   5.329968e+05
  -1.856506e+06  -7.203971e+05
  -4.254093e+05  -1.242905e+06
   1.073930e+06  -5.796316e+05
   9.443785e+05   4.126934e+05
  -7.234565e+05   6.603958e+05
  -2.204086e+06  -8.697978e+04
  -1.917064e+06  -1.271372e+06
   9.506572e+04  -2.041729e+06
   2.213335e+06  -1.712221e+06
   2.661872e+06  -3.043916e+05
   1.139598e+06   1.139997e+06
  -8.294947e+05   1.323218e+06
  -1.363305e+06   1.503733e+05
  -1.251244e+05  -9.635557e+05
   1.415027e+06  -6.745176e+05
   1.639229e+06   6.842445e+05
   4.265182e+05   1.551480e+06
  -9.435185e+05   1.032706e+06
  -1.221561e+06  -1.626768e+05
  -3.299281e+05  -6.946711e+05
   6.913390e+05  -7.103330e+04
   6.703053e+05   9.824148e+05
  -5.763590e+05   1.332437e+06
  -1.917996e+06   4.749503e+05
  -1.911849e+06  -1.019163e+06
  -3.611703e+05  -1.952318e+06
   1.327097e+06  -1.556547e+06
   1.621014e+06  -2.412723e+05
   5.208572e+05   8.003068e+05
  -6.002499e+05   7.917785e+05
  -6.638333e+05   6.962435e+04
   5.621400e+04  -4.503619e+05
   5.508275e+05  -3.158466e+05
   2.962231e+05   8.516317e+04
  -3.283716e+05   7.803707e+04
  -5.418039e+05  -5.112369e+05
   1.067695e+05  -1.103672e+06
   1.279625e+06  -8.761538e+05
   1.978712e+06   3.755405e+05
   1.387678e+06   1.842118e+06
  -2.077237e+05   2.331047e+06
  -1.551312e+06   1.429703e+06
  -1.692321e+06  -5.285317e+04
  -9.465531e+05  -9.269263e+05
  -3.496814e+05  -8.091498e+05
  -3.610701e+05  -3.298501e+05
  -4.776483e+05  -2.592505e+05
  -6.686312e+04  -6.513112e+05
   7.955573e+05  -8.797823e+05
   1.402065e+06  -3.761214e+05
   1.090917e+06   7.066196e+05
  -1.760508e+05   1.490557e+06
  -1.650968e+06   1.097519e+06
  -2.186372e+06  -4.381375e+05
  -1.141450e+06  -1.981994e+06
   8.715323e+05  -2.247987e+06
   2.354639e+06  -1.048856e+06
   2.286926e+06   5.270857e+05
   1.051574e+06   1.267641e+06
  -1.166579e+05   1.018168e+06
  -4.506597e+05   5.995907e+05
  -2.276379e+05   7.115038e+05
  -1.778091e+05   1.156519e+06
  -6.171677e+05   1.157920e+06
  -1.187845e+06   2.784675e+05
  -1.254339e+06  -1.043366e+06
  -5.180705e+05  -1.816872e+06
   6.091885e+05  -1.373300e+06
   1.237482e+06  -1.709904e+04
   8.005192e+05   1.180260e+06
  -3.006525e+05   1.322921e+06
  -1.022377e+06   4.706188e+05
  -7.588675e+05  -5.329602e+05
   2.844942e+04  -9.487605e+05
   3.952697e+05  -7.584258e+05
   3.212204e+04  -4.428326e+05
  -3.928549e+05  -3.476913e+05
  -4.307414e+04  -3.774479e+05
   1.055989e+06  -2.137446e+05
   1.912477e+06   2.963908e+05
   1.541688e+06   9.508971e+05
   3.242676e+04   1.313401e+06
  -1.435218e+06   1.061135e+06
  -1.717317e+06   3.154953e+05
  -8.190967e+05  -3.759284e+05
   2.133678e+05  -4.972586e+05
   4.616761e+05  -7.001294e+04
  -2.439682e+03   3.463885e+05
  -4.549388e+05   2.304716e+05
  -4.485001e+05  -3.299831e+05
  -1.720540e+05  -7.142058e+05
  -2.578104e+04  -4.654747e+05
  -1.375658e+05   1.387991e+05
  -3.188006e+05   3.409199e+05
  -2.761719e+05  -2.140589e+05
   1.697526e+05  -9.681751e+05
   8.582603e+05  -1.005131e+06
   1.223364e+06  -1.169543e+05
   7.329758e+05   8.815048e+05
  -4.012367e+05   1.024821e+06
  -1.159747e+06   2.529591e+05
  -6.913422e+05  -5.720237e+05
   6.547586e+05  -6.329887e+05
   1.549893e+06   5.434181e+04
   1.052670e+06   8.067302e+05
  -3.961743e+05   1.001339e+06
  -1.452042e+06   5.536699e+05
  -1.241755e+06  -1.320429e+05
  -1.637762e+05  -5.081332e+05
   6.141940e+05  -2.895379e+05
   3.459870e+05   2.623709e+05
  -5.942729e+05   4.693863e+05
  -1.130878e+06  -1.287911e+05
  -5.840740e+05  -1.162636e+06
   6.403180e+05  -1.612206e+06
   1.463180e+06  -8.053508e+05
   1.204327e+06   7.567875e+05
   1.820458e+05   1.741880e+06
  -7.171388e+05   1.279986e+06
  -9.024986e+05  -1.324233e+05
  -4.546338e+05  -1.143974e+06
   1.607423e+05  -9.626345e+05
   5.261763e+05  -1.016777e+05
   4.873167e+05   3.729590e+05
   1.998823e+05   1.450740e+05
   3.065353e+04  -1.043839e+05
   2.085703e+05   2.590179e+05
   4.669444e+05   9.222921e+05
   2.323987e+05   1.049246e+06
  -6.331078e+05   3.869135e+05
  -1.431586e+06  -4.535256e+05
  -1.281149e+06  -8.091040e+05
  -1.824502e+05  -6.647577e+05
   8.653129e+05  -3.997126e+05
   9.652802e+05  -1.896211e+05
   3.136005e+05   2.946137e+04
  -1.568305e+05   2.138388e+05
   1.241584e+04   2.194369e+05
   3.057072e+05   1.166893e+05
   2.940686e+04   1.324835e+05
  -6.924366e+05   2.086399e+05
  -1.004196e+06  -3.064636e+04
  -3.432255e+05  -6.646430e+05
   8.641370e+05  -1.105096e+06
   1.612289e+06  -6.848182e+05
   1.301489e+06   4.523721e+05
   2.400937e+05   1.366597e+06
  -7.348822e+05   1.306685e+06
  -1.015386e+06   4.821820e+05
  -6.388341e+05  -2.527980e+05
  -1.073704e+05  -3.464463e+05
   1.090318e+05  -3.853648e+04
  -6.221768e+04   4.598135e+04
  -3.084795e+05  -3.414829e+05
  -2.524685e+05  -7.796941e+05
   1.858462e+05  -6.450188e+05
   6.664750e+05   1.492463e+05
   6.835104e+05   9.513151e+05
   5.904014e+04   9.928826e+05
  -7.548206e+05   1.961433e+05
  -9.827734e+05  -7.380995e+05
  -3.033760e+05  -1.051459e+06
   6.992016e+05  -6.197186e+05
   1.058499e+06   9.044233e+04
   4.846994e+05   5.664465e+05
  -2.791981e+05   6.152016e+05
  -3.346813e+05   3.423502e+05
   2.757091e+05   2.230546e+04
   6.364498e+05  -2.922036e+04
   1.268315e+05   2.913212e+05
  -7.991752e+05   6.554729e+05
  -1.184491e+06   5.402514e+05
  -6.964153e+05  -1.482572e+05
   1.012799e+05  -8.234723e+05
   5.059163e+05  -8.062487e+05
   3.767145e+05  -1.260296e+05
   3.122467e+04   4.780841e+05
  -2.406097e+05   3.996103e+05
  -3.425179e+05  -1.752017e+05
  -2.371804e+05  -5.594644e+05
   6.310003e+04  -3.831656e+05
   3.761752e+05   5.898351e+04
   4.448729e+05   2.514498e+05
   2.319150e+05   7.439292e+04
  -1.500696e+04  -1.209504e+05
  -7.623691e+04   9.185431e+03
  -3.300170e+04   3.636550e+05
  -1.149216e+05   4.989736e+05
  -3.316974e+05   1.527638e+05
  -4.002908e+05  -4.077049e+05
  -9.256197e+04  -6.334262e+05
   4.120293e+05  -2.866917e+05
   6.195987e+05   2.947246e+05
   2.266543e+05   5.677828e+05
  -4.821218e+05   3.448087e+05
  -8.331068e+05  -9.226249e+04
  -4.508902e+05  -3.678989e+05
   2.866366e+05  -3.612829e+05
   6.107172e+05  -1.877931e+05
   2.177068e+05  -1.009590e+04
  -3.694351e+05   4.135464e+04
  -4.080220e+05  -9.704659e+04
   1.899394e+05  -3.021312e+05
   7.634554e+05  -2.595462e+05
