
 $NMID
 id='ANONYMOUS ', fmtdat='(2E16.6)'
 volume=1.0
 tramp=1.0
 $END
  -5.439484e+07  -2.074067e+06
  -3.126950e+07  -3.459872e+07
   8.474417e+06  -3.624644e+07
   2.681591e+07  -1.326788e+07
   1.547033e+07   7.003569e+06
  -3.390109e+06   8.766435e+06
  -9.291457e+06  -1.322392e+06
  -2.458169e+06  -9.332597e+06
   6.038846e+06  -8.844682e+06
   9.260047e+06  -1.736995e+06
   6.620616e+06   6.203534e+06
   5.883061e+05   8.411218e+06
  -4.001675e+06   2.545639e+06
  -2.528825e+06  -5.409619e+06
   3.704019e+06  -6.304158e+06
   7.520291e+06   1.463184e+06
   4.016864e+06   9.958905e+06
  -3.975625e+06   1.127755e+07
  -9.965818e+06   5.382042e+06
  -1.040961e+07  -2.397505e+06
  -6.090561e+06  -7.544123e+06
  -2.424727e+05  -8.365073e+06
   3.047515e+06  -5.590455e+06
   1.684341e+06  -2.388640e+06
  -1.284672e+06  -2.151363e+06
  -2.246747e+05  -4.241693e+06
   5.503023e+06  -4.272922e+06
   9.584531e+06  -2.436744e+05
   6.792247e+06   4.279620e+06
   9.226893e+03   5.038927e+06
  -3.864769e+06   2.453609e+06
  -2.543949e+06  -1.629021e+05
   6.401036e+05  -1.142385e+06
   2.419259e+06  -5.767244e+05
   2.285251e+06   1.536569e+06
   5.974069e+05   4.029876e+06
  -1.942671e+06   3.721439e+06
  -3.161492e+06  -3.485278e+05
  -1.456518e+06  -3.679689e+06
   9.373157e+05  -1.747525e+06
   3.284157e+05   2.569014e+06
  -2.434059e+06   2.259698e+06
  -2.282377e+06  -3.116713e+06
   2.471371e+06  -5.771389e+06
   6.635209e+06  -6.775634e+05
   4.647948e+06   6.850292e+06
  -2.123312e+06   8.113685e+06
  -7.260582e+06   2.091269e+06
  -6.670528e+06  -4.460763e+06
  -1.727444e+06  -5.873147e+06
   3.392996e+06  -2.606569e+06
   5.099696e+06   1.506100e+06
   2.334550e+06   3.371803e+06
  -2.347374e+06   2.051858e+06
  -4.341601e+06  -9.888223e+05
  -1.819234e+06  -2.650534e+06
   1.693515e+06  -1.273706e+06
   1.692220e+06   1.005566e+06
  -1.208297e+06   8.422140e+05
  -2.261985e+06  -1.667923e+06
   6.745867e+05  -3.148080e+06
   4.425753e+06  -1.625750e+06
   5.011010e+06   1.416512e+06
   2.120011e+06   3.862041e+06
  -1.910764e+06   5.107139e+06
  -5.073772e+06   4.667421e+06
  -6.157184e+06   1.550632e+06
  -4.407334e+06  -3.267392e+06
  -7.704998e+05  -6.100446e+06
   1.867683e+06  -4.619386e+06
   1.643066e+06  -1.192677e+06
   1.115864e+05   1.232280e+05
   7.031186e+04  -1.108054e+06
   1.756862e+06  -1.789538e+06
   2.907007e+06  -1.382768e+05
   2.042205e+06   2.047743e+06
  -1.484333e+04   2.230404e+06
  -1.620777e+06   2.358939e+05
  -1.716419e+06  -2.102347e+06
   2.983439e+04  -2.955493e+06
   2.812171e+06  -1.589673e+06
   4.415239e+06   1.314063e+06
   3.054942e+06   3.808908e+06
  -1.867176e+05   4.131401e+06
  -2.307658e+06   2.557271e+06
  -2.178048e+06   1.032709e+06
  -1.773977e+06   6.505781e+05
  -2.897406e+06   4.624791e+05
  -4.299440e+06  -7.861724e+05
  -3.440264e+06  -2.777054e+06
  -9.940932e+04  -4.116421e+06
   3.244670e+06  -3.878180e+06
   4.227659e+06  -2.082430e+06
   2.681066e+06   4.812982e+05
   2.357523e+05   2.286492e+06
  -1.159007e+06   1.940586e+06
  -5.732344e+05  -5.560788e+04
   1.115960e+06  -1.307566e+06
   1.909234e+06  -3.699497e+05
   8.913192e+05   1.226643e+06
  -5.365307e+05   1.124551e+06
  -4.400858e+05  -3.682070e+05
   1.009072e+06  -6.828046e+05
   1.765068e+06   1.238010e+06
   6.180354e+05   3.376186e+06
  -1.508072e+06   3.330343e+06
  -3.030683e+06   1.124585e+06
  -3.275785e+06  -1.385239e+06
  -2.308830e+06  -2.732741e+06
  -4.740754e+05  -2.621743e+06
   1.259642e+06  -1.471212e+06
   1.597809e+06  -2.177255e+05
   4.943204e+05   4.995938e+04
  -3.528187e+05  -7.564953e+05
   4.304345e+05  -1.327476e+06
   1.909395e+06  -5.457216e+05
   2.012000e+06   9.072919e+05
   3.662711e+05   1.409437e+06
  -1.174273e+06   5.612683e+05
  -8.942941e+05  -4.512550e+05
   8.296080e+05  -5.175024e+05
   2.169309e+06   3.066557e+05
   1.757240e+06   1.342628e+06
  -2.343814e+05   1.971364e+06
  -2.315656e+06   1.654113e+06
  -2.784131e+06   2.574114e+05
  -1.202245e+06  -1.279257e+06
   9.466017e+05  -1.487692e+06
   1.564140e+06  -1.595160e+05
   1.796885e+05   1.091707e+06
  -1.532406e+06   7.221378e+05
  -1.712717e+06  -7.965758e+05
  -3.280162e+05  -1.648727e+06
   1.087071e+06  -9.653085e+05
   1.244565e+06   3.141980e+05
   2.384341e+05   7.725310e+05
  -7.955764e+05   3.995682e+04
  -7.275703e+05  -1.069232e+06
   5.960417e+05  -1.430580e+06
   2.030270e+06  -5.279712e+05
   2.040203e+06   1.077847e+06
   3.650821e+05   2.089612e+06
  -1.461510e+06   1.633547e+06
  -1.731355e+06   1.949536e+05
  -4.954437e+05  -8.712458e+05
   6.650457e+05  -7.995641e+05
   6.411932e+05  -7.912298e+04
  -1.055063e+05   3.593648e+05
  -4.845673e+05   2.223691e+05
  -1.347757e+05  -4.393418e+04
   4.246270e+05   8.694141e+04
   4.995423e+05   6.673482e+05
  -2.176490e+05   1.178276e+06
  -1.393109e+06   8.843533e+05
  -2.087338e+06  -4.341126e+05
  -1.455506e+06  -1.967840e+06
   2.347957e+05  -2.434198e+06
   1.625012e+06  -1.412019e+06
   1.692082e+06   1.269423e+05
   8.702546e+05   8.939785e+05
   3.413858e+05   6.600289e+05
   4.902153e+05   2.428338e+05
   6.170255e+05   3.348569e+05
   7.366740e+04   7.684750e+05
  -8.840328e+05   8.938376e+05
  -1.450571e+06   3.199004e+05
  -1.055337e+06  -7.233404e+05
   2.476904e+05  -1.460805e+06
   1.730393e+06  -1.068072e+06
   2.254825e+06   4.981534e+05
   1.121704e+06   2.112163e+06
  -1.032994e+06   2.357442e+06
  -2.553629e+06   1.008357e+06
  -2.345786e+06  -6.728634e+05
  -9.536947e+05  -1.334394e+06
   1.960933e+05  -9.423305e+05
   3.828596e+05  -5.250542e+05
   9.141409e+04  -7.778279e+05
   1.297839e+05  -1.321123e+06
   6.934845e+05  -1.284713e+06
   1.305402e+06  -3.029909e+05
   1.338077e+06   1.100228e+06
   5.463709e+05   1.911807e+06
  -6.366341e+05   1.442981e+06
  -1.290516e+06  -1.029662e+04
  -8.011634e+05  -1.292235e+06
   4.029834e+05  -1.390386e+06
   1.158007e+06  -3.887066e+05
   7.909472e+05   7.059135e+05
  -1.407678e+05   1.065774e+06
  -5.407434e+05   7.660827e+05
  -8.103398e+04   4.119150e+05
   4.368611e+05   3.444025e+05
   5.890526e+04   3.882518e+05
  -1.154031e+06   1.971202e+05
  -2.068315e+06  -3.573690e+05
  -1.613161e+06  -1.054420e+06
   5.572653e+04  -1.432063e+06
   1.609528e+06  -1.123114e+06
   1.836493e+06  -2.617399e+05
   8.213187e+05   4.985361e+05
  -2.728462e+05   5.645741e+05
  -5.090771e+05   2.676663e+04
  -1.966496e+04  -4.278743e+05
   4.497389e+05  -2.617905e+05
   4.828921e+05   3.487493e+05
   2.543579e+05   7.392421e+05
   9.522160e+04   4.924517e+05
   1.316056e+05  -9.502031e+04
   2.734388e+05  -2.994879e+05
   2.742887e+05   2.338091e+05
  -1.441937e+05   9.965413e+05
  -9.136338e+05   1.067245e+06
  -1.380817e+06   1.573973e+05
  -8.551841e+05  -9.374801e+05
   4.340358e+05  -1.146619e+06
   1.279646e+06  -3.281409e+05
   7.394439e+05   5.815678e+05
  -7.093740e+05   6.450195e+05
  -1.590685e+06  -1.039185e+05
  -9.993786e+05  -8.623811e+05
   4.884944e+05  -9.790445e+05
   1.495720e+06  -4.694084e+05
   1.228337e+06   1.937107e+05
   1.320204e+05   5.119217e+05
  -6.511597e+05   2.633945e+05
  -3.837381e+05  -3.034547e+05
   5.942309e+05  -5.315904e+05
   1.200707e+06   8.227523e+04
   6.831145e+05   1.199961e+06
  -5.959024e+05   1.729417e+06
  -1.502072e+06   9.000152e+05
  -1.269205e+06  -7.646116e+05
  -2.031145e+05  -1.806867e+06
   7.447000e+05  -1.298271e+06
   9.238060e+05   1.849670e+05
   4.232550e+05   1.196873e+06
  -2.282866e+05   9.621620e+05
  -5.657563e+05   7.624198e+04
  -4.635017e+05  -3.739221e+05
  -1.591469e+05  -1.292316e+05
  -4.999379e+04   9.066109e+04
  -2.874681e+05  -3.147401e+05
  -5.133074e+05  -9.821836e+05
  -1.810572e+05  -1.077019e+06
   7.315399e+05  -3.838786e+05
   1.484624e+06   4.707150e+05
   1.278625e+06   8.383700e+05
   1.817717e+05   7.060582e+05
  -8.527850e+05   4.301036e+05
  -9.864685e+05   1.810091e+05
  -3.676708e+05  -6.659346e+04
   1.439294e+05  -2.315650e+05
   4.413927e+04  -1.916742e+05
  -2.589393e+05  -7.850287e+04
  -5.717493e+04  -1.374042e+05
   6.566457e+05  -2.545063e+05
   1.062285e+06   7.470427e+03
   4.581085e+05   7.157428e+05
  -8.404592e+05   1.209647e+06
  -1.734183e+06   7.717448e+05
  -1.452004e+06  -4.365644e+05
  -2.888441e+05  -1.421888e+06
   7.802835e+05  -1.394820e+06
   1.066895e+06  -5.573846e+05
   6.662556e+05   2.226500e+05
   1.432034e+05   3.665486e+05
  -6.221999e+04   8.570536e+04
   8.092697e+04  -2.528325e+03
   2.936704e+05   3.718542e+05
   2.447234e+05   8.129011e+05
  -1.777450e+05   6.931699e+05
  -6.923599e+05  -1.057066e+05
  -7.685559e+05  -9.528085e+05
  -1.410384e+05  -1.055326e+06
   7.582605e+05  -2.780796e+05
   1.065048e+06   7.097048e+05
   3.699284e+05   1.107562e+06
  -7.217301e+05   7.046778e+05
  -1.144071e+06  -6.888472e+04
  -5.453264e+05  -6.351557e+05
   2.966889e+05  -7.042090e+05
   3.996308e+05  -3.705706e+05
  -2.361499e+05   7.196209e+03
  -6.536660e+05   4.822247e+04
  -1.544315e+05  -3.172033e+05
   8.306676e+05  -6.882814e+05
   1.280296e+06  -5.318888e+05
   7.832917e+05   1.981589e+05
  -9.465565e+04   8.879542e+05
  -5.734373e+05   8.691828e+05
  -4.540345e+05   1.710299e+05
  -7.044822e+04  -4.813575e+05
   2.404308e+05  -4.537143e+05
   3.636440e+05   1.295190e+05
   2.638162e+05   5.831650e+05
  -5.283651e+04   4.502561e+05
  -4.000470e+05  -3.538723e+04
  -4.838892e+05  -2.954572e+05
  -2.415038e+05  -1.067962e+05
   3.851623e+04   1.689493e+05
   7.210370e+04   7.132307e+04
  -4.345744e+04  -3.569719e+05
   2.051385e+04  -5.911366e+05
   3.239136e+05  -2.602839e+05
   4.990981e+05   3.694291e+05
   1.963546e+05   6.650488e+05
  -4.054462e+05   3.344048e+05
  -6.919813e+05  -2.706097e+05
  -2.740491e+05  -5.751385e+05
   5.174601e+05  -3.745953e+05
   9.085591e+05   6.545850e+04
   4.938539e+05   3.802367e+05
  -2.997952e+05   4.215927e+05
  -6.571547e+05   2.513382e+05
  -2.692872e+05   1.775052e+04
   3.354964e+05  -9.567129e+04
   4.136611e+05   3.659556e+04
  -1.456136e+05   2.905737e+05
  -7.226080e+05   2.935124e+05
