
 $NMID
 id='ANONYMOUS ', fmtdat='(2E16.6)'
 volume=1.0
 tramp=1.0
 $END
  -2.883623e+07   6.729508e+05
  -1.907526e+07  -1.459684e+07
   8.236635e+05  -1.880104e+07
   1.286843e+07  -1.094478e+07
   9.923554e+06   1.844403e+05
  -4.133826e+03   5.120697e+06
  -5.626814e+06   1.678372e+06
  -3.577578e+06  -4.737116e+06
   1.844870e+06  -7.029624e+06
   5.258125e+06  -2.864617e+06
   4.422081e+06   3.487495e+06
   6.427076e+05   5.541242e+06
  -2.536045e+06   1.363517e+06
  -2.029805e+06  -4.290563e+06
   1.693434e+06  -5.161534e+06
   4.622165e+06  -2.559212e+05
   3.317465e+06   5.500231e+06
  -1.366711e+06   6.901871e+06
  -5.357092e+06   3.434000e+06
  -5.636028e+06  -1.347993e+06
  -2.806470e+06  -3.916960e+06
   6.907398e+04  -3.586953e+06
   5.016271e+05  -2.204394e+06
  -1.159401e+06  -1.942503e+06
  -1.995886e+06  -3.157215e+06
   4.261889e+05  -4.047045e+06
   4.834067e+06  -2.684292e+06
   6.925557e+06   5.539188e+05
   4.137356e+06   3.118337e+06
  -1.002522e+06   3.003131e+06
  -3.506941e+06   7.469820e+05
  -1.519252e+06  -1.423071e+06
   2.056480e+06  -1.736364e+06
   3.406180e+06   4.735201e+03
   1.815390e+06   2.479898e+06
  -5.657143e+05   3.545444e+06
  -1.625294e+06   1.917549e+06
  -1.035129e+06  -1.009224e+06
   1.215898e+05  -1.997355e+06
   4.860785e+05   2.159105e+05
  -4.905974e+05   2.780593e+06
  -1.863483e+06   2.031548e+06
  -1.833312e+06  -1.508052e+06
   2.426873e+05  -3.417600e+06
   2.610855e+06  -1.030976e+06
   2.616477e+06   3.073677e+06
  -3.681650e+05   4.306478e+06
  -3.936605e+06   1.467966e+06
  -4.829733e+06  -2.433760e+06
  -2.061068e+06  -3.968886e+06
   2.093240e+06  -2.462593e+06
   4.121798e+06   2.763530e+05
   2.484708e+06   2.009263e+06
  -9.470216e+05   1.671079e+06
  -2.765362e+06  -4.844081e+04
  -1.526393e+06  -1.315130e+06
   8.547734e+05  -8.928732e+05
   1.485403e+06   5.205020e+05
  -1.065347e+05   1.127077e+06
  -1.613333e+06   1.930686e+05
  -9.022543e+05  -1.179891e+06
   1.448243e+06  -1.457253e+06
   2.902527e+06  -2.072208e+05
   1.755105e+06   1.812470e+06
  -1.262403e+06   3.330723e+06
  -3.865684e+06   3.121723e+06
  -4.285951e+06   7.888672e+05
  -2.598301e+06  -2.412497e+06
  -3.957354e+05  -4.207098e+06
   7.688602e+05  -3.525358e+06
   7.470997e+05  -1.713536e+06
   6.309328e+05  -8.146065e+05
   1.281289e+06  -1.015675e+06
   2.275129e+06  -7.350152e+05
   2.449638e+06   8.489110e+05
   1.253905e+06   2.424855e+06
  -6.502149e+05   2.156845e+06
  -1.943902e+06  -6.166599e+02
  -1.632213e+06  -2.185146e+06
   2.133650e+05  -2.556090e+06
   2.313998e+06  -9.299448e+05
   3.013560e+06   1.319869e+06
   1.770897e+06   2.601880e+06
  -1.939704e+05   2.383651e+06
  -1.198447e+06   1.424665e+06
  -1.042879e+06   8.321002e+05
  -1.099414e+06   8.619777e+05
  -2.277500e+06   7.378770e+05
  -3.525138e+06  -3.257897e+05
  -2.952530e+06  -2.103716e+06
  -2.277136e+05  -3.455626e+06
   2.748581e+06  -3.311797e+06
   3.690798e+06  -1.567009e+06
   2.153501e+06   7.300296e+05
  -1.855466e+05   2.014650e+06
  -1.245092e+06   1.447781e+06
  -4.315871e+05  -1.725968e+05
   1.032883e+06  -1.046408e+06
   1.503921e+06  -3.055998e+05
   5.904157e+05   9.361171e+05
  -5.658783e+05   9.640595e+05
  -6.271050e+05  -2.793340e+05
   4.915329e+05  -1.014201e+06
   1.587329e+06   1.307330e+05
   1.411712e+06   2.305560e+06
  -2.021190e+05   3.321965e+06
  -2.253154e+06   2.041851e+06
  -3.334060e+06  -5.412688e+05
  -2.632398e+06  -2.448380e+06
  -6.201575e+05  -2.548925e+06
   1.168857e+06  -1.311842e+06
   1.436669e+06  -1.200087e+05
   4.252829e+05   3.494458e+04
  -3.288213e+05  -6.296632e+05
   2.331089e+05  -1.048336e+06
   1.423563e+06  -5.122218e+05
   1.661182e+06   5.446097e+05
   4.500098e+05   1.064540e+06
  -9.436286e+05   5.688448e+05
  -9.240687e+05  -3.543634e+05
   6.087251e+05  -7.160272e+05
   2.095986e+06  -7.567568e+04
   1.915004e+06   1.132087e+06
   1.746676e+04   1.965149e+06
  -2.002344e+06   1.670835e+06
  -2.427954e+06   3.438362e+05
  -1.047010e+06  -9.763846e+05
   6.955496e+05  -1.154868e+06
   1.160034e+06  -1.506958e+05
   9.527963e+04   8.281021e+05
  -1.253395e+06   6.215447e+05
  -1.505847e+06  -5.580720e+05
  -4.781056e+05  -1.396768e+06
   7.898007e+05  -1.023285e+06
   1.137752e+06   4.783727e+04
   3.738713e+05   6.031434e+05
  -5.865261e+05   9.359354e+04
  -6.069874e+05  -8.643254e+05
   5.156988e+05  -1.200705e+06
   1.731703e+06  -4.358191e+05
   1.732603e+06   9.027614e+05
   3.587693e+05   1.750333e+06
  -1.150738e+06   1.432739e+06
  -1.456352e+06   2.726541e+05
  -5.145020e+05  -7.048213e+05
   5.170652e+05  -7.473154e+05
   6.380628e+05  -6.721091e+04
  -1.762533e+04   4.796734e+05
  -5.548192e+05   3.602662e+05
  -3.777209e+05  -1.014837e+05
   2.493767e+05  -1.768518e+05
   5.407121e+05   3.804094e+05
  -2.130735e+04   9.942950e+05
  -1.125805e+06   8.333372e+05
  -1.800308e+06  -2.964015e+05
  -1.284798e+06  -1.642343e+06
   1.538564e+05  -2.133597e+06
   1.399888e+06  -1.373176e+06
   1.593489e+06  -1.351547e+04
   9.472011e+05   8.822332e+05
   3.429281e+05   8.483782e+05
   2.649802e+05   3.594651e+05
   3.675503e+05   1.929623e+05
   6.561435e+04   5.409641e+05
  -6.854788e+05   8.277779e+05
  -1.285701e+06   4.031332e+05
  -1.055670e+06  -6.429182e+05
   1.060260e+05  -1.422515e+06
   1.493467e+06  -1.068555e+06
   2.020768e+06   3.521654e+05
   1.107808e+06   1.773868e+06
  -6.977625e+05   2.058682e+06
  -2.083893e+06   1.037274e+06
  -2.122392e+06  -3.827538e+05
  -1.062957e+06  -1.141106e+06
   5.041430e+04  -1.005575e+06
   4.587447e+05  -6.145351e+05
   2.893055e+05  -6.319796e+05
   1.841236e+05  -9.905612e+05
   5.220919e+05  -1.019510e+06
   1.043621e+06  -2.600280e+05
   1.141051e+06   9.339140e+05
   4.901398e+05   1.646797e+06
  -5.418119e+05   1.256897e+06
  -1.132345e+06   4.622238e+04
  -7.658559e+05  -1.034111e+06
   2.064618e+05  -1.207361e+06
   8.746745e+05  -5.037590e+05
   7.003973e+05   3.882824e+05
   5.170483e+04   8.220774e+05
  -2.753436e+05   7.133809e+05
   4.322345e+03   4.359517e+05
   3.466894e+05   3.250394e+05
   3.492778e+04   3.481757e+05
  -9.319200e+05   2.225895e+05
  -1.708365e+06  -2.212696e+05
  -1.417842e+06  -8.153365e+05
  -9.837710e+04  -1.163620e+06
   1.233365e+06  -9.765654e+05
   1.540516e+06  -3.482202e+05
   7.736459e+05   2.703860e+05
  -1.593255e+05   4.293478e+05
  -4.049010e+05   9.713807e+04
   1.215739e+04  -2.764879e+05
   4.289745e+05  -2.027133e+05
   4.047452e+05   2.944244e+05
   1.195180e+05   6.552209e+05
  -1.296983e+04   4.215089e+05
   1.315517e+05  -1.586936e+05
   3.238136e+05  -3.495538e+05
   2.632430e+05   1.863493e+05
  -1.648614e+05   8.956997e+05
  -7.631433e+05   9.174557e+05
  -1.054306e+06   9.866128e+04
  -6.250349e+05  -7.877309e+05
   3.466619e+05  -8.947854e+05
   1.015944e+06  -2.047951e+05
   6.276110e+05   5.251769e+05
  -5.762474e+05   5.954931e+05
  -1.434544e+06  -4.299524e+03
  -1.031864e+06  -7.140428e+05
   3.059149e+05  -9.602265e+05
   1.334068e+06  -5.880451e+05
   1.178304e+06   7.329833e+04
   1.789778e+05   4.741684e+05
  -5.524568e+05   2.951021e+05
  -3.055476e+05  -2.181976e+05
   5.542866e+05  -4.104221e+05
   1.023370e+06   1.372753e+05
   5.020814e+05   1.065348e+06
  -6.123636e+05   1.453141e+06
  -1.344933e+06   7.162253e+05
  -1.102274e+06  -6.946178e+05
  -1.772985e+05  -1.598054e+06
   6.444035e+05  -1.201383e+06
   8.378823e+05   8.290938e+04
   4.593736e+05   1.039591e+06
  -9.970979e+04   9.080423e+05
  -4.700047e+05   1.168848e+05
  -4.772249e+05  -3.451220e+05
  -2.145472e+05  -1.439717e+05
  -1.595763e+04   1.069394e+05
  -1.510715e+05  -2.076716e+05
  -4.212640e+05  -8.266450e+05
  -2.613596e+05  -9.681812e+05
   5.318181e+05  -3.728307e+05
   1.320118e+06   4.009726e+05
   1.216156e+06   7.298954e+05
   1.792893e+05   5.985712e+05
  -8.178088e+05   3.670853e+05
  -8.936087e+05   1.941518e+05
  -2.625418e+05  -1.780916e+03
   1.531931e+05  -1.922156e+05
  -4.847318e+04  -2.232702e+05
  -3.174903e+05  -1.296906e+05
  -1.222809e+04  -1.213603e+05
   6.712872e+05  -1.759879e+05
   9.101843e+05   3.209384e+04
   2.602978e+05   5.908552e+05
  -8.159028e+05   9.859248e+05
  -1.436036e+06   6.090407e+05
  -1.138310e+06  -4.214562e+05
  -2.110532e+05  -1.250087e+06
   6.499737e+05  -1.184165e+06
   9.191715e+05  -4.190320e+05
   5.873543e+05   2.493612e+05
   8.300965e+04   3.126868e+05
  -1.307203e+05   8.777912e+03
   4.663528e+04  -7.038573e+04
   3.030483e+05   2.995607e+05
   2.508080e+05   7.109209e+05
  -1.728751e+05   5.798628e+05
  -6.132272e+05  -1.597425e+05
  -6.019270e+05  -8.871796e+05
  -1.637190e+04  -8.959935e+05
   7.063430e+05  -1.429230e+05
   8.829804e+05   7.014616e+05
   2.563729e+05   9.523092e+05
  -6.377674e+05   5.391355e+05
  -9.452035e+05  -8.685159e+04
  -4.253985e+05  -4.861103e+05
   2.455233e+05  -5.278703e+05
   2.717620e+05  -3.086564e+05
  -2.838625e+05  -3.597328e+04
  -5.882613e+05   2.280310e+04
  -1.056996e+05  -2.570953e+05
   7.259906e+05  -6.056282e+05
   1.050737e+06  -5.263647e+05
   6.041883e+05   1.017025e+05
  -9.050220e+04   7.369581e+05
  -4.264161e+05   7.259980e+05
  -3.061768e+05   9.523821e+04
  -1.067310e+04  -4.476995e+05
   2.223011e+05  -3.457897e+05
   3.114604e+05   1.890387e+05
   2.130662e+05   5.096222e+05
  -6.154697e+04   3.205013e+05
  -3.402084e+05  -6.582931e+04
  -3.976834e+05  -2.051039e+05
  -2.132335e+05  -4.779957e+04
   1.092316e+03   8.447500e+04
   7.411524e+04  -5.848958e+04
   7.366839e+04  -3.467827e+05
   1.603220e+05  -4.148754e+05
   3.153903e+05  -8.192405e+04
   3.210655e+05   4.028101e+05
   3.076051e+04   5.760444e+05
  -3.887660e+05   2.452611e+05
  -5.423340e+05  -2.854415e+05
  -1.906232e+05  -5.275244e+05
   4.285691e+05  -3.116060e+05
   7.392474e+05   9.419583e+04
   4.022251e+05   3.339273e+05
  -2.579253e+05   3.064458e+05
  -5.446024e+05   1.446543e+05
  -1.734218e+05   7.144587e+03
   3.680033e+05  -9.900513e+03
   3.817385e+05   1.237380e+05
  -2.024856e+05   2.935272e+05
  -7.407059e+05   2.319273e+05
