
 $NMID
 id='ANONYMOUS ', fmtdat='(2E16.6)'
 volume=1.0
 tramp=1.0
 $END
  -1.653606e+07  -1.030687e+06
  -7.841123e+06  -1.276784e+07
   5.231091e+06  -1.136244e+07
   9.195390e+06  -1.297231e+06
   3.373623e+06   5.078730e+06
  -2.692199e+06   3.153835e+06
  -2.916881e+06  -1.565302e+06
   3.243581e+05  -3.247512e+06
   2.634002e+06  -1.711846e+06
   2.857713e+06   5.970161e+05
   1.690298e+06   2.242607e+06
  -2.513810e+05   2.463492e+06
  -1.670718e+06   9.125012e+05
  -1.044940e+06  -1.000546e+06
   9.609698e+05  -9.772321e+05
   1.756238e+06   1.060638e+06
   2.604201e+05   2.688490e+06
  -1.876388e+06   2.278903e+06
  -2.916925e+06   6.189105e+05
  -2.801791e+06  -1.076481e+06
  -1.824982e+06  -2.527181e+06
   1.214960e+05  -3.189188e+06
   2.111916e+06  -2.050960e+06
   2.238095e+06   2.761678e+05
   3.843623e+05   1.327161e+06
  -9.275343e+05   2.282510e+04
   1.087914e+05  -1.556549e+06
   2.010768e+06  -1.071210e+06
   2.288725e+06   9.071553e+05
   8.334196e+05   2.157226e+06
  -6.367767e+05   1.907059e+06
  -1.249158e+06   9.964339e+05
  -1.276935e+06   5.514682e+04
  -7.707997e+05  -6.851666e+05
   1.783874e+05  -6.090948e+05
   5.141268e+05   4.166009e+05
  -5.116873e+05   1.022028e+06
  -1.634777e+06   7.833587e+03
  -1.103924e+06  -1.482809e+06
   4.550710e+05  -1.422919e+06
   8.398186e+05  -1.535572e+05
  -1.494953e+05   6.955237e+04
  -3.062547e+05  -1.172168e+06
   1.307218e+06  -1.590993e+06
   2.604401e+06   1.861626e+05
   1.561527e+06   2.318896e+06
  -7.887924e+05   2.377335e+06
  -1.945401e+06   6.145699e+05
  -1.215928e+06  -8.586729e+05
   9.161140e+04  -9.603636e+05
   7.887288e+05  -2.183566e+05
   6.447602e+05   6.174440e+05
  -1.925922e+05   1.059587e+06
  -1.190545e+06   6.164147e+05
  -1.324108e+06  -5.604134e+05
  -2.759051e+05  -1.229790e+06
   6.785914e+05  -5.611438e+05
   2.654097e+05   3.791455e+05
  -7.411371e+05   2.263865e+04
  -5.305274e+05  -1.216479e+06
   9.490829e+05  -1.444758e+06
   1.861173e+06  -1.535874e+05
   1.227704e+06   1.124549e+06
   1.200275e+05   1.252867e+06
  -3.366828e+05   8.812270e+05
  -5.132109e+05   7.987852e+05
  -9.843066e+05   5.153088e+05
  -1.124029e+06  -4.565716e+05
  -2.491308e+05  -1.191752e+06
   8.095379e+05  -6.046218e+05
   6.810897e+05   6.600816e+05
  -4.825969e+05   9.711433e+05
  -1.189515e+06  -1.303836e+04
  -6.681709e+05  -1.033584e+06
   3.453233e+05  -1.063180e+06
   8.491145e+05  -3.706907e+05
   6.483735e+05   2.656792e+05
   1.058885e+05   4.577716e+05
  -3.492729e+05   1.776314e+05
  -3.063364e+05  -3.658138e+05
   3.319788e+05  -6.183135e+05
   9.634587e+05  -1.197359e+05
   8.027731e+05   7.525965e+05
  -6.459668e+04   1.073524e+06
  -7.212827e+05   5.673739e+05
  -6.411798e+05  -7.200599e+04
  -2.592691e+05  -2.225052e+05
  -1.393692e+05  -6.553097e+04
  -2.253719e+05  -3.087375e+04
  -2.290690e+05  -1.367285e+05
  -1.643211e+05  -2.383713e+05
  -9.719381e+04  -3.818930e+05
   1.228226e+05  -5.072781e+05
   4.575634e+05  -3.003409e+05
   4.797883e+05   2.226819e+05
   4.248864e+04   4.648912e+05
  -2.978338e+05   8.549123e+04
  -5.817816e+04  -3.634957e+05
   3.774242e+05  -2.238358e+05
   3.559428e+05   2.487646e+05
  -2.372625e+03   3.486487e+05
  -8.674410e+04   9.113787e+04
   1.105441e+05   9.213568e+04
   1.566441e+04   4.086391e+05
  -4.411403e+05   3.981439e+05
  -6.114168e+05  -1.473926e+05
  -1.916296e+05  -5.698117e+05
   2.609516e+05  -3.672818e+05
   2.200402e+05   5.997465e+04
  -4.761682e+04   1.245461e+05
  -5.738248e+04  -6.940397e+04
   9.313912e+04  -8.895117e+04
   4.016648e+04   3.401076e+04
  -1.221682e+05  -3.134084e+04
  -2.788943e+04  -2.317275e+05
   2.716234e+05  -2.051622e+05
   3.690787e+05   8.232155e+04
   1.574127e+05   2.939036e+05
  -7.048061e+04   2.711277e+05
  -1.407330e+05   1.742381e+05
  -1.644420e+05   9.338331e+04
  -1.833340e+05  -4.748921e+04
  -8.616873e+04  -1.796328e+05
   6.478058e+04  -1.068339e+05
   3.401244e+04   9.322160e+04
  -1.550535e+05   8.671805e+04
  -1.688433e+05  -1.748955e+05
   1.042493e+05  -3.101724e+05
   3.209867e+05  -8.252923e+04
   1.864811e+05   2.222145e+05
  -1.092696e+05   2.270441e+05
  -1.990999e+05  -8.711500e+03
  -4.444910e+04  -1.578560e+05
   1.201335e+05  -1.035093e+05
   1.605002e+05   2.519913e+04
   1.042487e+05   1.310756e+05
  -2.595415e+04   1.886087e+05
  -1.841171e+05   1.245391e+05
  -2.124424e+05  -7.428763e+04
  -2.954392e+04  -2.136410e+05
   1.684071e+05  -1.057640e+05
   1.304318e+05   1.229239e+05
  -8.458186e+04   1.777940e+05
  -1.969477e+05   9.438232e+03
  -1.090661e+05  -1.578735e+05
   2.482892e+04  -1.824415e+05
   9.989545e+04  -1.348137e+05
   1.641205e+05  -7.014872e+04
   2.072286e+05   5.851391e+04
   1.195939e+05   2.050476e+05
  -6.782012e+04   2.054350e+05
  -1.499253e+05   4.771379e+04
  -5.660960e+04  -5.792496e+04
   2.590183e+04   3.837265e+03
  -3.815121e+04   7.596846e+04
  -1.197585e+05   7.061082e+03
  -6.870347e+04  -9.604122e+04
   2.744644e+04  -7.228018e+04
   1.873703e+04   1.233430e+04
  -3.817210e+04   1.326446e+03
  -6.088144e+03  -6.832707e+04
   6.416984e+04  -5.341166e+04
   3.208101e+04   1.650322e+04
  -5.027520e+04  -3.892003e+03
  -1.111574e+04  -8.714642e+04
   1.215892e+05  -5.899957e+04
   1.366381e+05   8.397264e+04
  -6.449654e+03   1.362994e+05
  -9.512234e+04   1.883701e+04
  -6.490003e+03  -8.245039e+04
   1.002573e+05  -1.491856e+04
   5.275865e+04   1.073119e+05
  -6.942094e+04   1.077092e+05
  -9.409961e+04   2.053755e+04
  -3.243111e+04  -7.350014e+03
  -1.984154e+04   2.871706e+04
  -7.616511e+04   1.398283e+04
  -9.870787e+04  -7.207251e+04
  -4.618255e+04  -1.321050e+05
   2.338842e+04  -1.158011e+05
   7.362776e+04  -6.641779e+04
   1.142660e+05  -1.309940e+04
   1.191124e+05   5.487230e+04
   4.706701e+04   1.052772e+05
  -5.361943e+04   7.563073e+04
  -7.834640e+04  -1.297397e+04
  -1.614993e+04  -5.887874e+04
   3.596654e+04  -2.127457e+04
   2.258024e+04   3.187184e+04
  -6.816011e+03   3.972415e+04
  -4.715123e+03   2.286318e+04
   4.223469e+03   1.361132e+04
  -6.095325e+03   9.815814e+02
  -1.369749e+04  -1.580716e+04
  -1.085063e+04  -1.851162e+03
  -3.142666e+04   3.786673e+04
  -7.085958e+04   3.447965e+04
  -6.213448e+04  -3.705890e+04
   1.334625e+04  -9.658856e+04
   7.081504e+04  -7.029617e+04
   4.454082e+04  -2.216198e+03
  -8.166662e+03   1.901912e+04
  -2.860460e+03  -6.855053e+03
   3.842203e+04  -1.377796e+04
   4.078128e+04   1.379728e+04
   9.399731e+03   3.324945e+04
   3.831458e+03   3.103314e+04
   1.559850e+04   3.153601e+04
  -1.355167e+04   2.853314e+04
  -6.472878e+04  -7.427619e+03
  -5.252143e+04  -5.201333e+04
   2.548559e+04  -4.172358e+04
   6.469432e+04   2.020059e+04
   1.433726e+04   5.231883e+04
  -4.220981e+04   1.501283e+04
  -2.277286e+04  -3.193000e+04
   2.913363e+04  -2.662408e+04
   2.776891e+04   8.317690e+03
  -1.850580e+04   2.116554e+04
  -3.831891e+04   1.228480e+04
  -1.621590e+04   6.456269e+03
   4.679649e+03  -4.413381e+03
   9.064968e+03  -3.026355e+04
   1.666359e+04  -3.658559e+04
   1.990684e+04   3.541051e+03
  -6.167492e+03   4.225281e+04
  -3.676178e+04   1.556006e+04
  -1.708671e+04  -4.764468e+04
   4.321222e+04  -5.318565e+04
   6.702865e+04   2.002733e+04
   1.939399e+04   8.392319e+04
  -4.371705e+04   6.319899e+04
  -6.036933e+04  -1.055011e+04
  -3.739201e+04  -5.767400e+04
  -9.734794e+03  -5.160993e+04
   1.803430e+04  -2.226466e+04
   4.725595e+04   3.532976e+03
   5.008306e+04   2.137945e+04
   1.108822e+04   2.932276e+04
  -2.927971e+04   2.548027e+04
  -2.636026e+04   1.734238e+04
  -2.793578e+03   1.048056e+04
  -1.283005e+04  -1.869382e+03
  -4.980214e+04  -2.176294e+04
  -5.004861e+04  -3.468275e+04
   8.006822e+03  -3.089594e+04
   6.539745e+04  -2.051512e+04
   6.234871e+04  -1.115206e+04
   1.335175e+04   6.395794e+03
  -2.327011e+04   3.005354e+04
  -2.041716e+04   3.192683e+04
   8.781659e+02   1.758067e+03
   1.093652e+04  -2.180742e+04
   2.230573e+03  -3.459208e+03
  -1.168790e+04   2.684083e+04
  -1.159411e+04   1.427421e+04
   8.395218e+03  -2.997191e+04
   2.956055e+04  -3.671823e+04
   2.516835e+04   1.682141e+04
  -6.519716e+03   6.833942e+04
  -3.820254e+04   5.771794e+04
  -4.711465e+04   3.875038e+03
  -3.652983e+04  -3.625629e+04
  -1.833582e+04  -4.425120e+04
   3.874586e+03  -3.784542e+04
   2.236287e+04  -2.495934e+04
   2.006601e+04  -4.455289e+03
  -1.162742e+03   7.851064e+03
  -8.190065e+03  -1.673975e+03
   1.907103e+04  -1.127840e+04
   4.655492e+04   7.775990e+03
   2.506799e+04   3.706268e+04
  -3.469536e+04   2.976973e+04
  -6.505825e+04  -1.596310e+04
  -2.787598e+04  -4.724599e+04
   3.555330e+04  -2.978342e+04
   5.893645e+04   9.817089e+03
   2.949939e+04   3.090648e+04
  -1.122116e+04   2.991681e+04
  -2.739865e+04   2.223615e+04
  -2.203642e+04   7.835974e+03
  -1.548757e+04  -1.397367e+04
  -1.600949e+04  -2.237717e+04
  -1.773153e+04  -4.045093e+03
  -1.365495e+04   1.328630e+04
  -2.909043e+03  -5.318938e+03
   9.710049e+03  -4.359643e+04
   1.775210e+04  -4.924198e+04
   1.828452e+04  -8.423462e+03
   1.298043e+04   3.253395e+04
   4.293121e+03   3.058863e+04
  -4.909691e+03  -8.387474e+02
  -7.612423e+03  -1.963908e+04
   2.376646e+03  -1.122796e+04
   1.749444e+04   5.351613e+03
   1.896571e+04   1.208418e+04
   7.897148e+02   9.558933e+03
  -1.832817e+04   5.490547e+03
  -1.847036e+04   3.600589e+03
  -5.542928e+03   3.354578e+03
  -1.370111e+02   3.089413e+02
  -5.512277e+03  -1.063032e+04
  -5.025965e+03  -2.458002e+04
   9.192466e+03  -2.549158e+04
   2.339411e+04  -5.578953e+03
   2.233333e+04   1.983723e+04
   7.271619e+03   2.825378e+04
  -1.091096e+04   1.630104e+04
  -2.257551e+04  -1.138144e+03
  -1.889749e+04  -1.283378e+04
   2.892784e+03  -1.784378e+04
   2.605554e+04  -1.395492e+04
   2.377338e+04   1.847078e+03
  -4.923819e+03   1.872097e+04
  -2.476256e+04   1.652150e+04
  -7.723159e+03  -5.560187e+03
   2.585523e+04  -1.972894e+04
   3.201930e+04  -2.922319e+03
   1.605421e+03   2.944972e+04
  -3.087110e+04   3.868024e+04
