
 $NMID
 id='ANONYMOUS ', fmtdat='(2E16.6)'
 volume=1.0
 tramp=1.0
 $END
   5.647531e+07  -1.460777e+06
   3.477065e+07   3.432625e+07
  -6.677231e+06   3.847958e+07
  -2.737370e+07   1.515433e+07
  -1.659615e+07  -6.858644e+06
   3.206154e+06  -9.418293e+06
   9.848958e+06   1.146274e+06
   2.878523e+06   9.748195e+06
  -6.076823e+06   9.356452e+06
  -9.600668e+06   2.114873e+06
  -7.109183e+06  -6.006549e+06
  -1.027660e+06  -8.510824e+06
   3.889521e+06  -2.858352e+06
   2.727922e+06   5.268898e+06
  -3.621901e+06   6.524936e+06
  -7.884146e+06  -1.203122e+06
  -4.647454e+06  -1.008983e+07
   3.515460e+06  -1.185991e+07
   9.951090e+06  -6.163200e+06
   1.088102e+07   1.735076e+06
   6.891871e+06   7.314074e+06
   9.699174e+05   8.718168e+06
  -2.830067e+06   6.223916e+06
  -1.954776e+06   2.711663e+06
   1.052856e+06   1.970453e+06
   4.135468e+05   4.027570e+06
  -5.132635e+06   4.521195e+06
  -9.517664e+06   8.265458e+05
  -7.134988e+06  -3.868310e+06
  -4.790279e+05  -5.036738e+06
   3.534168e+06  -2.724617e+06
   2.460907e+06  -1.936934e+05
  -4.481049e+05   8.598604e+05
  -2.098692e+06   5.738046e+05
  -2.185264e+06  -1.238429e+06
  -8.748825e+05  -3.800148e+06
   1.643385e+06  -3.916217e+06
   3.288600e+06  -6.060012e+04
   1.892878e+06   3.585746e+06
  -7.156143e+05   2.043830e+06
  -4.617390e+05  -2.337813e+06
   2.357639e+06  -2.313607e+06
   2.497673e+06   3.146824e+06
  -2.342183e+06   6.198587e+06
  -7.012040e+06   1.172345e+06
  -5.324426e+06  -6.840239e+06
   1.727840e+06  -8.609312e+06
   7.370540e+06  -2.611105e+06
   6.997793e+06   4.263777e+06
   1.930422e+06   5.937341e+06
  -3.394375e+06   2.733709e+06
  -5.213986e+06  -1.431674e+06
  -2.432713e+06  -3.421438e+06
   2.390434e+06  -2.229012e+06
   4.534841e+06   8.379870e+05
   1.988837e+06   2.684663e+06
  -1.690114e+06   1.406741e+06
  -1.729713e+06  -9.870202e+05
   1.346511e+06  -9.129811e+05
   2.512607e+06   1.771305e+06
  -6.082530e+05   3.514663e+06
  -4.654795e+06   2.004503e+06
  -5.341871e+06  -1.278162e+06
  -2.392912e+06  -3.940685e+06
   1.639883e+06  -5.281739e+06
   4.796533e+06  -4.944867e+06
   6.083042e+06  -1.927438e+06
   4.662670e+06   2.983880e+06
   1.119914e+06   6.090230e+06
  -1.754591e+06   4.759914e+06
  -1.751124e+06   1.195896e+06
  -1.350779e+05  -3.182655e+05
   1.476924e+05   9.434461e+05
  -1.457958e+06   1.853389e+06
  -2.748902e+06   3.868168e+05
  -2.075773e+06  -1.785254e+06
  -1.292992e+05  -2.083175e+06
   1.478496e+06  -2.545195e+05
   1.690391e+06   1.968081e+06
   9.662204e+04   2.880176e+06
  -2.674521e+06   1.733608e+06
  -4.476530e+06  -1.023938e+06
  -3.333433e+06  -3.641283e+06
  -9.351058e+04  -4.235144e+06
   2.209924e+06  -2.794360e+06
   2.221841e+06  -1.189739e+06
   1.817851e+06  -7.014327e+05
   2.899924e+06  -5.256192e+05
   4.313706e+06   6.589705e+05
   3.504997e+06   2.652067e+06
   2.253287e+05   4.067492e+06
  -3.057803e+06   3.926483e+06
  -4.046880e+06   2.215396e+06
  -2.636314e+06  -3.175164e+05
  -3.618772e+05  -2.186418e+06
   1.010710e+06  -1.949570e+06
   5.604185e+05   1.048863e+04
  -1.032383e+06   1.325750e+06
  -1.882731e+06   4.447755e+05
  -9.565742e+05  -1.173321e+06
   4.741713e+05  -1.111192e+06
   4.123372e+05   3.813147e+05
  -1.073388e+06   6.837706e+05
  -1.871433e+06  -1.304323e+06
  -6.562059e+05  -3.484173e+06
   1.585639e+06  -3.375968e+06
   3.112751e+06  -1.084450e+06
   3.258148e+06   1.405942e+06
   2.250067e+06   2.663371e+06
   4.888254e+05   2.537663e+06
  -1.179095e+06   1.470178e+06
  -1.544235e+06   2.704891e+05
  -4.877023e+05  -3.377383e+04
   3.708454e+05   7.372920e+05
  -3.880122e+05   1.348353e+06
  -1.895033e+06   6.189137e+05
  -2.044181e+06  -8.514009e+05
  -4.034424e+05  -1.410474e+06
   1.155024e+06  -5.861137e+05
   8.751185e+05   4.358776e+05
  -8.430600e+05   5.083530e+05
  -2.144411e+06  -3.039751e+05
  -1.713077e+06  -1.307703e+06
   2.267156e+05  -1.928010e+06
   2.244303e+06  -1.664087e+06
   2.733934e+06  -3.244224e+05
   1.235565e+06   1.236130e+06
  -8.835333e+05   1.525201e+06
  -1.560397e+06   2.279906e+05
  -2.347470e+05  -1.076614e+06
   1.490627e+06  -7.684280e+05
   1.718516e+06   7.475056e+05
   3.504096e+05   1.633836e+06
  -1.079356e+06   9.721330e+05
  -1.248489e+06  -3.081698e+05
  -2.418276e+05  -7.799947e+05
   8.020515e+05  -6.930261e+04
   7.608815e+05   1.031264e+06
  -5.321365e+05   1.429642e+06
  -1.975621e+06   5.923761e+05
  -2.046118e+06  -9.900834e+05
  -4.278473e+05  -2.051695e+06
   1.399203e+06  -1.661256e+06
   1.710436e+06  -2.372784e+05
   5.073548e+05   8.563148e+05
  -6.417565e+05   8.052604e+05
  -6.145431e+05   8.931652e+04
   1.214024e+05  -3.399353e+05
   4.668084e+05  -1.944636e+05
   8.778865e+04   5.844227e+04
  -4.652558e+05  -9.527951e+04
  -5.182758e+05  -6.793470e+05
   1.960505e+05  -1.185601e+06
   1.356471e+06  -9.129758e+05
   2.072060e+06   3.672132e+05
   1.496648e+06   1.893786e+06
  -1.599215e+05   2.397231e+06
  -1.565584e+06   1.417030e+06
  -1.658646e+06  -1.018160e+05
  -8.412799e+05  -8.539561e+05
  -3.174871e+05  -5.996945e+05
  -4.956041e+05  -1.809223e+05
  -6.525017e+05  -3.029822e+05
  -1.119901e+05  -7.696331e+05
   8.549503e+05  -9.068568e+05
   1.421357e+06  -3.400328e+05
   1.035693e+06   6.873265e+05
  -2.282457e+05   1.429350e+06
  -1.678354e+06   1.084366e+06
  -2.226986e+06  -4.329838e+05
  -1.156588e+06  -2.058443e+06
   9.662904e+05  -2.367021e+06
   2.509445e+06  -1.064069e+06
   2.332728e+06   6.227226e+05
   9.458025e+05   1.306836e+06
  -2.008074e+05   9.161550e+05
  -3.573339e+05   4.890769e+05
  -2.748687e+04   7.480391e+05
  -5.509802e+04   1.314930e+06
  -6.387367e+05   1.306136e+06
  -1.283194e+06   3.508903e+05
  -1.353916e+06  -1.035577e+06
  -5.979223e+05  -1.860494e+06
   5.788976e+05  -1.436660e+06
   1.270541e+06  -2.282036e+04
   8.279150e+05   1.262020e+06
  -3.708427e+05   1.393206e+06
  -1.161524e+06   4.095630e+05
  -8.227816e+05  -7.012541e+05
   1.169432e+05  -1.085246e+06
   5.395872e+05  -7.843524e+05
   8.624882e+04  -4.035339e+05
  -4.413765e+05  -3.154149e+05
  -7.171666e+04  -3.749345e+05
   1.141202e+06  -2.317598e+05
   2.062948e+06   2.851311e+05
   1.625572e+06   9.975489e+05
  -1.995670e+04   1.435113e+06
  -1.565832e+06   1.173254e+06
  -1.814323e+06   3.052595e+05
  -8.316480e+05  -4.931842e+05
   2.534029e+05  -5.806132e+05
   5.122995e+05  -3.629486e+04
   4.872005e+04   4.293827e+05
  -4.236045e+05   2.703572e+05
  -4.878489e+05  -3.256067e+05
  -2.871616e+05  -7.024338e+05
  -1.244980e+05  -4.694223e+05
  -1.320213e+05   8.403117e+04
  -2.555387e+05   2.794059e+05
  -2.748684e+05  -2.251224e+05
   1.057876e+05  -9.723431e+05
   8.636353e+05  -1.081554e+06
   1.365664e+06  -2.227344e+05
   8.900470e+05   8.809976e+05
  -3.803843e+05   1.157062e+06
  -1.248527e+06   3.869489e+05
  -7.438157e+05  -5.410924e+05
   6.842922e+05  -6.549698e+05
   1.564864e+06   6.864369e+04
   9.876318e+05   8.368208e+05
  -4.771520e+05   9.731368e+05
  -1.466644e+06   4.783621e+05
  -1.205033e+06  -1.766128e+05
  -1.332336e+05  -5.006390e+05
   6.395222e+05  -2.713466e+05
   3.957921e+05   2.884507e+05
  -5.533682e+05   5.440628e+05
  -1.175186e+06  -2.897268e+04
  -7.201606e+05  -1.139859e+06
   5.074978e+05  -1.711293e+06
   1.429323e+06  -9.367103e+05
   1.265781e+06   7.033510e+05
   2.549745e+05   1.760473e+06
  -6.963553e+05   1.286498e+06
  -9.155343e+05  -1.666570e+05
  -4.407058e+05  -1.170158e+06
   2.152174e+05  -9.516394e+05
   5.612641e+05  -8.845717e+04
   4.532919e+05   3.569943e+05
   1.452792e+05   1.257018e+05
   5.349129e+04  -8.952999e+04
   3.146271e+05   2.973497e+05
   5.423177e+05   9.471546e+05
   1.935339e+05   1.057340e+06
  -7.246594e+05   4.066783e+05
  -1.467311e+06  -4.174639e+05
  -1.265123e+06  -7.919786e+05
  -1.999663e+05  -6.908400e+05
   8.095983e+05  -4.415780e+05
   9.599635e+05  -2.000892e+05
   3.776444e+05   5.486638e+04
  -1.283218e+05   2.297528e+05
  -5.661883e+04   1.910056e+05
   2.354924e+05   7.003665e+04
   6.604425e+04   1.281126e+05
  -6.150038e+05   2.660557e+05
  -1.040580e+06   3.295799e+04
  -4.968025e+05  -6.750813e+05
   7.638142e+05  -1.213124e+06
   1.678037e+06  -8.309774e+05
   1.451153e+06   3.595231e+05
   3.341023e+05   1.377501e+06
  -7.199207e+05   1.400420e+06
  -1.021024e+06   5.922060e+05
  -6.527007e+05  -1.889398e+05
  -1.593874e+05  -3.506349e+05
   3.902828e+04  -8.690597e+04
  -9.075561e+04  -2.235794e+03
  -2.957829e+05  -3.639803e+05
  -2.604762e+05  -7.927105e+05
   1.461032e+05  -6.866627e+05
   6.726148e+05   7.209304e+04
   7.876556e+05   8.923196e+05
   1.911731e+05   1.020650e+06
  -7.155911e+05   3.066215e+05
  -1.063753e+06  -6.431728e+05
  -4.098803e+05  -1.067452e+06
   6.741714e+05  -7.241462e+05
   1.127909e+06   2.013963e+04
   5.704545e+05   6.088029e+05
  -2.595986e+05   7.140912e+05
  -3.892659e+05   3.873515e+05
   2.145224e+05  -1.181629e+04
   6.338986e+05  -6.923572e+04
   1.682178e+05   3.052651e+05
  -7.919769e+05   7.003878e+05
  -1.254364e+06   5.611507e+05
  -7.940214e+05  -1.700729e+05
   5.836746e+04  -8.777680e+05
   5.408647e+05  -8.836778e+05
   4.463323e+05  -2.008922e+05
   8.892724e+04   4.592215e+05
  -2.130842e+05   4.582986e+05
  -3.523993e+05  -1.030975e+05
  -2.798409e+05  -5.606716e+05
   2.637083e+04  -4.518143e+05
   3.903253e+05   1.547059e+04
   4.935211e+05   2.787783e+05
   2.450163e+05   1.038660e+05
  -5.546410e+04  -1.698463e+05
  -8.546587e+04  -8.683619e+04
   6.661572e+04   3.299911e+05
   3.210395e+04   5.781421e+05
  -2.870021e+05   2.832663e+05
  -5.085477e+05  -3.203698e+05
  -2.353605e+05  -6.293389e+05
   3.757099e+05  -3.435937e+05
   6.900970e+05   2.281172e+05
   2.913728e+05   5.450727e+05
  -4.964456e+05   3.887629e+05
  -8.959134e+05  -2.285671e+04
  -5.002148e+05  -3.528499e+05
   2.734178e+05  -4.323645e+05
   6.312607e+05  -2.820265e+05
   2.714281e+05  -3.454790e+04
  -3.058163e+05   1.067300e+05
  -3.926260e+05  -1.126052e+04
   1.267404e+05  -2.746340e+05
   6.792596e+05  -3.016508e+05
