
 $NMID
 id='ANONYMOUS ', fmtdat='(2E16.6)'
 volume=1.0
 tramp=1.0
 $END
  -1.964785e+07  -1.102522e+06
  -1.240431e+07  -9.998278e+06
   8.506702e+05  -1.233362e+07
   8.811834e+06  -7.635133e+06
   6.964723e+06  -4.130637e+05
   2.259545e+05   3.473470e+06
  -3.953423e+06   1.544908e+06
  -2.786716e+06  -3.212349e+06
   1.121313e+06  -5.268630e+06
   3.724261e+06  -2.215499e+06
   3.079955e+06   2.682200e+06
   2.496412e+05   4.146787e+06
  -1.963970e+06   7.971565e+05
  -1.435469e+06  -3.458234e+06
   1.270013e+06  -3.949160e+06
   3.279878e+06  -2.203558e+05
   2.262504e+06   3.962706e+06
  -1.119553e+06   4.844813e+06
  -3.890184e+06   2.151871e+06
  -3.812856e+06  -1.347999e+06
  -1.500985e+06  -2.909978e+06
   4.565792e+05  -2.214616e+06
   2.387828e+05  -1.128203e+06
  -1.355428e+06  -1.417335e+06
  -1.749134e+06  -2.800235e+06
   5.735781e+05  -3.355001e+06
   4.060456e+06  -1.811746e+06
   5.347535e+06   9.090689e+05
   2.861390e+06   2.647624e+06
  -1.183338e+06   2.190120e+06
  -2.964666e+06   2.332094e+05
  -1.126051e+06  -1.481628e+06
   1.951669e+06  -1.563971e+06
   3.022616e+06   1.314392e+05
   1.420948e+06   2.285587e+06
  -7.744201e+05   2.915512e+06
  -1.443841e+06   1.241148e+06
  -5.230364e+05  -1.086541e+06
   4.999440e+05  -1.466163e+06
   4.307472e+05   5.370668e+05
  -6.002383e+05   2.376633e+06
  -1.518777e+06   1.572908e+06
  -1.324837e+06  -1.059959e+06
   5.091235e+04  -2.327395e+06
   1.518047e+06  -6.304376e+05
   1.559231e+06   2.112234e+06
  -3.343459e+05   2.851048e+06
  -2.798197e+06   8.381201e+05
  -3.540334e+06  -1.912517e+06
  -1.563653e+06  -3.020170e+06
   1.596098e+06  -1.899189e+06
   3.190777e+06   1.852169e+05
   1.965090e+06   1.500388e+06
  -6.193611e+05   1.225927e+06
  -1.986933e+06  -4.106838e+04
  -1.115143e+06  -9.275601e+05
   6.154354e+05  -6.121145e+05
   1.160737e+06   4.012608e+05
   7.911607e+04   9.200444e+05
  -1.137957e+06   3.891202e+05
  -8.709821e+05  -5.951334e+05
   7.623409e+05  -9.851405e+05
   1.984349e+06  -2.504571e+05
   1.242125e+06   1.234914e+06
  -1.123134e+06   2.410676e+06
  -3.177124e+06   2.178864e+06
  -3.316650e+06   3.218092e+05
  -1.756332e+06  -2.028132e+06
  -5.946164e+04  -3.216261e+06
   6.066920e+05  -2.671631e+06
   4.890210e+05  -1.442290e+06
   5.792870e+05  -8.431259e+05
   1.293825e+06  -8.620765e+05
   2.050913e+06  -4.083779e+05
   1.992231e+06   9.536375e+05
   8.718499e+05   2.150316e+06
  -7.022812e+05   1.797399e+06
  -1.680087e+06  -7.081926e+04
  -1.291345e+06  -1.874347e+06
   2.931862e+05  -2.062559e+06
   1.899950e+06  -5.794552e+05
   2.241713e+06   1.249206e+06
   1.130881e+06   2.078556e+06
  -3.167591e+05   1.690527e+06
  -9.117378e+05   9.087371e+05
  -7.130884e+05   5.711812e+05
  -8.137689e+05   6.865670e+05
  -1.794868e+06   5.668699e+05
  -2.769408e+06  -3.265781e+05
  -2.284001e+06  -1.738895e+06
  -8.706296e+04  -2.761906e+06
   2.317041e+06  -2.562759e+06
   3.046161e+06  -1.095555e+06
   1.697784e+06   7.298671e+05
  -2.885761e+05   1.647281e+06
  -1.111293e+06   1.095530e+06
  -3.369806e+05  -1.807857e+05
   8.849506e+05  -7.957855e+05
   1.193925e+06  -1.834806e+05
   4.018742e+05   7.610516e+05
  -5.074390e+05   7.616456e+05
  -5.391233e+05  -2.231840e+05
   3.315460e+05  -8.558536e+05
   1.226234e+06  -2.217002e+04
   1.186290e+06   1.733364e+06
  -3.876294e+04   2.682727e+06
  -1.746870e+06   1.747336e+06
  -2.720487e+06  -3.926776e+05
  -2.163000e+06  -2.036554e+06
  -4.708803e+05  -2.113619e+06
   9.980495e+05  -1.029642e+06
   1.175589e+06  -3.897953e+04
   3.404027e+05   4.091572e+04
  -2.463347e+05  -5.119325e+05
   2.030963e+05  -8.085269e+05
   1.117852e+06  -3.576421e+05
   1.289010e+06   4.539851e+05
   3.418142e+05   8.343890e+05
  -7.599751e+05   4.370068e+05
  -7.578445e+05  -3.004301e+05
   4.774363e+05  -5.996831e+05
   1.710734e+06  -6.800811e+04
   1.576665e+06   9.461954e+05
   5.529673e+03   1.618432e+06
  -1.653700e+06   1.323297e+06
  -1.962914e+06   2.193098e+05
  -8.034675e+05  -7.962960e+05
   5.838320e+05  -8.737926e+05
   9.017702e+05  -7.269915e+04
   3.010211e+04   6.516253e+05
  -1.016738e+06   4.530060e+05
  -1.190064e+06  -4.738370e+05
  -3.728053e+05  -1.122954e+06
   6.300561e+05  -8.233479e+05
   9.117842e+05   3.070179e+04
   3.080625e+05   4.751540e+05
  -4.525554e+05   5.987228e+04
  -4.513113e+05  -7.068064e+05
   4.585260e+05  -9.426094e+05
   1.406182e+06  -2.868958e+05
   1.356950e+06   7.819959e+05
   2.344416e+05   1.408165e+06
  -9.522254e+05   1.111639e+06
  -1.167523e+06   1.877528e+05
  -4.036934e+05  -5.699674e+05
   4.269266e+05  -5.909635e+05
   5.315665e+05  -3.758832e+04
  -6.240965e+03   4.127009e+05
  -4.741598e+05   3.112670e+05
  -3.538291e+05  -9.031632e+04
   1.691024e+05  -1.741594e+05
   4.309915e+05   2.809076e+05
  -2.084079e+04   7.851461e+05
  -9.157636e+05   6.411828e+05
  -1.434087e+06  -2.849147e+05
  -9.805179e+05  -1.353195e+06
   1.846799e+05  -1.715362e+06
   1.162944e+06  -1.087038e+06
   1.300523e+06   1.126075e+04
   7.767934e+05   7.505804e+05
   2.742418e+05   7.440144e+05
   1.808935e+05   3.366137e+05
   2.522756e+05   1.601873e+05
   2.726519e+04   4.147512e+05
  -5.617745e+05   6.491750e+05
  -1.047339e+06   3.071702e+05
  -8.568344e+05  -5.478658e+05
   1.030098e+05  -1.165512e+06
   1.229379e+06  -8.373940e+05
   1.624074e+06   3.325699e+05
   8.549077e+05   1.447380e+06
  -5.933618e+05   1.625810e+06
  -1.679348e+06   7.883318e+05
  -1.701379e+06  -3.363405e+05
  -8.615802e+05  -9.372775e+05
   4.004357e+04  -8.364635e+05
   4.040636e+05  -5.177080e+05
   2.963887e+05  -5.048204e+05
   2.046992e+05  -7.674786e+05
   4.459211e+05  -7.813551e+05
   8.332946e+05  -1.685005e+05
   8.833150e+05   7.882684e+05
   3.421272e+05   1.340374e+06
  -4.764616e+05   9.950591e+05
  -9.130004e+05   1.041625e+04
  -5.903371e+05  -8.383420e+05
   1.799494e+05  -9.573310e+05
   6.869773e+05  -3.996890e+05
   5.400340e+05   2.935579e+05
   4.021488e+04   6.341526e+05
  -2.064875e+05   5.626186e+05
   7.839013e+03   3.614674e+05
   2.642527e+05   2.805552e+05
   1.423287e+04   2.850277e+05
  -7.424342e+05   1.535382e+05
  -1.347916e+06  -2.243892e+05
  -1.112592e+06  -6.848942e+05
  -6.271231e+04  -9.171122e+05
   9.961407e+05  -7.358618e+05
   1.235674e+06  -2.484133e+05
   6.156199e+05   2.096228e+05
  -1.321283e+05   3.245451e+05
  -3.180882e+05   7.625862e+04
   3.039994e+04  -2.066556e+05
   3.612861e+05  -1.470561e+05
   3.132784e+05   2.501566e+05
   5.647267e+04   5.411027e+05
  -4.274558e+04   3.442512e+05
   1.098169e+05  -1.389142e+05
   2.833178e+05  -2.931073e+05
   2.097051e+05   1.545089e+05
  -1.683805e+05   7.249165e+05
  -6.409832e+05   7.104927e+05
  -8.287360e+05   2.797848e+04
  -4.539604e+05  -6.585011e+05
   3.101227e+05  -6.890448e+05
   8.131782e+05  -1.102181e+05
   4.870288e+05   4.490012e+05
  -4.747559e+05   4.649614e+05
  -1.160876e+06  -3.190040e+04
  -8.364905e+05  -5.932406e+05
   2.496319e+05  -7.770273e+05
   1.090322e+06  -4.654503e+05
   9.623208e+05   7.368904e+04
   1.423243e+05   3.896984e+05
  -4.485835e+05   2.309730e+05
  -2.309413e+05  -1.794154e+05
   4.709653e+05  -3.051733e+05
   8.209542e+05   1.583899e+05
   3.536351e+05   8.857172e+05
  -5.629362e+05   1.147937e+06
  -1.119815e+06   5.229074e+05
  -8.674087e+05  -6.024374e+05
  -9.163707e+04  -1.299568e+06
   5.544906e+05  -9.606799e+05
   6.744604e+05   7.807245e+04
   3.527443e+05   8.476865e+05
  -8.779940e+04   7.359824e+05
  -3.756623e+05   8.658696e+04
  -3.883991e+05  -2.932781e+05
  -1.843539e+05  -1.243292e+05
  -9.506290e+03   8.919148e+04
  -9.230889e+04  -1.664652e+05
  -3.057631e+05  -6.771039e+05
  -1.998674e+05  -7.887444e+05
   4.193820e+05  -2.836116e+05
   1.056104e+06   3.638907e+05
   9.759135e+05   6.226609e+05
   1.276441e+05   4.844915e+05
  -6.863554e+05   2.723538e+05
  -7.314438e+05   1.359217e+05
  -1.974882e+05  -3.341257e+03
   1.357011e+05  -1.499657e+05
  -5.143500e+04  -1.867260e+05
  -2.727774e+05  -1.208074e+05
   1.081761e+03  -1.010294e+05
   5.687641e+05  -1.174539e+05
   7.320133e+05   6.184087e+04
   1.625337e+05   4.880022e+05
  -7.107781e+05   7.609893e+05
  -1.168845e+06   4.272370e+05
  -8.834465e+05  -3.934039e+05
  -1.219822e+05  -1.020216e+06
   5.601163e+05  -9.261649e+05
   7.577903e+05  -2.945304e+05
   4.703631e+05   2.305676e+05
   4.838074e+04   2.564411e+05
  -1.241417e+05  -4.682462e+03
   3.123457e+04  -6.640114e+04
   2.417705e+05   2.442423e+05
   1.858703e+05   5.800023e+05
  -1.635957e+05   4.587083e+05
  -4.955337e+05  -1.611922e+05
  -4.471757e+05  -7.505790e+05
   3.777965e+04  -7.257408e+05
   5.893383e+05  -7.630141e+04
   6.859925e+05   6.134751e+05
   1.622120e+05   7.786173e+05
  -5.388126e+05   4.004869e+05
  -7.518195e+05  -1.096766e+05
  -3.135865e+05  -3.969679e+05
   2.186292e+05  -4.010013e+05
   2.162164e+05  -2.325072e+05
  -2.450083e+05  -4.132436e+04
  -4.800728e+05  -3.500902e+03
  -7.018548e+04  -2.091771e+05
   6.058447e+05  -4.657756e+05
   8.491742e+05  -3.974130e+05
   4.650639e+05   9.384423e+04
  -1.012561e+05   5.852473e+05
  -3.564819e+05   5.611550e+05
  -2.369764e+05   5.106206e+04
   1.385980e+04  -3.700126e+05
   1.963287e+05  -2.632303e+05
   2.488313e+05   1.773288e+05
   1.519766e+05   4.195700e+05
  -6.769501e+04   2.441831e+05
  -2.729434e+05  -7.141796e+04
  -3.062943e+05  -1.704515e+05
  -1.681220e+05  -3.704929e+04
  -1.191533e+04   5.858918e+04
   5.622135e+04  -6.784514e+04
   8.939360e+04  -2.910077e+05
   1.758715e+05  -3.197793e+05
   2.724603e+05  -3.083356e+04
   2.296489e+05   3.578305e+05
  -2.055487e+04   4.739884e+05
  -3.312932e+05   1.786643e+05
  -4.199745e+05  -2.613283e+05
  -1.290186e+05  -4.398784e+05
   3.529040e+05  -2.330385e+05
   5.859144e+05   1.107268e+05
   3.083852e+05   2.850081e+05
  -2.214802e+05   2.271609e+05
  -4.436558e+05   8.307754e+04
  -1.293085e+05  -5.374643e+03
   3.158982e+05   1.309696e+04
   3.136129e+05   1.281939e+05
  -1.845907e+05   2.423446e+05
  -6.274050e+05   1.651324e+05
