
 $NMID
 id='ANONYMOUS ', fmtdat='(2E16.6)'
 volume=1.0
 tramp=1.0
 $END
  -1.049400e+07   5.608562e+05
  -8.216896e+06  -2.836174e+06
  -1.954519e+06  -6.261944e+06
   3.760258e+06  -6.655199e+06
   4.810018e+06  -2.589841e+06
   1.322418e+06   2.149623e+06
  -2.538756e+06   2.428993e+06
  -3.004369e+06  -1.536588e+06
  -3.493046e+05  -4.356384e+06
   2.192210e+06  -2.487253e+06
   2.265696e+06   1.557770e+06
   3.745912e+05   2.944651e+06
  -1.334853e+06   4.500606e+05
  -1.262204e+06  -2.785625e+06
   4.634901e+05  -3.320760e+06
   2.158978e+06  -8.128062e+05
   1.999799e+06   2.250733e+06
  -1.013208e+05   3.193189e+06
  -2.132091e+06   1.530918e+06
  -2.124588e+06  -7.836748e+05
  -5.167665e+05  -1.522109e+06
   4.005048e+05  -6.309924e+05
  -5.901255e+05  -7.778982e+04
  -2.098165e+06  -1.166726e+06
  -1.848307e+06  -2.813090e+06
   6.341784e+05  -3.002813e+06
   3.441326e+06  -1.287647e+06
   4.107856e+06   9.041584e+05
   1.912213e+06   1.975322e+06
  -1.293401e+06   1.420890e+06
  -2.570024e+06  -2.069143e+05
  -7.475449e+05  -1.676541e+06
   2.162359e+06  -1.625792e+06
   3.038356e+06   2.342428e+05
   1.196339e+06   2.324931e+06
  -9.775920e+05   2.523145e+06
  -1.177806e+06   6.413091e+05
   1.241520e+05  -1.147702e+06
   8.606381e+05  -8.387697e+05
   2.481200e+05   1.047001e+06
  -7.350394e+05   2.230375e+06
  -1.179630e+06   1.406449e+06
  -1.122005e+06  -4.620033e+05
  -6.888189e+05  -1.462725e+06
   1.967995e+05  -7.631827e+05
   9.229577e+05   7.581313e+05
   3.220052e+05   1.512222e+06
  -1.549723e+06   6.859101e+05
  -2.755128e+06  -1.045849e+06
  -1.613725e+06  -2.164036e+06
   1.030275e+06  -1.742677e+06
   2.642760e+06  -2.755094e+05
   1.887614e+06   9.305223e+05
  -1.225040e+05   1.043581e+06
  -1.366006e+06   3.044885e+05
  -9.725615e+05  -4.292011e+05
   2.961323e+05  -4.747896e+05
   1.014945e+06   1.952517e+05
   4.129366e+05   9.367913e+05
  -8.640534e+05   9.339510e+05
  -1.296137e+06   3.187599e+04
  -2.010902e+05  -9.035590e+05
   1.207305e+06  -7.725727e+05
   1.077861e+06   4.947750e+05
  -7.605838e+05   1.709179e+06
  -2.476436e+06   1.616769e+06
  -2.459038e+06   1.657948e+05
  -1.127035e+06  -1.537863e+06
  -3.925782e+04  -2.373386e+06
   1.605642e+05  -2.144113e+06
   1.619206e+05  -1.488471e+06
   6.754069e+05  -1.045786e+06
   1.511634e+06  -7.690845e+05
   1.994798e+06  -1.028572e+05
   1.689167e+06   1.105262e+06
   6.091483e+05   2.039067e+06
  -7.822864e+05   1.625584e+06
  -1.624265e+06  -9.740743e+04
  -1.195236e+06  -1.701114e+06
   2.681389e+05  -1.768207e+06
   1.564815e+06  -3.854108e+05
   1.661733e+06   1.072672e+06
   7.164150e+05   1.501622e+06
  -2.327478e+05   1.037503e+06
  -4.740105e+05   5.301870e+05
  -3.038767e+05   4.899623e+05
  -5.315792e+05   7.125630e+05
  -1.443748e+06   6.440728e+05
  -2.308301e+06  -9.216732e+04
  -1.984602e+06  -1.330769e+06
  -1.868982e+05  -2.322240e+06
   1.901118e+06  -2.226310e+06
   2.587739e+06  -9.222688e+05
   1.407211e+06   6.923759e+05
  -3.446605e+05   1.422954e+06
  -1.007498e+06   8.799361e+05
  -2.701010e+05  -1.881937e+05
   7.596001e+05  -6.708272e+05
   9.651248e+05  -1.824866e+05
   3.008324e+05   5.957477e+05
  -4.508480e+05   6.608881e+05
  -5.531536e+05  -1.651039e+05
   1.333331e+05  -8.908363e+05
   1.076748e+06  -3.755100e+05
   1.364600e+06   1.248563e+06
   4.071129e+05   2.459040e+06
  -1.336101e+06   1.908674e+06
  -2.514869e+06  -5.203546e+04
  -2.114504e+06  -1.728929e+06
  -5.197771e+05  -1.895710e+06
   8.584398e+05  -9.146353e+05
   1.022876e+06  -3.509522e+04
   2.915768e+05   2.477256e+04
  -2.310871e+05  -4.228520e+05
   1.044096e+05  -6.620056e+05
   8.673682e+05  -3.484660e+05
   1.087756e+06   2.726393e+05
   3.614600e+05   6.525788e+05
  -6.133184e+05   4.222452e+05
  -7.073462e+05  -2.260624e+05
   3.572833e+05  -6.163355e+05
   1.538182e+06  -2.133087e+05
   1.505672e+06   7.659124e+05
   1.156358e+05   1.474902e+06
  -1.385025e+06   1.251549e+06
  -1.680874e+06   2.738302e+05
  -7.093411e+05  -6.173108e+05
   4.343470e+05  -7.160721e+05
   7.024939e+05  -8.988306e+04
   2.198677e+04   5.149112e+05
  -8.326615e+05   4.105708e+05
  -1.037929e+06  -3.317827e+05
  -4.131729e+05  -9.431217e+05
   4.685297e+05  -7.863438e+05
   8.041164e+05  -7.344021e+04
   3.350914e+05   3.773942e+05
  -3.482837e+05   8.393132e+04
  -3.934207e+05  -5.703125e+05
   3.694447e+05  -8.009997e+05
   1.184796e+06  -2.690727e+05
   1.165307e+06   6.266788e+05
   2.476984e+05   1.178197e+06
  -7.492329e+05   9.797368e+05
  -9.810755e+05   2.239542e+05
  -3.899650e+05  -4.619848e+05
   3.306301e+05  -5.357800e+05
   4.828159e+05  -4.444152e+04
   2.954301e+04   4.112371e+05
  -4.454430e+05   3.338483e+05
  -3.941415e+05  -9.277959e+04
   1.012037e+05  -2.403032e+05
   4.129157e+05   1.630932e+05
   5.730197e+04   6.632886e+05
  -7.409228e+05   5.917542e+05
  -1.229703e+06  -1.840994e+05
  -8.768458e+05  -1.113461e+06
   1.028589e+05  -1.480159e+06
   9.691137e+05  -1.008275e+06
   1.158562e+06  -6.113354e+04
   7.479563e+05   6.649356e+05
   2.651013e+05   7.283219e+05
   1.045543e+05   3.352338e+05
   1.607472e+05   9.629107e+04
   3.286788e+04   3.102422e+05
  -4.392447e+05   5.857710e+05
  -8.995809e+05   3.279330e+05
  -7.926491e+05  -4.572847e+05
   2.673193e+04  -1.053973e+06
   1.031729e+06  -7.920673e+05
   1.419505e+06   2.216021e+05
   8.109605e+05   1.199590e+06
  -4.019026e+05   1.410142e+06
  -1.374445e+06   7.698302e+05
  -1.495687e+06  -1.801427e+05
  -8.410381e+05  -7.789684e+05
  -2.486477e+04  -7.834893e+05
   3.799297e+05  -5.066076e+05
   3.157479e+05  -4.219416e+05
   1.820874e+05  -6.064353e+05
   3.357274e+05  -6.460029e+05
   6.781667e+05  -1.624050e+05
   7.665680e+05   6.475090e+05
   3.283633e+05   1.135275e+06
  -3.817751e+05   8.640009e+05
  -7.857574e+05   4.876526e+04
  -5.492066e+05  -6.739916e+05
   8.244510e+04  -8.245521e+05
   5.343652e+05  -4.166657e+05
   4.749291e+05   1.605766e+05
   1.101509e+05   5.067688e+05
  -9.626966e+04   5.042899e+05
   4.056014e+04   3.374535e+05
   2.204863e+05   2.437180e+05
   1.219075e+04   2.475598e+05
  -6.079708e+05   1.657831e+05
  -1.128253e+06  -1.311040e+05
  -9.739544e+05  -5.266252e+05
  -1.262242e+05  -7.561649e+05
   7.785715e+05  -6.533094e+05
   1.034178e+06  -2.830572e+05
   5.540594e+05   1.088682e+05
  -7.843292e+04   2.597338e+05
  -2.580312e+05   9.831482e+04
   3.174467e+04  -1.442516e+05
   3.201608e+05  -1.248960e+05
   2.687704e+05   2.047099e+05
   2.418063e+04   4.665626e+05
  -6.273417e+04   2.931806e+05
   9.768111e+04  -1.477922e+05
   2.667697e+05  -2.877496e+05
   1.909219e+05   1.220774e+05
  -1.431247e+05   6.342668e+05
  -5.223647e+05   6.184213e+05
  -6.570837e+05   2.905690e+04
  -3.614036e+05  -5.438817e+05
   2.393275e+05  -5.610873e+05
   6.598919e+05  -8.414956e+04
   4.215957e+05   3.810475e+05
  -3.827485e+05   4.212027e+05
  -1.014128e+06   2.782747e+04
  -7.870753e+05  -4.785242e+05
   1.559789e+05  -7.101800e+05
   9.368770e+05  -4.856054e+05
   8.653301e+05   9.239605e+03
   1.529253e+05   3.413186e+05
  -3.746343e+05   2.312069e+05
  -1.921407e+05  -1.321469e+05
   4.095685e+05  -2.532367e+05
   6.990791e+05   1.406439e+05
   2.899260e+05   7.583452e+05
  -4.901997e+05   9.777144e+05
  -9.616524e+05   4.490261e+05
  -7.559560e+05  -5.079052e+05
  -1.069471e+05  -1.121251e+06
   4.534862e+05  -8.608532e+05
   5.921142e+05   2.491904e+04
   3.528849e+05   7.185335e+05
  -2.450179e+04   6.579339e+05
  -3.122103e+05   1.002721e+05
  -3.651470e+05  -2.500252e+05
  -1.874156e+05  -1.137903e+05
   3.389255e+03   8.678967e+04
  -4.813395e+04  -1.168047e+05
  -2.681988e+05  -5.636633e+05
  -2.252095e+05  -6.831478e+05
   3.165048e+05  -2.664982e+05
   9.233326e+05   2.859101e+05
   8.866573e+05   5.130551e+05
   1.273706e+05   4.070412e+05
  -6.091729e+05   2.455397e+05
  -6.365858e+05   1.452005e+05
  -1.493467e+05   2.142332e+04
   1.228662e+05  -1.282778e+05
  -7.843971e+04  -1.793545e+05
  -2.684758e+05  -1.195521e+05
   1.205487e+04  -8.686271e+04
   5.198800e+05  -9.652305e+04
   6.235747e+05   4.590839e+04
   1.013506e+05   4.028379e+05
  -6.221244e+05   6.440359e+05
  -9.666085e+05   3.700681e+05
  -7.215774e+05  -3.321282e+05
  -1.125045e+05  -8.762193e+05
   4.495837e+05  -7.956619e+05
   6.394563e+05  -2.456272e+05
   4.104556e+05   2.069336e+05
   3.238629e+04   2.161709e+05
  -1.331565e+05  -2.489217e+04
   1.721997e+04  -8.169745e+04
   2.293537e+05   1.957347e+05
   1.854004e+05   4.943328e+05
  -1.363065e+05   3.884383e+05
  -4.316773e+05  -1.510940e+05
  -3.760092e+05  -6.536511e+05
   5.380172e+04  -6.146461e+05
   5.195247e+05  -4.325741e+04
   5.857156e+05   5.402904e+05
   1.329764e+05   6.596111e+05
  -4.562834e+05   3.288635e+05
  -6.289054e+05  -8.691806e+04
  -2.603106e+05  -3.096422e+05
   1.737867e+05  -3.184449e+05
   1.532122e+05  -1.994261e+05
  -2.385131e+05  -4.539386e+04
  -4.183485e+05   5.440301e+02
  -5.463278e+04  -1.710135e+05
   5.103019e+05  -4.148730e+05
   6.971494e+05  -3.819152e+05
   3.737298e+05   4.503380e+04
  -7.671189e+04   4.913147e+05
  -2.676273e+05   4.784138e+05
  -1.704621e+05   3.034551e+04
   2.181491e+04  -3.274816e+05
   1.670126e+05  -2.125444e+05
   2.151122e+05   1.735333e+05
   1.335847e+05   3.570447e+05
  -5.791485e+04   1.855787e+05
  -2.326181e+05  -6.755920e+04
  -2.582767e+05  -1.209721e+05
  -1.462150e+05  -1.221112e+04
  -2.010919e+04   2.825462e+04
   5.121212e+04  -1.018678e+05
   1.097216e+05  -2.637154e+05
   1.936269e+05  -2.423162e+05
   2.441687e+05   1.872693e+04
   1.644319e+05   3.299840e+05
  -5.669908e+04   4.052768e+05
  -2.926056e+05   1.440820e+05
  -3.443755e+05  -2.322619e+05
  -1.031624e+05  -3.835757e+05
   2.897022e+05  -2.024407e+05
   4.863681e+05   9.505266e+04
   2.608641e+05   2.385256e+05
  -1.835842e+05   1.783000e+05
  -3.686234e+05   5.495601e+04
  -8.953111e+04  -4.484323e+03
   2.975873e+05   3.040217e+04
   2.790148e+05   1.354757e+05
  -1.797635e+05   2.258567e+05
  -5.735932e+05   1.465920e+05
