
 $NMID
 id='ANONYMOUS ', fmtdat='(2E16.6)'
 volume=1.0
 tramp=1.0
 $END
   5.380652e+07   1.507853e+06
   3.170881e+07   3.369064e+07
  -7.635897e+06   3.608369e+07
  -2.656869e+07   1.386635e+07
  -1.585625e+07  -6.530943e+06
   3.109624e+06  -8.898458e+06
   9.492156e+06   1.012763e+06
   2.790473e+06   9.382872e+06
  -5.958051e+06   9.189273e+06
  -9.354813e+06   1.981042e+06
  -6.659331e+06  -6.194479e+06
  -5.624483e+05  -8.461224e+06
   3.987024e+06  -2.492199e+06
   2.473828e+06   5.571398e+06
  -3.758951e+06   6.497734e+06
  -7.604444e+06  -1.328782e+06
  -4.147392e+06  -9.938691e+06
   3.849872e+06  -1.132969e+07
   9.858880e+06  -5.427972e+06
   1.028119e+07   2.326616e+06
   5.998859e+06   7.350208e+06
   3.428524e+05   8.115363e+06
  -2.755059e+06   5.538086e+06
  -1.448069e+06   2.650846e+06
   1.251787e+06   2.501585e+06
  -1.249028e+02   4.359301e+06
  -5.689394e+06   4.110826e+06
  -9.619360e+06   2.575520e+04
  -6.706515e+06  -4.344009e+06
   1.261673e+05  -4.913220e+06
   3.932066e+06  -2.226948e+06
   2.401111e+06   3.361990e+05
  -9.569849e+05   1.108650e+06
  -2.625607e+06   3.346435e+05
  -2.175776e+06  -1.775928e+06
  -3.587618e+05  -4.064404e+06
   1.965946e+06  -3.613028e+06
   2.954667e+06   3.707128e+05
   1.336013e+06   3.538417e+06
  -8.013019e+05   1.581482e+06
  -1.139099e+05  -2.649081e+06
   2.541841e+06  -2.292860e+06
   2.361878e+06   3.102265e+06
  -2.300736e+06   5.854346e+06
  -6.485700e+06   8.810164e+05
  -4.695399e+06  -6.669563e+06
   1.949198e+06  -8.085354e+06
   7.191816e+06  -2.140937e+06
   6.761677e+06   4.494497e+06
   1.800636e+06   6.002157e+06
  -3.474093e+06   2.699590e+06
  -5.270207e+06  -1.527229e+06
  -2.459108e+06  -3.461781e+06
   2.322364e+06  -2.140667e+06
   4.392581e+06   9.347091e+05
   1.889238e+06   2.646924e+06
  -1.678795e+06   1.297866e+06
  -1.751163e+06  -1.038127e+06
   1.184497e+06  -9.776778e+05
   2.398493e+06   1.533105e+06
  -4.367056e+05   3.167883e+06
  -4.295882e+06   1.792651e+06
  -5.072916e+06  -1.268437e+06
  -2.215979e+06  -3.826301e+06
   1.947530e+06  -5.100738e+06
   5.189691e+06  -4.597789e+06
   6.189020e+06  -1.459118e+06
   4.330092e+06   3.309308e+06
   6.968617e+05   6.133568e+06
  -1.892099e+06   4.724443e+06
  -1.702662e+06   1.335896e+06
  -2.699341e+05  -6.379523e+04
  -2.648132e+05   1.026541e+06
  -1.874226e+06   1.615838e+06
  -2.892511e+06  -5.471893e+04
  -1.916346e+06  -2.197125e+06
   1.804439e+05  -2.262422e+06
   1.724837e+06  -1.195398e+05
   1.692924e+06   2.272052e+06
  -1.350752e+05   3.022486e+06
  -2.878359e+06   1.513785e+06
  -4.385832e+06  -1.416820e+06
  -2.995258e+06  -3.827444e+06
   1.920998e+05  -4.089033e+06
   2.263677e+06  -2.544822e+06
   2.154159e+06  -1.077700e+06
   1.815768e+06  -7.025934e+05
   2.997236e+06  -4.637804e+05
   4.412294e+06   8.601868e+05
   3.491037e+06   2.909607e+06
   1.972348e+04   4.238842e+06
  -3.431743e+06   3.903244e+06
  -4.388144e+06   1.994944e+06
  -2.694049e+06  -5.923756e+05
  -1.268242e+05  -2.326221e+06
   1.254379e+06  -1.912026e+06
   5.682910e+05   8.290519e+04
  -1.184408e+06   1.298159e+06
  -1.954738e+06   3.415420e+05
  -8.729668e+05  -1.253017e+06
   5.954215e+05  -1.131951e+06
   4.791776e+05   4.099852e+05
  -1.048925e+06   7.678703e+05
  -1.882870e+06  -1.205642e+06
  -7.183011e+05  -3.497016e+06
   1.542575e+06  -3.551040e+06
   3.205817e+06  -1.249496e+06
   3.461987e+06   1.478039e+06
   2.375568e+06   2.947506e+06
   4.166340e+05   2.767458e+06
  -1.349995e+06   1.477021e+06
  -1.650442e+06   1.664630e+05
  -5.077636e+05  -6.360825e+04
   3.482501e+05   7.872267e+05
  -4.510109e+05   1.355368e+06
  -1.954310e+06   5.376058e+05
  -2.059539e+06  -9.494669e+05
  -3.712437e+05  -1.453859e+06
   1.222736e+06  -5.641428e+05
   9.316377e+05   4.985435e+05
  -8.794120e+05   5.558471e+05
  -2.285656e+06  -3.510751e+05
  -1.826103e+06  -1.463691e+06
   2.912052e+05  -2.077459e+06
   2.450940e+06  -1.670752e+06
   2.886380e+06  -2.032675e+05
   1.216164e+06   1.333017e+06
  -9.857017e+05   1.500418e+06
  -1.590421e+06   1.422138e+05
  -1.590200e+05  -1.107671e+06
   1.586988e+06  -7.085167e+05
   1.757077e+06   8.515497e+05
   3.209636e+05   1.720953e+06
  -1.143962e+06   1.003221e+06
  -1.302407e+06  -3.340866e+05
  -2.527348e+05  -8.098068e+05
   8.125247e+05  -3.770726e+04
   7.232660e+05   1.109653e+06
  -6.479890e+05   1.451363e+06
  -2.098089e+06   4.884290e+05
  -2.069081e+06  -1.157134e+06
  -3.303942e+05  -2.156979e+06
   1.535456e+06  -1.655123e+06
   1.791881e+06  -1.710778e+05
   5.021707e+05   9.124200e+05
  -7.041221e+05   8.179875e+05
  -6.730086e+05   5.574380e+04
   1.249335e+05  -3.963127e+05
   5.385554e+05  -2.245895e+05
   1.653410e+05   8.238744e+04
  -4.436243e+05  -5.668129e+04
  -5.291640e+05  -6.850331e+05
   2.315823e+05  -1.219422e+06
   1.453581e+06  -8.889554e+05
   2.143101e+06   4.921822e+05
   1.453745e+06   2.058874e+06
  -3.038115e+05   2.506845e+06
  -1.724530e+06   1.429215e+06
  -1.766599e+06  -1.732296e+05
  -8.856364e+05  -9.767283e+05
  -3.121777e+05  -7.290727e+05
  -4.624241e+05  -2.668329e+05
  -6.136760e+05  -3.322086e+05
  -6.739993e+04  -7.765607e+05
   9.286627e+05  -9.104432e+05
   1.517253e+06  -3.033573e+05
   1.082950e+06   7.887581e+05
  -2.957614e+05   1.527391e+06
  -1.822846e+06   1.071338e+06
  -2.323427e+06  -5.700553e+05
  -1.120311e+06  -2.210219e+06
   1.103016e+06  -2.419677e+06
   2.654878e+06  -1.002339e+06
   2.427332e+06   7.390946e+05
   9.774854e+05   1.420604e+06
  -2.304786e+05   1.000824e+06
  -4.404654e+05   5.382050e+05
  -1.384043e+05   7.719170e+05
  -1.636963e+05   1.329050e+06
  -7.292366e+05   1.298902e+06
  -1.340117e+06   2.846184e+05
  -1.346744e+06  -1.164368e+06
  -5.135035e+05  -1.982836e+06
   6.938164e+05  -1.469650e+06
   1.335221e+06   3.984705e+04
   8.072180e+05   1.347614e+06
  -4.342071e+05   1.434392e+06
  -1.202037e+06   4.030020e+05
  -8.187804e+05  -7.203594e+05
   1.412188e+05  -1.096913e+06
   5.570241e+05  -7.992501e+05
   9.271135e+04  -4.393983e+05
  -4.333540e+05  -3.665961e+05
  -4.677528e+04  -4.010029e+05
   1.189151e+06  -1.849107e+05
   2.116546e+06   4.041594e+05
   1.643832e+06   1.118115e+06
  -6.944941e+04   1.476725e+06
  -1.666264e+06   1.128502e+06
  -1.902567e+06   2.402677e+05
  -8.557806e+05  -5.204712e+05
   2.801829e+05  -5.733834e+05
   5.271725e+05  -2.690860e+04
   1.401661e+04   4.255950e+05
  -4.727135e+05   2.500100e+05
  -4.863621e+05  -3.697276e+05
  -2.269549e+05  -7.596043e+05
  -7.261639e+04  -4.992838e+05
  -1.477891e+05   1.023879e+05
  -3.096625e+05   3.039991e+05
  -2.808035e+05  -2.482785e+05
   1.837815e+05  -1.021732e+06
   9.646402e+05  -1.075362e+06
   1.402925e+06  -1.336792e+05
   8.418935e+05   9.732905e+05
  -4.642133e+05   1.158205e+06
  -1.305808e+06   3.016635e+05
  -7.412981e+05  -6.201041e+05
   7.461957e+05  -6.530256e+05
   1.649946e+06   1.446425e+05
   1.029894e+06   9.267220e+05
  -5.251006e+05   1.020392e+06
  -1.574892e+06   4.622645e+05
  -1.283042e+06  -2.316634e+05
  -1.273527e+05  -5.408003e+05
   6.823929e+05  -2.632884e+05
   3.876305e+05   3.142179e+05
  -6.261481e+05   5.205138e+05
  -1.224721e+06  -1.242237e+05
  -6.561237e+05  -1.247958e+06
   6.683908e+05  -1.748147e+06
   1.569702e+06  -8.727046e+05
   1.282479e+06   8.258973e+05
   1.567745e+05   1.869363e+06
  -8.091652e+05   1.325860e+06
  -9.581988e+05  -2.090682e+05
  -4.148960e+05  -1.252709e+06
   2.555877e+05  -1.003415e+06
   5.866672e+05  -7.177267e+04
   4.746510e+05   4.076283e+05
   1.671648e+05   1.490895e+05
   5.317560e+04  -9.836457e+04
   2.809188e+05   3.135173e+05
   5.008890e+05   1.019262e+06
   1.672207e+05   1.128264e+06
  -7.539426e+05   3.905194e+05
  -1.520143e+06  -5.272802e+05
  -1.306841e+06  -9.087481e+05
  -1.720008e+05  -7.319594e+05
   8.990727e+05  -4.108523e+05
   1.028878e+06  -1.604680e+05
   3.747536e+05   6.567481e+04
  -1.573475e+05   2.304722e+05
  -4.499455e+04   2.120955e+05
   2.704272e+05   1.050672e+05
   5.004304e+04   1.395383e+05
  -6.916311e+05   2.281170e+05
  -1.089144e+06  -3.889490e+04
  -4.370164e+05  -7.316847e+05
   9.031657e+05  -1.205196e+06
   1.791069e+06  -7.458114e+05
   1.462437e+06   4.825779e+05
   2.516374e+05   1.469607e+06
  -8.350854e+05   1.413577e+06
  -1.106064e+06   5.367712e+05
  -6.753333e+05  -2.555890e+05
  -1.325582e+05  -3.763911e+05
   6.990918e+04  -7.035480e+04
  -8.702117e+04   1.164438e+04
  -3.007146e+05  -3.925012e+05
  -2.341951e+05  -8.479340e+05
   2.021788e+05  -7.039836e+05
   7.046757e+05   1.378236e+05
   7.505763e+05   1.003203e+06
   1.044038e+05   1.077035e+06
  -7.846754e+05   2.478340e+05
  -1.062966e+06  -7.667393e+05
  -3.428864e+05  -1.142556e+06
   7.564581e+05  -6.949699e+05
   1.166772e+06   1.009933e+05
   5.441367e+05   6.553900e+05
  -3.147876e+05   7.070207e+05
  -4.103549e+05   3.762789e+05
   2.493889e+05   1.242069e+04
   6.749675e+05  -2.719282e+04
   1.483667e+05   3.255220e+05
  -8.753202e+05   6.863090e+05
  -1.330873e+06   5.269088e+05
  -7.978863e+05  -2.087167e+05
   1.194862e+05  -9.061553e+05
   6.018850e+05  -8.823058e+05
   4.552372e+05  -1.653577e+05
   4.976832e+04   4.962988e+05
  -2.569099e+05   4.527901e+05
  -3.626125e+05  -1.528793e+05
  -2.531651e+05  -6.063459e+05
   6.179446e+04  -4.512513e+05
   4.064147e+05   5.127284e+04
   4.921573e+05   3.084363e+05
   2.505731e+05   1.110237e+05
  -3.695674e+04  -1.636192e+05
  -8.569891e+04  -6.077585e+04
   1.673032e+04   3.624314e+05
  -4.621862e+04   5.809384e+05
  -3.307558e+05   2.368089e+05
  -4.808043e+05  -3.935656e+05
  -1.657500e+05  -6.759210e+05
   4.268395e+05  -3.235703e+05
   6.922156e+05   2.983109e+05
   2.573621e+05   5.985084e+05
  -5.388329e+05   3.716821e+05
  -9.232361e+05  -9.223225e+04
  -4.940860e+05  -4.027876e+05
   3.139350e+05  -4.181972e+05
   6.726555e+05  -2.336543e+05
   2.689546e+05  -1.577423e+04
  -3.507767e+05   7.212845e+04
  -4.186622e+05  -6.328241e+04
   1.718885e+05  -2.929933e+05
   7.644250e+05  -2.681168e+05
