
 $NMID
 id='ANONYMOUS ', fmtdat='(2E16.6)'
 volume=1.0
 tramp=1.0
 $END
  -3.172285e+07   1.840611e+05
  -2.016908e+07  -1.743409e+07
   2.203447e+06  -2.090113e+07
   1.470132e+07  -1.062741e+07
   1.033430e+07   1.538967e+06
  -6.895262e+05   5.484728e+06
  -5.981832e+06   9.365519e+05
  -3.089177e+06  -5.338919e+06
   2.586859e+06  -6.882410e+06
   5.688051e+06  -2.417428e+06
   4.509523e+06   3.767623e+06
   5.601002e+05   5.678090e+06
  -2.625571e+06   1.475779e+06
  -1.939220e+06  -4.199683e+06
   1.997548e+06  -5.001596e+06
   4.864640e+06   1.057300e+05
   3.213580e+06   5.972763e+06
  -1.768234e+06   7.252619e+06
  -5.844336e+06   3.571833e+06
  -6.139115e+06  -1.426232e+06
  -3.255093e+06  -4.302532e+06
  -3.535588e+04  -4.246259e+06
   9.376243e+05  -2.731494e+06
  -4.983106e+05  -1.924155e+06
  -1.663404e+06  -2.737069e+06
   2.948936e+05  -3.761030e+06
   4.596231e+06  -2.759554e+06
   6.901380e+06   3.816745e+05
   4.324902e+06   3.113277e+06
  -7.347555e+05   3.150373e+06
  -3.297072e+06   9.929890e+05
  -1.574399e+06  -1.068574e+06
   1.642129e+06  -1.445833e+06
   2.935877e+06  -6.718170e+04
   1.727623e+06   2.102156e+06
  -3.163770e+05   3.333423e+06
  -1.547710e+06   2.109696e+06
  -1.350389e+06  -7.795178e+05
  -2.024839e+05  -2.151763e+06
   5.088911e+05  -1.928524e+05
  -3.172281e+05   2.506739e+06
  -1.844123e+06   1.911361e+06
  -1.785218e+06  -1.720946e+06
   6.672278e+05  -3.651305e+06
   3.224516e+06  -9.147339e+05
   2.845640e+06   3.584021e+06
  -6.715320e+05   4.756188e+06
  -4.297772e+06   1.493182e+06
  -4.831275e+06  -2.664604e+06
  -1.827395e+06  -4.062008e+06
   2.210737e+06  -2.296893e+06
   4.009913e+06   5.248824e+05
   2.255772e+06   2.146232e+06
  -1.169116e+06   1.621208e+06
  -2.875833e+06  -2.409307e+05
  -1.464476e+06  -1.489422e+06
   9.634861e+05  -9.000339e+05
   1.410030e+06   5.896947e+05
  -3.374370e+05   9.957486e+05
  -1.644811e+06  -2.020238e+05
  -5.306086e+05  -1.513654e+06
   1.940967e+06  -1.408010e+06
   3.119133e+06   1.267778e+05
   1.704234e+06   2.087439e+06
  -1.291351e+06   3.421390e+06
  -3.802979e+06   3.170261e+06
  -4.316674e+06   8.708208e+05
  -2.746002e+06  -2.388434e+06
  -4.287914e+05  -4.250248e+06
   9.423651e+05  -3.472000e+06
   8.847735e+05  -1.478111e+06
   4.918851e+05  -5.516203e+05
   9.449565e+05  -9.310686e+05
   1.989014e+06  -8.645695e+05
   2.332086e+06   6.015622e+05
   1.285758e+06   2.163711e+06
  -4.952432e+05   1.989241e+06
  -1.727416e+06   2.128748e+04
  -1.499945e+06  -2.015254e+06
   1.800647e+05  -2.432037e+06
   2.232628e+06  -9.734871e+05
   3.044500e+06   1.222469e+06
   1.881437e+06   2.633666e+06
  -1.720772e+05   2.540828e+06
  -1.318308e+06   1.543621e+06
  -1.188109e+06   8.154483e+05
  -1.156873e+06   7.546386e+05
  -2.234292e+06   6.171699e+05
  -3.409600e+06  -4.083881e+05
  -2.812039e+06  -2.090507e+06
  -1.648799e+05  -3.322690e+06
   2.653028e+06  -3.152035e+06
   3.515930e+06  -1.523297e+06
   2.080188e+06   6.371081e+05
  -1.025334e+05   1.905105e+06
  -1.138206e+06   1.418086e+06
  -4.223788e+05  -1.414846e+05
   9.773690e+05  -1.009220e+06
   1.471118e+06  -2.838021e+05
   5.980421e+05   9.241227e+05
  -5.265951e+05   9.133633e+05
  -5.414808e+05  -2.878436e+05
   5.731509e+05  -8.749990e+05
   1.518560e+06   3.523259e+05
   1.141129e+06   2.363719e+06
  -4.756918e+05   3.082642e+06
  -2.263748e+06   1.692977e+06
  -3.069199e+06  -6.952753e+05
  -2.344791e+06  -2.340760e+06
  -5.220200e+05  -2.372243e+06
   1.103695e+06  -1.232253e+06
   1.355102e+06  -1.190780e+05
   4.047798e+05   3.805755e+04
  -3.044446e+05  -6.099383e+05
   2.608424e+05  -1.024807e+06
   1.415751e+06  -4.729312e+05
   1.602831e+06   5.871965e+05
   3.912424e+05   1.058709e+06
  -9.258339e+05   5.181912e+05
  -8.474930e+05  -3.580591e+05
   6.152163e+05  -6.231055e+05
   1.956766e+06   2.113417e+04
   1.730194e+06   1.105359e+06
  -5.072435e+04   1.818995e+06
  -1.924382e+06   1.525333e+06
  -2.313984e+06   2.831026e+05
  -9.907331e+05  -9.684143e+05
   6.983553e+05  -1.128139e+06
   1.151605e+06  -1.344498e+05
   9.969020e+04   8.173131e+05
  -1.217330e+06   5.860454e+05
  -1.428922e+06  -5.739624e+05
  -4.008012e+05  -1.345933e+06
   7.999559e+05  -9.289011e+05
   1.075286e+06   1.083126e+05
   3.134851e+05   5.985090e+05
  -5.879194e+05   7.509838e+04
  -5.828574e+05  -8.428485e+05
   4.974037e+05  -1.152971e+06
   1.659889e+06  -4.120952e+05
   1.655089e+06   8.774072e+05
   3.219775e+05   1.685159e+06
  -1.133119e+06   1.355323e+06
  -1.400748e+06   2.254699e+05
  -4.646964e+05  -6.897082e+05
   5.148641e+05  -6.971569e+05
   5.909764e+05  -5.630212e+04
  -4.040987e+04   4.230460e+05
  -5.052175e+05   3.008951e+05
  -3.006063e+05  -8.998701e+04
   2.697114e+05  -1.139195e+05
   4.930832e+05   4.110105e+05
  -6.208000e+04   9.564455e+05
  -1.096594e+06   7.747297e+05
  -1.717479e+06  -3.103131e+05
  -1.210660e+06  -1.587019e+06
   1.716118e+05  -2.026655e+06
   1.347254e+06  -1.264472e+06
   1.490621e+06   2.839072e+04
   8.486252e+05   8.249660e+05
   3.034903e+05   7.465660e+05
   2.834398e+05   3.051216e+05
   3.901369e+05   2.032384e+05
   6.332188e+04   5.430329e+05
  -6.751620e+05   7.741970e+05
  -1.221766e+06   3.493007e+05
  -9.697160e+05  -6.153960e+05
   1.357272e+05  -1.320467e+06
   1.432254e+06  -9.780141e+05
   1.909692e+06   3.660009e+05
   1.015578e+06   1.712980e+06
  -7.228554e+05   1.958914e+06
  -2.025368e+06   9.411317e+05
  -2.003583e+06  -4.262228e+05
  -9.511751e+05  -1.103032e+06
   8.631363e+04  -9.171195e+05
   4.152243e+05  -5.429137e+05
   2.301082e+05  -6.047187e+05
   1.614288e+05  -9.757819e+05
   5.195371e+05  -9.910671e+05
   1.015800e+06  -2.439350e+05
   1.085988e+06   9.007076e+05
   4.531753e+05   1.574627e+06
  -5.266295e+05   1.192847e+06
  -1.077667e+06   2.383367e+04
  -7.092765e+05  -1.011573e+06
   2.369415e+05  -1.152044e+06
   8.704030e+05  -4.396428e+05
   6.674951e+05   4.256346e+05
   7.276050e+03   8.113619e+05
  -3.123860e+05   6.720176e+05
  -1.817688e+04   3.990486e+05
   3.346925e+05   3.037915e+05
   3.509152e+04   3.279876e+05
  -9.052549e+05   1.969727e+05
  -1.647357e+06  -2.377732e+05
  -1.344064e+06  -8.079370e+05
  -5.540725e+04  -1.131493e+06
   1.217919e+06  -9.269290e+05
   1.484639e+06  -2.955092e+05
   7.256332e+05   3.014989e+05
  -1.700961e+05   4.238516e+05
  -3.963869e+05   7.434975e+04
   3.483327e+03  -2.831174e+05
   3.990969e+05  -1.941899e+05
   3.863595e+05   2.837792e+05
   1.325651e+05   6.175209e+05
   7.083686e+03   3.994438e+05
   1.238480e+05  -1.323880e+05
   2.929142e+05  -3.085976e+05
   2.451685e+05   1.822533e+05
  -1.525179e+05   8.432286e+05
  -7.376932e+05   8.728941e+05
  -1.036397e+06   1.019495e+05
  -6.185272e+05  -7.555893e+05
   3.387678e+05  -8.738218e+05
   9.871873e+05  -2.103825e+05
   5.966460e+05   4.981856e+05
  -5.618665e+05   5.560511e+05
  -1.354977e+06  -3.390334e+04
  -9.409942e+05  -6.981026e+05
   3.268648e+05  -8.899153e+05
   1.270075e+06  -5.093168e+05
   1.098222e+06   1.017036e+05
   1.518604e+05   4.475050e+05
  -5.329006e+05   2.627197e+05
  -2.975625e+05  -2.194084e+05
   5.197764e+05  -3.983093e+05
   9.759032e+05   1.209990e+05
   4.917461e+05   1.008826e+06
  -5.682215e+05   1.387295e+06
  -1.272611e+06   6.869742e+05
  -1.043409e+06  -6.605091e+05
  -1.579370e+05  -1.514782e+06
   6.230685e+05  -1.122348e+06
   7.911080e+05   1.026771e+05
   4.101437e+05   9.949033e+05
  -1.250810e+05   8.504542e+05
  -4.547133e+05   9.789040e+04
  -4.346423e+05  -3.289969e+05
  -1.849901e+05  -1.336934e+05
  -2.317639e+04   9.593296e+04
  -1.673711e+05  -2.105301e+05
  -4.023328e+05  -7.946181e+05
  -2.177074e+05  -9.188509e+05
   5.334537e+05  -3.458169e+05
   1.246866e+06   3.923465e+05
   1.128498e+06   7.047239e+05
   1.627554e+05   5.745048e+05
  -7.622461e+05   3.433508e+05
  -8.441428e+05   1.698284e+05
  -2.645894e+05  -1.416625e+04
   1.403344e+05  -1.829186e+05
  -2.302331e+04  -2.022208e+05
  -2.784510e+05  -1.140255e+05
  -1.983026e+04  -1.140463e+05
   6.151750e+05  -1.708140e+05
   8.681655e+05   2.959976e+04
   2.768027e+05   5.664502e+05
  -7.605522e+05   9.453264e+05
  -1.384193e+06   5.872354e+05
  -1.107326e+06  -3.940324e+05
  -2.021073e+05  -1.185870e+06
   6.307423e+05  -1.130232e+06
   8.767061e+05  -4.088132e+05
   5.539417e+05   2.280480e+05
   8.709511e+04   2.981780e+05
  -1.047318e+05   2.031979e+04
   5.239189e+04  -5.188456e+04
   2.765183e+05   2.937843e+05
   2.256279e+05   6.784036e+05
  -1.632134e+05   5.555322e+05
  -5.779865e+05  -1.405474e+05
  -5.806372e+05  -8.322839e+05
  -3.504979e+04  -8.540467e+05
   6.588769e+05  -1.527014e+05
   8.427753e+05   6.519194e+05
   2.534610e+05   9.076979e+05
  -6.050774e+05   5.255869e+05
  -9.091571e+05  -8.033054e+04
  -4.153571e+05  -4.785283e+05
   2.366710e+05  -5.207080e+05
   2.774584e+05  -2.978573e+05
  -2.501648e+05  -2.883291e+04
  -5.544619e+05   2.206112e+04
  -1.062061e+05  -2.484407e+05
   6.936522e+05  -5.699703e+05
   1.019149e+06  -4.817849e+05
   5.940065e+05   1.140548e+05
  -8.757686e+04   7.082400e+05
  -4.255286e+05   6.972066e+05
  -3.102777e+05   1.039772e+05
  -1.810717e+04  -4.175088e+05
   2.087914e+05  -3.383230e+05
   2.936500e+05   1.639627e+05
   2.033043e+05   4.848991e+05
  -5.453584e+04   3.202507e+05
  -3.238368e+05  -5.642961e+04
  -3.840349e+05  -2.086608e+05
  -2.032317e+05  -5.716549e+04
   1.004223e+04   9.365874e+04
   7.220524e+04  -2.719961e+04
   4.785172e+04  -3.174517e+05
   1.191305e+05  -4.116719e+05
   2.879982e+05  -1.079358e+05
   3.261133e+05   3.626941e+05
   5.794752e+04   5.439959e+05
  -3.614280e+05   2.402221e+05
  -5.261384e+05  -2.612461e+05
  -1.882804e+05  -4.950665e+05
   4.139234e+05  -2.978530e+05
   7.130883e+05   8.377724e+04
   3.867500e+05   3.184393e+05
  -2.459164e+05   3.038157e+05
  -5.226614e+05   1.520264e+05
  -1.785250e+05   9.575825e+03
   3.303882e+05  -2.139069e+04
   3.543022e+05   9.982571e+04
  -1.784724e+05   2.661747e+05
  -6.795561e+05   2.177291e+05
