
 $NMID
 id='ANONYMOUS ', fmtdat='(2E16.6)'
 volume=1.0
 tramp=1.0
 $END
   2.248458e+07   1.055248e+06
   1.399616e+07   1.196011e+07
  -1.418277e+06   1.430298e+07
  -1.024618e+07   8.117242e+06
  -7.646149e+06  -1.839576e+05
   5.959418e+04  -3.898192e+06
   4.368803e+06  -1.308368e+06
   2.754053e+06   3.695097e+06
  -1.504130e+06   5.537649e+06
  -4.156469e+06   2.179007e+06
  -3.376100e+06  -2.940253e+06
  -3.055753e+05  -4.474813e+06
   2.112267e+06  -9.548880e+05
   1.533590e+06   3.584316e+06
  -1.448041e+06   4.124397e+06
  -3.618584e+06   9.265134e+04
  -2.420423e+06  -4.435552e+06
   1.327312e+06  -5.371416e+06
   4.371010e+06  -2.441411e+06
   4.361449e+06   1.400920e+06
   1.905737e+06   3.274386e+06
  -3.741061e+05   2.729364e+06
  -4.677210e+05   1.509513e+06
   1.090494e+06   1.489098e+06
   1.705955e+06   2.715786e+06
  -4.852242e+05   3.404921e+06
  -4.139619e+06   2.026793e+06
  -5.668131e+06  -7.731761e+05
  -3.188388e+06  -2.745006e+06
   1.054907e+06  -2.416638e+06
   3.008826e+06  -4.354054e+05
   1.241373e+06   1.347376e+06
  -1.815002e+06   1.520488e+06
  -2.945023e+06  -5.583665e+04
  -1.496366e+06  -2.193856e+06
   6.309339e+05  -2.990608e+06
   1.464895e+06  -1.455037e+06
   7.515810e+05   1.005334e+06
  -3.166740e+05   1.643301e+06
  -4.706704e+05  -3.331461e+05
   5.042402e+05  -2.374785e+06
   1.577835e+06  -1.627375e+06
   1.403631e+06   1.219795e+06
  -2.454382e+05   2.605696e+06
  -1.943284e+06   6.401293e+05
  -1.824691e+06  -2.492994e+06
   4.701236e+05  -3.283335e+06
   3.155054e+06  -9.547445e+05
   3.790556e+06   2.098328e+06
   1.580725e+06   3.233738e+06
  -1.726875e+06   1.952822e+06
  -3.329582e+06  -2.804388e+05
  -1.990941e+06  -1.637471e+06
   7.527460e+05  -1.289712e+06
   2.171838e+06   1.095473e+05
   1.173311e+06   1.059081e+06
  -6.974302e+05   6.663251e+05
  -1.198652e+06  -4.424642e+05
   2.675171e+04  -9.045328e+05
   1.223728e+06  -2.156154e+05
   7.350938e+05   8.051776e+05
  -1.066670e+06   1.037839e+06
  -2.229674e+06   1.170011e+05
  -1.316176e+06  -1.444929e+06
   1.168553e+06  -2.631151e+06
   3.303322e+06  -2.393974e+06
   3.532809e+06  -4.437975e+05
   1.981985e+06   2.107710e+06
   1.393001e+05   3.437471e+06
  -6.944682e+05   2.822285e+06
  -5.773374e+05   1.414527e+06
  -5.324245e+05   7.574462e+05
  -1.175476e+06   8.810982e+05
  -2.006157e+06   5.313619e+05
  -2.056910e+06  -8.427685e+05
  -9.742369e+05  -2.117460e+06
   6.278407e+05  -1.820546e+06
   1.659082e+06   3.641687e+04
   1.324874e+06   1.870674e+06
  -2.571729e+05   2.122158e+06
  -1.958087e+06   6.712857e+05
  -2.416335e+06  -1.231399e+06
  -1.299771e+06  -2.203368e+06
   2.919801e+05  -1.889217e+06
   1.019216e+06  -1.050284e+06
   8.315539e+05  -6.119787e+05
   8.876315e+05  -6.825620e+05
   1.873248e+06  -5.616661e+05
   2.881011e+06   3.504824e+05
   2.374000e+06   1.803152e+06
   1.007166e+05   2.855370e+06
  -2.365712e+06   2.666041e+06
  -3.116770e+06   1.186615e+06
  -1.770764e+06  -6.929896e+05
   2.328439e+05  -1.688664e+06
   1.098928e+06  -1.164285e+06
   3.539469e+05   1.657729e+05
  -8.928358e+05   8.363762e+05
  -1.242966e+06   2.040789e+05
  -4.442230e+05  -7.912973e+05
   5.002372e+05  -7.876615e+05
   5.252917e+05   2.312039e+05
  -3.837929e+05   8.341689e+05
  -1.262525e+06  -8.235654e+04
  -1.135952e+06  -1.856196e+06
   1.525466e+05  -2.717198e+06
   1.835894e+06  -1.687688e+06
   2.749009e+06   4.620501e+05
   2.167896e+06   2.069357e+06
   4.772865e+05   2.137710e+06
  -1.007285e+06   1.064409e+06
  -1.201754e+06   6.047895e+04
  -3.511597e+05  -3.926059e+04
   2.554229e+05   5.272649e+05
  -2.172076e+05   8.467691e+05
  -1.174273e+06   3.759317e+05
  -1.341668e+06  -4.823860e+05
  -3.446828e+05  -8.738018e+05
   7.863706e+05  -4.461686e+05
   7.629114e+05   3.077722e+05
  -5.026138e+05   5.889038e+05
  -1.736199e+06   4.169922e+04
  -1.582972e+06  -9.659085e+05
   8.257649e+03  -1.635232e+06
   1.690744e+06  -1.348390e+06
   2.015971e+06  -2.305857e+05
   8.351355e+05   8.265444e+05
  -6.051548e+05   9.218853e+05
  -9.501618e+05   8.454532e+04
  -4.582353e+04  -6.829863e+05
   1.049919e+06  -4.768167e+05
   1.226862e+06   4.916987e+05
   3.711734e+05   1.156343e+06
  -6.595981e+05   8.310613e+05
  -9.319321e+05  -5.045694e+04
  -3.009355e+05  -4.942966e+05
   4.779425e+05  -5.832412e+04
   4.736679e+05   7.309006e+05
  -4.632536e+05   9.788430e+05
  -1.447435e+06   3.113471e+05
  -1.408247e+06  -7.948085e+05
  -2.505207e+05  -1.453923e+06
   9.824300e+05  -1.151972e+06
   1.204933e+06  -1.931029e+05
   4.108059e+05   5.880968e+05
  -4.404754e+05   6.051155e+05
  -5.351371e+05   4.328232e+04
   1.406954e+04  -4.038079e+05
   4.699864e+05  -3.018898e+05
   3.314919e+05   8.479338e+04
  -1.903391e+05   1.507742e+05
  -4.353556e+05  -3.109437e+05
   3.432696e+04  -8.136407e+05
   9.471040e+05  -6.614468e+05
   1.480384e+06   2.889376e+05
   1.020033e+06   1.390696e+06
  -1.789402e+05   1.764162e+06
  -1.187555e+06   1.111694e+06
  -1.323468e+06  -1.458932e+04
  -7.823392e+05  -7.523425e+05
  -2.819405e+05  -7.285898e+05
  -2.084873e+05  -3.246630e+05
  -2.832178e+05  -1.733435e+05
  -3.331370e+04  -4.428686e+05
   5.824889e+05  -6.685039e+05
   1.073231e+06  -3.107587e+05
   8.702356e+05   5.550851e+05
  -1.094308e+05   1.182543e+06
  -1.259360e+06   8.563720e+05
  -1.667118e+06  -3.367096e+05
  -8.774198e+05  -1.489018e+06
   6.192585e+05  -1.678267e+06
   1.737368e+06  -8.085024e+05
   1.744197e+06   3.545880e+05
   8.663912e+05   9.593355e+05
  -4.932999e+04   8.383180e+05
  -3.960278e+05   5.157312e+05
  -2.731702e+05   5.258684e+05
  -1.924006e+05   8.103719e+05
  -4.598089e+05   8.208169e+05
  -8.665281e+05   1.828472e+05
  -9.191899e+05  -8.043661e+05
  -3.634458e+05  -1.376888e+06
   4.814145e+05  -1.027678e+06
   9.377354e+05  -1.274249e+04
   6.073822e+05   8.679729e+05
  -1.934622e+05   9.875946e+05
  -7.203331e+05   3.981342e+05
  -5.585534e+05  -3.249445e+05
  -2.667454e+04  -6.663135e+05
   2.316346e+05  -5.761848e+05
  -1.785111e+03  -3.623449e+05
  -2.788829e+05  -2.824836e+05
  -1.962126e+04  -2.918263e+05
   7.716990e+05  -1.596638e+05
   1.400926e+06   2.278816e+05
   1.149992e+06   7.062050e+05
   5.558354e+04   9.538773e+05
  -1.038047e+06   7.679425e+05
  -1.276095e+06   2.531748e+05
  -6.288113e+05  -2.303262e+05
   1.419724e+05  -3.435501e+05
   3.318045e+05  -7.266353e+04
  -2.447578e+04   2.249508e+05
  -3.650055e+05   1.581948e+05
  -3.269646e+05  -2.549213e+05
  -7.662231e+04  -5.536849e+05
   2.819464e+04  -3.545885e+05
  -1.100887e+05   1.344186e+05
  -2.785501e+05   2.923084e+05
  -2.144951e+05  -1.596774e+05
   1.612681e+05  -7.438326e+05
   6.564590e+05  -7.388361e+05
   8.706778e+05  -4.277682e+04
   4.888111e+05   6.755017e+05
  -3.152413e+05   7.250844e+05
  -8.470301e+05   1.326168e+05
  -5.074150e+05  -4.542227e+05
   4.888793e+05  -4.791029e+05
   1.188520e+06   3.207436e+04
   8.462014e+05   6.073990e+05
  -2.646302e+05   7.890112e+05
  -1.113830e+06   4.668941e+05
  -9.772893e+05  -7.891271e+04
  -1.419846e+05  -3.961423e+05
   4.611698e+05  -2.337112e+05
   2.430516e+05   1.878100e+05
  -4.762505e+05   3.248144e+05
  -8.480372e+05  -1.461995e+05
  -3.841677e+05  -9.038976e+05
   5.548737e+05  -1.192121e+06
   1.140897e+06  -5.575026e+05
   8.983173e+05   6.068237e+05
   1.073913e+05   1.332265e+06
  -5.613756e+05   9.846071e+05
  -6.906931e+05  -8.359575e+04
  -3.597819e+05  -8.691233e+05
   9.604463e+04  -7.494297e+05
   3.887307e+05  -8.644420e+04
   3.927996e+05   2.957727e+05
   1.808303e+05   1.225351e+05
   1.249125e+04  -8.841929e+04
   1.096365e+05   1.779979e+05
   3.247119e+05   6.965191e+05
   2.001497e+05   8.057470e+05
  -4.419413e+05   2.916998e+05
  -1.086234e+06  -3.646698e+05
  -9.968290e+05  -6.310303e+05
  -1.336725e+05  -4.991922e+05
   6.933818e+05  -2.875634e+05
   7.466308e+05  -1.423465e+05
   2.108799e+05   8.168586e+03
  -1.342975e+05   1.565709e+05
   4.345206e+04   1.849652e+05
   2.695822e+05   1.144315e+05
   4.554182e+03   1.035250e+05
  -5.707748e+05   1.316394e+05
  -7.550362e+05  -5.286752e+04
  -1.899299e+05  -5.033142e+05
   7.119240e+05  -7.977088e+05
   1.206500e+06  -4.597777e+05
   9.282481e+05   3.893623e+05
   1.409347e+05   1.046075e+06
  -5.701523e+05   9.622062e+05
  -7.771474e+05   3.190332e+05
  -4.847105e+05  -2.254307e+05
  -5.759492e+04  -2.638046e+05
   1.175590e+05  -4.261552e+03
  -3.497747e+04   6.009054e+04
  -2.452088e+05  -2.521613e+05
  -1.920859e+05  -5.943733e+05
   1.611429e+05  -4.761085e+05
   5.093079e+05   1.522628e+05
   4.755214e+05   7.594193e+05
  -1.773772e+04   7.487411e+05
  -5.986060e+05   9.677903e+04
  -7.167208e+05  -6.128408e+05
  -1.832294e+05  -8.000763e+05
   5.482873e+05  -4.267627e+05
   7.805577e+05   1.013782e+05
   3.332239e+05   4.132736e+05
  -2.218844e+05   4.255298e+05
  -2.296358e+05   2.434879e+05
   2.421473e+05   3.505543e+04
   4.911973e+05  -3.612104e+03
   7.813479e+04   2.166455e+05
  -6.179133e+05   4.843086e+05
  -8.777133e+05   4.097020e+05
  -4.895841e+05  -1.002111e+05
   9.683483e+04  -6.073677e+05
   3.699007e+05  -5.851152e+05
   2.541847e+05  -6.240385e+04
  -4.184096e+03   3.766518e+05
  -1.972227e+05   2.789112e+05
  -2.578501e+05  -1.700396e+05
  -1.626787e+05  -4.295532e+05
   6.464224e+04  -2.608029e+05
   2.821683e+05   6.612671e+04
   3.200569e+05   1.786104e+05
   1.732080e+05   4.214057e+04
   7.113993e+03  -6.812726e+04
  -5.650207e+04   5.489419e+04
  -7.498978e+04   2.947883e+05
  -1.587175e+05   3.423566e+05
  -2.745852e+05   5.272267e+04
  -2.537186e+05  -3.544623e+05
  -1.612881e+03  -4.870380e+05
   3.339869e+05  -1.927263e+05
   4.418838e+05   2.576875e+05
   1.430881e+05   4.473065e+05
  -3.632452e+05   2.452500e+05
  -6.099839e+05  -1.027996e+05
  -3.235294e+05  -2.893672e+05
   2.253869e+05  -2.435759e+05
   4.583174e+05  -9.961558e+04
   1.407401e+05   2.668088e+03
  -3.147316e+05  -1.445298e+03
  -3.203598e+05  -1.170262e+05
   1.779572e+05  -2.453491e+05
   6.290507e+05  -1.784441e+05
