
 $NMID
 id='ANONYMOUS ', fmtdat='(2E16.6)'
 volume=1.0
 tramp=1.0
 $END
   4.296034e+07   9.288221e+05
   2.492613e+07   2.770850e+07
  -6.838519e+06   2.905129e+07
  -2.142608e+07   1.006303e+07
  -1.209260e+07  -6.230484e+06
   2.987082e+06  -6.964236e+06
   7.307349e+06   1.516462e+06
   1.545396e+06   7.493112e+06
  -5.071448e+06   6.555728e+06
  -7.281826e+06   1.027451e+06
  -5.089638e+06  -4.745860e+06
  -4.868986e+05  -6.341869e+06
   2.987071e+06  -2.060854e+06
   1.834981e+06   3.867573e+06
  -2.965768e+06   4.573793e+06
  -5.845685e+06  -1.304723e+06
  -3.043966e+06  -7.767082e+06
   3.143496e+06  -8.759859e+06
   7.744493e+06  -4.287945e+06
   8.206293e+06   1.651292e+06
   5.072114e+06   5.801234e+06
   4.769958e+05   6.791144e+06
  -2.527491e+06   4.738650e+06
  -1.866196e+06   1.866035e+06
   5.769855e+05   1.209903e+06
   2.997195e+05   2.817722e+06
  -3.752657e+06   3.247896e+06
  -7.002063e+06   4.644726e+05
  -5.242124e+06  -3.029101e+06
  -3.648845e+05  -3.814865e+06
   2.564767e+06  -2.071686e+06
   1.876104e+06  -2.732637e+05
  -9.249851e+04   5.021834e+05
  -1.304926e+06   4.533556e+05
  -1.563279e+06  -7.554468e+05
  -7.007543e+05  -2.727253e+06
   1.287822e+06  -2.946744e+06
   2.614720e+06  -5.332416e+04
   1.461373e+06   2.795770e+06
  -6.298804e+05   1.701014e+06
  -4.009215e+05  -1.593533e+06
   1.766831e+06  -1.571231e+06
   1.706734e+06   2.482205e+06
  -2.126873e+06   4.567946e+06
  -5.491046e+06   5.556413e+05
  -3.801027e+06  -5.447723e+06
   1.696783e+06  -6.476701e+06
   5.666861e+06  -1.701273e+06
   4.995686e+06   3.429236e+06
   1.126118e+06   4.428821e+06
  -2.604273e+06   1.817978e+06
  -3.701022e+06  -1.304518e+06
  -1.563395e+06  -2.624748e+06
   1.919990e+06  -1.530858e+06
   3.345841e+06   8.402561e+05
   1.345774e+06   2.107759e+06
  -1.330578e+06   9.850217e+05
  -1.198064e+06  -7.959245e+05
   1.118255e+06  -5.426708e+05
   1.775175e+06   1.576987e+06
  -7.664883e+05   2.703305e+06
  -3.724527e+06   1.273827e+06
  -3.969238e+06  -1.278054e+06
  -1.597906e+06  -3.096291e+06
   1.367209e+06  -3.876863e+06
   3.619703e+06  -3.533111e+06
   4.536561e+06  -1.295873e+06
   3.424840e+06   2.311482e+06
   6.787163e+05   4.523791e+06
  -1.498634e+06   3.402591e+06
  -1.370512e+06   6.929275e+05
   5.272572e+03  -3.671621e+05
   2.737690e+05   6.787547e+05
  -9.705609e+05   1.417522e+06
  -1.982959e+06   3.604228e+05
  -1.520712e+06  -1.220706e+06
  -1.461761e+05  -1.455213e+06
   9.733342e+05  -1.857745e+05
   1.135892e+06   1.377655e+06
   3.025268e+04   2.050344e+06
  -1.964773e+06   1.236241e+06
  -3.283544e+06  -8.155686e+05
  -2.408178e+06  -2.785900e+06
   4.537266e+04  -3.197306e+06
   1.772126e+06  -2.044649e+06
   1.739642e+06  -7.900354e+05
   1.372225e+06  -4.016746e+05
   2.102988e+06  -2.476142e+05
   3.072786e+06   6.295619e+05
   2.425119e+06   2.014383e+06
   3.928814e+04   2.908113e+06
  -2.274746e+06   2.720674e+06
  -2.924461e+06   1.513787e+06
  -1.894905e+06  -2.407567e+05
  -2.668588e+05  -1.560401e+06
   7.289704e+05  -1.400585e+06
   4.098695e+05   1.107240e+03
  -7.543812e+05   9.311768e+05
  -1.370623e+06   2.724566e+05
  -6.788070e+05  -8.774564e+05
   3.462963e+05  -7.814377e+05
   2.445400e+05   2.821990e+05
  -8.316517e+05   3.882697e+05
  -1.274938e+06  -1.116865e+06
  -2.371634e+05  -2.574371e+06
   1.373172e+06  -2.276086e+06
   2.279979e+06  -5.234423e+05
   2.193475e+06   1.173017e+06
   1.436146e+06   1.923903e+06
   2.572553e+05   1.766996e+06
  -8.598251e+05   1.010755e+06
  -1.095844e+06   1.667983e+05
  -3.460783e+05  -3.697888e+04
   2.418452e+05   5.355327e+05
  -3.302115e+05   9.617346e+05
  -1.395050e+06   3.854719e+05
  -1.440701e+06  -6.909611e+05
  -2.310502e+05  -1.033022e+06
   8.430799e+05  -3.750633e+05
   5.864690e+05   3.328510e+05
  -6.237843e+05   2.962869e+05
  -1.475677e+06  -3.179254e+05
  -1.122436e+06  -9.685809e+05
   2.380145e+05  -1.319633e+06
   1.630112e+06  -1.090444e+06
   1.944587e+06  -1.466968e+05
   8.456401e+05   9.274201e+05
  -6.843464e+05   1.081402e+06
  -1.143638e+06   1.207971e+05
  -1.495153e+05  -7.887776e+05
   1.087633e+06  -5.099274e+05
   1.197013e+06   5.914460e+05
   1.796542e+05   1.170394e+06
  -8.100648e+05   6.335539e+05
  -8.665788e+05  -2.819737e+05
  -1.267375e+05  -5.668539e+05
   5.851586e+05  -1.941185e+04
   5.175434e+05   7.595207e+05
  -4.125033e+05   1.007261e+06
  -1.420630e+06   3.758740e+05
  -1.433585e+06  -7.569367e+05
  -2.474278e+05  -1.475379e+06
   1.050588e+06  -1.141911e+06
   1.225656e+06  -1.113621e+05
   3.265509e+05   6.263648e+05
  -4.825194e+05   5.472912e+05
  -4.252507e+05   5.087958e+04
   1.031660e+05  -2.101848e+05
   3.118689e+05  -1.020747e+05
   2.030461e+04   2.978916e+04
  -3.432152e+05  -1.206140e+05
  -3.316045e+05  -5.246553e+05
   1.946609e+05  -8.386924e+05
   9.967345e+05  -6.035799e+05
   1.462076e+06   3.230920e+05
   1.012346e+06   1.389675e+06
  -1.782647e+05   1.693573e+06
  -1.144472e+06   9.452772e+05
  -1.153680e+06  -1.293912e+05
  -5.485538e+05  -6.071278e+05
  -2.078359e+05  -3.899039e+05
  -3.745472e+05  -1.196384e+05
  -4.803707e+05  -2.486112e+05
  -5.842377e+04  -5.687782e+05
   6.411232e+05  -6.135754e+05
   1.011101e+06  -1.872616e+05
   6.965246e+05   5.089112e+05
  -2.116247e+05   9.831295e+05
  -1.216534e+06   7.065645e+05
  -1.558737e+06  -3.724866e+05
  -7.495551e+05  -1.495587e+06
   7.730818e+05  -1.651541e+06
   1.824455e+06  -6.679170e+05
   1.624199e+06   5.276454e+05
   6.031966e+05   9.491374e+05
  -1.802539e+05   6.143093e+05
  -2.432444e+05   3.156219e+05
  -5.285719e+03   5.400797e+05
  -6.166147e+04   9.573935e+05
  -4.983600e+05   9.255050e+05
  -9.330245e+05   2.175240e+05
  -9.389575e+05  -7.708229e+05
  -3.772570e+05  -1.336287e+06
   4.466365e+05  -1.004879e+06
   8.993340e+05   2.245285e+04
   5.450203e+05   9.278545e+05
  -3.187692e+05   9.775596e+05
  -8.517955e+05   2.349607e+05
  -5.614374e+05  -5.521194e+05
   1.376734e+05  -7.806966e+05
   4.311021e+05  -5.330796e+05
   8.115707e+04  -2.709960e+05
  -3.111384e+05  -2.311122e+05
  -4.442082e+04  -2.664710e+05
   8.256639e+05  -1.278405e+05
   1.469317e+06   2.672736e+05
   1.125337e+06   7.621627e+05
  -7.259896e+04   1.027818e+06
  -1.164694e+06   7.922162e+05
  -1.301309e+06   1.536863e+05
  -5.663932e+05  -3.940730e+05
   2.068329e+05  -4.142031e+05
   3.690739e+05  -1.327790e+03
   2.715489e+04   3.213757e+05
  -3.018158e+05   1.862964e+05
  -3.407110e+05  -2.444619e+05
  -2.029144e+05  -5.051844e+05
  -9.191070e+04  -3.387053e+05
  -9.193805e+04   4.483028e+04
  -1.731433e+05   1.793890e+05
  -1.851327e+05  -1.688008e+05
   9.214906e+04  -6.833620e+05
   6.437740e+05  -7.474195e+05
   9.974479e+05  -1.285632e+05
   6.281906e+05   6.526242e+05
  -3.041172e+05   8.271197e+05
  -9.115285e+05   2.554853e+05
  -5.175403e+05  -3.990386e+05
   5.070287e+05  -4.423494e+05
   1.099411e+06   9.875487e+04
   6.548156e+05   6.204292e+05
  -3.786760e+05   6.602351e+05
  -1.043999e+06   2.768383e+05
  -8.320392e+05  -1.671856e+05
  -7.305079e+04  -3.528218e+05
   4.611848e+05  -1.667538e+05
   2.774653e+05   2.215573e+05
  -4.005761e+05   3.813333e+05
  -8.373013e+05  -3.879690e+04
  -4.983051e+05  -8.240532e+05
   3.872427e+05  -1.211528e+06
   1.031717e+06  -6.414271e+05
   8.820816e+05   5.247944e+05
   1.391172e+05   1.251132e+06
  -5.242133e+05   8.848574e+05
  -6.389148e+05  -1.517311e+05
  -2.704068e+05  -8.394203e+05
   1.896175e+05  -6.571763e+05
   4.027980e+05  -4.100888e+04
   3.017982e+05   2.597572e+05
   8.874272e+04   8.638721e+04
   4.386168e+04  -5.746749e+04
   2.303227e+05   2.303884e+05
   3.655822e+05   6.896366e+05
   9.650443e+04   7.481439e+05
  -5.393901e+05   2.634068e+05
  -1.026482e+06  -3.321038e+05
  -8.625269e+05  -5.903393e+05
  -1.217261e+05  -4.970256e+05
   5.733557e+05  -2.962979e+05
   6.797436e+05  -1.138636e+05
   2.745616e+05   5.768992e+04
  -9.232167e+04   1.619095e+05
  -5.728075e+04   1.239938e+05
   1.520191e+05   4.424568e+04
   4.954547e+04   9.274805e+04
  -4.279211e+05   1.827069e+05
  -7.415707e+05   2.207969e+03
  -3.572023e+05  -4.981005e+05
   5.588835e+05  -8.541531e+05
   1.222736e+06  -5.578446e+05
   1.041050e+06   2.854987e+05
   2.104956e+05   9.839701e+05
  -5.493132e+05   9.803051e+05
  -7.410466e+05   4.056707e+05
  -4.581842e+05  -1.409180e+05
  -1.109660e+05  -2.541710e+05
   1.898545e+04  -7.218800e+04
  -6.686889e+04  -1.476503e+04
  -1.932956e+05  -2.681993e+05
  -1.599922e+05  -5.673120e+05
   1.175663e+05  -4.875046e+05
   4.748416e+05   5.648842e+04
   5.488092e+05   6.439227e+05
   1.273901e+05   7.339224e+05
  -5.094606e+05   2.166161e+05
  -7.475346e+05  -4.694610e+05
  -2.752109e+05  -7.700170e+05
   4.953919e+05  -5.092466e+05
   8.079402e+05   3.800409e+04
   3.965426e+05   4.567115e+05
  -2.046896e+05   5.132609e+05
  -2.973815e+05   2.662631e+05
   1.411128e+05  -1.112581e+04
   4.486871e+05  -3.720160e+04
   1.161419e+05   2.240476e+05
  -5.780077e+05   4.769528e+05
  -9.120517e+05   3.571570e+05
  -5.700578e+05  -1.519536e+05
   6.173942e+04  -6.270248e+05
   4.166470e+05  -6.174455e+05
   3.361880e+05  -1.386073e+05
   6.043874e+04   3.243371e+05
  -1.609802e+05   3.278585e+05
  -2.496329e+05  -6.984028e+04
  -1.877002e+05  -4.044152e+05
   2.833560e+04  -3.312350e+05
   2.783706e+05   1.500072e+04
   3.461992e+05   2.180402e+05
   1.701020e+05   8.650812e+04
  -3.923683e+04  -1.320636e+05
  -5.472209e+04  -8.215592e+04
   5.729017e+04   2.320035e+05
   2.934529e+04   4.288243e+05
  -2.076817e+05   2.171157e+05
  -3.721007e+05  -2.287813e+05
  -1.735999e+05  -4.549437e+05
   2.699883e+05  -2.424710e+05
   4.942515e+05   1.716503e+05
   2.015258e+05   3.902945e+05
  -3.651266e+05   2.657544e+05
  -6.436422e+05  -3.277057e+04
  -3.507479e+05  -2.622855e+05
   2.057949e+05  -3.095256e+05
   4.600889e+05  -1.960320e+05
   2.030219e+05  -1.826864e+04
  -2.089355e+05   8.112535e+04
  -2.764880e+05  -2.709174e+03
   8.399270e+04  -1.867948e+05
   4.721376e+05  -2.033412e+05
