
 $NMID
 id='ANONYMOUS ', fmtdat='(2E16.6)'
 volume=1.0
 tramp=1.0
 $END
   2.363531e+07  -1.601445e+06
   1.750854e+07   9.062046e+06
   2.150969e+06   1.502108e+07
  -9.547242e+06   1.209067e+07
  -9.576275e+06   2.711253e+06
  -1.448629e+06  -4.584241e+06
   5.217023e+06  -3.315282e+06
   4.790597e+06   3.743899e+06
  -4.534139e+05   7.714026e+06
  -4.638280e+06   3.921615e+06
  -4.346246e+06  -3.088898e+06
  -7.294402e+05  -5.467973e+06
   2.448952e+06  -1.091549e+06
   2.187921e+06   4.754028e+06
  -1.229670e+06   5.750020e+06
  -4.327774e+06   1.018927e+06
  -3.646444e+06  -4.742215e+06
   5.914550e+05  -6.420342e+06
   4.504995e+06  -3.228955e+06
   4.700826e+06   1.256407e+06
   1.880293e+06   3.186503e+06
  -2.850127e+05   2.218162e+06
   5.002610e+05   1.146285e+06
   2.673578e+06   2.176431e+06
   2.718008e+06   4.331887e+06
  -8.688642e+05   4.845964e+06
  -5.635713e+06   2.489984e+06
  -7.240983e+06  -1.136173e+06
  -3.801143e+06  -3.340140e+06
   1.725532e+06  -2.729874e+06
   4.128799e+06  -9.031236e+04
   1.373270e+06   2.328322e+06
  -3.169771e+06   2.362593e+06
  -4.602688e+06  -3.101239e+05
  -1.974530e+06  -3.475366e+06
   1.260461e+06  -4.102047e+06
   1.868036e+06  -1.503801e+06
   2.908109e+05   1.547142e+06
  -8.921906e+05   1.678417e+06
  -3.921716e+05  -1.158150e+06
   1.004609e+06  -3.483625e+06
   2.043393e+06  -2.349647e+06
   2.008680e+06   1.137476e+06
   6.575466e+05   3.095017e+06
  -1.380036e+06   1.369758e+06
  -2.220924e+06  -2.085401e+06
  -2.731972e+05  -3.524049e+06
   3.323270e+06  -1.446367e+06
   5.021896e+06   2.124119e+06
   2.606628e+06   4.008156e+06
  -1.998697e+06   2.906845e+06
  -4.578262e+06   1.610498e+05
  -3.068777e+06  -1.865930e+06
   5.439101e+05  -1.847468e+06
   2.655940e+06  -3.245224e+05
   1.707877e+06   1.019674e+06
  -6.758335e+05   9.016176e+05
  -1.709402e+06  -4.351693e+05
  -3.541639e+05  -1.496994e+06
   1.670528e+06  -1.052782e+06
   1.790100e+06   5.559025e+05
  -4.420650e+05   1.672501e+06
  -2.586531e+06   9.418271e+05
  -1.946601e+06  -1.309713e+06
   1.296234e+06  -3.244005e+06
   4.216504e+06  -3.057673e+06
   4.397072e+06  -5.571445e+05
   2.319264e+06   2.596610e+06
   2.533783e+05   4.283461e+06
  -4.899826e+05   3.793258e+06
  -5.264278e+05   2.314465e+06
  -1.012115e+06   1.412704e+06
  -2.125050e+06   1.185109e+06
  -3.023780e+06   3.911779e+05
  -2.773604e+06  -1.516271e+06
  -1.141979e+06  -3.147209e+06
   1.108946e+06  -2.590113e+06
   2.517002e+06   1.329347e+05
   1.923523e+06   2.724407e+06
  -3.781077e+05   2.934698e+06
  -2.611602e+06   8.041881e+05
  -3.025898e+06  -1.656377e+06
  -1.543306e+06  -2.655923e+06
   2.758380e+05  -2.116448e+06
   9.831822e+05  -1.208388e+06
   7.715511e+05  -9.083665e+05
   1.047841e+06  -1.130928e+06
   2.508096e+06  -9.924328e+05
   3.946035e+06   2.387965e+05
   3.352446e+06   2.303123e+06
   2.878517e+05   3.920176e+06
  -3.175205e+06   3.746913e+06
  -4.282462e+06   1.628720e+06
  -2.379396e+06  -1.032749e+06
   4.442851e+05  -2.333376e+06
   1.577562e+06  -1.527041e+06
   4.594839e+05   2.693162e+05
  -1.237176e+06   1.143845e+06
  -1.654837e+06   3.221142e+05
  -5.704821e+05  -1.018839e+06
   7.161196e+05  -1.094921e+06
   8.442014e+05   3.087671e+05
  -3.790156e+05   1.377829e+06
  -1.850942e+06   3.176586e+05
  -2.046589e+06  -2.345911e+06
  -2.991347e+05  -4.041914e+06
   2.422007e+06  -2.872919e+06
   4.084425e+06   3.226839e+05
   3.324666e+06   2.891900e+06
   7.887357e+05   3.084504e+06
  -1.402669e+06   1.513110e+06
  -1.681538e+06   8.324904e+04
  -4.871052e+05  -4.136506e+04
   3.811466e+05   7.153144e+05
  -2.104767e+05   1.148711e+06
  -1.523924e+06   5.887634e+05
  -1.858801e+06  -5.238061e+05
  -5.707238e+05  -1.147767e+06
   1.054483e+06  -6.828127e+05
   1.134713e+06   4.015121e+05
  -6.530127e+05   9.541662e+05
  -2.524367e+06   2.361206e+05
  -2.391666e+06  -1.311524e+06
  -1.085450e+05  -2.394094e+06
   2.323502e+06  -2.018245e+06
   2.805177e+06  -4.253697e+05
   1.193115e+06   1.068208e+06
  -7.512446e+05   1.248112e+06
  -1.234117e+06   1.632242e+05
  -6.590435e+04  -8.922492e+05
   1.411510e+06  -6.948178e+05
   1.735006e+06   5.937844e+05
   6.314083e+05   1.595535e+06
  -8.424027e+05   1.262376e+06
  -1.337453e+06   4.617114e+04
  -5.077746e+05  -6.633488e+05
   6.226341e+05  -1.288501e+05
   6.735300e+05   9.713749e+05
  -6.104013e+05   1.354292e+06
  -1.984576e+06   4.659330e+05
  -1.962482e+06  -1.046524e+06
  -4.105145e+05  -1.986922e+06
   1.282941e+06  -1.640874e+06
   1.655317e+06  -3.477827e+05
   6.259076e+05   7.907479e+05
  -5.739696e+05   8.799597e+05
  -7.771479e+05   6.774195e+04
  -1.117966e+04  -6.387480e+05
   7.134638e+05  -4.939329e+05
   5.690136e+05   1.547114e+05
  -2.274883e+05   3.311538e+05
  -6.729552e+05  -3.420724e+05
  -4.886885e+04  -1.129798e+06
   1.264492e+06  -9.782686e+05
   2.062901e+06   3.243078e+05
   1.467890e+06   1.874527e+06
  -1.800942e+05   2.465036e+06
  -1.624192e+06   1.638447e+06
  -1.899061e+06   5.875642e+04
  -1.178700e+06  -1.082636e+06
  -4.088425e+05  -1.123864e+06
  -2.178353e+05  -4.951338e+05
  -3.334958e+05  -1.773256e+05
  -6.900503e+04  -5.588971e+05
   7.579770e+05  -9.711535e+05
   1.499977e+06  -5.122934e+05
   1.280066e+06   7.621744e+05
  -8.426485e+04   1.716876e+06
  -1.729760e+06   1.283755e+06
  -2.355030e+06  -3.912910e+05
  -1.320588e+06  -2.026457e+06
   7.286337e+05  -2.366575e+06
   2.344226e+06  -1.249273e+06
   2.482283e+06   3.649637e+05
   1.329997e+06   1.318438e+06
  -9.005949e+03   1.253836e+06
  -6.014739e+05   7.841015e+05
  -4.505874e+05   7.021372e+05
  -2.629532e+05   1.057324e+06
  -5.738806e+05   1.116884e+06
  -1.158787e+06   2.833210e+05
  -1.290413e+06  -1.079984e+06
  -5.500417e+05  -1.896131e+06
   6.353629e+05  -1.441911e+06
   1.310413e+06  -6.624476e+04
   9.037705e+05   1.155598e+06
  -1.799951e+05   1.387049e+06
  -9.458448e+05   6.536648e+05
  -8.075539e+05  -3.404927e+05
  -1.379109e+05  -8.933753e+05
   2.263043e+05  -8.419499e+05
  -3.798315e+04  -5.421719e+05
  -3.783276e+05  -3.925333e+05
  -2.736184e+04  -4.073689e+05
   1.039958e+06  -2.702331e+05
   1.919129e+06   2.322575e+05
   1.630286e+06   9.064387e+05
   1.728191e+05   1.299618e+06
  -1.348877e+06   1.107918e+06
  -1.750236e+06   4.423482e+05
  -9.177769e+05  -2.377155e+05
   1.494291e+05  -4.606143e+05
   4.482125e+05  -1.444847e+05
  -3.291365e+04   2.693685e+05
  -5.165023e+05   2.153581e+05
  -4.547060e+05  -3.400482e+05
  -7.675413e+04  -7.634102e+05
   6.995822e+04  -4.824075e+05
  -1.623155e+05   2.205479e+05
  -4.221656e+05   4.447617e+05
  -3.138865e+05  -2.097651e+05
   2.222798e+05  -1.045582e+06
   8.760758e+05  -1.041597e+06
   1.141360e+06  -7.912811e+04
   6.485277e+05   9.026619e+05
  -3.961617e+05   9.737505e+05
  -1.124021e+06   1.805378e+05
  -7.084009e+05  -6.236820e+05
   6.509372e+05  -6.962293e+05
   1.679230e+06  -2.043056e+04
   1.263404e+06   8.176193e+05
  -3.036954e+05   1.158215e+06
  -1.561862e+06   7.525932e+05
  -1.413346e+06  -5.092139e+04
  -2.330261e+05  -5.635477e+05
   6.332718e+05  -3.664948e+05
   3.343820e+05   2.322382e+05
  -6.639555e+05   4.388761e+05
  -1.167040e+06  -2.060404e+05
  -5.169209e+05  -1.246102e+06
   7.738980e+05  -1.640536e+06
   1.579641e+06  -7.732669e+05
   1.260301e+06   8.304947e+05
   1.833716e+05   1.857739e+06
  -7.568165e+05   1.413117e+06
  -9.819975e+05  -6.656343e+04
  -5.623844e+05  -1.203317e+06
   7.612693e+04  -1.081474e+06
   5.318223e+05  -1.542500e+05
   5.835472e+05   4.142420e+05
   2.845461e+05   1.848360e+05
   5.515930e+03  -1.373380e+05
   1.201093e+05   2.077799e+05
   4.612472e+05   9.442268e+05
   3.417133e+05   1.135035e+06
  -5.640182e+05   4.421334e+05
  -1.530805e+06  -4.753879e+05
  -1.445359e+06  -8.575037e+05
  -2.094793e+05  -6.842387e+05
   9.866146e+05  -4.088147e+05
   1.050699e+06  -2.307869e+05
   2.729242e+05  -2.310314e+04
  -1.935238e+05   2.147940e+05
   9.785733e+04   2.867390e+05
   4.119145e+05   1.850916e+05
  -6.879500e+03   1.412423e+05
  -8.278117e+05   1.708324e+05
  -1.041596e+06  -6.252477e+04
  -2.208287e+05  -6.687073e+05
   9.975083e+05  -1.091535e+06
   1.626238e+06  -6.503325e+05
   1.242318e+06   5.229502e+05
   2.058487e+05   1.450620e+06
  -7.504161e+05   1.341055e+06
  -1.060827e+06   4.367093e+05
  -6.778765e+05  -3.240213e+05
  -7.000836e+04  -3.585796e+05
   1.904828e+05   2.519342e+04
  -4.223530e+04   1.154954e+05
  -3.696421e+05  -3.369162e+05
  -2.989420e+05  -8.246046e+05
   2.166176e+05  -6.541157e+05
   7.104988e+05   2.272969e+05
   6.476823e+05   1.060907e+06
  -4.797816e+04   1.021926e+06
  -8.404016e+05   1.044736e+05
  -9.861890e+05  -8.637441e+05
  -2.490143e+05  -1.095558e+06
   7.477173e+05  -5.748979e+05
   1.062671e+06   1.268654e+05
   4.583286e+05   5.321044e+05
  -2.840196e+05   5.615303e+05
  -2.784869e+05   3.447070e+05
   3.671857e+05   6.662168e+04
   6.885437e+05  -8.626095e+03
   1.036031e+05   2.881731e+05
  -8.466106e+05   6.918233e+05
  -1.185481e+06   6.250473e+05
  -6.550290e+05  -8.926577e+04
   1.185349e+05  -8.299424e+05
   4.640937e+05  -8.152888e+05
   3.087292e+05  -7.781268e+04
  -1.960624e+04   5.312412e+05
  -2.678119e+05   3.704984e+05
  -3.542421e+05  -2.613405e+05
  -2.302980e+05  -5.915074e+05
   8.352335e+04  -3.320372e+05
   3.873401e+05   9.849989e+04
   4.434332e+05   2.151253e+05
   2.465796e+05   3.473414e+04
   1.679747e+04  -6.537193e+04
  -9.161153e+04   1.284448e+05
  -1.467631e+05   4.177563e+05
  -2.639897e+05   4.254512e+05
  -3.824219e+05   1.601193e+04
  -3.067834e+05  -5.108717e+05
   4.430048e+04  -6.635991e+05
   4.701028e+05  -2.541420e+05
   5.908006e+05   3.622398e+05
   1.881630e+05   6.247754e+05
  -4.871287e+05   3.459945e+05
  -8.246446e+05  -1.378642e+05
  -4.450309e+05  -3.920135e+05
   3.001450e+05  -3.186946e+05
   6.159678e+05  -1.212496e+05
   1.687039e+05  -1.446780e+03
  -4.636928e+05  -3.099989e+04
  -4.498765e+05  -1.949234e+05
   2.761682e+05  -3.567958e+05
   9.145508e+05  -2.457251e+05
