
 $NMID
 id='ANONYMOUS ', fmtdat='(2E16.6)'
 volume=1.0
 tramp=1.0
 $END
   4.248567e+07  -2.206114e+06
   2.789303e+07   2.343210e+07
  -2.597921e+06   2.876965e+07
  -1.984386e+07   1.401211e+07
  -1.375600e+07  -2.891257e+06
   1.239149e+06  -7.459999e+06
   7.959543e+06  -6.843176e+05
   3.674348e+06   7.277704e+06
  -3.768066e+06   8.634438e+06
  -7.526059e+06   2.857860e+06
  -5.932355e+06  -4.687910e+06
  -9.393600e+05  -7.126971e+06
   3.198338e+06  -2.136275e+06
   2.440007e+06   4.933516e+06
  -2.625123e+06   6.117466e+06
  -6.386768e+06  -2.533267e+05
  -4.259942e+06  -7.781995e+06
   2.201831e+06  -9.551752e+06
   7.557681e+06  -5.002064e+06
   8.247213e+06   1.372680e+06
   4.890518e+06   5.429199e+06
   6.233505e+05   5.976239e+06
  -1.357487e+06   4.214257e+06
  -1.333158e+05   2.575294e+06
   1.575904e+06   2.882828e+06
  -1.363693e+05   4.198925e+06
  -5.154097e+06   3.583936e+06
  -8.345613e+06   7.500768e+04
  -5.673913e+06  -3.499738e+06
   3.288132e+05  -3.957977e+06
   3.600884e+06  -1.610061e+06
   1.902669e+06   7.537022e+05
  -1.529670e+06   1.323384e+06
  -2.978111e+06   1.298392e+05
  -1.971988e+06  -2.068779e+06
  -5.818464e+03  -3.757423e+06
   1.633102e+06  -2.878789e+06
   2.008718e+06   4.783224e+05
   8.209420e+05   2.686717e+06
  -4.831227e+05   7.733296e+05
   1.603386e+05  -2.672296e+06
   2.191777e+06  -2.265188e+06
   2.293932e+06   2.296071e+06
  -1.070466e+06   4.935146e+06
  -4.691370e+06   1.357743e+06
  -4.113972e+06  -4.777467e+06
   8.051510e+05  -6.497613e+06
   5.611723e+06  -2.185952e+06
   6.107053e+06   3.312847e+06
   2.167865e+06   5.080195e+06
  -2.794176e+06   2.755981e+06
  -4.880413e+06  -7.942559e+05
  -2.645609e+06  -2.772892e+06
   1.621813e+06  -2.072393e+06
   3.732553e+06   3.362686e+05
   1.869965e+06   1.980788e+06
  -1.249676e+06   1.200773e+06
  -1.690248e+06  -7.590939e+05
   6.842227e+05  -1.159617e+06
   2.206093e+06   6.323356e+05
   3.997878e+05   2.365253e+06
  -2.924907e+06   1.934013e+06
  -4.215445e+06  -3.386545e+05
  -2.222898e+06  -2.833284e+06
   1.432173e+06  -4.369874e+06
   4.421195e+06  -4.088774e+06
   5.250971e+06  -1.373510e+06
   3.643352e+06   2.711678e+06
   7.836644e+05   5.223146e+06
  -1.221796e+06   4.300087e+06
  -1.280825e+06   1.623384e+06
  -5.215127e+05   3.236550e+05
  -7.390882e+05   9.397998e+05
  -1.983310e+06   1.188084e+06
  -2.629289e+06  -3.672348e+05
  -1.612397e+06  -2.242049e+06
   3.746790e+05  -2.185049e+06
   1.826538e+06  -5.905322e+04
   1.701537e+06   2.223340e+06
  -1.047058e+05   2.812877e+06
  -2.562115e+06   1.321277e+06
  -3.781936e+06  -1.218509e+06
  -2.575058e+06  -3.133638e+06
   6.521485e+03  -3.306080e+06
   1.650115e+06  -2.143406e+06
   1.608818e+06  -1.085440e+06
   1.494882e+06  -8.619232e+05
   2.693901e+06  -6.865856e+05
   4.072679e+06   4.944542e+05
   3.353444e+06   2.466086e+06
   2.252387e+05   3.910556e+06
  -3.041216e+06   3.736506e+06
  -4.027614e+06   1.904381e+06
  -2.446313e+06  -5.891638e+05
  -2.762858e+04  -2.163049e+06
   1.198814e+06  -1.714981e+06
   4.991592e+05   1.084756e+05
  -1.085519e+06   1.209923e+06
  -1.745652e+06   3.837333e+05
  -7.831254e+05  -1.076902e+06
   5.594631e+05  -1.066453e+06
   5.667221e+05   3.592007e+05
  -8.058491e+05   9.473000e+05
  -1.859323e+06  -6.606320e+05
  -1.187623e+06  -3.007694e+06
   8.642131e+05  -3.595475e+06
   2.832023e+06  -1.745243e+06
   3.517917e+06   1.000421e+06
   2.581791e+06   2.729715e+06
   5.594654e+05   2.694419e+06
  -1.244332e+06   1.435517e+06
  -1.553126e+06   1.791800e+05
  -4.747714e+05  -3.845330e+04
   3.618163e+05   7.122282e+05
  -3.112293e+05   1.240713e+06
  -1.706824e+06   5.927978e+05
  -1.926512e+06  -7.093804e+05
  -4.579105e+05  -1.280908e+06
   1.092673e+06  -6.046699e+05
   9.500924e+05   4.243024e+05
  -7.659304e+05   6.664593e+05
  -2.250082e+06  -1.142290e+05
  -1.921071e+06  -1.306963e+06
   1.184134e+05  -2.066206e+06
   2.237811e+06  -1.741873e+06
   2.696446e+06  -3.373424e+05
   1.186448e+06   1.145710e+06
  -8.098023e+05   1.379596e+06
  -1.394872e+06   1.993632e+05
  -1.642011e+05  -9.742423e+05
   1.423951e+06  -7.147991e+05
   1.681521e+06   6.795060e+05
   4.412527e+05   1.588081e+06
  -9.753619e+05   1.059823e+06
  -1.259841e+06  -1.741731e+05
  -3.368283e+05  -7.246475e+05
   7.146723e+05  -9.109403e+04
   7.035156e+05   9.834497e+05
  -5.544610e+05   1.358397e+06
  -1.927881e+06   5.170822e+05
  -1.954384e+06  -9.953610e+05
  -4.008290e+05  -1.976347e+06
   1.327578e+06  -1.606982e+06
   1.650554e+06  -2.659993e+05
   5.373401e+05   8.155814e+05
  -6.058586e+05   8.117310e+05
  -6.605057e+05   7.053602e+04
   7.902063e+04  -4.484711e+05
   5.595308e+05  -2.931686e+05
   2.657953e+05   1.094832e+05
  -3.756689e+05   7.474220e+04
  -5.709323e+05  -5.412679e+05
   1.026760e+05  -1.140769e+06
   1.294173e+06  -9.097160e+05
   2.014969e+06   3.530894e+05
   1.437287e+06   1.845796e+06
  -1.791948e+05   2.360593e+06
  -1.562972e+06   1.455054e+06
  -1.712905e+06  -5.460903e+04
  -9.371932e+05  -9.350225e+05
  -3.247736e+05  -7.896809e+05
  -3.659745e+05  -2.907661e+05
  -5.160526e+05  -2.411796e+05
  -9.471435e+04  -6.690317e+05
   8.036518e+05  -9.066063e+05
   1.422907e+06  -3.863798e+05
   1.096527e+06   7.124551e+05
  -1.848181e+05   1.506269e+06
  -1.667942e+06   1.121634e+06
  -2.218049e+06  -4.228739e+05
  -1.179003e+06  -2.005387e+06
   8.642127e+05  -2.308282e+06
   2.394019e+06  -1.098664e+06
   2.334941e+06   5.260418e+05
   1.060915e+06   1.295182e+06
  -1.380104e+05   1.026743e+06
  -4.535617e+05   5.798132e+05
  -1.913847e+05   6.981216e+05
  -1.325509e+05   1.176182e+06
  -5.991141e+05   1.198931e+06
  -1.202785e+06   3.127354e+05
  -1.287872e+06  -1.031828e+06
  -5.527435e+05  -1.828540e+06
   5.939554e+05  -1.396978e+06
   1.254762e+06  -3.043714e+04
   8.319014e+05   1.196146e+06
  -2.961032e+05   1.359120e+06
  -1.059280e+06   4.925270e+05
  -8.031295e+05  -5.496693e+05
   1.677651e+04  -9.914256e+05
   4.122736e+05  -7.929279e+05
   4.304301e+04  -4.495964e+05
  -4.019234e+05  -3.375658e+05
  -4.974700e+04  -3.769634e+05
   1.076064e+06  -2.371475e+05
   1.955485e+06   2.651177e+05
   1.583045e+06   9.467257e+05
   5.021353e+04   1.352439e+06
  -1.447616e+06   1.116082e+06
  -1.749481e+06   3.416380e+05
  -8.484075e+05  -3.902350e+05
   2.068377e+05  -5.217163e+05
   4.783256e+05  -7.577191e+04
   1.872960e+04   3.552105e+05
  -4.483031e+05   2.373501e+05
  -4.605984e+05  -3.246252e+05
  -1.936026e+05  -7.031784e+05
  -4.395532e+04  -4.572228e+05
  -1.450043e+05   1.324176e+05
  -3.194660e+05   3.288191e+05
  -2.818711e+05  -2.165285e+05
   1.556514e+05  -9.715203e+05
   8.515127e+05  -1.033287e+06
   1.242021e+06  -1.610273e+05
   7.692978e+05   8.646183e+05
  -3.777848e+05   1.054858e+06
  -1.165110e+06   2.948611e+05
  -7.058008e+05  -5.620835e+05
   6.591390e+05  -6.512744e+05
   1.571205e+06   4.520790e+04
   1.063824e+06   8.223011e+05
  -4.099294e+05   1.021814e+06
  -1.476895e+06   5.598002e+05
  -1.256855e+06  -1.373105e+05
  -1.632283e+05  -5.157517e+05
   6.252411e+05  -2.973595e+05
   3.622420e+05   2.599448e+05
  -5.814405e+05   4.833992e+05
  -1.136534e+06  -1.023900e+05
  -6.143898e+05  -1.149349e+06
   6.039842e+05  -1.629715e+06
   1.450789e+06  -8.377487e+05
   1.223683e+06   7.410811e+05
   2.081877e+05   1.752197e+06
  -7.129378e+05   1.296413e+06
  -9.197573e+05  -1.314010e+05
  -4.683085e+05  -1.159275e+06
   1.659611e+05  -9.799997e+05
   5.382052e+05  -1.089849e+05
   4.877265e+05   3.763434e+05
   1.922685e+05   1.501356e+05
   3.571800e+04  -1.067001e+05
   2.332585e+05   2.514080e+05
   4.922328e+05   9.225146e+05
   2.369311e+05   1.065699e+06
  -6.481657e+05   4.106495e+05
  -1.450136e+06  -4.392271e+05
  -1.295371e+06  -8.095487e+05
  -1.947709e+05  -6.722038e+05
   8.582257e+05  -4.078641e+05
   9.723136e+05  -1.985149e+05
   3.300702e+05   2.264713e+04
  -1.507987e+05   2.155064e+05
  -9.442919e+01   2.271612e+05
   2.930088e+05   1.189762e+05
   3.528377e+04   1.280251e+05
  -6.793539e+05   2.128810e+05
  -1.011746e+06  -1.035649e+04
  -3.749943e+05  -6.499119e+05
   8.369115e+05  -1.124340e+06
   1.614781e+06  -7.328154e+05
   1.327414e+06   4.147817e+05
   2.665119e+05   1.368444e+06
  -7.194753e+05   1.337062e+06
  -1.008935e+06   5.106146e+05
  -6.404977e+05  -2.402940e+05
  -1.188692e+05  -3.429277e+05
   9.303663e+04  -3.699219e+04
  -7.346542e+04   4.377843e+04
  -3.152149e+05  -3.483025e+05
  -2.630427e+05  -7.873369e+05
   1.722373e+05  -6.537179e+05
   6.648035e+05   1.345691e+05
   7.038926e+05   9.342510e+05
   8.906802e+04   9.889777e+05
  -7.406938e+05   2.137057e+05
  -9.967055e+05  -7.148139e+05
  -3.310382e+05  -1.048505e+06
   6.847471e+05  -6.426040e+05
   1.070922e+06   6.489293e+04
   5.118951e+05   5.638502e+05
  -2.618025e+05   6.353435e+05
  -3.379033e+05   3.622821e+05
   2.651637e+05   2.430282e+04
   6.372412e+05  -3.901936e+04
   1.380170e+05   2.899831e+05
  -7.964316e+05   6.731407e+05
  -1.201234e+06   5.662631e+05
  -7.221740e+05  -1.351477e+05
   8.340785e+04  -8.350005e+05
   5.007087e+05  -8.343105e+05
   3.798028e+05  -1.503544e+05
   4.038267e+04   4.723055e+05
  -2.285499e+05   4.102102e+05
  -3.387732e+05  -1.630384e+05
  -2.496578e+05  -5.582944e+05
   4.649287e+04  -3.926513e+05
   3.766472e+05   4.893944e+04
   4.621617e+05   2.486290e+05
   2.408952e+05   7.623427e+04
  -2.861838e+04  -1.237030e+05
  -9.166755e+04  -2.995478e+03
  -2.118385e+04   3.490595e+05
  -8.056249e+04   4.962790e+05
  -3.096962e+05   1.693804e+05
  -4.108956e+05  -3.818250e+05
  -1.178456e+05  -6.193029e+05
   4.014932e+05  -2.956608e+05
   6.292241e+05   2.745203e+05
   2.389759e+05   5.602166e+05
  -4.811814e+05   3.599732e+05
  -8.422578e+05  -6.918712e+04
  -4.631968e+05  -3.600137e+05
   2.756818e+05  -3.755441e+05
   6.060782e+05  -2.102801e+05
   2.244628e+05  -2.260168e+04
  -3.547975e+05   4.484974e+04
  -3.988915e+05  -8.512709e+04
   1.846714e+05  -2.938001e+05
   7.519350e+05  -2.616188e+05
