
 $NMID
 id='ANONYMOUS ', fmtdat='(2E16.6)'
 volume=1.0
 tramp=1.0
 $END
   4.750910e+07   1.119905e+04
   2.935927e+07   2.806142e+07
  -4.980975e+06   3.186806e+07
  -2.287759e+07   1.396143e+07
  -1.475210e+07  -4.373946e+06
   2.014015e+06  -8.094470e+06
   8.681423e+06  -3.625124e+04
   3.373893e+06   8.218596e+06
  -4.720995e+06   9.020974e+06
  -8.390242e+06   2.532681e+06
  -6.264562e+06  -5.463474e+06
  -6.975047e+05  -7.834298e+06
   3.623856e+06  -2.246640e+06
   2.456452e+06   5.385188e+06
  -3.180885e+06   6.412054e+06
  -6.968078e+06  -7.317644e+05
  -4.192658e+06  -8.816041e+06
   3.013826e+06  -1.038048e+07
   8.664198e+06  -5.116691e+06
   9.137600e+06   1.945346e+06
   5.244565e+06   6.364117e+06
   3.631882e+05   6.855227e+06
  -1.952588e+06   4.687193e+06
  -5.511436e+05   2.643273e+06
   1.538588e+06   2.919291e+06
  -1.769228e+05   4.450076e+06
  -5.633788e+06   3.794953e+06
  -9.099284e+06  -1.322555e+05
  -6.134277e+06  -4.046374e+06
   4.001796e+05  -4.420997e+06
   3.923855e+06  -1.787612e+06
   2.145540e+06   7.289246e+05
  -1.449540e+06   1.336088e+06
  -3.035390e+06   1.690781e+05
  -2.109839e+06  -2.127144e+06
  -3.186480e+04  -4.044237e+06
   1.889618e+06  -3.179611e+06
   2.369543e+06   5.546369e+05
   9.162400e+05   3.095379e+06
  -6.530106e+05   1.011369e+06
   1.297890e+05  -2.806735e+06
   2.430337e+06  -2.328468e+06
   2.342608e+06   2.669669e+06
  -1.592403e+06   5.341981e+06
  -5.411227e+06   1.116311e+06
  -4.293637e+06  -5.630400e+06
   1.352366e+06  -7.175158e+06
   6.352702e+06  -2.103289e+06
   6.464958e+06   3.931085e+06
   2.039862e+06   5.592789e+06
  -3.155911e+06   2.791457e+06
  -5.169100e+06  -1.132523e+06
  -2.639744e+06  -3.127218e+06
   1.929491e+06  -2.126652e+06
   4.056466e+06   6.128330e+05
   1.897817e+06   2.290664e+06
  -1.452456e+06   1.242260e+06
  -1.760993e+06  -9.018996e+05
   8.634153e+05  -1.125169e+06
   2.304351e+06   9.584649e+05
   1.036459e+05   2.660826e+06
  -3.469479e+06   1.864580e+06
  -4.599206e+06  -7.273676e+05
  -2.228196e+06  -3.279964e+06
   1.752599e+06  -4.733054e+06
   4.938811e+06  -4.317050e+06
   5.790717e+06  -1.330935e+06
   3.935451e+06   3.102747e+06
   6.669126e+05   5.735026e+06
  -1.556395e+06   4.568498e+06
  -1.468356e+06   1.577800e+06
  -4.593083e+05   2.374358e+05
  -6.610276e+05   1.024787e+06
  -2.089689e+06   1.340800e+06
  -2.840751e+06  -3.517158e+05
  -1.743631e+06  -2.377824e+06
   3.748931e+05  -2.316473e+06
   1.889326e+06  -5.755162e+04
   1.744441e+06   2.367828e+06
  -1.719716e+05   3.002651e+06
  -2.803790e+06   1.382153e+06
  -4.102526e+06  -1.423313e+06
  -2.729635e+06  -3.540571e+06
   1.530075e+05  -3.673136e+06
   1.956224e+06  -2.298825e+06
   1.854713e+06  -1.079982e+06
   1.660266e+06  -8.176915e+05
   2.905274e+06  -5.991032e+05
   4.334262e+06   7.012395e+05
   3.490064e+06   2.766511e+06
   1.010367e+05   4.181077e+06
  -3.361628e+06   3.893876e+06
  -4.354902e+06   1.939951e+06
  -2.623656e+06  -6.687507e+05
  -1.517448e+04  -2.318115e+06
   1.308342e+06  -1.831278e+06
   5.421340e+05   1.175329e+05
  -1.187990e+06   1.270468e+06
  -1.890701e+06   3.524441e+05
  -8.196833e+05  -1.194280e+06
   6.154746e+05  -1.125391e+06
   5.606903e+05   3.937272e+05
  -9.161868e+05   9.159973e+05
  -1.913330e+06  -8.742455e+05
  -1.039723e+06  -3.279509e+06
   1.146802e+06  -3.703121e+06
   3.069920e+06  -1.625935e+06
   3.628327e+06   1.231603e+06
   2.594300e+06   2.948131e+06
   5.016896e+05   2.843934e+06
  -1.357384e+06   1.491201e+06
  -1.656695e+06   1.555214e+05
  -5.047904e+05  -5.627374e+04
   3.603003e+05   7.717896e+05
  -3.903167e+05   1.319285e+06
  -1.863231e+06   5.659618e+05
  -2.031349e+06  -8.466984e+05
  -4.265958e+05  -1.392083e+06
   1.187646e+06  -5.982516e+05
   9.793360e+05   4.783367e+05
  -8.380869e+05   6.489393e+05
  -2.352166e+06  -2.220865e+05
  -1.957540e+06  -1.436710e+06
   2.041385e+05  -2.156331e+06
   2.426459e+06  -1.759453e+06
   2.875929e+06  -2.647829e+05
   1.223753e+06   1.272268e+06
  -9.251612e+05   1.457221e+06
  -1.515957e+06   1.610088e+05
  -1.484774e+05  -1.060152e+06
   1.547843e+06  -7.165310e+05
   1.762957e+06   7.895292e+05
   3.973909e+05   1.700754e+06
  -1.081570e+06   1.070347e+06
  -1.320003e+06  -2.483794e+05
  -3.136659e+05  -7.830061e+05
   7.742700e+05  -6.390804e+04
   7.203546e+05   1.077488e+06
  -6.330584e+05   1.435487e+06
  -2.073835e+06   4.949158e+05
  -2.055700e+06  -1.124177e+06
  -3.603227e+05  -2.123369e+06
   1.476018e+06  -1.665557e+06
   1.767582e+06  -2.195321e+05
   5.355686e+05   8.874693e+05
  -6.745909e+05   8.374971e+05
  -6.955512e+05   5.934182e+04
   9.945869e+04  -4.511322e+05
   5.807187e+05  -2.805210e+05
   2.500085e+05   1.053517e+05
  -4.064331e+05   3.173073e+04
  -5.701242e+05  -6.138520e+05
   1.655201e+05  -1.208514e+06
   1.413328e+06  -9.187766e+05
   2.133968e+06   4.466209e+05
   1.470716e+06   2.016330e+06
  -2.663880e+05   2.504688e+06
  -1.703210e+06   1.484808e+06
  -1.802274e+06  -1.190831e+05
  -9.513784e+05  -1.002425e+06
  -3.286914e+05  -8.146165e+05
  -4.076867e+05  -3.091182e+05
  -5.592545e+05  -2.917984e+05
  -7.525011e+04  -7.312471e+05
   8.911630e+05  -9.318861e+05
   1.518641e+06  -3.546939e+05
   1.130162e+06   7.837963e+05
  -2.486668e+05   1.575176e+06
  -1.805207e+06   1.127197e+06
  -2.338894e+06  -5.237435e+05
  -1.177028e+06  -2.172961e+06
   1.013510e+06  -2.423088e+06
   2.592482e+06  -1.073282e+06
   2.452289e+06   6.511129e+05
   1.061668e+06   1.403200e+06
  -1.843145e+05   1.061099e+06
  -4.777740e+05   5.898948e+05
  -2.003484e+05   7.525261e+05
  -1.740370e+05   1.271634e+06
  -6.879728e+05   1.267878e+06
  -1.301900e+06   2.938922e+05
  -1.342924e+06  -1.140998e+06
  -5.319582e+05  -1.965249e+06
   6.753991e+05  -1.469525e+06
   1.333658e+06   1.120430e+04
   8.380656e+05   1.306812e+06
  -3.736759e+05   1.432764e+06
  -1.152100e+06   4.667854e+05
  -8.277220e+05  -6.368151e+05
   7.351193e+04  -1.060929e+06
   4.848324e+05  -8.179461e+05
   6.508532e+04  -4.646571e+05
  -4.233325e+05  -3.697713e+05
  -4.426742e+04  -4.024111e+05
   1.159878e+06  -2.111546e+05
   2.082273e+06   3.555036e+05
   1.651709e+06   1.067312e+06
  -8.477853e+03   1.445710e+06
  -1.595652e+06   1.138554e+06
  -1.875274e+06   2.945413e+05
  -8.775551e+05  -4.584990e+05
   2.481766e+05  -5.538234e+05
   5.132118e+05  -5.566496e+04
   8.872554e+03   3.921179e+05
  -4.809479e+05   2.443015e+05
  -4.824990e+05  -3.612051e+05
  -1.985567e+05  -7.576406e+05
  -4.489521e+04  -4.933258e+05
  -1.529540e+05   1.280095e+05
  -3.354293e+05   3.333659e+05
  -2.899321e+05  -2.400850e+05
   1.884959e+05  -1.028266e+06
   9.420084e+05  -1.075199e+06
   1.347551e+06  -1.329697e+05
   8.072805e+05   9.523553e+05
  -4.419902e+05   1.123717e+06
  -1.265311e+06   2.852880e+05
  -7.378660e+05  -6.178843e+05
   7.249357e+05  -6.680676e+05
   1.662058e+06   1.032315e+05
   1.086878e+06   9.047806e+05
  -4.769967e+05   1.057467e+06
  -1.577673e+06   5.315102e+05
  -1.316750e+06  -1.905759e+05
  -1.518367e+05  -5.477602e+05
   6.735839e+05  -2.893510e+05
   3.796092e+05   2.945129e+05
  -6.312210e+05   5.057017e+05
  -1.212939e+06  -1.354941e+05
  -6.327037e+05  -1.243701e+06
   6.821422e+05  -1.728363e+06
   1.568200e+06  -8.592484e+05
   1.282883e+06   8.219981e+05
   1.708699e+05   1.869122e+06
  -7.950516e+05   1.350540e+06
  -9.680422e+05  -1.754375e+05
  -4.529850e+05  -1.244807e+06
   2.150197e+05  -1.025663e+06
   5.769927e+05  -9.283817e+04
   4.999456e+05   4.095835e+05
   1.922269e+05   1.583355e+05
   4.339627e+04  -1.078934e+05
   2.504069e+05   2.872412e+05
   4.988510e+05   1.001692e+06
   2.092131e+05   1.133628e+06
  -7.138244e+05   4.087448e+05
  -1.527557e+06  -5.106000e+05
  -1.342773e+06  -8.960180e+05
  -1.841911e+05  -7.227530e+05
   9.170345e+05  -4.131725e+05
   1.035457e+06  -1.795910e+05
   3.555561e+05   4.340930e+04
  -1.639127e+05   2.274444e+05
  -1.517167e+04   2.311177e+05
   2.997397e+05   1.237334e+05
   3.851288e+04   1.388083e+05
  -7.194098e+05   2.166128e+05
  -1.080121e+06  -3.845218e+04
  -3.959390e+05  -7.133266e+05
   9.170550e+05  -1.184671e+06
   1.753350e+06  -7.372161e+05
   1.418868e+06   4.814082e+05
   2.488649e+05   1.465529e+06
  -8.108132e+05   1.405111e+06
  -1.093728e+06   5.217175e+05
  -6.765089e+05  -2.676587e+05
  -1.213261e+05  -3.713477e+05
   9.353366e+04  -4.817330e+04
  -7.951883e+04   3.491886e+04
  -3.184234e+05  -3.812077e+05
  -2.522574e+05  -8.442275e+05
   2.015558e+05  -6.948169e+05
   7.056664e+05   1.541146e+05
   7.328500e+05   1.011560e+06
   7.782369e+04   1.063373e+06
  -7.937467e+05   2.200283e+05
  -1.049482e+06  -7.823172e+05
  -3.291538e+05  -1.130813e+06
   7.503649e+05  -6.737522e+05
   1.146096e+06   9.971245e+04
   5.316674e+05   6.261334e+05
  -3.029584e+05   6.789107e+05
  -3.806695e+05   3.742092e+05
   2.738013e+05   2.505252e+04
   6.782685e+05  -2.590151e+04
   1.411399e+05   3.165521e+05
  -8.674941e+05   6.926298e+05
  -1.301248e+06   5.568208e+05
  -7.716826e+05  -1.775298e+05
   1.141238e+05  -8.916446e+05
   5.683628e+05  -8.743405e+05
   4.223795e+05  -1.516517e+05
   3.657656e+04   5.028569e+05
  -2.560963e+05   4.367937e+05
  -3.599429e+05  -1.744035e+05
  -2.514998e+05  -6.024620e+05
   6.233881e+04  -4.263696e+05
   4.022136e+05   5.926719e+04
   4.854895e+05   2.859885e+05
   2.519480e+05   9.381387e+04
  -2.810845e+04  -1.417977e+05
  -9.084594e+04  -2.041113e+04
  -1.744616e+04   3.715186e+05
  -8.713490e+04   5.447993e+05
  -3.370202e+05   1.906845e+05
  -4.439662e+05  -4.136735e+05
  -1.244780e+05  -6.695484e+05
   4.339010e+05  -3.102597e+05
   6.716488e+05   3.074290e+05
   2.450536e+05   6.024683e+05
  -5.264810e+05   3.699609e+05
  -9.030129e+05  -9.626434e+04
  -4.862144e+05  -3.979804e+05
   3.077514e+05  -3.991922e+05
   6.583637e+05  -2.140271e+05
   2.476826e+05  -1.578987e+04
  -3.729431e+05   4.971816e+04
  -4.236294e+05  -9.008614e+04
   1.941708e+05  -3.056929e+05
   7.956944e+05  -2.641814e+05
