
 $NMID
 id='ANONYMOUS ', fmtdat='(2E16.6)'
 volume=1.0
 tramp=1.0
 $END
   2.417212e+07  -1.138056e+06
   1.668537e+07   1.057639e+07
   7.060398e+05   1.530536e+07
  -9.951597e+06   1.069918e+07
  -8.748343e+06   1.472167e+06
  -7.809552e+05  -4.357077e+06
   4.823520e+06  -2.494468e+06
   3.961016e+06   3.696090e+06
  -7.659047e+05   6.805407e+06
  -4.410521e+06   3.266068e+06
  -4.135077e+06  -2.975988e+06
  -7.603111e+05  -5.133712e+06
   2.345277e+06  -1.190303e+06
   2.151429e+06   4.185304e+06
  -1.147711e+06   5.111736e+06
  -4.068758e+06   6.983756e+05
  -3.296117e+06  -4.636161e+06
   7.916371e+05  -6.131115e+06
   4.522687e+06  -3.107710e+06
   4.806777e+06   1.211155e+06
   2.144341e+06   3.344995e+06
  -2.683660e+05   2.686883e+06
  -4.886692e+04   1.408440e+06
   1.917583e+06   1.712336e+06
   2.448837e+06   3.401404e+06
  -4.233846e+05   4.249575e+06
  -4.881401e+06   2.629447e+06
  -6.724141e+06  -6.044704e+05
  -3.809014e+06  -2.976637e+06
   1.263045e+06  -2.798644e+06
   3.665240e+06  -5.402073e+05
   1.502168e+06   1.768723e+06
  -2.364647e+06   2.132359e+06
  -3.828433e+06   7.041701e+04
  -1.954139e+06  -2.766865e+06
   7.398781e+05  -3.700918e+06
   1.658747e+06  -1.646537e+06
   6.850595e+05   1.294563e+06
  -4.968268e+05   1.810777e+06
  -5.300569e+05  -6.789934e+05
   5.644947e+05  -3.030907e+06
   1.744216e+06  -2.123263e+06
   1.793522e+06   1.160597e+06
   2.743977e+05   2.926581e+06
  -1.747388e+06   1.046241e+06
  -2.198101e+06  -2.353973e+06
   7.159188e+03  -3.552690e+06
   3.330748e+06  -1.379556e+06
   4.629245e+06   1.973248e+06
   2.302086e+06   3.609998e+06
  -1.796468e+06   2.567936e+06
  -4.038779e+06   1.189025e+05
  -2.648152e+06  -1.682000e+06
   6.246957e+05  -1.634798e+06
   2.491916e+06  -1.973410e+05
   1.517449e+06   1.029946e+06
  -6.879617e+05   8.448987e+05
  -1.508001e+06  -3.826725e+05
  -2.070836e+05  -1.193597e+06
   1.430435e+06  -6.634842e+05
   1.249785e+06   6.587617e+05
  -7.789889e+05   1.382555e+06
  -2.454767e+06   5.935554e+05
  -1.715125e+06  -1.373412e+06
   1.132031e+06  -3.095923e+06
   3.725117e+06  -3.010715e+06
   4.069031e+06  -7.295855e+05
   2.362655e+06   2.322794e+06
   4.022634e+05   3.980164e+06
  -4.663611e+05   3.414258e+06
  -4.773005e+05   1.891786e+06
  -6.911575e+05   1.118760e+06
  -1.575619e+06   1.165494e+06
  -2.525198e+06   6.616929e+05
  -2.555814e+06  -1.028784e+06
  -1.266259e+06  -2.616439e+06
   7.332242e+05  -2.312745e+06
   2.127165e+06  -5.409218e+04
   1.796923e+06   2.241057e+06
  -1.740688e+05   2.609777e+06
  -2.308976e+06   8.989241e+05
  -2.895883e+06  -1.332832e+06
  -1.604471e+06  -2.447444e+06
   2.037193e+05  -2.105684e+06
   1.005735e+06  -1.218529e+06
   8.071408e+05  -8.020808e+05
   9.452856e+05  -9.589344e+05
   2.192366e+06  -9.011671e+05
   3.499614e+06   1.236269e+05
   3.033357e+06   1.945992e+06
   3.839499e+05   3.449773e+06
  -2.649100e+06   3.431528e+06
  -3.703494e+06   1.655973e+06
  -2.184529e+06  -7.565631e+05
   2.155713e+05  -2.082336e+06
   1.290789e+06  -1.466707e+06
   4.383634e+05   1.961856e+05
  -1.030609e+06   1.080635e+06
  -1.475946e+06   3.517695e+05
  -5.773958e+05  -9.070743e+05
   5.670145e+05  -1.005368e+06
   7.112332e+05   2.306858e+05
  -3.285053e+05   1.132961e+06
  -1.562666e+06   1.818603e+05
  -1.701551e+06  -2.058926e+06
  -2.354799e+05  -3.411791e+06
   2.037016e+06  -2.404228e+06
   3.479655e+06   2.236157e+05
   2.923191e+06   2.365183e+06
   7.919702e+05   2.617059e+06
  -1.155175e+06   1.383135e+06
  -1.469661e+06   1.566735e+05
  -4.308019e+05  -1.929785e+04
   3.612151e+05   6.167887e+05
  -1.663120e+05   1.034304e+06
  -1.359209e+06   5.667555e+05
  -1.666417e+06  -4.322171e+05
  -5.221580e+05  -1.013301e+06
   9.086143e+05  -6.311752e+05
   9.878679e+05   3.021016e+05
  -5.388298e+05   8.094983e+05
  -2.149990e+06   2.585777e+05
  -2.080280e+06  -1.040559e+06
  -1.648947e+05  -2.040971e+06
   1.949387e+06  -1.825660e+06
   2.442321e+06  -4.675235e+05
   1.088482e+06   9.171935e+05
  -6.391901e+05   1.151942e+06
  -1.118454e+06   1.848770e+05
  -1.041606e+05  -8.089520e+05
   1.226957e+06  -6.698580e+05
   1.542754e+06   4.738955e+05
   5.847326e+05   1.376872e+06
  -7.102484e+05   1.106163e+06
  -1.156650e+06   5.759519e+04
  -4.436649e+05  -5.692094e+05
   5.565883e+05  -1.279434e+05
   6.353837e+05   8.341894e+05
  -4.785585e+05   1.221206e+06
  -1.728535e+06   4.956632e+05
  -1.773566e+06  -8.448875e+05
  -4.331228e+05  -1.739857e+06
   1.082312e+06  -1.488719e+06
   1.447955e+06  -3.523036e+05
   5.676230e+05   6.780309e+05
  -4.767665e+05   7.883027e+05
  -6.676188e+05   9.820099e+04
  -3.389829e+04  -5.255625e+05
   5.705488e+05  -4.397742e+05
   4.596535e+05   8.585005e+04
  -1.949482e+05   2.453249e+05
  -5.733664e+05  -3.049969e+05
  -5.583745e+04  -9.861502e+05
   1.082162e+06  -8.939906e+05
   1.823113e+06   2.151508e+05
   1.359595e+06   1.597259e+06
  -6.577432e+04   2.167833e+06
  -1.356596e+06   1.479140e+06
  -1.638554e+06   1.110499e+05
  -1.048691e+06  -8.770528e+05
  -4.075344e+05  -9.192869e+05
  -2.466871e+05  -4.060874e+05
  -3.252716e+05  -1.671786e+05
  -7.544913e+04  -5.097736e+05
   6.394541e+05  -8.679365e+05
   1.283600e+06  -4.868122e+05
   1.126895e+06   6.080123e+05
  -1.813286e+04   1.475730e+06
  -1.460562e+06   1.170107e+06
  -2.068167e+06  -2.589907e+05
  -1.216610e+06  -1.730207e+06
   5.776986e+05  -2.098187e+06
   2.025518e+06  -1.159085e+06
   2.172346e+06   2.517552e+05
   1.179675e+06   1.097199e+06
   3.007549e+04   1.062688e+06
  -4.661481e+05   6.899829e+05
  -3.306879e+05   6.527026e+05
  -1.818817e+05   9.721063e+05
  -4.777082e+05   1.019365e+06
  -1.023329e+06   2.932528e+05
  -1.181300e+06  -9.007387e+05
  -5.581903e+05  -1.645340e+06
   5.006103e+05  -1.292484e+06
   1.144374e+06  -1.034030e+05
   8.253583e+05   9.906419e+05
  -1.269808e+05   1.219868e+06
  -8.203060e+05   5.776152e+05
  -7.107420e+05  -3.056678e+05
  -1.219289e+05  -7.898573e+05
   1.965356e+05  -7.317148e+05
  -4.572758e+04  -4.579789e+05
  -3.543862e+05  -3.266815e+05
  -4.305433e+04  -3.550679e+05
   9.123704e+05  -2.665040e+05
   1.705841e+06   1.459281e+05
   1.461497e+06   7.463891e+05
   1.761986e+05   1.141932e+06
  -1.168403e+06   1.021133e+06
  -1.524437e+06   4.367040e+05
  -7.985832e+05  -1.972500e+05
   1.291490e+05  -4.178333e+05
   3.909397e+05  -1.300762e+05
  -1.840106e+04   2.560303e+05
  -4.405396e+05   2.153968e+05
  -4.152442e+05  -2.834244e+05
  -1.159819e+05  -6.702875e+05
   2.553497e+04  -4.324367e+05
  -1.271215e+05   1.869472e+05
  -3.323792e+05   3.956291e+05
  -2.772390e+05  -1.723640e+05
   1.450067e+05  -9.221910e+05
   7.316957e+05  -9.496998e+05
   1.024957e+06  -1.160317e+05
   6.252693e+05   7.760436e+05
  -3.182096e+05   8.873550e+05
  -1.000339e+06   2.134220e+05
  -6.508689e+05  -5.167258e+05
   5.494851e+05  -6.298448e+05
   1.461370e+06  -7.270003e+04
   1.112252e+06   6.660244e+05
  -2.361426e+05   1.004765e+06
  -1.327250e+06   6.940999e+05
  -1.219629e+06   1.123824e+03
  -2.177518e+05  -4.775103e+05
   5.406326e+05  -3.360050e+05
   3.063754e+05   1.991041e+05
  -5.605772e+05   4.233576e+05
  -1.039958e+06  -1.225487e+05
  -5.218538e+05  -1.073825e+06
   5.993158e+05  -1.485786e+06
   1.352980e+06  -7.565119e+05
   1.142433e+06   6.738292e+05
   2.371177e+05   1.620024e+06
  -6.049197e+05   1.259147e+06
  -8.555007e+05  -3.056957e+04
  -5.269483e+05  -1.029815e+06
   3.620150e+04  -9.358827e+05
   4.617436e+05  -1.475458e+05
   5.174669e+05   3.328372e+05
   2.460481e+05   1.414917e+05
   2.861595e+03  -1.149804e+05
   1.280287e+05   1.934063e+05
   4.468428e+05   8.166435e+05
   3.300797e+05   9.732294e+05
  -4.937156e+05   3.999154e+05
  -1.358774e+06  -3.557201e+05
  -1.286429e+06  -6.897957e+05
  -2.070955e+05  -5.940600e+05
   8.374344e+05  -4.035692e+05
   9.056520e+05  -2.405535e+05
   2.458980e+05  -1.893939e+04
  -1.571053e+05   1.996801e+05
   8.488757e+04   2.342510e+05
   3.560063e+05   1.306259e+05
   6.328293e+03   1.252003e+05
  -7.047257e+05   1.959764e+05
  -9.208258e+05  -8.619481e+03
  -2.434277e+05  -5.901597e+05
   8.204057e+05  -1.014710e+06
   1.417477e+06  -6.445350e+05
   1.135679e+06   4.077644e+05
   2.469543e+05   1.265343e+06
  -6.109120e+05   1.211642e+06
  -9.181567e+05   4.373650e+05
  -6.094915e+05  -2.467881e+05
  -8.305243e+04  -3.146712e+05
   1.580027e+05  -4.211508e+02
  -3.325963e+04   9.027291e+04
  -3.290158e+05  -2.825935e+05
  -2.900567e+05  -7.094899e+05
   1.612117e+05  -5.883590e+05
   6.345765e+05   1.581904e+05
   6.264741e+05   8.985096e+05
   1.671597e+04   9.085239e+05
  -7.306906e+05   1.451472e+05
  -9.127505e+05  -7.064057e+05
  -2.737491e+05  -9.572022e+05
   6.351977e+05  -5.482687e+05
   9.481585e+05   6.603952e+04
   4.293679e+05   4.621192e+05
  -2.324833e+05   5.184117e+05
  -2.438540e+05   3.130443e+05
   3.138459e+05   3.310100e+04
   6.017763e+05  -3.952441e+04
   1.065553e+05   2.534640e+05
  -7.147186e+05   6.410096e+05
  -1.023814e+06   5.833064e+05
  -5.889615e+05  -6.762746e+04
   7.075729e+04  -7.403899e+05
   3.884634e+05  -7.366949e+05
   2.856735e+05  -8.575270e+04
   1.419818e+04   4.648341e+05
  -2.202900e+05   3.451242e+05
  -3.260720e+05  -2.024592e+05
  -2.291192e+05  -5.105763e+05
   6.058319e+04  -3.079176e+05
   3.472521e+05   6.516160e+04
   3.998596e+05   1.809712e+05
   2.153529e+05   2.817257e+04
   9.405056e+03  -7.024782e+04
  -6.770731e+04   9.644528e+04
  -9.118350e+04   3.719208e+05
  -1.949325e+05   4.081102e+05
  -3.363481e+05   5.584005e+04
  -3.133417e+05  -4.277283e+05
  -1.175326e+04  -5.916503e+05
   3.985802e+05  -2.516866e+05
   5.460320e+05   2.884769e+05
   1.999673e+05   5.386142e+05
  -4.181371e+05   3.249915e+05
  -7.403362e+05  -8.365105e+04
  -4.116531e+05  -3.270087e+05
   2.540227e+05  -3.023795e+05
   5.443632e+05  -1.429320e+05
   1.590591e+05  -6.546808e+03
  -3.990251e+05   7.885643e+03
  -4.038097e+05  -1.362038e+05
   2.131692e+05  -3.213169e+05
   7.753541e+05  -2.622557e+05
