
 $NMID
 id='ANONYMOUS ', fmtdat='(2E16.6)'
 volume=1.0
 tramp=1.0
 $END
  -2.930493e+07  -4.981356e+04
  -1.747082e+07  -1.859918e+07
   4.239362e+06  -1.998804e+07
   1.457846e+07  -7.190017e+06
   8.439833e+06   4.130485e+06
  -1.951717e+06   4.841020e+06
  -5.076644e+06  -9.558963e+05
  -1.162178e+06  -5.157355e+06
   3.443712e+06  -4.578955e+06
   5.009461e+06  -7.872396e+05
   3.520341e+06   3.191685e+06
   3.793278e+05   4.319821e+06
  -2.003746e+06   1.427218e+06
  -1.249213e+06  -2.632466e+06
   2.021227e+06  -3.163492e+06
   4.032725e+06   8.299438e+05
   2.170370e+06   5.286245e+06
  -2.051400e+06   6.031309e+06
  -5.231747e+06   3.021928e+06
  -5.603630e+06  -1.015589e+06
  -3.532528e+06  -3.862628e+06
  -4.471527e+05  -4.605582e+06
   1.625870e+06  -3.297120e+06
   1.264755e+06  -1.369974e+06
  -3.388909e+05  -8.663634e+05
  -1.762123e+05  -1.896440e+06
   2.527529e+06  -2.191738e+06
   4.735227e+06  -3.428634e+05
   3.576603e+06   2.009942e+06
   2.860825e+05   2.553185e+06
  -1.698393e+06   1.389557e+06
  -1.224038e+06   2.029111e+05
   9.953321e+04  -2.825678e+05
   8.737481e+05  -2.494453e+05
   1.015624e+06   5.163528e+05
   4.629730e+05   1.816077e+06
  -8.342823e+05   2.001286e+06
  -1.747322e+06   9.437312e+04
  -1.028998e+06  -1.849702e+06
   3.645114e+05  -1.164370e+06
   2.422802e+05   1.057046e+06
  -1.211717e+06   1.073864e+06
  -1.200650e+06  -1.687407e+06
   1.396965e+06  -3.175030e+06
   3.751213e+06  -4.854063e+05
   2.679373e+06   3.660127e+06
  -1.066781e+06   4.456843e+06
  -3.846008e+06   1.231133e+06
  -3.444636e+06  -2.312738e+06
  -7.969435e+05  -3.040537e+06
   1.786269e+06  -1.262755e+06
   2.556135e+06   8.877048e+05
   1.093063e+06   1.808836e+06
  -1.305422e+06   1.077866e+06
  -2.304593e+06  -5.425233e+05
  -9.477263e+05  -1.434877e+06
   8.994344e+05  -6.891903e+05
   8.267494e+05   5.461191e+05
  -7.770458e+05   4.037122e+05
  -1.267724e+06  -1.062302e+06
   4.661419e+05  -1.893473e+06
   2.537052e+06  -9.497347e+05
   2.752575e+06   8.231294e+05
   1.138556e+06   2.107296e+06
  -9.003108e+05   2.648800e+06
  -2.439991e+06   2.412384e+06
  -3.069655e+06   9.067203e+05
  -2.337722e+06  -1.536681e+06
  -4.883780e+05  -3.069518e+06
   1.011316e+06  -2.344755e+06
   9.610373e+05  -4.965147e+05
   3.363682e+04   2.681903e+05
  -1.776883e+05  -4.146243e+05
   6.361666e+05  -9.287648e+05
   1.312626e+06  -2.375320e+05
   1.002953e+06   8.181555e+05
   8.301165e+04   9.660302e+05
  -6.564699e+05   1.000348e+05
  -7.536180e+05  -9.494018e+05
  -1.239104e+04  -1.388609e+06
   1.324224e+06  -8.380503e+05
   2.223640e+06   5.354644e+05
   1.655706e+06   1.869016e+06
   5.605761e+03   2.172942e+06
  -1.180370e+06   1.416486e+06
  -1.183043e+06   5.659307e+05
  -9.471830e+05   2.871335e+05
  -1.446602e+06   1.709991e+05
  -2.104729e+06  -4.314989e+05
  -1.656519e+06  -1.379348e+06
  -2.047820e+04  -1.986443e+06
   1.557839e+06  -1.846961e+06
   1.988132e+06  -1.018187e+06
   1.276288e+06   1.651846e+05
   1.732194e+05   1.047960e+06
  -4.927365e+05   9.405093e+05
  -2.734513e+05  -3.105077e+01
   5.141219e+05  -6.280709e+05
   9.331497e+05  -1.860801e+05
   4.632837e+05   5.922753e+05
  -2.385198e+05   5.262024e+05
  -1.672548e+05  -2.032494e+05
   5.843229e+05  -2.775835e+05
   9.024364e+05   7.658568e+05
   1.791593e+05   1.788288e+06
  -9.586026e+05   1.590851e+06
  -1.597173e+06   3.658729e+05
  -1.517746e+06  -8.253500e+05
  -9.694683e+05  -1.341493e+06
  -1.578853e+05  -1.213782e+06
   5.911433e+05  -6.822889e+05
   7.442626e+05  -1.072838e+05
   2.358679e+05   2.623364e+04
  -1.635986e+05  -3.665830e+05
   2.243106e+05  -6.590014e+05
   9.525563e+05  -2.663663e+05
   9.877649e+05   4.722667e+05
   1.596755e+05   7.091251e+05
  -5.788840e+05   2.548736e+05
  -3.996952e+05  -2.353147e+05
   4.370809e+05  -2.046063e+05
   1.018650e+06   2.303204e+05
   7.631447e+05   6.800963e+05
  -1.771475e+05   9.076174e+05
  -1.124159e+06   7.372392e+05
  -1.329868e+06   9.219840e+04
  -5.776498e+05  -6.345726e+05
   4.644212e+05  -7.383789e+05
   7.791180e+05  -8.577143e+04
   1.031931e+05   5.348768e+05
  -7.423737e+05   3.459057e+05
  -8.182373e+05  -4.080224e+05
  -1.195158e+05  -8.054210e+05
   5.612703e+05  -4.347507e+05
   5.980754e+05   1.973665e+05
   8.685289e+04   3.930281e+05
  -4.009954e+05   1.486016e+04
  -3.519372e+05  -5.186585e+05
   2.836202e+05  -6.846242e+05
   9.684351e+05  -2.515511e+05
   9.747994e+05   5.196919e+05
   1.653882e+05   1.007424e+06
  -7.202719e+05   7.784077e+05
  -8.390722e+05   7.325703e+04
  -2.220139e+05  -4.309339e+05
   3.328288e+05  -3.731142e+05
   2.897258e+05  -2.945064e+04
  -7.812528e+04   1.461931e+05
  -2.202525e+05   6.307684e+04
  -1.179299e+04  -3.141140e+04
   2.435364e+05   7.784580e+04
   2.324668e+05   3.626092e+05
  -1.342269e+05   5.775242e+05
  -6.839059e+05   4.109739e+05
  -9.980608e+05  -2.251435e+05
  -6.869677e+05  -9.513347e+05
   1.286571e+05  -1.154969e+06
   7.890781e+05  -6.401873e+05
   7.905724e+05   9.727347e+04
   3.674921e+05   4.234705e+05
   1.291373e+05   2.687246e+05
   2.484330e+05   7.671401e+04
   3.300383e+05   1.642346e+05
   4.292182e+04   3.876454e+05
  -4.409969e+05   4.192248e+05
  -6.948982e+05   1.230992e+05
  -4.725551e+05  -3.550808e+05
   1.538830e+05  -6.738980e+05
   8.373231e+05  -4.774620e+05
   1.063913e+06   2.621800e+05
   5.074565e+05   1.027091e+06
  -5.332190e+05   1.130110e+06
  -1.251687e+06   4.535629e+05
  -1.112581e+06  -3.687987e+05
  -4.083083e+05  -6.583053e+05
   1.325453e+05  -4.229544e+05
   1.735924e+05  -2.092561e+05
   4.324127e+03  -3.592719e+05
   3.945854e+04  -6.486788e+05
   3.389683e+05  -6.315301e+05
   6.360829e+05  -1.481844e+05
   6.374159e+05   5.278239e+05
   2.523241e+05   9.123071e+05
  -3.082941e+05   6.831615e+05
  -6.147477e+05  -1.923931e+04
  -3.713086e+05  -6.368790e+05
   2.206975e+05  -6.704638e+05
   5.876711e+05  -1.623113e+05
   3.894676e+05   3.784717e+05
  -9.232858e+04   5.381764e+05
  -2.974120e+05   3.694090e+05
  -5.938731e+04   1.873854e+05
   2.100525e+05   1.573080e+05
   2.885490e+04   1.810976e+05
  -5.649581e+05   8.692777e+04
  -1.003470e+06  -1.839963e+05
  -7.677548e+05  -5.241000e+05
   5.005016e+04  -7.057330e+05
   7.962973e+05  -5.418043e+05
   8.917991e+05  -1.020092e+05
   3.909255e+05   2.728602e+05
  -1.398933e+05   2.844432e+05
  -2.543817e+05   1.130347e+03
  -2.120548e+04  -2.177260e+05
   2.052532e+05  -1.242500e+05
   2.315078e+05   1.671325e+05
   1.357154e+05   3.407749e+05
   6.146564e+04   2.271577e+05
   6.591574e+04  -2.965767e+04
   1.224809e+05  -1.181852e+05
   1.263470e+05   1.167896e+05
  -6.661931e+04   4.637642e+05
  -4.411141e+05   5.080045e+05
  -6.783898e+05   8.957565e+04
  -4.264063e+05  -4.422255e+05
   2.062135e+05  -5.634236e+05
   6.185606e+05  -1.743730e+05
   3.502175e+05   2.731962e+05
  -3.484132e+05   3.010722e+05
  -7.520757e+05  -7.344663e+04
  -4.453554e+05  -4.317099e+05
   2.647342e+05  -4.532774e+05
   7.195825e+05  -1.834320e+05
   5.701490e+05   1.214778e+05
   4.728472e+04   2.432643e+05
  -3.174760e+05   1.123879e+05
  -1.899274e+05  -1.508561e+05
   2.723470e+05  -2.566077e+05
   5.675322e+05   2.896080e+04
   3.352351e+05   5.595774e+05
  -2.665114e+05   8.198853e+05
  -7.025832e+05   4.313067e+05
  -5.976197e+05  -3.608252e+05
  -8.887267e+04  -8.528270e+05
   3.634319e+05  -6.009443e+05
   4.378544e+05   1.071537e+05
   1.810865e+05   5.765928e+05
  -1.345666e+05   4.510335e+05
  -2.766296e+05   2.729131e+04
  -2.038390e+05  -1.811906e+05
  -5.887820e+04  -6.234472e+04
  -3.120092e+04   4.009912e+04
  -1.585775e+05  -1.537687e+05
  -2.474201e+05  -4.701380e+05
  -6.162568e+04  -5.142192e+05
   3.699280e+05  -1.815939e+05
   6.982892e+05   2.313619e+05
   5.853257e+05   4.096948e+05
   8.166614e+04   3.399037e+05
  -3.914865e+05   1.965387e+05
  -4.650079e+05   7.352147e+04
  -1.890458e+05  -3.797695e+04
   6.314726e+04  -1.087613e+05
   4.168151e+04  -8.781290e+04
  -1.009980e+05  -3.457425e+04
  -3.326706e+04  -6.190230e+04
   2.904878e+05  -1.186944e+05
   5.041217e+05   8.681375e+02
   2.425436e+05   3.350578e+05
  -3.814088e+05   5.761469e+05
  -8.324804e+05   3.781313e+05
  -7.062465e+05  -1.934794e+05
  -1.390077e+05  -6.694751e+05
   3.768019e+05  -6.668172e+05
   5.037366e+05  -2.737701e+05
   3.093351e+05   9.817948e+04
   7.479585e+04   1.719168e+05
  -1.063198e+04   4.593053e+04
   4.824855e+04   9.284711e+03
   1.316451e+05   1.853813e+05
   1.066227e+05   3.886370e+05
  -8.110059e+04   3.308415e+05
  -3.204891e+05  -4.087775e+04
  -3.688710e+05  -4.381254e+05
  -8.470677e+04  -4.960732e+05
   3.438846e+05  -1.435766e+05
   5.039215e+05   3.209929e+05
   1.848827e+05   5.229253e+05
  -3.364429e+05   3.445129e+05
  -5.490957e+05  -2.702276e+04
  -2.710076e+05  -3.106334e+05
   1.380058e+05  -3.492927e+05
   2.030249e+05  -1.832734e+05
  -9.451207e+04   3.841131e+03
  -3.050432e+05   2.279712e+04
  -7.899941e+04  -1.518928e+05
   3.958657e+05  -3.225130e+05
   6.251965e+05  -2.423541e+05
   3.905272e+05   1.025205e+05
  -4.305517e+04   4.265077e+05
  -2.849240e+05   4.218969e+05
  -2.273004e+05   9.668650e+04
  -3.870214e+04  -2.191368e+05
   1.089529e+05  -2.221464e+05
   1.666754e+05   4.840077e+04
   1.261852e+05   2.755488e+05
  -1.770751e+04   2.248329e+05
  -1.881277e+05  -1.101461e+04
  -2.370619e+05  -1.488812e+05
  -1.173712e+05  -5.967135e+04
   2.872019e+04   8.874840e+04
   4.186288e+04   5.653863e+04
  -3.655470e+04  -1.537580e+05
  -2.224588e+04  -2.863457e+05
   1.364607e+05  -1.456049e+05
   2.491766e+05   1.527526e+05
   1.164777e+05   3.048829e+05
  -1.830311e+05   1.626239e+05
  -3.339402e+05  -1.164641e+05
  -1.346213e+05  -2.647398e+05
   2.491627e+05  -1.804833e+05
   4.367646e+05   2.278139e+04
   2.377520e+05   1.789207e+05
  -1.389347e+05   2.101023e+05
  -3.111253e+05   1.327791e+05
  -1.379669e+05   1.413484e+04
   1.397144e+05  -5.127335e+04
   1.845935e+05   3.888051e+03
  -5.966630e+04   1.238536e+05
  -3.215383e+05   1.320933e+05
