
 $NMID
 id='ANONYMOUS ', fmtdat='(2E16.6)'
 volume=1.0
 tramp=1.0
 $END
   2.770375e+07  -5.976949e+05
   1.828292e+07   1.392184e+07
  -7.488448e+05   1.797315e+07
  -1.226901e+07   1.058074e+07
  -9.509791e+06  -4.412449e+04
  -5.276880e+04  -4.891343e+06
   5.376783e+06  -1.693678e+06
   3.495523e+06   4.500424e+06
  -1.690157e+06   6.798165e+06
  -5.027505e+06   2.812701e+06
  -4.278418e+06  -3.352472e+06
  -6.400698e+05  -5.360799e+06
   2.457183e+06  -1.314365e+06
   1.998474e+06   4.164939e+06
  -1.589858e+06   5.014580e+06
  -4.442249e+06   2.817711e+05
  -3.219258e+06  -5.280468e+06
   1.289421e+06  -6.649390e+06
   5.154779e+06  -3.308548e+06
   5.425929e+06   1.316460e+06
   2.670423e+06   3.788531e+06
  -1.093951e+05   3.428072e+06
  -4.729099e+05   2.062903e+06
   1.198577e+06   1.840988e+06
   2.010025e+06   3.079784e+06
  -3.950266e+05   3.970126e+06
  -4.716709e+06   2.631532e+06
  -6.743891e+06  -5.322687e+05
  -4.010292e+06  -3.029859e+06
   1.001578e+06  -2.923284e+06
   3.441659e+06  -7.252751e+05
   1.498210e+06   1.416492e+06
  -2.013475e+06   1.748941e+06
  -3.359406e+06   3.069734e+04
  -1.805434e+06  -2.433146e+06
   5.474978e+05  -3.482308e+06
   1.592185e+06  -1.854565e+06
   9.928866e+05   1.019855e+06
  -1.538720e+05   1.947147e+06
  -4.981269e+05  -2.492844e+05
   4.663685e+05  -2.741106e+06
   1.797786e+06  -1.992810e+06
   1.775809e+06   1.435360e+06
  -2.003729e+05   3.270114e+06
  -2.466735e+06   9.797234e+05
  -2.495273e+06  -2.944899e+06
   3.455711e+05  -4.122218e+06
   3.787483e+06  -1.412009e+06
   4.684749e+06   2.327736e+06
   2.031235e+06   3.825092e+06
  -2.003565e+06   2.406750e+06
  -3.999260e+06  -2.243899e+05
  -2.432664e+06  -1.914980e+06
   8.902578e+05  -1.615025e+06
   2.662611e+06   2.790693e+04
   1.480377e+06   1.251387e+06
  -8.179485e+05   8.612995e+05
  -1.446826e+06  -4.893436e+05
   6.938078e+04  -1.091822e+06
   1.536892e+06  -2.281071e+05
   8.928601e+05   1.086348e+06
  -1.352117e+06   1.391945e+06
  -2.776003e+06   2.283130e+05
  -1.697535e+06  -1.725358e+06
   1.218646e+06  -3.229696e+06
   3.754622e+06  -3.045401e+06
   4.164035e+06  -7.705767e+05
   2.519616e+06   2.347561e+06
   3.919184e+05   4.083844e+06
  -7.150995e+05   3.420582e+06
  -6.905510e+05   1.680607e+06
  -6.055028e+05   8.287170e+05
  -1.268494e+06   1.022255e+06
  -2.245039e+06   7.281340e+05
  -2.410904e+06  -8.333867e+05
  -1.239962e+06  -2.379486e+06
   6.291065e+05  -2.123750e+06
   1.910877e+06  -1.731639e+04
   1.616301e+06   2.125608e+06
  -1.944753e+05   2.497984e+06
  -2.255947e+06   9.117379e+05
  -2.935415e+06  -1.284196e+06
  -1.716085e+06  -2.526275e+06
   1.931913e+05  -2.302646e+06
   1.155886e+06  -1.368725e+06
   9.952521e+05  -8.040640e+05
   1.052733e+06  -8.477510e+05
   2.206798e+06  -7.387940e+05
   3.431979e+06   2.895319e+05
   2.889944e+06   2.026386e+06
   2.470966e+05   3.365468e+06
  -2.658652e+06   3.248416e+06
  -3.594840e+06   1.550084e+06
  -2.107606e+06  -7.066918e+05
   1.748241e+05  -1.974020e+06
   1.213339e+06  -1.420132e+06
   4.224182e+05   1.690362e+05
  -1.003396e+06   1.026954e+06
  -1.461781e+06   3.054212e+05
  -5.762199e+05  -9.093324e+05
   5.473882e+05  -9.453183e+05
   6.175791e+05   2.634499e+05
  -4.577593e+05   9.948013e+05
  -1.534857e+06  -9.654472e+04
  -1.401099e+06  -2.212157e+06
   1.436934e+05  -3.232913e+06
   2.158450e+06  -2.023851e+06
   3.256236e+06   4.825741e+05
   2.600184e+06   2.361404e+06
   6.318887e+05   2.484980e+06
  -1.132291e+06   1.290362e+06
  -1.403035e+06   1.267214e+05
  -4.149572e+05  -3.085758e+04
   3.249946e+05   6.111627e+05
  -2.192487e+05   1.019720e+06
  -1.379791e+06   5.061678e+05
  -1.618211e+06  -5.162990e+05
  -4.460428e+05  -1.029570e+06
   9.138119e+05  -5.612860e+05
   9.060143e+05   3.365240e+05
  -5.828200e+05   7.064628e+05
  -2.043634e+06   9.869567e+04
  -1.883915e+06  -1.084372e+06
  -3.936540e+04  -1.918955e+06
   1.938099e+06  -1.648889e+06
   2.364704e+06  -3.551158e+05
   1.026050e+06   9.422915e+05
  -6.702048e+05   1.126407e+06
  -1.126166e+06   1.519721e+05
  -9.517666e+04  -8.056206e+05
   1.217094e+06  -6.134501e+05
   1.471047e+06   5.310182e+05
   4.794595e+05   1.355275e+06
  -7.570568e+05   1.004784e+06
  -1.107415e+06  -3.330658e+04
  -3.708026e+05  -5.814268e+05
   5.687180e+05  -9.426391e+04
   5.964484e+05   8.387932e+05
  -4.960099e+05   1.174474e+06
  -1.686800e+06   4.361359e+05
  -1.695569e+06  -8.689857e+05
  -3.619624e+05  -1.703350e+06
   1.110068e+06  -1.404200e+06
   1.416095e+06  -2.776200e+05
   5.075127e+05   6.812747e+05
  -4.971537e+05   7.324180e+05
  -6.234389e+05   7.111969e+04
   1.003250e+04  -4.702996e+05
   5.391376e+05  -3.607756e+05
   3.756278e+05   9.367502e+04
  -2.357932e+05   1.776394e+05
  -5.294607e+05  -3.617200e+05
   1.088263e+04  -9.672949e+05
   1.090143e+06  -8.211183e+05
   1.757383e+06   2.753085e+05
   1.264537e+06   1.592035e+06
  -1.337927e+05   2.082565e+06
  -1.353533e+06   1.352475e+06
  -1.555160e+06   2.907586e+04
  -9.362089e+05  -8.528786e+05
  -3.463551e+05  -8.300027e+05
  -2.605591e+05  -3.545771e+05
  -3.552058e+05  -1.867055e+05
  -6.593826e+04  -5.251259e+05
   6.606086e+05  -8.125922e+05
   1.250582e+06  -4.055998e+05
   1.038127e+06   6.180237e+05
  -8.863745e+04   1.390443e+06
  -1.447570e+06   1.056062e+06
  -1.974465e+06  -3.268872e+05
  -1.095002e+06  -1.719870e+06
   6.624822e+05  -2.010610e+06
   2.020845e+06  -1.027628e+06
   2.071895e+06   3.531897e+05
   1.049500e+06   1.101646e+06
  -3.662465e+04   9.832327e+05
  -4.431484e+05   6.081736e+05
  -2.827373e+05   6.214147e+05
  -1.767299e+05   9.659624e+05
  -5.023040e+05   9.952143e+05
  -1.014801e+06   2.594555e+05
  -1.119183e+06  -9.032515e+05
  -4.898524e+05  -1.602961e+06
   5.196292e+05  -1.230091e+06
   1.103866e+06  -5.422038e+04
   7.543899e+05   1.000860e+06
  -1.902287e+05   1.177145e+06
  -8.446321e+05   4.986744e+05
  -6.826589e+05  -3.694296e+05
  -5.782278e+04  -7.969089e+05
   2.591706e+05  -6.956794e+05
  -1.005439e+04  -4.255531e+05
  -3.405391e+05  -3.157666e+05
  -3.651694e+04  -3.400777e+05
   9.056847e+05  -2.236724e+05
   1.665597e+06   2.036616e+05
   1.387947e+06   7.835035e+05
   1.055080e+05   1.130803e+06
  -1.193576e+06   9.588224e+05
  -1.497649e+06   3.519815e+05
  -7.551614e+05  -2.542957e+05
   1.519950e+05  -4.176447e+05
   3.924985e+05  -9.845538e+04
  -1.193027e+04   2.686242e+05
  -4.182023e+05   2.011607e+05
  -3.966755e+05  -2.844258e+05
  -1.196870e+05  -6.404813e+05
   1.155325e+04  -4.128860e+05
  -1.263038e+05   1.576103e+05
  -3.137763e+05   3.465739e+05
  -2.585844e+05  -1.794015e+05
   1.547603e+05  -8.766968e+05
   7.379974e+05  -9.000987e+05
   1.026247e+06  -1.005058e+05
   6.128902e+05   7.658634e+05
  -3.331399e+05   8.732578e+05
  -9.895483e+05   2.039610e+05
  -6.162673e+05  -5.086299e+05
   5.567088e+05  -5.852044e+05
   1.399444e+06  -8.559683e+03
   1.014539e+06   6.860214e+05
  -2.875778e+05   9.393067e+05
  -1.295275e+06   5.873091e+05
  -1.150858e+06  -5.952662e+04
  -1.797075e+05  -4.609070e+05
   5.356471e+05  -2.928369e+05
   2.983577e+05   2.104391e+05
  -5.396394e+05   4.040839e+05
  -1.000364e+06  -1.283402e+05
  -4.961515e+05  -1.038037e+06
   5.898458e+05  -1.423032e+06
   1.309160e+06  -7.079326e+05
   1.081072e+06   6.705229e+05
   1.848975e+05   1.558666e+06
  -6.189951e+05   1.178263e+06
  -8.175846e+05  -7.292410e+04
  -4.573323e+05  -1.009697e+06
   8.788716e+04  -8.864899e+05
   4.566278e+05  -1.179245e+05
   4.698559e+05   3.325678e+05
   2.122894e+05   1.382993e+05
   1.380671e+04  -1.044986e+05
   1.459406e+05   2.020602e+05
   4.160012e+05   8.035949e+05
   2.643501e+05   9.417218e+05
  -5.137319e+05   3.665357e+05
  -1.291460e+06  -3.812401e+05
  -1.193920e+06  -7.018590e+05
  -1.793750e+05  -5.822239e+05
   7.969589e+05  -3.652323e+05
   8.706968e+05  -1.971093e+05
   2.542308e+05  -2.035068e+02
  -1.487660e+05   1.889412e+05
   5.149310e+04   2.171011e+05
   3.135092e+05   1.239241e+05
   1.211185e+04   1.190752e+05
  -6.564821e+05   1.773767e+05
  -8.886305e+05  -2.558772e+04
  -2.551293e+05  -5.765055e+05
   7.918677e+05  -9.681240e+05
   1.396744e+06  -6.021828e+05
   1.112256e+06   4.060402e+05
   2.143595e+05   1.219342e+06
  -6.258455e+05   1.159221e+06
  -8.950112e+05   4.141002e+05
  -5.760613e+05  -2.401073e+05
  -8.233308e+04  -3.051846e+05
   1.300495e+05  -9.581569e+03
  -4.342820e+04   6.987584e+04
  -2.983327e+05  -2.889576e+05
  -2.505223e+05  -6.914244e+05
   1.653518e+05  -5.669429e+05
   6.008938e+05   1.526399e+05
   5.934206e+05   8.636861e+05
   2.001107e+04   8.756075e+05
  -6.907818e+05   1.434598e+05
  -8.672676e+05  -6.805049e+05
  -2.555847e+05  -9.283925e+05
   6.199669e+05  -5.294890e+05
   9.225663e+05   7.937477e+04
   4.165697e+05   4.709998e+05
  -2.370847e+05   5.151322e+05
  -2.618913e+05   3.015762e+05
   2.794137e+05   3.248764e+04
   5.746066e+05  -2.643547e+04
   1.041524e+05   2.502810e+05
  -7.040932e+05   5.963543e+05
  -1.019386e+06   5.212298e+05
  -5.877114e+05  -9.494785e+04
   8.381418e+04  -7.192833e+05
   4.101295e+05  -7.097340e+05
   2.973957e+05  -9.265205e+04
   1.318131e+04   4.382021e+05
  -2.155385e+05   3.383697e+05
  -3.064996e+05  -1.837262e+05
  -2.112958e+05  -4.961256e+05
   5.926573e+04  -3.121666e+05
   3.329054e+05   6.259226e+04
   3.882296e+05   1.967605e+05
   2.077226e+05   4.423909e+04
  -8.393421e+00  -8.183797e+04
  -7.007784e+04   6.000254e+04
  -7.085003e+04   3.414783e+05
  -1.577777e+05   4.065859e+05
  -3.102393e+05   8.012111e+04
  -3.154903e+05  -3.941907e+05
  -3.152461e+04  -5.642409e+05
   3.790675e+05  -2.418930e+05
   5.310434e+05   2.766126e+05
   1.893690e+05   5.147520e+05
  -4.158611e+05   3.065181e+05
  -7.217736e+05  -8.820970e+04
  -3.944400e+05  -3.235244e+05
   2.504816e+05  -2.997205e+05
   5.311613e+05  -1.432239e+05
   1.681988e+05  -7.046347e+03
  -3.616658e+05   1.220381e+04
  -3.753322e+05  -1.193425e+05
   1.962098e+05  -2.898889e+05
   7.236048e+05  -2.330572e+05
