
 $NMID
 id='ANONYMOUS ', fmtdat='(2E16.6)'
 volume=1.0
 tramp=1.0
 $END
  -6.005757e+07  -2.548561e+05
  -3.552072e+07  -3.837261e+07
   9.002188e+06  -4.091792e+07
   2.989352e+07  -1.439853e+07
   1.707017e+07   8.697102e+06
  -4.131352e+06   9.839573e+06
  -1.028904e+07  -2.124847e+06
  -2.200720e+06  -1.052831e+07
   7.100624e+06  -9.171484e+06
   1.019150e+07  -1.473302e+06
   7.154979e+06   6.507682e+06
   7.813374e+05   8.769234e+06
  -4.080448e+06   2.937024e+06
  -2.551790e+06  -5.272355e+06
   4.113588e+06  -6.341199e+06
   8.191594e+06   1.764538e+06
   4.364063e+06   1.079129e+07
  -4.240320e+06   1.227583e+07
  -1.070922e+07   6.151790e+06
  -1.148571e+07  -2.077749e+06
  -7.272448e+06  -7.944193e+06
  -9.031912e+05  -9.517786e+06
   3.445837e+06  -6.785803e+06
   2.731973e+06  -2.694329e+06
  -6.554658e+05  -1.582258e+06
  -4.571326e+05  -3.769140e+06
   5.026577e+06  -4.520973e+06
   9.593678e+06  -8.086651e+05
   7.320412e+06   4.044925e+06
   6.715801e+05   5.243990e+06
  -3.391437e+06   2.936421e+06
  -2.539317e+06   5.224883e+05
   3.869465e+04  -5.456481e+05
   1.639317e+06  -5.993724e+05
   2.086424e+06   9.140921e+05
   1.057692e+06   3.643998e+06
  -1.669082e+06   4.125925e+06
  -3.657938e+06   2.351622e+05
  -2.178971e+06  -3.818882e+06
   7.840396e+05  -2.475297e+06
   5.903683e+05   2.080093e+06
  -2.416736e+06   2.155452e+06
  -2.409542e+06  -3.454558e+06
   2.938187e+06  -6.452567e+06
   7.744010e+06  -9.147593e+05
   5.465818e+06   7.547457e+06
  -2.247989e+06   9.118259e+06
  -7.872020e+06   2.498654e+06
  -6.967825e+06  -4.701064e+06
  -1.571371e+06  -6.137002e+06
   3.609849e+06  -2.515477e+06
   5.118603e+06   1.819505e+06
   2.151764e+06   3.656803e+06
  -2.684613e+06   2.156926e+06
  -4.677717e+06  -1.137030e+06
  -1.897093e+06  -2.934663e+06
   1.842755e+06  -1.395616e+06
   1.650269e+06   1.104313e+06
  -1.614861e+06   7.598802e+05
  -2.535854e+06  -2.249935e+06
   1.068476e+06  -3.883608e+06
   5.255329e+06  -1.874141e+06
   5.597581e+06   1.756047e+06
   2.278566e+06   4.321923e+06
  -1.810105e+06   5.391972e+06
  -4.896226e+06   4.932379e+06
  -6.219396e+06   1.891429e+06
  -4.794537e+06  -3.093339e+06
  -1.030039e+06  -6.222337e+06
   2.060582e+06  -4.719561e+06
   1.948432e+06  -9.306153e+05
  -2.061447e+03   6.008529e+05
  -4.731160e+05  -8.555442e+05
   1.208836e+06  -1.962449e+06
   2.651363e+06  -5.850117e+05
   2.084648e+06   1.571367e+06
   2.482662e+05   1.927006e+06
  -1.267960e+06   2.474304e+05
  -1.522819e+06  -1.844391e+06
  -6.958903e+04  -2.778982e+06
   2.651411e+06  -1.736564e+06
   4.528235e+06   1.031701e+06
   3.400861e+06   3.785536e+06
   2.312485e+04   4.444964e+06
  -2.421702e+06   2.898367e+06
  -2.426582e+06   1.134654e+06
  -1.914891e+06   5.536126e+05
  -2.895449e+06   3.349308e+05
  -4.218632e+06  -8.551224e+05
  -3.329731e+06  -2.747454e+06
  -6.629528e+04  -3.971815e+06
   3.079387e+06  -3.722786e+06
   3.953625e+06  -2.095926e+06
   2.576433e+06   2.811853e+05
   4.028447e+05   2.097932e+06
  -9.506644e+05   1.915993e+06
  -5.558510e+05   1.431767e+04
   1.010603e+06  -1.274708e+06
   1.873721e+06  -3.877044e+05
   9.497152e+05   1.190069e+06
  -4.573441e+05   1.059953e+06
  -3.159333e+05  -3.987032e+05
   1.182174e+06  -5.183155e+05
   1.785122e+06   1.591406e+06
   2.993893e+05   3.595728e+06
  -1.965623e+06   3.125486e+06
  -3.182885e+06   6.586744e+05
  -2.984404e+06  -1.660114e+06
  -1.910223e+06  -2.633010e+06
  -3.301391e+05  -2.389869e+06
   1.158402e+06  -1.373540e+06
   1.481448e+06  -2.369967e+05
   4.715193e+05   4.845722e+04
  -3.316277e+05  -7.303129e+05
   4.495506e+05  -1.325665e+06
   1.916013e+06  -5.414726e+05
   1.982679e+06   9.464860e+05
   3.173654e+05   1.423087e+06
  -1.155023e+06   5.119559e+05
  -7.893340e+05  -4.603295e+05
   8.699081e+05  -3.911241e+05
   2.009658e+06   4.620445e+05
   1.502703e+06   1.333199e+06
  -3.465780e+05   1.786982e+06
  -2.222873e+06   1.474502e+06
  -2.648823e+06   2.013546e+05
  -1.162234e+06  -1.266922e+06
   9.272672e+05  -1.492315e+06
   1.571086e+06  -1.803915e+05
   2.190144e+05   1.078381e+06
  -1.482111e+06   7.044290e+05
  -1.636735e+06  -8.089023e+05
  -2.373416e+05  -1.603180e+06
   1.119882e+06  -8.590384e+05
   1.186867e+06   3.997680e+05
   1.651387e+05   7.842634e+05
  -8.077944e+05   3.021202e+04
  -7.140800e+05  -1.034296e+06
   5.530155e+05  -1.376432e+06
   1.931513e+06  -5.236807e+05
   1.959501e+06   1.021235e+06
   3.456159e+05   2.012356e+06
  -1.431956e+06   1.564360e+06
  -1.674968e+06   1.530368e+05
  -4.433245e+05  -8.581670e+05
   6.606731e+05  -7.456903e+05
   5.710801e+05  -6.737795e+04
  -1.541597e+05   2.768269e+05
  -4.216014e+05   1.201306e+05
  -3.360100e+03  -4.897154e+04
   4.905355e+05   1.760123e+05
   4.562110e+05   7.331840e+05
  -2.714406e+05   1.153147e+06
  -1.362074e+06   8.264639e+05
  -1.995877e+06  -4.360447e+05
  -1.387492e+06  -1.890132e+06
   2.367179e+05  -2.305293e+06
   1.558831e+06  -1.281248e+06
   1.565841e+06   1.850966e+05
   7.286379e+05   8.230304e+05
   2.672085e+05   5.083886e+05
   5.158772e+05   1.396519e+05
   6.740652e+05   3.343827e+05
   8.984116e+04   7.837728e+05
  -8.772295e+05   8.389361e+05
  -1.378436e+06   2.499607e+05
  -9.387838e+05  -6.934566e+05
   2.981638e+05  -1.331641e+06
   1.658130e+06  -9.579497e+05
   2.121502e+06   5.063985e+05
   1.021071e+06   2.041266e+06
  -1.058038e+06   2.260494e+06
  -2.496460e+06   9.135337e+05
  -2.215568e+06  -7.283337e+05
  -8.078186e+05  -1.300543e+06
   2.608390e+05  -8.273134e+05
   3.265421e+05  -4.111882e+05
  -1.588902e+04  -7.272747e+05
   6.369524e+04  -1.311643e+06
   6.734700e+05  -1.273905e+06
   1.274789e+06  -3.066894e+05
   1.284737e+06   1.043027e+06
   5.209578e+05   1.816866e+06
  -6.021702e+05   1.369690e+06
  -1.225143e+06  -3.007204e+04
  -7.458913e+05  -1.269405e+06
   4.391925e+05  -1.338962e+06
   1.176458e+06  -3.179772e+05
   7.776821e+05   7.666592e+05
  -1.912963e+05   1.080285e+06
  -6.015774e+05   7.338681e+05
  -1.189364e+05   3.663884e+05
   4.261106e+05   3.083466e+05
   6.305229e+04   3.603617e+05
  -1.130602e+06   1.787082e+05
  -2.012072e+06  -3.567539e+05
  -1.539236e+06  -1.038567e+06
   1.002695e+05  -1.412695e+06
   1.592716e+06  -1.093361e+06
   1.779557e+06  -2.100615e+05
   7.761996e+05   5.490327e+05
  -2.818878e+05   5.737885e+05
  -5.088815e+05   1.833681e+01
  -4.655884e+04  -4.432482e+05
   4.045859e+05  -2.554197e+05
   4.665856e+05   3.300682e+05
   2.870969e+05   6.792444e+05
   1.355110e+05   4.555159e+05
   1.272343e+05  -5.439986e+04
   2.318793e+05  -2.332312e+05
   2.519235e+05   2.310887e+05
  -1.189987e+05   9.255671e+05
  -8.728258e+05   1.023233e+06
  -1.366008e+06   1.921139e+05
  -8.698688e+05  -8.796067e+05
   4.054930e+05  -1.136933e+06
   1.241792e+06  -3.651135e+05
   7.066141e+05   5.368244e+05
  -6.917767e+05   6.040022e+05
  -1.495804e+06  -1.370413e+05
  -8.827267e+05  -8.509180e+05
   5.262360e+05  -8.973613e+05
   1.424468e+06  -3.664149e+05
   1.128298e+06   2.357153e+05
   9.470861e+04   4.802428e+05
  -6.307100e+05   2.248479e+05
  -3.834455e+05  -3.019448e+05
   5.365076e+05  -5.235079e+05
   1.137187e+06   4.086715e+04
   6.894288e+05   1.110776e+06
  -5.082750e+05   1.649251e+06
  -1.392067e+06   8.823741e+05
  -1.201372e+06  -7.053515e+05
  -1.957740e+05  -1.698163e+06
   7.111864e+05  -1.200717e+06
   8.709921e+05   2.105579e+05
   3.655144e+05   1.144655e+06
  -2.657098e+05   8.941125e+05
  -5.520482e+05   5.525755e+04
  -4.048223e+05  -3.535552e+05
  -1.131698e+05  -1.182965e+05
  -6.305079e+04   7.747514e+04
  -3.264302e+05  -3.121993e+05
  -5.050529e+05  -9.364421e+05
  -1.255958e+05  -1.019494e+06
   7.425914e+05  -3.638083e+05
   1.395930e+06   4.472436e+05
   1.167874e+06   8.025988e+05
   1.677822e+05   6.774972e+05
  -7.709695e+05   4.032019e+05
  -9.225275e+05   1.542512e+05
  -3.814777e+05  -7.838224e+04
   1.216579e+05  -2.200154e+05
   8.731288e+04  -1.687465e+05
  -1.960905e+05  -5.890730e+04
  -7.103169e+04  -1.237541e+05
   5.699716e+05  -2.497736e+05
   1.008226e+06  -1.059157e+04
   5.021702e+05   6.704683e+05
  -7.439160e+05   1.166145e+06
  -1.661912e+06   7.753909e+05
  -1.425727e+06  -3.714959e+05
  -2.952309e+05  -1.333428e+06
   7.415688e+05  -1.340531e+06
   1.002424e+06  -5.623991e+05
   6.204192e+05   1.844555e+05
   1.563301e+05   3.433097e+05
  -1.550070e+04   9.980416e+04
   9.659677e+04   2.411777e+04
   2.618303e+05   3.679889e+05
   2.177672e+05   7.721234e+05
  -1.540704e+05   6.646370e+05
  -6.415939e+05  -6.871890e+04
  -7.528766e+05  -8.637370e+05
  -1.879635e+05  -9.934208e+05
   6.822448e+05  -3.036443e+05
   1.018712e+06   6.242363e+05
   3.852405e+05   1.042795e+06
  -6.656552e+05   7.013334e+05
  -1.101686e+06  -4.161816e+04
  -5.497584e+05  -6.215414e+05
   2.716897e+05  -7.070576e+05
   4.083874e+05  -3.690952e+05
  -1.829776e+05   1.550236e+04
  -6.072412e+05   5.406170e+04
  -1.627747e+05  -3.039889e+05
   7.829915e+05  -6.514853e+05
   1.246543e+06  -4.894318e+05
   7.863113e+05   2.048623e+05
  -7.739997e+04   8.555482e+05
  -5.670994e+05   8.485851e+05
  -4.609074e+05   1.998021e+05
  -8.700490e+04  -4.355443e+05
   2.131189e+05  -4.502806e+05
   3.362985e+05   8.668150e+04
   2.590844e+05   5.476588e+05
  -3.136330e+04   4.557549e+05
  -3.774291e+05  -1.526971e+04
  -4.768178e+05  -2.974188e+05
  -2.339530e+05  -1.204901e+05
   6.019643e+04   1.828886e+05
   8.030183e+04   1.220933e+05
  -8.684615e+04  -3.062093e+05
  -5.983513e+04  -5.837842e+05
   2.705926e+05  -3.069350e+05
   5.126642e+05   2.959239e+05
   2.508762e+05   6.103687e+05
  -3.601446e+05   3.333877e+05
  -6.755713e+05  -2.229038e+05
  -2.791286e+05  -5.246437e+05
   4.958628e+05  -3.660482e+05
   8.777746e+05   3.463226e+04
   4.807510e+05   3.527108e+05
  -2.749391e+05   4.274100e+05
  -6.227446e+05   2.771253e+05
  -2.806025e+05   3.003958e+04
   2.733409e+05  -1.137838e+05
   3.692944e+05  -4.644726e+03
  -1.088015e+05   2.471177e+05
  -6.300499e+05   2.755835e+05
