
 $NMID
 id='ANONYMOUS ', fmtdat='(2E16.6)'
 volume=1.0
 tramp=1.0
 $END
   3.894706e+07   4.246393e+06
   2.169959e+07   2.419736e+07
  -5.973329e+06   2.497015e+07
  -1.909569e+07   1.059558e+07
  -1.185130e+07  -3.336697e+06
   1.646748e+06  -6.413816e+06
   7.073080e+06  -3.326104e+05
   2.919557e+06   6.643411e+06
  -3.805413e+06   7.777411e+06
  -7.014163e+06   2.147566e+06
  -5.071347e+06  -5.125508e+06
  -9.551824e+04  -7.015480e+06
   3.455681e+06  -1.582931e+06
   2.078324e+06   5.219166e+06
  -2.829402e+06   5.730698e+06
  -5.768834e+06  -7.696223e+05
  -3.083520e+06  -7.610739e+06
   3.122193e+06  -8.513653e+06
   7.650964e+06  -3.544296e+06
   7.412878e+06   2.626117e+06
   3.443563e+06   5.884188e+06
  -6.930441e+05   5.381851e+06
  -1.789160e+06   3.126138e+06
   2.681868e+05   2.025364e+06
   1.911852e+06   3.194557e+06
  -5.044517e+05   4.545761e+06
  -5.810987e+06   3.104179e+06
  -8.465561e+06  -1.002145e+06
  -5.076605e+06  -4.274125e+06
   1.158400e+06  -3.992387e+06
   4.192214e+06  -1.140378e+06
   2.050651e+06   1.371397e+06
  -1.868393e+06   1.785243e+06
  -3.519943e+06   8.804976e+04
  -2.092697e+06  -2.618880e+06
   5.459866e+05  -4.155223e+06
   2.199339e+06  -2.515465e+06
   1.794359e+06   1.215875e+06
   5.226721e+04   2.865760e+06
  -8.618675e+05   2.674696e+05
   4.217318e+05  -3.056658e+06
   2.348874e+06  -2.136157e+06
   1.908715e+06   2.284107e+06
  -1.334370e+06   4.209317e+06
  -4.063628e+06   4.787256e+05
  -2.924868e+06  -4.824582e+06
   1.528352e+06  -5.637660e+06
   5.434416e+06  -1.244939e+06
   5.508238e+06   3.704979e+06
   1.761674e+06   4.993563e+06
  -2.831584e+06   2.515595e+06
  -4.686702e+06  -9.798119e+05
  -2.447858e+06  -2.746576e+06
   1.586818e+06  -1.786053e+06
   3.423656e+06   6.298158e+05
   1.574081e+06   1.969805e+06
  -1.273182e+06   9.826644e+05
  -1.629810e+06  -8.183619e+05
   4.644995e+05  -1.054764e+06
   1.793735e+06   4.778684e+05
   2.814401e+05   1.765523e+06
  -2.551746e+06   1.270769e+06
  -3.651977e+06  -6.262202e+05
  -1.722807e+06  -2.727046e+06
   1.952220e+06  -4.036295e+06
   4.940765e+06  -3.534997e+06
   5.381677e+06  -6.545964e+05
   3.163444e+06   3.237355e+06
   1.155420e+05   5.250165e+06
  -1.482912e+06   4.049333e+06
  -1.139534e+06   1.593151e+06
  -4.976759e+05   6.234406e+05
  -1.110572e+06   1.187787e+06
  -2.484141e+06   1.052515e+06
  -2.882042e+06  -8.113397e+05
  -1.530895e+06  -2.703094e+06
   6.430249e+05  -2.437196e+06
   2.074465e+06  -1.228429e+04
   1.726090e+06   2.473166e+06
  -3.526436e+05   2.945128e+06
  -2.813539e+06   1.047860e+06
  -3.658891e+06  -1.759720e+06
  -2.054485e+06  -3.451144e+06
   5.300788e+05  -3.124994e+06
   1.844086e+06  -1.710020e+06
   1.546569e+06  -7.880949e+05
   1.427456e+06  -7.504770e+05
   2.688795e+06  -5.435338e+05
   4.027638e+06   7.615457e+05
   3.201318e+06   2.717654e+06
  -3.765071e+04   3.988366e+06
  -3.397269e+06   3.605302e+06
  -4.353205e+06   1.621586e+06
  -2.517442e+06  -8.975057e+05
   2.107286e+05  -2.332718e+06
   1.477773e+06  -1.688725e+06
   5.307747e+05   1.890633e+05
  -1.237942e+06   1.172171e+06
  -1.802217e+06   2.437597e+05
  -6.672091e+05  -1.180016e+06
   6.807206e+05  -1.096218e+06
   6.208415e+05   3.357259e+05
  -6.986400e+05   9.438433e+05
  -1.668449e+06  -5.564801e+05
  -1.086862e+06  -2.833193e+06
   7.770826e+05  -3.509603e+06
   2.713488e+06  -1.776976e+06
   3.530231e+06   1.017002e+06
   2.640361e+06   2.885391e+06
   4.963210e+05   2.841471e+06
  -1.400754e+06   1.415037e+06
  -1.648193e+06   6.534081e+04
  -4.864419e+05  -7.510841e+04
   3.262781e+05   7.468254e+05
  -3.914787e+05   1.203147e+06
  -1.736428e+06   4.547860e+05
  -1.871163e+06  -8.221876e+05
  -3.914642e+05  -1.289168e+06
   1.127235e+06  -5.624320e+05
   9.840324e+05   4.501529e+05
  -7.375225e+05   6.699626e+05
  -2.279395e+06  -1.412996e+05
  -1.976268e+06  -1.383306e+06
   1.539950e+05  -2.134176e+06
   2.376625e+06  -1.695422e+06
   2.785663e+06  -1.886841e+05
   1.118473e+06   1.236569e+06
  -9.330819e+05   1.310140e+06
  -1.407787e+06   6.865507e+04
  -6.496970e+04  -1.003485e+06
   1.500913e+06  -6.236600e+05
   1.666195e+06   7.802781e+05
   3.885281e+05   1.621754e+06
  -1.000823e+06   1.044199e+06
  -1.257750e+06  -1.933579e+05
  -3.337556e+05  -7.174035e+05
   6.953849e+05  -4.274923e+04
   6.343527e+05   1.042694e+06
  -6.707642e+05   1.343655e+06
  -2.015498e+06   3.828692e+05
  -1.925751e+06  -1.164267e+06
  -2.698459e+05  -2.042299e+06
   1.452896e+06  -1.543219e+06
   1.693854e+06  -1.731258e+05
   5.142551e+05   8.521682e+05
  -6.524933e+05   8.022896e+05
  -7.121028e+05   5.151559e+04
   4.687301e+04  -4.790684e+05
   5.852004e+05  -3.378624e+05
   3.445641e+05   8.123369e+04
  -2.997005e+05   8.024385e+04
  -5.238560e+05  -5.246129e+05
   1.555596e+05  -1.117925e+06
   1.361780e+06  -8.375470e+05
   2.027297e+06   4.918368e+05
   1.337413e+06   1.984223e+06
  -3.389871e+05   2.416885e+06
  -1.683199e+06   1.425618e+06
  -1.769499e+06  -1.213236e+05
  -9.738594e+05  -1.021529e+06
  -3.517034e+05  -9.043225e+05
  -3.458142e+05  -4.046822e+05
  -4.433290e+05  -2.997014e+05
  -1.399529e+04  -6.607936e+05
   8.642569e+05  -8.641390e+05
   1.468756e+06  -3.259554e+05
   1.110270e+06   7.881692e+05
  -2.401507e+05   1.549713e+06
  -1.763739e+06   1.064284e+06
  -2.250584e+06  -5.622351e+05
  -1.092106e+06  -2.103955e+06
   1.000151e+06  -2.273690e+06
   2.474830e+06  -9.729814e+05
   2.348101e+06   6.374168e+05
   1.061069e+06   1.354227e+06
  -1.405258e+05   1.071675e+06
  -5.068406e+05   6.366643e+05
  -3.147038e+05   7.438198e+05
  -2.784437e+05   1.179726e+06
  -7.067339e+05   1.150035e+06
  -1.240437e+06   2.139237e+05
  -1.243575e+06  -1.156704e+06
  -4.397829e+05  -1.919142e+06
   7.091691e+05  -1.397728e+06
   1.286847e+06   3.978787e+04
   7.703988e+05   1.252565e+06
  -3.645322e+05   1.346910e+06
  -1.052964e+06   4.462506e+05
  -7.383019e+05  -5.602219e+05
   6.618960e+04  -9.513265e+05
   4.169327e+05  -7.549067e+05
   3.755865e+04  -4.657633e+05
  -3.849361e+05  -3.942242e+05
  -1.924682e+04  -3.989706e+05
   1.095186e+06  -1.607920e+05
   1.949341e+06   4.144640e+05
   1.543565e+06   1.059459e+06
  -2.324909e+04   1.339872e+06
  -1.527197e+06   1.006856e+06
  -1.786682e+06   2.468629e+05
  -8.259472e+05  -4.037698e+05
   2.448600e+05  -4.869719e+05
   4.706811e+05  -5.398971e+04
  -4.078028e+04   3.486661e+05
  -4.999403e+05   2.128427e+05
  -4.451982e+05  -3.723628e+05
  -1.206230e+05  -7.693245e+05
   1.719157e+04  -4.970604e+05
  -1.464275e+05   1.498360e+05
  -3.543987e+05   3.599642e+05
  -2.730332e+05  -2.324115e+05
   2.385878e+05  -1.004904e+06
   9.458352e+05  -9.895784e+05
   1.257218e+06  -2.806361e+04
   6.883893e+05   9.683688e+05
  -4.830454e+05   1.023027e+06
  -1.215756e+06   1.712086e+05
  -6.870326e+05  -6.422708e+05
   7.095050e+05  -6.235596e+05
   1.612920e+06   1.269059e+05
   1.074114e+06   8.785906e+05
  -4.398187e+05   1.026217e+06
  -1.531893e+06   5.273701e+05
  -1.294886e+06  -1.805429e+05
  -1.559656e+05  -5.369972e+05
   6.467031e+05  -2.775896e+05
   3.362737e+05   2.871153e+05
  -6.573708e+05   4.503319e+05
  -1.174781e+06  -2.119078e+05
  -5.289242e+05  -1.259471e+06
   7.828081e+05  -1.646471e+06
   1.587506e+06  -7.482591e+05
   1.215857e+06   8.650672e+05
   9.182810e+04   1.832459e+06
  -8.134616e+05   1.305602e+06
  -9.302807e+05  -1.726782e+05
  -4.238730e+05  -1.207724e+06
   1.963882e+05  -9.949334e+05
   5.433584e+05  -8.230099e+04
   5.016434e+05   4.110097e+05
   2.175766e+05   1.587473e+05
   3.007037e+04  -1.095811e+05
   1.775964e+05   2.811175e+05
   4.269749e+05   9.865063e+05
   2.049118e+05   1.101846e+06
  -6.594453e+05   3.625783e+05
  -1.471517e+06  -5.507635e+05
  -1.307989e+06  -9.061958e+05
  -1.531940e+05  -6.983847e+05
   9.402973e+05  -3.738853e+05
   1.019607e+06  -1.524259e+05
   3.084710e+05   4.566522e+04
  -1.822314e+05   2.163081e+05
   2.144998e+04   2.302217e+05
   3.345937e+05   1.389768e+05
   1.643096e+04   1.430971e+05
  -7.563985e+05   1.805536e+05
  -1.045295e+06  -9.539861e+04
  -2.914002e+05  -7.227046e+05
   9.874472e+05  -1.100877e+06
   1.715179e+06  -6.019475e+05
   1.313558e+06   5.689444e+05
   1.654472e+05   1.445917e+06
  -8.398046e+05   1.310836e+06
  -1.091548e+06   4.309033e+05
  -6.584136e+05  -3.087847e+05
  -8.396504e+04  -3.700101e+05
   1.366325e+05  -3.069517e+04
  -5.537188e+04   5.362486e+04
  -3.075315e+05  -3.636339e+05
  -2.262531e+05  -8.231133e+05
   2.356760e+05  -6.600754e+05
   6.958672e+05   2.037651e+05
   6.535639e+05   1.048898e+06
  -1.659818e+04   1.047496e+06
  -8.184864e+05   1.491335e+05
  -9.845753e+05  -8.466235e+05
  -2.425737e+05  -1.119699e+06
   7.752711e+05  -5.935542e+05
   1.092255e+06   1.660111e+05
   4.559791e+05   6.116525e+05
  -3.335508e+05   6.080103e+05
  -3.556374e+05   3.266428e+05
   3.056430e+05   3.848256e+04
   6.708170e+05   7.896021e+03
   1.077890e+05   3.110957e+05
  -8.711047e+05   6.392456e+05
  -1.247840e+06   4.995162e+05
  -6.959066e+05  -1.910701e+05
   1.586272e+05  -8.478423e+05
   5.647044e+05  -7.979035e+05
   3.903150e+05  -8.951024e+04
  -1.058622e+03   5.115483e+05
  -2.821657e+05   3.952792e+05
  -3.549377e+05  -2.170731e+05
  -2.122474e+05  -5.994513e+05
   9.898609e+04  -3.848994e+05
   3.916785e+05   9.031795e+04
   4.394905e+05   2.812049e+05
   2.329982e+05   8.267120e+04
   4.248348e+03  -1.193048e+05
  -6.822809e+04   2.822405e+04
  -7.119335e+04   3.967849e+05
  -1.857965e+05   5.124490e+05
  -3.776951e+05   1.180662e+05
  -3.830626e+05  -4.761812e+05
  -3.432083e+04  -6.817170e+05
   4.580543e+05  -2.709627e+05
   6.239371e+05   3.591227e+05
   1.979176e+05   6.154051e+05
  -5.203412e+05   3.264737e+05
  -8.584185e+05  -1.568473e+05
  -4.445054e+05  -4.133363e+05
   3.261343e+05  -3.492872e+05
   6.517020e+05  -1.444372e+05
   2.180394e+05   1.077281e+04
  -4.098883e+05   1.796405e+04
  -4.349328e+05  -1.385604e+05
   2.241927e+05  -3.205452e+05
   8.341976e+05  -2.356932e+05
