
 $NMID
 id='ANONYMOUS ', fmtdat='(2E16.6)'
 volume=1.0
 tramp=1.0
 $END
   3.655867e+07   2.813700e+05
   2.273143e+07   2.103845e+07
  -3.400636e+06   2.425856e+07
  -1.738991e+07   1.135604e+07
  -1.162513e+07  -2.652504e+06
   1.241041e+06  -6.267712e+06
   6.829236e+06  -4.974993e+05
   3.038247e+06   6.293183e+06
  -3.397207e+06   7.445804e+06
  -6.551657e+06   2.314155e+06
  -4.957609e+06  -4.346263e+06
  -4.988847e+05  -6.305148e+06
   2.939426e+06  -1.658753e+06
   2.007558e+06   4.560797e+06
  -2.446608e+06   5.359570e+06
  -5.493639e+06  -3.887446e+05
  -3.405807e+06  -6.872585e+06
   2.250383e+06  -8.152651e+06
   6.728625e+06  -3.953489e+06
   7.017659e+06   1.646126e+06
   3.820632e+06   4.956291e+06
   1.001997e+05   5.057979e+06
  -1.304153e+06   3.341624e+06
   9.245618e+04   2.136319e+06
   1.544058e+06   2.756068e+06
  -2.967914e+05   3.911458e+06
  -4.893181e+06   2.997591e+06
  -7.509871e+06  -3.847287e+05
  -4.811634e+06  -3.437192e+06
   6.573939e+05  -3.514683e+06
   3.464908e+06  -1.194373e+06
   1.722573e+06   9.530178e+05
  -1.560958e+06   1.346799e+06
  -2.898364e+06   5.614186e+04
  -1.779595e+06  -2.076859e+06
   2.384551e+05  -3.482739e+06
   1.652569e+06  -2.403954e+06
   1.654507e+06   6.997649e+05
   4.158896e+05   2.432949e+06
  -5.463995e+05   4.713927e+05
   2.800870e+05  -2.546163e+06
   2.030597e+06  -1.987656e+06
   1.913061e+06   2.042283e+06
  -1.029640e+06   4.161691e+06
  -3.938309e+06   9.286131e+05
  -3.251806e+06  -4.262889e+06
   9.522623e+05  -5.500156e+06
   4.943596e+06  -1.624110e+06
   5.264795e+06   3.113481e+06
   1.805689e+06   4.533230e+06
  -2.528818e+06   2.384807e+06
  -4.319002e+06  -7.873515e+05
  -2.299068e+06  -2.475204e+06
   1.445729e+06  -1.741018e+06
   3.224829e+06   4.143515e+05
   1.553351e+06   1.763058e+06
  -1.134515e+06   9.851380e+05
  -1.489660e+06  -7.111254e+05
   5.394717e+05  -1.015316e+06
   1.842069e+06   4.939400e+05
   3.437887e+05   1.902121e+06
  -2.458755e+06   1.517634e+06
  -3.567639e+06  -3.760219e+05
  -1.822847e+06  -2.480578e+06
   1.461213e+06  -3.781878e+06
   4.144498e+06  -3.446058e+06
   4.738331e+06  -9.574915e+05
   3.066028e+06   2.614222e+06
   4.438475e+05   4.672980e+06
  -1.185563e+06   3.757904e+06
  -1.088084e+06   1.459147e+06
  -4.694301e+05   4.156550e+05
  -8.285118e+05   9.295609e+05
  -1.987871e+06   9.888263e+05
  -2.449087e+06  -5.297252e+05
  -1.384483e+06  -2.207376e+06
   4.744366e+05  -2.049888e+06
   1.746894e+06  -3.975511e+03
   1.519784e+06   2.117842e+06
  -2.110184e+05   2.572947e+06
  -2.394917e+06   1.061186e+06
  -3.325464e+06  -1.304787e+06
  -2.098431e+06  -2.911239e+06
   1.925306e+05  -2.873138e+06
   1.526778e+06  -1.755248e+06
   1.401214e+06  -8.753930e+05
   1.315675e+06  -7.454790e+05
   2.426879e+06  -5.686855e+05
   3.649827e+06   5.444679e+05
   2.956104e+06   2.315042e+06
   9.392721e+04   3.549261e+06
  -2.881103e+06   3.303830e+06
  -3.747093e+06   1.584761e+06
  -2.212053e+06  -6.643719e+05
   8.674675e+04  -2.004060e+06
   1.192937e+06  -1.510003e+06
   4.527200e+05   1.405478e+05
  -1.045873e+06   1.064583e+06
  -1.591595e+06   2.771919e+05
  -6.473036e+05  -1.008878e+06
   5.646807e+05  -9.572218e+05
   5.347991e+05   3.319616e+05
  -6.977796e+05   8.658946e+05
  -1.625722e+06  -5.487074e+05
  -1.049202e+06  -2.649866e+06
   7.469721e+05  -3.225216e+06
   2.521286e+06  -1.598976e+06
   3.182770e+06   9.109623e+05
   2.341296e+06   2.532380e+06
   4.685411e+05   2.489002e+06
  -1.182248e+06   1.277469e+06
  -1.428773e+06   1.084541e+05
  -4.285146e+05  -4.975749e+04
   3.090848e+05   6.587283e+05
  -3.156935e+05   1.103812e+06
  -1.549889e+06   4.753350e+05
  -1.710311e+06  -6.911570e+05
  -3.774880e+05  -1.162237e+06
   1.009727e+06  -5.229740e+05
   8.738417e+05   4.078379e+05
  -6.882705e+05   6.149927e+05
  -2.053335e+06  -1.155563e+05
  -1.756728e+06  -1.221032e+06
   1.289740e+05  -1.896444e+06
   2.078109e+06  -1.545670e+06
   2.461190e+06  -2.364184e+05
   1.034405e+06   1.068005e+06
  -7.794839e+05   1.207747e+06
  -1.255641e+06   1.226577e+05
  -1.020756e+05  -8.873160e+05
   1.315678e+06  -6.017003e+05
   1.506243e+06   6.584290e+05
   3.694525e+05   1.447551e+06
  -8.976182e+05   9.458978e+05
  -1.137882e+06  -1.737172e+05
  -2.969667e+05  -6.592390e+05
   6.454248e+05  -6.487052e+04
   6.112600e+05   9.141438e+05
  -5.463982e+05   1.222004e+06
  -1.772311e+06   4.122773e+05
  -1.746363e+06  -9.650952e+05
  -3.049576e+05  -1.804608e+06
   1.246745e+06  -1.416615e+06
   1.500100e+06  -1.960019e+05
   4.667660e+05   7.529888e+05
  -5.725622e+05   7.239043e+05
  -6.173334e+05   4.471300e+04
   6.654196e+04  -4.272865e+05
   5.269061e+05  -2.823026e+05
   2.773353e+05   9.883726e+04
  -3.123343e+05   8.238342e+04
  -5.049230e+05  -4.765674e+05
   1.068611e+05  -1.021592e+06
   1.190678e+06  -7.941587e+05
   1.819499e+06   3.720579e+05
   1.253082e+06   1.715564e+06
  -2.286477e+05   2.143538e+06
  -1.459023e+06   1.292258e+06
  -1.564096e+06  -8.180013e+04
  -8.497363e+05  -8.804937e+05
  -2.901934e+05  -7.559296e+05
  -3.138504e+05  -2.999081e+05
  -4.387369e+05  -2.307832e+05
  -6.180266e+04  -5.944137e+05
   7.423115e+05  -8.021862e+05
   1.299604e+06  -3.289816e+05
   9.943228e+05   6.702227e+05
  -1.886128e+05   1.376184e+06
  -1.540882e+06   9.896897e+05
  -2.010488e+06  -4.368784e+05
  -1.026915e+06  -1.848728e+06
   8.335371e+05  -2.068918e+06
   2.191001e+06  -9.398022e+05
   2.110008e+06   5.236828e+05
   9.521431e+05   1.198492e+06
  -1.336004e+05   9.463457e+05
  -4.364943e+05   5.391750e+05
  -2.218869e+05   6.359631e+05
  -1.735400e+05   1.052471e+06
  -5.785540e+05   1.057952e+06
  -1.095072e+06   2.429390e+05
  -1.138234e+06  -9.779255e+05
  -4.487980e+05  -1.680614e+06
   5.829045e+05  -1.254619e+06
   1.143630e+06   3.885108e+03
   7.256870e+05   1.101762e+06
  -2.946739e+05   1.222054e+06
  -9.569783e+05   4.293390e+05
  -7.058291e+05  -4.980475e+05
   2.991978e+04  -8.822127e+05
   3.748952e+05  -7.066740e+05
   4.134623e+04  -4.136386e+05
  -3.525697e+05  -3.224524e+05
  -3.327678e+04  -3.452548e+05
   9.749094e+05  -1.868332e+05
   1.757648e+06   2.922204e+05
   1.410849e+06   8.970711e+05
   1.873782e+04   1.218528e+06
  -1.333213e+06   9.660188e+05
  -1.592263e+06   2.687606e+05
  -7.607176e+05  -3.604060e+05
   1.974651e+05  -4.580559e+05
   4.296657e+05  -6.171497e+04
  -1.004574e+03   3.122776e+05
  -4.193447e+05   1.995931e+05
  -4.059017e+05  -3.086237e+05
  -1.432237e+05  -6.503124e+05
  -1.439711e+04  -4.204636e+05
  -1.335775e+05   1.257195e+05
  -3.062457e+05   3.053712e+05
  -2.536870e+05  -1.998489e+05
   1.714568e+05  -8.839469e+05
   8.012907e+05  -9.145093e+05
   1.120293e+06  -1.011742e+05
   6.603373e+05   8.111294e+05
  -3.755621e+05   9.360452e+05
  -1.060799e+06   2.202984e+05
  -6.239323e+05  -5.353609e+05
   6.131153e+05  -5.745303e+05
   1.430036e+06   7.664797e+04
   9.603618e+05   7.688435e+05
  -3.850493e+05   9.244926e+05
  -1.356936e+06   4.871784e+05
  -1.148758e+06  -1.469746e+05
  -1.416559e+05  -4.751914e+05
   5.745662e+05  -2.590241e+05
   3.175763e+05   2.440094e+05
  -5.504756e+05   4.188685e+05
  -1.032402e+06  -1.357660e+05
  -5.149276e+05  -1.071161e+06
   6.121629e+05  -1.462646e+06
   1.352617e+06  -7.117380e+05
   1.091498e+06   7.150595e+05
   1.372044e+05   1.603432e+06
  -6.846485e+05   1.166277e+06
  -8.340843e+05  -1.366896e+05
  -4.022790e+05  -1.065589e+06
   1.660674e+05  -8.923008e+05
   4.890125e+05  -8.886774e+04
   4.426161e+05   3.567291e+05
   1.810110e+05   1.436929e+05
   3.182358e+04  -9.805159e+04
   1.909967e+05   2.320278e+05
   4.160760e+05   8.526908e+05
   1.962010e+05   9.773366e+05
  -5.890372e+05   3.547274e+05
  -1.309376e+06  -4.418533e+05
  -1.166394e+06  -7.720920e+05
  -1.590776e+05  -6.146510e+05
   8.021276e+05  -3.470290e+05
   8.935449e+05  -1.569817e+05
   2.908156e+05   2.594970e+04
  -1.477683e+05   1.912039e+05
   5.102382e+03   2.095626e+05
   2.767000e+05   1.204702e+05
   2.477022e+04   1.193574e+05
  -6.379275e+05   1.721440e+05
  -9.202687e+05  -4.324225e+04
  -3.045492e+05  -6.042980e+05
   8.082255e+05  -9.933657e+05
   1.485645e+06  -6.081040e+05
   1.182285e+06   4.268935e+05
   1.971061e+05   1.256209e+06
  -6.923528e+05   1.190894e+06
  -9.348615e+05   4.269750e+05
  -5.792124e+05  -2.438067e+05
  -9.339455e+04  -3.167554e+05
   9.709114e+04  -2.632653e+04
  -6.281876e+04   4.480893e+04
  -2.813942e+05  -3.219404e+05
  -2.205556e+05  -7.241355e+05
   1.798084e+05  -5.884080e+05
   6.054618e+05   1.501129e+05
   6.069666e+05   8.813820e+05
   3.760936e+04   9.043479e+05
  -6.898294e+05   1.620013e+05
  -8.832945e+05  -6.922531e+05
  -2.614795e+05  -9.651730e+05
   6.462309e+05  -5.558669e+05
   9.678541e+05   9.605043e+04
   4.412275e+05   5.225275e+05
  -2.586741e+05   5.604494e+05
  -3.103623e+05   3.157888e+05
   2.507330e+05   3.237637e+04
   5.838777e+05  -1.500538e+04
   1.128529e+05   2.666806e+05
  -7.453824e+05   5.894157e+05
  -1.100818e+06   4.841431e+05
  -6.415029e+05  -1.394289e+05
   1.035794e+05  -7.535058e+05
   4.735029e+05  -7.379550e+05
   3.415394e+05  -1.159986e+05
   1.757558e+04   4.360597e+05
  -2.234644e+05   3.611147e+05
  -3.053763e+05  -1.676099e+05
  -2.085191e+05  -5.164085e+05
   5.850193e+04  -3.481421e+05
   3.416703e+05   6.039647e+04
   4.084937e+05   2.351348e+05
   2.155637e+05   7.127923e+04
  -1.637851e+04  -1.073991e+05
  -8.038172e+04   8.966729e+03
  -4.161787e+04   3.252785e+05
  -1.085968e+05   4.426143e+05
  -2.960101e+05   1.289466e+05
  -3.519514e+05  -3.734759e+05
  -7.205222e+04  -5.717539e+05
   3.800379e+05  -2.528868e+05
   5.591252e+05   2.766433e+05
   1.961040e+05   5.218394e+05
  -4.466463e+05   3.107321e+05
  -7.598301e+05  -9.449486e+04
  -4.076048e+05  -3.430379e+05
   2.642055e+05  -3.262897e+05
   5.575028e+05  -1.632129e+05
   1.979330e+05  -1.044916e+04
  -3.360826e+05   2.409541e+04
  -3.663141e+05  -9.980750e+04
   1.846016e+05  -2.693591e+05
   7.063344e+05  -2.164696e+05
