
 $NMID
 id='ANONYMOUS ', fmtdat='(2E16.6)'
 volume=1.0
 tramp=1.0
 $END
  -3.758869e+07   3.484825e+06
  -2.622063e+07  -1.896306e+07
   3.948540e+05  -2.554543e+07
   1.699123e+07  -1.421873e+07
   1.300311e+07   1.154823e+06
  -3.496573e+05   6.880538e+06
  -7.390297e+06   1.545019e+06
  -4.188338e+06  -6.407702e+06
   2.813809e+06  -8.581168e+06
   6.815624e+06  -3.328722e+06
   5.641789e+06   4.129974e+06
   1.037341e+06   6.660610e+06
  -2.918877e+06   1.938861e+06
  -2.415346e+06  -4.825611e+06
   2.197744e+06  -6.093699e+06
   5.922714e+06  -2.296386e+05
   4.324867e+06   6.924642e+06
  -1.536857e+06   8.843269e+06
  -6.625521e+06   4.779037e+06
  -7.352466e+06  -1.063368e+06
  -4.302605e+06  -4.636583e+06
  -6.646460e+05  -4.967914e+06
   6.852181e+05  -3.560405e+06
  -5.952611e+05  -2.625719e+06
  -1.784916e+06  -3.271208e+06
   3.164019e+05  -4.290274e+06
   5.147778e+06  -3.311124e+06
   7.956346e+06   8.746751e+04
   5.222258e+06   3.284975e+06
  -5.633129e+05   3.557545e+06
  -3.606974e+06   1.229850e+06
  -1.677886e+06  -1.086308e+06
   1.968833e+06  -1.486647e+06
   3.329452e+06   4.705540e+04
   1.896844e+06   2.382743e+06
  -2.913221e+05   3.745842e+06
  -1.577442e+06   2.526758e+06
  -1.520762e+06  -6.200496e+05
  -4.793062e+05  -2.319589e+06
   3.403115e+05  -3.076547e+05
  -3.895837e+05   2.806534e+06
  -2.128642e+06   2.298933e+06
  -2.296614e+06  -1.964795e+06
   4.962805e+05  -4.566123e+06
   3.846480e+06  -1.582391e+06
   3.823290e+06   3.950145e+06
  -3.124202e+05   5.803586e+06
  -4.960186e+06   2.171287e+06
  -5.902340e+06  -2.890389e+06
  -2.365679e+06  -4.796130e+06
   2.569649e+06  -2.845293e+06
   4.839364e+06   4.990189e+05
   2.808123e+06   2.537988e+06
  -1.319536e+06   2.080881e+06
  -3.489024e+06  -8.033759e+04
  -1.891178e+06  -1.710117e+06
   1.075289e+06  -1.164233e+06
   1.709801e+06   6.627893e+05
  -4.371352e+05   1.300414e+06
  -2.164934e+06  -1.690663e+05
  -8.598915e+05  -1.987426e+06
   2.271751e+06  -2.026202e+06
   3.870265e+06  -1.040213e+05
   2.253669e+06   2.411016e+06
  -1.289384e+06   4.089306e+06
  -4.251592e+06   3.861693e+06
  -4.953209e+06   1.259267e+06
  -3.328273e+06  -2.560915e+06
  -7.473222e+05  -4.926063e+06
   9.714573e+05  -4.203311e+06
   1.115896e+06  -1.836059e+06
   6.979751e+05  -5.629027e+05
   1.078485e+06  -9.201090e+05
   2.168990e+06  -9.433968e+05
   2.585508e+06   6.313355e+05
   1.454625e+06   2.408566e+06
  -5.564697e+05   2.231411e+06
  -1.972204e+06  -1.270545e+04
  -1.734980e+06  -2.330763e+06
   1.543570e+05  -2.810851e+06
   2.518097e+06  -1.205865e+06
   3.560102e+06   1.242911e+06
   2.361955e+06   2.917765e+06
   2.392584e+04   2.981177e+06
  -1.406185e+06   1.955044e+06
  -1.376124e+06   1.097434e+06
  -1.385457e+06   9.604344e+05
  -2.644495e+06   7.900005e+05
  -4.036332e+06  -3.881827e+05
  -3.362992e+06  -2.383812e+06
  -2.710035e+05  -3.891271e+06
   3.025287e+06  -3.734193e+06
   4.033921e+06  -1.844569e+06
   2.394719e+06   6.695191e+05
  -7.933122e+04   2.164165e+06
  -1.258834e+06   1.647080e+06
  -4.781589e+05  -1.405658e+05
   1.102118e+06  -1.186871e+06
   1.706389e+06  -3.861549e+05
   7.389553e+05   1.037585e+06
  -5.870732e+05   1.062639e+06
  -6.368056e+05  -3.560654e+05
   7.140596e+05  -1.077777e+06
   1.908055e+06   4.025568e+05
   1.452776e+06   2.868256e+06
  -5.717123e+05   3.756944e+06
  -2.765815e+06   2.056519e+06
  -3.682206e+06  -8.329270e+05
  -2.760524e+06  -2.774335e+06
  -6.117904e+05  -2.781885e+06
   1.268028e+06  -1.447012e+06
   1.568102e+06  -1.602150e+05
   4.750901e+05   3.571272e+04
  -3.700942e+05  -7.068377e+05
   2.692379e+05  -1.219292e+06
   1.646945e+06  -6.129796e+05
   1.915109e+06   6.400751e+05
   5.009564e+05   1.243554e+06
  -1.076334e+06   6.313656e+05
  -9.942150e+05  -4.189712e+05
   7.449029e+05  -7.453932e+05
   2.324560e+06   2.538835e+04
   2.034752e+06   1.311463e+06
  -6.421281e+04   2.147765e+06
  -2.246798e+06   1.812373e+06
  -2.709093e+06   3.728441e+05
  -1.194954e+06  -1.110548e+06
   7.716886e+05  -1.349435e+06
   1.343667e+06  -2.102073e+05
   1.520974e+05   9.414327e+05
  -1.405336e+06   7.181934e+05
  -1.695080e+06  -6.437140e+05
  -4.976609e+05  -1.587720e+06
   9.400534e+05  -1.118576e+06
   1.285372e+06   1.135023e+05
   3.859988e+05   7.124606e+05
  -6.894029e+05   1.109909e+05
  -7.008631e+05  -9.670545e+05
   5.532581e+05  -1.350643e+06
   1.922918e+06  -5.142531e+05
   1.949975e+06   9.861312e+05
   4.165679e+05   1.964347e+06
  -1.297411e+06   1.619214e+06
  -1.644371e+06   2.977310e+05
  -5.638983e+05  -8.053225e+05
   5.916767e+05  -8.303682e+05
   6.842255e+05  -6.819278e+04
  -6.382232e+04   4.979800e+05
  -6.028050e+05   3.360742e+05
  -3.363424e+05  -1.351111e+05
   3.514951e+05  -1.483849e+05
   6.083245e+05   4.906737e+05
  -5.507348e+04   1.140858e+06
  -1.275616e+06   9.334048e+05
  -2.019177e+06  -3.300300e+05
  -1.449790e+06  -1.831607e+06
   1.647999e+05  -2.373351e+06
   1.567055e+06  -1.500443e+06
   1.754990e+06   2.321565e+04
   9.896391e+05   9.715450e+05
   3.305761e+05   8.685019e+05
   3.183332e+05   3.272219e+05
   4.741858e+05   2.093826e+05
   9.977566e+04   6.359384e+05
  -7.839332e+05   9.261888e+05
  -1.437216e+06   4.220734e+05
  -1.137692e+06  -7.217967e+05
   1.588888e+05  -1.555872e+06
   1.673069e+06  -1.164661e+06
   2.243467e+06   4.021675e+05
   1.221843e+06   1.996917e+06
  -8.102528e+05   2.323659e+06
  -2.367158e+06   1.151491e+06
  -2.370515e+06  -4.728118e+05
  -1.129499e+06  -1.299827e+06
   1.103525e+05  -1.084492e+06
   4.938444e+05  -6.213270e+05
   2.478089e+05  -6.815668e+05
   1.469138e+05  -1.133787e+06
   5.747203e+05  -1.178205e+06
   1.180592e+06  -3.162098e+05
   1.286569e+06   1.026858e+06
   5.600422e+05   1.829332e+06
  -5.914992e+05   1.402107e+06
  -1.262627e+06   4.617033e+04
  -8.566851e+05  -1.176367e+06
   2.564008e+05  -1.366946e+06
   1.030530e+06  -5.441475e+05
   8.160221e+05   4.890381e+05
   3.486766e+04   9.706771e+05
  -3.607705e+05   8.142667e+05
  -2.466398e+04   4.744849e+05
   3.933986e+05   3.442439e+05
   4.536562e+04   3.804097e+05
  -1.060778e+06   2.547846e+05
  -1.939027e+06  -2.372268e+05
  -1.595254e+06  -9.208549e+05
  -9.403198e+04  -1.338141e+06
   1.405190e+06  -1.125114e+06
   1.742182e+06  -3.785814e+05
   8.722605e+05   3.477237e+05
  -1.837725e+05   5.087396e+05
  -4.714651e+05   9.775321e+04
  -1.392936e+04  -3.290465e+05
   4.590011e+05  -2.303546e+05
   4.582095e+05   3.222867e+05
   1.663382e+05   7.053025e+05
   1.828528e+04   4.536910e+05
   1.523375e+05  -1.532908e+05
   3.465244e+05  -3.518152e+05
   2.901612e+05   2.130930e+05
  -1.671684e+05   9.811905e+05
  -8.443141e+05   1.034769e+06
  -1.204016e+06   1.562164e+05
  -7.402544e+05  -8.553721e+05
   3.665815e+05  -1.030866e+06
   1.139100e+06  -2.772781e+05
   7.033194e+05   5.680268e+05
  -6.503965e+05   6.642639e+05
  -1.592280e+06  -2.216107e+04
  -1.113154e+06  -8.189366e+05
   3.810035e+05  -1.058446e+06
   1.495235e+06  -6.107472e+05
   1.293572e+06   1.140561e+05
   1.807704e+05   5.269805e+05
  -6.249802e+05   3.171402e+05
  -3.570440e+05  -2.470320e+05
   5.914851e+05  -4.697264e+05
   1.132040e+06   1.193601e+05
   5.909243e+05   1.155328e+06
  -6.288742e+05   1.617814e+06
  -1.462838e+06   8.216278e+05
  -1.226271e+06  -7.503991e+05
  -2.093329e+05  -1.764270e+06
   7.153478e+05  -1.320463e+06
   9.342437e+05   1.107900e+05
   4.954894e+05   1.164612e+06
  -1.408160e+05   1.005409e+06
  -5.351371e+05   1.241873e+05
  -5.090818e+05  -3.848050e+05
  -2.128383e+05  -1.614157e+05
  -2.903125e+04   1.155626e+05
  -2.089047e+05  -2.308205e+05
  -4.881372e+05  -9.164207e+05
  -2.658704e+05  -1.080293e+06
   6.222072e+05  -4.260868e+05
   1.462669e+06   4.380418e+05
   1.328100e+06   8.143014e+05
   2.020646e+05   6.703489e+05
  -8.810396e+05   4.053654e+05
  -9.858067e+05   2.087260e+05
  -3.170032e+05  -5.338487e+03
   1.584769e+05  -2.128314e+05
  -2.220937e+04  -2.459628e+05
  -3.173904e+05  -1.387944e+05
  -2.510279e+04  -1.277532e+05
   7.072602e+05  -1.984363e+05
   1.010044e+06   1.633593e+04
   3.395059e+05   6.386059e+05
  -8.598128e+05   1.107304e+06
  -1.597087e+06   7.210658e+05
  -1.295950e+06  -4.227400e+05
  -2.567451e+05  -1.374570e+06
   7.118579e+05  -1.334216e+06
   1.007046e+06  -4.949299e+05
   6.429345e+05   2.560956e+05
   1.081979e+05   3.408853e+05
  -1.123215e+05   1.677707e+04
   6.919186e+04  -6.339356e+04
   3.301295e+05   3.439716e+05
   2.745911e+05   7.915951e+05
  -1.766204e+05   6.487750e+05
  -6.677265e+05  -1.534730e+05
  -6.864339e+05  -9.504380e+05
  -6.145316e+04  -9.824495e+05
   7.524809e+05  -1.862127e+05
   9.855212e+05   7.379472e+05
   3.150569e+05   1.046222e+06
  -6.867602e+05   6.243142e+05
  -1.059472e+06  -7.024797e+04
  -5.022905e+05  -5.454142e+05
   2.561255e+05  -6.144540e+05
   3.173938e+05  -3.620621e+05
  -2.861885e+05  -3.815119e+04
  -6.438496e+05   3.370584e+04
  -1.313168e+05  -2.846800e+05
   7.993897e+05  -6.773732e+05
   1.188911e+06  -5.880586e+05
   7.052675e+05   1.133080e+05
  -8.425313e+04   8.274418e+05
  -4.807856e+05   8.309495e+05
  -3.547917e+05   1.390321e+05
  -2.604559e+04  -4.800422e+05
   2.310567e+05  -3.977146e+05
   3.361979e+05   1.840910e+05
   2.461612e+05   5.598601e+05
  -4.848507e+04   3.737900e+05
  -3.745475e+05  -5.821296e+04
  -4.588292e+05  -2.340720e+05
  -2.438639e+05  -6.400212e+04
   2.177443e+04   1.058999e+05
   9.870959e+04  -2.979952e+04
   5.271195e+04  -3.566390e+05
   1.165603e+05  -4.661517e+05
   3.153110e+05  -1.293856e+05
   3.788041e+05   4.015648e+05
   8.022599e+04   6.160625e+05
  -4.109589e+05   2.831513e+05
  -6.133197e+05  -2.868139e+05
  -2.260907e+05  -5.676801e+05
   4.759631e+05  -3.580605e+05
   8.295446e+05   7.750474e+04
   4.571411e+05   3.607687e+05
  -2.736014e+05   3.603265e+05
  -5.979871e+05   1.917910e+05
  -2.081331e+05   2.238878e+04
   3.744541e+05  -2.276947e+04
   4.032997e+05   1.109944e+05
  -2.070498e+05   3.036420e+05
  -7.839618e+05   2.530388e+05
