
 $NMID
 id='ANONYMOUS ', fmtdat='(2E16.6)'
 volume=1.0
 tramp=1.0
 $END
   4.712050e+07  -2.248856e+06
   2.977939e+07   2.787206e+07
  -4.706021e+06   3.223998e+07
  -2.256134e+07   1.335834e+07
  -1.411948e+07  -5.251061e+06
   2.409747e+06  -7.966055e+06
   8.310480e+06   6.518822e+05
   2.708912e+06   8.101720e+06
  -4.860573e+06   8.072115e+06
  -8.023594e+06   2.041168e+06
  -6.087136e+06  -4.919285e+06
  -1.005743e+06  -7.158495e+06
   3.224021e+06  -2.446852e+06
   2.387358e+06   4.448282e+06
  -2.922291e+06   5.621147e+06
  -6.652335e+06  -8.189817e+05
  -4.114145e+06  -8.374559e+06
   2.707850e+06  -1.002360e+07
   8.218681e+06  -5.341089e+06
   9.116285e+06   1.278187e+06
   5.845006e+06   5.981328e+06
   9.504934e+05   7.203569e+06
  -2.179264e+06   5.207993e+06
  -1.467140e+06   2.367267e+06
   9.645644e+05   1.773622e+06
   3.506458e+05   3.459339e+06
  -4.335080e+06   3.855229e+06
  -8.033991e+06   7.770604e+05
  -6.039430e+06  -3.170260e+06
  -4.165846e+05  -4.200891e+06
   2.986138e+06  -2.277150e+06
   2.041899e+06  -1.165782e+05
  -4.833427e+05   7.721120e+05
  -1.871969e+06   4.640441e+05
  -1.860273e+06  -1.112619e+06
  -7.177062e+05  -3.235896e+06
   1.345130e+06  -3.284718e+06
   2.692932e+06  -6.165670e+04
   1.581835e+06   2.951526e+06
  -5.472119e+05   1.644884e+06
  -3.616668e+05  -2.023519e+06
   1.977879e+06  -2.013539e+06
   2.177509e+06   2.583968e+06
  -1.790135e+06   5.246522e+06
  -5.782798e+06   1.146960e+06
  -4.570179e+06  -5.586572e+06
   1.254443e+06  -7.220733e+06
   6.117337e+06  -2.319090e+06
   5.987881e+06   3.466026e+06
   1.767623e+06   4.992344e+06
  -2.820455e+06   2.400873e+06
  -4.470449e+06  -1.095486e+06
  -2.163085e+06  -2.846194e+06
   1.945043e+06  -1.940737e+06
   3.832821e+06   5.999657e+05
   1.741770e+06   2.208604e+06
  -1.385898e+06   1.215939e+06
  -1.497167e+06  -8.017459e+05
   1.082651e+06  -8.340060e+05
   2.165911e+06   1.373410e+06
  -3.629111e+05   2.927485e+06
  -3.801957e+06   1.797724e+06
  -4.507022e+06  -9.223728e+05
  -2.103929e+06  -3.243291e+06
   1.307999e+06  -4.470297e+06
   4.006805e+06  -4.228870e+06
   5.109440e+06  -1.690488e+06
   3.946474e+06   2.461228e+06
   1.019650e+06   5.125535e+06
  -1.387149e+06   4.072473e+06
  -1.449465e+06   1.097848e+06
  -1.678496e+05  -2.149841e+05
   5.281265e+04   7.939126e+05
  -1.268140e+06   1.536829e+06
  -2.331205e+06   2.962920e+05
  -1.753291e+06  -1.542202e+06
  -8.860550e+04  -1.788426e+06
   1.295528e+06  -2.141399e+05
   1.473452e+06   1.691361e+06
   1.020210e+05   2.461191e+06
  -2.256260e+06   1.484515e+06
  -3.786041e+06  -8.301669e+05
  -2.842547e+06  -3.023519e+06
  -1.380794e+05  -3.543866e+06
   1.798675e+06  -2.372566e+06
   1.832305e+06  -1.048329e+06
   1.523057e+06  -6.450155e+05
   2.464849e+06  -5.059970e+05
   3.689966e+06   4.920251e+05
   3.030145e+06   2.211959e+06
   2.472751e+05   3.472985e+06
  -2.570349e+06   3.390616e+06
  -3.438869e+06   1.923479e+06
  -2.244590e+06  -2.616975e+05
  -3.070336e+05  -1.864580e+06
   8.567342e+05  -1.661457e+06
   4.737283e+05   9.517073e+03
  -8.719555e+05   1.138940e+06
  -1.595578e+06   4.025090e+05
  -8.210678e+05  -9.824577e+05
   3.992454e+05  -9.544288e+05
   3.732996e+05   3.212808e+05
  -8.901251e+05   6.289698e+05
  -1.629975e+06  -1.033895e+06
  -6.650572e+05  -2.943876e+06
   1.251691e+06  -2.949039e+06
   2.640352e+06  -1.037682e+06
   2.845434e+06   1.130240e+06
   1.996315e+06   2.268535e+06
   4.563719e+05   2.187907e+06
  -9.992616e+05   1.272734e+06
  -1.321711e+06   2.432247e+05
  -4.179163e+05  -2.293705e+04
   3.270719e+05   6.252145e+05
  -3.066876e+05   1.152529e+06
  -1.599587e+06   5.555793e+05
  -1.755734e+06  -6.886591e+05
  -3.717360e+05  -1.192919e+06
   9.771448e+05  -5.201678e+05
   7.631718e+05   3.623464e+05
  -7.120634e+05   4.623565e+05
  -1.856714e+06  -2.175466e+05
  -1.506379e+06  -1.103476e+06
   1.617661e+05  -1.672111e+06
   1.905383e+06  -1.464206e+06
   2.338882e+06  -3.152598e+05
   1.073077e+06   1.035513e+06
  -7.292809e+05   1.307425e+06
  -1.319864e+06   2.156245e+05
  -2.101475e+05  -9.097612e+05
   1.261951e+06  -6.742775e+05
   1.481698e+06   6.122516e+05
   3.312327e+05   1.394322e+06
  -9.046548e+05   8.579970e+05
  -1.078025e+06  -2.353650e+05
  -2.275322e+05  -6.616137e+05
   6.787040e+05  -7.250043e+04
   6.605131e+05   8.698952e+05
  -4.400680e+05   1.226028e+06
  -1.682324e+06   5.264590e+05
  -1.759597e+06  -8.230571e+05
  -3.917919e+05  -1.747738e+06
   1.171921e+06  -1.439513e+06
   1.459650e+06  -2.294879e+05
   4.501907e+05   7.244733e+05
  -5.365785e+05   7.002876e+05
  -5.299668e+05   8.247276e+04
   9.741244e+04  -3.035396e+05
   4.080922e+05  -1.804311e+05
   9.187806e+04   5.642141e+04
  -3.946648e+05  -5.883336e+04
  -4.602765e+05  -5.645353e+05
   1.441115e+05  -1.017211e+06
   1.146947e+06  -8.011121e+05
   1.777752e+06   2.870220e+05
   1.303422e+06   1.601130e+06
  -1.081014e+05   2.055866e+06
  -1.325855e+06   1.239970e+06
  -1.430852e+06  -6.235263e+04
  -7.414161e+05  -7.312968e+05
  -2.786691e+05  -5.291202e+05
  -4.139759e+05  -1.580410e+05
  -5.515894e+05  -2.444284e+05
  -1.052637e+05  -6.497097e+05
   7.179105e+05  -7.899422e+05
   1.216856e+06  -3.138597e+05
   9.031561e+05   5.805995e+05
  -1.750412e+05   1.237825e+06
  -1.426630e+06   9.554099e+05
  -1.916163e+06  -3.425776e+05
  -1.021431e+06  -1.747202e+06
   7.888384e+05  -2.039284e+06
   2.129580e+06  -9.498413e+05
   2.011416e+06   4.954756e+05
   8.395807e+05   1.109782e+06
  -1.560300e+05   8.001610e+05
  -3.108032e+05   4.317861e+05
  -2.910095e+04   6.356222e+05
  -3.618156e+04   1.115149e+06
  -5.264421e+05   1.119470e+06
  -1.088710e+06   3.148514e+05
  -1.168935e+06  -8.703903e+05
  -5.329366e+05  -1.585533e+06
   4.794357e+05  -1.236389e+06
   1.088613e+06  -3.669559e+04
   7.277064e+05   1.066320e+06
  -2.930144e+05   1.198057e+06
  -9.828645e+05   3.753616e+05
  -7.149341e+05  -5.767775e+05
   7.598156e+04  -9.251343e+05
   4.411069e+05  -6.822412e+05
   6.521127e+04  -3.523071e+05
  -3.789152e+05  -2.669344e+05
  -6.413947e+04  -3.210077e+05
   9.705668e+05  -2.146062e+05
   1.764302e+06   2.155976e+05
   1.404331e+06   8.302462e+05
   8.643041e+03   1.224736e+06
  -1.317074e+06   1.022668e+06
  -1.547455e+06   2.893520e+05
  -7.227434e+05  -4.029998e+05
   2.050660e+05  -4.964871e+05
   4.364997e+05  -4.176938e+04
   4.522690e+04   3.607505e+05
  -3.622720e+05   2.342360e+05
  -4.204526e+05  -2.729074e+05
  -2.465827e+05  -5.984692e+05
  -1.053561e+05  -3.993397e+05
  -1.141260e+05   7.827650e+04
  -2.224711e+05   2.469011e+05
  -2.394055e+05  -1.893025e+05
   8.346765e+04  -8.354189e+05
   7.260555e+05  -9.346147e+05
   1.156917e+06  -2.037058e+05
   7.637334e+05   7.421124e+05
  -3.105299e+05   9.882336e+05
  -1.057884e+06   3.401006e+05
  -6.415459e+05  -4.565965e+05
   5.766000e+05  -5.708748e+05
   1.344986e+06   3.680247e+04
   8.658108e+05   7.051867e+05
  -3.913373e+05   8.467693e+05
  -1.254652e+06   4.368990e+05
  -1.041877e+06  -1.330946e+05
  -1.234204e+05  -4.297470e+05
   5.442805e+05  -2.436407e+05
   3.403944e+05   2.394206e+05
  -4.700584e+05   4.678601e+05
  -1.004525e+06  -1.650889e+04
  -6.224626e+05  -9.689636e+05
   4.220911e+05  -1.466572e+06
   1.215919e+06  -8.126590e+05
   1.091103e+06   5.907044e+05
   2.369744e+05   1.506594e+06
  -5.829906e+05   1.113904e+06
  -7.886987e+05  -1.281042e+05
  -3.958452e+05  -9.979889e+05
   1.682520e+05  -8.226340e+05
   4.785926e+05  -8.515237e+04
   3.966106e+05   3.028247e+05
   1.304539e+05   1.087815e+05
   4.321264e+04  -7.935241e+04
   2.665321e+05   2.460272e+05
   4.730391e+05   8.031474e+05
   1.836758e+05   9.062175e+05
  -6.095363e+05   3.594262e+05
  -1.262895e+06  -3.414660e+05
  -1.098681e+06  -6.656028e+05
  -1.801059e+05  -5.886320e+05
   6.935804e+05  -3.856816e+05
   8.225664e+05  -1.836939e+05
   3.206538e+05   3.877590e+04
  -1.091553e+05   1.972948e+05
  -4.112889e+04   1.687088e+05
   2.079324e+05   6.237125e+04
   5.530706e+04   1.087966e+05
  -5.300755e+05   2.304628e+05
  -8.895077e+05   3.769233e+04
  -4.236806e+05  -5.695046e+05
   6.461628e+05  -1.041827e+06
   1.422709e+06  -7.259397e+05
   1.237864e+06   2.941314e+05
   2.979876e+05   1.176572e+06
  -5.994639e+05   1.205138e+06
  -8.668853e+05   5.136038e+05
  -5.609032e+05  -1.586569e+05
  -1.374293e+05  -2.977707e+05
   3.703556e+04  -6.978944e+04
  -7.674479e+04   3.761925e+03
  -2.604685e+05  -3.073464e+05
  -2.339206e+05  -6.765225e+05
   1.187766e+05  -5.877685e+05
   5.767960e+05   5.915698e+04
   6.790377e+05   7.589387e+05
   1.677547e+05   8.695594e+05
  -6.117389e+05   2.632654e+05
  -9.141860e+05  -5.445998e+05
  -3.581246e+05  -9.084270e+05
   5.696486e+05  -6.222984e+05
   9.625055e+05   6.636134e+03
   4.922100e+05   5.104525e+05
  -2.132049e+05   6.086764e+05
  -3.240336e+05   3.354751e+05
   1.884874e+05  -8.982164e+03
   5.432488e+05  -6.457967e+04
   1.455558e+05   2.581506e+05
  -6.709793e+05   6.086218e+05
  -1.064468e+06   4.986353e+05
  -6.772132e+05  -1.318345e+05
   4.084475e+04  -7.498416e+05
   4.486771e+05  -7.610758e+05
   3.737544e+05  -1.739585e+05
   7.745644e+04   3.938127e+05
  -1.780754e+05   3.913758e+05
  -3.019310e+05  -8.955941e+04
  -2.444962e+05  -4.771531e+05
   1.821704e+04  -3.823306e+05
   3.335919e+05   1.133338e+04
   4.244632e+05   2.298088e+05
   2.115114e+05   8.336327e+04
  -4.765736e+04  -1.404284e+05
  -7.585469e+04  -6.554805e+04
   5.288041e+04   2.833435e+05
   2.503892e+04   4.869741e+05
  -2.437841e+05   2.357876e+05
  -4.307382e+05  -2.733771e+05
  -1.989913e+05  -5.350962e+05
   3.200915e+05  -2.949069e+05
   5.890092e+05   1.908307e+05
   2.519050e+05   4.650693e+05
  -4.194363e+05   3.374125e+05
  -7.637203e+05  -1.208494e+04
  -4.302525e+05  -2.967929e+05
   2.288152e+05  -3.691753e+05
   5.351280e+05  -2.435760e+05
   2.279809e+05  -3.245570e+04
  -2.651361e+05   8.918025e+04
  -3.370143e+05  -1.168868e+04
   1.109311e+05  -2.385836e+05
   5.856518e+05  -2.630904e+05
