
 $NMID
 id='ANONYMOUS ', fmtdat='(2E16.6)'
 volume=1.0
 tramp=1.0
 $END
  -5.781687e+07  -1.197194e+06
  -3.374391e+07  -3.677487e+07
   8.770566e+06  -3.893184e+07
   2.859333e+07  -1.405414e+07
   1.645298e+07   7.826041e+06
  -3.750721e+06   9.394932e+06
  -9.890540e+06  -1.671194e+06
  -2.412049e+06  -1.000944e+07
   6.584175e+06  -9.156715e+06
   9.823131e+06  -1.675280e+06
   6.984567e+06   6.429842e+06
   7.025985e+05   8.714663e+06
  -4.101287e+06   2.770534e+06
  -2.597423e+06  -5.439494e+06
   3.931472e+06  -6.440254e+06
   7.947357e+06   1.602259e+06
   4.261216e+06   1.048656e+07
  -4.135188e+06   1.191879e+07
  -1.045268e+07   5.833492e+06
  -1.106629e+07  -2.278055e+06
  -6.728001e+06  -7.837919e+06
  -5.517818e+05  -9.012869e+06
   3.262132e+06  -6.214443e+06
   2.163201e+06  -2.566412e+06
  -1.040069e+06  -1.938847e+06
  -3.401367e+05  -4.111318e+06
   5.383473e+06  -4.469750e+06
   9.757934e+06  -5.162943e+05
   7.152331e+06   4.237575e+06
   3.090251e+05   5.217995e+06
  -3.722352e+06   2.716787e+06
  -2.588264e+06   1.377943e+05
   3.871669e+05  -9.061851e+05
   2.122633e+06  -6.033604e+05
   2.243822e+06   1.288679e+06
   8.172858e+05   3.933457e+06
  -1.850394e+06   3.967645e+06
  -3.434433e+06  -9.484449e+04
  -1.804308e+06  -3.802523e+06
   8.839925e+05  -2.096295e+06
   4.544814e+05   2.401961e+06
  -2.464093e+06   2.260196e+06
  -2.385187e+06  -3.312954e+06
   2.703942e+06  -6.174056e+06
   7.231498e+06  -8.072158e+05
   5.100329e+06   7.262868e+06
  -2.196231e+06   8.697084e+06
  -7.649040e+06   2.321553e+06
  -6.927547e+06  -4.627807e+06
  -1.704147e+06  -6.086889e+06
   3.540533e+06  -2.621284e+06
   5.201412e+06   1.656156e+06
   2.304690e+06   3.549402e+06
  -2.530026e+06   2.139545e+06
  -4.566478e+06  -1.060101e+06
  -1.891680e+06  -2.816409e+06
   1.785005e+06  -1.353329e+06
   1.706507e+06   1.061967e+06
  -1.403499e+06   8.241698e+05
  -2.424214e+06  -1.944248e+06
   8.500321e+05  -3.523684e+06
   4.859664e+06  -1.771947e+06
   5.356878e+06   1.577338e+06
   2.234936e+06   4.124742e+06
  -1.889230e+06   5.325403e+06
  -5.075838e+06   4.876822e+06
  -6.289645e+06   1.740215e+06
  -4.660988e+06  -3.239672e+06
  -9.110485e+05  -6.259686e+06
   1.973478e+06  -4.748944e+06
   1.801680e+06  -1.103865e+06
   6.444319e+04   3.322521e+05
  -1.668930e+05  -1.018601e+06
   1.545987e+06  -1.900773e+06
   2.847529e+06  -3.417265e+05
   2.102233e+06   1.872471e+06
   1.048267e+05   2.138741e+06
  -1.495938e+06   2.495833e+05
  -1.668357e+06  -2.023236e+06
  -2.017288e+04  -2.931483e+06
   2.788532e+06  -1.688485e+06
   4.545749e+06   1.204447e+06
   3.267991e+06   3.859271e+06
  -8.962666e+04   4.341062e+06
  -2.392267e+06   2.755622e+06
  -2.322009e+06   1.099933e+06
  -1.864743e+06   6.240208e+05
  -2.946391e+06   4.222264e+05
  -4.342020e+06  -8.196463e+05
  -3.459712e+06  -2.804965e+06
  -9.683249e+04  -4.126113e+06
   3.220843e+06  -3.887166e+06
   4.178602e+06  -2.135479e+06
   2.684548e+06   3.964354e+05
   3.181319e+05   2.244777e+06
  -1.084513e+06   1.967404e+06
  -5.761891e+05  -2.472226e+04
   1.086685e+06  -1.319306e+06
   1.926720e+06  -3.890361e+05
   9.355418e+05   1.230345e+06
  -5.087739e+05   1.118045e+06
  -3.949745e+05  -3.864755e+05
   1.099861e+06  -6.258057e+05
   1.807321e+06   1.408655e+06
   4.986710e+05   3.529041e+06
  -1.724741e+06   3.303518e+06
  -3.146936e+06   9.496079e+05
  -3.210401e+06  -1.520776e+06
  -2.183540e+06  -2.731912e+06
  -4.265853e+05  -2.566267e+06
   1.234453e+06  -1.457970e+06
   1.575194e+06  -2.338779e+05
   4.933459e+05   4.900688e+04
  -3.517569e+05  -7.575623e+05
   4.430014e+05  -1.351118e+06
   1.944581e+06  -5.582096e+05
   2.037047e+06   9.352523e+05
   3.551583e+05   1.439248e+06
  -1.185043e+06   5.528045e+05
  -8.656478e+05  -4.606316e+05
   8.601646e+05  -4.736356e+05
   2.138776e+06   3.740452e+05
   1.681097e+06   1.357658e+06
  -2.821712e+05   1.926622e+06
  -2.312118e+06   1.611134e+06
  -2.774015e+06   2.445287e+05
  -1.209328e+06  -1.293582e+06
   9.513087e+05  -1.518353e+06
   1.594467e+06  -1.752363e+05
   2.026703e+05   1.104797e+06
  -1.535831e+06   7.310300e+05
  -1.711969e+06  -8.116903e+05
  -2.986497e+05  -1.657211e+06
   1.117948e+06  -9.389974e+05
   1.242230e+06   3.535988e+05
   2.129085e+05   7.904963e+05
  -8.145797e+05   3.838957e+04
  -7.370504e+05  -1.071021e+06
   5.843805e+05  -1.433655e+06
   2.021915e+06  -5.403278e+05
   2.043820e+06   1.067341e+06
   3.682018e+05   2.092106e+06
  -1.470501e+06   1.635989e+06
  -1.737064e+06   1.845205e+05
  -4.838822e+05  -8.797029e+05
   6.727823e+05  -7.920342e+05
   6.219380e+05  -7.721745e+04
  -1.273528e+05   3.299976e+05
  -4.650134e+05   1.832037e+05
  -8.022411e+04  -4.630306e+04
   4.607311e+05   1.262870e+05
   4.909601e+05   7.064670e+05
  -2.420663e+05   1.188562e+06
  -1.402073e+06   8.781223e+05
  -2.085505e+06  -4.375744e+05
  -1.456441e+06  -1.965347e+06
   2.338381e+05  -2.421891e+06
   1.621513e+06  -1.384291e+06
   1.667543e+06   1.501873e+05
   8.265602e+05   8.768600e+05
   3.170827e+05   6.052081e+05
   5.106588e+05   2.013909e+05
   6.533081e+05   3.392267e+05
   8.363014e+04   7.885056e+05
  -8.945973e+05   8.878333e+05
  -1.444056e+06   2.986142e+05
  -1.025110e+06  -7.206116e+05
   2.703957e+05  -1.431105e+06
   1.726947e+06  -1.043285e+06
   2.237961e+06   5.050449e+05
   1.102978e+06   2.115861e+06
  -1.056296e+06   2.359379e+06
  -2.571338e+06   9.912085e+05
  -2.332296e+06  -7.029656e+05
  -9.106143e+05  -1.340781e+06
   2.251511e+05  -9.095322e+05
   3.638309e+05  -4.860226e+05
   4.469261e+04  -7.700489e+05
   1.003527e+05  -1.340735e+06
   6.940053e+05  -1.304361e+06
   1.314452e+06  -3.130593e+05
   1.341260e+06   1.091623e+06
   5.496697e+05   1.903079e+06
  -6.294010e+05   1.438259e+06
  -1.284943e+06  -1.585591e+04
  -7.944398e+05  -1.303118e+06
   4.223798e+05  -1.393514e+06
   1.185331e+06  -3.676536e+05
   8.006706e+05   7.427352e+05
  -1.626303e+05   1.091046e+06
  -5.747003e+05   7.667854e+05
  -9.778633e+04   3.996219e+05
   4.407527e+05   3.338845e+05
   6.264442e+04   3.829152e+05
  -1.163742e+06   1.953175e+05
  -2.081215e+06  -3.585221e+05
  -1.612064e+06  -1.062224e+06
   7.256784e+04  -1.448902e+06
   1.627889e+06  -1.133796e+06
   1.843504e+06  -2.484303e+05
   8.173525e+05   5.271123e+05
  -2.802699e+05   5.791086e+05
  -5.178450e+05   1.684530e+04
  -3.255539e+04  -4.420900e+05
   4.375863e+05  -2.647822e+05
   4.852121e+05   3.457017e+05
   2.747953e+05   7.258402e+05
   1.155229e+05   4.850319e+05
   1.317581e+05  -7.942891e+04
   2.594481e+05  -2.767932e+05
   2.699109e+05   2.360954e+05
  -1.334717e+05   9.837506e+05
  -9.095119e+05   1.069125e+06
  -1.398362e+06   1.783483e+05
  -8.788252e+05  -9.270148e+05
   4.266739e+05  -1.163649e+06
   1.285129e+06  -3.529060e+05
   7.397105e+05   5.707139e+05
  -7.127020e+05   6.403347e+05
  -1.577888e+06  -1.162055e+05
  -9.685802e+05  -8.700885e+05
   5.110007e+05  -9.620461e+05
   1.489982e+06  -4.367623e+05
   1.207089e+06   2.122313e+05
   1.194736e+05   5.068619e+05
  -6.530774e+05   2.529387e+05
  -3.910657e+05  -3.072224e+05
   5.784795e+05  -5.389287e+05
   1.194647e+06   6.291539e+04
   7.008199e+05   1.180970e+06
  -5.643712e+05   1.726785e+06
  -1.478885e+06   9.119390e+05
  -1.264144e+06  -7.494092e+05
  -2.079136e+05  -1.791243e+06
   7.401367e+05  -1.280771e+06
   9.176171e+05   1.970369e+05
   4.086265e+05   1.194267e+06
  -2.460899e+05   9.501221e+05
  -5.695421e+05   6.984521e+04
  -4.472038e+05  -3.704964e+05
  -1.424106e+05  -1.262986e+05
  -5.627196e+04   8.666131e+04
  -3.100796e+05  -3.185879e+05
  -5.211480e+05  -9.784955e+05
  -1.629202e+05  -1.070587e+06
   7.482455e+05  -3.836379e+05
   1.473584e+06   4.652405e+05
   1.255304e+06   8.344887e+05
   1.806045e+05   7.056984e+05
  -8.314182e+05   4.281905e+05
  -9.757348e+05   1.750455e+05
  -3.802273e+05  -7.204382e+04
   1.362831e+05  -2.310458e+05
   6.307614e+04  -1.851699e+05
  -2.365558e+05  -7.068658e+04
  -6.449664e+04  -1.338031e+05
   6.301623e+05  -2.586252e+05
   1.057667e+06  -2.768438e+03
   4.869388e+05   7.078129e+05
  -8.106641e+05   1.214289e+06
  -1.731706e+06   7.910521e+05
  -1.467345e+06  -4.127480e+05
  -3.001437e+05  -1.408051e+06
   7.739632e+05  -1.397777e+06
   1.056534e+06  -5.719332e+05
   6.587549e+05   2.084350e+05
   1.522776e+05   3.626396e+05
  -4.296694e+04   9.353638e+04
   8.905363e+04   8.784226e+03
   2.859443e+05   3.759731e+05
   2.393544e+05   8.089482e+05
  -1.689670e+05   6.934941e+05
  -6.829251e+05  -8.987214e+04
  -7.777001e+05  -9.292816e+05
  -1.663617e+05  -1.046934e+06
   7.381883e+05  -2.959314e+05
   1.065601e+06   6.827261e+05
   3.857384e+05   1.098260e+06
  -7.085836e+05   7.174085e+05
  -1.146101e+06  -5.559930e+04
  -5.583117e+05  -6.391919e+05
   2.894930e+05  -7.185441e+05
   4.095640e+05  -3.773455e+05
  -2.173601e+05   1.156052e+04
  -6.450174e+05   5.318868e+04
  -1.615043e+05  -3.167426e+05
   8.230246e+05  -6.865196e+05
   1.286919e+06  -5.259401e+05
   7.988174e+05   2.027394e+05
  -8.674917e+04   8.898396e+05
  -5.787398e+05   8.769127e+05
  -4.646579e+05   1.874863e+05
  -8.004145e+04  -4.699207e+05
   2.318195e+05  -4.608214e+05
   3.586257e+05   1.124092e+05
   2.678319e+05   5.774737e+05
  -4.347034e+04   4.607172e+05
  -3.974438e+05  -2.634960e+04
  -4.900259e+05  -3.003674e+05
  -2.427098e+05  -1.140163e+05
   4.891340e+04   1.778935e+05
   7.696521e+04   9.434867e+04
  -6.389047e+04  -3.413275e+05
  -1.519533e+04  -5.985841e+05
   3.060943e+05  -2.858686e+05
   5.147479e+05   3.430716e+05
   2.249977e+05   6.528056e+05
  -3.922472e+05   3.408773e+05
  -6.977904e+05  -2.531454e+05
  -2.824917e+05  -5.628299e+05
   5.163542e+05  -3.787274e+05
   9.114610e+05   5.114043e+04
   4.978186e+05   3.738708e+05
  -2.933738e+05   4.322670e+05
  -6.533348e+05   2.684885e+05
  -2.789030e+05   2.396409e+04
   3.143758e+05  -1.060926e+05
   4.019607e+05   1.837588e+04
  -1.315088e+05   2.773405e+05
  -6.946376e+05   2.928075e+05
