
 $NMID
 id='ANONYMOUS ', fmtdat='(2E16.6)'
 volume=1.0
 tramp=1.0
 $END
  -4.808977e+07  -1.875678e+06
  -2.793534e+07  -3.027412e+07
   7.125890e+06  -3.203733e+07
   2.370320e+07  -1.218779e+07
   1.400480e+07   5.815025e+06
  -2.804884e+06   7.843035e+06
  -8.390494e+06  -9.168575e+05
  -2.446005e+06  -8.315963e+06
   5.287499e+06  -8.160685e+06
   8.311192e+06  -1.743420e+06
   5.923509e+06   5.573872e+06
   4.724774e+05   7.585120e+06
  -3.597582e+06   2.198439e+06
  -2.229815e+06  -5.027696e+06
   3.347241e+06  -5.819248e+06
   6.766840e+06   1.208341e+06
   3.660449e+06   8.893055e+06
  -3.489894e+06   1.010270e+07
  -8.852056e+06   4.789067e+06
  -9.188739e+06  -2.177470e+06
  -5.281038e+06  -6.655833e+06
  -1.793507e+05  -7.249668e+06
   2.519864e+06  -4.850726e+06
   1.218301e+06  -2.283398e+06
  -1.237679e+06  -2.260583e+06
  -1.858168e+04  -3.991152e+06
   5.185431e+06  -3.721428e+06
   8.702877e+06   2.169829e+04
   6.004872e+06   3.963803e+06
  -1.916181e+05   4.444811e+06
  -3.617061e+06   1.988534e+06
  -2.208595e+06  -3.674370e+05
   8.741488e+05  -1.097594e+06
   2.437500e+06  -3.621392e+05
   2.029672e+06   1.630674e+06
   3.236305e+05   3.721974e+06
  -1.811302e+06   3.240275e+06
  -2.653314e+06  -4.141802e+05
  -1.129029e+06  -3.221498e+06
   7.881896e+05  -1.369387e+06
   1.184135e+05   2.450907e+06
  -2.279237e+06   2.082507e+06
  -2.091600e+06  -2.766465e+06
   2.076476e+06  -5.177672e+06
   5.758697e+06  -6.959107e+05
   4.109554e+06   6.003285e+06
  -1.812671e+06   7.189158e+06
  -6.453786e+06   1.855460e+06
  -6.053983e+06  -4.043026e+06
  -1.625411e+06  -5.369280e+06
   3.098112e+06  -2.425113e+06
   4.721329e+06   1.342377e+06
   2.211924e+06   3.067729e+06
  -2.065287e+06   1.885250e+06
  -3.909618e+06  -8.516127e+05
  -1.669770e+06  -2.355310e+06
   1.506957e+06  -1.141809e+06
   1.570642e+06   9.198263e+05
  -1.024772e+06   8.532207e+05
  -2.089696e+06  -1.347941e+06
   4.146938e+05  -2.755181e+06
   3.812436e+06  -1.534233e+06
   4.491500e+06   1.146348e+06
   1.954054e+06   3.411972e+06
  -1.772523e+06   4.582749e+06
  -4.700172e+06   4.145063e+06
  -5.592661e+06   1.292553e+06
  -3.885158e+06  -3.016908e+06
  -6.065718e+05  -5.529180e+06
   1.682502e+06  -4.231724e+06
   1.477024e+06  -1.207879e+06
   2.129199e+05  -1.168922e+03
   2.695330e+05  -9.949523e+05
   1.754682e+06  -1.484340e+06
   2.665109e+06   7.000462e+04
   1.758547e+06   2.024672e+06
  -1.637259e+05   2.082743e+06
  -1.585563e+06   1.312249e+05
  -1.561440e+06  -2.054410e+06
   1.151768e+05  -2.743994e+06
   2.615346e+06  -1.364274e+06
   3.962642e+06   1.303009e+06
   2.675323e+06   3.468466e+06
  -2.064408e+05   3.669803e+06
  -2.047472e+06   2.258546e+06
  -1.922228e+06   9.498820e+05
  -1.614824e+06   6.365065e+05
  -2.692346e+06   4.354528e+05
  -3.981846e+06  -7.546714e+05
  -3.164122e+06  -2.609792e+06
  -3.804899e+04  -3.830805e+06
   3.090371e+06  -3.550450e+06
   3.976078e+06  -1.823762e+06
   2.450241e+06   5.409979e+05
   1.148086e+05   2.124558e+06
  -1.143068e+06   1.738978e+06
  -5.153136e+05  -8.102485e+04
   1.074361e+06  -1.179779e+06
   1.763404e+06  -3.077126e+05
   7.823016e+05   1.134866e+06
  -5.382804e+05   1.027276e+06
  -4.387376e+05  -3.607574e+05
   9.199099e+05  -6.943020e+05
   1.672583e+06   1.056492e+06
   6.655008e+05   3.107479e+06
  -1.328019e+06   3.185573e+06
  -2.838294e+06   1.162062e+06
  -3.127675e+06  -1.277234e+06
  -2.188785e+06  -2.629287e+06
  -4.105429e+05  -2.503081e+06
   1.214744e+06  -1.350143e+06
   1.497070e+06  -1.600485e+05
   4.589236e+05   5.419026e+04
  -3.176127e+05  -7.106054e+05
   4.048495e+05  -1.220349e+06
   1.759918e+06  -4.847176e+05
   1.854209e+06   8.493483e+05
   3.354818e+05   1.304192e+06
  -1.101945e+06   5.121287e+05
  -8.480338e+05  -4.438492e+05
   7.824797e+05  -5.128836e+05
   2.066668e+06   2.877136e+05
   1.672512e+06   1.300054e+06
  -2.364032e+05   1.881902e+06
  -2.201724e+06   1.532151e+06
  -2.607510e+06   2.022986e+05
  -1.100461e+06  -1.196547e+06
   8.885468e+05  -1.352376e+06
   1.432066e+06  -1.264965e+05
   1.399413e+05   1.001626e+06
  -1.433087e+06   6.442345e+05
  -1.589168e+06  -7.593236e+05
  -3.011227e+05  -1.546826e+06
   1.019438e+06  -9.100845e+05
   1.171277e+06   2.899455e+05
   2.308698e+05   7.236032e+05
  -7.339803e+05   3.298423e+04
  -6.583526e+05  -1.004859e+06
   5.833766e+05  -1.319984e+06
   1.901093e+06  -4.518259e+05
   1.878880e+06   1.039336e+06
   3.081758e+05   1.948886e+06
  -1.378431e+06   1.501296e+06
  -1.614275e+06   1.640578e+05
  -4.564656e+05  -8.179369e+05
   6.313676e+05  -7.408573e+05
   6.106875e+05  -5.459153e+04
  -1.047488e+05   3.628509e+05
  -4.861761e+05   2.165068e+05
  -1.614045e+05  -6.628548e+04
   3.891714e+05   4.483920e+04
   4.797967e+05   6.071351e+05
  -1.984791e+05   1.099571e+06
  -1.307544e+06   8.131085e+05
  -1.941838e+06  -4.325015e+05
  -1.326647e+06  -1.855273e+06
   2.592592e+05  -2.270702e+06
   1.547315e+06  -1.306579e+06
   1.598194e+06   1.384223e+05
   8.165072e+05   8.725775e+05
   3.000459e+05   6.618328e+05
   4.236404e+05   2.488216e+05
   5.510874e+05   3.019969e+05
   6.230454e+04   7.004851e+05
  -8.306247e+05   8.299495e+05
  -1.369297e+06   2.904842e+05
  -9.924295e+05  -7.017544e+05
   2.484076e+05  -1.386172e+06
   1.639917e+06  -9.861316e+05
   2.107698e+06   4.984680e+05
   1.027979e+06   1.990227e+06
  -9.817980e+05   2.190810e+06
  -2.390340e+06   9.204615e+05
  -2.196138e+06  -6.484598e+05
  -8.973150e+05  -1.271342e+06
   1.929694e+05  -9.071635e+05
   3.922890e+05  -4.990451e+05
   1.276520e+05  -7.077618e+05
   1.489974e+05  -1.203891e+06
   6.555186e+05  -1.174808e+06
   1.210515e+06  -2.612534e+05
   1.224980e+06   1.047965e+06
   4.755324e+05   1.792667e+06
  -6.205085e+05   1.334533e+06
  -1.208005e+06  -2.779957e+04
  -7.365121e+05  -1.212163e+06
   3.825792e+05  -1.296043e+06
   1.077505e+06  -3.698017e+05
   7.373154e+05   6.429151e+05
  -1.223255e+05   9.856180e+05
  -4.946602e+05   7.205766e+05
  -7.712403e+04   3.968105e+05
   3.956467e+05   3.307601e+05
   4.568285e+04   3.638464e+05
  -1.072779e+06   1.734583e+05
  -1.915336e+06  -3.550018e+05
  -1.492339e+06  -1.001200e+06
   5.538041e+04  -1.331562e+06
   1.500413e+06  -1.025405e+06
   1.716193e+06  -2.280887e+05
   7.726832e+05   4.615684e+05
  -2.512609e+05   5.169738e+05
  -4.738387e+05   2.768006e+04
  -1.190015e+04  -3.844224e+05
   4.272382e+05  -2.304812e+05
   4.419561e+05   3.316802e+05
   2.092157e+05   6.902728e+05
   6.678036e+04   4.551075e+05
   1.303705e+05  -9.622597e+04
   2.775178e+05  -2.828940e+05
   2.573424e+05   2.220028e+05
  -1.589435e+05   9.298693e+05
  -8.679135e+05   9.798670e+05
  -1.270238e+06   1.236610e+05
  -7.659142e+05  -8.810193e+05
   4.170012e+05  -1.049424e+06
   1.182449e+06  -2.763313e+05
   6.757133e+05   5.578759e+05
  -6.696035e+05   5.950101e+05
  -1.492701e+06  -1.172901e+05
  -9.401876e+05  -8.260669e+05
   4.627738e+05  -9.248871e+05
   1.417425e+06  -4.328338e+05
   1.162115e+06   1.963195e+05
   1.207485e+05   4.872289e+05
  -6.141076e+05   2.428216e+05
  -3.506883e+05  -2.831734e+05
   5.672113e+05  -4.758800e+05
   1.112559e+06   1.075057e+05
   6.009203e+05   1.130561e+06
  -5.985028e+05   1.589959e+06
  -1.419401e+06   8.001032e+05
  -1.167419e+06  -7.406519e+05
  -1.543468e+05  -1.692374e+06
   7.220712e+05  -1.206864e+06
   8.669829e+05   1.810101e+05
   3.848471e+05   1.129078e+06
  -2.216168e+05   9.083162e+05
  -5.292763e+05   6.856058e+04
  -4.345009e+05  -3.643171e+05
  -1.546110e+05  -1.321013e+05
  -4.609332e+04   8.862281e+04
  -2.523232e+05  -2.850871e+05
  -4.581121e+05  -9.208394e+05
  -1.606361e+05  -1.017540e+06
   6.775612e+05  -3.548236e+05
   1.380017e+06   4.673417e+05
   1.190785e+06   8.114082e+05
   1.601931e+05   6.609606e+05
  -8.131534e+05   3.803283e+05
  -9.302121e+05   1.534765e+05
  -3.369481e+05  -5.834088e+04
   1.418677e+05  -2.102974e+05
   3.582864e+04  -1.898631e+05
  -2.496307e+05  -9.131763e+04
  -4.577442e+04  -1.279427e+05
   6.285572e+05  -2.139189e+05
   9.877297e+05   2.978057e+04
   3.969059e+05   6.648140e+05
  -8.146825e+05   1.099007e+06
  -1.618976e+06   6.825888e+05
  -1.327139e+06  -4.334152e+05
  -2.367459e+05  -1.331302e+06
   7.485370e+05  -1.284223e+06
   1.001234e+06  -4.917523e+05
   6.157678e+05   2.282255e+05
   1.214933e+05   3.419402e+05
  -6.664564e+04   6.602932e+04
   7.591859e+04  -1.133231e+04
   2.747145e+05   3.517801e+05
   2.177549e+05   7.656593e+05
  -1.804644e+05   6.392007e+05
  -6.419249e+05  -1.216392e+05
  -6.867282e+05  -9.078007e+05
  -9.833764e+04  -9.783764e+05
   7.135225e+05  -2.291874e+05
   9.696634e+05   6.909802e+05
   3.160595e+05   1.034997e+06
  -6.838089e+05   6.333481e+05
  -1.057829e+06  -8.665959e+04
  -4.938200e+05  -5.913647e+05
   2.839165e+05  -6.408508e+05
   3.691466e+05  -3.403591e+05
  -2.284914e+05  -7.331974e+03
  -6.122820e+05   2.927814e+04
  -1.353370e+05  -2.946707e+05
   7.885301e+05  -6.270700e+05
   1.199051e+06  -4.838438e+05
   7.201545e+05   1.859714e+05
  -1.042430e+05   8.211386e+05
  -5.398312e+05   7.996856e+05
  -4.119307e+05   1.485937e+05
  -4.842066e+04  -4.514496e+05
   2.318751e+05  -4.114921e+05
   3.320609e+05   1.375278e+05
   2.328290e+05   5.483156e+05
  -5.605142e+04   4.086012e+05
  -3.695388e+05  -4.485926e+04
  -4.453347e+05  -2.765033e+05
  -2.260121e+05  -9.820563e+04
   3.167887e+04   1.482783e+05
   7.379136e+04   5.231613e+04
  -1.692069e+04  -3.327451e+05
   4.411628e+04  -5.300694e+05
   3.038219e+05  -2.154885e+05
   4.390526e+05   3.588589e+05
   1.520316e+05   6.162252e+05
  -3.868422e+05   2.963177e+05
  -6.297694e+05  -2.689021e+05
  -2.370564e+05  -5.427632e+05
   4.860421e+05  -3.389881e+05
   8.374372e+05   8.041517e+04
   4.496293e+05   3.629402e+05
  -2.840235e+05   3.795883e+05
  -6.100572e+05   2.134695e+05
  -2.427482e+05   1.362724e+04
   3.211103e+05  -6.888896e+04
   3.831029e+05   5.550514e+04
  -1.537189e+05   2.696794e+05
  -6.933016e+05   2.510124e+05
