
 $NMID
 id='ANONYMOUS ', fmtdat='(2E16.6)'
 volume=1.0
 tramp=1.0
 $END
  -4.868552e+07   5.242941e+05
  -2.998087e+07  -2.895144e+07
   5.314033e+06  -3.274473e+07
   2.334818e+07  -1.385404e+07
   1.470080e+07   4.911529e+06
  -2.295455e+06   8.163891e+06
  -8.665211e+06  -3.018379e+05
  -3.106052e+06  -8.332024e+06
   4.887358e+06  -8.777795e+06
   8.409653e+06  -2.341331e+06
   6.332596e+06   5.406270e+06
   8.292523e+05   7.767211e+06
  -3.580874e+06   2.378923e+06
  -2.519976e+06  -5.143863e+06
   3.134228e+06  -6.230931e+06
   6.985213e+06   8.179627e+05
   4.222175e+06   8.868010e+06
  -3.011207e+06   1.047638e+07
  -8.743242e+06   5.296198e+06
  -9.385731e+06  -1.790530e+06
  -5.594685e+06  -6.456140e+06
  -5.192029e+05  -7.216874e+06
   2.183135e+06  -4.968839e+06
   9.351487e+05  -2.493777e+06
  -1.427102e+06  -2.472447e+06
  -9.331001e+04  -4.197388e+06
   5.272865e+06  -3.984199e+06
   8.960388e+06  -2.569753e+05
   6.281543e+06   3.829461e+06
  -9.922936e+04   4.506759e+06
  -3.696510e+06   2.080038e+06
  -2.227496e+06  -4.110163e+05
   1.043773e+06  -1.215549e+06
   2.655976e+06  -3.810402e+05
   2.134572e+06   1.748067e+06
   3.592298e+05   3.865776e+06
  -1.743671e+06   3.330213e+06
  -2.608490e+06  -3.654254e+05
  -1.195361e+06  -3.180236e+06
   6.961892e+05  -1.300638e+06
   1.208894e+05   2.596215e+06
  -2.289656e+06   2.275971e+06
  -2.310586e+06  -2.701645e+06
   1.753580e+06  -5.394325e+06
   5.706285e+06  -1.068710e+06
   4.461625e+06   5.813748e+06
  -1.414602e+06   7.363132e+06
  -6.446862e+06   2.207781e+06
  -6.431119e+06  -3.844978e+06
  -1.983210e+06  -5.468369e+06
   3.079482e+06  -2.697387e+06
   4.993930e+06   1.124471e+06
   2.499550e+06   3.059522e+06
  -1.985729e+06   2.074675e+06
  -4.052918e+06  -6.413444e+05
  -1.859348e+06  -2.311870e+06
   1.470651e+06  -1.250438e+06
   1.692304e+06   8.731641e+05
  -9.593054e+05   9.996542e+05
  -2.250705e+06  -1.162848e+06
   1.411381e+05  -2.789801e+06
   3.700639e+06  -1.816388e+06
   4.642320e+06   8.574003e+05
   2.202989e+06   3.348895e+06
  -1.623957e+06   4.763244e+06
  -4.696239e+06   4.429920e+06
  -5.690719e+06   1.526853e+06
  -4.066895e+06  -2.945429e+06
  -8.358709e+05  -5.655814e+06
   1.514801e+06  -4.469948e+06
   1.458655e+06  -1.403163e+06
   3.033092e+05  -8.179990e+04
   3.673442e+05  -1.020642e+06
   1.833180e+06  -1.516584e+06
   2.759223e+06   6.915836e+04
   1.847578e+06   2.106793e+06
  -1.642202e+05   2.193981e+06
  -1.704903e+06   1.618501e+05
  -1.716274e+06  -2.135081e+06
   3.908336e+04  -2.873973e+06
   2.666122e+06  -1.483393e+06
   4.112088e+06   1.217882e+06
   2.858335e+06   3.443983e+06
  -5.585237e+04   3.731440e+06
  -1.962871e+06   2.381105e+06
  -1.893742e+06   1.078943e+06
  -1.632474e+06   7.651998e+05
  -2.788593e+06   5.927033e+05
  -4.185195e+06  -6.060109e+05
  -3.412059e+06  -2.588071e+06
  -1.954925e+05  -4.002577e+06
   3.099679e+06  -3.825672e+06
   4.094378e+06  -2.028909e+06
   2.561511e+06   5.042045e+05
   1.582894e+05   2.214022e+06
  -1.152864e+06   1.834316e+06
  -5.349498e+05  -7.605827e+04
   1.085788e+06  -1.265519e+06
   1.821665e+06  -3.906011e+05
   8.475502e+05   1.143264e+06
  -5.363042e+05   1.094492e+06
  -4.999359e+05  -3.627412e+05
   9.096878e+05  -8.139157e+05
   1.820322e+06   9.515536e+05
   9.132172e+05   3.191629e+06
  -1.177583e+06   3.458009e+06
  -2.922201e+06   1.435620e+06
  -3.388395e+06  -1.173910e+06
  -2.447362e+06  -2.700756e+06
  -5.332878e+05  -2.639696e+06
   1.232611e+06  -1.458729e+06
   1.566163e+06  -2.129087e+05
   4.828547e+05   3.978256e+04
  -3.620952e+05  -7.303087e+05
   3.618668e+05  -1.286717e+06
   1.803457e+06  -5.829225e+05
   1.972649e+06   7.949629e+05
   4.184542e+05   1.342387e+06
  -1.129155e+06   5.888796e+05
  -9.210382e+05  -4.321007e+05
   7.947602e+05  -5.942207e+05
   2.203466e+06   1.976508e+05
   1.837946e+06   1.307284e+06
  -1.638856e+05   2.010299e+06
  -2.255896e+06   1.707985e+06
  -2.728716e+06   3.177896e+05
  -1.200745e+06  -1.200940e+06
   8.654600e+05  -1.439593e+06
   1.477117e+06  -1.915218e+05
   1.812762e+05   1.030933e+06
  -1.469604e+06   7.292365e+05
  -1.698282e+06  -7.244991e+05
  -3.925892e+05  -1.611736e+06
   1.024348e+06  -1.014291e+06
   1.250300e+06   2.391518e+05
   2.885917e+05   7.473730e+05
  -7.569977e+05   7.139349e+04
  -7.249364e+05  -1.019353e+06
   5.606748e+05  -1.398001e+06
   1.969557e+06  -5.403411e+05
   2.001863e+06   1.015861e+06
   3.992440e+05   2.024757e+06
  -1.378339e+06   1.627311e+06
  -1.684210e+06   2.418803e+05
  -5.190405e+05  -8.381476e+05
   6.292900e+05  -8.072470e+05
   6.466600e+05  -7.835005e+04
  -9.179519e+04   4.019604e+05
  -5.176243e+05   2.579961e+05
  -1.955132e+05  -7.552213e+04
   4.028931e+05   5.659390e+03
   5.388896e+05   6.014366e+05
  -1.513547e+05   1.159163e+06
  -1.332975e+06   9.064146e+05
  -2.049324e+06  -3.747449e+05
  -1.459501e+06  -1.888884e+06
   1.856585e+05  -2.390959e+06
   1.576818e+06  -1.439544e+06
   1.695158e+06   7.866041e+04
   9.032213e+05   9.014732e+05
   3.351370e+05   7.126164e+05
   4.317448e+05   2.567673e+05
   5.724399e+05   2.821625e+05
   9.262216e+04   7.179886e+05
  -8.336681e+05   9.050008e+05
  -1.428638e+06   3.638560e+05
  -1.076620e+06  -7.048934e+05
   2.041958e+05  -1.478104e+06
   1.684276e+06  -1.104951e+06
   2.232889e+06   4.400522e+05
   1.163234e+06   2.044197e+06
  -9.289201e+05   2.335711e+06
  -2.460617e+06   1.070040e+06
  -2.337617e+06  -5.816838e+05
  -1.010374e+06  -1.303692e+06
   1.619397e+05  -9.794835e+05
   4.100994e+05  -5.497338e+05
   1.289241e+05  -7.359544e+05
   1.163649e+05  -1.248417e+06
   6.338199e+05  -1.246240e+06
   1.249120e+06  -3.190737e+05
   1.318983e+06   1.050829e+06
   5.644648e+05   1.859454e+06
  -6.007969e+05   1.420831e+06
  -1.268781e+06   2.002167e+04
  -8.244600e+05  -1.235495e+06
   3.392036e+05  -1.374736e+06
   1.105683e+06  -4.466536e+05
   8.021490e+05   6.237222e+05
  -7.204641e+04   1.030076e+06
  -4.729208e+05   7.822400e+05
  -6.063342e+04   4.286518e+05
   4.216934e+05   3.344903e+05
   5.836298e+04   3.800873e+05
  -1.111141e+06   2.266313e+05
  -2.011065e+06  -2.921569e+05
  -1.602796e+06  -9.849311e+05
  -7.406348e+03  -1.391454e+06
   1.517174e+06  -1.131790e+06
   1.786712e+06  -3.145829e+05
   8.363681e+05   4.399751e+05
  -2.350719e+05   5.458063e+05
  -4.931291e+05   5.444904e+04
  -2.485219e+04  -3.915113e+05
   4.433223e+05  -2.528006e+05
   4.733556e+05   3.308413e+05
   2.322712e+05   7.146883e+05
   7.608851e+04   4.714306e+05
   1.369087e+05  -1.127397e+05
   2.914892e+05  -3.132023e+05
   2.795678e+05   2.219856e+05
  -1.387641e+05   9.810088e+05
  -8.701716e+05   1.056193e+06
  -1.308853e+06   1.741009e+05
  -8.213418e+05  -8.895299e+05
   3.936407e+05  -1.103677e+06
   1.216430e+06  -3.250638e+05
   7.254412e+05   5.622201e+05
  -6.769903e+05   6.517054e+05
  -1.575450e+06  -6.217055e+04
  -1.032205e+06  -8.322259e+05
   4.421770e+05  -9.996371e+05
   1.477334e+06  -5.219227e+05
   1.238207e+06   1.568819e+05
   1.499637e+05   5.107068e+05
  -6.346604e+05   2.837859e+05
  -3.756353e+05  -2.782940e+05
   5.796727e+05  -5.121877e+05
   1.165272e+06   7.933701e+04
   6.593744e+05   1.162892e+06
  -5.792782e+05   1.679144e+06
  -1.461134e+06   8.805181e+05
  -1.248426e+06  -7.377075e+05
  -2.211058e+05  -1.770347e+06
   7.149991e+05  -1.297659e+06
   9.200938e+05   1.513077e+05
   4.530383e+05   1.170944e+06
  -1.907475e+05   9.691848e+05
  -5.505433e+05   9.661966e+04
  -4.755010e+05  -3.698954e+05
  -1.741579e+05  -1.379149e+05
  -4.288234e+04   9.827098e+04
  -2.654105e+05  -2.800958e+05
  -5.107093e+05  -9.447263e+05
  -2.150315e+05  -1.066158e+06
   6.868419e+05  -4.025549e+05
   1.465626e+06   4.403197e+05
   1.287389e+06   8.102881e+05
   1.938010e+05   6.854815e+05
  -8.464073e+05   4.246290e+05
  -9.736597e+05   1.968705e+05
  -3.501652e+05  -4.179470e+04
   1.439960e+05  -2.238232e+05
   2.293555e+04  -2.084146e+05
  -2.730318e+05  -9.545841e+04
  -4.839554e+04  -1.314431e+05
   6.603854e+05  -2.390603e+05
   1.033527e+06  -1.582403e+03
   4.252822e+05   6.755422e+05
  -8.218976e+05   1.171104e+06
  -1.662431e+06   7.675983e+05
  -1.391175e+06  -4.084760e+05
  -2.905576e+05  -1.386639e+06
   7.346872e+05  -1.369228e+06
   1.028631e+06  -5.437049e+05
   6.524790e+05   2.232442e+05
   1.351080e+05   3.520143e+05
  -7.405707e+04   6.258561e+04
   7.816762e+04  -2.244147e+04
   3.059227e+05   3.571992e+05
   2.594374e+05   7.954720e+05
  -1.675228e+05   6.731112e+05
  -6.762805e+05  -1.119634e+05
  -7.432166e+05  -9.311450e+05
  -1.269489e+05  -1.016575e+06
   7.420454e+05  -2.537355e+05
   1.033692e+06   6.974541e+05
   3.610274e+05   1.070253e+06
  -6.931592e+05   6.794897e+05
  -1.105069e+06  -5.493559e+04
  -5.345212e+05  -5.934741e+05
   2.711758e+05  -6.724121e+05
   3.658925e+05  -3.699978e+05
  -2.471614e+05  -6.126369e+03
  -6.419547e+05   4.979579e+04
  -1.495248e+05  -3.011723e+05
   8.042886e+05  -6.855808e+05
   1.233599e+06  -5.578445e+05
   7.543803e+05   1.597985e+05
  -8.006820e+04   8.599264e+05
  -5.285936e+05   8.553511e+05
  -4.153814e+05   1.665490e+05
  -6.055416e+04  -4.731463e+05
   2.285820e+05  -4.336445e+05
   3.503830e+05   1.404597e+05
   2.615179e+05   5.659804e+05
  -4.421533e+04   4.219575e+05
  -3.870584e+05  -3.744899e+04
  -4.750887e+05  -2.676737e+05
  -2.416652e+05  -9.008867e+04
   3.645315e+04   1.466535e+05
   8.324821e+04   3.943082e+04
  -1.666400e+04  -3.492542e+05
   4.043408e+04  -5.427706e+05
   3.108727e+05  -2.201292e+05
   4.585507e+05   3.664852e+05
   1.660487e+05   6.365601e+05
  -3.975382e+05   3.183269e+05
  -6.615913e+05  -2.633384e+05
  -2.617574e+05  -5.619197e+05
   4.944259e+05  -3.712919e+05
   8.736765e+05   5.730377e+04
   4.808803e+05   3.639080e+05
  -2.822978e+05   4.013250e+05
  -6.268684e+05   2.379852e+05
  -2.471175e+05   2.339457e+04
   3.404340e+05  -7.395532e+04
   4.035697e+05   5.494353e+04
  -1.605521e+05   2.906330e+05
  -7.289345e+05   2.824553e+05
