
 $NMID
 id='ANONYMOUS ', fmtdat='(2E16.6)'
 volume=1.0
 tramp=1.0
 $END
  -3.629114e+07  -1.535158e+06
  -2.119059e+07  -2.192885e+07
   4.741407e+06  -2.371268e+07
   1.734565e+07  -1.001686e+07
   1.073640e+07   3.327361e+06
  -1.634862e+06   5.891873e+06
  -6.351438e+06   1.168502e+04
  -2.443284e+06  -6.059936e+06
   3.468911e+06  -6.734792e+06
   6.254917e+06  -1.856771e+06
   4.724887e+06   4.294981e+06
   4.553144e+05   6.079824e+06
  -2.901712e+06   1.659182e+06
  -1.986863e+06  -4.239389e+06
   2.354814e+06  -4.924883e+06
   5.216381e+06   6.212232e+05
   3.048892e+06   6.749129e+06
  -2.464227e+06   7.827885e+06
  -6.745915e+06   3.691608e+06
  -6.979449e+06  -1.799229e+06
  -3.764606e+06  -5.140984e+06
   1.182881e+05  -5.252184e+06
   1.706598e+06  -3.288596e+06
   2.391736e+05  -1.718310e+06
  -1.528835e+06  -2.236508e+06
   3.169811e+04  -3.655435e+06
   4.554966e+06  -3.080517e+06
   7.264027e+06   1.709393e+05
   4.760203e+06   3.316170e+06
  -4.996309e+05   3.586379e+06
  -3.301393e+06   1.432322e+06
  -1.865052e+06  -7.200470e+05
   1.111169e+06  -1.355483e+06
   2.560760e+06  -3.551311e+05
   1.871025e+06   1.735500e+06
   4.680827e+04   3.363283e+06
  -1.618258e+06   2.469822e+06
  -1.885184e+06  -6.844161e+05
  -5.295970e+05  -2.568765e+06
   7.296137e+05  -6.643522e+05
  -1.274191e+04   2.379636e+06
  -1.855884e+06   1.869507e+06
  -1.730922e+06  -2.023423e+06
   1.273311e+06  -3.909465e+06
   4.025114e+06  -5.708997e+05
   3.030113e+06   4.421080e+06
  -1.231365e+06   5.357115e+06
  -4.914379e+06   1.442789e+06
  -4.957161e+06  -3.042829e+06
  -1.608498e+06  -4.253634e+06
   2.372657e+06  -2.170489e+06
   3.964074e+06   7.779886e+05
   2.050539e+06   2.308593e+06
  -1.448006e+06   1.560116e+06
  -3.059128e+06  -5.063161e+05
  -1.401909e+06  -1.732225e+06
   1.128381e+06  -9.130045e+05
   1.365704e+06   6.601041e+05
  -5.546278e+05   7.991282e+05
  -1.593371e+06  -6.700711e+05
   1.597363e+03  -1.807752e+06
   2.569804e+06  -1.211724e+06
   3.373234e+06   6.049396e+05
   1.610581e+06   2.478109e+06
  -1.425344e+06   3.671662e+06
  -3.930702e+06   3.398769e+06
  -4.587198e+06   9.927892e+05
  -3.055063e+06  -2.533431e+06
  -4.734436e+05  -4.514126e+06
   1.161187e+06  -3.505347e+06
   9.912619e+05  -1.222216e+06
   2.525175e+05  -3.301880e+05
   5.665815e+05  -1.011724e+06
   1.798835e+06  -1.172219e+06
   2.404199e+06   2.897947e+05
   1.496879e+06   1.970872e+06
  -2.606489e+05   1.955365e+06
  -1.565513e+06   1.469980e+05
  -1.495098e+06  -1.850718e+06
   9.024630e+04  -2.416971e+06
   2.258364e+06  -1.108997e+06
   3.264830e+06   1.175954e+06
   2.085734e+06   2.839610e+06
  -2.206145e+05   2.851143e+06
  -1.569925e+06   1.701787e+06
  -1.405919e+06   7.708370e+05
  -1.231116e+06   6.400591e+05
  -2.233654e+06   5.248406e+05
  -3.395837e+06  -4.725537e+05
  -2.785463e+06  -2.110553e+06
  -1.596706e+05  -3.294000e+06
   2.593546e+06  -3.153318e+06
   3.456419e+06  -1.620700e+06
   2.133351e+06   5.233145e+05
   3.942444e+04   1.901328e+06
  -1.052513e+06   1.500238e+06
  -4.472484e+05  -1.029918e+05
   9.373660e+05  -1.038823e+06
   1.490636e+06  -2.931446e+05
   6.446889e+05   9.533472e+05
  -4.782311e+05   9.194653e+05
  -4.649086e+05  -2.674211e+05
   6.277869e+05  -7.198667e+05
   1.410224e+06   5.895589e+05
   8.590034e+05   2.421240e+06
  -7.058807e+05   2.833805e+06
  -2.229536e+06   1.366934e+06
  -2.842154e+06  -7.912860e+05
  -2.170941e+06  -2.202204e+06
  -5.101263e+05  -2.236024e+06
   1.046190e+06  -1.225869e+06
   1.325231e+06  -1.599839e+05
   3.999500e+05   3.456813e+04
  -3.001498e+05  -6.024821e+05
   2.905476e+05  -1.031900e+06
   1.451739e+06  -4.567050e+05
   1.592913e+06   6.315476e+05
   3.508072e+05   1.072362e+06
  -9.195942e+05   4.948171e+05
  -7.951492e+05  -3.391763e+05
   6.075213e+05  -5.375383e+05
   1.840280e+06   7.358297e+04
   1.606835e+06   1.043145e+06
  -6.691564e+04   1.703192e+06
  -1.858226e+06   1.462723e+06
  -2.263582e+06   2.782921e+05
  -9.785438e+05  -9.782401e+05
   7.188850e+05  -1.150552e+06
   1.188331e+06  -1.297553e+05
   1.178119e+05   8.427875e+05
  -1.213409e+06   5.902482e+05
  -1.400221e+06  -5.816663e+05
  -3.564666e+05  -1.315076e+06
   8.040050e+05  -8.619591e+05
   1.027012e+06   1.505957e+05
   2.649382e+05   5.910633e+05
  -6.026918e+05   5.740710e+04
  -5.878935e+05  -8.420078e+05
   4.775217e+05  -1.154285e+06
   1.640071e+06  -4.332513e+05
   1.651436e+06   8.536359e+05
   3.240882e+05   1.670737e+06
  -1.129849e+06   1.338042e+06
  -1.382366e+06   2.089460e+05
  -4.399124e+05  -6.810210e+05
   5.101432e+05  -6.745422e+05
   5.585490e+05  -7.108862e+04
  -4.120989e+04   3.635482e+05
  -4.417370e+05   2.667057e+05
  -2.281928e+05  -4.540103e+04
   2.778515e+05  -3.445653e+04
   4.450526e+05   4.462217e+05
  -9.790139e+04   9.379245e+05
  -1.088191e+06   7.532526e+05
  -1.693485e+06  -3.055324e+05
  -1.203832e+06  -1.563839e+06
   1.532342e+05  -1.989702e+06
   1.301156e+06  -1.222290e+06
   1.424088e+06   3.226022e+04
   8.019459e+05   7.557173e+05
   3.183565e+05   6.496661e+05
   3.410144e+05   2.674450e+05
   4.270325e+05   2.360988e+05
   5.915638e+04   5.699175e+05
  -6.738062e+05   7.508521e+05
  -1.181423e+06   3.274307e+05
  -9.254435e+05  -5.776145e+05
   1.340917e+05  -1.250366e+06
   1.388764e+06  -9.426683e+05
   1.862350e+06   3.517064e+05
   9.818667e+05   1.679805e+06
  -7.402431e+05   1.920925e+06
  -2.007267e+06   8.992020e+05
  -1.939786e+06  -4.420918e+05
  -8.847308e+05  -1.059625e+06
   9.112899e+04  -8.420959e+05
   3.529490e+05  -5.058723e+05
   1.621472e+05  -6.282448e+05
   1.376420e+05  -1.013956e+06
   5.284228e+05  -1.004704e+06
   1.023223e+06  -2.483057e+05
   1.086905e+06   8.799644e+05
   4.631628e+05   1.547628e+06
  -5.048842e+05   1.180767e+06
  -1.053708e+06   2.399944e+04
  -6.860989e+05  -1.006013e+06
   2.579483e+05  -1.126913e+06
   8.751704e+05  -3.877561e+05
   6.417099e+05   4.726415e+05
  -3.909479e+04   8.146490e+05
  -3.495206e+05   6.372216e+05
  -2.714996e+04   3.652797e+05
   3.453400e+05   2.900015e+05
   4.455753e+04   3.208865e+05
  -9.049889e+05   1.864363e+05
  -1.644108e+06  -2.436051e+05
  -1.322696e+06  -8.042593e+05
  -2.246724e+04  -1.124836e+06
   1.233435e+06  -9.167760e+05
   1.464329e+06  -2.734205e+05
   6.890037e+05   3.280306e+05
  -1.885868e+05   4.310104e+05
  -3.941080e+05   5.483617e+04
  -1.047301e+03  -3.083838e+05
   3.817610e+05  -2.070151e+05
   3.881629e+05   2.778572e+05
   1.690177e+05   6.111111e+05
   3.918671e+04   4.029794e+05
   1.091837e+05  -1.119297e+05
   2.525419e+05  -2.896805e+05
   2.354749e+05   1.788967e+05
  -1.249522e+05   8.274910e+05
  -7.239350e+05   8.704310e+05
  -1.063708e+06   1.139450e+05
  -6.511305e+05  -7.527917e+05
   3.382975e+05  -8.918344e+05
   1.003237e+06  -2.360778e+05
   6.006098e+05   4.780321e+05
  -5.542952e+05   5.425425e+05
  -1.313612e+06  -3.452788e+04
  -8.876647e+05  -6.713654e+05
   3.343017e+05  -8.407154e+05
   1.219791e+06  -4.713283e+05
   1.044220e+06   1.027171e+05
   1.400716e+05   4.252183e+05
  -5.196812e+05   2.465078e+05
  -3.004438e+05  -2.270286e+05
   4.998186e+05  -4.173104e+05
   9.740268e+05   8.844326e+04
   5.263582e+05   9.878821e+05
  -5.175237e+05   1.396383e+06
  -1.238174e+06   7.165205e+05
  -1.039842e+06  -6.275646e+05
  -1.789008e+05  -1.482122e+06
   5.929066e+05  -1.093482e+06
   7.645437e+05   1.092324e+05
   3.920524e+05   9.670450e+05
  -1.333444e+05   8.111680e+05
  -4.485402e+05   8.672668e+04
  -4.133349e+05  -3.062240e+05
  -1.651022e+05  -1.139277e+05
  -2.697827e+04   8.466685e+04
  -1.904486e+05  -2.316463e+05
  -4.123896e+05  -7.867369e+05
  -2.006071e+05  -8.845817e+05
   5.468687e+05  -3.286791e+05
   1.224724e+06   3.688370e+05
   1.092016e+06   6.695074e+05
   1.611301e+05   5.661949e+05
  -7.249382e+05   3.570507e+05
  -8.159282e+05   1.716722e+05
  -2.724274e+05  -3.073584e+04
   1.284480e+05  -1.870330e+05
  -5.524088e+03  -1.758468e+05
  -2.546761e+05  -8.352298e+04
  -3.186788e+04  -1.145016e+05
   5.787790e+05  -1.978247e+05
   8.613723e+05   1.074813e+04
   3.171156e+05   5.740864e+05
  -7.170216e+05   9.673621e+05
  -1.380426e+06   6.096507e+05
  -1.134747e+06  -3.707186e+05
  -2.282273e+05  -1.164543e+06
   6.156996e+05  -1.127880e+06
   8.654349e+05  -4.328566e+05
   5.510145e+05   2.003706e+05
   1.012261e+05   2.974846e+05
  -8.650563e+04   4.626981e+04
   5.206383e+04  -3.062760e+04
   2.610687e+05   2.883095e+05
   2.213921e+05   6.607335e+05
  -1.495408e+05   5.574085e+05
  -5.735611e+05  -1.101505e+05
  -6.071741e+05  -8.003005e+05
  -7.490094e+04  -8.554246e+05
   6.415165e+05  -1.914880e+05
   8.583233e+05   6.098526e+05
   2.800407e+05   8.987943e+05
  -5.916386e+05   5.478420e+05
  -9.127965e+05  -6.270167e+04
  -4.242638e+05  -4.881098e+05
   2.361170e+05  -5.390452e+05
   2.915525e+05  -2.949778e+05
  -2.280496e+05  -6.589874e+03
  -5.417279e+05   3.654545e+04
  -1.146663e+05  -2.508206e+05
   6.735460e+05  -5.694600e+05
   1.009519e+06  -4.657935e+05
   6.027148e+05   1.301536e+05
  -7.678939e+04   7.094295e+05
  -4.321249e+05   6.952929e+05
  -3.335372e+05   1.147218e+05
  -4.038016e+04  -4.068334e+05
   2.010913e+05  -3.510196e+05
   2.990738e+05   1.361392e+05
   2.119025e+05   4.753390e+05
  -5.053948e+04   3.375435e+05
  -3.247632e+05  -4.171134e+04
  -3.835345e+05  -2.166168e+05
  -1.964192e+05  -6.592524e+04
   1.531889e+04   1.123771e+05
   5.774661e+04   5.341990e+03
   8.184695e+03  -3.120874e+05
   7.926699e+04  -4.467372e+05
   2.843047e+05  -1.539450e+05
   3.648656e+05   3.387167e+05
   1.041453e+05   5.469660e+05
  -3.460496e+05   2.575022e+05
  -5.427448e+05  -2.405319e+05
  -2.081188e+05  -4.810615e+05
   4.106809e+05  -3.014574e+05
   7.209064e+05   6.603053e+04
   3.933797e+05   3.094567e+05
  -2.435732e+05   3.195030e+05
  -5.262242e+05   1.758490e+05
  -1.935674e+05   9.373480e+03
   3.094718e+05  -5.265389e+04
   3.516017e+05   6.553177e+04
  -1.472515e+05   2.592829e+05
  -6.363649e+05   2.397405e+05
