
 $NMID
 id='ANONYMOUS ', fmtdat='(2E16.6)'
 volume=1.0
 tramp=1.0
 $END
  -2.419320e+07  -1.072880e+04
  -1.555853e+07  -1.282739e+07
   1.276920e+06  -1.577541e+07
   1.104802e+07  -8.658536e+06
   8.159521e+06   5.848625e+05
  -2.250175e+05   4.244622e+06
  -4.672152e+06   1.129380e+06
  -2.739426e+06  -4.031149e+06
   1.751742e+06  -5.665908e+06
   4.412903e+06  -2.165014e+06
   3.582950e+06   2.968271e+06
   4.365457e+05   4.564827e+06
  -2.111438e+06   1.107508e+06
  -1.588575e+06  -3.506103e+06
   1.509891e+06  -4.151259e+06
   3.822998e+06  -6.376056e+04
   2.604529e+06   4.638846e+06
  -1.304806e+06   5.690320e+06
  -4.535962e+06   2.755381e+06
  -4.700016e+06  -1.206129e+06
  -2.332371e+06  -3.336638e+06
   9.843800e+04  -3.080234e+06
   5.498197e+05  -1.899578e+06
  -7.771658e+05  -1.579934e+06
  -1.529274e+06  -2.503732e+06
   3.625907e+05  -3.242181e+06
   3.933377e+06  -2.155444e+06
   5.651282e+06   5.004995e+05
   3.383916e+06   2.602793e+06
  -7.996014e+05   2.480893e+06
  -2.833555e+06   6.278160e+05
  -1.245656e+06  -1.103967e+06
   1.601746e+06  -1.340919e+06
   2.682164e+06   1.686741e+04
   1.445805e+06   1.964724e+06
  -4.445635e+05   2.853267e+06
  -1.341752e+06   1.593219e+06
  -9.113267e+05  -7.957409e+05
   5.662880e+04  -1.674270e+06
   4.116654e+05   9.319243e+04
  -3.896656e+05   2.210837e+06
  -1.541256e+06   1.610685e+06
  -1.462925e+06  -1.300498e+06
   3.415476e+05  -2.827576e+06
   2.277680e+06  -7.650257e+05
   2.133360e+06   2.663435e+06
  -4.365273e+05   3.603088e+06
  -3.315522e+06   1.143491e+06
  -3.908348e+06  -2.101048e+06
  -1.579474e+06  -3.282834e+06
   1.761864e+06  -1.946241e+06
   3.332474e+06   3.286362e+05
   1.952239e+06   1.696369e+06
  -8.400528e+05   1.336775e+06
  -2.277224e+06  -1.186514e+05
  -1.213575e+06  -1.129386e+06
   7.323350e+05  -7.173619e+05
   1.189012e+06   4.561464e+05
  -1.466937e+05   8.836185e+05
  -1.315399e+06   5.050625e+04
  -6.313022e+05  -1.036539e+06
   1.308402e+06  -1.146247e+06
   2.412543e+06  -5.247473e+04
   1.391920e+06   1.562768e+06
  -1.084094e+06   2.725743e+06
  -3.187959e+06   2.515083e+06
  -3.522789e+06   6.071504e+05
  -2.126452e+06  -2.004249e+06
  -2.765479e+05  -3.454357e+06
   7.092281e+05  -2.855388e+06
   6.560944e+05  -1.336254e+06
   4.889119e+05  -6.046390e+05
   9.844445e+05  -8.045907e+05
   1.809242e+06  -6.078053e+05
   1.971843e+06   6.670366e+05
   1.008780e+06   1.940228e+06
  -5.185939e+05   1.721653e+06
  -1.540667e+06  -1.318197e+04
  -1.282209e+06  -1.764015e+06
   1.949759e+05  -2.059540e+06
   1.885781e+06  -7.430496e+05
   2.456038e+06   1.096129e+06
   1.438114e+06   2.159575e+06
  -1.887097e+05   1.981512e+06
  -1.028209e+06   1.172073e+06
  -8.952029e+05   6.587533e+05
  -9.192897e+05   6.648205e+05
  -1.857468e+06   5.482216e+05
  -2.848670e+06  -3.264813e+05
  -2.355507e+06  -1.750012e+06
  -1.321157e+05  -2.795542e+06
   2.262693e+06  -2.638807e+06
   2.996321e+06  -1.229392e+06
   1.737214e+06   6.006823e+05
  -1.553183e+05   1.622083e+06
  -1.010816e+06   1.164543e+06
  -3.492224e+05  -1.384794e+05
   8.433417e+05  -8.352203e+05
   1.224265e+06  -2.274589e+05
   4.729576e+05   7.693794e+05
  -4.632846e+05   7.707819e+05
  -4.890804e+05  -2.346451e+05
   4.277618e+05  -7.885715e+05
   1.272541e+06   1.740424e+05
   1.062504e+06   1.906534e+06
  -2.602046e+05   2.650901e+06
  -1.858910e+06   1.562579e+06
  -2.655087e+06  -5.107742e+05
  -2.060381e+06  -2.001948e+06
  -4.581331e+05  -2.049039e+06
   9.553541e+05  -1.041831e+06
   1.157823e+06  -8.241129e+04
   3.427073e+05   3.389952e+04
  -2.557909e+05  -5.133138e+05
   2.090141e+05  -8.471903e+05
   1.166330e+06  -3.920346e+05
   1.335997e+06   4.730515e+05
   3.417958e+05   8.716038e+05
  -7.718431e+05   4.418474e+05
  -7.327031e+05  -2.992686e+05
   5.053313e+05  -5.556809e+05
   1.679673e+06  -1.734852e+04
   1.510072e+06   9.380286e+05
  -2.146927e+04   1.571494e+06
  -1.635824e+06   1.310052e+06
  -1.961485e+06   2.404148e+05
  -8.313201e+05  -8.073970e+05
   5.824350e+05  -9.289304e+05
   9.473019e+05  -1.055083e+05
   6.884866e+04   6.751972e+05
  -1.022668e+06   4.851605e+05
  -1.205782e+06  -4.759954e+05
  -3.577437e+05  -1.133488e+06
   6.571134e+05  -8.049950e+05
   9.129959e+05   6.444622e+04
   2.847562e+05   4.938805e+05
  -4.795069e+05   6.423712e+04
  -4.794328e+05  -7.085549e+05
   4.317693e+05  -9.640720e+05
   1.404119e+06  -3.304280e+05
   1.387826e+06   7.520543e+05
   2.647345e+05   1.419348e+06
  -9.521926e+05   1.139717e+06
  -1.179851e+06   1.960512e+05
  -4.013230e+05  -5.770539e+05
   4.293851e+05  -5.929135e+05
   5.110128e+05  -4.628622e+04
  -2.391913e+04   3.777446e+05
  -4.448622e+05   2.751552e+05
  -2.901416e+05  -8.280886e+04
   2.089495e+05  -1.262545e+05
   4.253905e+05   3.236657e+05
  -3.848299e+04   8.028429e+05
  -9.228326e+05   6.543307e+05
  -1.448764e+06  -2.661331e+05
  -1.014171e+06  -1.344342e+06
   1.535818e+05  -1.717685e+06
   1.146438e+06  -1.082158e+06
   1.278526e+06   1.513759e+04
   7.433582e+05   7.172642e+05
   2.645179e+05   6.741190e+05
   2.180910e+05   2.861357e+05
   3.025177e+05   1.659802e+05
   4.571951e+04   4.438634e+05
  -5.674578e+05   6.563135e+05
  -1.040627e+06   3.026643e+05
  -8.365009e+05  -5.307790e+05
   1.085998e+05  -1.137938e+06
   1.218303e+06  -8.357761e+05
   1.622043e+06   3.136242e+05
   8.638648e+05   1.447507e+06
  -5.992453e+05   1.650312e+06
  -1.700279e+06   8.013405e+05
  -1.701787e+06  -3.457285e+05
  -8.306021e+05  -9.338765e+05
   5.898123e+04  -8.002719e+05
   3.707027e+05  -4.820695e+05
   2.305943e+05  -5.090227e+05
   1.578288e+05  -8.049372e+05
   4.384332e+05  -8.203602e+05
   8.496769e+05  -1.963609e+05
   9.094782e+05   7.688768e+05
   3.735765e+05   1.335045e+06
  -4.534790e+05   1.006592e+06
  -9.130401e+05   2.004956e+04
  -6.006165e+05  -8.481243e+05
   1.892823e+05  -9.706799e+05
   7.181005e+05  -3.861089e+05
   5.585405e+05   3.337200e+05
   2.187454e+04   6.685203e+05
  -2.411112e+05   5.687118e+05
  -5.649459e+03   3.472892e+05
   2.774092e+05   2.652861e+05
   2.473185e+04   2.808071e+05
  -7.580187e+05   1.649066e+05
  -1.379507e+06  -2.050057e+05
  -1.132055e+06  -6.807721e+05
  -5.659885e+04  -9.434680e+05
   1.015760e+06  -7.714045e+05
   1.249283e+06  -2.548466e+05
   6.168010e+05   2.361660e+05
  -1.381941e+05   3.472280e+05
  -3.295221e+05   6.926417e+04
   1.198280e+04  -2.279669e+05
   3.465438e+05  -1.596092e+05
   3.235158e+05   2.429928e+05
   9.357873e+04   5.296217e+05
  -1.075764e+04   3.404373e+05
   1.069580e+05  -1.224671e+05
   2.608602e+05  -2.734701e+05
   2.087399e+05   1.545346e+05
  -1.420827e+05   7.190807e+05
  -6.288676e+05   7.308229e+05
  -8.594886e+05   6.773024e+04
  -5.003133e+05  -6.450995e+05
   2.928598e+05  -7.225683e+05
   8.273189e+05  -1.562858e+05
   5.004490e+05   4.304713e+05
  -4.742240e+05   4.710727e+05
  -1.153916e+06  -2.582698e+04
  -8.145836e+05  -5.901883e+05
   2.646438e+05  -7.644932e+05
   1.080975e+06  -4.481559e+05
   9.432891e+05   7.859361e+04
   1.350929e+05   3.829298e+05
  -4.497696e+05   2.274723e+05
  -2.449459e+05  -1.823608e+05
   4.504596e+05  -3.268407e+05
   8.249259e+05   1.202813e+05
   3.963798e+05   8.647000e+05
  -5.073911e+05   1.167204e+06
  -1.091858e+06   5.643245e+05
  -8.804016e+05  -5.724898e+05
  -1.229507e+05  -1.289623e+06
   5.347477e+05  -9.569823e+05
   6.726347e+05   8.140750e+04
   3.525651e+05   8.439919e+05
  -9.686884e+04   7.269900e+05
  -3.815583e+05   8.557362e+04
  -3.766863e+05  -2.830890e+05
  -1.672832e+05  -1.169153e+05
  -1.555339e+04   8.445313e+04
  -1.241919e+05  -1.732202e+05
  -3.305306e+05  -6.735125e+05
  -1.931976e+05  -7.820679e+05
   4.389589e+05  -2.915529e+05
   1.058033e+06   3.403409e+05
   9.661380e+05   6.035645e+05
   1.359036e+05   4.857602e+05
  -6.601795e+05   2.863991e+05
  -7.211308e+05   1.435163e+05
  -2.145507e+05  -7.891621e+03
   1.245005e+05  -1.536490e+05
  -3.193060e+04  -1.773946e+05
  -2.497808e+05  -1.050817e+05
  -1.029456e+04  -9.810532e+04
   5.385076e+05  -1.362082e+05
   7.344636e+05   3.607763e+04
   2.096458e+05   4.819442e+05
  -6.661807e+05   7.886154e+05
  -1.169825e+06   4.761181e+05
  -9.194379e+05  -3.524507e+05
  -1.566401e+05  -1.010273e+06
   5.407414e+05  -9.482789e+05
   7.473070e+05  -3.297987e+05
   4.703431e+05   2.055821e+05
   6.515219e+04   2.537208e+05
  -1.017413e+05   9.158936e+03
   3.952316e+04  -5.250636e+04
   2.380353e+05   2.465247e+05
   1.912906e+05   5.761849e+05
  -1.458767e+05   4.667200e+05
  -4.921824e+05  -1.329847e+05
  -4.779359e+05  -7.202283e+05
  -7.433409e+03  -7.243020e+05
   5.693046e+05  -1.117341e+05
   7.058362e+05   5.725359e+05
   1.981821e+05   7.720512e+05
  -5.208646e+05   4.307051e+05
  -7.639353e+05  -8.070750e+04
  -3.393052e+05  -4.010939e+05
   2.056423e+05  -4.270611e+05
   2.271378e+05  -2.459407e+05
  -2.244810e+05  -3.005929e+04
  -4.737532e+05   1.206668e+04
  -8.346442e+04  -2.097681e+05
   5.929141e+05  -4.789232e+05
   8.571206e+05  -4.076842e+05
   4.898069e+05   9.361546e+04
  -8.195604e+04   5.950845e+05
  -3.569555e+05   5.814696e+05
  -2.529964e+05   7.548197e+04
  -5.748464e+03  -3.598381e+05
   1.831081e+05  -2.787077e+05
   2.493296e+05   1.523573e+05
   1.662925e+05   4.136162e+05
  -5.309239e+04   2.615115e+05
  -2.740645e+05  -5.555299e+04
  -3.191797e+05  -1.732351e+05
  -1.710462e+05  -4.359641e+04
   1.306454e+03   7.155223e+04
   5.949402e+04  -3.991610e+04
   5.777603e+04  -2.772077e+05
   1.273384e+05  -3.382911e+05
   2.540974e+05  -6.983938e+04
   2.601032e+05   3.249809e+05
   2.493961e+04   4.655615e+05
  -3.148730e+05   1.954384e+05
  -4.371100e+05  -2.345959e+05
  -1.497056e+05  -4.265737e+05
   3.507489e+05  -2.465886e+05
   5.978259e+05   8.349080e+04
   3.216297e+05   2.742975e+05
  -2.122250e+05   2.470546e+05
  -4.426952e+05   1.136086e+05
  -1.431791e+05   3.822321e+03
   2.931300e+05  -7.461283e+03
   3.054435e+05   9.967389e+04
  -1.628595e+05   2.322647e+05
  -5.944348e+05   1.793232e+05
