
 $NMID
 id='ANONYMOUS ', fmtdat='(2E16.6)'
 volume=1.0
 tramp=1.0
 $END
   3.856790e+07  -3.285853e+05
   2.449206e+07   2.150201e+07
  -2.888086e+06   2.558374e+07
  -1.804233e+07   1.263783e+07
  -1.249381e+07  -2.246064e+06
   9.915623e+05  -6.681530e+06
   7.240388e+06  -9.038279e+05
   3.547614e+06   6.542888e+06
  -3.298176e+06   8.148077e+06
  -6.902721e+06   2.756571e+06
  -5.411019e+06  -4.529914e+06
  -6.772638e+05  -6.777145e+06
   3.120637e+06  -1.820617e+06
   2.274360e+06   4.916874e+06
  -2.462546e+06   5.878567e+06
  -5.866550e+06  -2.262185e+05
  -3.809864e+06  -7.239698e+06
   2.206428e+06  -8.746255e+06
   7.088368e+06  -4.324608e+06
   7.464173e+06   1.671840e+06
   4.054311e+06   5.196148e+06
   1.394344e+05   5.259061e+06
  -1.221893e+06   3.465079e+06
   3.452485e+05   2.329057e+06
   1.809023e+06   3.109962e+06
  -3.187822e+05   4.327278e+06
  -5.328306e+06   3.276565e+06
  -8.130490e+06  -3.674241e+05
  -5.195302e+06  -3.640541e+06
   7.319844e+05  -3.755714e+06
   3.783110e+06  -1.265775e+06
   1.853687e+06   1.114846e+06
  -1.805298e+06   1.572699e+06
  -3.295135e+06   7.488432e+04
  -1.993340e+06  -2.360543e+06
   2.890998e+05  -3.860951e+06
   1.789074e+06  -2.572585e+06
   1.706954e+06   8.073763e+05
   3.816059e+05   2.574112e+06
  -5.762258e+05   3.792739e+05
   3.283583e+05  -2.849868e+06
   2.181967e+06  -2.216870e+06
   2.119155e+06   2.109300e+06
  -9.111760e+05   4.430364e+06
  -4.036064e+06   1.092866e+06
  -3.488762e+06  -4.390229e+06
   8.609892e+05  -5.799378e+06
   5.201601e+06  -1.805667e+06
   5.727504e+06   3.222206e+06
   2.089187e+06   4.848409e+06
  -2.659465e+06   2.672185e+06
  -4.719576e+06  -7.058427e+05
  -2.610061e+06  -2.600555e+06
   1.448864e+06  -1.927324e+06
   3.454046e+06   3.283943e+05
   1.738333e+06   1.820780e+06
  -1.165675e+06   1.081069e+06
  -1.650255e+06  -7.195732e+05
   4.806330e+05  -1.149594e+06
   1.985782e+06   3.679518e+05
   5.296603e+05   1.930482e+06
  -2.468694e+06   1.686373e+06
  -3.793691e+06  -2.480049e+05
  -2.021774e+06  -2.569781e+06
   1.531485e+06  -4.084571e+06
   4.473793e+06  -3.766978e+06
   5.111370e+06  -1.065935e+06
   3.303485e+06   2.802348e+06
   5.322201e+05   5.041655e+06
  -1.173665e+06   4.108096e+06
  -1.117504e+06   1.682458e+06
  -5.616014e+05   5.485844e+05
  -1.006139e+06   1.039041e+06
  -2.232382e+06   1.042965e+06
  -2.690015e+06  -6.267454e+05
  -1.515594e+06  -2.453424e+06
   5.321435e+05  -2.278071e+06
   1.957214e+06  -2.466096e+04
   1.717598e+06   2.321988e+06
  -2.009003e+05   2.826854e+06
  -2.602248e+06   1.167368e+06
  -3.606703e+06  -1.400983e+06
  -2.273800e+06  -3.116311e+06
   1.798844e+05  -3.063380e+06
   1.594940e+06  -1.880975e+06
   1.462485e+06  -9.701583e+05
   1.397873e+06  -8.572905e+05
   2.633110e+06  -6.826327e+05
   3.994045e+06   5.204822e+05
   3.274360e+06   2.475230e+06
   1.661378e+05   3.882563e+06
  -3.109710e+06   3.661822e+06
  -4.093949e+06   1.777210e+06
  -2.426756e+06  -7.178503e+05
   9.394612e+04  -2.204239e+06
   1.303372e+06  -1.663389e+06
   4.939982e+05   1.498223e+05
  -1.131528e+06   1.176111e+06
  -1.724446e+06   3.328032e+05
  -7.134512e+05  -1.082307e+06
   6.030662e+05  -1.061777e+06
   6.070439e+05   3.422829e+05
  -7.112626e+05   9.867106e+05
  -1.780315e+06  -4.994286e+05
  -1.256596e+06  -2.832262e+06
   6.728834e+05  -3.577793e+06
   2.702768e+06  -1.878233e+06
   3.547008e+06   8.945624e+05
   2.665257e+06   2.747270e+06
   5.716675e+05   2.747035e+06
  -1.286941e+06   1.425310e+06
  -1.574076e+06   1.380705e+05
  -4.729089e+05  -4.657030e+04
   3.501468e+05   7.127162e+05
  -3.162503e+05   1.202330e+06
  -1.668802e+06   5.472934e+05
  -1.875923e+06  -7.058386e+05
  -4.463412e+05  -1.247367e+06
   1.083456e+06  -5.935453e+05
   9.696777e+05   4.239376e+05
  -7.349602e+05   6.974476e+05
  -2.265350e+06  -7.135220e+04
  -1.974147e+06  -1.307459e+06
   9.335078e+04  -2.099668e+06
   2.253670e+06  -1.746253e+06
   2.697865e+06  -3.091866e+05
   1.153906e+06   1.142590e+06
  -8.236461e+05   1.325746e+06
  -1.358221e+06   1.574503e+05
  -1.221413e+05  -9.587724e+05
   1.424220e+06  -6.791945e+05
   1.662096e+06   6.848624e+05
   4.466465e+05   1.575073e+06
  -9.503430e+05   1.066422e+06
  -1.250424e+06  -1.485729e+05
  -3.511820e+05  -7.041998e+05
   6.908864e+05  -8.011595e+04
   6.739612e+05   9.875589e+05
  -5.854918e+05   1.339956e+06
  -1.935699e+06   4.715668e+05
  -1.925503e+06  -1.032042e+06
  -3.647514e+05  -1.969588e+06
   1.335515e+06  -1.574885e+06
   1.639048e+06  -2.504885e+05
   5.344196e+05   8.093767e+05
  -6.058986e+05   8.061022e+05
  -6.793637e+05   6.370200e+04
   5.901398e+04  -4.757470e+05
   5.797849e+05  -3.278223e+05
   3.229216e+05   1.063477e+05
  -3.319580e+05   1.094406e+05
  -5.661781e+05  -5.032936e+05
   9.346641e+04  -1.119970e+06
   1.290987e+06  -8.911799e+05
   2.000666e+06   3.783025e+05
   1.400432e+06   1.861039e+06
  -2.147658e+05   2.359203e+06
  -1.579084e+06   1.454449e+06
  -1.728708e+06  -5.314346e+04
  -9.676561e+05  -9.605116e+05
  -3.418243e+05  -8.497412e+05
  -3.398267e+05  -3.423981e+05
  -4.689593e+05  -2.456580e+05
  -7.127215e+04  -6.454666e+05
   8.013588e+05  -8.952622e+05
   1.427062e+06  -3.863286e+05
   1.113379e+06   7.265739e+05
  -1.798452e+05   1.526771e+06
  -1.678490e+06   1.117667e+06
  -2.218032e+06  -4.459894e+05
  -1.162440e+06  -2.007486e+06
   8.694184e+05  -2.278977e+06
   2.377423e+06  -1.073832e+06
   2.327421e+06   5.247854e+05
   1.082829e+06   1.294508e+06
  -1.184450e+05   1.053552e+06
  -4.784240e+05   6.144881e+05
  -2.524425e+05   7.035202e+05
  -1.840491e+05   1.148344e+06
  -6.152608e+05   1.161591e+06
  -1.191961e+06   2.807629e+05
  -1.262324e+06  -1.056002e+06
  -5.186911e+05  -1.837362e+06
   6.199925e+05  -1.386282e+06
   1.254407e+06  -1.758988e+04
   8.158057e+05   1.190055e+06
  -2.941315e+05   1.342541e+06
  -1.029398e+06   4.950526e+05
  -7.769568e+05  -5.189365e+05
   9.496965e+03  -9.562802e+05
   3.846104e+05  -7.791534e+05
   3.021074e+04  -4.590362e+05
  -3.910237e+05  -3.540059e+05
  -3.985477e+04  -3.819656e+05
   1.063153e+06  -2.205681e+05
   1.926662e+06   2.935582e+05
   1.560767e+06   9.573646e+05
   4.664336e+04   1.326110e+06
  -1.437527e+06   1.074705e+06
  -1.736790e+06   3.272264e+05
  -8.402831e+05  -3.691643e+05
   2.066051e+05  -4.990855e+05
   4.665131e+05  -7.837563e+04
  -2.264999e+03   3.388068e+05
  -4.634134e+05   2.267584e+05
  -4.508430e+05  -3.336241e+05
  -1.599795e+05  -7.189094e+05
  -1.464799e+04  -4.652515e+05
  -1.450017e+05   1.467810e+05
  -3.367231e+05   3.483677e+05
  -2.816455e+05  -2.168963e+05
   1.808803e+05  -9.789639e+05
   8.676663e+05  -1.012849e+06
   1.219922e+06  -1.164075e+05
   7.263597e+05   8.852884e+05
  -4.014959e+05   1.025063e+06
  -1.159253e+06   2.473863e+05
  -6.939298e+05  -5.821239e+05
   6.616977e+05  -6.426696e+05
   1.575620e+06   5.460972e+04
   1.079241e+06   8.235870e+05
  -3.972904e+05   1.027393e+06
  -1.481775e+06   5.708076e+05
  -1.270402e+06  -1.338144e+05
  -1.687492e+05  -5.202652e+05
   6.236195e+05  -2.976691e+05
   3.479053e+05   2.604702e+05
  -6.038625e+05   4.648743e+05
  -1.137121e+06  -1.404400e+05
  -5.751493e+05  -1.175189e+06
   6.608098e+05  -1.617099e+06
   1.482772e+06  -7.994356e+05
   1.212601e+06   7.726089e+05
   1.758892e+05   1.763963e+06
  -7.329812e+05   1.298424e+06
  -9.188942e+05  -1.310118e+05
  -4.644369e+05  -1.162215e+06
   1.594859e+05  -9.843527e+05
   5.323429e+05  -1.069463e+05
   4.977320e+05   3.844796e+05
   2.077822e+05   1.543204e+05
   2.989289e+04  -1.095931e+05
   2.027129e+05   2.510501e+05
   4.669909e+05   9.299250e+05
   2.399412e+05   1.069578e+06
  -6.324767e+05   3.975538e+05
  -1.448450e+06  -4.645466e+05
  -1.302329e+06  -8.278723e+05
  -1.846960e+05  -6.719924e+05
   8.836551e+05  -3.961885e+05
   9.817720e+05  -1.899054e+05
   3.136115e+05   2.248231e+04
  -1.617981e+05   2.132090e+05
   1.794470e+04   2.318294e+05
   3.150934e+05   1.299126e+05
   2.522774e+04   1.324153e+05
  -7.088286e+05   1.986399e+05
  -1.012146e+06  -3.694334e+04
  -3.315061e+05  -6.632148e+05
   8.833361e+05  -1.102567e+06
   1.621771e+06  -6.827782e+05
   1.298730e+06   4.607037e+05
   2.324535e+05   1.381597e+06
  -7.435612e+05   1.316102e+06
  -1.024088e+06   4.769311e+05
  -6.427957e+05  -2.641647e+05
  -1.031406e+05  -3.479521e+05
   1.151115e+05  -2.805641e+04
  -6.387782e+04   5.440242e+04
  -3.164758e+05  -3.461700e+05
  -2.557981e+05  -7.912348e+05
   1.911741e+05  -6.479066e+05
   6.708853e+05   1.610149e+05
   6.773614e+05   9.670262e+05
   4.580935e+04   9.963609e+05
  -7.637500e+05   1.827888e+05
  -9.818316e+05  -7.564859e+05
  -2.962262e+05  -1.059619e+06
   7.066269e+05  -6.154683e+05
   1.063004e+06   9.599933e+04
   4.857515e+05   5.652304e+05
  -2.792790e+05   6.125246e+05
  -3.311326e+05   3.468918e+05
   2.846455e+05   3.174719e+04
   6.444834e+05  -2.408947e+04
   1.249777e+05   2.916249e+05
  -8.109990e+05   6.598556e+05
  -1.195841e+06   5.509115e+05
  -6.986851e+05  -1.416145e+05
   1.047742e+05  -8.278186e+05
   5.056080e+05  -8.132180e+05
   3.695158e+05  -1.246055e+05
   2.305156e+04   4.838871e+05
  -2.437861e+05   3.972521e+05
  -3.413270e+05  -1.860835e+05
  -2.356881e+05  -5.658408e+05
   6.349742e+04  -3.789184e+05
   3.774792e+05   6.435142e+04
   4.487139e+05   2.494308e+05
   2.365834e+05   7.160291e+04
  -1.433127e+04  -1.143005e+05
  -8.403323e+04   2.087757e+04
  -4.803970e+04   3.658169e+05
  -1.280809e+05   4.867755e+05
  -3.324022e+05   1.365569e+05
  -3.873791e+05  -4.166440e+05
  -7.670055e+04  -6.336056e+05
   4.191111e+05  -2.816843e+05
   6.165041e+05   3.026471e+05
   2.205891e+05   5.752760e+05
  -4.857372e+05   3.461418e+05
  -8.345875e+05  -9.795624e+04
  -4.512714e+05  -3.726369e+05
   2.879516e+05  -3.579187e+05
   6.116540e+05  -1.810351e+05
   2.133977e+05  -1.139804e+04
  -3.778959e+05   2.911471e+04
  -4.098564e+05  -1.102361e+05
   2.029449e+05  -3.051821e+05
   7.830961e+05  -2.515080e+05
