
 $NMID
 id='ANONYMOUS ', fmtdat='(2E16.6)'
 volume=1.0
 tramp=1.0
 $END
   2.937924e+03  -1.025987e+02
   1.991198e+03   1.331528e+03
   2.798873e+02   1.883726e+03
  -9.554868e+02   1.169313e+03
  -7.441318e+02   2.173772e+02
   8.134497e+01  -3.681936e+02
   4.920718e+02   1.042020e+01
  -1.105691e+02   4.046220e+02
  -3.372673e+02   5.181370e+02
  -6.429492e+02   1.516012e+02
  -3.265771e+02  -3.484208e+02
  -5.681436e+01  -4.876894e+02
   2.090273e+02  -2.553280e+02
   1.860304e+02   2.954210e+02
  -8.083141e+01   3.191236e+02
  -2.804551e+02   2.670029e+01
  -2.233695e+02  -4.185654e+02
   1.563619e+02  -5.505133e+02
   4.667216e+02  -2.209400e+02
   4.262207e+02   1.390708e+02
   1.222690e+02   3.046269e+02
  -7.895082e+01   2.112530e+02
  -1.044702e+02   6.301007e+01
   1.175477e+02   1.079585e+02
   2.098733e+02   3.278341e+02
  -1.039270e+02   2.743004e+02
  -4.097369e+02   1.273647e+02
  -5.043226e+02  -1.082259e+02
  -2.286483e+02  -2.070538e+02
   2.818218e+02  -1.082304e+02
   4.325875e+02   4.542370e+01
   1.205603e+02   2.537963e+02
  -2.423599e+02   2.421309e+02
  -3.843009e+02   1.770837e+02
  -2.692559e+02  -1.048647e+02
  -7.533366e+01  -2.896761e+02
  -2.619411e+01  -1.154012e+02
  -1.829768e+01   7.428554e+01
  -9.342126e+01   1.083709e+02
  -1.428276e+02  -9.870155e+01
  -2.407223e+01  -4.496293e+02
   1.768494e+02  -4.171484e+02
   2.957444e+02   3.850678e+00
   2.835694e+01   2.398724e+02
  -1.436886e+02   1.215679e+02
  -2.542506e+02  -1.624568e+02
   6.100928e+01  -3.101629e+02
   4.211448e+02  -8.778783e+01
   3.125723e+02   3.545972e+02
   1.147617e+02   4.208421e+02
  -2.763540e+02   2.532487e+02
  -4.116084e+02   3.831074e+01
  -2.993662e+02  -2.138077e+02
   6.783214e+00  -1.538408e+02
   2.240728e+02  -6.342165e+01
   1.771453e+02   4.744413e+00
   1.542320e+01  -1.059897e+01
  -2.054037e+01  -6.606512e+01
   5.444712e+01  -3.432199e+01
   1.990696e+02  -5.272775e+01
   1.022936e+02   1.841613e+02
  -1.407328e+02   2.070527e+02
  -2.970161e+02   9.838572e+01
  -2.577072e+02  -1.155736e+02
  -3.075885e+01  -2.738849e+02
   3.109094e+02  -2.367171e+02
   3.798527e+02  -1.550927e+02
   2.394327e+02   1.743167e+02
   6.366889e+01   3.322522e+02
  -1.772150e+01   2.543988e+02
  -4.881351e+01   1.686270e+02
  -5.909284e+01   1.002852e+02
  -1.037452e+02   1.141359e+02
  -1.845096e+02   6.529362e+01
  -1.778983e+02  -1.089827e+02
  -8.555334e+01  -2.441989e+02
   1.131945e+02  -1.387100e+02
   1.299810e+02   2.532943e+00
   1.295016e+02   1.991736e+02
   1.361465e+01   1.790182e+02
  -2.118141e+02   3.013909e+01
  -3.186586e+02  -1.446487e+02
  -9.225474e+01  -2.936978e+02
   2.296612e+00  -2.554637e+02
   1.459235e+02  -9.273694e+01
   1.682851e+02  -1.059911e+02
   1.247476e+02  -6.757756e+01
   2.315536e+02  -5.754568e+01
   3.779277e+02   6.606320e+01
   2.683253e+02   2.853591e+02
  -2.456495e+01   3.899763e+02
  -3.244569e+02   3.587049e+02
  -4.021182e+02   2.010552e+02
  -2.473106e+02  -4.166858e+01
  -1.815088e+01  -2.303477e+02
   4.862700e+01  -1.590051e+02
   1.520300e+01   7.979520e+00
  -9.635689e+01  -4.010382e+00
  -7.172882e+01  -2.878232e+01
  -2.398126e+01  -1.209146e+02
   9.074361e+01  -3.786653e+01
   1.032361e+02   8.458428e+01
  -1.270088e+01   1.279634e+02
  -1.738590e+02   6.043100e+00
  -1.494348e+02  -2.022061e+02
  -2.027676e+01  -2.239850e+02
   2.215954e+02  -1.788819e+02
   2.396713e+02   8.863744e+01
   2.811903e+02   2.410635e+02
   4.255157e+01   2.135801e+02
  -9.310145e+01   1.494160e+02
  -1.485259e+02   2.277753e+00
  -9.129015e+00  -2.358789e+01
   5.989754e+01   6.415406e+01
  -7.525994e+00   9.489918e+01
  -1.167378e+02   8.004316e+01
  -1.351806e+02   1.785329e+00
  -3.642729e+01  -6.231164e+01
   2.592018e+01   2.594723e+01
  -2.115168e+00   8.125827e+01
  -1.691433e+02   4.580796e+01
  -2.549352e+02  -1.049270e+02
  -1.862191e+02  -2.004076e+02
  -1.802514e+01  -2.625474e+02
   2.711773e+02  -2.167028e+02
   2.742271e+02  -8.176414e+01
   9.727645e+01   3.924207e+01
  -4.343776e+01   6.586200e+01
  -3.118810e+01  -1.922951e+01
   5.279740e+01  -3.444795e+01
   1.458454e+02   1.399186e+01
   2.213447e+02   7.334381e+01
   6.809834e+01   1.672205e+02
  -1.042021e+02   1.256051e+02
  -1.360968e+02   4.134372e+01
  -4.778788e+01   1.221810e+01
   3.942748e+01   5.735120e+00
   3.745140e+01   9.504746e+01
  -8.503166e+01   9.062327e+01
  -1.561525e+02   2.510725e+01
  -1.449904e+02  -1.433415e+02
  -1.716616e+01  -1.694968e+02
   1.384525e+02  -2.000971e+02
   1.232632e+02   4.261963e+00
   2.213426e+01   7.224246e+01
  -3.834980e+01   5.817610e+01
  -2.825804e+01   5.699821e+01
   2.740654e+01  -1.454823e+01
   4.358668e+01   1.407997e+01
   6.666191e+00   9.958099e+00
  -8.845050e+01  -3.021867e+01
  -9.898451e+01  -8.133157e+01
  -1.417287e+01  -1.693657e+02
   7.323833e+01  -1.439834e+02
   2.070647e+02  -3.559426e+01
   1.737604e+02   1.537768e+02
   5.359668e+01   1.712029e+02
  -9.426329e+01   1.652575e+02
  -1.382852e+02   2.613294e+01
  -2.521355e+01  -3.103493e+01
  -3.443513e+01  -6.925154e+00
  -3.701675e+01   5.265043e+01
  -7.962935e+01   3.132064e+01
  -4.693760e+01  -5.092701e+01
   2.252323e+01  -6.200222e+01
   1.229558e+02  -6.502081e+01
   1.018402e+02   6.743908e+01
  -5.622505e+01   1.183532e+02
  -2.038023e+02   6.569640e+01
  -1.909634e+02  -8.126250e+01
  -1.117900e+02  -2.242772e+02
   9.314669e+01  -2.196573e+02
   2.082311e+02  -1.511731e+02
   1.899439e+02   9.150234e+01
   7.818457e+01   1.157201e+02
  -1.792639e+01   9.216155e+01
  -7.033100e+01   5.969572e+01
  -5.305890e+01   6.797866e+01
  -5.952646e+01   6.682008e+01
  -5.790649e+01   6.875984e+01
  -1.413215e+02  -1.632295e+01
  -1.077361e+02  -9.211299e+01
   1.001210e+01  -1.919903e+02
   1.730351e+02  -1.688710e+02
   1.497288e+02  -7.224505e+00
   1.100034e+02   1.172632e+02
  -2.013091e+01   7.481608e+01
  -7.516999e+01   6.318763e+01
  -7.671243e+01  -4.645625e+01
  -1.466022e+01  -9.304927e+01
   2.595089e+01  -2.795549e+01
  -2.840449e+01  -5.583410e+00
  -9.161552e+01  -1.012137e+01
  -9.874739e+01  -1.481174e+01
   7.827813e+01  -5.168294e+01
   1.390444e+02   9.803125e+00
   1.064846e+02   5.211140e+01
   2.005651e+01   7.518925e+01
  -1.655236e+02   8.492556e+01
  -1.152215e+02   1.455842e+01
  -4.724203e+01  -9.408575e+01
   6.137577e+01   1.055950e+01
   5.614267e+01   4.408369e+01
   2.805371e+01   5.224084e+01
  -2.191990e+01   5.527277e+01
  -7.346280e+01   1.346628e+01
  -4.899656e+01  -7.758372e+01
  -2.338636e+01  -6.470430e+01
  -2.185528e+01   5.473586e+01
  -2.465764e+01  -1.547492e+01
  -7.196376e+01  -5.099448e+01
   5.550552e+01  -1.067673e+02
   8.982416e+01  -1.270373e+02
   1.416374e+02  -8.576904e+01
   1.223830e+02   3.400907e+01
   2.186088e+01   8.385486e+01
  -8.300985e+01   5.413635e+01
  -1.356627e+01   2.491331e+00
   3.624793e+01  -1.623945e+01
   7.643687e+01  -7.438789e+00
   8.226693e+01   1.160337e+02
  -4.555367e+01   1.117819e+02
  -1.964224e+02   6.386744e+01
  -1.250088e+02  -4.735865e+01
  -2.366882e+01  -8.569693e+01
   4.523622e+01  -6.586887e+01
   1.893159e+01   1.209402e+01
  -5.160812e+01   3.461746e+01
  -6.805235e+01  -3.915613e+01
  -2.679352e+01  -1.226269e+02
   5.685971e+01  -1.615363e+02
   1.314897e+02  -1.068963e+02
   1.266602e+02   6.341833e+01
   5.223243e+01   1.633033e+02
  -4.411711e+01   1.211862e+02
  -8.306758e+01  -9.980034e+00
   1.488650e+01  -1.353178e+02
   1.996013e+01  -7.548570e+01
   1.327057e+01   2.713944e+01
   3.436134e+01   3.637794e+01
   1.436451e+01  -6.380872e+00
   2.218289e+01  -1.752895e+01
   4.159648e+01   4.704558e+01
   5.827811e+01   6.025349e+01
   2.007113e+01   8.151531e+01
  -6.004996e+01   7.253492e+01
  -9.510732e+01  -3.762368e+01
  -1.096515e+02  -9.096242e+01
   6.732860e+00  -7.169868e+01
   5.665073e+01  -4.101740e+01
   7.617135e+01   1.010420e+00
   4.839451e+01  -8.437143e+00
  -5.397102e+01   2.100319e+01
  -3.752834e+01  -8.557522e-01
  -8.917826e+00  -2.719349e+00
   5.857861e+00   1.161948e+01
  -8.247108e+01   1.927209e+00
  -7.732527e+01  -2.457168e+01
  -2.492829e+01  -1.416239e+02
   8.660742e+01  -9.910903e+01
   1.580771e+02  -6.945849e+01
   1.057566e+02   7.687059e+01
   4.411135e+01   1.477252e+02
  -9.689867e+01   1.313536e+02
  -8.459071e+01   7.865949e+01
  -9.041049e+01  -3.308707e+00
   1.357251e+00  -2.625165e+01
  -2.766416e+00  -1.953923e+00
   1.020328e+01  -9.889276e+00
  -4.775299e+01  -1.999557e+01
  -2.985125e+01  -6.332492e+01
   4.309015e+01  -5.488401e+01
   6.059746e+01   4.039781e+01
   5.506298e+01   8.245355e+01
   1.412146e+01   1.157074e+02
  -4.366292e+01   8.999048e+00
  -9.708901e+01  -1.492075e+01
  -6.746050e+01  -8.940627e+01
  -4.604035e+00  -6.076910e+01
   9.968677e+01  -4.519286e+00
  -1.694435e+01   4.415158e+01
  -6.499651e+01   4.834901e+01
  -1.571233e+01   8.475330e+00
   4.454079e+01  -4.210057e+01
   3.763966e+01  -4.390695e+00
   1.061520e+01   5.270959e+01
  -1.073201e+02   6.388652e+01
  -1.183486e+02   7.728049e+01
  -7.392644e+01   1.954480e+01
   3.163928e+01  -6.907241e+01
   1.478203e+01  -6.087933e+01
  -8.602846e+00  -1.625132e+01
   4.204438e+01   4.226695e+01
   9.458669e+00   8.671542e+01
  -1.326084e+01  -8.249332e+00
  -4.403128e+01  -3.950944e+01
   7.330519e+01  -3.343549e+01
   3.819658e+01   4.921128e+01
   4.545097e+01   3.850199e+01
   4.695620e+00   7.214112e+00
  -5.330772e+01  -1.353534e+01
  -2.012732e+01   4.521616e+01
   1.115700e+01   7.112258e+01
  -1.849348e+01   2.759539e+01
  -2.393309e+01   6.116720e+01
   7.592652e+00  -2.270853e+01
  -5.542350e+01  -2.579764e+01
   2.908819e+01   3.491895e+00
   3.655711e+01   5.141507e+01
   1.974205e+01   8.404587e+01
  -5.842213e+01   5.687783e+00
  -8.068550e+01   9.156199e+00
  -5.023978e+01  -3.298732e+01
   1.993623e+01  -3.852818e+01
   5.733529e+01   9.745009e+00
   2.662461e+01  -1.433728e+01
  -3.598817e+01  -1.113555e+01
  -4.204741e+01  -1.634799e-01
   1.873200e+01  -3.826838e+01
   8.820372e+01  -1.566324e+01
