
 $NMID
 id='ANONYMOUS ', fmtdat='(2E16.6)'
 volume=1.0
 tramp=1.0
 $END
  -3.297014e+03  -1.706877e+02
  -2.025645e+03  -1.975002e+03
   5.076638e+02  -1.801672e+03
   1.307213e+03  -1.093061e+03
   8.404865e+02   1.317333e+01
  -2.424018e+02   1.288743e+02
  -4.169877e+02  -2.337520e+02
   5.622546e+01  -7.439051e+02
   5.264233e+02  -4.247374e+02
   5.886077e+02   4.120419e+01
   3.812680e+02   7.128998e+02
  -6.064844e+01   8.507834e+02
  -3.760633e+02   1.604678e+02
  -3.116566e+02  -5.226522e+02
   2.202877e+02  -5.780484e+02
   4.607166e+02  -2.740390e+01
   2.085177e+02   5.424132e+02
  -2.062871e+02   5.920162e+02
  -5.461743e+02   2.135412e+02
  -4.185134e+02  -2.489292e+02
   3.072098e+00  -4.071178e+02
   1.867890e+02  -2.207479e+02
   1.568338e+02  -9.055195e+01
  -2.055786e+02  -1.007171e+02
  -3.164721e+02  -2.747024e+02
  -3.047450e+01  -3.437090e+02
   4.334438e+02  -1.496213e+02
   6.877809e+02   1.425025e+02
   1.980381e+02   4.415606e+02
  -3.423903e+02   2.466623e+02
  -4.703187e+02  -1.189364e+02
  -2.410092e+02  -3.347757e+02
   2.357290e+02  -3.375624e+02
   3.826890e+02  -9.375781e+01
   2.646456e+02   2.323795e+02
   3.008612e+01   2.946197e+02
  -5.509763e+01   2.266671e+02
   9.237900e-01  -9.520609e+01
   2.005059e+02  -1.543539e+02
   2.525170e+02   1.599449e+02
   4.300827e+01   4.763322e+02
  -3.328700e+02   4.828223e+02
  -3.975903e+02  -1.179812e+02
  -1.526967e+02  -4.145340e+02
   1.668989e+02  -1.533776e+02
   1.353875e+02   2.302769e+02
  -1.397558e+02   4.082190e+02
  -3.817051e+02   1.103532e+02
  -4.948506e+02  -3.527444e+02
  -1.341198e+02  -5.668998e+02
   3.507144e+02  -1.914141e+02
   4.279659e+02   1.461670e+02
   3.062473e+02   2.595948e+02
  -7.611714e+01   2.621999e+02
  -3.818018e+02   2.818889e+01
  -2.172283e+02  -8.796854e+01
   3.867325e+01   5.939486e+00
   7.033104e+01   1.279411e+02
  -1.142301e+02   9.776759e+01
  -2.149959e+02  -1.244976e+02
  -1.330132e+02  -2.169684e+02
   1.541988e+02  -2.337246e+02
   3.530369e+02  -5.726701e+01
   2.014412e+02   6.898441e+01
  -6.428158e+01   2.759869e+02
  -2.534733e+02   3.315980e+02
  -3.329363e+02   1.717758e+02
  -2.211374e+02  -1.582544e+02
  -2.741848e+01  -2.915232e+02
   3.190250e+01  -2.811171e+02
   2.229074e+01  -1.121517e+02
  -1.877390e+00  -2.172862e+01
   1.061420e+02  -1.530483e+02
   2.210251e+02  -4.033872e+01
   2.302180e+02   1.396786e+02
   6.668021e+01   2.549631e+02
  -1.346446e+02   2.010493e+02
  -2.130637e+02  -5.399788e+01
  -8.341646e+01  -2.668340e+02
   3.068179e+00  -1.683427e+02
   2.560161e+02  -6.609082e+01
   2.291253e+02   1.560949e+02
   1.148168e+02   2.229359e+02
  -8.884111e+01   2.263149e+02
  -2.055493e+02   1.393414e+02
  -1.208722e+02   7.192809e+01
  -1.362355e+02   2.830276e+01
  -2.284317e+02   3.894238e+01
  -3.872472e+02  -5.202657e+01
  -2.512276e+02  -2.622103e+02
   2.086661e+01  -3.929742e+02
   3.462516e+02  -3.091408e+02
   4.734619e+02  -1.948337e+02
   2.812801e+02   1.560660e+02
   1.800053e+01   2.636691e+02
  -1.292005e+02   1.963174e+02
  -3.258378e+01   6.395992e+01
   1.249795e+02   4.511928e+00
   1.368691e+02   6.025871e+01
   1.403152e+01   1.718370e+02
  -1.025657e+02   8.648701e+01
  -1.023757e+02  -4.140710e+01
   3.851117e+01  -1.335181e+02
   1.766881e+02   9.643841e+00
   9.807377e+01   2.132378e+02
  -5.851734e+01   2.970160e+02
  -2.553126e+02   1.401662e+02
  -3.399433e+02  -8.831714e+01
  -2.563404e+02  -2.800189e+02
  -6.368379e+01  -2.760529e+02
   1.534034e+02  -1.446702e+02
   1.318266e+02   5.449292e+01
   6.725790e+01   4.803344e+00
  -4.647125e+01  -3.601213e+01
   8.316057e-02  -1.378829e+02
   9.948584e+01  -8.253842e+01
   1.228341e+02   6.554222e+01
   1.085607e+01   7.902824e+01
  -8.027507e+01  -1.552319e+01
  -3.428150e+01  -8.599014e+01
   1.643463e+02  -5.316113e+01
   2.898378e+02   1.037516e+02
   2.594118e+02   1.611384e+02
   5.893259e+01   2.225681e+02
  -1.721624e+02   2.305837e+02
  -2.862621e+02   9.526918e+01
  -1.917235e+02  -4.325217e+01
   2.711722e+01  -7.653305e+01
   1.018691e+02  -2.216347e+01
  -4.610307e+01   7.195439e+01
  -2.222708e+02  -1.209587e+01
  -9.828724e+01  -5.752836e+01
  -5.292085e+01  -2.031663e+02
   8.272647e+01  -1.188025e+02
   1.296716e+02   9.411187e+00
   6.832355e+01   4.782752e+01
  -5.112841e+00   3.192797e+00
   3.998886e+00  -1.431919e+02
   8.433686e+01  -1.332768e+02
   1.968135e+02   1.639895e+01
   2.026254e+02   1.677015e+02
  -2.028830e+01   2.325431e+02
  -1.299004e+02   1.155954e+02
  -1.918741e+02  -4.817029e+01
  -5.766905e+01  -7.716983e+01
   2.150951e+01  -7.294877e+01
   5.456774e+01  -5.533005e+00
  -4.830008e+00   2.554386e+01
  -4.731020e+01   3.763002e+01
   2.733304e+01  -6.947539e+01
   9.634707e+01  -1.171244e+01
   1.224404e+02   1.158248e+02
  -3.749551e+01   2.348209e+02
  -1.337673e+02   1.294328e+02
  -2.303144e+02  -2.763944e+01
  -2.124238e+02  -1.741710e+02
   5.153202e+00  -2.344417e+02
   9.661649e+01  -1.765187e+02
   1.662473e+02  -5.003904e+01
   6.960840e+01   4.631163e+01
   3.081921e+01   3.099081e+01
   6.546140e+01  -5.379270e+01
   5.666871e+01  -2.599139e+01
   4.181533e+01   7.814167e+01
  -4.707830e+01   7.828078e+01
  -9.422808e+01   5.367348e+01
  -9.689014e+01  -2.354537e+01
   3.476835e+01  -1.122662e+02
   1.618139e+02  -8.617770e+01
   1.915881e+02   7.624296e+01
   6.097099e+01   1.560780e+02
  -6.867070e+01   1.848395e+02
  -2.215785e+02   9.661650e+01
  -2.011204e+02  -1.163434e+02
  -4.563757e+01  -2.071004e+02
   1.664624e+01  -1.348841e+02
   9.124419e+01  -7.228832e+01
   7.803233e+01  -5.459026e+01
   6.626644e+01  -1.037324e+02
   9.072706e+01  -9.923439e+01
   1.250523e+02   4.207967e+01
   8.389423e+01   1.477266e+02
   3.585655e+00   2.073642e+02
  -9.316068e+01   1.396916e+02
  -1.422461e+02   2.859036e+01
  -1.445236e+02  -1.396097e+02
   1.692453e+01  -1.694665e+02
   5.088070e+01  -8.933855e+01
   4.688659e+01   4.655222e+00
   5.749469e+00   1.486349e+01
  -1.545464e+01   4.039813e+01
   1.154101e+01   3.212042e+01
   1.155809e+02   4.311725e+01
   3.172616e+00   1.901056e+01
  -9.282660e+01   5.704726e+01
  -1.728763e+02  -8.211238e+00
  -1.155563e+02  -5.936987e+01
  -2.846801e+01  -1.309530e+02
   1.439123e+02  -6.891063e+01
   1.253364e+02  -3.157421e+00
   3.143680e+01   5.034929e+01
  -5.710433e+01   1.348827e+01
  -5.785781e+01  -1.749459e+01
   2.255927e+01  -7.131108e+01
   4.178749e+01  -3.578963e+01
   5.728924e+01  -5.468364e+00
   5.315727e+01   6.848758e+01
   2.165488e+01   3.454434e+01
   5.178628e+01  -4.469421e+01
   1.226933e+02   2.116123e+01
   3.388943e+01   8.540435e+01
  -4.326234e+01   1.381732e+02
  -1.337410e+02   1.270642e+02
  -1.278719e+02   1.548073e+01
  -1.512288e+02  -1.182481e+02
   3.448379e+01  -1.241355e+02
   7.943290e+01  -7.474106e+01
   6.504064e+01   5.406363e+00
  -9.164110e+01   1.417350e+01
  -1.401846e+02  -6.628009e+01
  -4.485460e+01  -8.962697e+01
   9.469245e+01  -8.853446e+01
   1.784637e+02  -6.019769e+01
   1.962983e+02   1.618327e+01
   2.573540e+01   8.839127e+01
  -8.717723e+01   2.320686e+01
  -5.456813e+01   3.930073e+00
   4.737403e+01  -3.796916e+01
   7.586896e+01   2.508907e+01
   1.313470e+01   1.059338e+02
  -4.279890e+01   1.732130e+02
  -1.577369e+02   6.514058e+01
  -6.919042e+01  -5.678606e+01
  -6.378407e+01  -1.767001e+02
   1.251034e+02  -1.127998e+02
   1.075325e+02   6.001079e+01
   3.748453e+01   1.206130e+02
   1.715584e+00   6.849543e+01
  -3.695104e+01   6.004616e+00
  -2.060175e+01  -4.470420e+01
  -2.733666e+00  -3.591260e+01
  -5.527354e+01   1.251419e+01
  -4.699170e+01  -8.160527e+00
  -1.790811e+01  -7.944699e+01
  -2.838494e+00  -1.211549e+02
   2.074191e+01  -1.930872e+01
   9.299568e+01   4.435490e+01
   1.219510e+02   1.133452e+02
   4.026606e+01   6.472361e+01
  -1.087970e+02  -1.154336e+01
  -4.813944e+01   1.909401e-02
   2.542135e+01  -2.719447e+01
   6.672029e+01  -2.721466e+01
   2.263563e+01  -3.969075e+00
   1.134959e+01   9.658300e+00
   1.103016e+01   3.592177e+01
   5.335007e+01   2.114759e+00
   1.179514e+02   1.912903e+01
   1.706635e+00   6.089078e+01
  -5.794617e+01   7.117822e+01
  -1.855607e+02   7.259701e+01
  -1.739249e+02  -9.071857e+01
   1.403489e+00  -1.768085e+02
   8.894225e+01  -1.258081e+02
   1.565539e+02  -4.707622e+01
   6.047868e+01   5.161279e+01
  -3.431248e-01  -1.056127e+01
   1.335695e+01  -2.217159e+01
   3.709543e+01  -7.252380e+00
   5.033404e+01   8.901504e+01
   1.199174e+01   8.577041e+01
  -3.643906e+01   6.144143e+01
  -7.588134e+01   1.326476e+01
  -5.875171e+01  -5.595507e+01
  -6.196708e+01  -7.213600e+01
   1.136409e+02  -2.825503e+01
   1.131165e+02   8.146634e+01
   3.763450e+00   6.901109e+01
  -6.936248e+01   5.061221e+01
  -1.015894e+02  -3.345923e+00
  -1.033992e+02  -2.295174e+01
   3.751366e+01  -5.566351e+01
   3.692182e+01  -2.149418e+01
  -8.530156e+00   3.260693e+00
  -5.015173e+01   2.614876e+01
  -3.954935e+01  -5.465447e+01
   9.902024e+01  -5.093630e+01
   1.081944e+02  -5.326572e+00
   8.782668e+01   4.802508e+01
   5.499048e+00   1.017829e+02
  -3.503022e+01   7.921277e+01
  -4.245025e+01  -1.604602e+01
   2.672292e+01  -1.295586e+01
   3.519097e+01  -9.033981e+01
   6.334153e+00   4.008734e+01
  -7.831805e+00   4.552028e+01
   1.463340e+00   4.306909e+01
  -4.382137e+01   1.436233e+01
  -7.189955e+01  -3.032608e+01
  -3.695664e+01  -1.498335e+01
   3.828952e+01   1.999163e+01
  -2.074063e+00   1.575000e+01
   2.177314e+01  -1.681692e+01
  -1.095968e+01   1.916429e+00
   1.677004e+01   1.053026e+01
   2.510546e+01   3.763834e+01
   5.604027e+00   2.730717e+01
  -3.958528e+01   4.479064e+01
  -5.830478e+01  -7.594956e+01
  -3.157768e+01  -7.741345e+01
   5.118254e+01  -1.768600e+01
   5.332681e+01   1.583489e+01
   1.697027e+01   2.977882e+01
  -4.063446e+01   3.207192e+01
  -7.039683e+01  -5.829666e+00
  -4.563498e+01   3.460819e+00
   3.912069e+00  -1.033773e+01
  -1.127972e+01   1.068356e+01
  -2.642350e+01   3.847810e+01
  -6.603386e+01   1.841765e+00
