
 $NMID
 id='ANONYMOUS ', fmtdat='(2E16.6)'
 volume=1.0
 tramp=1.0
 $END
  -2.493910e+03  -5.735042e+00
  -1.953133e+03  -1.300412e+03
  -3.833390e+02  -1.493660e+03
   1.073038e+03  -1.357003e+03
   6.945506e+02  -1.341998e+02
   1.438964e+02   2.172337e+02
  -2.551043e+02  -1.225821e+02
  -1.164105e+02  -3.647389e+02
   2.322919e+02  -5.183041e+02
   5.172453e+02  -9.944603e+01
   4.365506e+02   4.662074e+02
  -1.618913e+02   6.259266e+02
  -2.327885e+02   2.189690e+02
  -2.808780e+02  -3.098833e+02
   6.577248e+01  -5.081901e+02
   3.727946e+02  -7.683910e+01
   3.097610e+02   3.956740e+02
  -1.264361e+02   5.350398e+02
  -3.643497e+02   2.805121e+02
  -3.385985e+02  -1.387228e+02
  -1.675607e+02  -3.033316e+02
   6.041393e+01  -2.293214e+02
   1.756190e+01  -9.401251e+01
  -1.163389e+02  -7.417073e+01
  -2.464650e+02  -2.679457e+02
  -1.362239e+01  -2.773896e+02
   3.397945e+02  -1.507623e+02
   6.529617e+02   1.308744e+02
   1.704800e+02   2.368665e+02
  -2.686374e+02   1.638678e+02
  -3.848715e+02  -3.567402e+01
  -2.125194e+02  -3.730850e+02
   1.593552e+02  -2.984763e+02
   3.282263e+02  -1.143575e+02
   2.249535e+02   1.219929e+02
   1.342964e+02   2.215769e+02
  -3.182981e+01   1.284915e+02
  -1.550404e+01  -4.446877e+01
   7.292815e+01  -7.312509e+01
   1.691228e+02   7.768291e+01
   7.129778e+01   4.811355e+02
  -2.166749e+02   4.506681e+02
  -3.211747e+02   2.391955e+01
  -1.742832e+02  -2.693337e+02
   1.189004e+02  -1.107835e+02
   1.256340e+02   1.472914e+02
  -8.046421e+01   3.131546e+02
  -3.421916e+02   1.003058e+02
  -4.786022e+02  -3.193244e+02
  -1.580206e+02  -4.549734e+02
   2.323294e+02  -2.319987e+02
   4.534370e+02   8.311878e+01
   2.911093e+02   1.594770e+02
  -3.419434e+01   2.331268e+02
  -2.688735e+02   8.876569e+01
  -2.083377e+02  -1.555777e+01
   4.252035e+00   2.672257e+00
  -1.817081e+01   1.147063e+01
  -9.468741e+01   6.531692e+01
  -1.737090e+02  -1.446939e+01
  -1.448060e+02  -1.303065e+02
   9.087459e+01  -2.164747e+02
   2.169927e+02  -7.151734e+01
   2.954381e+02   8.669173e+01
   6.264000e+00   2.417053e+02
  -2.633665e+02   3.437661e+02
  -3.082700e+02   2.245131e+02
  -2.245918e+02  -1.220281e+02
  -1.288450e+02  -2.756211e+02
  -5.342024e+00  -2.081053e+02
   7.621424e+01  -9.669273e+01
   3.718403e+01  -5.146864e+01
   1.629407e+02  -1.186860e+02
   1.982608e+02  -4.327214e+01
   1.969948e+02   7.597844e+01
   1.148496e+02   2.363835e+02
  -7.903949e+01   1.233724e+02
  -1.868032e+02  -1.328399e+01
  -1.420315e+02  -1.494972e+02
   1.001966e+02  -2.028913e+02
   1.697821e+02  -9.702843e+01
   2.629092e+02   1.181208e+02
   1.503179e+02   2.653520e+02
   1.548985e+00   1.973752e+02
  -1.271452e+02   1.627064e+02
  -1.277481e+02   1.104107e+02
  -9.974241e+01   8.324751e+01
  -2.335846e+02   2.897871e+01
  -3.634295e+02  -7.608466e+01
  -3.194298e+02  -2.592779e+02
   4.253888e+01  -3.957333e+02
   3.267050e+02  -2.800055e+02
   4.005518e+02  -2.160688e+02
   2.218183e+02   8.193762e+01
  -2.723455e+01   2.255195e+02
  -7.818382e+01   2.119894e+02
   3.410898e+01   5.215763e+01
   5.177085e+01  -2.335234e+01
   1.142874e+02   7.055716e+01
  -7.849017e+00   1.103484e+02
  -1.022996e+02   9.175705e+01
  -8.110291e+01  -3.921184e+00
  -5.553576e+00  -1.393998e+02
   1.699597e+02  -2.546556e+01
   1.334819e+02   1.948145e+02
  -9.119818e+00   2.762109e+02
  -2.369823e+02   1.834799e+02
  -2.952986e+02  -8.127713e+01
  -1.595206e+02  -1.698394e+02
  -3.955001e+01  -2.092631e+02
   1.228845e+02  -1.381626e+02
   1.404537e+02   1.407620e+01
   1.002990e+01  -2.138592e+00
  -4.316612e+01  -3.522922e+00
   3.883388e+01  -8.943208e+01
   1.495924e+02  -7.072374e+01
   1.012903e+02   1.381840e+01
   5.770006e+01   5.886543e+01
  -7.591711e+01  -2.325290e+00
  -5.547399e+01  -8.564497e+01
   9.814195e+01  -4.439808e+01
   2.379481e+02   4.113937e+00
   2.456701e+02   1.791717e+02
   5.016357e+01   2.094427e+02
  -2.041419e+02   2.118187e+02
  -2.328731e+02   4.932643e+01
  -1.092903e+02  -3.753490e+01
   2.113674e+01  -9.311917e+01
   8.603654e+01  -3.195014e+01
  -6.480934e+01   3.003979e+01
  -1.453516e+02  -2.854202e-01
  -2.042861e+02  -8.811902e+01
  -7.060289e+01  -9.474508e+01
   2.730251e+01  -1.139060e+02
   1.014631e+02  -3.523088e+00
   5.330968e+01   1.621275e+01
  -3.515808e+01  -3.882406e+01
  -2.313671e+01  -9.899297e+01
   6.639981e+01  -1.085223e+02
   1.715314e+02   2.826092e+01
   1.050075e+02   1.152206e+02
  -3.423098e+01   1.683625e+02
  -1.150711e+02   9.199125e+01
  -1.200604e+02   1.514054e+01
  -2.918293e+01  -8.064567e+01
   6.877314e+01  -7.166898e+01
   9.276216e+01  -3.104616e+01
   1.110550e+01   3.467243e+00
  -2.066911e+01   1.601508e+01
  -3.315530e+01  -3.253577e+01
   5.046055e+01   1.814299e+01
   1.067945e+02   9.316430e+01
  -3.641037e+01   1.663759e+02
  -4.244508e+01   1.153523e+02
  -2.058731e+02   4.303003e+01
  -1.563485e+02  -1.516424e+02
  -1.710990e+01  -1.917025e+02
   9.458292e+01  -1.409684e+02
   1.613431e+02  -1.697189e+00
   7.642849e+01   3.678933e+01
   2.726735e+01   1.406363e+01
   9.034407e+01   4.639391e+01
   8.338750e+01  -2.485608e+01
   3.842296e+01   9.339110e+01
  -4.218044e+01   1.045234e+02
  -9.448061e+01   2.086099e+01
  -9.246981e+01  -5.431673e+01
   3.583307e+01  -1.068847e+02
   1.388930e+02  -1.100728e+02
   1.798242e+02   1.364928e+02
   8.119654e+01   1.624652e+02
  -8.267212e+01   2.000168e+02
  -2.060164e+02   7.023706e+01
  -2.256980e+02  -8.947710e+01
  -7.769134e+01  -1.428514e+02
   5.719650e+01  -1.128182e+02
   4.016648e+01  -8.723656e+01
   4.998951e+01  -1.953175e+01
   5.978770e+01  -8.898442e+01
   3.292582e+01  -5.696976e+01
   1.092267e+02   5.051653e+01
   1.381371e+02   8.570375e+01
   2.138320e+01   1.913419e+02
  -7.094607e+01   1.841495e+02
  -1.390942e+02   1.641265e+01
  -1.141792e+02  -1.243918e+02
  -2.920904e+01  -1.223525e+02
   2.198198e+01  -6.658639e+01
   7.058626e+01  -1.003459e+00
   6.459678e+00   5.579920e+01
   2.019846e+01   1.247045e+01
   2.846204e+01   4.736886e+00
   7.767080e+01   1.518131e+01
   4.472885e-01   8.200744e+00
  -6.704135e+01   5.106354e+01
  -1.609092e+02   7.204021e+00
  -1.181180e+02  -3.681158e+01
   4.475894e+00  -7.622240e+01
   1.193819e+02  -8.573590e+01
   1.306266e+02   1.017518e+00
   3.727259e+01   4.842783e+01
  -1.808878e+01   7.212436e+01
  -2.676180e+01  -2.161430e+00
   4.748263e+01  -6.082935e+01
   4.986660e+01  -6.225356e+01
   3.146052e+01   2.167306e+01
   5.567104e+01   3.431051e+01
   7.332058e+01   8.191819e+01
   4.877133e+01  -3.622382e+01
   6.626572e+01  -1.989816e+01
   3.320908e+01   7.128162e+01
  -2.691089e+01   1.122130e+02
  -7.121131e+01   1.469357e+02
  -8.115364e+01   5.783991e+01
  -8.498696e+01  -1.174107e+02
   8.063951e+00  -1.092536e+02
   7.236083e+01  -6.732627e+01
   3.684769e+01   2.223158e+01
  -1.167875e+02   2.529505e+01
  -8.473319e+01  -3.378708e+01
  -4.759600e+01  -1.147190e+02
   8.906766e+01  -8.431095e+01
   1.534559e+02  -3.349564e+01
   1.493528e+02  -9.999796e+00
   6.063702e+01   5.396941e+01
  -6.369810e+01   7.365199e+01
  -9.708926e+00  -5.342665e+01
   5.460596e+01  -4.851385e+01
   7.676277e+01  -8.329207e+00
   8.857282e+01   1.517624e+02
  -7.381163e+01   9.357108e+01
  -1.077972e+02   4.804363e+01
  -1.324373e+02  -3.647741e+01
  -4.031824e+01  -1.591325e+02
   4.680013e+01  -1.401522e+02
   9.644862e+01   3.618929e+01
   3.617305e+01   1.345533e+02
   1.080935e+01   9.670800e+01
  -7.669517e+01  -1.213881e+01
  -5.656266e+01  -2.473931e+01
  -4.089722e+01  -3.962076e+01
   1.114051e+01   2.786812e+01
  -2.092096e+01   1.848491e+00
  -5.243524e+01  -9.891429e+01
  -3.684683e+01  -8.970899e+01
   4.621483e+01  -1.803881e+01
   1.431944e+02   1.666573e+00
   9.499307e+01   2.795562e+01
   3.466460e+01   7.515096e+01
  -5.076040e+01   5.095701e+01
  -1.450950e+02   3.243502e+00
  -1.227122e+01  -2.680858e+01
   2.167217e+01   6.979052e+00
   3.172881e+00  -2.739311e+01
   3.147785e+00  -1.470996e+01
   1.295453e+01   1.375475e+01
   2.977359e+01   7.194828e+00
   1.012858e+02  -1.934230e+01
   7.467245e+00   3.111870e+01
  -7.035025e+01   1.241201e+02
  -1.575935e+02   8.446370e+01
  -1.822676e+02  -1.019130e+02
  -6.906749e+01  -1.558612e+02
   3.343136e+01  -1.815795e+02
   1.021170e+02  -3.695268e+01
   7.089873e+01  -4.364581e+00
   6.547571e+00  -1.111435e+01
   8.582952e+00   3.493926e+01
   4.609251e+01   4.231183e+01
   1.687176e+01   2.747539e+01
   4.441337e+00   6.069504e+01
  -2.811881e+01   7.854153e+01
  -1.042098e+02  -3.502037e+01
  -8.438942e+01  -7.286091e+01
   1.669088e+01  -8.213135e+01
   5.987649e+01  -4.335204e+01
   9.009741e+01   6.259789e+01
   4.056771e+01   6.807519e+01
  -6.978755e+01   1.002128e+02
  -8.433435e+01  -3.692219e+01
  -2.915881e+01  -3.526989e+01
   5.029880e+01  -2.891266e+01
   5.870818e+01  -4.021452e+01
   8.040986e+00   4.779632e+01
  -1.246988e+01   1.704339e+01
  -2.413957e+01  -1.451661e+01
   1.352739e+02  -3.771023e+01
   1.177455e+02  -5.195017e+01
   1.176576e+02  -6.263498e+00
  -1.351071e+01   6.748096e+01
  -4.427012e+01   6.540857e+01
  -1.352548e+01   1.035135e+01
  -4.388614e+00  -3.508154e+01
   1.205288e+01  -5.106616e+01
   6.307285e+01   3.936229e+00
   6.785264e+01   5.557369e+01
  -1.694665e+01   4.227156e+01
  -4.399341e+00  -7.789343e+00
  -2.738655e+01  -3.455531e+01
   1.228908e+01  -5.616420e+00
   1.485685e+01   2.934524e+01
   2.594511e+01   2.510164e+01
   2.850639e+01  -9.051495e+01
   1.854348e+01  -4.001975e+01
  -2.004930e+00  -5.416048e+01
   5.780749e+01   3.774360e+01
   7.926137e+00   5.844973e+01
  -5.099172e+01   1.767596e+01
  -8.291973e+01  -7.080410e+01
  -2.895076e+01  -4.059397e+01
   5.666745e+01   2.452560e+01
   5.492524e+01   2.394539e+01
   4.197027e+01   9.277800e+01
  -5.617087e+01   2.698488e+01
  -1.529379e+01   3.336085e+01
  -2.836363e+01  -1.093413e+01
   4.208502e+00  -3.160058e+01
   1.979608e+01   6.972629e+00
  -2.973156e+01   1.569531e+01
  -3.386381e+01   1.552442e+01
