
 $NMID
 id='ANONYMOUS ', fmtdat='(2E16.6)'
 volume=1.0
 tramp=1.0
 $END
  -9.693418e+02  -7.914426e+02
  -4.606634e+02  -9.292730e+02
   4.042870e+02  -6.391871e+02
   5.814665e+02  -1.585509e+02
  -1.629705e+01   1.581001e+02
  -1.327333e+02   9.446510e+01
  -1.587507e+02  -1.881440e+02
   8.843898e+01  -2.317630e+02
   2.221960e+02  -1.147338e+02
   2.788584e+02   7.151944e+01
   7.685163e+01   2.531731e+02
  -1.199036e+02   2.295614e+02
  -1.252925e+02  -7.195667e+01
  -4.103869e+01  -1.703662e+02
   5.196806e+01  -2.173091e+02
   1.697729e+02   6.418323e+01
   6.355261e+01   1.494460e+02
  -8.835627e+01   1.084074e+02
  -1.914033e+02  -8.226611e+01
  -1.152143e+02  -1.910455e+01
   6.427651e+01  -7.823275e+01
   2.156913e+01  -6.327752e+01
   7.403853e+01   3.390352e+01
  -6.067989e+01  -1.548610e+01
  -1.346532e+02   1.854070e+01
   8.871065e+01  -5.846055e+01
   2.384614e+02  -9.254280e+00
   3.322587e+02   1.479401e+02
   8.406020e+01   1.353631e+02
  -1.962901e+02   3.450739e+01
  -2.196944e+02  -1.711487e+02
   1.085051e+01  -2.103519e+02
   9.745960e+01  -1.751998e+01
   2.318810e+02   2.370006e+01
   7.502672e+01   1.467924e+02
  -4.453313e+01   1.440877e+02
  -1.688694e+01   8.427312e+01
  -2.428805e+01  -4.420093e+01
   1.311346e+02  -6.285957e+01
   1.172351e+02   4.547163e+01
  -6.678196e+00   2.279658e+02
  -4.323174e+01   2.030343e+02
  -1.394656e+02  -6.467389e+01
  -3.616483e+01  -1.812997e+02
   1.151888e+02  -1.421414e+02
   3.242940e+01   2.206494e+02
  -1.069873e+02   1.734785e+02
  -1.907490e+02  -8.273586e+01
  -1.357474e+02  -1.374555e+02
   3.603034e+01  -1.499918e+02
   1.542314e+02  -5.860893e+01
   1.000766e+02   2.038890e+01
   2.585141e+01   6.169801e+01
  -2.988758e+01   5.235623e+01
  -1.491277e+02  -4.151182e+01
  -3.309404e+01  -5.281477e+01
   3.826204e+01  -5.175210e+01
   2.837585e+01   1.931758e+01
  -3.525797e+01   3.251309e+01
  -9.102717e+01  -2.485492e+01
  -4.275608e+01  -1.102366e+02
   1.453685e+02  -9.949655e+01
   6.511048e+01  -2.788460e-02
   7.295580e+01  -7.684717e+00
   1.339121e+01   5.355574e+01
  -2.522267e+01   5.716670e+01
  -8.395632e+01   7.447379e+01
  -9.365374e+01  -3.695222e+01
  -1.942669e+01  -1.634918e+02
   1.517982e+01  -1.314108e+02
   2.732640e+01  -6.255903e+01
   1.717800e+01  -6.274895e-01
   3.286867e+01  -5.299634e+01
   1.127768e+02  -2.807437e+01
   9.389908e+01   8.653273e+00
  -1.160326e+01   1.317973e+02
  -5.647274e+01   2.632595e+01
  -8.327642e+01   1.312853e+01
  -9.914716e-01  -9.125048e+01
   6.574611e+01  -1.105650e+02
   7.976721e+01   2.297046e+01
   3.469676e+01   9.271288e+01
   4.380314e+01   1.464379e+02
  -9.093586e+01   7.914148e+01
  -7.602312e+01   5.910772e+01
  -5.735170e+01  -2.422979e+01
   9.126370e+00   2.216885e+01
  -8.955390e+01  -6.912894e-01
  -8.710717e+01  -1.601865e+00
  -6.871691e+01  -1.660323e+02
   7.663467e+01  -2.134108e+02
   1.118167e+02  -2.893912e+01
   1.424044e+02  -4.672947e+01
   1.484347e+02   2.495729e+00
   6.034017e+00   1.374503e+02
  -2.655829e+01   3.285018e+00
  -4.084155e+01   1.049050e+01
   2.795388e+01  -1.283167e+01
   7.563310e+00  -1.770581e+01
   1.932807e+01   1.030707e+02
  -6.461568e+01  -1.493639e+01
  -3.170299e+01  -3.273049e+01
   5.827373e+01  -6.416147e+01
   8.945661e+01   1.651572e+01
   2.945241e-01   1.064132e+02
   1.352526e+01   1.131890e+02
  -1.026911e+02   8.466997e+01
  -1.211729e+02   1.345706e+01
  -1.092038e+02  -6.173596e+01
  -5.436551e+01  -6.340433e+01
   7.790073e+01  -2.047081e+01
   4.600528e+01   1.476341e+01
   1.432484e+01   5.469242e-01
   2.461821e+00   9.357588e+00
   5.635648e+00  -7.007023e+01
   5.546083e+01  -2.268941e+01
   3.881119e+01   3.025273e+01
   9.226679e+00   3.800178e+01
  -1.236297e+01   2.612660e+01
  -4.022233e+00  -1.228522e+01
   6.908270e+01  -4.034564e+01
   8.037942e+01   6.374558e+01
   7.368282e+01   2.527808e+01
  -1.183647e+01   7.151336e+01
  -7.736657e+01   1.258211e+02
  -4.832992e+01  -2.633752e+01
  -2.692399e+01  -1.299800e+01
   2.418639e+01  -4.456891e+01
   3.875267e+01   1.046748e+01
  -1.330055e+01   9.604881e-01
  -4.650563e+01   1.693321e+01
  -6.954874e+01  -7.596591e+01
   1.429458e+01  -3.772376e+01
   4.092370e+01  -4.411109e+01
   3.438881e+00   5.680738e+01
   2.977584e+01   3.973428e+01
  -9.916555e+00   5.787133e-01
   1.126276e+01  -8.499554e+01
   5.596627e+00  -6.203386e+01
   9.269239e+01  -3.002852e+01
   7.508417e+01   2.068669e+01
   2.104842e+01   3.449973e+01
  -6.612933e+01  -1.861936e+01
  -8.994156e+01   1.427190e+01
   5.144297e+00  -6.363927e+01
   2.947882e+01  -3.984870e+01
   7.091850e+00  -1.663467e+01
   2.463924e+00  -8.784974e+00
  -1.658607e+01   2.880247e+01
  -9.435944e+00   1.984472e+01
  -1.753245e+01  -2.023869e+01
   5.397881e+00   4.182693e+01
   1.366977e+01   2.198414e+01
  -4.355393e+01   3.540884e+01
  -1.117717e+02  -6.036509e+01
  -3.417595e+01  -8.931921e+01
   5.476743e+01  -7.718989e+01
   2.846011e+01  -3.246423e+01
   7.732365e+01   1.854774e+00
   1.491968e+01   4.255345e+01
  -1.610348e+01   4.302691e+01
   2.497667e+01  -3.608362e+01
   6.712422e+00  -8.630703e+00
   4.584863e+01   3.738249e+01
   2.330471e+01   2.247550e+01
  -2.183720e+01   2.478937e+01
  -2.805191e+01  -3.714770e+00
   1.334887e+01  -2.875952e+01
   1.395068e+01   9.618892e+00
   3.821546e+01   7.848971e+00
   4.436052e+01   6.692905e+01
  -6.522557e+01   8.472031e+01
  -1.019871e+02   6.612760e+01
  -7.159346e+01  -4.973294e+00
  -5.564997e+01  -7.891124e+01
   1.924687e+01  -5.288743e+01
   1.690839e+01   5.720101e-01
  -1.374727e+01  -1.330836e+01
  -4.460571e+00  -1.679731e+01
   5.343859e+01  -2.900655e+01
   1.788409e+01  -5.246483e+01
   4.826023e+01   5.320252e+01
  -4.082877e+01   8.674475e+01
  -2.082524e+01   1.564869e+01
  -9.494925e+01  -9.336434e+00
  -3.143686e+01  -7.316614e+01
   3.018209e+01  -1.522105e+01
   4.952083e+00   1.606632e+01
   2.076026e+01   4.953908e+01
  -1.173300e+01  -3.360399e+01
  -3.147772e+01   2.982037e+01
   1.658833e+01  -9.480863e+00
   5.085073e+00   1.477074e+01
  -6.108052e+00   5.066974e+01
  -1.667274e+01  -4.616218e+01
  -3.692646e+01   2.256255e+01
  -5.863176e+01  -2.785869e+01
  -1.966963e+00  -3.832907e+01
   2.498987e+01  -1.520621e+01
   5.619001e+01   1.514298e+01
   2.847890e+01  -4.742166e+00
  -1.990222e+01   4.138284e+01
  -3.353091e+00   1.183701e+01
   1.540643e+01  -1.816064e+01
   5.915428e+01  -2.926639e+01
  -1.406356e+01   4.261907e+01
   2.521382e+01  -6.865787e+00
  -1.327263e+01  -5.072264e+00
   2.539990e+01  -3.901195e+01
   2.923493e+01  -1.083204e+01
   5.622522e+00   2.805981e+00
  -2.219680e+00   2.113333e+00
  -7.248779e+01   2.121957e+01
  -2.576989e+01  -1.477191e+01
  -6.619318e+01  -3.953138e+01
   3.200934e+01  -4.050322e+01
   2.233850e+01  -9.657260e+00
   4.793634e+01  -4.732870e+00
  -1.261674e+01  -7.739269e+00
  -5.851406e+01   2.626135e+01
  -1.296434e+01  -5.221119e+01
   4.017741e+01  -1.767655e+01
   5.185120e+01   1.144998e+00
   1.037248e+02   4.806265e+01
   1.750630e+01   1.671272e+01
   5.103074e+00  -1.266487e+01
  -7.336581e-01  -1.221336e+01
   6.842123e-01  -1.664834e+01
   1.454583e+01   5.700422e-01
   5.008174e+01   1.867693e+01
  -6.249292e+01   7.007776e+01
  -4.401248e+01   1.442376e+01
  -2.171712e+01  -2.899427e+01
   8.939766e-01  -3.011209e+01
   5.545990e+01   1.604756e+01
  -6.001301e+00  -1.248287e+01
   3.502543e+00  -1.266943e+01
  -2.855660e+00  -6.488215e+00
   1.300500e+01  -1.848720e+01
  -1.117286e+01   4.010178e+00
  -1.113751e+01  -2.858361e+01
   6.370286e+00   1.277326e+01
  -2.030599e+01  -1.051973e+01
  -3.773506e+01  -3.535686e+01
   1.177081e+01  -6.855823e+00
  -1.006021e+01  -2.352136e+01
   5.874619e+01   6.082733e+01
   1.074624e+01   9.539501e+01
   2.089402e+01   2.092699e+01
  -2.897736e+01  -1.126395e+01
   7.791151e+00   7.627499e+00
   2.579580e+01   1.046275e+01
  -7.140697e+00  -1.055048e+00
   2.936283e+01   1.198779e+01
  -6.439140e+00   1.933026e+01
  -4.190859e+01   1.960627e+00
  -1.035820e+01  -5.809182e+00
   3.096073e+01   1.482479e+01
  -1.611353e+00   2.888585e+01
  -4.215599e+01   4.555314e+01
  -1.044256e+02   1.964164e+01
   2.575946e+00  -2.748823e+01
  -2.376693e+01  -6.209520e+01
   3.569876e+01  -2.542834e+01
   4.919808e+01  -6.345268e+01
   7.838286e+00   3.492796e+01
  -3.098666e+01   4.085131e+01
  -7.306853e+00  -2.564868e+01
   4.039685e+01   1.356567e+00
  -3.313369e+01   3.044361e+01
  -2.293064e+01   1.253079e+01
  -1.212989e+01   1.449670e+01
  -1.417089e+01   2.753854e+01
  -4.877087e+01  -7.299766e+01
   3.257119e+01  -3.949005e+01
   6.489377e+01  -2.359924e+01
   6.376051e+01   3.907187e+01
   1.531035e+01   7.292965e+01
  -2.320662e+00   9.807744e+00
  -2.137160e+00  -4.063311e+01
  -3.340900e+01  -1.480614e+00
   4.046544e+01  -3.996767e+01
  -1.056496e+01  -2.267215e+01
  -5.054721e+01  -3.468872e+01
  -6.791751e+01   2.771207e+01
  -1.512456e+01  -5.844153e+00
   2.010401e+01  -3.942406e+01
   7.395913e+01  -4.159043e+01
   3.204588e+01  -2.720328e+01
   1.313338e+01   6.458439e+00
   2.042636e+01   5.653957e+01
  -2.448057e+01  -1.196400e+01
   2.332093e+01  -7.155479e+01
   3.728420e+01  -2.306572e+01
   5.005971e+01  -5.688558e+00
   7.360713e+00   1.412855e-01
  -2.972655e+01   1.548078e+01
  -1.272543e+00   4.003745e+01
  -1.990200e+01  -4.853542e+01
   1.360547e+01  -2.139259e+01
  -4.375264e+01   1.605043e+01
   1.857602e+01   8.671996e-01
   2.440301e+01  -5.254912e+00
  -1.981021e+01  -3.395088e+01
   1.425274e+01  -1.711268e+00
   5.367956e+00  -9.825491e+00
   4.515729e+01   1.994257e+01
  -1.551982e+01   2.558451e+01
  -3.495829e+00  -6.941197e+00
   7.411973e+00  -2.173594e+01
   3.153577e+01  -1.997211e+01
   5.476191e+00  -7.261090e+00
   2.985368e+01   1.859177e+01
   1.732422e+01   4.741119e+01
  -2.540453e+01   2.456105e+01
  -8.333131e+00  -2.544044e+01
   4.661972e+01   1.498439e+01
   1.869308e+01   3.895716e+01
  -7.906595e+00   3.041091e+01
  -1.964172e+00  -7.927576e+00
