
 $NMID
 id='ANONYMOUS ', fmtdat='(2E16.6)'
 volume=1.0
 tramp=1.0
 $END
  -2.675114e+03   1.453358e+02
  -2.202940e+03  -1.353515e+03
  -1.153271e+02  -1.865970e+03
   1.015139e+03  -1.216266e+03
   8.030799e+02  -2.335753e+02
   1.259680e+01   2.065280e+02
  -3.110714e+02   6.409155e+01
   6.788945e+01  -3.841699e+02
   3.188659e+02  -4.831816e+02
   6.247244e+02  -1.283563e+02
   3.416171e+02   3.193235e+02
   2.609103e+01   4.644799e+02
  -2.577501e+02   1.929405e+02
  -1.210800e+02  -2.657570e+02
   4.948768e+01  -3.607257e+02
   3.133534e+02  -7.081320e+01
   1.749464e+02   3.379963e+02
  -1.420821e+02   5.774153e+02
  -4.361271e+02   2.294484e+02
  -4.475351e+02  -1.046637e+02
  -1.296127e+02  -2.713028e+02
   7.301586e+01  -2.329965e+02
   6.583361e+01  -1.058059e+02
  -1.345376e+02  -8.260563e+01
  -2.146885e+02  -2.699720e+02
   3.128944e+01  -2.936240e+02
   2.488728e+02  -1.937759e+02
   5.980093e+02   9.283205e+01
   1.487301e+02   2.433152e+02
  -3.287585e+02   1.307592e+02
  -4.315896e+02  -1.378402e+02
  -1.826499e+02  -3.591817e+02
   1.843996e+02  -2.906992e+02
   3.478131e+02  -1.374273e+02
   3.090795e+02   1.038075e+02
   5.769070e+01   2.795649e+02
  -6.754605e+01   1.310269e+02
   6.260436e+01  -1.172404e+02
   1.682860e+02  -1.456291e+02
   1.246313e+02   8.407165e+01
   1.334279e+01   4.217742e+02
  -2.099479e+02   3.324854e+02
  -3.046616e+02   1.526063e+00
  -2.836493e+01  -2.729476e+02
   1.463243e+02  -1.040144e+02
   1.839780e+02   2.201866e+02
  -1.917624e+02   3.099084e+02
  -3.522433e+02   1.892431e+01
  -3.541566e+02  -3.146592e+02
  -7.008855e+01  -4.142057e+02
   2.825387e+02  -2.779152e+02
   4.544121e+02   1.708526e+01
   2.446260e+02   1.544375e+02
  -4.434927e+01   1.786330e+02
  -2.354009e+02   9.454751e+01
  -1.557484e+02  -2.491003e+01
  -7.343403e+01   1.405114e+01
   3.348344e+01   8.082624e+01
  -4.441788e+01   3.152527e+01
  -2.075153e+02  -2.841613e+01
  -1.006184e+02  -1.233264e+02
   9.225195e+01  -2.221421e+02
   3.362900e+02  -8.981865e+01
   2.467901e+02   1.134062e+02
  -1.788794e+01   2.813351e+02
  -3.706453e+02   2.770973e+02
  -3.469023e+02   1.602316e+02
  -2.109382e+02  -1.380704e+02
  -8.044889e+01  -3.501698e+02
   7.720729e+00  -2.235419e+02
  -6.626204e+00  -1.292442e+02
   4.602146e+01  -9.663076e+01
   1.360161e+02  -1.067571e+02
   1.900945e+02  -8.189119e+01
   1.578190e+02   1.112368e+02
   7.484112e+01   1.846947e+02
  -1.229211e+02   1.148443e+02
  -1.259611e+02  -1.651490e+01
  -1.191082e+02  -2.296506e+02
   5.463762e+01  -2.444602e+02
   1.745726e+02  -6.107258e+01
   2.778937e+02   1.703294e+02
   1.312381e+02   2.732430e+02
   3.030432e+00   2.205129e+02
  -8.351922e+01   1.536569e+02
  -1.643320e+02   1.357323e+02
  -1.601520e+02   6.860136e+01
  -2.421203e+02   7.763507e+01
  -3.672069e+02  -1.025578e+02
  -2.585423e+02  -2.380030e+02
  -2.240601e+01  -3.661184e+02
   3.563973e+02  -3.804578e+02
   4.155108e+02  -1.204122e+02
   2.715942e+02   6.815803e+01
   2.427167e+01   2.333655e+02
  -7.867733e+01   1.315622e+02
  -5.070010e+01   7.158398e+01
   1.194038e+02  -7.386486e+01
   1.130936e+02   3.587913e+01
   3.728137e+01   7.736519e+01
  -1.380129e+02   9.960387e+01
  -9.050135e+01  -5.825125e+01
   4.626363e+01  -1.614137e+02
   1.338851e+02  -3.931565e+01
   1.455054e+02   2.231654e+02
  -6.474279e+00   3.139813e+02
  -2.122957e+02   1.758724e+02
  -3.250806e+02  -5.701820e+01
  -2.205400e+02  -2.412130e+02
  -5.215181e+01  -2.148743e+02
   1.131495e+02  -1.173651e+02
   1.594950e+02  -2.295519e+01
   2.415580e+01   5.241385e+01
  -4.152395e+01  -1.020677e+02
   3.354469e+01  -8.627028e+01
   1.169156e+02  -8.217356e+01
   1.397536e+02   3.265391e+01
  -1.285914e+01   4.051866e+01
  -6.886862e+01  -2.869930e+01
  -1.727383e+01  -1.248317e+02
   1.744998e+02  -6.526091e+01
   2.617170e+02   1.181717e+02
   1.743076e+02   1.429616e+02
   1.587130e+01   2.208145e+02
  -1.854702e+02   1.407915e+02
  -2.907373e+02   5.266164e+01
  -1.142767e+02  -3.192318e+01
   3.866628e+01  -6.974033e+01
   7.667678e+01   7.793965e+00
  -2.730480e+01   6.865184e+01
  -1.435378e+02  -2.167490e+01
  -1.906060e+02  -5.236464e+01
  -1.787934e+01  -1.521762e+02
   3.681502e+01  -1.056442e+02
   1.437731e+02  -1.996285e+01
   2.756820e+01  -5.197882e-01
  -4.561056e+01   1.810372e+01
  -3.070401e+01  -7.169664e+01
   1.153435e+02  -1.470097e+02
   1.596216e+02   1.281407e+01
   1.244250e+02   1.630796e+02
  -5.421883e+01   1.875493e+02
  -1.181890e+02   1.231502e+02
  -1.153708e+02   6.061049e+01
  -6.366900e+01  -9.694951e+01
   8.957376e+01  -9.298420e+01
   9.959936e+01  -2.709186e+01
   9.310444e-01   6.172165e+01
  -4.321781e+01  -2.138345e+01
   1.018039e+00  -2.271702e+01
   6.229092e+01   1.585825e+01
   1.050973e+02   1.135634e+02
  -9.083506e+00   1.232514e+02
  -1.160887e+02   1.408950e+02
  -2.462252e+02   3.687774e+01
  -1.945865e+02  -1.167710e+02
  -2.306304e+01  -1.779914e+02
   1.032029e+02  -1.290693e+02
   1.542795e+02  -6.836100e+01
   7.360363e+01   2.411708e+01
   5.547031e+01   1.965142e+01
   7.273584e+01   4.078827e-01
   7.994595e+01  -9.104485e+00
   3.641679e+01   6.061836e+01
  -2.609548e+01   9.014923e+01
  -1.778424e+02   1.057478e+02
  -1.400264e+02  -4.871505e+01
   7.070763e+00  -1.300481e+02
   1.737860e+02  -5.058188e+01
   1.894552e+02   8.531790e+01
   7.097459e+01   1.864030e+02
  -1.250224e+02   2.101234e+02
  -2.832332e+02   9.045371e+01
  -2.982892e+02  -1.305591e+02
  -1.522977e+02  -1.229887e+02
   1.520586e+01  -1.379306e+02
   4.737379e+01  -1.126250e+02
   2.368895e+01  -7.486330e+01
   3.313896e+01  -3.115711e+01
   7.013702e+01  -2.485613e+01
   1.059004e+02   3.577932e+01
   1.176138e+02   1.234745e+02
   7.678853e+01   1.977484e+02
  -1.207320e+02   1.755452e+02
  -1.643497e+02  -2.641665e+01
  -1.357747e+02  -9.967933e+01
  -1.779847e+01  -7.560121e+01
   7.274742e+01  -4.207968e+01
   1.786090e+01  -8.627825e+00
   3.262975e+01   6.176650e+01
  -2.972973e+01   4.093393e+01
   4.084464e+01   1.665444e+01
   6.409500e+01   1.323310e+01
   2.846113e+01   4.930930e+01
  -9.252184e+01   4.062354e+01
  -1.296290e+02  -3.345778e+01
  -1.140424e+02  -3.586032e+01
  -2.196730e+01  -7.437768e+01
   1.235687e+02  -2.855905e+01
   1.161813e+02  -1.849171e+01
   1.217958e+01  -1.276504e+01
  -3.049138e+01   3.072419e+00
  -8.257826e+01  -4.703321e+01
  -3.535432e+01  -6.201902e+01
   5.111096e+01  -1.006728e+02
   8.149044e+01  -3.506052e+01
   8.511902e+01   3.272312e+01
   8.627054e+01   8.808883e+01
   3.051916e+01  -3.079412e+01
   4.337445e+00   3.183629e+01
   3.337966e+01   6.082146e+01
   2.497761e+01   1.074684e+02
  -9.451894e+01   1.212709e+02
  -1.765085e+02   4.270957e+01
  -8.331844e+01  -7.924743e+01
  -1.435056e+01  -8.852932e+01
   5.480901e+01  -5.954380e+01
   1.639348e+01   8.929028e+00
  -7.656274e+01   2.137850e+01
  -9.152741e+01   1.261332e+00
  -1.097769e+02  -1.570173e+02
   3.838782e+01  -8.994016e+01
   1.671292e+02  -2.316921e+00
   1.638574e+02   8.336482e+01
   4.972788e+01   8.795814e+01
  -5.867357e+01   4.772246e+01
  -2.038943e+01  -6.349014e+00
   5.035017e+01  -5.044615e+01
   6.976888e+01   4.424662e+01
   5.033566e+01   1.347420e+02
  -6.866729e+01   1.303030e+02
  -9.621029e+01   7.463374e+01
  -1.126519e+02  -9.589306e+01
  -3.611395e+01  -1.897633e+02
   5.832385e+00  -1.189460e+02
   1.305392e+02   1.256351e+01
   5.413223e+01   1.157808e+02
  -5.227137e+01   7.908016e+01
  -2.942097e+01  -1.098136e+01
  -8.201866e+00  -3.758744e+01
  -1.517125e+01   2.857711e+01
   1.797523e+01   8.416028e+00
  -8.247081e+01   1.695907e+01
  -4.839849e+01  -7.800955e+01
   1.049956e+01  -7.859486e+01
   5.945256e+01  -3.293812e+01
   1.100541e+02  -1.364725e+01
   1.134037e+02   8.912129e+01
   1.877210e+01   5.543040e+01
  -3.746184e+01  -5.233870e-01
  -7.295843e+01   3.279145e+01
  -3.938902e+01  -1.774643e+01
   1.562396e+01  -5.717824e+00
   7.773890e+00   1.944883e+01
  -6.321804e+01  -1.742877e+01
   7.511638e+01   5.364745e+01
   7.484460e+01   2.941794e+01
   8.224833e+01   2.147489e+01
   3.363501e+01   1.130877e+02
  -1.231952e+02   1.120198e+02
  -1.757938e+02   5.209929e+01
  -1.482054e+02  -4.259694e+01
   7.867827e-01  -1.237159e+02
   7.312955e+01  -1.093633e+02
   9.764243e+01  -8.574468e+01
   5.359554e+01   2.253422e+00
  -1.367271e+01   4.444649e+01
  -9.922285e+00  -5.891164e+00
   6.923446e+00  -2.119132e+01
   4.485676e+01   5.438812e+01
   2.655331e+01   8.939015e+01
  -2.256378e+01   1.084798e+02
  -9.390744e+01  -3.101705e+01
  -8.828106e+01  -6.531301e+01
   1.882194e+00  -1.053566e+02
   4.801251e+01  -2.044782e+01
   8.347123e+01   7.496400e+01
   2.858927e+01   3.030204e+01
  -5.280111e+01   7.041808e+01
  -7.605019e+01   5.169790e+01
  -2.316670e+01  -4.488238e+01
   5.904080e+01  -5.378566e+01
   6.127118e+01   3.873746e+00
  -1.477954e+01   2.630802e+01
  -6.016346e+01  -1.840112e+01
  -1.176353e+01  -4.093816e+01
   7.065745e+01  -4.485433e+01
   1.158081e+02  -8.360098e+01
   6.012765e+01   6.470205e+01
   7.547414e+00   5.522254e+01
  -8.095360e+01   1.327307e+02
  -1.642077e+01   1.997270e+01
  -3.933069e+01  -9.038779e+01
  -3.323833e+00  -7.519559e+01
   9.951915e+00   3.145731e+01
  -6.920396e+00   5.250521e+01
   4.043660e+00   9.160752e+00
  -5.772635e+01   1.426952e+01
  -2.692692e+01   3.364879e+01
   2.251584e+01   1.226127e+00
   1.941859e+01   9.043441e+00
   3.981112e+01  -7.596260e+00
  -2.452607e+01  -5.630061e+01
  -1.052876e+01  -4.009648e+01
   3.336293e+01  -1.110744e+01
   2.840626e+01   4.335832e+01
   1.153650e+01   7.711513e+01
  -3.360887e+01   3.399025e+01
  -8.316647e+01  -5.173494e+01
   2.003870e+01  -6.393062e+01
   5.940034e+01  -2.446060e+01
   8.713392e+01   4.464095e+01
   6.260922e+01   7.105666e-03
   2.175318e+01   1.538050e+01
  -7.812843e+01  -1.967214e+00
  -2.700576e+01  -2.080937e+01
   2.757285e+01   2.174893e+01
   5.685848e+01  -1.678954e+01
  -1.020163e+01   1.157482e+01
  -5.337080e+01   4.516715e+01
