
 $NMID
 id='ANONYMOUS ', fmtdat='(2E16.6)'
 volume=1.0
 tramp=1.0
 $END
   1.412037e+03  -4.724827e+02
   1.042290e+03   4.171856e+02
   5.270394e+01   1.322326e+03
  -8.956488e+02   8.478778e+02
  -6.305731e+02   1.998823e+02
   3.002266e+01  -6.177212e+01
   2.282404e+02   7.580209e+01
   2.045511e+02   3.354804e+02
  -2.388354e+02   3.841818e+02
  -4.211102e+02   4.912856e+01
  -3.157126e+02  -3.192048e+02
  -3.941740e+01  -3.032354e+02
   9.850156e+01  -2.247716e+02
   1.297193e+02   1.490145e+02
  -5.711222e+01   3.904526e+02
  -1.693541e+02   9.298311e+01
  -2.880068e+02  -3.340836e+02
   8.732011e+00  -3.669031e+02
   2.157344e+02  -2.581407e+02
   2.045908e+02  -1.721285e+01
   9.387770e+01   1.519298e+02
  -2.761028e+01   1.906010e+02
  -1.389562e+01   3.987723e+01
   1.284592e+02  -1.916935e+01
   1.494994e+02   1.602133e+02
   1.478362e+01   1.650414e+02
  -2.788897e+02   1.579421e+02
  -3.143403e+02  -7.983658e+01
  -1.825595e+02  -2.085510e+02
   1.509005e+02  -1.369184e+02
   3.303103e+02   6.313298e+01
   1.366189e+02   1.856634e+02
  -6.528483e+01   2.402382e+02
  -2.115767e+02   1.408505e+02
  -1.916547e+02  -1.060874e+02
  -5.344533e+01  -1.913116e+02
   4.009728e+01  -1.177227e+02
  -5.861433e+01   1.641725e+01
  -9.715364e+01   9.111067e+01
  -1.956226e+02  -1.542768e+02
  -7.280906e+01  -2.686088e+02
   1.470878e+02  -2.272392e+02
   1.366182e+02  -1.456929e+00
   1.710658e+02   1.144841e+02
  -1.552679e+02   9.164068e+01
  -1.410994e+02  -2.530210e+02
  -8.362473e-02  -2.753915e+02
   1.886960e+02  -1.095076e+02
   3.339872e+02   8.681401e+01
   1.730576e+02   2.122248e+02
  -1.756435e+02   2.479194e+02
  -2.165759e+02  -7.573729e+01
  -2.378689e+02  -1.167337e+02
  -6.156346e+01  -1.209310e+02
   1.720774e+02  -1.177630e+02
   1.598674e+02  -4.849221e+01
   2.184315e+01  -4.401773e+00
  -1.500820e+01  -9.365797e+00
   5.983225e+01  -4.758215e+00
   1.167753e+02  -3.680170e+01
   7.122013e+01   8.536761e+01
  -6.009951e+01   1.483684e+02
  -1.908510e+02   1.618099e+02
  -1.582439e+02  -1.157382e+01
  -4.443353e+01  -1.874999e+02
   1.184511e+02  -2.095633e+02
   1.971396e+02  -1.856080e+02
   1.397088e+02   7.401547e+01
   1.085346e+02   2.246944e+02
  -6.062465e+01   1.657296e+02
  -5.927952e-01   5.245445e+01
   1.417707e+01   5.547259e+01
  -6.710743e+01   7.017014e+01
  -1.746602e+02   1.306421e+02
  -1.710057e+02  -4.452855e+01
  -9.907429e+01  -1.802495e+02
   2.246645e+01  -9.809375e+01
   1.357100e+02  -1.318867e+01
   6.522075e+01   1.734420e+02
   4.397159e+01   1.602484e+02
  -1.332646e+02   6.720360e+01
  -1.993350e+02  -7.331863e+01
  -9.751466e+01  -1.062482e+02
   4.116123e+01  -1.575016e+02
   7.104915e+01  -1.038558e+02
   4.186994e+01  -8.440013e+01
   6.571684e+01  -2.571770e+01
   1.435803e+02  -6.255312e+01
   2.005877e+02   3.994443e+01
   2.137515e+02   1.488871e+02
   7.669216e+00   1.920700e+02
  -1.038712e+02   2.772697e+02
  -2.692594e+02   7.308501e+01
  -1.705134e+02  -1.511762e+01
  -1.347176e+01  -1.738841e+02
   1.377678e+00  -8.646947e+01
   2.598187e+01  -2.159362e+01
  -7.340045e+01   6.867063e+01
  -1.550314e+02  -1.044446e+01
  -2.860758e+01  -1.238838e+02
   6.521268e+01  -4.359393e+01
   1.072312e+02   3.484302e+01
  -3.392823e+01   1.238928e+02
  -9.090437e+01  -3.735354e+01
  -9.271206e+01  -1.169318e+02
  -4.642587e+00  -2.416913e+02
   1.662939e+02  -1.265695e+02
   2.394188e+02  -4.050049e+01
   2.146382e+02   1.185259e+02
   6.276047e+01   1.670561e+02
  -3.148160e+01   9.962608e+01
  -9.933257e+01   8.954599e+00
  -1.828656e+01  -5.144359e+01
   1.120083e+01   4.097328e+01
   9.000080e+01   5.227738e+01
  -5.296293e+01   2.369552e+01
  -1.036770e+02  -4.279558e+01
  -2.704160e+01  -2.625980e+01
   5.565606e+01   7.963722e+00
   1.739323e+01   7.540515e+01
  -6.616433e+01   5.140041e+01
  -2.098077e+02   5.801893e+01
  -1.722332e+02  -3.814852e+01
  -4.543094e+01  -1.604237e+02
   7.221195e+01  -1.656881e+02
   1.562506e+02  -1.345706e+02
   6.615814e+01   1.203422e+01
  -4.441661e+01   4.983782e+01
  -1.298028e+01  -7.746881e+00
   8.645245e+00  -6.171833e+01
   1.381609e+02  -6.839293e+01
   1.173761e+02   1.759640e+01
   3.070772e+01   1.084931e+02
  -4.996480e+01   7.936752e+01
  -7.991893e+01   2.082642e+01
   1.604528e+01   1.476726e+01
   4.457214e+01   2.853032e+01
   3.952990e+01   8.075545e+01
  -5.935462e+01   6.974251e+01
  -1.080571e+02   5.039437e+01
  -1.596673e+02  -3.182125e+01
  -5.940894e+01  -9.086372e+01
   8.286704e+01  -3.742772e+01
   8.434226e+01   4.036320e+00
   5.276913e+01   5.687338e+01
  -4.626559e+01   5.388857e+01
  -4.047805e+01  -6.325861e+00
  -2.951437e+01  -5.717976e+01
   5.397844e+01  -6.679790e+00
   1.397794e+01   1.370765e+01
  -5.423738e+01   3.891250e+01
  -9.384654e+01  -4.484392e+01
  -1.939264e+01  -6.725135e+01
   8.589540e+01  -1.313041e+02
   1.582693e+02  -5.739249e+01
   1.484036e+02   8.176094e+01
   3.935355e+01   1.231145e+02
  -4.422459e+01   8.020184e+01
  -8.761085e+01   3.297324e+01
  -2.404860e+01  -3.550129e+01
  -1.543446e+01  -3.588288e+01
  -4.145039e+01  -1.302081e+01
  -7.076050e+01   2.403551e+01
  -5.596545e+01  -4.937116e+01
   2.490789e+01  -4.137718e+01
   5.635706e+01  -9.704697e+01
   1.178678e+01   8.202283e+00
   3.772902e+01   6.763158e+01
  -5.444427e+01   2.300520e+01
  -1.263497e+02   6.846804e+00
  -6.620958e+01  -1.026008e+02
   8.883087e+01  -8.813271e+01
   1.450033e+02  -6.216454e+01
   1.015041e+02   3.245555e+01
   1.159459e+02   9.051735e+01
   1.057004e+01   5.935884e+01
  -7.826813e+01   3.910977e+01
  -3.170285e+01   5.778316e+01
  -5.185531e+00   1.453751e+01
  -5.173125e+00   6.984152e+01
  -5.805548e+01  -5.874759e+00
  -4.885017e+00  -1.142454e+02
  -5.517546e+01  -1.215695e+02
   1.420222e+01  -1.022609e+02
   8.525131e+01  -6.192936e+01
   6.805211e+01   6.319861e+01
  -1.031007e+01   6.498602e+01
  -3.144213e+01   1.316961e+01
  -4.466718e+01  -1.343242e+01
  -1.665944e+01  -3.293304e+01
  -8.924217e+00   2.005111e+01
   1.364245e+01  -1.153945e+01
  -3.348608e+00   8.636861e+00
  -1.299336e+01  -1.036408e+01
   2.724680e+00  -4.404355e+01
   1.102326e+02  -5.440372e+01
   6.934526e+01   5.282182e+01
  -7.856757e+00   7.616207e+01
  -3.082864e+01   1.376134e+01
  -8.785562e+01   3.133912e+01
  -6.239525e+01  -1.212955e+01
   3.684357e+01  -3.564599e+01
   5.325271e+01   2.640659e+01
  -3.475077e+00   3.077952e+01
   2.438750e+00   2.094644e+01
  -4.011251e+01   5.159320e+00
  -4.346608e+01   6.266573e+00
  -4.985431e+01  -2.816965e+01
  -4.576656e+01   3.858971e+01
  -3.801681e+01   9.368321e+00
  -1.417599e+01  -3.476600e+01
   4.485987e+01  -9.783393e+01
   6.248075e+01  -8.084601e+01
   9.142527e+01  -3.153703e+01
   8.090066e+01   5.816054e+01
   9.005064e+00   1.296051e+02
  -6.045152e+01   8.659743e+01
  -2.466028e+01   1.773198e+01
  -9.853728e+00   3.079336e+00
   1.048486e+02   4.281390e+01
   6.874316e+01   3.837487e+01
  -5.041968e+01   6.825433e+01
  -1.315345e+02   8.949464e+01
  -8.983892e+01   2.964026e+01
  -4.608780e+01  -5.730107e+01
   1.714594e+01   1.333212e+01
   9.534095e+00   3.780825e+01
  -1.538336e+01  -6.676567e+00
  -1.714578e+01  -2.946421e+01
  -7.540377e+01  -6.371837e+01
   4.111432e+01  -8.307766e+01
   9.290213e+01  -2.837752e+01
   4.035916e+01   1.971908e+01
   7.598276e+01   1.043403e+02
  -3.968515e+01   1.397017e+02
  -3.699764e+01   2.179876e+01
  -5.884442e+01  -3.102657e+01
  -1.481651e+01  -2.734992e+01
   2.288827e+01   7.899997e-01
   4.937100e+01   3.697386e+01
   6.999999e+00  -1.384511e+00
   6.404826e+00   4.803695e+00
   2.686682e+01   2.441851e+00
   8.051670e+01   3.283943e+01
   2.082014e+01   5.701272e+01
  -3.021689e+01   4.662965e+01
  -7.591050e+01  -1.024550e+01
  -9.857259e+01  -5.397454e+00
  -3.026559e+01  -5.581854e+01
   3.375649e+01  -2.904092e+01
   7.754485e+01  -1.738978e+01
  -1.952263e+00  -3.770024e+01
  -2.459385e+01   2.663398e+01
  -5.979072e+01   2.610169e+00
   6.476629e+01  -2.150735e+01
   3.231671e+01  -4.015682e+01
  -2.383091e+01   1.072800e+01
  -3.872963e+01  -1.143050e+01
  -4.664329e+01  -5.717161e+01
   5.633529e+01  -8.359799e+01
   9.334579e+01  -1.213361e+02
   1.115111e+02  -7.822797e+00
   7.275728e+01   5.282456e+01
  -3.117771e+01   7.343625e+01
  -6.265360e+01   6.621245e+00
  -5.263631e+01  -1.734658e+01
  -2.732852e+01  -1.047407e+01
  -4.365992e+01   7.831417e+00
   8.075337e+00   1.964934e+01
  -3.789874e+00  -3.469632e+01
  -3.048509e+00  -4.266002e+01
   3.165731e+01  -5.529231e+01
   2.631885e+01  -1.567481e+01
   5.457692e+01   1.054836e+01
  -4.110026e+01   8.311772e+01
  -4.777839e+01   2.734440e+01
  -4.715842e+01  -1.410087e+01
  -3.757883e+00  -9.669160e+01
   2.084448e+01  -7.522377e+01
   5.824832e+01  -5.740148e+00
   4.846755e+01   8.257975e+01
  -1.913829e+01   6.300119e+01
  -3.846777e+01   2.481740e+01
   5.151861e+01   1.030100e+01
   2.470741e+01   1.199405e+01
   1.945974e+01   1.077209e+01
  -2.453985e+01   4.503020e+01
  -7.609023e+01   4.574889e+01
  -3.075099e+01   9.830816e+00
  -1.447996e+01  -7.045766e+01
   2.547928e-01  -4.978954e+01
  -5.439187e+00  -2.370406e+01
  -1.783971e+01   4.864788e+01
  -6.541113e+00   6.050792e+01
  -8.960556e+00  -2.575986e+00
  -1.306505e+01  -1.772308e+00
  -3.086806e+01  -4.079872e+01
  -1.697229e+01  -2.182586e+01
   4.165452e+00  -2.168332e+01
   3.270958e+01  -2.235247e+01
  -2.617962e+00   3.287997e+00
  -1.559936e+01   1.249957e+00
   8.315270e+00   2.192407e+01
   3.823728e+01   5.103017e+01
  -1.615483e+01  -7.613215e+00
  -1.100815e+01   1.412212e-01
  -2.431542e+01  -1.792978e+01
   3.682173e+01  -4.526427e+01
   1.449250e+00  -5.349221e+00
  -1.613034e+01   1.661747e+01
  -2.366650e+01   5.988668e+00
  -3.445610e+01  -4.016420e+00
  -8.593660e+01  -1.805275e+00
   4.759592e+00  -2.735119e+01
   4.512808e+01   2.660342e+01
   2.976447e+01  -7.409199e+00
  -2.248668e+01   1.665813e+01
  -2.079962e+01  -1.838896e+00
   3.897184e+01   5.169895e+00
   5.239665e+01   2.362151e+00
