
 $NMID
 id='ANONYMOUS ', fmtdat='(2E16.6)'
 volume=1.0
 tramp=1.0
 $END
  -3.496537e+03   2.175932e+02
  -2.109125e+03  -2.098649e+03
   5.128464e+02  -2.057902e+03
   1.666312e+03  -1.171514e+03
   8.580003e+02   1.289430e+01
  -3.113159e+02   3.650744e+02
  -4.629431e+02  -1.963317e+02
  -1.421641e+01  -7.248080e+02
   5.242617e+02  -7.145221e+02
   7.624400e+02  -4.283054e+01
   4.006979e+02   6.514085e+02
  -3.050735e+01   8.199264e+02
  -3.531992e+02   1.588522e+02
  -3.114946e+02  -5.482423e+02
   1.452035e+02  -4.893754e+02
   5.693255e+02   7.062305e+00
   2.266303e+02   5.963270e+02
  -1.570683e+02   5.564581e+02
  -4.561107e+02   2.088002e+02
  -3.825936e+02  -2.299331e+02
  -6.071963e+01  -3.659404e+02
   8.360513e+01  -2.099782e+02
   1.192202e+02  -3.860389e+01
  -1.154308e+02   4.276035e+00
  -3.184970e+02  -2.423883e+02
  -8.967193e+01  -3.125183e+02
   4.734737e+02  -2.001174e+02
   7.799677e+02   1.187615e+02
   2.411561e+02   3.966218e+02
  -3.110560e+02   2.640968e+02
  -4.967699e+02  -3.411005e+01
  -2.056930e+02  -3.945953e+02
   2.002281e+02  -4.176651e+02
   5.300712e+02  -1.832869e+02
   3.290214e+02   1.957527e+02
   8.013975e+01   3.569697e+02
  -7.349736e+01   2.022843e+02
  -8.695045e+01  -1.276484e+02
   1.781714e+02  -2.856521e+02
   2.983714e+02   6.225656e+01
   1.343569e+02   5.396538e+02
  -2.754192e+02   4.607955e+02
  -3.466709e+02   3.574422e+01
  -1.194227e+02  -4.807638e+02
   1.834311e+02  -2.218615e+02
   2.324178e+02   2.117577e+02
  -6.811994e+01   4.668594e+02
  -4.029405e+02   1.618306e+02
  -4.834649e+02  -3.952704e+02
  -8.545994e+01  -6.000191e+02
   3.169271e+02  -2.896186e+02
   5.857979e+02   4.029147e+01
   2.895844e+02   2.413120e+02
  -2.049086e+01   2.082481e+02
  -3.981509e+02   8.584098e+01
  -1.879978e+02  -5.338964e+01
   3.684843e+00  -5.262320e+01
   4.742961e+01   9.526858e+01
  -1.239448e+02   8.565089e+01
  -2.085402e+02  -4.303168e+01
  -1.234671e+02  -2.416895e+02
   2.290047e+02  -2.271614e+02
   3.038332e+02  -6.555321e+01
   2.299166e+02   8.305502e+01
  -1.776433e+01   2.014893e+02
  -2.307812e+02   3.368905e+02
  -2.859455e+02   2.158744e+02
  -2.666924e+02  -1.467174e+02
  -7.278481e+01  -3.751400e+02
   4.647848e+01  -3.022772e+02
   1.258360e+02  -1.368055e+02
  -3.428651e+00  -5.715000e+01
   5.427995e+01  -9.980021e+01
   1.554528e+02  -7.685973e+01
   2.148571e+02   1.060704e+02
   8.912011e+01   2.111192e+02
  -7.184075e+01   1.725851e+02
  -1.850446e+02  -3.596898e+01
  -1.457493e+02  -2.389294e+02
   9.173778e+00  -2.378695e+02
   2.774402e+02  -7.914383e+01
   2.622730e+02   1.259461e+02
   2.232168e+02   3.095062e+02
  -7.787600e+01   2.745762e+02
  -2.275390e+02   1.215323e+02
  -1.168616e+02   1.693258e+01
  -1.407841e+02   6.584594e+01
  -2.142199e+02   3.855531e+01
  -4.425417e+02  -9.824079e+01
  -3.422945e+02  -2.501765e+02
  -3.196968e+01  -4.029246e+02
   3.658737e+02  -4.470284e+02
   4.529764e+02  -1.988730e+02
   2.568185e+02   1.628388e+02
   5.756859e+01   2.575940e+02
  -4.416136e+01   2.106472e+02
   4.136013e+00   2.545663e+01
   9.226877e+01  -5.834175e+01
   1.596629e+02   7.173247e+01
   4.082767e+01   2.190189e+02
  -1.880436e+02   1.818933e+02
  -1.235990e+02  -9.407632e+01
  -1.912406e+01  -1.133393e+02
   1.199475e+02  -3.025227e+01
   1.425336e+02   2.637530e+02
  -9.467147e+01   2.808426e+02
  -1.594686e+02   1.728465e+02
  -3.412404e+02  -8.562060e+01
  -1.804965e+02  -2.165744e+02
  -4.792875e+01  -2.968488e+02
   9.324835e+01  -1.604656e+02
   1.469340e+02   1.786826e+01
   5.341797e+01   6.719703e+01
  -8.096510e+01  -4.921070e+01
  -1.584861e+01  -1.018570e+02
   6.862380e+01  -9.569910e+01
   1.741906e+02  -1.239134e+00
   9.127354e+01   8.745826e+01
  -6.681202e+01   2.164418e+00
  -7.153460e+01  -1.004937e+02
   1.247041e+02  -3.048891e+01
   2.753315e+02   8.755734e+01
   2.896568e+02   1.710089e+02
   5.390904e+01   3.158382e+02
  -1.901052e+02   1.690848e+02
  -2.762125e+02   9.190893e+01
  -1.242703e+02  -5.339065e+01
   1.948965e+01  -8.318715e+01
   8.613995e+01  -9.356752e+00
  -6.698682e+01   7.613448e+01
  -1.717396e+02   8.675422e+00
  -1.741240e+02  -2.504880e+01
  -8.531316e+01  -1.840842e+02
   7.195436e+01  -1.418120e+02
   5.768207e+01   1.184230e+01
   4.688202e+01  -8.432384e+00
  -1.928899e+01  -4.153165e+01
  -4.308292e+01  -7.942140e+01
   2.018526e+01  -1.206220e+02
   2.435762e+02   7.213546e+00
   1.402863e+02   1.179882e+02
   3.388249e+01   1.923020e+02
  -1.541882e+02   1.173212e+02
  -1.649540e+02   1.712843e+01
  -6.735322e+01  -1.007079e+02
   4.000625e+01  -8.516030e+01
   6.154899e+01   1.342739e+01
   1.602192e+00   5.208697e+01
  -3.322838e+01  -1.931303e+01
   1.057303e+01  -3.681453e+01
   8.186327e+01   1.428161e+01
   9.693972e+01   7.650631e+01
   3.714706e+01   1.569778e+02
  -6.825809e+01   1.441862e+02
  -1.794758e+02   4.340490e+01
  -2.022503e+02  -1.446543e+02
  -3.964572e+01  -2.239620e+02
   1.363345e+02  -1.451335e+02
   9.787217e+01  -5.174031e+00
   7.225978e+01   1.061199e+02
   4.580222e+01   3.120007e+01
   7.460921e+01  -4.093067e+01
   8.011214e+01   1.492014e+01
   6.625289e+01   8.684252e+01
  -6.393795e+01   7.780717e+01
  -1.395171e+02   7.398860e+01
  -1.090825e+02  -1.125337e+01
   1.145356e+01  -1.034136e+02
   1.624073e+02  -1.051862e+02
   1.932416e+02   1.520718e+01
   1.311023e+02   1.484649e+02
  -1.042381e+02   2.480630e+02
  -2.343432e+02   1.529087e+02
  -2.145638e+02  -1.545495e+02
  -3.559718e+01  -1.618767e+02
   5.341294e+01  -1.354582e+02
   1.030547e+02  -8.900748e+01
   6.550344e+01  -7.773105e+01
   5.484985e+01  -6.547287e+01
   9.645278e+01  -7.858895e+01
   1.095316e+02   2.225070e+01
   9.010577e+01   1.129069e+02
   3.391454e+01   1.385052e+02
  -1.011930e+02   1.459727e+02
  -1.679171e+02   3.074895e+01
  -1.327230e+02  -9.770848e+01
   6.864040e+01  -1.386208e+02
   7.659364e+01  -8.645342e+01
   6.179750e+01  -9.832146e+00
   1.434153e+01   4.013416e+01
  -4.656486e+01   4.190115e+01
   3.675617e+01  -1.569263e+01
   1.140415e+02   3.341010e+01
   6.206119e+01   6.303438e+00
  -4.346039e+01   3.234882e+01
  -1.217247e+02  -5.821850e+00
  -1.122732e+02  -8.785170e+01
  -4.077915e+00  -9.433015e+01
   1.137334e+02  -6.738577e+01
   1.235898e+02  -1.357653e+01
   3.591756e+01   6.966879e+01
  -2.210147e+01   7.951449e+01
  -4.329277e+01  -3.316706e+01
  -3.382896e+01  -6.087293e+01
   4.137497e+01  -5.226182e+01
   2.850525e+01  -2.935256e+01
   5.345278e+01   8.902292e+01
   2.943084e+01   4.370818e+01
   3.487176e+01  -1.053690e-01
   7.654782e+01   2.869386e+01
   6.780596e+01   8.404705e+01
  -7.940997e+01   1.686091e+02
  -7.900124e+01   1.352844e+02
  -1.501108e+02   2.857620e+01
  -1.195362e+02  -3.443625e+01
   4.984235e+01  -1.342191e+02
   1.170140e+02  -2.824455e+01
   4.717256e+01   4.205745e-01
  -5.721932e+01   1.228337e+01
  -8.403306e+01  -9.103681e+01
  -4.956675e+01  -1.165953e+02
   6.619924e+01  -1.200993e+02
   2.097288e+02  -5.140145e+01
   1.780893e+02   1.819827e+01
   1.701382e+01   9.120778e+01
  -7.921722e+01   4.783333e+01
  -6.089975e+01  -2.553207e+01
   5.038933e+01  -5.715219e+01
   4.760530e+01   5.127887e+01
   7.307580e+00   9.244581e+01
  -3.524487e+01   1.367144e+02
  -1.740994e+02   6.060129e+01
  -9.354992e+01  -7.010183e+01
  -5.945933e+00  -1.826237e+02
   8.277942e+01  -1.386845e+02
   9.595360e+01   4.896010e+01
   7.025985e+01   1.386784e+02
   4.196655e+01   7.235774e+01
  -9.093866e+01   3.679324e+01
  -1.954789e+01  -6.869264e+00
  -2.571971e+01  -1.096036e+01
  -1.279235e+01  -8.032871e+00
  -3.259240e+01  -3.975957e+01
  -4.265504e+01  -9.231481e+01
  -5.975567e+01  -7.793102e+01
   7.278878e+01  -6.029865e+01
   1.562252e+02   5.880946e+01
   1.088274e+02   6.746280e+01
   2.101894e+01   7.480360e+01
  -4.585097e+01  -9.024551e+00
  -6.746101e+01   8.594827e+00
  -3.390656e+01  -1.847146e+01
   8.832399e+01  -2.436996e+01
   3.874498e+01  -3.677519e+01
  -1.021708e+01   4.774655e+01
  -2.135369e+01  -3.260751e+01
   5.852625e+01   1.117767e+01
   7.246935e+01   3.282244e+01
  -6.944608e-01   8.451076e+01
  -8.574457e+01   1.095303e+02
  -1.456785e+02   6.602716e+01
  -1.206789e+02  -2.587213e+01
   2.067949e+01  -1.560379e+02
   4.913690e+01  -1.640715e+02
   8.918879e+01  -5.601812e+01
   1.105620e+02   1.163492e+01
   4.542354e+01   4.341589e+01
   9.161865e+00   2.414009e+01
   4.509883e+01   1.455043e+01
   5.693766e+01   4.852361e+01
   2.143649e+00   7.446331e+01
  -6.884470e+01   1.876295e+01
  -8.656921e+01   2.156605e+01
  -9.558904e+01  -8.000407e+01
  -6.915038e+00  -8.861159e+01
   5.146310e+01  -3.302325e+01
   1.175595e+02   6.929108e+01
   3.849885e+01   1.394874e+02
  -2.684804e+01   7.029783e+01
  -9.276812e+01   1.862260e+01
  -4.700784e+01  -3.668241e+01
   3.027315e+01  -8.427145e+01
   4.949269e+01   4.478054e+00
  -1.280714e+01   4.778117e+01
  -7.325869e+01   2.576632e+01
  -2.075759e+01  -2.402445e+01
   1.044561e+02  -6.984649e+01
   1.116692e+02  -6.147424e+01
   7.709323e+01   2.602539e+01
  -1.191824e+01   8.060665e+01
  -1.217469e+01   8.025195e+01
  -3.217436e+01   7.836783e+00
  -1.474106e+01  -3.056623e+01
   4.008607e+01  -3.404487e+01
  -5.684055e+00   6.779130e+00
   3.975665e+01   5.574686e+01
   1.237831e+01   3.196200e+01
  -1.988454e+01   2.293281e-01
  -4.260221e+01  -4.006122e+01
  -2.529847e+01  -5.222979e+01
   5.052299e+00   1.204326e+01
   2.998269e+01  -5.050724e+01
   2.155707e+01  -1.331995e+01
   4.559895e+01  -2.261356e+01
   3.631787e+01  -4.073386e+01
   1.306530e+01   2.590767e+01
   2.491458e+01   3.520962e+01
  -3.733751e+01   4.361053e+01
  -7.657526e+01  -1.628106e+01
  -6.790601e+01  -3.897565e+01
   8.281240e+01  -1.836499e+01
   5.853074e+01   9.483472e+00
   4.016552e+01   3.708093e+01
  -1.552465e+01   1.062722e+01
  -4.311813e+01   1.797439e+01
  -4.400158e+01  -2.385079e+01
   1.844981e+01  -1.979798e+01
   7.224690e+01   2.487010e+01
   6.672147e+00   1.026344e-01
  -7.088170e+01   2.994001e+01
