
 $NMID
 id='ANONYMOUS ', fmtdat='(2E16.6)'
 volume=1.0
 tramp=1.0
 $END
   2.942681e+03   9.270301e+01
   1.997930e+03   9.775049e+02
   4.371004e+02   1.629312e+03
  -1.017897e+03   1.042005e+03
  -7.603270e+02   3.668726e+02
  -3.716064e+01  -2.492323e+02
   3.194351e+02   1.836844e+01
   5.601378e+01   3.749063e+02
  -4.658357e+02   4.947139e+02
  -4.746033e+02   1.709388e+02
  -4.005037e+02  -3.723654e+02
   6.713714e+01  -5.008989e+02
   1.944835e+02  -1.381189e+02
   1.899217e+02   3.015184e+02
  -9.135119e+01   5.554609e+02
  -2.896156e+02   1.553947e+02
  -2.559699e+02  -3.696217e+02
   9.259044e+01  -5.046773e+02
   3.279596e+02  -2.906203e+02
   4.330352e+02   8.302873e+01
   1.529179e+02   2.896826e+02
  -6.189376e+01   2.187525e+02
  -3.969337e+01   8.829212e+01
   1.701891e+02   8.989891e+01
   2.180233e+02   2.010820e+02
  -4.405490e+01   3.096295e+02
  -3.223168e+02   1.627575e+02
  -4.536416e+02  -1.606638e+02
  -1.964891e+02  -2.812571e+02
   2.523592e+02  -1.784880e+02
   4.374196e+02   6.245733e+01
   1.117841e+02   2.300867e+02
  -2.319366e+02   3.079133e+02
  -3.930774e+02   1.639633e+02
  -3.428836e+02  -1.102484e+02
  -3.342980e+01  -2.487706e+02
   6.075806e-01  -8.687157e+01
  -5.352550e+01   6.481989e+01
  -1.416367e+02   2.305355e+02
  -1.996323e+02  -1.100051e+02
  -1.975114e+01  -4.604680e+02
   1.405230e+02  -3.572304e+02
   2.147791e+02   3.912026e+01
   6.815387e+01   2.409919e+02
  -1.048040e+02   7.454935e+01
  -1.529888e+02  -2.166372e+02
   8.561242e+01  -3.141735e+02
   3.877640e+02  -5.330498e+01
   3.322464e+02   3.162074e+02
   1.353339e+02   3.379749e+02
  -2.294586e+02   2.108109e+02
  -3.855329e+02  -1.020857e+02
  -2.889991e+02  -1.292345e+02
   4.419448e+01  -2.037458e+02
   2.189243e+02  -1.689897e+02
   1.684943e+02   2.581120e+00
   2.437331e+01   9.223553e+00
  -2.196197e+01  -2.038617e+01
   1.199778e+02  -2.168024e+01
   1.863624e+02  -2.966846e+00
   1.121112e+02   2.228879e+02
  -1.059700e+02   2.382197e+02
  -2.771187e+02   2.072351e+02
  -1.902639e+02  -2.926043e+01
   2.626801e+01  -2.028769e+02
   3.081969e+02  -2.979750e+02
   3.227894e+02  -1.442454e+02
   1.494083e+02   9.800463e+01
   4.018959e+01   3.071161e+02
   3.339847e+01   3.194244e+02
   9.277574e+00   1.283375e+02
  -2.470687e+01   1.069907e+02
  -1.051876e+02   1.523558e+02
  -2.493083e+02   7.154062e+01
  -1.950631e+02  -5.122017e+01
  -1.397189e+02  -2.408977e+02
   7.709281e+01  -1.276263e+02
   1.317327e+02   6.893373e+00
   1.101527e+02   1.935957e+02
  -3.074060e+01   1.784395e+02
  -2.399367e+02   9.194944e+01
  -2.928035e+02  -1.412199e+02
  -1.012004e+02  -2.698664e+02
   1.303638e+01  -2.089873e+02
   1.655485e+02  -1.121920e+02
   1.187366e+02  -9.064206e+01
   1.623465e+02  -9.600952e+01
   1.971945e+02  -4.198644e+01
   3.931668e+02   7.620785e+01
   2.741075e+02   2.348368e+02
   3.218494e+01   3.885684e+02
  -3.557050e+02   3.754682e+02
  -4.399293e+02   2.096633e+02
  -2.485436e+02  -3.570469e+01
  -2.098067e+01  -2.090554e+02
   1.033403e+02  -1.744568e+02
  -3.478987e+01  -1.737513e+01
  -8.805027e+01   5.207414e+00
  -6.034178e+01  -6.755524e+01
  -3.929844e+01  -8.851686e+01
   1.101640e+02  -1.421778e+02
   8.486564e+01   9.199425e+01
  -4.209482e+01   1.129268e+02
  -1.562952e+02   1.152701e+01
  -1.465769e+02  -1.796440e+02
   2.755437e+01  -3.067326e+02
   1.674191e+02  -2.019277e+02
   2.537924e+02   2.177527e+01
   2.054563e+02   1.842846e+02
   8.594989e+01   1.840696e+02
  -1.296684e+02   1.533555e+02
  -1.481071e+02   9.612415e+00
  -4.207065e+01  -1.850293e+01
   3.475319e+01   8.078075e+01
  -4.362203e+01   6.839541e+01
  -1.069028e+02   8.055143e+01
  -7.808720e+01  -1.053288e+01
   1.600459e+01  -7.995623e+01
   8.063557e+01   4.656828e+00
   8.081958e+01   9.297777e+01
  -1.118194e+02   1.360575e+02
  -2.669468e+02  -1.247064e+01
  -1.931235e+02  -1.219320e+02
  -7.256807e+01  -1.842882e+02
   1.787708e+02  -1.716564e+02
   2.643311e+02  -1.168480e+02
   1.009598e+02   3.894194e+01
  -1.266082e+01   6.448525e+01
  -1.771092e+01  -4.947372e+01
   5.342223e+00  -7.083065e+01
   1.279642e+02  -7.476945e+00
   1.640090e+02   9.471399e+01
   7.603115e+01   1.935528e+02
  -1.026949e+02   1.257750e+02
  -1.142120e+02   1.054941e+00
  -4.040691e+01  -5.238029e+01
   2.710157e+01  -2.482557e+01
   1.631168e+01   6.399851e+01
  -7.452715e+01   1.148632e+02
  -1.881028e+02   1.670728e+01
  -1.279055e+02  -9.939781e+01
   1.250721e+01  -1.985741e+02
   1.427336e+02  -1.371483e+02
   1.175274e+02  -4.416530e+01
  -1.402964e+01   5.304655e+01
  -3.617320e+01   5.954185e+01
  -2.247383e+01   3.446920e+01
   2.335730e+00  -1.200746e+01
   6.154011e+01   2.261079e+01
  -7.382042e+00   1.066161e+01
  -5.715923e+01   9.092024e+00
  -1.120766e+02  -9.166994e+01
  -3.150553e+01  -1.551078e+02
   9.171414e+01  -1.444158e+02
   1.661830e+02  -3.248562e+01
   1.923104e+02   1.346241e+02
   5.863826e+01   2.049671e+02
  -2.034805e+01   1.821377e+02
  -9.251514e+01  -2.434944e+01
  -7.624307e+01  -1.255828e+01
  -3.568445e+01  -1.583178e+01
  -3.923678e+01   5.791001e+01
  -6.461475e+01   1.608789e+01
  -6.881144e+01  -5.592463e+01
   1.914926e+01  -6.729228e+01
   1.054760e+02  -5.816926e+01
   9.657625e+01   2.025321e+01
  -2.526607e+01   6.304692e+01
  -1.640972e+02   7.137265e+01
  -1.550961e+02  -2.989600e+01
  -9.752093e+01  -2.188363e+02
   5.682287e+01  -1.924183e+02
   2.424266e+02  -9.882845e+01
   2.048411e+02   1.064516e+02
   7.803206e+01   1.484490e+02
  -3.703999e+01   1.149249e+02
  -8.700417e+01   6.458674e+01
  -7.374287e+01   5.407957e+01
  -7.755853e+01   9.862117e+01
  -6.214710e+01   2.758135e+01
  -1.088363e+02   3.345355e+00
  -1.376193e+02  -6.644926e+01
  -4.181200e+01  -1.757086e+02
   1.101430e+02  -1.965788e+02
   1.495138e+02  -2.844849e+01
   1.171871e+02   7.963926e+01
   5.535084e+01   1.292197e+02
  -8.874268e+01   1.694307e+01
  -6.070599e+01   1.229477e+01
  -3.645481e+01  -5.190733e+01
   1.986669e+01  -6.324717e+01
   3.297692e+00   6.058954e-01
  -6.428544e+01  -4.207172e+01
  -1.618542e+01  -3.416607e+01
   4.989176e+01  -5.629837e+01
   1.304169e+02  -4.609633e+00
   1.520251e+02   8.537053e+01
  -1.896743e+01   8.936375e+01
  -1.640429e+02   5.516134e+01
  -6.379998e+01  -4.140992e+00
  -6.428762e+01  -6.561991e+01
   1.983193e+01  -2.747879e+01
   6.413933e+01   2.632490e+01
   4.298692e+01   7.193472e+01
  -1.788469e+01   4.757636e+01
  -2.239377e+01   1.760505e+01
  -7.505681e+01  -3.790938e+01
   7.994290e+00  -4.661073e+01
  -6.812698e+01   2.039651e+00
  -4.961582e+01  -4.309030e+01
  -5.155496e+01  -8.280759e+01
   2.958731e+01  -1.396915e+02
   5.093317e+01  -9.124719e+01
   1.223872e+02   4.856672e-01
   1.332792e+02   5.215683e+01
   2.487227e+01   8.793728e+01
  -7.414850e+01   9.558874e+01
  -1.568833e+01   1.787557e+01
   2.640766e+01  -1.192058e+01
   6.879631e+01   6.253763e+01
   1.125015e+02   5.812725e+01
  -6.131334e+01   1.644618e+02
  -1.478657e+02  -4.026966e+00
  -1.158402e+02  -7.697040e+00
  -1.106906e+01  -3.635820e+01
   7.164240e+01  -5.423285e+01
   4.646463e+01   1.164849e+01
  -4.530469e+01   4.487099e+01
  -8.038398e+01   3.321997e+01
  -6.144458e+01  -9.449955e+01
   5.733321e+01  -1.149426e+02
   1.498517e+02  -8.059657e+01
   1.350784e+02   8.173490e+01
   2.425097e+01   1.781088e+02
  -3.762980e+01   1.566241e+02
  -1.216779e+02   1.198254e+01
  -6.224539e+01  -1.583863e+02
   1.986805e+00  -1.221980e+02
   3.971263e+01  -5.140322e+01
   1.646461e+01   2.461657e+01
   2.682560e+00  -1.793938e+01
  -1.261738e+01   3.244793e+01
   1.893585e+01  -1.979375e-01
   1.101358e+02   5.587259e+01
   6.710518e+01   1.124002e+02
  -3.235419e+01   3.932906e+01
  -1.160962e+02   8.870328e+00
  -9.019315e+01  -4.519122e+01
  -6.560984e+00  -3.629287e+01
   5.844206e+01  -3.729703e+01
   9.708821e+01  -4.703708e+01
   1.417623e+01   9.328600e+00
  -5.647728e+01  -4.629189e+00
  -1.354719e+01  -4.232332e+01
   1.124484e+01  -2.530392e+01
  -1.386006e+01   2.820484e+01
  -8.329908e+01   2.372851e+01
  -7.126009e+01  -5.714972e+01
  -5.059960e+01  -7.796474e+01
   8.388703e+01  -1.044501e+02
   1.284479e+02  -8.487831e+01
   9.442331e+01   6.329932e+01
   7.742824e+01   1.644126e+02
  -7.792515e+01   1.690229e+02
  -1.070001e+02   8.535650e+01
  -7.111719e+01   7.780616e+00
  -1.347440e+00  -6.403942e+01
   1.050483e+00  -2.695217e+01
  -1.271955e+01   9.968223e+00
  -7.439704e+01  -7.025699e+01
  -4.126854e+01  -5.266641e+01
   1.599567e+01  -6.909057e+01
   7.853342e+01   6.398692e+01
   9.964194e+01   2.749077e+01
  -1.103445e+01   9.691121e+01
  -4.625146e+01   1.013529e+01
  -8.391225e+01  -5.195020e+01
  -5.328279e+01  -7.284805e+01
   7.386593e+01  -6.856114e+01
   9.199242e+01  -5.092105e+00
   5.690137e+01   6.604341e+01
  -5.490749e+01   4.534653e+01
  -2.926081e+01   1.808329e+01
   2.893240e+01   8.134302e+00
   4.535125e+01  -7.845195e+00
   3.425967e+01  -5.646934e+00
  -2.913559e+01   4.805949e+01
  -1.145910e+02   6.197233e+01
  -8.865486e+01  -2.004209e+01
   1.118767e+01  -5.611683e+01
   7.055373e+01  -5.913092e+01
   5.407915e+01  -6.139069e+01
   2.578476e+01   1.606742e+01
  -7.055179e+00   6.263093e+01
   1.114973e+01  -3.361584e+01
  -5.225632e+01  -3.196038e+01
   1.108456e+01  -3.005577e+01
   1.719347e+01  -1.503268e+01
   9.661056e+01   5.480843e+01
   8.682614e+00  -2.152436e+01
  -1.786914e+01  -4.462474e+01
   1.666987e+01  -1.091631e+01
  -6.438868e+00   2.974021e+01
   4.337391e+00   3.373599e+01
  -2.326609e+01   1.984890e+01
  -4.954726e+01   6.727096e+00
  -4.838718e+01  -3.066893e+01
   7.396978e+01  -3.257375e+01
   7.382782e+01   2.893912e+01
   3.046788e+01   5.315498e+01
  -4.996245e+01   4.698397e+01
  -5.301758e+01  -3.667891e+01
  -1.743473e+00  -6.427136e+01
   4.388314e+00  -3.401557e+01
   4.073858e+01  -5.451752e+01
   1.930105e+01  -2.596264e+01
  -2.942077e+01  -9.835265e+00
  -2.455089e+01  -2.740249e+01
   1.599116e+01   3.407405e+00
   3.665722e+01  -2.815519e+01
