
 $NMID
 id='ANONYMOUS ', fmtdat='(2E16.6)'
 volume=1.0
 tramp=1.0
 $END
  -2.583574e+03   1.010951e+02
  -1.802797e+03  -1.319014e+03
  -3.444039e+02  -1.833259e+03
   8.014234e+02  -1.349422e+03
   8.396931e+02  -2.868959e+02
   1.331423e+02   1.129537e+02
  -1.363666e+02  -4.367142e+01
  -7.380596e+01  -3.841693e+02
   2.486991e+02  -6.069002e+02
   2.907532e+02  -1.748935e+02
   5.411587e+02   2.084574e+02
   2.195188e+02   5.422708e+02
  -2.647388e+02   2.178255e+02
  -1.828231e+02  -2.107981e+02
  -1.703073e+02  -4.810945e+02
   2.747383e+02  -6.372979e+01
   2.836531e+02   3.158450e+02
  -5.205442e+00   5.608590e+02
  -3.499886e+02   2.161325e+02
  -3.433374e+02  -8.107475e+01
  -1.669362e+02  -2.807722e+02
   3.910536e+01  -2.439037e+02
   6.261302e+01  -8.371003e+01
  -1.907596e+02  -7.892103e+01
  -1.884266e+02  -1.779627e+02
   6.582260e+00  -3.448099e+02
   3.106466e+02  -2.550248e+02
   4.461148e+02   1.080197e+02
   2.398213e+02   2.443617e+02
  -2.347447e+02   1.320775e+02
  -4.282392e+02  -5.862573e+01
  -1.982108e+02  -2.357506e+02
   1.938097e+02  -3.723916e+02
   3.576797e+02  -1.108745e+02
   3.300039e+02   1.163115e+02
   6.873440e+01   2.880022e+02
   6.263553e+01   1.707824e+02
   8.636700e+01  -8.458296e+01
   1.398121e+02  -1.661081e+02
   2.069254e+02   1.465080e+02
  -3.678835e+01   4.065421e+02
  -1.111018e+02   3.398379e+02
  -1.901818e+02   9.463109e+01
   8.283786e-02  -2.053094e+02
   1.252457e+02  -1.534756e+02
   1.931315e+02   1.682872e+02
  -1.120616e+02   4.136112e+02
  -3.911027e+02   4.717003e+01
  -4.974149e+02  -1.975861e+02
  -1.594653e+02  -3.800961e+02
   1.104958e+02  -2.715501e+02
   3.852012e+02  -3.088941e+01
   2.774545e+02   1.153830e+02
   1.168316e+01   1.850380e+02
  -1.614845e+02   1.384882e+02
  -2.094277e+02  -8.179273e+00
  -2.608196e+01  -1.960340e+00
   3.567963e+01   2.358232e+01
  -4.565549e+01   5.072308e+01
  -2.167826e+02   5.640366e+01
  -1.368344e+02  -1.077732e+02
   7.856317e+01  -2.562413e+02
   3.051210e+02  -1.573849e+02
   1.984292e+02   1.852059e+01
   3.988507e+00   2.562673e+02
  -3.257189e+02   3.346183e+02
  -2.560556e+02   1.173571e+02
  -1.584668e+02  -9.610702e+01
  -8.774137e+01  -2.411505e+02
  -1.524914e+01  -2.337184e+02
  -4.001945e+01  -1.263081e+02
   5.131885e+00  -1.442264e+02
   7.794971e+01  -1.060218e+02
   2.062310e+02  -1.349412e+02
   1.982927e+02   7.893327e+01
   1.316250e+02   1.769232e+02
  -6.201182e+01   1.227536e+02
  -1.433529e+02  -4.437968e+01
  -1.138861e+02  -1.338928e+02
   7.093517e+01  -2.241395e+02
   2.739446e+02  -9.741538e+01
   2.960002e+02   1.692625e+02
   9.719623e+01   1.768144e+02
   1.458069e+01   1.899956e+02
  -1.269707e+02   1.628023e+02
  -1.399547e+02   8.404748e+01
  -1.539122e+02   1.036616e+02
  -2.572664e+02   5.588466e+01
  -3.871164e+02  -8.716421e+01
  -2.475709e+02  -3.233059e+02
   4.150588e+01  -3.621039e+02
   3.729550e+02  -3.414869e+02
   4.239494e+02  -1.518016e+02
   2.113881e+02   1.616688e+01
   5.862849e+01   1.737925e+02
  -4.093594e+01   1.550864e+02
   1.635894e+01  -5.686749e+00
   8.074198e+01  -6.456243e+01
   1.246695e+02   3.479283e+01
   3.858501e+01   6.764749e+01
  -1.344081e+02   9.176717e+01
  -1.212027e+02  -1.726458e+01
   4.683458e+01  -1.175021e+02
   1.088403e+02  -7.125579e+01
   1.293483e+02   1.540795e+02
   1.608988e+01   2.706059e+02
  -1.284284e+02   1.866562e+02
  -2.533311e+02  -1.095913e+01
  -2.524828e+02  -1.985533e+02
  -6.658443e+01  -1.849149e+02
   1.125694e+02  -1.269572e+02
   9.500579e+01  -1.658354e+01
   9.506452e+00   8.174401e+00
  -3.849350e+01  -3.298557e+01
   1.258425e+01  -1.141123e+02
   1.048633e+02  -9.834071e+01
   1.427464e+02  -2.296185e+01
  -6.908204e+00   3.337950e+01
  -3.688874e+01   8.996979e+00
  -3.027888e+01  -8.877412e+01
   1.441909e+02  -1.230234e+02
   2.471676e+02  -1.073820e+01
   2.377754e+02   9.498875e+01
   1.330271e+01   2.374687e+02
  -1.648320e+02   1.790711e+02
  -2.349381e+02   5.279806e+01
  -1.068794e+02  -4.667637e+01
   3.570230e+01  -6.516006e+01
   3.063527e+01   2.583145e+01
  -6.579541e+01   8.060305e+01
  -1.378618e+02   3.570752e+01
  -1.759717e+02  -6.879712e+01
  -1.044046e+01  -1.908620e+02
   8.206376e+01  -1.277283e+02
   1.051573e+02  -4.220380e+01
   6.927070e+01   3.711876e+00
  -1.915409e+01   3.546116e+01
  -5.978006e+01  -8.424922e+01
   9.829249e+01  -6.707827e+01
   1.755546e+02  -3.667822e+01
   1.458070e+02   1.554142e+02
   7.782452e+00   1.641862e+02
  -8.244435e+01   1.277580e+02
  -1.512749e+02   3.503286e+01
  -3.717959e+01  -3.094642e+01
   9.419378e+01  -7.021223e+01
   4.709698e+01  -3.923776e+00
   3.117506e+01   2.519982e+01
  -1.298715e+01  -1.609639e+01
  -1.019142e+00   1.210282e+01
   7.383666e+01   3.520682e+00
   9.329003e+01   7.786895e+01
   5.135836e-01   1.586916e+02
  -8.063580e+01   1.645136e+02
  -1.911736e+02   1.183206e+01
  -1.971482e+02  -7.836864e+01
  -7.869231e+01  -1.547870e+02
   3.601855e+01  -1.173289e+02
   9.289069e+01  -7.510948e+01
   8.171114e+01  -2.482149e+01
   1.823867e+01   9.043054e+00
   4.341040e+01   8.949775e+00
   9.858066e+01   1.292580e+01
   5.986621e+01   5.350200e+01
  -2.499903e+00   7.676519e+01
  -1.457387e+02   1.219777e+02
  -1.372152e+02  -2.733276e+01
   9.815415e+00  -9.413398e+01
   1.494052e+02  -7.273560e+01
   1.421725e+02   3.167524e+01
   6.050554e+01   1.985092e+02
  -7.704829e+01   2.258082e+02
  -1.504351e+02   7.212581e+01
  -2.194699e+02  -5.071156e+01
  -1.193994e+02  -1.007942e+02
   5.397925e+01  -7.842778e+01
   3.449297e+01  -1.107903e+02
   2.230703e+01  -3.442407e+01
   4.315614e+01  -4.532384e+01
   6.785060e+01  -8.450964e+01
   1.268046e+02   5.590973e+01
   1.230358e+02   1.175062e+02
   4.718138e+01   1.716900e+02
  -1.062161e+02   1.424273e+02
  -1.271826e+02   3.580093e+01
  -1.267845e+02  -1.113528e+02
   3.098572e+00  -1.325783e+02
   2.834694e+01  -8.386329e+01
   5.946079e+01   1.295665e+01
   8.234355e+00   5.563013e+01
   7.086094e+00   3.162246e+01
   9.641096e+00   2.098412e+01
   8.770469e+01   1.304621e+01
   2.993004e+01   4.811821e+01
  -5.434522e+01   9.952931e+00
  -1.253316e+02  -2.388400e+01
  -1.588056e+02  -4.528446e+01
  -1.978758e+01  -7.357845e+01
   1.271605e+02  -4.554348e+01
   1.317165e+02  -2.474318e+01
   4.961802e+01   2.265468e+00
  -8.392528e+01   6.325044e+01
  -5.422265e+01  -1.582558e+01
  -4.699037e+01  -1.024799e+02
   5.015637e+01  -5.585050e+01
   7.501821e+01   3.300643e+00
   8.560141e+01   1.245053e+01
   4.667493e+01   6.502872e+01
   5.991519e+01  -5.729092e+01
   8.311069e+01  -1.095332e+01
   1.401831e+01   7.812751e+01
   6.626909e+00   1.102603e+02
  -1.527379e+02   1.477279e+02
  -1.749839e+02   2.057749e+01
  -1.009139e+02  -6.011470e+01
  -4.301202e+01  -7.690904e+01
   4.523260e+01  -5.937200e+01
   4.986744e+01   1.498383e+01
  -1.787519e+01   3.133558e+00
  -5.562431e+01   1.652398e+01
  -5.307689e+01  -8.511803e+01
   5.978616e+01  -9.105203e+01
   1.669635e+02  -6.646341e+01
   1.132118e+02   4.146749e+01
   8.493243e+00   5.677372e+01
  -5.027188e+01   3.391141e+01
  -5.261405e+01   1.950129e+00
   4.816809e-01  -3.179038e+01
   4.339974e+01  -4.121158e+01
   3.953047e+01   2.623571e+01
  -4.815547e+01   1.644041e+02
  -1.449752e+02   2.202002e+01
  -9.184419e+01  -3.641299e+01
  -1.965529e+01  -2.397234e+02
   3.356029e+01  -1.067971e+02
   9.391923e+01  -3.440791e+01
   5.199005e+01   7.011957e+01
  -1.319811e+01   9.074873e+01
  -6.727826e+01   2.203257e+01
  -1.756162e+01  -1.781717e+01
  -1.064040e+01   1.540981e+01
   3.889465e+00  -9.795993e+00
  -2.856760e+01   4.544826e+00
   1.430134e+00  -7.699171e+01
  -3.695351e+01  -4.811999e+01
   2.895782e+01  -6.460818e+01
   1.039813e+02  -1.063818e+01
   7.123775e+01   3.647110e+01
   1.030790e-01   1.744563e+01
  -5.523582e+01   5.792127e+01
  -8.343510e+01  -1.583693e+00
  -1.423635e+01  -1.755651e+01
   2.287193e+01   4.004071e+01
   1.074017e+01  -1.571060e+01
  -2.744367e+01   1.406200e+01
   1.872316e+01   6.196240e+01
   5.537934e+01   9.533209e+00
   7.780426e+01   1.265173e+01
   4.687189e+01   9.377058e+01
  -5.476097e+01   1.304635e+02
  -1.462186e+02   8.926604e+01
  -1.341588e+02   1.209044e+01
  -8.568713e+00  -1.286493e+02
   2.993455e+01  -1.612746e+02
   7.687935e+01  -7.136545e+01
   9.056158e+01   6.825674e+01
   3.513601e+01   2.821853e+00
  -1.063234e+01  -1.255177e+01
   1.703572e+01   4.960087e+01
   5.324431e+01   3.722170e+01
   1.276497e+01   6.771507e+01
  -8.754340e+00   8.328021e+01
  -7.117596e+01   5.079287e+01
  -8.845902e+01  -2.637976e+01
  -5.050554e+01  -8.181145e+01
   4.795742e+01  -2.607378e+01
   5.133250e+01   3.791729e+01
   2.028945e+01   8.808807e+01
  -1.415466e+01   9.827747e+01
  -8.873698e+01   1.284554e+00
  -6.497536e+01  -6.068684e+01
   1.608684e+01  -7.878647e+01
   3.237395e+01  -1.046218e+01
  -2.620026e+01  -1.365494e+01
  -6.469831e+01   5.218154e+01
   2.362234e+00  -1.122622e+01
   4.459109e+01  -8.027500e+01
   1.331789e+02  -5.792904e+01
   3.446071e+01   1.103953e+01
  -6.020164e+00   8.435998e+01
  -6.396142e+01   7.953639e+01
  -3.739717e+01   6.146942e+00
  -2.862753e+01  -6.410798e+01
   7.887409e+00  -5.429555e+01
   1.984981e+01   1.363450e+01
   4.409998e+01   3.324442e+01
  -1.613088e+01   8.073491e+01
  -1.062322e+01   7.507073e-01
  -5.937262e+01  -2.653453e+01
  -1.487796e+00   1.095443e+01
   2.364471e+00   5.027985e+01
   4.903034e+01   1.104358e+01
  -3.974570e+01   4.963112e+00
  -1.125158e+01  -1.739113e+01
   3.253075e+01  -2.460647e+01
   2.124952e+01  -1.713226e+01
   2.334571e+01   2.187432e+01
  -8.036563e+00   5.321701e+01
  -5.326091e+01  -2.164666e+01
  -1.233276e+01  -4.711855e+01
   5.429368e+01  -9.472487e+01
   7.909604e+01   1.751816e+01
   7.620513e+01   1.954270e+01
  -1.263173e+01   8.223942e-01
  -9.096757e+01  -5.675217e+01
  -2.359195e+01   1.542223e+01
   4.446535e+01   2.256721e+01
   3.808858e+01   2.169609e-01
   2.580213e+01   4.760965e+01
  -4.199699e+01   4.389482e+01
