
 $NMID
 id='ANONYMOUS ', fmtdat='(2E16.6)'
 volume=1.0
 tramp=1.0
 $END
   2.442625e+03   2.108982e+02
   1.713928e+03   1.354185e+03
  -6.462425e+02   2.049046e+03
  -1.292112e+03   8.516204e+02
  -8.762141e+02  -1.944493e+02
   2.626134e+02  -3.177014e+02
   3.740015e+02   2.564306e+02
  -4.218976e+01   6.248020e+02
  -3.944709e+02   4.560505e+02
  -5.397667e+02  -2.639579e+01
  -3.624195e+02  -6.746814e+02
   1.003973e+02  -6.404938e+02
   3.167570e+02  -1.692539e+01
   2.193019e+02   4.338605e+02
  -1.935194e+02   5.406214e+02
  -5.002016e+02  -5.195957e-01
  -1.412256e+02  -5.492748e+02
   2.194608e+02  -4.493438e+02
   4.745849e+02  -1.171332e+02
   3.747181e+02   2.210761e+02
   9.120870e+01   2.714605e+02
  -1.685824e+02   2.189978e+02
  -7.711315e+01   1.101730e+02
   1.325129e+02   3.891156e+01
   2.608198e+02   2.707096e+02
   1.642465e+01   3.247551e+02
  -4.076638e+02   7.773972e+01
  -6.234477e+02  -1.379104e+02
  -2.803841e+02  -4.263172e+02
   2.951088e+02  -1.974686e+02
   3.572420e+02   1.156479e+02
   1.039584e+02   3.589842e+02
  -2.067683e+02   2.971254e+02
  -4.295224e+02   1.495643e+02
  -2.916734e+02  -1.501508e+02
  -1.133508e+02  -2.621738e+02
   1.195272e+02  -1.912482e+02
  -3.150169e+01   8.578105e+01
  -1.286749e+02   1.248390e+02
  -1.856567e+02  -1.326136e+02
  -7.543469e+01  -4.988145e+02
   2.744835e+02  -4.492358e+02
   3.124145e+02   9.548779e-01
   1.386103e+02   3.750212e+02
  -2.509061e+02   9.272979e+01
  -1.202478e+02  -2.066329e+02
   7.803801e+01  -4.192933e+02
   3.485464e+02  -7.280526e+01
   4.607935e+02   4.745531e+02
   1.301432e+02   4.778595e+02
  -3.130799e+02   2.108626e+02
  -4.617640e+02  -4.900208e+01
  -3.519751e+02  -2.287152e+02
   1.233310e+02  -2.086546e+02
   3.144662e+02  -3.178108e+01
   2.110776e+02   9.717458e+01
  -4.292736e+01   5.084327e+01
  -4.835359e+01  -5.382224e+01
   8.454024e+01  -3.073779e+01
   1.862475e+02   5.817524e+01
   1.697552e+02   1.897927e+02
  -1.786165e+02   2.267947e+02
  -3.271970e+02   8.421629e+01
  -2.318914e+02  -9.078656e+01
   8.766341e+01  -2.643737e+02
   2.033208e+02  -2.916461e+02
   3.034925e+02  -1.781211e+02
   2.377818e+02   1.174989e+02
  -1.306395e+01   3.939385e+02
  -4.980492e+01   2.339833e+02
  -3.031044e+01   1.454267e+02
  -2.804422e+01   3.067095e+01
  -1.351949e+02   9.438327e+01
  -2.542305e+02   2.694507e+01
  -1.946963e+02  -1.306189e+02
  -4.648044e+00  -2.383849e+02
   7.649802e+01  -1.363310e+02
   1.941428e+02   6.308760e+01
   1.007806e+02   2.670743e+02
  -8.225217e+01   2.096302e+02
  -2.117972e+02   1.196684e+01
  -2.809799e+02  -1.867817e+02
  -1.671822e+02  -1.921587e+02
   8.395548e+01  -2.149938e+02
   1.983909e+02  -1.119588e+02
   1.276160e+02  -5.248634e+01
   1.197466e+02  -6.390211e+01
   2.167826e+02  -2.730573e+01
   3.076439e+02   6.365004e+01
   2.422257e+02   2.617632e+02
  -1.346344e+02   3.410818e+02
  -2.972939e+02   3.349426e+02
  -4.115538e+02   1.182318e+02
  -2.824023e+02  -1.672805e+02
   2.950176e+01  -2.320047e+02
   7.223322e+01  -1.618848e+02
   5.782319e+01  -1.387856e+01
  -7.678108e+01   1.634353e+01
  -4.951476e+01   1.138522e+00
   3.747933e+01  -1.279338e+02
   1.041598e+02  -1.162077e+02
   5.008961e+01   6.089574e+01
  -2.613665e+01   1.069196e+02
  -9.723469e+01  -5.133603e+01
  -1.058273e+02  -2.630954e+02
   7.336089e+01  -3.219424e+02
   2.044209e+02  -1.414844e+02
   2.681263e+02   7.572498e+01
   2.009085e+02   2.457995e+02
  -1.014665e+01   2.873950e+02
  -1.244832e+02   9.956587e+01
  -1.586489e+02  -1.025805e+01
  -6.226321e+00  -1.599790e+01
   2.455627e+01   2.679209e+01
  -1.969244e+01   5.335190e+01
  -1.291483e+02   4.460948e+00
  -1.247418e+02  -5.681491e+01
  -3.367781e+01  -4.510389e+00
   7.371102e+01  -8.773980e+00
   3.424328e+01   4.922339e+01
  -1.207146e+02   3.840616e+01
  -2.633768e+02  -5.069391e+01
  -2.467885e+02  -1.524819e+02
  -9.292308e+00  -2.316139e+02
   1.892267e+02  -2.184513e+02
   2.275605e+02  -7.200575e+01
   1.099379e+02   7.933755e+01
  -5.114514e+01   9.970051e+01
  -4.291267e+01  -6.587535e+00
   4.159917e+01  -2.296521e+01
   1.759861e+02  -2.307292e+01
   1.618279e+02   8.606828e+01
  -9.933932e+00   1.779700e+02
  -4.262153e+01   1.225427e+02
  -1.272428e+02  -3.038284e+01
  -7.394646e+01  -3.974463e+01
   7.918286e+01   2.226621e+01
   7.073896e-01   8.784313e+01
  -3.728715e+01   1.318113e+02
  -1.963200e+02  -3.585531e+01
  -1.050422e+02  -1.216122e+02
   1.145500e+01  -1.607274e+02
   1.197535e+02  -9.097094e+01
   1.550307e+02   1.157087e+01
   6.890163e-01   6.327668e+01
  -7.884814e+01   7.146018e+01
  -7.491531e+01   4.827947e+01
  -2.808949e+00  -5.225975e+01
   3.014352e+01  -1.337156e+01
   3.360806e+00   2.279064e+01
  -4.498241e+01  -1.721417e+01
  -8.012757e+01  -7.269723e+01
   7.907062e+00  -1.854525e+02
   1.328982e+02  -8.918557e+01
   1.738845e+02   6.989682e+01
   1.098673e+02   1.567842e+02
  -1.507761e-02   1.910879e+02
  -1.127687e+02   1.709781e+02
  -1.321632e+02   3.415546e+01
  -7.732442e+01  -6.683865e+01
  -1.516654e+01   2.032854e+01
  -2.017938e+01   1.952404e+01
  -9.040017e+01   9.045218e+00
  -2.448947e+01  -3.828787e+01
   2.042734e+01  -9.943934e+01
   1.088193e+02  -2.772629e+01
   6.180736e+01   4.051154e+01
  -3.110628e+01   7.437985e+01
  -1.585395e+02   3.745102e+01
  -1.722788e+02  -8.054009e+01
  -5.909072e+01  -2.216510e+02
   1.789832e+02  -2.101756e+02
   2.109280e+02   6.500780e+01
   1.892297e+02   4.751777e+01
   6.354011e+01   1.392753e+02
  -4.755499e+01   1.552086e+02
  -1.630253e+01   7.851154e+01
  -2.941115e+01   9.641242e+01
  -7.504744e+01   3.698296e+01
  -6.359990e+01   8.208087e+01
  -1.398388e+02   1.502511e+01
  -7.733273e+01  -1.827072e+02
   1.026904e+01  -1.649059e+02
   6.892876e+01  -1.608014e+02
   1.425820e+02  -3.512779e+01
   1.193200e+02   1.327410e+02
  -8.332121e+01   1.309147e+02
  -6.805086e+01   9.368013e+01
  -8.280695e+01  -4.996672e+01
  -1.247684e+01  -5.407066e+01
  -8.684438e-01  -5.190463e+01
  -2.194578e+01  -2.253782e+01
  -1.018180e+02  -2.593349e+01
  -4.740548e+01  -7.008516e+01
   4.447087e+01  -3.406770e+01
   1.493860e+02   4.088217e+01
   1.120575e+02   2.900778e+01
  -3.787558e+01   6.571796e+01
  -1.207735e+02   5.964828e+01
  -6.434350e+01  -5.970044e+01
   7.103152e+00  -3.731484e+01
   3.069703e+01  -1.259990e+01
   1.194289e+02  -1.033357e+01
   1.360511e+01   5.400111e+01
  -4.163155e+01   8.106687e+01
  -7.236695e+01   2.673522e+01
  -4.762943e+00  -2.323667e+01
  -4.249539e+01  -2.258252e+01
  -6.041215e+01  -1.940891e+01
  -3.158921e+00  -8.302058e+00
  -3.974580e+01  -8.932081e+01
   6.194147e+01  -1.569959e+02
   1.572652e+02  -1.078899e+02
   1.769699e+02   2.089978e+01
   7.484324e+01   8.364049e+01
  -1.342485e+00   1.297420e+02
  -1.003130e+02   3.039683e+01
  -9.101096e+01  -3.547372e+01
   3.088672e+01  -2.012897e+01
   1.227030e+02   4.715931e+01
   5.122279e+01   6.707654e+01
  -5.811150e+01   5.582519e+01
  -1.716338e+02  -1.720683e+01
  -1.359988e+02  -4.800135e+01
  -3.561791e+01  -5.753413e+01
   7.138566e+01  -2.567809e+01
   8.036712e+01   1.102631e+01
  -4.306589e+01   4.086251e+01
  -7.110932e+01  -5.893400e+01
  -2.009204e+01  -8.316941e+01
   1.216287e+02  -1.225892e+02
   1.134978e+02  -6.163947e+01
   7.551227e+01   1.120279e+02
   1.212806e+01   1.618614e+02
  -3.343411e+01   1.109977e+02
  -7.357384e+01  -5.921628e+00
  -6.530625e+01  -1.564203e+02
   3.958019e+01  -1.080932e+02
   3.776421e+01   8.631781e+00
   3.167141e-02   1.286410e+01
   1.460353e+01   3.237537e+01
   1.431260e+01  -1.199251e+01
  -2.174031e+01   4.553787e+01
   7.580158e+01   8.142396e+01
  -1.033147e+01   6.818737e+01
  -1.406798e+01   4.569684e+01
  -1.264149e+02  -4.091415e+01
  -1.171069e+02  -7.145369e+01
  -4.987875e+01  -5.968362e+01
   9.424984e+01   9.616336e+00
   1.035287e+02   2.389089e+01
  -3.999650e+01   3.305435e+01
  -4.903608e+01  -2.249982e+01
  -6.518436e-01   2.040641e+01
   4.239326e+01   2.286478e+01
  -8.148227e+00  -2.218161e+01
  -7.056129e+01  -3.879796e+01
  -6.903502e+01  -8.030761e+01
   2.715500e+00  -7.382004e+01
   1.176102e+02  -1.050882e+02
   1.497245e+02  -3.247626e+01
   1.399521e+02   1.168344e+02
   4.588939e+01   2.201109e+02
  -8.972076e+01   9.478709e+01
  -8.444745e+01   3.301379e+01
  -9.177754e+01  -3.152922e+01
  -8.920300e+01  -8.384043e+01
  -1.221328e-01  -1.949406e+01
  -2.824592e+01  -4.263387e+00
  -3.027847e+01  -1.962900e+01
   2.818704e+00  -6.381400e+01
  -2.708472e+01  -5.987722e+01
   8.009208e+00   6.541003e+00
   5.289876e+01   7.796698e+01
   4.765714e+01   1.016605e+02
  -8.265231e+01   5.817437e+01
  -8.696419e+01  -7.339404e+01
  -2.095936e+01  -9.893093e+01
   5.482381e+01  -3.798943e+01
   9.587204e+01  -5.159834e+01
   3.955429e+01   1.115986e+01
  -7.881345e+01   5.472051e+01
  -2.407841e+01   6.029531e+00
   1.578474e+01   2.502188e+01
   4.752266e+01   5.358009e+01
   1.224050e+01   3.768959e+01
  -4.342076e+01   4.125605e+01
  -1.290163e+02   1.293434e+01
  -9.235065e+01  -3.665148e+00
   3.310203e+00  -5.164449e+01
   8.599099e+01  -5.782751e+01
   1.256427e+01  -2.384243e+01
   4.523452e+00   2.178206e+01
   1.492943e+01   1.779609e+01
  -3.077949e+01   4.507852e+01
  -2.716197e+01  -7.207857e+01
   4.658678e+01  -8.882297e+01
   3.338303e+01  -3.036555e+00
   1.207987e+01   2.031924e+01
  -4.144819e+01  -7.073806e+00
  -3.862239e+01  -3.733690e+01
  -1.475891e+01  -2.064932e+01
   1.185277e+01   2.730230e+01
  -1.519767e+01   2.096221e+01
  -3.663286e+01  -2.016581e+01
  -3.126748e+01  -5.648971e+01
  -5.439621e+01  -7.138351e+00
   4.499054e+01  -2.084708e+01
   4.260249e+01   5.191831e+01
   1.466348e+00   4.938458e+01
  -7.235803e+01   8.278385e+00
  -7.723678e+01  -2.772299e+01
  -4.069769e+01  -4.534748e+01
   4.613701e+01  -9.941790e+00
   6.963084e+01   1.083839e+01
   2.313882e+01  -9.826843e+00
  -4.778496e+01   3.712257e+01
  -2.812820e+01  -5.935292e+01
   2.651136e+00  -5.262858e+01
   7.583206e+01  -5.110928e+01
