
 $NMID
 id='ANONYMOUS ', fmtdat='(2E16.6)'
 volume=1.0
 tramp=1.0
 $END
   1.129199e+03   8.109581e+02
   4.920146e+02   9.885361e+02
  -4.124003e+02   7.295135e+02
  -6.962410e+02   2.914334e+02
  -1.701478e+02  -2.366863e+02
   2.598487e+02  -5.538132e+01
   2.063166e+02   2.273324e+02
  -1.720445e+02   2.559290e+02
  -4.209444e+02   4.018516e+01
  -4.204265e+02  -1.044865e+02
  -7.310374e+01  -3.263440e+02
   1.049454e+02  -3.156374e+02
   1.623924e+02   1.964607e+01
   9.740310e+01   2.490697e+02
  -5.861281e+01   1.599309e+02
  -1.908208e+02  -8.013650e+01
  -2.197112e+01  -2.399082e+02
   1.287905e+02  -2.113931e+02
   1.741850e+02   4.540842e+01
   9.850541e+01   9.928995e+01
  -1.089254e+02   1.899730e+02
  -7.388407e+01   5.634809e+01
  -8.597487e+01  -1.064501e+01
   7.946816e+01  -3.005191e+01
   1.273218e+02  -1.358074e+01
   8.805748e+01   1.101653e+02
  -1.866338e+02   4.362341e+01
  -3.045241e+02  -1.117227e+02
  -1.422396e+02  -1.804236e+02
   1.636317e+02  -5.114730e+01
   2.269938e+02   1.313990e+02
   9.622552e+01   1.923624e+02
  -1.369889e+02   6.565342e+01
  -1.329969e+02  -6.755137e+01
  -1.200569e+02  -1.394575e+02
   3.737995e+01  -1.047398e+02
   4.544724e+01  -7.742178e+01
  -6.350977e-01   3.687217e+01
  -1.003827e+02   1.042208e+02
  -1.766262e+02  -3.838073e+01
   2.418942e+01  -3.331234e+02
   1.622989e+02  -2.017836e+02
   2.625609e+02   3.481698e+01
   1.941282e+01   1.947712e+02
  -8.927054e+01   4.774417e+01
  -8.339226e+01  -1.846133e+02
   1.090720e+02  -1.877103e+02
   1.710677e+02   1.089061e+02
   1.000468e+02   1.957014e+02
  -5.611261e+01   1.869607e+02
  -1.657555e+02   1.190816e+02
  -1.327509e+02  -3.038990e+01
  -1.397553e+02  -1.110707e+02
   8.481143e+01  -5.212490e+01
   1.392462e+02   4.435081e+01
   4.371535e+01   5.568894e+01
  -4.678473e+01   2.676260e+01
  -1.692371e+01  -1.265209e+02
   8.744924e+01  -8.620101e+01
   8.865900e+01  -1.896367e-01
  -1.584864e+01   8.435008e+01
  -1.209563e+02   3.630337e+01
  -8.687112e+01  -4.477245e+01
  -7.584739e+01  -1.853973e+01
  -3.812858e+01  -1.281762e+02
   1.150938e+02  -1.749355e+01
   1.196844e+02  -4.867098e+01
   1.152920e+02   9.933801e+01
  -4.815935e+00   2.232964e+02
  -8.341918e+01   1.288627e+02
  -1.038372e+00   8.551391e+00
   8.061881e+00   8.810340e+00
  -5.935580e+01   6.828463e+01
  -9.821446e+01  -2.350800e+00
  -1.462970e+02  -8.783677e+01
  -1.664223e+00  -7.288283e+01
   4.270321e+01   1.496766e+01
   1.152961e+02  -1.568965e+01
   4.559879e+01   7.941101e+01
  -9.364130e+01   8.340073e+01
  -8.838877e+01   7.878780e+00
  -9.876069e+01  -1.052501e+02
  -3.938624e+01  -1.026893e+02
   9.273624e+01  -5.610510e+01
   1.058949e+02  -3.486499e+01
   1.625444e+01  -6.230170e+00
   2.487727e+01  -3.887483e+01
   6.700610e+01   3.026792e+01
   6.967518e+01   6.534726e+01
  -1.412173e+01   1.253949e+02
  -2.663611e+01   2.037021e+02
  -1.622913e+02   1.255875e+01
  -1.743848e+02   2.579555e+01
  -8.109491e+01  -3.410783e+01
  -2.385643e+01  -8.737646e+01
   8.385611e+01  -5.201636e+01
   4.274475e+01  -7.187413e+00
  -6.608164e+01   6.466020e+01
  -3.502904e+01  -1.374515e+01
  -2.201907e+00  -9.799434e+01
   8.811221e+01  -3.701093e+01
   2.163003e+01   4.208002e+01
  -1.826040e+01   4.681419e+01
  -9.903587e+01  -2.509480e+01
  -6.488198e+01  -1.005164e+02
  -1.350776e+01  -1.261613e+02
   3.372013e+01  -2.429479e+01
   1.269108e+02   6.402280e+01
   6.693486e+01   1.803281e+02
   6.039526e+01   8.267349e+01
  -4.893826e+01   6.208576e+01
  -4.263634e+01   1.683278e+01
  -2.694059e+01  -2.166426e+01
   4.196429e+01   3.240368e+01
   6.797205e+00   2.097526e+01
  -8.008442e+00   1.419515e+01
  -5.250784e+01  -4.170381e+00
  -4.352756e+01  -2.206473e+01
   5.985267e+01   6.534459e-01
  -6.728089e-01   5.380531e+01
  -4.396621e+01   4.633495e+00
  -8.386482e+01  -5.755196e+01
  -8.082512e+01  -4.870055e+01
   5.771677e+00  -8.720923e+01
   6.886921e+01  -5.340759e+01
   9.099359e+01   2.709273e+01
   4.141120e+01  -1.687301e+01
   2.443909e+01   7.240478e+01
  -8.692801e+00  -8.915181e+00
   7.364432e+01  -7.297772e+01
   3.549779e+01  -1.357533e+01
   1.111079e+02   3.044596e+01
   6.576023e+01   9.754335e+01
  -2.314096e+01   6.077930e+01
  -5.324693e+01  -2.690141e+01
  -4.307963e+01  -3.388722e+01
   3.003761e+01  -2.666538e+01
   1.310536e+01   4.849924e+01
   6.727362e-01   1.942573e+01
  -3.929271e+01   2.000506e+00
  -3.555507e+01  -6.029679e+01
   1.203049e+01  -7.876710e+01
   5.812211e+01  -1.475844e+01
   9.006343e+01   3.756553e+01
   2.573493e+01   4.693304e+01
  -4.306280e+01   5.253585e+01
   9.452742e+00   9.703812e+00
   3.544757e+01  -4.779994e+00
   6.883783e+00   1.060858e+00
  -1.077377e+01   6.202491e+00
  -4.379194e+01  -1.567136e+01
  -3.524869e+01  -8.641214e+00
  -1.015614e+01  -5.442854e+01
   4.211679e+01  -5.573792e+01
   1.268272e+02   7.370649e+01
   5.356830e+01   6.902123e+01
  -8.287588e+01   1.445251e+02
  -6.059588e+01   5.307049e+01
  -1.442727e+01   5.686884e+00
  -2.270360e+01   7.738488e+00
  -1.589466e+01  -5.246643e+00
   6.463977e+00  -3.591900e+00
  -5.508014e+01  -9.896239e+00
  -1.829570e+00  -1.639100e+01
   3.319068e+01  -7.368478e+00
   3.210034e+01   2.057966e+01
   7.617035e+00   2.699026e+01
   4.663038e+00   4.074554e+01
  -3.626588e+01   1.382683e+01
  -1.782989e+01  -1.239748e+01
  -4.028182e+01  -1.003085e+02
   4.303249e+01  -2.358780e+01
   7.348715e+01  -2.325059e+01
   2.550633e+01   6.639751e+01
   3.552367e+01   6.882995e+01
  -2.257355e+00   5.432266e+01
  -3.369051e+01   4.586745e+01
  -1.117738e+00   4.788634e+01
  -2.685847e+01   8.334315e+00
  -1.005619e-01   5.527412e+01
  -3.641832e+01  -3.028498e+01
  -4.083210e+01  -3.790787e+01
  -1.838687e+01  -3.983075e+01
   5.942593e+01  -7.407574e+00
   2.923150e+01   2.937040e+01
   8.100711e+00   2.627727e+01
  -2.758774e+01   7.254152e+01
   3.269659e+00   2.557113e+01
  -1.834175e+01  -2.186107e+01
  -1.337339e+01  -7.333128e+00
   2.694388e+01   4.477649e+00
  -3.072418e+01  -1.691951e+01
   2.174830e+00  -5.766914e+00
  -2.316129e+01  -1.583449e+01
  -1.452465e+01   6.097969e+00
   6.094594e+01  -2.816932e+01
   3.798033e+01   4.307349e+01
   1.221241e+01  -7.294690e+00
  -6.734648e+01   8.353652e+00
  -3.673945e+01  -3.491632e+01
   1.013111e+01   5.884330e+00
   2.368751e+01   1.992704e-01
   2.596876e+01  -1.665561e+00
   2.380891e+01   3.251728e+01
   1.195423e+01   5.958451e+01
  -1.606146e+01   1.088833e+01
   4.657850e-01  -1.722050e+01
  -2.035133e+00  -6.905016e+00
  -3.484406e+01   2.000747e+01
  -3.990029e+01  -5.309804e+01
   1.612197e+01  -4.876139e+01
   4.048182e+01  -7.568340e+01
   4.703931e+01  -3.161344e+01
   7.794816e+01   2.273636e+01
  -2.331508e+01  -8.812352e+00
  -3.898532e+00   6.292341e+01
  -4.312095e+01   1.404756e+01
  -3.978942e+01  -7.096902e-01
   4.942109e+01  -2.703540e+01
   1.237305e+01  -9.144426e+00
   2.749871e+01   2.080511e+01
  -2.518725e+01  -8.103190e+00
  -5.529005e+01   3.716119e+00
  -6.928770e+01  -4.451496e+01
  -1.700878e+01  -2.583189e+01
   1.930542e+01   1.233852e+00
   1.623136e+00   3.056286e+01
  -3.684489e+01   3.271973e+01
  -5.022656e+01  -8.643816e+00
  -3.288436e+01  -3.687178e+01
  -3.395433e+01  -3.024501e+01
   4.501052e+01  -4.436412e+01
   5.379295e+01   9.574355e+01
   1.698177e+01   8.367760e+01
  -4.689880e+01   4.117409e+01
  -2.964026e+01  -2.293684e+01
  -2.254723e+01  -1.163570e+01
  -4.580474e+00  -7.259758e+00
   2.968168e+00  -1.193311e+00
  -9.448403e-01  -3.543990e+00
   4.786406e+01   1.301673e+01
   5.626773e+01   2.784410e+01
   2.867754e+01   8.623512e+00
  -4.817216e+00   3.867897e+01
  -3.703999e+01   6.365461e+01
  -5.444335e+01   4.095206e-01
   8.249577e+00  -7.616302e+00
  -3.305149e+01  -5.330627e+01
   2.529306e+00  -4.131301e+01
   1.386665e+01   4.196793e+00
   2.001699e+01  -6.045486e+01
   2.108540e+01  -1.288519e+01
  -3.491050e+01   2.257859e+01
   1.156901e+01  -1.133350e+01
  -3.893686e+01  -8.781872e+00
  -2.825418e+01   2.466493e+01
  -1.144234e+01  -2.409142e+00
  -2.857860e+01  -2.428455e+01
   1.175818e+01  -3.698406e+01
   2.981953e+01  -3.727698e+01
   5.207586e+01  -3.598915e+00
   6.429970e+00  -1.240580e+01
  -3.729421e+01   7.180615e+01
  -1.463912e+01   2.479331e+01
  -3.657076e+01  -1.198390e+01
  -3.385230e+01  -1.339159e+00
   1.440350e+01  -1.607759e+01
   9.982157e+00   4.135329e+01
   6.246003e+00   1.795244e+01
  -8.446245e+00  -2.041056e+01
   1.127018e+01  -7.148593e+01
   4.304200e+01  -2.770641e+01
   2.530500e+01  -1.146312e+01
   1.952389e+01   6.013036e+01
  -3.103838e+01   3.480282e+01
  -6.320448e+01  -1.063176e+01
  -3.771510e+01  -4.462031e+01
  -2.862337e+01  -6.819785e+01
   3.551429e+01   3.940153e+01
   4.625318e+01   4.417521e+00
   2.423855e+01   4.092705e+01
  -6.104664e+01   1.953827e+01
   3.410410e+01   1.700647e+01
   2.179005e+01   2.978905e+00
   1.350536e+01  -1.562538e+01
   9.906877e+00   3.678673e+00
  -7.052885e+01   1.725306e+00
  -7.609844e+01  -3.291597e+01
   2.520773e+00  -1.428774e+01
   7.995220e+00  -2.252430e+01
   1.641234e+01  -4.585132e+01
  -2.906253e+00   1.557082e+01
   2.195818e+01  -4.468870e+00
   3.342842e+00   1.672307e+01
  -1.350127e+01  -6.830372e+00
   1.133285e+01  -5.589848e+01
   7.402204e+00  -1.766754e+01
   2.746551e+01  -2.785997e+01
  -2.246882e+01   9.770694e+00
  -1.707621e+01  -1.416054e+01
   2.098273e+01  -3.876251e+01
   2.045898e+01   3.431310e+01
  -4.285247e+01  -2.843193e+01
  -4.538385e+01   7.910532e+00
   3.186641e+01   2.737961e+01
  -2.577525e+01  -2.190770e+01
  -2.425441e+01  -4.213187e+00
   3.165908e+01  -1.159225e+01
   1.209709e+00   1.982343e+01
   5.411739e+00   5.196106e+01
   8.484237e+00  -1.287573e+01
  -3.487400e+01  -1.128044e+01
  -3.012369e+01  -2.875990e+00
  -8.187998e+00  -3.521898e+01
   2.997093e+01   2.246403e+01
   1.860855e+01   5.466213e+00
  -2.994748e+01   4.340284e+01
  -1.551542e+01  -1.983943e+01
   1.613775e+01  -5.050502e+00
   4.386677e+01   4.789131e+01
