
 $NMID
 id='ANONYMOUS ', fmtdat='(2E16.6)'
 volume=1.0
 tramp=1.0
 $END
   3.230618e+03   1.827035e+01
   1.674377e+03   1.600945e+03
  -2.416375e+02   2.083601e+03
  -1.412272e+03   8.369295e+02
  -8.064402e+02   3.212650e+01
   1.794547e+02  -2.931117e+02
   3.805048e+02   7.287917e+01
   1.107106e+02   6.504763e+02
  -4.729541e+02   6.717249e+02
  -6.564867e+02   2.995009e+01
  -3.218250e+02  -5.629475e+02
   1.494103e+02  -7.173430e+02
   3.956539e+02  -2.303138e+02
   1.765735e+02   4.253206e+02
  -1.592789e+02   4.828021e+02
  -3.997787e+02  -1.559889e+01
  -2.046050e+02  -4.443167e+02
   2.050681e+02  -5.632309e+02
   4.222862e+02  -2.065835e+02
   3.123940e+02   1.525735e+02
  -1.598560e+01   2.991863e+02
  -1.174657e+02   2.240572e+02
  -9.502172e+01   1.044059e+01
   1.358799e+02   8.775069e+01
   2.332355e+02   1.662003e+02
   2.171965e+01   2.440053e+02
  -3.129431e+02   4.054394e+01
  -6.028990e+02  -1.471150e+02
  -2.436980e+02  -4.149052e+02
   2.397297e+02  -2.324752e+02
   3.889047e+02   2.226434e+01
   1.791295e+02   3.180273e+02
  -1.789819e+02   3.215596e+02
  -4.158513e+02   1.865130e+02
  -3.145742e+02  -2.111260e+02
  -7.167649e+01  -2.474584e+02
   7.108840e+01  -1.322187e+02
   7.742718e+01   4.936906e+01
  -1.467000e+02   2.392779e+02
  -2.488566e+02  -1.083974e+02
  -6.349918e+01  -4.722764e+02
   2.208799e+02  -3.070624e+02
   3.096412e+02  -1.379389e+01
   7.874031e+01   4.275469e+02
  -1.225048e+02   2.079730e+02
  -2.255324e+02  -2.531873e+02
   3.294309e+01  -3.740502e+02
   3.608852e+02  -8.070952e+01
   4.000834e+02   3.050626e+02
   1.118361e+02   4.893159e+02
  -2.521644e+02   2.108956e+02
  -4.719653e+02  -5.139637e+01
  -2.198623e+02  -2.031695e+02
   6.070000e+01  -2.651872e+02
   2.623821e+02  -4.366715e+01
   1.836656e+02   9.303381e+01
   4.267414e+01   6.034631e+01
  -4.807458e+01  -7.427561e+01
   5.387284e+01  -8.011209e+01
   2.093570e+02   1.129163e+01
   7.613904e+01   1.718636e+02
  -1.926369e+02   1.932104e+02
  -2.558159e+02   5.454354e+01
  -2.101601e+02  -1.043023e+02
   3.368713e+01  -2.335162e+02
   2.101056e+02  -3.482098e+02
   3.272862e+02  -1.447219e+02
   2.247600e+02   8.159411e+01
   3.961655e+01   3.412769e+02
  -8.950502e+01   3.017802e+02
  -5.392851e+01   1.623832e+02
  -4.565450e+01   3.422477e+01
  -1.000981e+02   1.536150e+02
  -2.089772e+02   2.424577e+01
  -2.299599e+02  -1.146689e+02
  -5.463676e+01  -2.266487e+02
   7.692563e+01  -1.735217e+02
   1.106125e+02   4.387417e+01
   3.816313e+01   1.981339e+02
  -1.949181e+01   1.889139e+02
  -2.147878e+02   4.956390e+01
  -2.810345e+02  -1.711166e+02
  -1.623975e+02  -2.878428e+02
   5.838659e+01  -2.004205e+02
   1.986427e+02  -1.179855e+02
   1.530199e+02  -7.589710e+01
   1.343761e+02  -2.724693e+01
   2.329391e+02  -2.877683e+01
   3.751631e+02   1.091802e+02
   2.928273e+02   2.607706e+02
  -2.635501e+01   3.680089e+02
  -2.986701e+02   3.723227e+02
  -4.106999e+02   1.243733e+02
  -1.708756e+02  -1.407233e+02
  -5.776564e+00  -2.232432e+02
   7.477408e+01  -2.114307e+02
   2.305303e+01   1.288755e+00
  -7.432256e+01   5.634258e+01
  -1.051616e+02  -2.470693e+01
  -1.197529e+01  -1.258037e+02
   1.512317e+02  -1.051047e+02
   1.080444e+02   4.318803e+01
   2.210587e+01   9.119790e+01
  -1.320198e+02  -2.163219e+01
  -6.689892e+01  -2.039352e+02
   3.044219e+01  -2.966039e+02
   1.927618e+02  -1.981749e+02
   2.502050e+02   9.395965e+01
   1.790773e+02   2.507028e+02
   6.329178e+00   2.485233e+02
  -1.136814e+02   9.350836e+01
  -1.459095e+02   2.711467e+01
  -3.118836e+01   6.341553e+00
   6.995434e+01   4.118757e+01
  -1.943268e+01   1.084627e+02
  -1.155358e+02   9.358223e+01
  -1.320119e+02  -1.532885e+01
  -2.741243e+01  -3.989342e+01
   5.441369e+01   2.744806e+01
   3.740957e+01   6.031717e+01
  -1.172449e+02   3.680453e+01
  -2.534185e+02  -6.259975e+01
  -2.651945e+02  -1.988113e+02
   1.648820e+01  -1.978710e+02
   1.657981e+02  -1.813762e+02
   2.768520e+02  -7.209217e+01
   1.319769e+02   3.733006e+01
  -4.778447e+01   8.924272e+01
  -5.575958e+01  -6.831660e+00
   7.953642e+01  -1.165291e+02
   1.042074e+02  -3.153151e+01
   1.437256e+02   8.572815e+01
   4.334119e+01   1.505317e+02
  -5.384837e+01   9.251917e+01
  -8.024626e+01   2.932699e+01
  -2.047293e+01  -3.419746e+01
   5.338272e+01   8.924411e+00
   4.804596e+01   1.053061e+02
  -1.003366e+02   1.208286e+02
  -2.065582e+02  -2.628987e+01
  -1.588787e+02  -9.300151e+01
  -6.096523e+01  -1.495706e+02
   1.019977e+02  -1.294339e+02
   1.524415e+02   4.512002e+01
   5.648903e+01   7.983774e+01
  -1.953551e+01   9.095452e+01
  -1.025052e+02  -1.769088e+01
   2.335344e+01   3.746584e+00
   1.957018e+01   3.328654e+01
  -4.597848e+01   2.753536e+01
  -4.162992e+01  -5.877203e+00
  -7.353630e+01  -6.014130e+01
  -4.908291e+01  -1.090295e+02
   1.527464e+02  -7.356633e+01
   1.850814e+02   2.314274e+01
   1.224693e+02   1.281946e+02
  -4.564606e+01   2.141375e+02
  -1.009351e+02   1.104631e+02
  -1.517470e+02   2.642646e+01
  -4.959537e+01  -9.594779e+01
  -6.301340e+01  -1.701590e+01
  -8.158270e+01   2.899767e+01
  -2.264228e+01   3.162824e+00
  -2.186627e+00  -6.632076e+01
   5.315449e+01  -8.469623e+01
   9.469822e+01  -9.097670e+01
   9.254213e+01   1.158156e+01
  -9.918510e+00   1.517376e+02
  -1.759598e+02   4.071870e+01
  -1.662406e+02  -3.595452e+01
  -8.160432e+01  -1.978813e+02
   1.032255e+02  -2.183361e+02
   2.414906e+02  -8.785937e+01
   2.345890e+02   7.546293e+01
   3.324559e+01   1.597707e+02
  -5.557817e+01   1.421542e+02
  -8.415572e+01   6.937960e+01
  -2.938697e+01   9.019402e+01
  -6.324751e+01   3.904971e+01
  -5.032803e+01   7.979815e+01
  -8.414043e+01  -4.985968e+01
  -1.262489e+02  -1.530159e+02
  -4.147176e+01  -1.730369e+02
   5.858237e+01  -1.644832e+02
   1.553930e+02   2.335680e+01
   1.249801e+02   1.214212e+02
  -6.688062e+00   1.521419e+02
  -1.335097e+01   6.529145e+01
  -1.499167e+01  -2.067819e+01
   9.410509e+00  -2.858008e+01
   1.044661e+00  -6.687634e+01
  -9.026510e+00   2.099978e+01
  -8.194827e+01   3.561652e+00
  -4.477754e+01  -3.864808e+01
   3.779430e+01  -5.398414e+01
   1.110406e+02   2.247537e+01
   1.207717e+02   7.029758e+01
  -2.012294e+01   6.688514e+01
  -1.569046e+02   4.660957e+01
  -9.300117e+01  -2.202063e+01
  -2.915273e+01  -6.946588e+01
   7.846755e+01  -4.534430e+01
   3.750274e+01   8.467246e+00
   3.006263e+01   2.968516e+01
  -5.054580e+01   5.142527e+01
  -6.374917e+01  -8.689094e+00
  -5.870051e+01  -6.051232e+01
  -4.508705e+01  -1.508506e+01
  -5.286761e+01  -3.132180e+01
  -1.948104e+01  -5.236450e+01
  -1.747069e+01  -8.427414e+01
   3.102030e+01  -1.519218e+02
   1.362312e+02  -1.239943e+02
   1.149342e+02   5.671920e-01
   9.985661e+01   1.030273e+02
  -6.240547e+01   1.046086e+02
  -8.664251e+01   5.120182e+01
  -5.364222e+01  -2.981963e+01
   5.379852e+01  -1.373968e+01
   9.715275e+01   6.907768e+01
   4.894416e+01   8.143371e+01
  -9.983943e+01   5.674207e+01
  -1.345444e+02  -1.648641e+01
  -9.586456e+01  -5.664494e+01
  -1.240394e+01  -7.525981e+01
  -5.205509e+00  -5.827445e+01
   1.461999e+01   3.803370e+01
  -5.355140e+01   4.467349e+00
  -5.343412e+01  -1.405857e+01
  -2.990408e+01  -1.081350e+02
   8.491497e+01  -1.570693e+02
   1.077505e+02  -6.748661e+01
   1.071619e+02   6.818560e+01
  -1.002437e+01   1.823282e+02
  -1.055754e+02   1.458735e+02
  -1.108086e+02  -6.450241e+01
  -3.833145e+01  -1.084272e+02
   1.399682e+00  -9.135531e+01
   2.824372e+01   2.325981e+01
   1.073401e+02  -2.641004e+01
  -1.011812e+01  -2.102488e+01
  -2.527601e+01  -2.743001e+01
   1.891798e+01   3.471286e+01
   4.794881e+01   6.308042e+01
  -3.030250e+01   8.071653e+01
  -7.429407e+01   7.713305e+01
  -8.496439e+01  -1.740859e+01
  -7.796198e+01  -4.865394e+01
   1.807467e+01  -2.596473e+01
   2.504751e+01   1.509934e+01
   6.130824e+01   1.044253e+01
   7.907782e+00  -4.228857e+00
  -2.276331e+01  -5.908095e+00
  -3.549452e+01   2.257564e+01
   1.570122e+01  -2.080968e+01
  -3.960021e+01  -3.549791e+00
  -8.651001e+01   2.669977e+01
  -2.840047e+01  -2.489532e+00
   7.543698e+00  -6.848245e+01
   9.662208e+01  -6.296688e+01
   1.034781e+02   4.992436e+00
   1.123489e+02   7.726891e+01
   2.017418e+01   9.145341e+01
  -9.831337e+01   1.321977e+02
  -1.319443e+02   3.444714e+01
  -8.732484e+01  -4.218094e+00
   4.225375e+01  -2.656327e+01
   2.374373e+01   1.204332e+01
  -2.915844e+01  -2.266731e+01
  -2.001429e+01  -6.214681e+01
  -6.025206e+01  -7.089661e+01
   4.113256e+01  -3.167376e+01
   6.333741e+01  -1.003493e+01
   5.223011e+01   8.401290e+01
   2.876843e+01   1.039304e+02
  -5.682088e+01   1.970849e+01
  -5.373166e+01  -9.168770e+01
  -1.373214e+01  -8.560913e+01
   5.690183e+01  -3.832503e+01
   9.128703e+01   1.919466e+01
   8.796304e+00   6.105201e+01
  -1.325174e+01   2.763430e+01
  -1.446874e+01   2.228509e+01
   4.661396e+01  -3.181259e+01
   5.207902e+01   1.073615e+01
   5.482992e+01   5.836125e+01
  -8.800411e+01   4.964760e+01
  -1.152075e+02  -1.260223e+01
  -5.014304e+01   1.632984e+01
  -3.041785e+01  -9.367995e+01
   4.980827e+01  -9.021642e+01
   3.290905e+01  -2.680821e+00
  -1.747717e+00   4.965442e+01
  -5.515181e+01   6.385877e+01
  -4.699366e+01  -1.808914e+01
  -2.494277e+01  -6.069416e+01
   1.317683e+01  -2.355191e+01
   2.896416e+01  -6.754705e+00
   1.831183e+01   3.253587e+00
   6.793645e+01   4.050794e+01
   8.060476e+00  -1.786246e+01
  -5.652580e+00   2.790106e+01
  -1.591627e+01   3.216925e+01
  -2.951125e-01   7.555637e+01
  -2.105758e+01  -6.673643e+00
  -2.198751e+01  -2.824066e+01
  -8.013505e+00  -5.928660e+01
  -2.678111e+00  -3.078816e+01
   4.593279e+01   1.181689e+01
  -1.582908e+01   6.150546e+01
  -6.924782e+01   2.175090e+01
   1.847602e+00  -1.465378e+01
   5.070418e+00  -4.149326e+01
   6.185567e+01  -3.806069e+01
   2.936567e+01   1.978557e+01
   6.077708e+01   3.887033e+01
  -7.190297e+01  -2.493587e+01
  -3.114008e+01  -4.258360e+01
   3.266003e+01  -1.218332e+00
   5.672419e+01  -6.010426e+00
