
 $NMID
 id='ANONYMOUS ', fmtdat='(2E16.6)'
 volume=1.0
 tramp=1.0
 $END
  -2.035602e+03   1.172629e+01
  -1.587130e+03  -7.487115e+02
  -2.403591e+02  -8.482015e+02
   2.034142e+02  -8.820429e+02
   6.022244e+02  -3.639159e+02
   2.302722e+02  -1.498452e+01
  -1.954581e+02   1.633311e+02
  -1.403744e+02  -1.126925e+02
   7.422912e+01  -4.965770e+02
   2.763296e+02  -1.918248e+02
   2.443374e+02   1.113933e+02
   1.486681e+02   2.928298e+02
  -1.584517e+02   1.566866e+02
  -3.251106e+02  -1.539040e+02
   8.246459e+01  -3.136174e+02
   1.737247e+02  -1.347266e+02
   3.055455e+02   2.328767e+02
  -2.654293e+01   4.580804e+02
  -2.787502e+02   2.915784e+02
  -2.491983e+02  -4.922046e+01
  -1.431359e+02  -1.820727e+02
   2.425697e+01  -1.585317e+02
  -3.184334e+00  -9.369070e+01
  -9.640773e+01  -7.647069e+01
  -1.546711e+02  -1.997614e+02
   4.943941e+01  -2.408767e+02
   3.796587e+02  -7.497411e+01
   1.890312e+02   9.097399e+01
   1.958797e+02   8.626047e+01
  -1.883930e+02   1.187945e+02
  -3.405250e+02  -4.597434e+01
  -3.462720e+01  -1.611449e+02
   2.343978e+02  -2.145279e+02
   3.208217e+02  -5.483206e+01
   2.755295e+02   6.805127e+00
   8.846092e+01   1.559572e+02
   2.899583e+01   1.834711e+01
   3.506928e+01  -1.119995e+01
   1.807617e+02  -3.597471e+01
   8.281696e+01   5.413811e+01
  -4.948128e+01   2.944804e+02
  -7.371095e+00   2.375441e+02
  -2.039518e+02   3.895042e+01
  -3.521761e+01  -1.811475e+02
   4.482949e+01  -8.141267e+01
   2.705123e+00   1.360618e+02
  -6.321397e+01   8.132276e+01
  -2.942047e+02  -7.966319e+00
  -1.863650e+02  -2.055007e+02
  -3.961904e+01  -2.890315e+02
   1.438339e+02  -1.625187e+02
   3.010699e+02   1.942444e+00
   2.353653e+02   8.725016e+01
   2.235060e+01   9.460831e+01
  -1.588895e+02   7.922105e+01
  -1.110972e+02  -3.347426e+01
  -3.119773e+01  -8.055695e+00
  -1.204739e+00  -4.372977e-01
  -2.927118e+01   2.951223e+01
  -1.775776e+02   1.538626e+01
  -8.539195e+01  -4.542886e+01
   2.285503e+01  -1.483028e+02
   2.396865e+02  -1.619911e+02
   1.648627e+02   3.810773e+01
  -1.114188e+01   2.530142e+02
  -2.028908e+02   1.612508e+02
  -2.155923e+02   8.798069e+01
  -9.133147e+01  -4.626098e+01
  -9.291980e+01  -1.387946e+02
   4.455718e+00  -2.033397e+02
  -1.314511e+01  -1.376320e+02
   2.063922e+01  -1.321268e+02
   1.047581e+02  -1.058243e+02
   1.322240e+02   4.222888e+00
   7.979814e+01   8.043915e+01
   8.274192e+01   1.529338e+02
  -7.865256e+01   8.297610e+01
  -1.225157e+02  -3.955870e+01
  -8.993256e+01  -1.344482e+02
  -2.523179e+01  -1.332583e+02
   1.972112e+02  -1.029813e+01
   1.190760e+02   1.468148e+02
   7.819242e+01   1.540502e+02
  -2.893118e+01   2.002928e+02
  -2.281991e+01   1.183330e+02
  -9.371826e+01   4.967865e+01
  -8.245305e+01   3.786357e+01
  -2.427251e+02   1.263126e+01
  -2.578457e+02  -7.985649e+01
  -2.383632e+02  -1.825772e+02
   4.402172e+00  -2.474631e+02
   2.788364e+02  -2.375730e+02
   2.148387e+02  -1.361038e+02
   1.638979e+02   3.527377e+01
  -7.948796e+00   1.153676e+02
  -4.277779e+01   1.516760e+02
   2.849909e+01  -1.234716e+01
   7.757580e+01  -6.020555e+01
   5.940804e+01   4.011618e+01
  -7.031423e+00   7.712850e+01
  -3.347680e+01   2.832469e+01
  -5.783065e+01  -9.144383e+00
   1.448175e+01  -8.159052e+01
   1.256150e+02  -3.868305e+01
   1.181073e+02   1.044849e+02
   9.701071e+00   2.116410e+02
  -6.829973e+01   1.752192e+02
  -3.192516e+02  -8.167999e+00
  -2.172264e+02  -2.375593e+02
  -1.065568e+02  -1.648441e+02
   7.940441e+01  -1.143285e+02
   1.374861e+02   3.374027e+01
  -7.739127e+00  -2.459817e+01
  -5.139386e+01  -5.712434e+01
   1.083862e+01  -8.751586e+01
   7.406972e+01  -5.175198e+01
   7.489850e+01   2.089662e+01
   1.063119e+01   2.633301e+01
  -4.921468e+01  -3.086102e+01
  -2.688995e+01  -7.861127e+01
   1.020377e+02  -1.110640e+02
   1.772970e+02  -7.855952e+00
   2.103953e+02   1.142965e+02
   4.995133e+01   1.885524e+02
  -1.358543e+02   1.725898e+02
  -1.820773e+02   3.546880e+01
  -7.307129e+01  -1.124027e+01
   7.327236e+00  -4.681642e+01
   9.026965e+00  -2.737601e+01
  -1.107270e+01   2.309503e+01
  -1.423572e+02   4.489827e+01
  -9.464030e+01  -8.354329e+01
  -2.696729e+01  -8.501556e+01
   7.604016e+01  -4.653897e+01
   3.777782e+01   2.621422e+01
   3.180501e+01   2.352977e+01
  -3.058465e+01  -1.150676e+01
  -2.440716e+01  -5.201814e+01
   9.026877e+01  -7.271315e+01
   1.373976e+02   2.366145e+01
   1.395701e+02   7.654386e+01
   3.328487e+01   1.525923e+02
  -1.199696e+02   4.046557e+01
  -1.289305e+02   5.607596e+01
  -2.828492e+01  -7.045883e+01
   3.665241e+01  -5.885754e+01
   3.979841e+01  -2.111387e+01
  -3.588744e+01   6.127681e+01
  -1.036995e+01   5.629893e+00
  -4.443005e+00   2.528866e+01
   6.647959e+01  -3.780898e+01
   1.136931e+02   2.531119e+01
   1.072191e+01   1.026878e+02
  -1.031020e+02   1.512149e+02
  -1.770920e+02   4.430940e+00
  -1.357471e+02  -1.146865e+02
  -6.468393e+01  -1.531541e+02
   7.464250e+01  -1.007839e+02
   6.463466e+01  -1.444211e+01
   7.927933e+01   3.069387e+01
   2.706066e+01   5.689204e+00
   9.571714e+00  -3.718727e+00
   7.603278e+01  -8.787030e+00
  -1.335403e+00   3.362064e+01
   1.613512e+00   8.162089e+01
  -7.806086e+01   2.997155e+01
  -9.574919e+01  -1.288932e+01
   3.251674e+00  -1.047493e+02
   7.259290e+01  -4.729249e+01
   1.133696e+02   4.264510e+01
   4.563708e+01   9.779700e+01
  -5.726958e+01   1.518897e+02
  -1.233576e+02   3.132333e+01
  -1.414311e+02  -4.302954e+01
  -3.054116e+01  -1.404496e+02
   2.369768e+01  -6.881797e+01
   6.269523e+01  -5.994736e+01
   4.184252e+01  -5.499193e+01
   5.191830e+01  -8.376258e+01
   3.628090e+01  -6.996219e+01
   5.919525e+01  -1.511575e+01
   1.337786e+02   1.271533e+02
   6.636397e+01   1.849343e+02
  -6.441036e+01   6.644103e+01
  -1.066982e+02   3.549868e+01
  -6.794079e+01  -5.281927e+01
  -2.235164e+00  -6.181587e+01
   7.124355e+01  -7.458940e+01
   2.513340e+01  -1.024476e+01
   3.919158e+01   3.056690e+01
  -3.473921e+01   4.196761e+01
   1.352062e+01  -2.054310e+00
   6.543187e+01  -1.745076e+00
   1.906111e+01   5.187169e+01
  -6.552008e+01   2.971777e+01
  -1.354441e+02   1.607719e+01
  -9.369396e+01  -4.473834e+01
   7.578303e+00  -9.174063e+01
   7.492292e+01  -1.999173e+01
   1.127129e+02  -2.549968e+01
   4.342364e+01   1.310771e+01
  -6.987758e+01   1.846889e+00
  -1.575280e+01   2.991709e+00
  -4.235305e+01  -8.747266e+01
   4.181012e+01  -4.684648e+01
   6.505409e+01   1.197174e+01
   4.071648e+01   2.710722e+01
   3.946062e+01   3.457117e+01
   4.884941e+01  -1.978357e+01
   3.494766e+01  -6.963238e+00
   3.828606e+01   5.796164e+01
   1.199999e+01   1.652977e+02
  -7.511870e+01   1.525061e+02
  -1.910237e+02   3.219097e+01
  -6.797150e+01  -5.036568e+01
  -8.513151e+00  -8.683439e+01
   4.475113e+01  -9.657656e+01
   5.578974e+01  -1.258844e+01
  -2.125660e+01  -3.680682e+01
  -4.877927e+01  -2.496557e+01
  -5.249542e+01  -9.814126e+01
   7.188201e+01  -6.421996e+01
   1.005843e+02  -2.165769e+01
   1.271091e+02   1.349193e+01
   2.570418e+01   5.629826e+01
  -5.126008e+01   2.048364e+01
  -4.816252e+01  -7.810836e+00
   1.402341e+01  -1.313497e+01
   9.689001e+01   2.949559e+01
   9.456374e+01   8.126055e+01
  -7.966937e+01   1.175248e+02
  -8.747207e+01   3.628265e+01
  -4.806071e+01  -4.304749e+01
  -5.410674e+00  -9.219712e+01
   6.840144e+01  -8.866929e+01
   6.858215e+01   1.887836e+01
   3.506157e+01   7.738428e+01
  -3.043425e+01   7.562880e+01
  -1.959385e+01   2.420336e+01
  -5.044816e+01  -4.273951e+01
   6.056345e+00  -4.128346e+01
   4.626408e+00   2.964563e+01
  -3.162511e+01  -5.463342e+01
  -4.671357e+01  -3.482753e+01
  -6.601216e+00  -5.259031e+01
  -2.706048e+01  -5.125304e+01
   7.639600e+01   3.937239e+01
   1.030066e+02   2.751425e+01
   1.697566e+01   3.425845e+01
  -3.145128e+01   1.798887e+01
  -1.273076e+01  -4.396095e+00
  -7.013495e+00   2.826283e+01
   4.771989e+01  -2.883639e+01
   4.386549e+01  -7.169196e+00
  -2.517469e+01  -1.176674e+01
  -1.096330e+01  -9.072285e+00
   3.222795e+01  -1.781084e+01
   3.442533e+01   1.905004e+01
   2.458097e+01   4.329337e+01
  -1.234425e+01   1.033761e+02
  -1.554461e+02   2.945635e+01
  -1.332103e+02  -5.361390e+01
   7.775630e-01  -1.204989e+02
   7.000444e+00  -1.650733e+02
   1.016491e+02  -9.754280e+01
   1.797580e+01   5.684962e+00
  -4.324984e+00   2.245831e+01
   2.382663e+00  -3.780756e+01
   3.879786e+01  -2.085336e+01
   5.082900e+01   2.347104e+01
   3.272441e+01   6.817930e+01
  -2.798165e+01   1.036892e+02
  -8.775679e+01   4.017288e+01
  -5.962164e+01  -6.839838e+01
  -2.492734e+01  -7.999385e+01
   5.414481e+01  -4.898208e+01
   5.735834e+01   4.103126e+01
  -9.537489e+00   9.577929e+01
  -4.804608e+01   6.949710e+01
  -2.346291e+01  -1.541854e+01
  -3.575424e+01   1.131614e+01
   2.270508e+00  -5.589377e+01
   6.988363e+01  -3.456941e+01
  -3.374425e-01  -5.633967e+00
  -4.537569e+01  -5.142272e+00
   6.982846e+00  -3.017974e+01
   1.571904e+01  -6.138634e+01
   7.554385e+01  -4.642311e+01
   8.251487e+01   1.142284e+01
  -2.699300e+01   6.501927e+01
  -7.698348e+01   2.335377e+01
  -5.086506e+01  -9.000134e+00
  -4.601172e+01  -2.407205e+01
   3.311694e+01  -2.402247e+01
   1.697068e+01   2.724083e+01
  -1.004847e+01   4.592035e+01
   4.959166e-01   2.652571e+01
  -1.956781e+01   1.901671e+01
  -6.449029e+01  -3.951779e+01
  -3.250030e+01  -7.845426e+00
  -1.484108e+01   2.016076e+01
   2.467822e+01   2.471148e+01
  -2.976420e+01  -3.451328e+01
   1.303407e+01  -4.519377e+01
   5.282134e+01  -3.133513e+01
   3.995354e+01   4.554086e+01
   1.121411e+01   1.543003e+01
  -6.654873e+01   1.126300e+00
  -4.946751e+01   1.281852e+01
  -3.830835e+01  -8.534387e+00
   3.662403e+01  -4.867993e+01
   7.365233e+01   1.949948e+00
   5.916671e+01   4.098945e+01
   2.184239e+01  -3.293129e+01
  -3.367463e+01   2.646918e+01
  -4.822116e+01   6.053081e+01
   1.599992e+01  -2.175388e+01
   1.141721e+01   7.532438e+00
  -4.367195e+01  -5.439923e+00
  -6.448016e+01   7.282286e+01
