
 $NMID
 id='ANONYMOUS ', fmtdat='(2E16.6)'
 volume=1.0
 tramp=1.0
 $END
  -2.685581e+03  -3.674824e+02
  -1.678051e+03  -1.428715e+03
  -2.049007e+01  -1.844783e+03
   1.394915e+03  -6.385737e+02
   8.905738e+02  -4.983384e+00
  -7.721040e+00   2.293552e+02
  -3.889263e+02  -1.028191e+02
  -9.602939e+01  -5.802719e+02
   4.653239e+02  -4.693496e+02
   6.155295e+02   4.212252e+01
   1.834379e+02   5.057350e+02
  -1.623469e+02   6.689036e+02
  -3.655191e+02   1.941360e+02
  -1.113827e+02  -4.139038e+02
   1.515492e+02  -4.388560e+02
   3.804655e+02   4.470769e+01
   1.979779e+02   3.548095e+02
  -2.263901e+02   5.400087e+02
  -4.011365e+02   1.584184e+02
  -3.267669e+02  -2.417528e+02
   1.124518e+01  -3.145833e+02
   1.326427e+02  -2.019491e+02
   9.256337e+01  -2.909193e+01
  -9.067883e+01  -1.265996e+02
  -2.704549e+02  -2.018786e+02
   2.325867e+01  -3.022341e+02
   2.957952e+02  -1.088091e+02
   4.626612e+02   1.624068e+02
   2.246308e+02   2.330699e+02
  -2.079902e+02   1.874401e+02
  -3.659203e+02  -1.209573e+02
  -2.082426e+02  -3.326038e+02
   2.445181e+02  -2.721501e+02
   4.051263e+02  -9.368690e+01
   2.268227e+02   2.299282e+02
   1.296610e+02   2.064038e+02
  -5.675810e+01   1.541298e+02
  -4.486489e+01  -7.199114e+01
   9.110778e+01  -1.707274e+02
   1.758410e+02   1.335822e+02
   9.221242e+01   4.012701e+02
  -2.878368e+02   3.007110e+02
  -2.226467e+02  -4.939073e+01
  -1.099359e+02  -2.662375e+02
   1.092536e+02  -1.117171e+02
   1.411778e+02   2.133363e+02
  -1.082173e+02   3.858902e+02
  -3.513316e+02  -2.834918e+01
  -3.781557e+02  -2.610797e+02
  -1.364400e+02  -4.810587e+02
   2.545817e+02  -2.358285e+02
   3.960522e+02   1.327818e+02
   2.149540e+02   2.339450e+02
  -1.063672e+02   2.315494e+02
  -2.645623e+02   1.776309e+00
  -1.681712e+02  -7.820554e+01
   3.110381e+00  -8.008635e+01
   6.076275e+01   6.385963e+01
  -7.332294e+01   2.733818e+01
  -1.811263e+02  -2.433959e+01
  -5.645678e+01  -1.517243e+02
   1.216051e+02  -1.481045e+02
   2.685038e+02   6.428936e+00
   1.895727e+02   9.940653e+01
  -5.312828e+01   2.280853e+02
  -1.914481e+02   2.403210e+02
  -3.267049e+02   1.172232e+02
  -2.208557e+02  -9.322059e+01
  -1.209551e+01  -2.892403e+02
   9.037402e+01  -3.289866e+02
   1.383709e+01  -1.569713e+02
   2.508620e+01  -1.824107e+01
   1.034394e+02  -6.856043e+01
   1.401737e+02   4.144093e+01
   2.073323e+02   8.573550e+01
  -5.304675e+01   1.843514e+02
  -8.069912e+01   1.351635e+02
  -8.377833e+01  -2.997334e+01
  -5.109706e+01  -1.686300e+02
   9.852472e+01  -1.850550e+02
   1.528755e+02  -7.163446e+01
   2.838730e+02   1.692699e+02
   1.475647e+02   2.797350e+02
  -8.837775e+01   2.673035e+02
  -1.576990e+02   6.736162e+01
  -1.208618e+02   3.209499e+01
  -1.432389e+02  -8.646394e+00
  -1.948854e+02  -7.425191e+01
  -3.244955e+02  -7.512215e+01
  -2.360392e+02  -2.442764e+02
   6.409321e+01  -3.270063e+02
   4.018740e+02  -2.751036e+02
   4.055851e+02  -8.010545e+01
   2.315065e+02   5.411888e+01
   3.082339e+01   2.221446e+02
  -8.918843e+01   1.360174e+02
  -3.242114e+01   6.290514e+01
   8.979514e+01  -4.481912e+01
   8.053298e+01   4.596484e+00
   1.915752e+01   1.296053e+02
  -1.297237e+02   1.035174e+02
  -1.124981e+02  -3.934287e+01
  -3.509592e-01  -1.042552e+02
   1.290097e+02   3.962668e+01
   4.635187e+01   1.918573e+02
  -3.708225e+01   3.166347e+02
  -1.734481e+02   1.434173e+02
  -2.143567e+02  -1.682620e+01
  -1.467654e+02  -1.881153e+02
  -4.347041e+01  -2.041335e+02
   1.210153e+02  -8.603980e+01
   1.423314e+02   1.589404e+01
   1.866798e+01   4.357435e+01
  -4.544744e+01  -4.307576e+01
  -1.479020e+00  -7.655283e+01
   1.322857e+02   1.833660e+01
   1.350338e+02   5.693561e+01
   5.909652e+01   4.582387e+01
  -1.161440e+02   1.826956e+01
  -4.719102e+01  -5.476274e+01
   9.742363e+01  -5.990604e+01
   2.140060e+02  -9.582726e+00
   1.963746e+02   8.809587e+01
  -1.369362e+01   1.795789e+02
  -1.846901e+02   1.735074e+02
  -2.335226e+02   8.812073e+01
  -7.365033e+01  -5.411026e+01
   6.021914e+01  -4.941500e+01
   4.251608e+01  -3.394300e+00
  -5.375456e+01   7.996638e+01
  -1.742299e+02   4.254019e+01
  -1.250726e+02  -8.130934e+01
  -5.372415e+01  -1.629793e+02
   7.960645e+01  -1.000554e+02
   7.603145e+01   1.324534e+01
   2.275850e+01   3.676452e+01
  -2.232396e+01  -4.842334e+01
   2.161210e+01  -1.105068e+02
   8.815716e+01  -1.304721e+02
   1.188253e+02  -5.315939e+00
   1.233208e+02   1.356747e+02
   2.110349e+01   1.625314e+02
  -9.206950e+01   9.651047e+01
  -1.586184e+02  -2.421629e+01
  -7.489240e+01  -1.053235e+02
   2.358861e+01  -3.148740e+01
   7.599386e+01  -2.261176e+00
   7.641929e+00   6.023203e+01
  -3.667873e+01  -1.041854e+01
   4.965540e+01  -3.165605e+00
   4.575921e+01   1.868712e+01
   3.800712e+01   9.350938e+01
   1.307982e+01   1.381835e+02
  -1.313785e+02   1.159843e+02
  -1.457113e+02  -7.872875e+01
  -9.384649e+01  -1.708526e+02
   3.002323e+01  -1.320697e+02
   1.441912e+02  -1.113737e+02
   1.231898e+02   6.076484e+00
   1.111981e+02   4.970512e+01
   1.015627e+01  -2.052839e+00
   7.857960e+01   1.338200e+01
   2.166152e+01   1.027700e+01
   4.331341e+01   3.512738e+01
  -2.925842e+01   1.055079e+02
  -8.646132e+01   2.889989e+01
  -6.969659e+01  -5.585899e+01
   3.634794e+01  -1.620221e+02
   1.379922e+02  -5.978648e+01
   1.620923e+02   9.527878e+01
   4.997852e+01   1.746553e+02
  -1.305284e+02   1.485022e+02
  -2.060513e+02   5.932237e+01
  -2.418587e+02  -1.223743e+02
  -4.592259e+01  -1.817496e+02
   2.998660e+01  -1.332703e+02
   1.283076e+02  -4.312666e+01
   7.110187e+01  -3.592306e+01
   7.750675e+01  -3.580759e+01
   1.045473e+02  -1.074369e+02
   6.906789e+01   2.541304e+01
   8.738205e+01   1.292533e+02
  -3.678107e+01   1.571955e+02
  -6.332135e+01   1.676081e+02
  -1.435636e+02  -1.808237e+01
  -7.095511e+01  -1.303081e+02
  -1.548284e+01  -1.486525e+02
   3.338849e+01  -7.677966e+01
   4.114332e+01   1.826316e+01
  -1.234640e+01   4.619304e+01
  -1.215631e+01   4.960988e+01
   4.505400e+01   2.531712e+01
   6.397224e+01   6.885780e+00
   1.078237e+01   4.518829e+01
  -6.206574e+01   2.486219e+01
  -1.716761e+02   9.032442e+00
  -5.649072e+01  -7.574950e+01
   1.663019e+01  -6.492805e+01
   1.270863e+02  -7.952128e+01
   1.118534e+02  -1.797082e+00
   2.006658e+01   5.468738e+01
  -4.762999e+01   3.530057e+01
  -2.967056e+01   1.931320e+00
  -3.540465e+01  -8.113458e+01
   4.684494e+01  -3.007702e+00
   5.902626e+01   5.347760e+01
   4.267011e+01   6.570150e+00
   4.351319e+01   2.599938e+01
   1.256705e+00  -3.057500e+01
   7.427491e+01   2.552149e+01
   1.670837e+01   6.652302e+01
  -3.106124e+01   1.247726e+02
  -9.935381e+01   1.096473e+02
  -1.433514e+02   2.439471e+00
  -1.464593e+02  -6.754407e+01
   4.272726e+01  -9.822461e+01
   3.051914e+01  -3.451379e+01
   5.286937e+00   4.599226e+01
  -4.125522e+01   1.884395e+01
  -9.378803e+01  -6.047257e+01
  -6.228071e+01  -6.859147e+01
   7.663135e+01  -6.719064e+01
   8.540631e+01  -4.039063e-01
   1.139412e+02   6.946277e+01
   7.419867e+00   9.972482e+01
  -3.855455e+01   3.177207e+01
  -4.822987e+01  -2.774709e+01
   5.246416e+01  -2.877892e+01
   4.730453e+01   2.916194e+01
   1.457533e+01   8.539741e+01
  -8.019634e+01   1.077247e+02
  -1.419950e+02   5.585662e+01
  -8.986816e+01  -1.084415e+02
  -1.121996e+01  -1.455823e+02
   9.696649e+01  -3.575875e+01
   1.122646e+02  -2.430157e+01
   7.228704e+01   5.584411e+01
  -4.067666e+01   9.357339e+01
  -1.720937e+01   1.389674e+01
  -6.385241e+01  -3.455324e+01
   1.791890e+01   6.487231e+00
   9.591491e+00   2.454845e+01
  -7.799342e+01   4.643874e+00
  -2.323870e+01  -3.594311e+01
  -1.877118e+01  -7.908895e+01
   1.032815e+02  -4.935420e+01
   1.072754e+02   9.917224e+00
   1.059426e+02   1.153092e+02
  -2.863774e+01   6.964832e+01
  -6.765741e+01   1.548434e+01
  -8.922400e+01   9.982328e+00
  -2.482090e+01  -4.004921e+01
   4.647219e+01  -1.979746e+01
  -3.158500e+01  -4.679839e+01
  -7.238858e+00   3.131784e+01
   2.591246e+01   1.038792e+01
   3.987511e+01   2.102617e+01
   5.610225e+01   5.936526e+00
   1.526826e+01   6.446558e+01
  -1.126612e+02   8.504038e+01
  -1.552441e+02   4.721117e+01
  -1.496138e+02  -7.691593e+01
  -1.512992e+01  -1.058671e+02
   7.107288e+01  -1.081097e+02
   1.003727e+02  -4.668659e+01
   8.408166e+01   1.172271e+01
  -1.417400e+00   3.549653e+01
  -2.651895e+01   2.635252e+00
  -1.723593e+01  -3.728043e+01
   4.057662e+01   1.706845e+01
   9.131849e+00   8.627058e+01
  -6.198490e+01   4.130832e+01
  -1.046955e+02  -1.224258e+01
  -3.537912e+01  -6.613318e+01
   1.334458e+01  -1.328079e+02
   1.917303e+01  -3.038907e+01
   7.660635e+01   5.904245e+01
   2.858878e+01   8.048511e+01
  -7.319365e+01   8.891123e+01
  -8.548553e+01   1.138287e+01
  -2.048733e+01  -6.544282e+01
   2.350648e+01  -7.735096e+01
   7.270762e+00  -2.145876e+01
  -8.025384e+01   4.812069e+00
  -5.432068e+01  -1.959332e+01
  -2.697537e+01  -7.096684e+01
   6.839533e+01  -4.939447e+01
   5.758008e+01  -4.705634e+01
   5.778700e+01   1.798945e+01
   5.035823e+00   7.935715e+01
  -8.742812e+01   6.188086e+01
  -5.760001e-01   1.389544e+01
  -6.876326e-01  -3.771459e+01
  -1.493399e+00  -4.135354e+01
   2.349677e+01  -1.221964e+01
   2.675709e+01   5.708130e+01
   1.183569e+01   4.618122e+01
  -3.903372e+01  -2.765230e+00
  -1.807596e+01  -2.657534e+00
  -3.200475e+01   1.846878e+01
  -1.637495e+00  -8.976127e+00
  -3.201263e+00   2.910879e+01
  -4.219951e+01  -8.626745e+00
  -1.667283e+01  -7.658792e+01
   5.699523e+01   7.833646e+00
  -1.350540e+01  -5.241104e+00
  -3.080378e+01   1.619128e+01
  -5.110126e+01   4.373429e+01
  -2.764907e+01  -2.590991e+01
  -3.336294e+01  -7.967251e+01
   2.992740e+01  -2.428114e+00
   3.084289e+01   1.943143e+01
   3.946459e+01   6.685046e+01
  -5.628076e+01   1.149709e+01
  -3.513972e+01   2.332542e+00
  -1.137838e+01   1.142843e+01
   1.423173e+01  -4.721232e+01
   1.833485e+01  -1.265114e+01
   4.447208e+00   2.390804e+00
  -5.472117e+01   2.478671e+01
