
 $NMID
 id='ANONYMOUS ', fmtdat='(2E16.6)'
 volume=1.0
 tramp=1.0
 $END
   2.851245e+03  -1.126467e+02
   1.514537e+03   1.259057e+03
   1.123138e+02   1.723869e+03
  -1.029969e+03   7.274468e+02
  -8.103013e+02   1.209980e+02
  -1.750930e+01  -3.142304e+02
   3.609728e+02  -6.140861e+01
  -9.239278e+01   5.575601e+02
  -2.431998e+02   4.649613e+02
  -5.885198e+02   7.919203e+01
  -2.996276e+02  -4.263733e+02
  -4.638732e+01  -4.375617e+02
   2.531555e+02  -1.592735e+02
   1.427688e+02   3.007284e+02
  -6.248625e+01   4.394454e+02
  -3.389424e+02   8.902228e+01
  -2.831934e+02  -2.833077e+02
   9.271077e+01  -3.962539e+02
   3.895272e+02  -1.982237e+02
   2.714799e+02   2.077574e+02
   9.724886e+01   2.742463e+02
  -8.702117e+01   2.384628e+02
  -6.376904e+01   4.144584e+01
   7.164417e+01   5.296842e+01
   2.395123e+02   1.261131e+02
   7.116627e+01   3.048987e+02
  -2.170704e+02   1.865638e+02
  -4.286622e+02   2.347797e+01
  -2.023609e+02  -1.438529e+02
   1.682632e+02  -1.705458e+02
   3.959062e+02   7.318605e+01
   1.185662e+02   3.053000e+02
  -1.602598e+02   2.916975e+02
  -3.825712e+02   1.644674e+02
  -2.240054e+02  -2.130385e+02
  -1.188437e+02  -1.949869e+02
   1.119062e+01  -1.785206e+02
  -2.529411e+01   7.850717e+01
  -2.473351e+01   1.266266e+02
  -1.411212e+02  -7.154469e+01
  -7.674953e+01  -3.260248e+02
   2.483969e+02  -4.270215e+02
   3.205071e+02  -4.445708e+01
   1.798993e+02   2.734000e+02
  -8.798258e+01   4.245340e+01
  -8.970985e+01  -9.502984e+01
   5.759436e+01  -2.970421e+02
   2.835630e+02  -1.013186e+02
   4.517047e+02   2.333146e+02
   9.912543e+01   3.515985e+02
  -2.359776e+02   2.428764e+02
  -3.328655e+02   4.376349e+01
  -3.088766e+02  -2.668019e+02
   1.013917e+01  -1.652836e+02
   1.487381e+02  -7.795230e+01
   1.806808e+02   1.390276e+01
   2.606185e+01   8.815522e+01
  -4.006043e+01  -6.384499e+00
   7.812322e+01  -8.470496e+01
   2.085452e+02   4.311838e+01
   1.442694e+02   1.294353e+02
  -1.426635e+02   1.350943e+02
  -2.037015e+02   1.034866e+02
  -1.911106e+02  -7.842901e+01
   1.657172e+01  -2.127361e+02
   1.758520e+02  -3.246836e+02
   2.284524e+02  -1.409363e+02
   1.506889e+02   6.426721e+01
   2.638219e+01   2.585438e+02
  -3.765813e+01   2.543108e+02
  -1.070137e+01   9.230801e+01
   4.896248e+00   3.243879e+01
  -6.043155e+01   1.103995e+02
  -1.476340e+02   3.922659e+01
  -1.691242e+02  -1.173337e+02
  -9.140642e+01  -1.215708e+02
   4.118600e+01  -1.333280e+02
   1.460630e+02  -8.423153e+00
   1.177825e+02   1.618177e+02
  -6.297502e+01   2.132309e+02
  -1.806029e+02   8.583450e+01
  -2.423037e+02  -9.618126e+01
  -1.063564e+02  -2.329269e+02
  -2.413557e+01  -1.816385e+02
   1.380486e+02  -8.254261e+01
   9.295908e+01  -3.140676e+01
   5.628135e+01  -5.109522e+01
   1.283323e+02   3.087098e+01
   3.008836e+02   3.618456e+01
   2.737276e+02   1.953082e+02
  -8.736326e+01   2.403140e+02
  -2.967732e+02   3.116733e+02
  -3.660530e+02   1.566985e+02
  -2.257531e+02  -1.371680e+02
  -1.619978e+01  -1.728040e+02
   7.872098e+01  -1.344592e+02
   1.134384e+01  -1.022284e+01
  -5.328282e+01   9.034899e+01
  -7.816835e+01  -1.736853e+01
  -2.666859e+01  -7.302773e+01
   8.512170e+01  -6.084345e+01
   8.828829e+01   4.986587e+01
   5.874335e+01   1.214061e+02
  -9.947836e+01   3.156115e+01
  -6.494459e+01  -1.736888e+02
  -2.754699e+01  -2.349201e+02
   1.726756e+02  -1.570701e+02
   2.412232e+02   9.078856e+01
   2.236345e+02   1.931121e+02
   6.241697e+01   1.847751e+02
  -9.147591e+01   1.207325e+02
  -1.453570e+02   3.822048e+01
  -4.224294e+01  -6.461578e+01
   2.742634e+01   3.951836e+01
   3.436150e+01   4.921352e+01
  -9.968565e+01  -1.701566e+01
  -8.921217e+01   2.622225e+01
  -3.246563e+01  -1.342378e+01
   4.966200e+01   2.561530e+01
   2.346069e+01   7.743285e+01
  -9.892348e+01   4.411596e+01
  -2.296624e+02  -1.000956e+01
  -1.958268e+02  -1.383702e+02
  -1.234875e+00  -1.714056e+02
   1.859531e+02  -1.928282e+02
   1.829965e+02  -6.471288e+01
   8.573343e+01   5.552228e+01
   4.391533e+01   3.848922e+01
  -3.096812e+01  -2.327682e+01
   3.593876e+01  -2.570791e+01
   1.438808e+02  -3.503760e+01
   1.006114e+02   7.885880e+01
   5.762590e+01   1.358305e+02
  -7.072809e+01   1.127471e+02
  -8.187698e+01   3.449213e+01
  -4.511974e+01  -9.107983e+00
  -1.569922e+01   3.816289e+01
   5.614635e+00   5.098596e+01
  -5.652389e+01   9.246024e+01
  -1.493867e+02   3.319602e+01
  -1.279156e+02  -8.496420e+01
  -1.625252e+01  -1.595377e+02
   1.245079e+02  -1.213173e+02
   9.312825e+01  -3.790194e+01
   6.045317e+01   5.328010e+01
  -3.266206e+01   3.644917e+01
  -6.952421e+01   4.106648e+01
   5.653850e+00  -1.483918e+01
   3.864883e+01   1.504834e+01
  -2.596745e+01   3.090417e+01
  -7.948852e+01  -3.032315e+01
  -7.449372e+01  -7.630394e+01
  -2.717969e+01  -1.419736e+02
   9.860053e+01  -1.418528e+02
   1.293317e+02   8.101085e+00
   6.002745e+01   8.649486e+01
   4.863300e+01   1.422586e+02
  -9.881255e+01   9.109049e+01
  -1.046207e+02   3.182700e+01
  -9.353629e+01  -3.724388e+01
  -1.420327e+01  -2.353196e+01
  -3.385788e+01  -8.903175e+00
  -4.726809e+01  -3.722940e+01
  -1.697356e+01  -6.581470e+01
   3.945862e+01  -9.301028e+01
   5.317819e+01  -2.293095e+01
   6.334605e+01   4.773061e+01
  -1.464354e+01   1.083776e+02
  -1.399143e+02   4.650217e+01
  -1.229800e+02  -5.075236e+01
  -4.662862e+01  -1.536283e+02
   1.243152e+02  -1.626887e+02
   1.983385e+02  -2.127083e+01
   1.331300e+02   4.072705e+01
   6.225311e+01   4.825307e+01
  -2.050249e+01   8.653890e+01
  -6.565130e+01   6.508916e+01
  -3.667379e+01   7.092695e+01
  -4.374078e+01   2.529701e+01
  -7.642758e+01   4.422812e+01
  -8.834037e+01   2.942562e+01
  -8.581389e+01  -1.071918e+02
  -3.399106e+01  -1.388595e+02
   1.037592e+02  -1.271471e+02
   8.617381e+01  -6.294753e+01
   9.515484e+01   1.231665e+02
  -1.571993e+01   1.093266e+02
  -6.017393e+01   6.892735e+01
  -1.171218e+01   1.711456e+01
  -3.900170e+00  -1.934488e+01
   6.150927e+01  -2.769116e+01
  -7.519741e+00  -5.953024e+00
  -6.097443e+01  -5.746797e+00
  -3.090352e+01  -1.152158e+01
   5.183698e+00   6.481488e+00
   1.144558e+02  -1.425803e+01
   1.213046e+02   4.569887e+01
  -4.984542e+01   5.440774e+01
  -1.042355e+02   3.323530e+01
  -9.087257e+01   3.977171e+01
  -3.923310e+01  -6.250200e+01
   4.999568e+01  -2.915433e+01
   6.187990e+01   8.945763e+00
   1.251901e+01   2.462698e+01
  -3.203565e+01   1.376875e+01
  -9.676433e-01   4.090289e-02
  -5.538728e+01  -5.195791e+01
  -4.305446e+01  -8.086398e+00
  -3.522082e+01  -5.536494e+01
  -5.462783e+01  -2.935678e+01
  -2.653690e+01  -2.028501e+01
   4.300704e+01  -8.401691e+01
   9.729427e+01  -9.646301e+01
   1.119218e+02  -6.770318e+00
   6.140113e+01   6.607581e+01
  -2.484307e+01   8.767780e+01
  -1.190846e+02   4.857522e+01
  -4.111304e+01  -6.240181e+00
   8.411216e+01  -2.331178e+01
   1.273158e+02  -2.407608e+01
   3.300296e+01   1.058954e+02
  -6.417940e+01   1.048321e+02
  -1.268211e+02   5.451055e+01
  -1.012566e+02  -3.227152e+01
  -1.469758e+01  -2.620747e+01
   2.539866e+01  -4.966876e+01
   6.380390e+01  -1.655741e+01
  -1.616430e+01   1.538656e+00
  -1.074890e+01  -7.642225e-01
  -1.955541e+01  -6.580960e+01
   5.032957e+01  -1.358919e+02
   1.414493e+02  -5.426640e+01
   8.195288e+01   6.770074e+01
  -6.409297e+00   1.408395e+02
  -3.699334e+01   7.178697e+01
  -9.612988e+01   3.931051e+00
  -2.187278e+01  -6.430613e+01
  -2.921488e+01  -7.565234e+01
   7.520017e+01  -8.774088e+00
   2.455929e+01   1.901700e+01
  -1.228483e+01   2.365054e+01
   4.596652e+00  -2.166133e+01
   4.074081e+01   1.771862e+01
   7.158432e+00   8.568837e+01
  -5.401066e+00   6.267076e+01
  -3.312203e+01   1.303101e+01
  -9.301361e+01  -6.809086e+01
  -6.708165e+01  -6.293842e+01
  -2.205866e+01   3.176145e+00
   2.122065e+01  -2.435127e+01
   7.334715e+01   2.205064e+01
   1.556479e+00  -2.853311e+00
  -3.483133e+01  -3.834938e+00
  -3.094398e-01   1.089638e+01
   5.294076e+01   5.304135e+00
  -2.912831e+01  -1.504198e+01
  -2.093574e+01   5.286926e+00
  -4.687399e+01  -6.722245e+00
  -2.339510e+01  -3.163499e+01
   6.467618e+01  -2.123389e+01
   1.565549e+02  -8.256851e+01
   8.530653e+01   2.746240e+01
   8.012080e+01   7.542100e+01
  -9.214932e+01   1.002053e+02
  -1.192771e+02   5.263762e+01
  -4.283886e+01  -1.462810e+01
  -5.609892e+01  -5.155986e+01
  -2.319917e+01  -4.980865e+00
  -2.897115e+01   1.369513e+01
  -2.016337e+01  -2.931800e+01
  -3.142955e+01  -7.134698e+01
   4.397490e+01  -1.884710e+01
   8.326279e+01   5.064390e+01
   5.692911e+01   6.130893e+01
   1.610164e+01   1.190874e+02
  -3.041118e+01  -2.229728e+01
  -1.039955e+02  -2.632897e+01
   4.350037e-01  -3.967959e+01
   6.555685e+01  -6.478149e+01
   6.579104e+01  -2.262611e+01
  -6.037295e+00   5.012573e+01
  -4.066179e+01   5.125074e+01
  -2.277808e+01   4.501528e+01
   3.851737e+01  -4.120864e+01
   4.391499e+01   4.665852e+01
  -3.267270e+01   6.794929e+01
  -4.779554e+01   4.295717e+01
  -8.177015e+01   3.313201e+01
  -4.620820e+01   2.338007e+01
   1.321338e+01  -7.936133e+01
   1.456962e+01  -5.245438e+01
   3.321458e+01   1.185623e+00
   2.415381e+01   3.988687e+01
  -7.844844e+01   4.149644e+01
  -8.960502e+00   1.911473e+01
  -2.896389e+01  -2.059704e+01
   2.153649e+01  -1.232562e+01
   3.034912e+01  -1.943813e+01
   1.799789e+01   3.196512e+01
  -3.956920e+01   2.131891e+01
  -1.956906e+01  -2.296390e+01
  -7.103048e+00  -1.207397e+00
   1.735197e+01   5.066330e+01
   2.741440e-01  -8.080666e+00
  -1.382754e+01   1.054086e+01
  -4.276744e+01  -3.201785e+01
   4.071838e+01  -2.429159e+01
  -9.450046e-01  -2.924171e+01
   4.629610e+01   4.627587e+01
   4.047648e+01   6.639090e+01
  -5.654251e+00   2.123219e+01
  -4.547442e+01  -1.987910e+01
  -3.319308e+01  -3.313713e+01
   4.891774e+01  -1.950941e+01
   2.114661e+01   6.590332e+00
   1.225107e+01  -1.824398e+01
  -2.118568e+01  -1.251665e+01
  -2.847735e+01   2.868412e+01
   1.838466e+01  -3.468275e+01
   4.493933e+01  -2.714218e+01
