
 $NMID
 id='ANONYMOUS ', fmtdat='(2E16.6)'
 volume=1.0
 tramp=1.0
 $END
  -2.632166e+03   1.649225e+02
  -1.102932e+03  -1.185368e+03
  -2.579417e+01  -1.683959e+03
   1.039823e+03  -9.103257e+02
   7.350621e+02  -6.736590e+01
  -2.237403e+02   3.378658e+02
  -4.483168e+02  -7.957268e+01
   5.667972e+01  -4.847843e+02
   2.788699e+02  -3.908885e+02
   5.248136e+02   1.105879e+01
   1.966360e+02   4.710153e+02
  -3.438539e+01   3.525510e+02
  -2.234551e+02   1.261697e+02
  -1.827221e+02  -2.278475e+02
   1.105474e+02  -4.986375e+02
   3.509882e+02   5.467344e+01
   9.799875e+01   3.533665e+02
  -1.045841e+01   3.939750e+02
  -3.567129e+02   1.996648e+02
  -2.992033e+02  -1.620187e+02
  -3.847834e+01  -1.938062e+02
   1.533553e+02  -2.187240e+02
   3.295756e+01  -1.938700e+00
  -1.644337e+02  -7.839706e+01
  -1.710882e+02  -2.025754e+02
  -3.697732e+01  -2.460437e+02
   1.622464e+02  -2.297226e+02
   4.848559e+02   2.263148e+02
   1.857585e+02   3.187287e+02
  -2.100914e+02   2.154710e+02
  -2.244703e+02  -8.899647e+01
  -7.418492e+01  -3.159537e+02
   1.967161e+02  -3.018766e+02
   3.492388e+02  -2.206904e+02
   2.133546e+02   6.977501e+01
   1.154148e+02   2.680494e+02
  -2.868180e+01   9.937006e+01
  -3.089440e+01  -1.397482e+02
   1.708516e+02  -1.164094e+02
   1.428911e+02   1.504469e+02
   6.353603e+01   4.135778e+02
  -2.463056e+02   3.914177e+02
  -2.941423e+02   2.531008e+01
  -1.224226e+02  -2.921648e+02
   8.159777e+01  -1.463587e+02
   1.904933e+02   1.347930e+02
  -1.073954e+02   2.766196e+02
  -2.233800e+02   7.203762e+01
  -4.273059e+02  -3.285846e+02
  -8.081131e+01  -3.301966e+02
   2.445904e+02  -1.885200e+02
   3.769428e+02   3.283234e+01
   2.048559e+02   2.929308e+02
  -5.795231e+01   1.838602e+02
  -2.155873e+02   2.241974e+01
  -1.232649e+02  -5.842860e+01
  -3.311737e+01  -6.561449e+01
   4.855104e+01   8.444546e+01
  -7.447072e+01   5.601240e+01
  -1.521760e+02  -6.364884e+01
  -6.345424e+01  -2.059765e+02
   1.146229e+02  -1.394288e+02
   2.116098e+02  -8.016135e+01
   1.888060e+02   8.888993e+01
  -2.633202e+00   2.127831e+02
  -2.033107e+02   2.362022e+02
  -3.125590e+02   4.712521e+01
  -1.900061e+02  -9.180241e+01
   2.412005e+01  -1.936113e+02
   1.076677e+01  -2.516385e+02
   1.609882e+01  -1.114320e+02
   1.843619e+01  -5.813595e+01
   9.438103e+01  -4.958981e+01
   1.546402e+02  -5.054689e+01
   1.410817e+02   1.064078e+02
   1.225479e+02   1.327635e+02
  -9.992444e+01   1.365624e+02
  -8.281440e+01  -1.831151e+01
  -1.325470e+02  -1.348789e+02
   7.119611e+01  -1.934634e+02
   1.422736e+02  -5.183635e+01
   2.542039e+02   1.401441e+02
   1.066662e+02   2.177469e+02
  -2.388948e+01   2.003080e+02
  -1.470696e+02   9.868004e+01
  -8.687443e+01   3.794284e+01
  -8.729833e+01   6.962222e+01
  -1.839784e+02   5.691523e+01
  -3.022324e+02  -5.073545e+01
  -2.433251e+02  -1.968893e+02
   6.178554e+01  -3.036008e+02
   2.367060e+02  -3.286096e+02
   3.391272e+02  -1.372277e+02
   1.607109e+02   6.182493e+01
   5.831662e+00   1.786746e+02
  -9.204051e+01   1.234899e+02
   2.556764e+01   4.795491e+01
   1.374838e+02  -2.066271e+01
   1.061735e+02  -1.187079e+01
   4.614716e+01   1.229403e+02
  -6.813262e+01   1.139588e+02
  -9.897914e+01  -3.361898e+00
  -4.286758e+00  -1.538461e+02
   6.556233e+01   6.840028e+00
   8.162624e+01   1.796681e+02
   3.640458e+01   2.173946e+02
  -1.880615e+02   1.623318e+02
  -2.746013e+02  -6.443496e+01
  -2.172696e+02  -1.789208e+02
  -9.188423e+01  -1.998123e+02
   8.213740e+01  -1.141485e+02
   1.337258e+02  -1.782537e+01
   3.730186e+01   3.490307e+00
  -2.598938e+01  -4.539324e+01
  -4.532789e+01  -7.399824e+01
   1.307187e+02  -6.154798e+01
   9.113862e+01  -4.007741e+01
   2.725494e+00   5.751667e+01
  -4.816000e+01   1.974131e+01
   1.644112e+01  -6.172860e+01
   9.155228e+01  -4.140235e+01
   2.073185e+02   3.124481e+01
   1.925803e+02   1.187286e+02
  -1.783234e+01   2.125836e+02
  -2.226886e+02   1.107644e+02
  -2.012935e+02   4.490669e+01
  -1.233403e+02  -3.234806e+01
   1.462414e+01  -4.035040e+01
   4.311607e+01   1.106508e+01
  -3.755053e+01   3.507633e+01
  -1.057184e+02   3.487750e+01
  -1.521714e+02  -6.120219e+01
  -6.277199e+00  -1.101178e+02
   9.218679e+01  -1.046386e+02
   9.870149e+01  -6.191956e+00
   3.852310e+01   4.273543e+01
  -4.110013e+01  -1.191251e+00
  -4.026540e+01  -2.685619e+01
   6.039780e+01  -4.106584e+01
   1.437290e+02  -1.382709e+00
   1.067797e+02   1.163151e+02
  -1.390860e+01   1.120304e+02
  -1.151852e+02   1.457957e+02
  -1.415593e+02   4.259354e+01
  -6.682497e+01  -3.160664e+01
   3.056920e+00  -7.484063e+01
   4.798829e+01  -3.589835e+01
  -2.078387e+01  -2.352441e+00
  -3.901212e+00  -4.640531e+00
   1.631943e+00  -5.073019e+00
   9.923996e+01   5.349803e+01
   5.716149e+01   3.616545e+01
  -2.227806e+01   7.488775e+01
  -5.066942e+01   9.944592e+01
  -1.170245e+02  -8.264785e+00
  -1.702309e+02  -7.594248e+01
  -2.522204e+01  -1.218404e+02
   6.613390e+01  -1.189903e+02
   1.118351e+02  -1.817437e+01
   5.320021e+01   2.719571e+01
   4.645155e+01   2.396324e+01
   8.064912e+01   1.340476e+01
   5.069425e+01   3.488985e+00
   7.126833e+01   3.340159e+01
  -4.883054e+01   5.821364e+01
  -1.394417e+02   7.314162e+01
  -8.138611e+01  -4.017343e+01
  -2.105600e+01  -6.550150e+01
   1.444582e+02  -7.928893e+01
   1.475261e+02   4.653330e+01
   4.284398e+01   1.344120e+02
  -6.453541e+01   1.988746e+02
  -1.976008e+02   3.505556e+01
  -1.638897e+02  -2.387280e+01
  -7.028912e+01  -1.067674e+02
   2.946848e+00  -1.037515e+02
   6.822683e+01  -5.055680e+01
   8.587184e+01  -2.911520e+01
   4.744934e+01  -4.499903e+01
   1.777409e+01  -3.040440e+01
   1.105262e+02   3.958769e+01
   6.694015e+01   1.183412e+02
   6.225547e+00   1.801769e+02
  -8.290242e+01   1.577816e+02
  -1.158533e+02  -1.404143e+01
  -1.105182e+02  -1.254006e+02
   4.801159e+01  -7.160173e+01
   8.384127e+01  -4.316108e+01
   1.164005e+01   5.089220e+01
  -2.324493e+01   2.745263e+01
  -2.516596e+01   4.213451e+01
   3.317004e+01  -3.505836e+00
   6.312636e+01   2.576338e+00
   2.706486e+01   2.006855e+01
  -1.698971e+01   1.387143e+01
  -1.813757e+02  -3.529140e+01
  -7.224623e+01  -6.595081e+00
   2.030313e+01  -3.628075e+01
   1.069049e+02  -4.349452e+01
   9.527741e+01  -4.592672e+01
   3.790764e+01   2.051236e+01
  -4.642104e+01   4.922633e+01
  -7.220189e+01  -1.476177e+01
   2.611861e+01  -3.366777e+01
   3.782246e+01  -2.445347e+01
   3.390942e+01  -1.199008e+00
   4.313978e+01   4.935605e+01
   2.512936e+01   6.056023e+01
   2.421558e+00   3.331109e+01
   4.014418e+01  -6.039855e+00
   7.608234e+01  -3.724078e+00
  -4.355234e+01   1.007761e+02
  -6.969587e+01   1.040674e+02
  -1.145606e+02   3.510152e+01
  -1.039632e+02  -3.642905e+01
  -5.365562e+00  -8.504828e+01
   6.997680e+01  -3.490114e+01
   3.984772e+01   2.576726e+01
  -3.877139e+01   1.550294e+01
  -1.355735e+02  -7.431438e+01
  -4.585164e+01  -7.317955e+01
   3.739347e+01  -8.248398e+01
   1.299438e+02  -1.400304e+00
   9.906143e+01   1.648396e+01
   1.870294e+01   8.078180e+01
  -4.961356e+01   1.752523e+01
  -9.093804e+00   3.188651e+01
   2.064200e+01  -4.279556e+01
   8.539378e+01   3.445161e+01
   5.184039e+00   8.437640e+01
  -2.959408e+00   1.371070e+02
  -1.341192e+02   7.705416e+01
  -7.549389e+01  -8.590535e+01
   2.284704e+01  -1.024891e+02
   4.504548e+01  -8.734436e+01
   2.776533e+01   8.943345e+00
   5.284561e+01   9.070907e+01
  -2.152697e+01   1.093813e+02
  -6.291300e+01  -9.193196e-01
  -6.472296e+00  -7.493575e+00
   3.307458e+00  -3.969692e+01
  -2.414861e+01   3.599311e+01
  -4.723682e+01  -2.241292e+01
  -4.223147e+01  -3.636935e+01
  -1.074431e+02  -8.199712e+01
   6.756626e+00  -3.423612e+01
   5.180551e+01   4.808349e+01
   5.400783e+01   4.873612e+01
   2.838539e+00   1.804887e+01
  -3.140154e+01   4.023993e+01
  -5.102859e+01  -2.685328e+01
  -3.497514e+01  -3.578066e+01
   2.538023e+01   6.456807e-01
   2.087444e+01  -1.491204e+01
  -7.790508e+00   3.084579e+01
   1.088127e+01  -2.155368e+01
   6.262458e+01  -2.886962e+01
   6.442118e+01   1.378520e+01
   9.042413e+00   5.807266e+01
  -6.978983e+01   1.104689e+02
  -1.314185e+02   4.810136e+01
  -7.723979e+01  -2.551659e+01
  -4.126798e+01  -8.018449e+01
   5.487494e+01  -1.279259e+02
   7.667596e+01  -3.413151e+01
   6.025412e+01  -1.139994e+01
   4.931432e+01   2.296016e+01
  -2.235946e+01   6.623396e+00
  -6.713374e-01  -1.432147e+01
   2.174675e+01   5.380173e+00
  -1.293123e+01   4.293680e+01
  -1.681045e+01   3.351181e+01
  -4.025953e+01  -2.208875e+01
  -4.586569e+01  -6.149157e+01
   1.776643e+01  -7.094203e+01
   2.409345e+01  -3.669122e+01
   9.454600e+01   1.027574e+02
   1.654147e+01   2.525158e+01
  -6.884818e+00   6.684054e+01
  -5.329459e+01   2.218115e+01
  -2.302521e+01  -6.016673e+01
   4.673298e+01  -4.340374e+01
   2.496723e+01  -3.150770e+01
  -5.868125e+01   6.214312e+01
  -5.658123e+01   4.635490e+00
  -3.544545e+01  -2.188741e+01
   9.246055e+01  -5.968910e+01
   5.769367e+01  -1.861949e+01
   3.204652e+00   2.180384e+01
  -6.933185e+01   6.131379e+01
  -6.481324e+01  -8.873202e+00
   6.450266e+00   8.928955e+00
  -8.725245e+00  -3.547435e+01
   4.198599e+01  -4.103371e+01
  -1.915408e+01   6.704532e+00
  -3.785619e+00   2.247462e+01
  -4.646615e+01  -1.503771e+01
   6.265830e+00  -8.714536e+00
  -4.818964e+01   1.746994e+01
  -2.296358e+01  -9.746361e+00
  -2.167288e+01  -2.326916e+01
  -1.838188e+01  -5.552546e+00
  -3.146224e+00  -2.433493e+01
   9.814795e+00  -2.649719e+01
   1.793879e+01  -3.095066e+01
   3.160782e+01   1.539805e+01
  -4.907750e+01   6.371146e+01
  -4.607511e+01   2.499137e+01
  -8.016360e+01  -5.008853e+01
  -3.644890e+01  -3.584310e+01
   9.876153e+01  -4.077490e+01
   6.224166e+01   2.110565e+01
   5.470735e+01   4.983234e+01
  -1.585415e+01   2.482572e+01
  -3.613361e+01   4.401570e+01
  -6.881858e+00   3.961179e+00
   2.649802e+01   2.212734e+00
   3.305480e+01  -3.870772e+00
  -3.771130e+01   2.710010e+00
  -6.925405e+01  -6.215476e+00
