
 $NMID
 id='ANONYMOUS ', fmtdat='(2E16.6)'
 volume=1.0
 tramp=1.0
 $END
   2.355055e+03  -1.780368e+02
   1.477197e+03   1.200321e+03
   1.356114e+00   1.662632e+03
  -8.098425e+02   1.033851e+03
  -7.841492e+02   1.441232e+02
   2.271745e+02  -1.487643e+02
   3.886108e+02   8.666149e+01
  -5.229317e+01   4.335727e+02
  -4.578445e+02   4.856388e+02
  -5.528962e+02  -6.097878e+01
  -3.016315e+02  -5.339161e+02
   1.759335e+01  -5.299137e+02
   3.086519e+02  -1.484503e+02
   1.853833e+02   3.588988e+02
  -1.486590e+02   4.127076e+02
  -2.837968e+02   4.530863e+01
  -2.825211e+02  -3.735344e+02
   7.278964e+01  -4.650784e+02
   2.806528e+02  -1.472932e+02
   2.878919e+02   1.802331e+02
   1.051049e+02   2.505389e+02
  -1.139767e+02   1.880661e+02
  -4.727554e+01   2.210910e+01
   1.264117e+02   1.697211e+01
   2.660330e+02   1.857758e+02
  -3.053537e+01   2.420245e+02
  -4.218492e+02   2.952611e+02
  -4.693567e+02  -1.135439e+02
  -1.531268e+02  -2.907965e+02
   2.269003e+02  -3.014671e+02
   4.343952e+02  -9.619131e-01
   1.010241e+02   2.391213e+02
  -1.454768e+02   2.753933e+02
  -3.403901e+02   1.255656e+02
  -2.537663e+02  -1.246358e+02
  -5.113328e+01  -3.474439e+02
   1.620492e+01  -1.200175e+02
  -2.315002e+01   1.470250e+02
  -1.709929e+02   1.648644e+02
  -2.299367e+02  -5.405042e+01
  -1.218634e+02  -4.177301e+02
   1.899296e+02  -2.923199e+02
   3.198136e+02  -1.360205e+01
   1.794407e+01   2.443821e+02
  -1.207141e+02   1.527602e+02
  -1.440254e+02  -1.424580e+02
   6.039589e+01  -3.182341e+02
   3.415105e+02  -3.661127e+01
   3.712594e+02   2.548810e+02
   1.410518e+02   3.838496e+02
  -2.470888e+02   1.708618e+02
  -4.247794e+02   2.201007e+01
  -1.462194e+02  -2.358134e+02
  -1.922198e+01  -1.248447e+02
   2.602658e+02  -2.409270e+01
   1.632473e+02   7.055642e+01
   3.653029e+00   2.110721e+01
  -8.968771e+01  -6.419280e+01
   8.100322e+01  -7.204855e+01
   1.577269e+02   1.836174e+01
   5.265317e+01   1.555074e+02
  -8.134367e+01   2.665565e+02
  -2.181120e+02   1.569495e+02
  -2.187297e+02  -5.393648e+01
   2.214576e+01  -1.958478e+02
   1.748757e+02  -2.857897e+02
   2.500724e+02  -5.743481e+01
   1.790786e+02   4.765325e+01
   2.637105e+01   2.968912e+02
  -5.373314e+01   2.396556e+02
  -2.638581e+01   1.197673e+02
   5.925012e+00   7.972760e+01
  -7.949614e+01   9.153592e+01
  -1.591887e+02   7.677223e+01
  -2.076849e+02  -6.834781e+01
  -1.345370e+02  -1.588531e+02
   2.557245e+01  -1.745632e+02
   1.444843e+02   4.367192e+00
   1.496636e+02   1.252065e+02
   2.408600e+00   1.374917e+02
  -1.926046e+02   5.173148e+01
  -2.162400e+02  -1.134874e+02
  -1.032431e+02  -2.263704e+02
   4.453318e+01  -1.799612e+02
   1.642809e+02  -1.158235e+02
   1.079875e+02  -4.592391e+01
   1.012094e+02  -9.589158e+01
   2.234241e+02  -7.014931e+01
   2.412811e+02   3.392444e+01
   3.047876e+02   2.239350e+02
  -2.248308e+01   2.370845e+02
  -2.577371e+02   3.246071e+02
  -3.673029e+02   1.038356e+02
  -2.240520e+02  -5.680934e+01
  -5.103165e+01  -2.137807e+02
   9.591155e+01  -1.406616e+02
   3.749021e+01  -1.609555e+01
  -1.177397e+02   2.272243e+01
  -1.347021e+02  -2.521827e+01
  -3.170457e+01  -7.802976e+01
   9.853060e+01  -1.023654e+02
   7.101417e+01   4.390268e+01
  -6.813812e+01   1.423447e+02
  -1.152380e+02  -1.035402e+01
  -1.405817e+02  -2.125847e+02
  -2.968686e+00  -2.570312e+02
   1.802289e+02  -1.498560e+02
   3.024555e+02  -1.105019e+01
   2.398568e+02   1.670722e+02
   5.911013e+01   1.806037e+02
  -1.549809e+02   1.358691e+02
  -1.134571e+02   3.283646e+01
  -1.144333e+01  -3.911112e+01
   3.444346e+01   5.564421e+01
   4.234916e+00   7.156611e+01
  -7.177048e+01   5.910911e+01
  -1.300649e+02   8.454966e+00
   9.983347e+00  -7.849349e+01
   4.540654e+01   1.426878e+01
  -3.254369e+01   1.415475e+02
  -1.680283e+02   1.112112e+02
  -2.154827e+02   1.122910e+01
  -1.967155e+02  -1.250202e+02
  -5.786026e+01  -1.799481e+02
   1.019751e+02  -2.014478e+02
   2.075428e+02  -1.102251e+02
   1.113052e+02  -1.271119e+01
  -2.151020e+01   5.821370e+01
   2.400785e+00   3.398903e+01
   1.499723e+01  -9.170194e+01
   9.385285e+01  -4.258326e+01
   1.428276e+02   9.678404e+01
   4.882538e+01   1.294055e+02
  -6.574009e+01   8.733825e+01
  -7.320511e+01   3.214129e-01
  -1.410615e+01  -3.755252e+00
  -9.034267e-01   4.030958e+01
   1.315296e+01   7.068896e+01
  -6.402702e+01   1.354765e+02
  -1.780481e+02   1.456679e+01
  -1.581391e+02  -6.240217e+01
  -1.350374e+01  -1.956769e+02
   1.149958e+02  -1.179644e+02
   1.024152e+02  -1.560532e+01
   5.647452e+01   6.061614e+01
  -5.899277e+01   1.830772e+01
  -5.226109e+01   1.853473e+01
   6.183012e+00  -1.330491e+01
  -9.245018e+00  -6.078084e+00
  -3.100960e+01  -5.770143e+00
  -5.475617e+01  -3.244936e+01
  -7.403505e+01  -2.347804e+01
  -2.047027e+01  -1.214347e+02
   1.339889e+02  -7.727933e+01
   1.629972e+02  -6.264317e+01
   1.885035e+02   9.769945e+01
   4.179727e+01   1.536954e+02
  -3.489057e+01   1.352083e+02
  -8.384428e+01  -1.300830e+01
  -7.210131e+01  -7.487873e+01
  -3.920433e+01  -3.141814e+00
  -1.529864e+01   1.377059e+01
  -3.653181e+01   3.277392e+01
  -4.674842e+01  -4.657111e+01
   3.179693e+01  -6.907091e+01
   7.848224e+01  -7.083799e+01
   9.546831e+01  -6.103778e-01
   2.464023e+00   1.290688e+02
  -1.315842e+02   6.307079e+01
  -1.209068e+02  -3.157825e+01
  -7.758301e+01  -1.467606e+02
   7.946739e+01  -2.288742e+02
   2.286741e+02  -6.091371e+01
   1.811133e+02   3.324863e+01
   1.108629e+02   1.167773e+02
  -1.596645e+01   1.287714e+02
  -3.436087e+01   8.403148e+01
  -7.146640e+01   6.461551e+01
  -2.984598e+01   7.896466e+01
  -4.439520e+01   2.667961e+01
  -6.446483e+01  -3.221922e-01
  -3.382263e+01  -4.185692e+01
  -6.198883e+00  -1.446530e+02
   7.926309e+01  -1.556840e+02
   8.545201e+01  -4.350307e+00
   4.939310e+01   3.413471e+01
   3.399627e-01   1.403509e+02
  -1.008992e+02   8.650702e+01
  -3.318127e+01  -1.317127e+01
  -2.648213e+01  -4.614551e+01
   5.349532e+01  -2.532918e+01
  -3.859228e+01  -2.613181e+01
  -5.798635e+01   3.603798e+00
  -4.788479e+01  -3.926941e+01
   8.816793e+00  -2.839162e+01
   7.166114e+01   2.031082e+01
   1.384900e+02   5.662873e+01
   3.032658e+01   6.101092e+01
  -6.938399e+01   3.447068e+01
  -1.394398e+02   1.832679e+01
  -5.782332e+01  -2.409961e+01
   5.680572e+01  -2.125390e+01
   6.181534e+01   2.382515e+01
   1.452472e+01   8.509149e+01
  -3.266974e+01   2.006152e+01
  -5.355558e+01   2.036800e+01
  -5.536064e+01  -5.530349e+01
  -4.841592e+00  -5.670453e+00
  -3.967266e+01  -3.100942e+01
  -1.789711e+01   2.615815e+00
  -7.307059e+01  -7.030194e+01
   3.218865e+01  -1.155178e+02
   1.101837e+02  -1.060255e+02
   1.255541e+02  -2.865808e+01
   8.984197e+01   5.500060e+01
   3.743077e+01   1.053004e+02
  -7.089174e+01   5.668625e+01
  -6.943911e+01   5.231819e+00
   1.385690e+01  -3.934753e+01
   1.236374e+02   5.825375e+01
   5.814599e+01   9.391114e+01
  -3.969709e+01   2.280089e+01
  -1.348553e+02   6.045688e+01
  -1.047497e+02  -4.307029e+01
  -7.218596e+01  -8.250849e+01
   5.863433e+01  -2.856926e+01
   5.649195e+01  -4.863232e+00
  -3.419582e+01   1.034262e+01
  -5.886105e+01  -1.594553e+01
  -4.227865e+01  -1.080974e+02
   4.546093e+01  -1.146969e+02
   1.387241e+02  -7.584778e+01
   6.008027e+01   4.192487e+01
   5.300144e+00   1.400124e+02
  -4.107037e+01   1.248005e+02
  -5.142667e+01   2.790811e+01
  -1.970002e+01  -8.636292e+01
  -1.349505e+01  -9.394322e+01
   7.724425e+01  -4.260481e+01
   1.528726e+01   4.869953e+01
   1.395895e+01  -1.071552e+01
   2.707132e+01   7.016391e+00
   1.332697e+00   1.311471e+00
   4.534697e+01   2.215282e+01
   5.922824e+01   1.066867e+02
  -3.091732e+01   1.744680e+01
  -8.523105e+01  -5.407474e+01
  -8.849282e+01  -5.174511e+01
  -3.457628e+01  -1.006752e+00
   6.189649e+01  -3.855878e+01
   1.029557e+02  -1.144481e+01
   4.213910e+00   1.361971e+00
  -1.634703e+01  -5.990192e+00
  -3.788214e+01  -3.776435e+00
   7.652304e+00  -8.233030e+00
  -1.977748e+01  -2.899116e+01
  -8.708898e+01   3.515188e+01
  -6.865175e+01   8.742168e+00
  -2.131793e+01  -8.859508e+01
   1.065147e+02  -1.164200e+02
   8.372174e+01  -6.284454e+01
   1.360716e+02   3.935991e+01
   4.764427e-01   8.260992e+01
  -7.249700e+01   1.228410e+02
  -8.770772e+01   4.889807e+01
  -5.803580e+01   7.590520e+00
  -4.501317e+01  -3.719405e+01
   1.648302e+01   5.977103e+00
  -2.091853e+01   4.242630e+01
  -3.126208e+01   9.646222e+00
  -3.643952e+01  -3.959512e+01
   3.005678e+01  -6.894678e+01
   2.370387e+01   6.260328e+00
   4.674993e+01   5.739883e+01
   1.784932e+01   1.222671e+02
  -4.663053e+01   2.720385e+01
  -6.018569e+01   1.072595e+01
  -4.953964e+01  -8.431295e+01
   3.132011e+01  -5.260618e+01
   4.608823e+01  -8.908720e-01
   4.810523e+01   3.476883e+01
  -7.979181e+00   5.371134e+01
  -6.910026e+01   2.759263e+01
   4.298614e+01  -4.841018e+01
   5.294401e+01   3.129181e+01
   4.775658e+00   5.101504e+01
  -5.909609e+01   5.097217e+01
  -6.495333e+01   3.599781e+01
  -5.276577e+01  -1.324663e-01
  -1.848848e+01  -1.613294e+01
   1.980099e+01  -5.755183e+01
   2.528666e+01  -2.349379e+01
   6.534508e+00   3.539082e+01
  -3.554738e+01   9.011578e+01
  -2.136721e+01  -4.417692e+00
  -3.872253e+01  -3.763800e+01
  -1.034508e+01  -1.799785e+01
   1.759110e+01   1.545856e+01
   6.282025e+01   2.596462e+01
   1.185537e+01   3.884211e+01
  -3.688628e+01  -1.117248e+01
   3.051640e+00  -2.551088e+00
  -4.609532e+01   2.475138e+01
   3.575304e+01   9.707344e+01
  -2.554034e+01  -2.423872e+01
  -1.011771e+01   1.047405e+01
  -3.905632e+01   3.692745e+00
   3.380621e+01   2.883784e+01
   4.287732e+01   6.368375e+01
   1.911632e+01   2.878505e+01
  -8.182611e+01   2.230970e+01
  -7.465014e+01  -2.332063e+00
  -1.528931e+01  -3.698128e+01
   4.028102e+01  -4.072400e+01
   6.489836e+01  -1.022674e+01
   1.394077e+01  -4.641179e+01
  -2.361918e+01  -1.912333e+01
  -1.927230e+01  -2.847650e+00
   3.767965e+01  -4.562753e+01
   2.103634e+01  -2.254125e+01
