
 $NMID
 id='ANONYMOUS ', fmtdat='(2E16.6)'
 volume=1.0
 tramp=1.0
 $END
  -2.769109e+03   1.792212e+02
  -1.913301e+03  -9.783920e+02
  -4.709018e+02  -1.595370e+03
   7.522494e+02  -9.953453e+02
   7.615110e+02  -3.764029e+02
   1.398014e+02   2.272764e+02
  -3.417833e+02   8.296312e+01
  -1.003490e+02  -4.890712e+02
   1.802877e+02  -7.112109e+02
   5.131891e+02  -2.115234e+02
   5.391952e+02   3.040351e+02
  -2.175545e+01   5.674454e+02
  -1.930457e+02   1.349193e+02
  -2.739097e+02  -2.406996e+02
  -9.129797e+00  -4.916982e+02
   3.425839e+02  -1.437528e+02
   2.888608e+02   2.405479e+02
   2.261541e+01   3.918892e+02
  -3.238768e+02   2.856614e+02
  -3.993813e+02  -7.988283e+01
  -1.628912e+02  -2.970188e+02
   6.912650e+01  -2.095082e+02
   5.437745e+01  -4.004031e+01
  -6.676096e+01  -4.596799e+01
  -2.976495e+02  -2.157950e+02
  -7.318682e+01  -2.870375e+02
   2.904598e+02  -2.028048e+02
   4.004919e+02   3.953291e+01
   2.838612e+02   2.770676e+02
  -3.208031e+02   2.561180e+02
  -4.096168e+02  -5.147380e+01
  -1.157407e+02  -2.556317e+02
   2.235320e+02  -3.303867e+02
   4.023222e+02  -1.150967e+02
   3.158119e+02   1.127330e+02
   1.375355e+02   1.780519e+02
   1.077281e+01   1.813241e+02
   3.015516e+01  -2.540667e+01
   8.974775e+01  -1.933214e+02
   1.523639e+02   9.162688e+01
   9.434141e+01   2.794020e+02
  -9.010191e+01   2.995302e+02
  -2.787744e+02   1.666119e+02
  -1.405944e+02  -1.810494e+02
   9.935814e+01  -4.549442e+01
   1.280562e+02   1.651749e+02
  -3.205926e+01   2.691172e+02
  -3.709905e+02   6.702558e+01
  -5.081948e+02  -2.180434e+02
  -2.078675e+02  -3.702963e+02
   1.447507e+02  -2.603069e+02
   4.515465e+02  -3.425749e+01
   3.549446e+02   8.630375e+01
   5.283514e+01   1.580744e+02
  -1.907561e+02   1.447321e+02
  -1.773370e+02   2.038180e+01
   1.449341e+01  -3.769307e+01
   3.865807e+01  -2.971472e+01
  -4.660880e+01   6.722869e+01
  -2.159101e+02   2.876432e+00
  -1.705657e+02  -1.374653e+02
   9.642283e+01  -1.593866e+02
   2.816059e+02  -1.520389e+02
   1.753404e+02   7.571006e+01
  -3.634988e+01   2.886739e+02
  -1.692535e+02   2.493067e+02
  -2.756403e+02   1.199493e+02
  -1.631377e+02  -1.133869e+02
  -7.494137e+01  -2.795110e+02
  -6.166531e+01  -2.649318e+02
   6.513706e+01  -7.974671e+01
   7.643849e+01  -1.094860e+02
   1.195008e+02  -1.030414e+02
   1.801722e+02  -7.478144e+01
   1.595236e+02   8.370067e+01
   7.262793e+01   1.349720e+02
  -9.731750e+01   1.376320e+02
  -9.968938e+01  -5.648739e-01
  -1.237491e+02  -1.925300e+02
   2.575609e+01  -2.098152e+02
   2.120672e+02  -8.751426e+01
   2.575548e+02   1.287473e+02
   1.309352e+02   2.468977e+02
  -1.568983e+01   2.358609e+02
  -1.084278e+02   1.311797e+02
  -1.263914e+02   9.033199e+01
  -1.651528e+02   6.891586e+01
  -2.286988e+02   4.528914e+01
  -4.049065e+02  -8.861888e+01
  -2.677536e+02  -2.873372e+02
   4.341135e+00  -3.023615e+02
   2.610874e+02  -3.360343e+02
   4.477075e+02  -1.734021e+02
   2.042972e+02   8.473645e+01
   4.344606e+01   1.802438e+02
  -1.218356e+02   1.408727e+02
  -3.028659e+01  -2.318512e+01
   3.837033e+01  -2.264606e+01
   8.754474e+01   9.431297e+00
   7.280005e+00   1.156625e+02
  -8.536606e+01   1.130175e+02
  -1.456958e+02  -4.687910e+01
  -2.958029e+01  -6.547206e+01
   1.015827e+02   6.656283e+00
   1.665923e+02   1.521382e+02
   1.755563e+01   2.427328e+02
  -1.358829e+02   1.861561e+02
  -3.004535e+02  -5.984006e+00
  -3.008113e+02  -1.686620e+02
  -6.885678e+01  -2.172378e+02
   9.687231e+01  -9.421923e+01
   1.082921e+02  -1.636185e+01
   3.519335e+00   1.865121e+01
  -4.410597e+01  -7.479030e+01
  -1.053794e+01  -1.007778e+02
   6.680867e+01  -6.986687e+01
   1.595321e+02  -7.770253e+00
   3.875844e+01   2.458750e+01
  -5.223821e+01  -1.583756e+01
  -1.386800e+01  -7.677780e+01
   1.432021e+02  -1.084410e+02
   2.358243e+02  -2.778918e+01
   2.186207e+02   1.141161e+02
   1.443440e+01   1.459542e+02
  -1.446029e+02   2.242746e+02
  -1.311790e+02   1.305698e+02
  -1.241599e+02  -5.028066e+01
  -1.929949e+01  -2.699625e+01
   4.588970e+01  -3.960936e+01
  -2.635504e+01   3.208764e+01
  -1.115091e+02   5.258690e+01
  -1.583205e+02  -5.482046e+01
   4.512813e+01  -1.291901e+02
   9.584879e+01  -1.249278e+02
   6.303430e+00  -3.677084e+01
   2.706912e+01   3.188625e+01
  -6.597999e+00   5.429591e+00
  -2.629118e+01  -8.149166e+01
   1.139786e+02  -7.650596e+01
   1.829015e+02  -7.062737e+01
   1.174475e+02   8.992842e+01
   1.819439e+01   1.608993e+02
  -1.119786e+02   1.552174e+02
  -1.391011e+02   3.539179e+01
  -4.881704e+01  -4.315867e+01
   5.168376e+01  -1.048849e+02
   4.250630e+01  -5.207548e+00
  -2.319818e+01   2.545976e+00
  -4.088017e+01   3.995862e+01
  -8.315766e+00  -3.476449e+01
   3.593464e+01   2.623044e+01
   8.642168e+01   8.769303e+01
  -2.684036e+01   1.633729e+02
  -7.664299e+01   1.561206e+02
  -1.895742e+02   2.944863e+00
  -1.675455e+02  -1.096428e+02
  -4.882187e+01  -1.669140e+02
   1.837297e+01  -1.093284e+02
   4.634301e+01  -4.479338e+01
   5.941551e+01  -4.511028e+00
   1.538394e+01   4.592374e+01
   3.575709e+01   3.708020e+00
   4.864914e+01  -8.924421e-01
   4.089914e+01   5.746624e+01
  -2.683822e+01   1.350558e+02
  -4.766399e+01   1.249646e+01
  -1.109726e+02  -1.101718e+01
   2.587851e+01  -9.843479e+01
   1.080690e+02  -1.424900e+02
   1.965040e+02   8.283961e+01
   5.810367e+01   1.185386e+02
  -1.547219e+02   1.917746e+02
  -2.035187e+02   5.036582e+01
  -2.141736e+02  -8.330667e+01
  -1.276584e+02  -1.500621e+02
   2.399406e+01  -1.233208e+02
   8.956733e+01  -9.337897e+01
   6.553549e+01  -4.852230e+01
   6.543577e+00  -7.365230e+01
   7.193274e+01  -7.908421e+01
   1.085192e+02  -2.422327e+00
   1.054721e+02   9.831858e+01
   9.224325e+01   2.329885e+02
  -5.938942e+01   1.749856e+02
  -1.258621e+02   3.373420e+01
  -9.214884e+01  -1.359671e+02
   2.967759e+00  -1.488666e+02
   8.054588e+01  -1.206019e+02
   1.111737e+02   5.527766e+01
  -1.295366e+01   4.352998e+01
  -3.772566e+01   3.624614e+01
   3.217595e+01   4.241170e+01
   6.436769e+01   7.209231e+01
   4.853808e+01   6.235809e+01
  -4.906483e+01   2.348007e+01
  -1.589545e+02   4.843179e+01
  -1.013546e+02   1.712534e+01
   2.822249e+00  -5.019452e+01
   7.906597e+01  -6.744647e+01
   1.134686e+02  -2.912526e+01
   5.937455e+01  -6.460651e+00
  -3.177993e+01   7.220488e+01
  -6.711353e+01  -1.439918e+01
  -4.713819e+01  -1.016914e+02
   1.896937e+01  -9.100973e+01
   7.047094e+01   1.477117e+01
   4.027912e+01   4.414960e+01
   5.462394e+01  -8.840396e-01
   7.955357e+01  -2.166157e+01
   7.169296e+01   5.079036e+00
   3.566245e+01   8.781100e+01
  -2.007938e+01   1.080917e+02
  -6.732521e+01   1.261752e+02
  -1.057950e+02   4.308523e+01
  -1.210209e+02  -1.004054e+02
   2.391074e+01  -1.132940e+02
   3.925019e+01  -6.363149e+01
   5.349544e+01  -1.628116e+00
  -1.834818e+01   3.962965e+01
  -1.037997e+02   1.332075e+01
  -6.489899e+01  -8.004675e+01
   5.443317e+01  -9.232836e+01
   1.797547e+02  -9.275712e+01
   1.038489e+02  -4.008917e+01
  -1.654140e+01   2.403092e+01
  -3.843051e+01   6.072488e+01
  -3.625374e+01   2.787773e+01
   3.335423e+01  -3.830072e+01
   4.734945e+01   1.653696e+01
   5.661357e+01   9.831515e+01
  -9.675494e+00   8.409338e+01
  -1.207076e+02   1.115150e+02
  -1.004387e+02  -7.502002e+01
  -4.100269e+01  -1.484547e+02
   2.968537e+01  -1.193898e+02
   6.618970e+01   3.336933e+00
   7.127848e+01   1.269678e+02
  -1.558143e+01   6.538839e+01
  -8.344088e+01   3.253831e+01
  -4.636063e+01  -1.473734e+01
  -9.821779e+00   2.314882e+01
  -6.590829e+00  -3.290054e+01
  -6.397431e+01  -1.411805e+01
  -5.876683e+01  -9.571882e+01
  -1.112321e+01  -9.768249e+01
   1.807327e+01  -6.043277e+01
   9.845031e+01   3.157686e+01
   1.336302e+02   6.203758e+01
  -2.406857e+01   4.443785e+01
  -5.658346e+01  -1.085215e+01
  -1.943853e+01   6.564532e+00
  -3.148820e+01  -1.588911e+00
   1.448417e+01  -2.481991e+01
   1.910839e+01   9.483720e+00
  -2.654943e+01  -8.555394e+00
   2.746788e+01   4.255765e+01
   9.451287e+01   3.685566e+00
   5.692264e+01   1.892647e+01
   5.362838e+01   5.975912e+01
  -1.057421e+02   1.272869e+02
  -1.428532e+02   9.304449e+01
  -1.551962e+02   9.783792e+00
   2.335029e+01  -9.857672e+01
   3.833619e+01  -1.116451e+02
   9.236767e+01  -2.931417e+01
   9.775039e+01   1.438348e+00
   7.081673e+01   9.970028e+00
  -5.474189e+00   2.244626e+01
   2.971570e+01   3.576556e+01
   3.413634e+01  -8.337565e+00
  -1.000830e+01   6.826670e+01
  -4.481754e+00   9.587573e+01
  -3.577177e+01   1.022922e+00
  -5.245293e+01  -1.128401e+02
  -5.478338e+00  -1.118979e+02
   1.208450e+01  -3.981089e+01
   8.330983e+01   2.368794e+01
   4.594461e+01   7.594306e+01
  -5.652272e+01   6.001102e+01
  -8.028451e+01   3.193274e+01
  -1.339622e+01  -8.488778e+01
   1.450785e+01  -5.008382e+01
   7.348978e-01  -9.416368e+00
  -2.107058e+01   7.539255e+00
  -3.297849e+01   3.750726e+01
  -3.028076e+00   1.369163e+01
   4.206510e+01  -6.410580e+01
   7.090444e+01  -3.701386e+01
   4.873899e+01   2.716823e+01
   1.896129e+01   4.890747e+01
   3.484179e+01   8.195721e+01
  -4.044802e+01   1.877527e+01
   2.630495e+01  -8.327096e+01
   3.792671e+01   6.134192e+00
   1.031008e+01   1.627950e+00
   5.749826e+00   3.014166e-01
   3.243738e+01   5.438498e+01
  -2.788250e+01   3.313689e+01
  -1.389330e+01  -1.598702e+01
  -2.274345e+01   3.318003e+01
  -2.892704e+01  -2.369150e+01
   1.779248e+01  -2.186210e+01
  -1.785575e+01  -1.010682e+01
   2.254046e+01  -7.320095e+01
   2.548846e+01  -2.111751e+01
   7.174204e+01   7.412903e+01
   2.898261e+01   5.044208e+01
  -7.792819e+00   1.060633e+01
  -5.398489e+00  -9.525898e+00
   7.278047e+00  -2.409964e+01
   4.293729e+01  -2.114970e+01
   5.450012e+01  -4.094834e+00
   5.119044e+01   1.680199e+01
   1.133665e+01   3.064049e+01
  -1.043208e+02   2.500470e+01
  -2.882193e+00  -2.597668e+01
   1.858901e+01  -1.450047e+01
   5.735214e+01  -1.637188e+00
  -3.023488e+01   5.265250e+01
  -8.983654e+01   1.923756e+01
