
 $NMID
 id='ANONYMOUS ', fmtdat='(2E16.6)'
 volume=1.0
 tramp=1.0
 $END
  -2.304536e+03  -2.716083e+02
  -2.209662e+03  -1.538542e+03
   9.559129e+01  -1.535886e+03
   1.046118e+03  -9.277796e+02
   9.676932e+02  -2.358653e+01
   2.108076e+02   2.793965e+01
  -2.161088e+02   5.499362e+01
  -6.219443e+01  -3.500833e+02
   3.337363e+02  -3.691545e+02
   4.914551e+02  -1.292651e+02
   3.584282e+02   3.911404e+02
  -8.762000e+00   5.393632e+02
  -3.487668e+02   1.544915e+02
  -2.611995e+02  -3.450955e+02
   3.236145e+01  -3.727688e+02
   3.513764e+02  -4.672457e+01
   1.702903e+02   4.869952e+02
  -1.908619e+02   5.213100e+02
  -3.832552e+02   2.318459e+02
  -4.068403e+02  -9.629314e+01
  -5.853186e+01  -3.253100e+02
   9.240923e+01  -2.581774e+02
   1.002497e+02  -7.103525e+01
  -1.793261e+02  -1.241071e+02
  -2.402804e+02  -2.496045e+02
   6.912811e+01  -2.894872e+02
   3.752883e+02  -6.609016e+01
   5.134519e+02   2.136958e+02
   1.019912e+02   1.853308e+02
  -1.987517e+02   2.378957e+01
  -4.425592e+02  -1.847236e+02
  -1.374780e+02  -3.594339e+02
   1.429565e+02  -2.709061e+02
   3.170431e+02  -1.333706e+01
   2.402034e+02   1.178482e+02
   5.494936e+00   1.624810e+02
  -2.204325e+01   1.804203e+02
   9.294901e+01  -4.968634e+01
   1.581024e+02  -1.694989e+01
   1.322302e+02   1.053407e+02
  -2.893027e+01   3.065798e+02
  -2.282552e+02   3.622133e+02
  -1.919807e+02   9.072014e+01
  -1.055002e+02  -1.978137e+02
   1.419709e+02  -4.316434e+01
   1.472629e+02   2.074504e+02
  -5.126502e+01   3.162468e+02
  -2.815197e+02  -2.533618e+01
  -3.145713e+02  -3.116178e+02
  -1.600411e+02  -3.614548e+02
   2.472107e+02  -1.793281e+02
   3.599620e+02   7.854431e+01
   2.612642e+02   1.999784e+02
  -6.955175e+01   2.173474e+02
  -2.960679e+02   7.861019e+01
  -1.275575e+02  -7.058316e+01
  -6.204234e+01  -3.491687e+01
   1.362446e+01   8.267902e+00
  -9.928900e+01   1.824270e+01
  -1.165186e+02   5.160749e+00
  -9.943179e+01  -1.528316e+02
   1.444541e+02  -2.168726e+02
   3.433785e+02  -1.487886e+02
   1.991028e+02   1.043773e+02
  -3.716239e+01   2.894639e+02
  -2.994117e+02   3.195068e+02
  -3.230628e+02   5.522985e+01
  -1.588493e+02  -1.682476e+02
   3.210724e+00  -3.024396e+02
   2.218323e+01  -2.693776e+02
   3.855182e+01  -1.972902e+02
   6.843762e+01  -7.872693e+01
   1.534049e+02  -8.264869e+01
   2.163706e+02   2.302983e+01
   1.791376e+02   1.339589e+02
   5.349415e+01   2.080080e+02
  -5.502429e+01   1.819330e+02
  -1.374994e+02  -1.055718e+02
  -5.085093e+01  -2.910788e+02
   1.105286e+02  -2.606261e+02
   2.078958e+02  -5.500169e+00
   2.129197e+02   1.610005e+02
   7.227671e+01   2.683167e+02
  -7.188392e+01   2.564451e+02
  -1.291943e+02   8.625259e+01
  -1.192752e+02   3.822554e+01
  -1.130219e+02   9.536329e+01
  -2.453399e+02   2.995816e+01
  -3.208077e+02  -1.204534e+02
  -1.897489e+02  -3.318630e+02
   6.189156e+01  -4.026435e+02
   3.107287e+02  -3.105475e+02
   3.619769e+02  -6.609771e+01
   2.258823e+02   6.702979e+01
  -4.995571e+01   2.218254e+02
  -1.051131e+02   1.964385e+02
  -1.543412e+01   4.578966e+01
   9.761249e+01  -2.080378e+01
   1.366207e+02  -3.381147e+00
  -2.902067e+01   1.193833e+02
  -8.306417e+01   8.653105e+01
  -5.164842e+01  -4.007245e+01
   5.932443e+01  -1.032256e+02
   1.118411e+02   4.715253e+01
   1.246591e+02   2.728460e+02
  -4.289787e+01   2.449039e+02
  -2.406568e+02   1.572527e+02
  -3.271045e+02  -3.556399e+01
  -1.481860e+02  -2.753784e+02
  -7.527300e+00  -2.309418e+02
   1.335291e+02  -1.157914e+02
   1.495993e+02   1.334437e-01
   3.125564e+00   5.922685e+01
  -3.732699e+00  -5.512787e+01
   2.055561e+00  -1.345320e+02
   1.224908e+02  -1.314032e+01
   8.807366e+01   6.631967e+01
  -6.672773e+00   5.835902e+01
  -7.241783e+01   1.361136e+01
  -3.942758e+01  -6.400527e+01
   1.070324e+02  -4.690234e+01
   2.452328e+02   3.728975e+01
   2.025937e+02   2.036248e+02
   2.448269e+01   2.794120e+02
  -1.102023e+02   1.408258e+02
  -2.538496e+02   9.777190e+01
  -6.280869e+01  -9.634808e+01
   1.877520e+01  -6.346147e+01
   9.866578e+01   4.158878e+01
  -5.660567e+01   2.583583e+01
  -1.621801e+02   1.548199e+01
  -1.281621e+02  -5.038194e+00
  -5.934501e+01  -1.664711e+02
   6.792185e+01  -1.053239e+02
   6.715459e+01  -1.407100e+01
   7.962840e+01  -8.937321e-01
   9.549862e+00  -5.046289e+01
  -1.028446e+01  -1.202345e+02
   9.540491e+01  -1.062440e+02
   1.759911e+02   4.716702e+01
   1.606433e+02   1.434561e+02
   6.801322e+00   1.448529e+02
  -1.107872e+02   8.771090e+01
  -2.009410e+02  -8.012182e+01
  -3.311825e+01  -5.817963e+01
   3.311159e+01  -1.695203e+01
   6.253507e+01  -3.699658e+01
   1.418286e+01   3.205767e+01
  -5.390965e+01  -2.749095e-01
   2.476513e+01   2.019147e+01
   7.426715e+01  -1.809394e+01
   1.207616e+02   8.679036e+01
  -3.414364e+01   1.598713e+02
  -1.380187e+02   7.748194e+01
  -1.801842e+02  -1.282513e+01
  -1.570320e+02  -1.462393e+02
   3.123532e+00  -1.845519e+02
   6.419534e+01  -1.343420e+02
   8.721070e+01  -3.867944e+00
   6.263993e+01   4.318042e+01
   2.341969e+01  -1.345885e+01
   4.850564e+01   3.159387e+01
   5.968824e+01   2.715314e+00
   5.697750e+00   5.149581e+01
  -1.713941e+01   1.051704e+02
  -1.171508e+02   1.588297e+01
  -9.415140e+01  -3.653201e+01
   5.395710e+01  -1.202374e+02
   9.066496e+01  -3.274115e+01
   1.277398e+02   1.203937e+02
   8.386292e+01   1.832541e+02
  -1.563524e+02   1.348455e+02
  -1.885540e+02   4.442449e+01
  -1.962861e+02  -1.299400e+02
  -8.706694e+01  -1.311377e+02
   5.201838e+01  -8.858290e+01
   6.259135e+01  -6.223425e+01
   7.109107e+01  -8.614731e+01
   4.791245e+01  -4.378341e+01
   8.664798e+01  -1.006946e+02
   1.071738e+02   3.334363e+01
   7.814717e+01   1.424793e+02
   1.131156e+01   1.663886e+02
  -6.063376e+01   1.250002e+02
  -9.633564e+01  -2.369927e+01
  -8.707095e+01  -1.902138e+02
  -3.373586e+01  -1.369761e+02
   2.876343e+01  -6.351674e+01
   6.550488e+01   3.098502e+01
   2.475381e+01   5.793384e+01
  -3.074318e+01  -6.092747e+00
   6.226467e+01   1.312976e+01
   6.237795e+01   1.715221e+01
   5.629559e+01   2.950971e+01
  -6.897934e+01   9.986351e-01
  -1.415423e+02  -1.249235e+01
  -4.940376e+01  -1.052621e+02
   3.306042e+01  -3.086571e+01
   8.837822e+01  -5.682558e+01
   1.512473e+02   4.337245e+00
   3.328865e+01   1.452803e+01
  -2.749486e+01   5.513683e+00
  -7.050554e+01  -1.964965e+01
  -1.948415e+01  -4.748702e+01
   7.789563e+00  -2.815043e+01
   9.928816e+01   1.401751e+01
   4.127786e+01   3.179627e+01
   3.785305e+01   2.804631e+01
   3.786256e+01   2.042262e+01
   6.652047e+01  -3.339958e+01
   1.512110e+01   7.836519e+01
  -2.389682e+01   1.401124e+02
  -1.349322e+02   7.643059e+01
  -1.768811e+02  -1.340705e+01
  -1.182454e+02  -1.232987e+02
   5.109117e+00  -1.025206e+02
   7.459646e+01  -3.725938e+01
   7.051835e+01   3.154597e+01
  -4.327435e+01   2.238007e+01
  -1.083719e+02  -6.046402e+01
  -8.727389e+01  -1.316173e+02
   6.691834e+01  -8.748719e+01
   1.774732e+02   5.800673e+00
   1.517949e+02  -4.899028e+00
   2.598967e+01   8.720644e+01
  -7.169220e+01   1.503847e+01
  -6.300624e+01  -1.841260e+01
   3.411321e+01  -1.066003e+01
   9.646878e+01   4.790735e+01
  -4.881990e+00   1.111829e+02
  -4.570772e+01   1.111295e+02
  -1.300259e+02   4.731835e+01
  -8.629694e+01  -4.099741e+01
  -1.913252e+01  -1.040874e+02
   1.011577e+02  -1.327064e+02
   8.190917e+01   2.495256e+01
   3.145330e+01   7.710753e+01
  -7.802251e+01   9.350209e+01
  -4.194714e+01   1.170390e+00
  -2.717037e-01  -2.512157e+01
  -5.197524e+01   4.071469e+01
  -2.228693e+01  -6.583098e-01
  -1.330384e+01  -1.591903e+01
  -3.794070e+01  -4.816642e+01
  -2.064044e+01  -8.944326e+01
   7.410598e+01  -3.483247e+01
   1.425812e+02   7.087795e+01
   1.234015e+02   6.613899e+01
  -1.491138e+01   4.706425e+01
  -7.555674e+01  -1.446102e+01
  -9.158930e+01   2.461618e+00
  -2.853464e+01  -4.779483e+01
   1.534372e+01  -1.039176e+01
   3.562670e+01  -1.468561e+01
  -4.908947e+01  -2.484738e+00
  -3.265301e+01   2.827529e+00
   6.811600e+01  -1.164106e+01
   9.329971e+01   4.332332e+01
   1.382171e+01   5.474161e+01
  -1.165036e+02   1.276368e+02
  -1.744869e+02   9.328381e+01
  -9.483933e+01  -9.800078e+01
   4.498721e+01  -1.438085e+02
   8.272064e+01  -1.137776e+02
   9.573910e+01  -2.041240e+01
   4.069592e+01   4.307898e+01
  -1.908909e-01   1.128126e+01
  -2.015711e+01   1.439672e+01
   3.576243e+01  -6.760956e+00
   6.091068e+01   5.385293e+01
   2.832907e+01   1.088011e+02
  -3.917999e+01   8.289555e+01
  -4.993194e+01   7.019010e+00
  -7.334414e+01  -1.108909e+02
   3.190814e+01  -1.160333e+02
   3.474669e+01  -6.574082e+01
   1.190407e+02   7.692466e+01
   3.345882e+01   6.584361e+01
  -4.767373e+01   3.478163e+01
  -6.927681e+01  -3.345741e+01
  -5.476805e+01  -9.298423e+01
   6.195861e+01  -8.982362e+01
   2.981686e+01  -2.339941e+01
  -2.354342e+01   2.788181e+01
  -3.711121e+01  -2.999261e+01
  -4.661914e+01  -1.920248e+01
   8.064782e+01  -7.463656e+01
   1.339471e+02  -2.114634e+01
   4.786418e+01   6.161853e+01
  -6.548405e+00   9.698288e+01
  -4.419307e+01   6.782863e+01
  -4.925016e+01  -2.890420e+01
  -2.730152e+01  -1.797989e+01
   2.987720e+01  -8.706212e+01
   5.140064e+01   3.328744e+01
   7.377172e+00   3.012997e+01
   1.420466e+01   5.856672e+01
  -2.027556e+01  -2.096332e+01
  -3.777907e+01  -3.017217e+01
  -2.888562e+01  -1.403676e+01
   4.502897e+01   2.138427e+01
   8.081503e+00   8.371065e+00
   1.127886e+01  -5.755796e+01
  -9.198306e+00  -2.101300e+01
   2.733122e+01   9.423037e+00
   2.553408e+01   3.040991e+01
   4.189635e+01   5.507082e+01
  -7.909343e+01   8.005702e+01
  -5.540805e+01  -2.018174e+01
  -3.033040e+01  -6.329198e+01
   5.095970e+01  -3.307081e+01
   9.176628e+01   5.813356e+01
   9.238203e+00   4.496362e+01
  -2.639964e+01   1.884751e+01
  -4.835461e+01   6.661924e+00
  -1.827542e+01  -8.884504e+00
  -3.573339e+00  -3.805636e+01
   2.947016e+00  -5.436935e+00
  -1.799036e+01   2.798684e+01
  -6.732543e+01   2.478402e+01
