
 $NMID
 id='ANONYMOUS ', fmtdat='(2E16.6)'
 volume=1.0
 tramp=1.0
 $END
   1.351782e+03  -4.599900e+02
   9.027908e+02   7.355681e+02
   1.307216e+02   6.133349e+02
  -5.668349e+02   2.988652e+02
  -3.098367e+02   1.601969e+02
   3.291270e+02  -4.461240e+01
   1.939093e+02   2.924224e+02
   1.121836e+02   1.264394e+02
  -2.450611e+02   2.073251e+02
  -2.399816e+02   1.500510e+01
  -2.027534e+02  -7.108794e+01
  -3.632121e+01  -2.617384e+02
   3.965599e+01  -2.843694e+01
   1.149009e+02   8.206321e+01
  -8.319405e+01   2.375637e+02
  -1.153190e+02   1.937460e+01
  -1.825938e+02  -1.112885e+02
   7.769274e+01  -2.243742e+02
   8.654225e+01  -8.169335e+01
   1.001368e+02   3.145919e+01
   6.346568e+01   1.015126e+02
  -2.565221e+01   9.144175e+01
  -4.953352e+01   6.425556e+01
   1.426212e+01  -6.590521e+01
   9.789448e+01   2.715404e+01
   6.041144e+01   9.577590e+01
  -1.392772e+02   1.625127e+02
  -1.820004e+02   2.215253e+01
  -1.221000e+02  -2.359971e+02
   7.360871e+01  -1.394135e+02
   2.156653e+02  -4.274801e+01
   8.716668e+01   7.700224e+01
  -2.015130e+01   1.924722e+02
  -1.818649e+02   1.126891e+02
  -1.424142e+02  -4.694566e+01
  -1.055903e+02  -1.060703e+02
   2.369866e+01  -4.734450e+01
   2.505598e+00   4.893573e+01
  -1.249624e+02   1.481343e+02
  -1.846153e+02  -5.284461e+01
  -1.176317e+02  -1.867302e+02
   1.073024e+02  -2.083155e+02
   1.507252e+02  -3.694798e+01
   7.121370e+01   1.143287e+02
  -2.448583e+01   9.488032e+01
  -2.311133e+02  -4.700450e+01
  -1.348929e+02  -8.185144e+01
   1.611861e+02  -6.792802e+01
   1.726124e+02   7.261147e+01
   1.404915e+02   1.541284e+02
  -5.087097e+01   1.214815e+02
  -2.083469e+02   2.735630e+01
  -1.169666e+02  -1.110011e+02
  -1.655975e+00  -5.390918e+01
   1.245636e+02  -2.958752e+01
   1.213250e+02   1.455589e+01
   2.248709e+01   3.365638e+01
  -1.159925e+01  -7.336341e+00
   6.290631e+01  -4.902835e+01
   7.976854e+01   7.875712e+00
   2.126754e+01   6.940431e+01
  -5.204611e+01   1.055354e+02
  -6.274232e+01   6.828929e+01
  -9.950932e+01  -3.747694e+00
  -3.450126e+01  -5.245492e+01
   6.382126e+01  -1.226250e+02
   4.694982e+01  -5.104382e+01
   9.752370e+01   5.155742e+01
   5.281814e+01   1.540336e+02
  -2.598858e+01   5.366777e+01
  -2.833094e+01   2.635763e+01
  -2.243841e+01  -4.178812e+01
   1.935321e+01   3.654564e+01
  -7.663081e+01   1.928055e+01
  -9.043808e+01  -2.015547e+01
  -1.016086e+02  -6.298122e+01
  -3.807413e+01  -1.145826e+02
   2.891328e+01  -3.920616e+00
   1.040761e+02   5.758601e+01
  -2.377690e+00   7.573625e+01
  -9.524467e+01   3.389215e+01
  -1.078417e+02  -1.683725e+01
  -4.346429e+01  -6.944870e+01
  -5.743368e+00  -1.610798e+02
   8.100949e+00  -9.906071e+01
  -1.206394e+01  -3.240300e+01
   4.500749e+01  -5.778844e+01
   4.171188e+01  -1.890432e+01
   1.019760e+02  -5.517858e+00
   1.258199e+02   1.078415e+02
   3.711923e+01   5.110898e+01
  -7.622176e+01   2.332495e+02
  -2.551675e+02   1.101106e+02
  -1.063342e+02  -6.693261e+01
  -6.559264e+01  -1.229428e+02
   3.542640e+01  -3.537210e+01
  -1.533281e-01  -2.921763e+01
  -4.779645e+01   8.280878e+01
  -5.695322e+01   8.910468e+00
  -3.506082e+01  -2.002359e+01
   7.944064e+01  -5.092541e+01
   4.363717e+01  -3.065736e+01
   4.419850e+01   6.567293e+01
  -1.287195e+02   3.847545e+01
  -5.140392e+01  -7.149433e+01
  -1.216370e+01  -9.649057e+01
   4.553426e+01  -4.584130e+01
   1.261293e+02  -2.304569e+01
   1.199968e+02   1.902102e+01
   6.271023e+01   8.424116e+01
  -6.323727e+01   9.568387e+01
   1.939505e+00   3.922120e+01
   1.260871e+00  -3.492995e+01
   1.250392e+01  -3.409812e+00
   3.008023e+01   4.992044e+01
  -2.505658e+01   8.703384e+01
  -2.212969e+01  -7.078173e+00
  -7.802583e+00  -2.652644e+01
  -5.573232e+00  -2.156683e+01
   2.529558e+01   5.089024e+01
  -1.991000e+01   5.554812e+01
  -6.878318e+01   4.256471e+01
  -1.350449e+02  -7.283171e+01
  -3.954830e+01  -4.222195e+01
   7.939685e+01  -1.083110e+02
   8.658344e+01  -1.112114e+02
   3.418417e+01   3.718843e+00
   4.368149e+00   7.062657e+01
  -1.580057e+01  -1.246156e+01
   6.364445e+01  -1.364466e+01
   5.594662e+01  -9.607857e+01
   9.982173e+01   3.523371e+01
   1.657832e+01  -3.730456e+00
  -2.632426e+01   7.199922e+00
  -1.607284e+01  -1.080593e+01
  -1.872404e+01  -2.312246e+01
  -3.920321e-01   5.702622e+01
  -1.873083e+01   6.258181e+01
  -6.323484e+01   7.949619e+01
  -4.425562e+01   4.011938e+01
  -8.810005e+01  -3.164519e+01
  -1.145642e+01  -1.110268e+02
   6.613822e+01   2.753593e+00
   9.771792e+01   2.337120e+01
   5.813983e+01   6.635444e+01
  -2.090042e+01   3.953994e+01
  -1.030319e+01  -1.341833e+01
  -1.124879e+01  -3.041928e+01
   1.826983e+01  -4.686374e+00
  -7.283174e+00   9.040464e+00
  -3.066778e+01   6.659637e+00
  -2.455478e+01  -3.020287e+01
   1.886141e+01  -1.958616e+01
   6.645627e+01  -8.740141e+01
   1.050217e+02  -4.447677e+01
   5.076639e+01   1.488885e+01
   5.052422e+00   7.151709e+01
  -1.586354e+01   5.448593e+01
  -1.455894e+01  -1.030157e+01
   1.595912e+01   9.387073e-01
   3.629065e+00   9.559894e-01
  -1.225103e+01   8.385456e+00
  -4.341064e+01   7.673682e+00
  -2.743793e+01  -2.288285e+01
   1.559856e+01   1.010597e+00
   4.157905e+01  -4.827272e+01
   4.428169e+01  -2.265184e+00
   6.304941e+01   6.317730e+01
  -2.172286e+01   8.097950e+00
  -7.337752e+01  -2.613737e+01
  -4.356227e+01  -1.115087e+01
   5.749425e+00  -7.065756e+01
   7.722099e+01  -1.521776e+01
   8.838987e+01   1.415171e+01
   3.204400e+01   4.575866e+01
  -1.080807e+01   7.272098e+01
  -1.470099e+01   4.715578e+01
   5.227340e+00   3.099641e+01
  -6.508500e+01  -1.833459e+00
  -7.756680e+00   3.715603e-01
  -6.332619e+01  -3.124707e+01
  -1.842928e+01  -2.818299e+01
  -6.043150e+01  -9.905989e+01
   6.278089e+00  -4.448786e+01
   4.589868e+01  -1.645374e+01
   3.950942e+01   5.315457e+01
  -1.247768e+01   5.213525e+01
  -6.429108e+01   4.160966e+01
  -1.436116e+01  -2.551261e+01
  -1.625944e+01  -2.024334e+01
  -3.891883e+01  -1.559709e+01
  -2.227721e+01   1.805470e+01
  -5.035216e+00  -2.232684e+00
  -2.654507e+01   1.129223e+01
  -5.243369e+00  -4.099638e+01
   3.056113e+01  -4.650146e+01
   8.647498e+01  -4.261572e+01
  -1.145491e+01   4.433158e+01
  -4.020400e+01   3.117305e+00
  -7.116353e+01   1.952367e+01
  -1.586878e+01   1.452523e+01
  -4.770986e+00  -1.768091e+01
   2.926155e+00  -1.988352e+01
   4.589101e+01   1.276422e+01
  -6.022399e+01   1.853712e+01
  -3.842708e+00  -1.951915e+01
   1.767795e+01   1.539626e+01
  -1.632025e-01   2.488018e+01
  -4.555577e-01   1.275980e+01
  -5.597890e+01  -1.152993e+01
  -1.439352e+01  -3.049758e+01
   1.077812e+01  -3.590945e+01
   5.985572e+01  -1.127183e+02
   4.101334e+01   2.192506e+01
   1.185304e+01  -9.057111e+00
   2.983632e+01   1.961976e+01
  -4.829905e+01   1.694054e+00
  -5.588774e+01   9.623964e+00
   1.940935e+01  -3.258487e+00
   3.571493e+01   4.400397e+01
   4.149364e+01   3.764746e+01
  -1.899933e+01   1.057115e+01
  -7.325914e+01   1.879812e+01
  -4.287095e+01   3.330718e+01
  -2.951152e+01  -1.718757e+01
   2.164738e+01  -4.130725e+01
   5.240973e-01   1.750234e+01
  -5.993477e+00   1.611320e+01
   1.127668e+01   7.029230e+00
   1.821072e+01  -7.348554e+00
   2.334492e+01  -5.977661e+01
   3.348674e+01  -3.529728e-01
   3.230271e+01   2.394584e+01
  -2.236758e+01   1.572411e+01
  -1.837602e+01   9.373153e+01
  -4.972417e+00   6.343840e+00
  -2.208509e+01  -3.574734e+01
  -5.791289e+01  -5.741844e+00
   1.344862e+01   2.794296e+01
   7.699053e+00   2.113079e+01
   1.724280e+01   3.473548e+01
   4.282957e+01  -3.309994e+01
   5.385349e+01  -3.458028e+01
  -2.503566e+01  -1.068954e+01
   3.370734e+01  -8.961218e+00
  -3.002147e+01   2.669585e+01
  -2.224447e+01  -5.494237e+00
  -8.165702e+01   9.743823e+00
  -1.509962e+01   8.725221e-01
   3.499976e+01  -2.507025e+00
   2.864377e+01  -5.107764e+00
   2.687851e+01  -1.473951e+01
  -4.250206e+01  -2.861246e+00
  -5.240043e+00  -1.374227e+01
   7.375637e+00   3.197228e+01
  -4.823364e+01   3.232912e+01
  -4.682670e+00   1.856303e-01
  -5.313062e+01  -8.360702e+00
  -5.453361e+01  -2.297286e+01
   2.008681e+01  -4.662222e+01
   3.525013e+01  -2.380120e+01
   2.991663e+01   2.563837e+01
   4.517380e+01   4.047769e+01
   8.640293e+00   9.668187e+01
  -4.425933e+01   5.422006e+00
  -8.169496e+01  -3.150486e+01
  -1.683641e+01  -1.345681e+01
   5.398804e+00   3.212184e+00
  -2.823517e+01   1.797572e+01
   3.396386e+01  -2.695267e+00
  -4.340396e+01  -9.974043e+00
   1.453748e+01  -2.524018e+01
   2.521064e+01   3.011513e+00
   2.290522e+01   7.324412e+01
  -1.457151e+01   6.373344e+00
  -4.991642e+01   7.154667e+00
  -8.760774e+01  -8.386594e+00
  -2.497775e+01   2.058668e+01
   3.394669e+01  -4.390442e+00
   6.560777e+01  -2.260074e+01
   4.234922e+01  -7.513500e-02
  -3.818332e+01   1.979666e+01
  -9.644285e+00   1.163258e+01
   3.019259e+01  -7.563344e+00
   2.086521e+01  -5.404465e+01
  -3.736446e+01   6.809666e+01
  -2.944307e+00  -4.444366e+00
  -5.818568e+00   6.279840e+01
  -1.243423e+01  -2.852645e+01
  -2.295477e+01   2.755586e+00
   3.513231e+01  -3.428512e+01
  -1.710948e+01   4.044090e+01
   9.624829e+00   3.103876e+01
  -5.685728e+01   3.580581e+01
   2.720105e+01   2.972236e+01
   1.289028e+01  -3.093477e+01
   2.316224e+01  -3.560863e+00
  -2.803012e+01   2.805901e+01
  -1.023691e+01   2.896411e+01
  -5.172709e+00   3.732539e+00
  -2.840441e+01   1.525040e+01
  -4.443443e+01  -3.057619e+00
   2.043640e+01   1.322183e+01
   3.260294e+01   1.121633e+01
  -3.737331e+00   1.842676e+01
  -1.740665e+01  -1.894219e+01
  -2.410143e+01  -3.129138e+01
   2.447606e+01   4.101371e+00
   4.053564e+01   5.176681e+01
   6.690812e-01   2.726448e+01
   6.804348e+00   3.545122e+01
  -5.349316e+01   5.638176e+00
  -2.229677e+01  -4.852828e+01
  -9.565748e+00   7.581354e+00
   5.901078e+01  -3.759052e+01
   5.840528e+00  -1.049132e+01
   2.279599e+01   9.954431e+00
  -1.001493e+01  -1.154796e+01
   5.217895e+01  -2.934372e+01
   5.815564e+01  -1.732115e+01
