
 $NMID
 id='ANONYMOUS ', fmtdat='(2E16.6)'
 volume=1.0
 tramp=1.0
 $END
   3.197446e+03  -1.043218e+02
   1.607195e+03   1.130114e+03
   3.256345e+02   2.106474e+03
  -7.565309e+02   1.268087e+03
  -7.890781e+02   5.204312e+02
  -1.445082e+02  -3.236278e+02
   3.409588e+02   2.576724e+01
   2.004183e+02   5.435108e+02
  -3.626615e+02   6.131414e+02
  -5.820668e+02   1.935354e+02
  -5.865356e+02  -4.666679e+02
   2.221697e+01  -5.788840e+02
   1.989625e+02  -1.789486e+02
   2.774452e+02   2.856226e+02
  -5.864446e+01   5.481247e+02
  -3.041600e+02   1.489572e+02
  -2.597000e+02  -3.436564e+02
   5.106791e+01  -4.837048e+02
   3.724304e+02  -3.447926e+02
   4.055938e+02   1.385180e+02
   1.529159e+02   3.296148e+02
  -9.529372e+01   2.703262e+02
  -4.973635e+01   9.574999e+01
   1.408261e+02   7.175063e+01
   2.621813e+02   3.874367e+02
  -3.404603e+01   3.878917e+02
  -3.441863e+02   2.595793e+02
  -5.135291e+02  -7.438375e+01
  -3.081368e+02  -3.107390e+02
   3.226909e+02  -2.501092e+02
   4.188760e+02   1.081673e+02
   1.811916e+02   2.565753e+02
  -2.391457e+02   3.322293e+02
  -4.412673e+02   1.268438e+02
  -3.596958e+02  -1.324995e+02
  -1.489706e+02  -2.679893e+02
   1.701160e+01  -2.313330e+02
  -2.356186e+01   8.131986e+01
  -8.285529e+01   2.173735e+02
  -1.971661e+02  -1.310499e+02
  -1.283136e+02  -4.508394e+02
   1.644556e+02  -3.952933e+02
   3.280481e+02  -1.012270e+02
   1.718902e+02   2.433955e+02
  -9.961522e+01   7.814257e+01
  -1.389888e+02  -1.678500e+02
   3.563506e+01  -2.762816e+02
   4.326190e+02  -1.106810e+02
   4.793384e+02   2.941061e+02
   2.008959e+02   3.991894e+02
  -1.684344e+02   2.697324e+02
  -5.218021e+02  -4.400381e+01
  -3.370406e+02  -1.524334e+02
   1.308795e+01  -1.412606e+02
   2.475720e+02  -9.164901e+01
   2.293353e+02  -4.493489e+00
   2.676880e+01   4.164868e+01
  -3.010459e+01  -3.064285e+01
   5.973510e+01  -5.718308e+01
   1.925369e+02   1.035466e+01
   1.432696e+02   1.580775e+02
  -6.353169e+01   2.626366e+02
  -2.469449e+02   1.447655e+02
  -1.796390e+02  -7.442598e+01
   3.684355e+01  -2.794149e+02
   2.528608e+02  -3.989392e+02
   2.849007e+02  -1.431610e+02
   1.699426e+02   1.262712e+02
   4.170793e+01   2.825756e+02
   1.090828e+01   3.085831e+02
   1.328627e+01   1.644689e+02
  -7.442240e+01   1.062841e+02
  -1.424900e+02   6.627788e+01
  -2.304375e+02   4.700424e+01
  -1.774518e+02  -8.457260e+01
  -1.084857e+02  -1.994443e+02
   3.087723e+01  -1.591893e+02
   1.417538e+02   1.223375e+01
   1.589840e+02   1.783558e+02
  -6.574389e+01   1.464600e+02
  -2.287525e+02   8.153627e+01
  -2.892864e+02  -1.452318e+02
  -1.051207e+02  -2.575652e+02
   2.614899e+01  -2.278213e+02
   1.175532e+02  -1.646311e+02
   8.975445e+01  -6.126607e+01
   1.841639e+02  -9.442360e+01
   2.524468e+02  -1.117298e+02
   3.624391e+02   1.121406e+02
   2.544565e+02   2.674194e+02
  -1.545404e+00   3.006430e+02
  -3.218559e+02   4.069633e+02
  -4.527027e+02   2.131875e+02
  -2.534550e+02  -2.195221e+01
  -7.461890e+00  -2.102690e+02
   1.026811e+02  -1.427422e+02
   2.668326e+01  -6.286676e+01
  -1.164091e+02   7.258551e+01
  -1.078373e+02  -5.787813e+00
   1.847817e+01  -1.236588e+02
   1.174978e+02  -1.585072e+02
   1.238784e+02   8.096269e+01
  -1.620915e+01   1.599554e+02
  -1.372346e+02   1.591084e+01
  -1.314353e+02  -2.325001e+02
   7.313096e+00  -3.031816e+02
   1.651861e+02  -8.108308e+01
   3.259411e+02   1.996852e+01
   3.458923e+02   1.670039e+02
   7.951900e+01   2.461035e+02
  -9.352255e+01   1.327993e+02
  -1.383586e+02  -4.863744e+00
  -9.781009e+00   1.579925e+00
   1.590185e+01   9.348360e+01
  -1.842667e+01   7.107325e+01
  -1.231648e+02   8.051504e+01
  -1.166096e+02  -4.021886e+01
  -4.978380e+01  -6.656311e+01
   7.743895e+01   3.830995e+01
  -1.315167e+01   6.510925e+01
  -1.391404e+02   1.084771e+02
  -2.733922e+02  -1.149973e+01
  -2.665641e+02  -1.677209e+02
  -1.510790e+01  -1.504355e+02
   1.540779e+02  -2.018713e+02
   2.167864e+02  -1.204322e+02
   1.326713e+02   7.284986e+01
  -5.017578e+01   2.591911e+01
  -5.402357e+01  -1.680862e+01
   3.439990e+01  -8.405903e+01
   1.695165e+02  -1.760645e+01
   2.041641e+02   1.012455e+02
   2.739803e+01   1.664653e+02
  -6.446142e+01   1.463375e+02
  -1.088030e+02   2.526513e+01
  -3.881529e+01  -6.245448e+01
   7.083677e+01  -5.339308e+01
   2.405029e+01   1.064869e+02
  -7.735798e+01   1.127409e+02
  -2.386311e+02   3.127965e+01
  -1.521304e+02  -8.853766e+01
   2.018483e+01  -1.970284e+02
   1.195813e+02  -9.380088e+01
   1.679955e+02  -9.499211e+00
   2.373582e+01   7.953595e+01
  -6.538000e+01   1.246785e+02
  -9.587155e+01   7.601750e+01
   2.257298e+01  -3.163402e+01
   2.958493e+01   1.126896e+00
  -1.212091e+01   2.793374e+01
  -8.826916e+01   1.789757e+01
  -1.034248e+02  -8.052520e+01
  -9.340232e+00  -1.569818e+02
   9.828460e+01  -1.357593e+02
   1.785421e+02  -7.354216e+01
   1.660423e+02   1.659867e+02
   8.882328e+01   1.695538e+02
  -5.526757e+01   1.716261e+02
  -1.514038e+02   6.513285e+00
  -6.436039e+01  -4.826197e+01
  -7.439161e+01  -5.964431e+01
  -5.542703e+01  -6.438198e+00
  -5.223416e+01  -2.474831e+00
  -5.207694e+01  -6.699826e+01
   4.103337e+01  -1.226437e+02
   9.467099e+01  -7.486518e+01
   6.870277e+01   2.462631e+01
  -1.915997e+01   1.136882e+02
  -1.808740e+02   1.162996e+02
  -1.698839e+02  -3.297094e+01
  -8.977915e+01  -1.604719e+02
   1.049173e+02  -1.395724e+02
   1.837812e+02  -9.850083e+01
   2.121030e+02   4.117404e+01
   7.030064e+01   1.441625e+02
  -1.400719e+01   9.863863e+01
  -4.904004e+01   1.082175e+02
  -5.017205e+01   5.814779e+01
  -6.974720e+01   8.784544e+01
  -5.925988e+01   8.686843e+01
  -1.379668e+02   1.209871e+01
  -7.997608e+01  -6.869324e+01
  -2.667176e+01  -2.410181e+02
   7.434242e+01  -1.404810e+02
   1.596584e+02  -4.314831e+01
   1.082850e+02   1.646906e+02
   2.145283e+01   1.741832e+02
  -4.439402e+01   9.237795e+01
  -4.799359e+01  -3.167960e+00
   2.057757e-01  -4.170218e+01
   1.841147e+01  -3.759341e+01
  -3.273070e+01  -5.561353e+00
  -5.544462e+01  -1.061842e+01
  -6.148663e+01  -1.062746e+01
   6.351513e+01  -5.549209e+01
   2.241032e+02  -3.617231e+01
   1.256526e+02   4.656454e+01
  -1.317607e+01   6.590778e+01
  -1.081474e+02   5.391997e+01
  -1.094309e+02  -1.847027e+01
  -5.418945e+01   7.472092e+00
   5.759507e+01  -5.483892e+01
   6.168650e+01   4.300252e+01
  -8.929824e+00   8.673214e+01
  -3.582538e+01   5.900203e+01
  -6.703785e+01   3.660859e+00
  -7.757621e+01  -4.679468e+01
  -2.723987e+01  -6.505973e+01
  -5.268117e+01  -6.736378e+00
  -3.058053e+01   7.447746e-01
   1.572494e+01  -6.728410e+01
   6.528785e+00  -1.358745e+02
   1.146608e+02  -1.921345e+02
   1.930115e+02  -2.111427e+01
   9.420496e+01   7.080036e+01
  -6.034494e+00   8.815088e+01
  -7.295680e+01   5.868569e+01
  -9.337992e+01   2.211685e+01
   3.886239e+01  -1.382298e+01
   1.659198e+02   8.602003e+00
   6.110120e+01   3.973896e+01
  -5.750202e+01   1.430307e+02
  -2.170316e+02   8.266003e+01
  -1.502117e+02  -5.584410e+01
  -3.372061e+01  -7.863085e+01
   5.230376e+01  -6.624451e+01
   3.108831e+01  -6.225810e+00
  -4.034175e+01  -1.190479e+01
  -8.200915e+01  -2.447991e+01
  -9.683743e+01  -8.489360e+01
   4.185406e+01  -1.031976e+02
   9.029731e+01  -6.891117e+01
   8.631473e+01   3.733313e+01
   1.013691e+02   1.947316e+02
  -1.118584e+01   1.114200e+02
  -1.033618e+02  -3.939021e+00
  -6.333209e+01  -1.008090e+02
  -4.557757e+00  -7.128418e+01
   1.090717e+02  -3.385990e+00
  -3.202067e+00   2.383193e+01
   1.570100e+01   2.296470e+01
  -5.097210e+00  -7.683012e+00
   3.860227e+00  -1.502807e+01
   8.130583e+01   4.817580e+01
   6.346310e+01   9.657472e+01
  -7.426603e+01   6.322230e+01
  -1.434769e+02  -1.319375e+01
  -1.113574e+02  -6.787092e+01
  -2.221330e+01   3.062243e+00
   9.084360e+01  -2.937516e+01
   5.622979e+01   1.517290e+01
   2.444103e+01  -2.310394e+00
  -3.708588e+01   4.344195e+01
  -5.174386e+01  -8.939637e+00
  -1.602797e+01  -2.458568e+01
   3.096570e+01  -7.739282e+00
  -7.897247e+01   7.383346e+00
  -6.517527e+01   1.583642e-01
  -1.232526e+01  -9.723354e+01
   9.377405e+01  -1.103794e+02
   1.659210e+02  -3.560214e+01
   1.684997e+02   5.185993e+01
  -6.041572e+00   1.474233e+02
  -2.160503e+01   1.660040e+02
  -1.248851e+02   1.033669e+02
  -6.596688e+01  -3.887095e+01
  -1.821270e+01  -4.251172e+01
  -9.018386e+00  -3.134897e+01
  -4.136530e+01  -2.759040e+01
  -1.299838e+01  -7.095503e+01
  -4.113338e-01  -8.271739e+01
   3.470825e+00  -6.317431e+01
   9.287409e+01   1.815104e+01
   4.951724e+01   1.156958e+02
   8.039663e+00   1.513360e+02
  -6.630344e+01   1.007904e+01
  -9.861870e+01  -4.611520e+00
  -2.288784e+01  -7.471421e+01
   2.408514e+01  -3.562842e+01
   6.329474e+01   4.420716e+01
   3.224231e+01   3.909696e+01
  -4.257980e+01   7.602175e+01
  -3.430103e+01   3.711204e+00
  -5.681094e+00  -1.422689e+01
   5.069280e+01  -3.993104e+01
   3.556831e+01  -1.392353e+00
  -4.861309e+01   9.882289e+01
  -7.426025e+01   7.281952e+01
  -5.211293e+01  -2.787047e+01
  -3.170696e+01  -9.200825e+01
   2.885638e+01  -9.827596e+01
   7.289052e+01  -3.961482e+01
  -3.228563e+01   4.877732e+01
  -4.978051e+01   3.430702e+00
  -6.340787e+01  -3.130589e+01
  -1.581247e+01  -5.539813e+01
  -3.066307e+00  -5.804129e+01
   2.955653e+01   7.083851e-01
   1.981126e+01  -3.713572e-01
   3.726790e+01  -3.228672e+01
   1.196893e-01  -1.926311e+01
  -3.651300e+01  -1.661779e+00
   2.222398e+01  -4.728954e-01
   3.761325e+01   5.477056e+01
  -4.438502e+01   6.672258e+00
  -3.538847e+01  -3.717034e+01
   1.622211e+01  -9.930692e+01
   8.913385e+01  -3.937602e+01
   5.100185e+01  -4.330799e+01
   6.061676e+01   2.058923e+01
  -3.671482e+00   6.070459e+01
  -1.088736e+02  -5.654635e+00
  -1.578135e+01  -3.626886e+01
   4.277533e+01  -5.380454e+01
   6.816256e+01  -2.872105e+01
   2.490959e+01   3.067830e+00
  -1.214540e+01  -1.167179e+01
  -1.194129e+01   4.561352e+00
   2.289345e+01  -5.455171e+01
   7.782823e+01  -3.720858e+01
