
 $NMID
 id='ANONYMOUS ', fmtdat='(2E16.6)'
 volume=1.0
 tramp=1.0
 $END
  -2.339566e+03   3.718738e+01
  -1.427968e+03  -1.368238e+03
   2.337579e+02  -1.894691e+03
   1.276866e+03  -6.522716e+02
   6.933262e+02   3.181593e+02
  -3.010827e+02   2.843570e+02
  -5.557204e+02  -2.441717e+02
  -1.029280e+02  -5.883962e+02
   4.578033e+02  -4.081947e+02
   5.478041e+02   2.128470e+01
   3.157421e+02   5.715901e+02
  -9.729704e+01   5.618421e+02
  -3.856139e+02   1.824898e+02
  -2.213214e+02  -3.968341e+02
   6.847661e+01  -4.008504e+02
   2.926452e+02  -6.405205e+01
   1.874774e+02   3.723663e+02
  -1.759755e+02   3.821003e+02
  -4.231930e+02   1.312635e+02
  -1.923868e+02  -1.720161e+02
   3.779209e+01  -2.848428e+02
   1.339638e+02  -1.641111e+02
   1.249256e+02  -2.086489e+01
  -8.278534e+01   4.067620e+01
  -2.318470e+02  -8.698417e+01
  -8.972285e+01  -2.175977e+02
   2.480506e+02  -2.342000e+02
   4.762222e+02   4.616205e+01
   2.003161e+02   3.189749e+02
  -2.001105e+02   3.419198e+02
  -4.685615e+02  -2.314277e+00
  -2.978869e+02  -2.433910e+02
   1.759893e+02  -2.534026e+02
   2.903703e+02  -1.336251e+02
   2.239687e+02   1.551001e+02
   1.973793e+00   2.181423e+02
  -9.247062e+01   2.153024e+02
  -6.016339e+01  -8.087033e+01
   9.943202e+01  -2.010826e+02
   2.394708e+02   3.892812e+01
   7.429069e+01   4.488375e+02
  -5.733360e+01   4.487285e+02
  -3.828579e+02  -3.696790e+01
  -8.915807e+01  -2.814749e+02
   1.434203e+02  -1.780661e+02
   3.001500e+02   1.571759e+02
   3.790730e+01   3.377784e+02
  -3.370026e+02   7.138725e+01
  -3.588588e+02  -1.928789e+02
  -6.007956e+01  -2.667543e+02
   3.080561e+02  -2.200190e+02
   2.618618e+02   9.918366e+01
   2.047628e+02   2.384617e+02
  -5.664292e+01   2.116198e+02
  -2.782050e+02   5.705832e+01
  -1.643532e+02  -9.313305e+01
   5.483476e+01  -4.359232e+01
   1.050392e+02   7.798836e+01
  -7.987816e+01   1.769829e+02
  -2.242640e+02  -3.251672e+01
  -7.092107e+01  -1.558216e+02
   1.444854e+02  -1.674988e+02
   2.517247e+02  -1.944381e+01
   1.289787e+02   3.711056e+01
  -4.304782e+01   1.481729e+02
  -5.139542e+01   2.079706e+02
  -1.896710e+02   9.363975e+01
  -1.409604e+02  -1.370514e+02
  -7.777515e+00  -2.461255e+02
   3.581053e+01  -2.625588e+02
   7.180370e+01  -1.298498e+02
   3.963230e+01  -1.600807e+01
   4.649037e+01  -1.452760e+01
   1.462419e+02  -9.102702e+01
   1.222814e+02   4.966965e+01
   1.039310e+02   1.418527e+02
  -2.517593e+01   1.341261e+02
  -1.787881e+02   5.710211e+01
  -1.289278e+02  -2.061504e+02
  -2.019678e+01  -1.674848e+02
   1.974116e+02  -9.929066e+01
   2.040025e+02   9.853880e+01
   1.594282e+02   1.813675e+02
  -3.817388e+01   1.258525e+02
  -1.602546e+02   6.140646e+01
  -9.753847e+01   3.462008e+00
  -6.756122e+01  -2.621051e+00
  -9.134072e+01   5.413287e+01
  -2.195856e+02  -8.035905e+01
  -1.374490e+02  -1.732468e+02
   3.154466e+00  -2.363779e+02
   1.738424e+02  -2.597269e+02
   2.420405e+02  -6.452527e+01
   1.654301e+02   6.472540e+01
   1.109048e+01   1.896590e+02
  -4.114953e+01   1.682509e+02
  -7.154129e+01   2.913674e+01
   1.008625e+02  -5.690569e+01
   5.780822e+01  -2.609527e+01
   5.517285e+01   1.136917e+02
  -1.212994e+02   9.639589e+01
  -1.015016e+02  -6.535880e+01
   5.027460e+00  -9.805820e+01
   7.748118e+01   3.636387e+01
   7.549466e+01   1.670536e+02
   2.376905e+01   2.558567e+02
  -1.087903e+02   1.213035e+02
  -2.191960e+02  -4.295521e+01
  -1.743369e+02  -1.599085e+02
  -7.296655e+01  -2.146995e+02
   6.596580e+01  -1.223169e+02
   7.253345e+01  -2.081816e+01
   2.805122e+00   5.325521e+01
  -1.174122e+01   1.441097e+00
  -3.578393e+00  -4.080510e+01
   5.246596e+01  -9.776917e+01
   1.379751e+02   5.274076e+01
   3.155281e+01   1.078646e+01
  -5.320863e+01   2.941454e+01
   2.054309e+00  -2.936194e+01
   8.296285e+01  -1.892580e+01
   2.065702e+02   1.815645e+01
   1.229483e+02   6.940797e+01
   5.060439e+01   9.329384e+01
  -1.297409e+02   1.734984e+02
  -1.288099e+02   1.075642e+02
  -1.263921e+02  -4.496245e+01
   4.370360e+01  -6.019045e+01
   7.373641e+01  -5.340837e+01
  -1.522706e+01   4.766407e+01
  -9.048138e+01   6.277697e+01
  -6.772575e+01  -7.729528e+01
  -7.530827e+01  -1.209770e+02
   2.791269e+01  -1.034312e+02
   1.489771e+02  -6.044195e+00
   7.750416e+01   3.817505e+01
  -5.017244e+01   1.894420e+01
  -2.868228e+01  -7.743238e+01
   3.102829e+01  -7.222137e+01
   8.439421e+01  -2.473961e+01
   1.226421e+02   4.622454e+01
   6.399616e+00   8.082906e+01
  -6.734791e+01   8.635231e+01
  -9.929866e+01   2.352936e+00
   5.827651e-01  -5.026801e+01
   6.655743e+01  -5.552036e+01
   1.243184e+01   9.016317e+00
   1.634764e+01  -4.027773e+01
  -1.205784e+01  -1.501631e+01
   3.598973e+01  -1.203764e+01
   6.456292e+01   3.168484e+01
   4.824240e+01   1.343738e+01
   3.396610e+01   8.117605e+01
  -7.976335e+01   8.188368e+01
  -1.349386e+02  -4.390817e+01
  -9.934610e+01  -3.011225e+01
  -5.845056e+01  -1.146966e+02
   9.073784e+01  -7.579366e+01
   7.551913e+01  -2.280963e+01
   3.080141e+01   7.129389e+01
   2.172119e+01   1.658849e+01
   3.283865e+01  -2.049217e+01
   4.017063e+01   3.136391e+01
   1.246147e+01   2.875278e+00
  -5.939970e+01   2.512756e+00
  -5.830698e+01   3.086277e+01
  -8.120061e+01  -8.009434e+01
   2.672541e+01  -9.756629e+01
   1.303007e+02  -4.739143e+01
   9.120654e+01   7.094847e+01
   1.030677e+02   1.065312e+02
  -8.399267e+01   1.228784e+02
  -1.451754e+02   1.385574e+02
  -1.720595e+02   4.186433e+01
  -7.154127e+01  -7.506499e+01
   1.711685e+01  -6.115289e+01
   7.343929e+01  -6.264810e+01
   2.152480e+01  -7.789002e+00
   2.562354e+01  -3.757459e+01
   2.600460e+01  -4.945730e+01
   7.594259e+01   3.153188e+01
   9.029685e+01   6.317094e+01
   4.940331e+00   1.577337e+02
  -5.353363e+01   1.215485e+02
  -8.147992e+01   2.484351e+01
  -6.305515e+01  -4.971968e+01
   7.681246e+00  -9.146043e+01
   7.906070e+01  -1.000683e+02
   2.577227e+01   3.985669e+00
   3.220029e+01   1.310242e+01
  -2.874299e+01   1.000976e+01
   1.882321e+01  -1.269436e+01
   7.711073e+01  -9.424681e+00
   5.479499e+01   1.308142e+01
  -3.042067e+01   3.567279e+01
  -7.103496e+01  -1.643425e+00
  -1.114514e+02  -3.885494e+01
   7.669266e+00  -4.853707e+01
   3.911934e+01  -2.301492e+00
   6.776736e+01  -1.457047e+01
   3.759329e+01   5.770345e+00
  -4.891174e+01   4.864558e+01
  -5.706671e+01   2.535824e+01
  -3.748185e+01  -3.855622e+01
   5.893271e+01  -4.894782e+01
   4.022658e+01   1.131962e+00
   1.634189e+01   3.091775e+01
   2.501947e+01   1.668755e+00
   2.008856e+01   5.965950e+00
   2.940184e+01  -1.248673e+01
   3.292526e+01   2.021017e+01
  -6.995069e+01   8.252083e+01
  -5.344650e+01   4.967708e+01
  -1.223704e+02   1.399383e+01
  -9.568744e+01  -8.594273e+01
   7.067140e+00  -8.821246e+01
   7.447290e+01  -2.052062e+01
   3.749897e+01  -1.670570e+01
  -5.349453e+01   1.657325e+01
  -7.102581e+01  -8.762291e+01
  -3.621176e+00  -7.359817e+01
   2.844172e+01  -8.101553e+01
   1.240265e+02  -2.935992e+01
   1.384559e+02  -3.600791e+00
   4.644780e+01   2.751091e+01
  -6.052436e+01   2.014763e+01
  -3.591703e+01   3.474156e+01
   3.026916e+01  -4.336666e+00
   7.963815e+01  -3.497662e+01
  -1.850603e+01   7.136846e+01
  -7.306033e+01   1.069689e+02
  -9.748824e+01  -8.777501e+00
  -9.361442e+01  -4.839265e+01
   3.499657e+01  -7.099636e+01
   5.539581e+01  -5.252343e+01
   6.040035e+01   2.132651e+01
   3.955355e+01   1.154960e+02
  -1.176819e+01   4.621042e+01
   3.022848e+01   2.540707e+01
  -1.271128e+01  -3.623468e+01
  -1.374129e+01  -2.814396e+01
   1.764658e+01   3.644512e+00
  -2.493883e+01  -4.681035e+01
  -3.913557e+01  -8.752152e+01
  -4.993628e+01  -5.854214e+01
   3.280710e+01   8.989432e+00
   1.006655e+02   2.358093e+01
   1.012233e+02   5.945629e+01
   3.411045e+00   3.849264e+01
  -5.094843e+01  -5.226783e+00
  -1.055360e+02   6.823235e+01
   9.974492e+00  -6.060098e+01
   5.459788e+01  -2.425685e+01
   1.950904e+01  -5.932206e+01
  -6.446113e+01  -1.208923e+01
   1.176301e+01   2.349039e+01
  -4.960686e+00   6.077277e+00
   7.984280e+01   4.616401e+01
   3.903288e+00   6.875770e+01
  -2.785743e+01   9.298059e+01
  -1.336306e+02   2.084053e+01
  -1.111902e+02  -2.414530e+01
  -5.232841e+01  -1.192711e+02
   3.665416e+01  -6.707398e+01
   6.335531e+01  -3.424151e+01
   6.324333e+01   1.148591e+01
   1.676388e+00   1.005257e+01
   1.300155e+01   1.655802e+01
   9.988653e+00   1.870649e+01
   1.151669e+00   3.374257e+01
   2.573907e+01   5.735387e+01
  -4.004047e+01   1.311357e+01
  -6.830647e+01   1.254466e+01
  -1.077485e+01  -6.502282e+01
  -1.693040e+01  -2.796846e+01
   8.769904e+01  -2.535180e+01
   7.450095e+01   3.088238e+01
   3.996799e+01   8.066106e+01
  -6.280049e+01   1.735849e+01
  -6.090703e+01  -3.561687e+01
  -2.018058e+01  -8.838640e+01
   1.369091e+01  -3.936919e+01
   1.792220e+01  -1.652751e+01
  -2.706849e+01  -2.123537e+01
  -5.620390e+01   2.193543e+01
  -1.445305e+01  -2.673288e+01
   3.733759e+01  -4.432856e+01
   1.214063e+01  -2.680752e+01
   3.890619e+01   4.228786e+01
   1.519831e+01   1.862531e+01
  -1.498266e+01   2.628453e+01
  -3.139886e+01   2.228541e+01
   5.088695e+00  -2.092505e+01
   3.468825e+01  -4.193974e+01
   2.795592e+01  -1.821613e+01
  -2.830369e+01   1.270473e+01
  -1.787382e+01   5.759888e+01
   1.537306e+01  -3.663040e+01
  -4.173387e+01   1.539082e+01
   1.367380e+01   6.725441e+00
  -4.809006e+00  -7.376319e-01
  -1.409609e+01   3.704815e+00
  -1.127605e+01  -4.540676e+01
   1.014971e+01  -1.885773e+01
   3.780022e+01  -2.232072e+01
   2.601365e+01   2.827413e+01
   7.549053e+00  -4.049731e+00
  -7.913669e+01   3.831269e+01
  -8.173978e+00  -2.741721e+01
   2.291840e+01  -6.622562e+01
   1.347026e+01   2.708289e+01
   8.165569e+01   3.461237e+01
   5.405295e+01  -1.600775e+01
  -5.366049e+01   1.587384e+01
  -6.376910e+01   9.325397e+00
   1.735348e+01  -5.002903e+00
   2.614935e+00   8.691828e+00
   4.165057e+01  -5.089211e+00
  -2.953609e+01  -6.201731e+00
  -9.893924e+01   3.516890e+01
