
 $NMID
 id='ANONYMOUS ', fmtdat='(2E16.6)'
 volume=1.0
 tramp=1.0
 $END
  -2.249814e+03  -2.675719e+02
  -1.418839e+03  -7.009656e+02
   2.945580e+02  -1.441417e+03
   5.679561e+02  -8.061763e+02
   8.063184e+02  -1.785611e+02
   2.402245e+01  -1.055086e+01
  -3.264671e+02  -2.397416e+01
  -6.936396e+01  -3.798999e+02
   3.530664e+02  -4.217213e+02
   4.571932e+02  -1.345400e+01
   2.778966e+02   3.099791e+02
   5.001009e+01   4.465125e+02
  -1.849646e+02   4.074625e+01
  -2.369111e+02  -2.169682e+02
   2.013548e+02  -4.405394e+02
   2.500642e+02  -3.317600e+01
   1.462322e+02   3.183625e+02
  -4.844167e+01   3.439804e+02
  -3.046964e+02   2.796620e+02
  -3.616254e+02  -1.468806e+02
  -1.570420e+02  -2.404297e+02
   8.552986e+01  -1.520219e+02
   1.191179e+01  -1.315492e+02
  -1.119952e+02  -1.095516e+02
  -1.776807e+02  -2.954984e+02
   6.797077e+01  -2.551222e+02
   3.487824e+02  -3.394694e+01
   4.014847e+02   2.312283e+02
   1.825766e+02   2.713306e+02
  -3.386147e+02   1.289699e+02
  -2.865310e+02  -1.644519e+02
  -1.207514e+02  -2.488635e+02
   1.850984e+02  -2.344635e+02
   3.255001e+02   5.210874e+01
   2.209887e+02   2.703788e+01
   6.937798e+01   2.108554e+02
  -1.679348e+01   1.287007e+02
   5.617589e+01  -9.312139e+01
   2.263546e+02  -1.056742e+02
   1.098896e+02   9.962927e+01
  -8.209963e+01   3.767615e+02
  -1.690286e+02   2.417115e+02
  -2.400362e+02  -8.751040e+00
  -7.832489e+01  -2.424392e+02
   6.226536e+01  -1.050814e+02
   6.509662e+01   1.561728e+02
  -7.854679e+01   1.730339e+02
  -3.334505e+02   7.597003e+01
  -3.094156e+02  -2.932008e+02
  -6.447292e+01  -3.425851e+02
   2.157708e+02  -1.570488e+02
   3.593293e+02   1.712568e+00
   2.014160e+02   1.837352e+02
  -8.340925e+01   1.373478e+02
  -1.699877e+02   5.777483e+01
  -9.942110e+01   4.183478e+01
  -6.329705e+01   2.472564e+01
   3.585198e+01   5.006995e+00
  -7.671274e+01  -1.802655e+01
  -1.085483e+02  -1.689042e+01
  -1.021561e+02  -1.359688e+02
   9.291995e+01  -1.805259e+02
   2.406135e+02  -1.151547e+02
   1.178756e+02   8.921202e+01
  -3.246839e+00   2.213872e+02
  -1.950560e+02   2.567977e+02
  -2.569837e+02   6.804660e+01
  -1.478192e+02  -9.083689e+01
  -4.666197e+01  -2.314270e+02
   5.960940e+01  -2.548713e+02
  -5.387202e+01  -1.428375e+02
   1.060633e+01  -1.096631e+02
   1.453862e+02  -1.092334e+02
   1.655829e+02  -6.121544e+01
   1.109915e+02   8.597458e+01
   6.663630e+01   1.329903e+02
  -7.911355e+00   1.336301e+02
  -8.256280e+01  -6.594043e+01
  -5.596720e+01  -1.692497e+02
   5.101910e+01  -2.026190e+02
   1.834700e+02   1.894622e+01
   2.345347e+02   1.254493e+02
   3.576305e+01   2.278228e+02
  -1.471474e+01   1.991570e+02
  -6.017296e+01   1.036920e+02
  -9.297988e+01   6.998928e+01
  -1.034400e+02   3.656569e+01
  -1.853968e+02   6.883779e+00
  -2.549205e+02  -1.252320e+02
  -1.719644e+02  -1.714851e+02
   1.337254e+01  -2.240071e+02
   2.373580e+02  -2.520085e+02
   3.493734e+02  -1.381887e+02
   1.865842e+02   2.861858e+01
   4.607242e+01   1.397332e+02
  -4.269512e+01   1.647394e+02
  -1.332798e+01   5.368228e+01
   1.096425e+02  -1.420071e+01
   9.631873e+01  -1.223053e+00
  -7.416695e-01   5.607261e+01
  -9.058770e+01   5.945586e+01
  -7.307816e+01  -4.733097e+01
   4.009640e+01  -7.545276e+01
   1.617398e+02   3.570666e+01
   5.602954e+01   1.542013e+02
  -5.447240e+01   1.984042e+02
  -1.939254e+02   7.777978e+01
  -2.723304e+02  -5.919575e+01
  -2.039443e+02  -2.210742e+02
   4.837987e+00  -1.795046e+02
   9.000493e+01  -9.233022e+01
   1.043984e+02   2.925390e+01
   2.623062e+01   1.056325e+01
  -3.075125e+01  -5.543653e+01
  -1.503130e+01  -8.957025e+01
   4.142109e+01  -1.296293e+01
   1.339223e+02   2.582946e+01
   7.341624e+01   3.710313e+01
  -7.223426e+01  -1.923317e+01
  -5.445470e+01  -8.227138e+01
   1.592822e+02  -7.398291e+01
   2.345127e+02  -1.907919e+01
   1.886545e+02   1.683298e+02
  -1.777930e+01   1.177940e+02
  -1.665241e+02   1.770815e+02
  -2.112139e+02   3.887381e+01
  -5.669746e+01  -2.132833e+01
   1.474081e+01  -2.212990e+01
   4.600441e+01  -3.498588e+01
  -5.692267e+01   9.549729e+01
  -1.321992e+02   5.169596e+01
  -1.787196e+02  -7.877210e+01
  -7.788502e+01  -1.215105e+02
   9.322598e+01  -3.927077e+01
   9.687791e+01  -3.343591e+01
   4.844090e+01   4.166417e+01
  -1.744132e+01  -5.314460e+01
  -2.725404e+01  -2.811853e+01
   5.762054e+01  -6.169999e+01
   1.719076e+02   5.365661e+01
   1.055296e+02   7.645068e+01
  -2.355897e+00   1.661605e+02
  -9.059102e+01   8.910680e+01
  -8.253601e+01   1.038499e+01
  -2.663757e+01  -5.344022e+01
   6.679072e+01  -5.281739e+01
   2.044301e+01  -4.724331e+00
  -1.556819e+01   2.249058e+01
  -1.070537e+01  -4.392220e+01
   3.176848e+01  -1.591744e+01
   7.639142e+01  -6.634962e+00
   1.103172e+02   7.222553e+01
   2.497965e+00   1.299806e+02
  -1.278760e+02   1.121158e+02
  -1.425324e+02   4.140052e+01
  -1.209103e+02  -9.931936e+01
  -5.261269e+01  -1.990172e+02
   8.338799e+01  -1.242408e+02
   7.429299e+01  -1.280024e+01
   7.197307e+01   1.984657e+01
   2.003169e+01  -2.382473e+00
   4.134653e+00   1.409556e+01
   9.071824e+01   3.655107e+01
   8.119401e+01   1.996412e+01
  -2.999459e+00   8.407242e+01
  -7.280123e+01   8.039109e+01
  -8.619083e+01  -2.133773e+01
   2.271627e+01  -1.174455e+02
   1.273903e+02  -7.726850e+01
   1.637205e+02   5.457610e+00
   6.245786e+01   1.739542e+02
  -9.968508e+01   1.870034e+02
  -1.313482e+02  -5.868979e+00
  -1.409150e+02  -6.346968e+01
  -4.641229e+01  -9.383806e+01
   1.954197e+01  -1.009914e+02
   4.566840e+01  -2.724153e+01
  -1.612230e+01  -3.234274e+01
   4.598931e+01  -9.275671e+01
   5.767677e+01  -5.913045e+01
   6.864443e+01   3.896802e+01
   7.376410e+01   8.709424e+01
  -2.280291e+01   1.741637e+02
  -6.004040e+01   1.203914e+02
  -1.431536e+02  -5.942566e+01
  -6.832817e+01  -8.862218e+01
   2.556165e+01  -1.096905e+02
   5.718716e+01  -4.720218e+01
   3.616079e+01  -4.453613e+01
  -4.332220e+01   5.689294e+01
  -1.590698e+01   4.021821e+00
   1.122744e+01   3.531141e+00
   5.861279e+00   9.056626e+00
   5.752476e+01   2.054074e+01
  -8.201064e+01   3.432720e+01
  -1.281364e+02  -5.117067e+01
  -1.392456e+02  -6.875847e+01
  -2.752923e+01  -7.488327e+01
   1.434179e+02  -2.770733e+01
   9.134409e+01  -3.549526e+01
   4.549075e+01   3.350482e+01
  -5.598571e+01   1.033223e+01
  -5.000751e+01  -1.467410e+01
  -1.244357e+01  -9.106639e+01
   5.514160e+01  -6.681583e+00
   4.670751e+01  -4.063896e+01
   5.005278e+01   1.275642e+01
   6.332975e+01   3.405502e+01
   1.496759e+01  -1.440242e+01
   3.778480e+01  -8.287590e-01
  -2.084874e+01   2.500979e+01
   9.996288e+00   1.193118e+02
  -1.058352e+02   1.346485e+02
  -1.649041e+02   1.546554e+01
  -8.087424e+01  -7.878829e+01
  -3.659194e+01  -7.640457e+01
   3.865937e+01  -2.678573e+01
   6.229505e+01   7.864186e+00
  -4.885987e+01  -2.881958e+00
  -1.121526e+02   9.797479e+00
  -2.019961e+01  -8.092394e+01
   6.873571e+01  -5.799326e+01
   1.353181e+02  -9.698421e+00
   1.198648e+02   5.093840e+01
   3.161032e+01   6.009214e+01
  -6.054985e+01   5.092941e+01
  -2.679577e+01  -2.207921e+01
   5.909601e+01  -5.631407e+00
   7.391004e+01   2.729418e+01
   4.522032e+01   8.453796e+01
  -8.465323e+01   9.187144e+01
  -1.129600e+02   1.272396e+01
  -6.082828e+01  -3.676023e+01
  -3.325610e+01  -1.364308e+02
   1.092734e+02  -1.236682e+02
   6.422769e+01   1.142834e+01
   8.028322e+00   7.669142e+01
  -1.421914e+01   7.197716e+01
  -3.042337e+01   8.178944e+00
  -3.546354e+01  -4.247233e+01
  -3.350748e+01  -4.376127e+00
   2.679159e+01  -1.024755e+01
  -7.320042e+00  -1.635202e+01
  -5.466508e+01  -7.099634e+01
  -2.718691e+00  -5.095869e+01
   5.633438e+01   1.218062e+01
   7.660387e+01   1.384589e+01
   1.121142e+02   6.703668e+01
  -3.535329e+01   9.852673e+00
  -7.274038e+01   3.728140e+01
  -4.348557e+01  -1.435299e+01
  -4.605146e+01  -2.429732e+01
   2.270090e+01  -6.561697e+01
  -2.707709e+01   1.534948e+01
   1.849257e+01   6.898463e+00
   1.761826e+01   6.756418e+00
   5.397078e+01  -8.367025e+00
   8.786892e+01  -3.084487e+01
  -3.414518e-01   5.303140e+01
  -7.888013e+01   4.822847e+01
  -1.273328e+02   5.930728e+01
  -1.105685e+02  -8.616325e+01
  -3.730639e+01  -1.248269e+02
   4.941251e+01  -1.385144e+02
   2.911418e+01  -8.403668e+01
   8.726965e+01   1.763158e+01
   3.168705e+01   1.109580e+01
   7.675614e+00   3.563493e+00
   4.300541e+01   1.235927e+01
   3.479293e+01   1.405038e+01
  -1.444425e+00   6.160565e+01
  -7.812776e+00   5.525189e+01
  -5.809126e+01  -1.567247e+01
  -3.858728e+01  -3.407544e+01
   1.040260e+01  -4.400778e+01
   6.978821e+01  -2.127996e+01
   4.213267e+01   8.184630e+01
   1.439497e+01   9.740295e+01
  -6.843700e+01   7.407106e+00
  -1.461523e+01  -3.656760e+01
   1.916587e+01  -4.581983e+01
   4.633496e+01  -4.444611e+01
   7.514803e+00  -7.011065e+00
  -2.310334e+01   4.123884e+01
  -7.456546e+01   2.031354e+01
   7.043545e+00  -1.799711e+01
   5.516493e+01  -5.987011e+01
   1.974364e+01  -3.829235e+01
   4.486370e+01   2.903576e+01
   1.372515e+01   8.671907e+01
  -2.895049e+01   1.017210e+02
  -4.682396e+01  -5.697110e+00
   1.954045e+01  -5.220100e+01
  -1.030199e+01  -4.786422e+01
  -2.885141e+01   5.046723e+01
   1.798751e+01   4.905718e+01
   4.861518e+01   1.821397e+01
  -3.286617e+01  -3.388635e+01
  -1.532635e+01  -4.733168e+01
  -1.745983e+01   2.318908e+01
  -3.078324e+01   2.409235e+01
   5.821094e+01   2.953836e+01
   7.051158e+00  -3.904267e+01
  -2.825893e+01  -5.617573e+01
   2.067807e+01  -3.863551e+01
   7.104130e+01   2.449834e+01
  -6.068616e+00   4.774100e+01
  -3.393884e+01   6.313893e+01
  -2.798459e+01  -1.189886e+01
   8.008808e+00  -5.378810e+01
   5.291760e+01  -4.870570e+01
   1.007960e+02   2.428054e+01
   7.479101e+01  -8.426183e+00
   4.197098e+00   5.750593e+01
  -7.235751e+01  -6.888953e+00
  -3.997897e+01  -3.607216e+00
   2.255123e+00   2.403564e+00
   5.821830e+01   1.721282e+01
  -3.001525e+01  -4.487696e+00
  -5.780557e+01   2.238555e+01
