
 $NMID
 id='ANONYMOUS ', fmtdat='(2E16.6)'
 volume=1.0
 tramp=1.0
 $END
   2.274231e+03  -4.784821e+00
   1.695932e+03   1.826889e+03
  -2.642673e+02   2.007876e+03
  -1.391000e+03   7.973649e+02
  -9.718997e+02  -1.659557e+02
   6.277519e+01  -3.093773e+02
   4.628103e+02   1.820009e+02
   8.737960e+00   5.955284e+02
  -4.620469e+02   4.470169e+02
  -6.679339e+02  -6.314093e+00
  -3.681872e+02  -6.167116e+02
  -2.870906e+01  -6.138390e+02
   4.188846e+02  -1.301688e+02
   2.668125e+02   4.126709e+02
  -1.370003e+02   4.534343e+02
  -4.272781e+02  -6.619392e+01
  -2.357736e+02  -4.427187e+02
   2.803872e+02  -4.531751e+02
   4.356561e+02  -1.853598e+02
   3.744667e+02   2.376549e+02
   9.801660e+01   2.783904e+02
  -9.033958e+01   2.311345e+02
  -1.200461e+02  -4.467793e+01
   8.224138e+01   4.331474e+01
   2.236191e+02   2.348674e+02
   2.487442e+01   2.613650e+02
  -4.009146e+02   1.190279e+02
  -4.890793e+02  -1.995235e+01
  -8.273829e+01  -3.947652e+02
   1.969434e+02  -2.380699e+02
   4.843968e+02   7.737461e+01
   1.747848e+02   3.375112e+02
  -1.698097e+02   3.478173e+02
  -3.210232e+02   8.849152e+01
  -2.894050e+02  -1.577575e+02
  -4.266722e+01  -3.015370e+02
   5.066648e+01  -1.737301e+02
   2.163901e+01   5.504408e+01
  -1.166321e+02   1.421018e+02
  -2.017242e+02  -1.135133e+02
   6.999267e+00  -4.177891e+02
   2.965825e+02  -4.079235e+02
   2.712363e+02   7.342769e+01
   5.125608e+01   2.689663e+02
  -1.739065e+02   1.532739e+02
  -1.215421e+02  -1.965503e+02
   4.850946e+01  -4.076817e+02
   3.611214e+02  -9.777465e+01
   3.600085e+02   2.787773e+02
   1.402180e+02   4.107285e+02
  -2.713067e+02   1.976177e+02
  -4.289047e+02  -1.348875e+02
  -2.664713e+02  -3.153695e+02
   9.767932e+01  -2.722861e+02
   2.962107e+02  -2.066598e+01
   1.759262e+02   8.954589e+01
  -3.415974e+01   8.404871e+01
  -7.235037e+00  -9.248583e+01
   1.243779e+02  -5.972812e+01
   2.415554e+02   2.771158e+01
   1.034892e+02   1.323521e+02
  -1.561751e+02   1.749760e+02
  -2.548336e+02   7.429293e+01
  -1.840075e+02  -5.435145e+01
   7.298934e+00  -2.256172e+02
   2.187437e+02  -2.720408e+02
   2.669258e+02  -1.180604e+02
   1.615006e+02   1.525671e+02
   9.532268e+01   2.997705e+02
  -1.237696e+02   3.007338e+02
  -4.342187e+01   1.215247e+02
  -5.137999e+01   5.857403e+00
  -7.480130e+01   7.657015e+01
  -1.463307e+02  -3.167361e+00
  -2.379067e+02  -7.027743e+01
  -6.298828e+01  -2.118407e+02
   6.121487e+01  -1.702060e+02
   1.717511e+02   5.102008e+01
   8.065932e+01   1.591493e+02
  -6.618125e+01   2.087214e+02
  -2.035056e+02   3.085988e+01
  -2.513135e+02  -1.019233e+02
  -1.223290e+02  -2.491904e+02
  -1.267277e+01  -2.365999e+02
   1.535693e+02  -1.021650e+02
   1.575344e+02  -4.982643e+01
   6.717944e+01  -5.904834e+00
   2.465865e+02   2.971580e+01
   3.262574e+02   5.128250e+01
   2.124023e+02   2.325527e+02
  -4.153152e+01   3.614339e+02
  -3.321590e+02   3.261155e+02
  -3.428309e+02   1.096443e+02
  -2.717673e+02  -1.024528e+02
  -1.774720e+01  -1.717240e+02
   9.625050e+01  -1.773583e+02
   5.548838e+01  -3.508804e+01
  -1.253017e+02  -8.743513e+00
  -1.231666e+02  -1.989419e+01
  -5.345436e+01  -1.359274e+02
   1.240460e+02  -6.541441e+01
   6.146240e+01   6.105525e+01
  -2.442678e+01   1.206130e+02
  -1.232760e+02  -5.365750e+00
  -1.549167e+02  -2.380338e+02
   1.083419e+02  -2.510675e+02
   2.432780e+02  -1.191675e+02
   2.937031e+02   1.358547e+02
   1.683332e+02   1.941689e+02
   5.031015e+01   2.175715e+02
  -1.112363e+02   1.060685e+02
  -1.043811e+02   3.454137e+01
   1.246465e+01  -2.502381e+01
   5.424703e+01   6.920188e+01
  -1.795218e+01   1.118475e+02
  -9.904522e+01   8.418826e+01
  -9.585987e+01  -6.272567e+01
   4.969508e+01  -5.201121e+01
   6.756353e+01   8.949482e+00
   3.315843e+00   3.751278e+01
  -1.614410e+02   9.737266e+01
  -2.178127e+02  -7.023641e+01
  -1.353966e+02  -1.846546e+02
  -3.824799e+01  -2.130253e+02
   1.969355e+02  -1.321627e+02
   2.298469e+02  -7.964558e+01
   9.095981e+01  -2.149794e+01
  -1.751217e+01   6.387854e+01
  -7.153042e+01  -4.435502e+01
   9.990038e+00  -6.411582e+01
   1.662099e+02   1.527673e+01
   1.648845e+02   5.529273e+01
   4.483574e+01   1.882146e+02
  -7.060210e+01   1.354044e+02
  -7.878294e+01  -1.403344e+01
  -5.207482e+01  -2.864313e+01
   1.812402e+01   2.234862e+01
   8.826672e+00   5.579798e+01
  -2.568455e+01   7.634814e+01
  -1.839769e+02   2.034715e+01
  -1.302878e+02  -1.333394e+02
   1.969065e+01  -2.204731e+02
   1.073600e+02  -1.389869e+02
   1.206512e+02   4.615795e+01
   1.627419e+01   4.730514e+01
  -5.389955e+01   1.333339e+02
  -4.305005e+01   8.822295e+00
  -2.966934e+01  -2.772884e+01
   2.489206e+01  -4.115461e+01
  -5.145363e+00   1.432069e+01
  -8.051699e+01  -5.910662e+01
  -5.608452e+01  -7.470849e+01
   9.834768e+00  -1.220469e+02
   1.038741e+02  -1.329736e+02
   1.962164e+02   6.215117e+01
   1.487815e+02   1.210780e+02
   9.454775e+00   1.487126e+02
  -7.728868e+01   1.341253e+02
  -1.289272e+02   4.189867e+01
  -7.205530e+01  -9.817920e+01
  -5.777375e+01  -1.436258e+01
  -5.272594e+01   6.002253e-01
  -5.383631e+01  -4.726619e+01
  -4.492495e+01  -6.146397e+01
   1.448375e+01  -5.642988e+01
   5.856030e+01  -6.758214e+01
   9.109770e+01   3.096778e+01
   5.827108e+00   8.304605e+01
  -1.324610e+02   7.512352e+01
  -1.809018e+02  -3.121926e+01
  -1.118594e+02  -2.451340e+02
   7.164528e+01  -1.594784e+02
   2.450967e+02  -7.164182e+01
   2.287404e+02   2.514782e+01
   1.223698e+02   1.535319e+02
  -3.823910e+01   1.351707e+02
  -9.715998e+01   6.164286e+01
  -5.270919e+01   2.709859e+01
  -1.041873e+02   1.655385e+01
  -7.360757e+01   9.196266e+01
  -8.876985e+01  -4.383786e+01
  -9.857466e+01  -1.504707e+02
  -3.078038e+01  -1.838705e+02
   4.099967e+01  -1.252633e+02
   1.594617e+02  -2.437344e+01
   1.042201e+02   8.741749e+01
   2.907462e+01   1.144113e+02
  -5.213018e+01   7.610912e+01
   1.147105e+01  -1.237227e+00
   5.119259e+01  -4.692889e+01
   2.515752e+01  -5.887459e+00
  -2.544815e+01  -1.520039e+01
  -6.401833e+01  -3.089918e+01
  -2.943595e+01  -4.306048e+00
   7.145310e+01  -4.604443e+01
   1.511637e+02  -1.630752e+01
   9.195255e+01   7.506789e+01
   2.238465e+01   4.975031e+01
  -1.093820e+02   5.680994e+01
  -9.678576e+01   1.659528e+01
  -2.709716e+01  -9.218973e+01
   2.042628e+01  -4.605146e+01
   9.699605e+01   1.389224e+01
   3.975761e+01   6.143351e+01
  -1.606093e+01   2.543911e+01
  -4.915265e+01  -1.525980e+01
  -2.648219e+01  -4.930818e+01
  -1.959211e+01  -3.526425e+01
  -4.940986e+01  -4.226034e+01
  -8.291033e+01  -2.326336e+01
  -1.874077e+01  -6.513978e+01
   5.151011e+00  -1.383400e+02
   1.581558e+02  -7.123846e+01
   1.141346e+02  -4.435109e+01
   6.787046e+01   1.134868e+02
   3.375580e+01   1.150220e+02
  -8.408134e+01   2.831945e+01
  -3.575590e+01  -1.830015e+01
   5.909240e+01  -1.352048e+01
   7.758654e+01   7.241195e+01
   3.145790e+01   7.809626e+01
  -1.061796e+02   6.706425e+01
  -1.153051e+02   1.612385e+01
  -1.206747e+02  -4.818515e+01
  -5.134507e+01  -7.810963e+01
   8.788628e+01  -6.001374e+01
   3.192922e+01  -1.059295e+01
  -4.658086e+01   1.474051e+01
  -9.534483e+01  -2.454318e+01
  -2.186849e+01  -1.071817e+02
   8.349124e+01  -1.377125e+02
   1.273935e+02  -3.938854e+01
   6.352506e+01   1.097397e+02
   2.692790e+00   2.145191e+02
  -1.962354e+01   7.965885e+01
  -6.734367e+01   1.952862e+01
  -3.300019e+01  -6.829379e+01
  -2.398601e+00  -8.095954e+01
   5.123919e+01   2.865214e+00
   2.443010e+01   3.542538e+01
   2.207644e+01   1.333513e+01
  -8.444912e+00   8.368003e+00
   2.395781e+01  -1.344720e+01
   3.333528e+01   7.129534e+01
   1.788600e+01   1.301896e+02
  -5.213400e+01   2.394993e+01
  -1.072160e+02  -3.403152e+01
  -1.558559e+02  -9.102747e+01
   1.527427e+01  -3.657166e+01
   7.598985e+01  -3.977577e+00
   8.390047e+01   8.138561e+00
   4.664462e+01   3.124430e+01
  -4.056537e+01   3.854135e+00
  -5.762862e+01   4.084786e+01
   4.482700e+01   8.509469e+00
   9.504355e+00  -8.403434e+00
  -4.791626e+01  -1.517663e+01
  -6.016158e+01   9.645627e+00
   1.815694e+01  -9.627088e+01
   9.975126e+01  -7.914726e+01
   1.957203e+02  -5.829453e+01
   1.002253e+02   5.894363e+01
  -5.017293e+00   1.378141e+02
  -1.031835e+02   8.147973e+01
  -1.268856e+02   4.822860e+01
  -6.128328e+01  -3.080333e+01
  -3.341955e+01  -1.983635e+01
   2.359639e+01  -3.256046e+01
  -3.059292e+00  -2.806375e+01
  -4.708892e+01  -4.981798e+01
  -2.330112e+01  -8.342179e+01
   1.863327e+01  -6.148842e+01
   5.779274e+01  -6.333090e-01
   6.876184e+01   1.123686e+02
  -2.021374e+01   9.804925e+01
  -2.900233e+01   4.342183e+01
  -8.264617e+01  -7.991240e+01
   1.623016e+01  -1.176446e+02
   5.152415e+01  -8.176875e+01
   8.999485e+01   7.328349e+00
   1.267943e+01   5.052132e+01
  -1.532281e+01   2.436729e+01
  -6.311819e+01   3.486071e+01
   5.118986e+01  -1.718116e+01
   5.719177e+01   1.304089e+00
   3.989274e+01   7.247782e+01
  -1.006429e+02   5.835585e+01
  -7.547793e+01   4.245336e+01
  -5.412747e+01  -3.891698e+01
  -3.078319e+01  -1.161279e+02
   5.073231e+01  -5.940179e+01
   3.440949e+01  -2.983636e+01
   2.408979e+01   4.182384e+01
  -2.532020e+01   6.900212e+01
  -4.388029e+01  -4.497015e+01
  -1.526425e+01  -7.137448e+01
   2.390783e+01  -7.331577e+01
   4.201239e+01   7.054151e+00
   4.636713e+01  -7.027400e+00
   7.725004e+00   7.080379e+00
   1.808898e+01  -2.915494e+00
   3.384309e+00   1.962838e+01
   3.084146e+01   1.510628e+01
   2.879444e+01   1.287883e+01
  -9.810113e+00  -8.622098e+00
  -2.235148e+01  -8.127647e+01
  -3.827390e+00  -1.937186e+00
   6.079692e+01  -2.600016e+01
   6.473745e+00   3.795932e+01
  -1.827273e+01   4.844040e+01
  -2.975498e+01   4.200193e+01
  -6.222947e+01  -3.806155e+01
  -4.583239e+01  -7.967363e+01
   5.524030e+01  -4.399925e+01
   5.534595e+01   2.211916e+01
   2.590554e+01   1.113181e+01
  -2.696704e+01   6.174771e+00
  -1.226555e+01  -2.286799e+01
   7.757827e+00  -2.539183e+01
   8.401705e+01  -1.703183e+01
