
 $NMID
 id='ANONYMOUS ', fmtdat='(2E16.6)'
 volume=1.0
 tramp=1.0
 $END
   1.270169e+03   8.926218e+02
   9.882672e+02   4.312863e+02
  -4.798279e+02   1.085156e+03
  -7.237538e+02   7.959244e+02
  -5.423521e+02   8.151579e+01
  -1.355818e+02  -5.997222e+01
   2.021613e+02   1.236483e+02
  -2.293279e+02   2.562518e+02
  -3.809787e+02   2.708635e+02
  -4.467675e+02   1.479129e+02
  -2.297189e+02  -2.654635e+02
  -3.098005e+01  -3.910159e+02
   1.789208e+02  -9.213469e+01
   6.005210e+01   2.007067e+02
  -2.097616e+02   2.766001e+02
  -2.224088e+02   2.414687e+01
  -1.624844e+02  -2.585296e+02
   7.886375e+01  -3.532897e+02
   2.153177e+02  -2.244050e+01
   2.651706e+02   5.703530e+01
   5.383181e+01   1.959063e+02
  -7.300836e+01   6.576384e+01
   2.264937e+01   8.019132e+00
   6.047725e+01   4.083795e+01
   7.840912e+01   2.034084e+02
  -8.648990e+01   2.730423e+02
  -3.511247e+02  -3.014894e+01
  -3.458878e+02  -7.511711e+01
  -9.295332e+01  -2.606281e+02
   2.792159e+02   2.003915e+01
   2.419037e+02   1.278993e+02
   1.225089e+02   2.481769e+02
  -2.510643e+02   9.667801e+01
  -2.150550e+02  -2.458574e+01
  -1.474804e+02  -1.013475e+02
  -1.740537e+01  -1.890394e+02
   2.128021e+01  -6.964485e+01
  -7.429678e+01   1.107577e+01
  -1.219765e+02   5.002076e+01
  -8.842580e+01  -6.452987e+01
   1.290405e+02  -3.237118e+02
   1.613460e+02  -1.081544e+02
   1.174653e+02   1.975813e+01
   5.191519e+01   1.106772e+02
  -5.796687e+01   9.023882e+01
  -1.312731e+02  -1.570225e+02
   7.619557e+01  -2.301174e+02
   2.190216e+02  -3.610149e-01
   2.126392e+02   3.017219e+02
   5.942720e+01   2.972428e+02
  -1.977911e+02   1.628316e+02
  -2.557757e+02  -1.058573e+01
  -1.579263e+02  -1.036929e+02
   2.159462e+01  -9.373502e+01
   1.765678e+02  -6.820081e+01
   1.213762e+02  -3.604255e+00
   2.748581e+01   1.550560e+01
  -1.753401e+01   1.695850e+01
   2.430297e+01  -2.999451e+01
   1.378800e+02   5.552565e+01
  -3.020814e+01   7.107318e+01
  -8.762224e+01   1.163029e+02
  -1.986601e+02   8.106299e+00
  -1.248461e+02  -2.779897e+01
   1.328522e+01  -2.133567e+02
   1.473159e+02  -1.705766e+02
   1.799545e+02  -5.917249e+01
   1.109503e+02   1.542514e+02
   2.017579e+01   2.375991e+02
  -3.439817e+01   2.371603e+02
   1.983441e-01   6.946042e+01
  -1.508282e+01   1.529737e+02
  -8.887368e+01   9.098631e+01
  -1.377926e+02   6.420949e+00
  -1.101695e+02  -5.712082e+01
  -3.651592e+01  -1.647843e+02
   4.279473e+01  -2.768734e+01
   1.025288e+02   4.866398e+01
   5.580048e+01   1.988192e+02
  -1.223052e+01   1.126306e+02
  -1.068916e+02  -7.453014e+00
  -1.749666e+02  -1.585907e+02
  -6.133806e+01  -1.921217e+02
   5.107961e+01  -1.223483e+02
   1.108501e+02  -6.546186e+01
   7.947670e+01  -4.642184e+01
   1.234471e+02  -2.671604e+01
   1.814271e+02   4.318291e+01
   2.639537e+02   7.971149e+01
   2.017230e+02   1.732530e+02
   9.898167e+00   2.688240e+02
  -2.414784e+02   1.245929e+02
  -2.834617e+02   7.292255e+01
  -1.431387e+02  -5.164078e+01
  -2.397793e+01  -1.261560e+02
   5.086593e+01  -1.132838e+02
   3.507169e+01  -3.000753e+00
  -1.115642e+02  -2.354134e+01
  -5.120320e+01  -2.933911e+01
  -3.133603e+01  -9.926808e+01
   7.292525e+01  -5.401555e+01
   6.754932e+01   4.495104e+01
  -3.382511e+01   5.089851e+01
  -1.146726e+02  -1.943023e+01
  -4.556928e+01  -1.518196e+02
   2.457093e+00  -1.765065e+02
   1.179068e+02  -9.550796e+01
   1.800126e+02   4.386344e+01
   1.307890e+02   2.279514e+02
   3.942995e+00   1.136982e+02
  -1.074230e+02   8.193240e+01
  -5.737924e+01  -1.372037e+01
  -4.141724e+01  -1.182011e+01
   2.356024e+00   5.461665e+01
   9.265605e+00   1.684519e+01
  -1.799189e+01   3.905321e+01
  -8.301537e+01  -4.072479e+01
  -2.659417e+01  -3.613670e+01
   4.592180e+01   2.235372e+00
   1.038170e+02   5.396546e+01
  -1.227324e+02   7.819676e+00
  -1.746338e+02  -4.571753e+01
  -1.218796e+02  -1.391320e+02
   3.213601e+01  -1.321477e+02
   1.788378e+02  -9.342182e+01
   1.517857e+02  -2.409132e+00
   5.750106e+01   3.155145e+01
   2.013885e+00   4.667739e+01
  -4.022958e+01   7.804061e+00
   1.673568e+01  -5.347095e+01
   1.122567e+02  -1.387655e+01
   1.321572e+02   8.200019e+01
   2.180341e+00   1.375297e+02
  -1.400400e+02   5.341834e+01
  -7.622449e+01  -5.171288e+01
  -4.085924e+01  -1.795562e+01
  -1.175575e+01  -2.229080e+01
   1.573082e+00   1.085364e+02
  -5.588772e+01   6.386796e+01
  -1.264489e+02  -1.019006e+01
  -6.892469e+01  -2.906706e+01
   2.561135e+01  -1.029014e+02
   1.206832e+02  -2.394898e+01
   8.376958e+01  -3.122396e+01
   1.134231e+01   7.801847e+01
  -1.185267e+01   2.280696e+01
  -4.973387e+01   1.037310e+01
  -1.855983e+01  -3.840798e+00
   1.678714e+01  -8.788906e+00
  -6.234666e+00   3.756229e+01
  -5.400263e+01   4.064398e+01
  -6.741421e+01  -3.421916e+01
  -4.810553e+01  -1.405106e+02
   1.121663e+02  -5.995884e+01
   1.794741e+02  -2.172667e+01
   1.206587e+02   6.622322e+01
  -2.811157e+01   1.682285e+02
  -8.242723e+01   6.562276e+01
  -5.261825e+01  -1.394998e+01
  -9.106684e+01  -8.099542e+00
  -1.233516e+01  -2.779340e+01
  -5.656006e+01  -5.822281e+00
  -6.675525e+01   7.831447e+00
  -7.545109e+01   6.409362e+00
   1.179109e+01  -9.970882e+01
   3.426371e+01  -4.059522e+01
   3.639712e+01   6.644909e+01
  -7.367102e+00   6.650602e+01
  -7.607568e+01   7.556128e+01
  -1.524201e+02  -8.615624e+01
  -5.298355e+01  -8.566693e+01
   8.518898e+01  -1.035445e+02
   9.603491e+01  -2.565674e+01
   9.825587e+01   6.781448e+01
   6.875428e+01   7.333322e+01
  -3.188324e+01   6.592894e+01
  -3.564750e+01   1.540237e+01
  -2.165676e+01   3.988368e+01
  -4.338705e+01   3.046007e+01
  -9.822247e+01   6.923268e+01
  -7.420148e+01  -6.727646e+01
  -7.560748e+01  -1.057718e+02
   2.904658e+01  -1.291789e+02
   7.157053e+01  -5.967615e+01
   8.561129e+01   3.073555e+01
   7.217922e+01   6.476417e+01
   9.372108e+00   7.684741e+01
  -6.032513e+01   3.402488e+01
  -6.876781e+00  -5.164707e+00
  -3.064985e+01  -1.188389e+01
   4.675311e+00  -1.966407e+01
   1.883477e+01   3.533206e+01
  -6.381637e+01  -1.397681e+00
  -4.259413e+01  -4.662480e+01
   2.544852e+01  -1.711281e+01
   1.356014e+02   1.317417e+01
   9.486130e+01   1.579512e+01
  -2.998042e+01   7.008625e+01
  -8.349759e+01   2.682535e+01
  -6.218166e+01  -1.550773e+01
   2.998990e+01  -1.708593e+01
   5.716692e+01   1.199348e+01
   6.643663e+01   4.147541e+01
   1.082313e+01   2.720490e+00
  -3.885706e+01  -2.504556e+00
  -3.807715e+01  -1.031366e+01
  -3.588323e+01  -2.120107e+01
  -2.909501e+01  -3.058356e+01
  -3.639639e+01   2.019556e+01
  -5.101786e+01  -2.771115e+01
   1.451835e+01  -2.220910e+01
   2.694784e+01  -9.809834e+01
   1.110032e+02  -8.408758e+01
   1.360693e+02   2.564872e+01
   8.578771e+01   6.984948e+01
   1.410902e+01   4.426532e+01
  -5.167912e+01   2.083354e+01
  -5.038195e+01   6.361888e+00
  -1.156822e+01   1.979380e+00
   3.829911e+01   7.410943e+01
   3.779819e+01   3.053766e+01
  -1.155935e+02   6.836743e+01
  -1.211524e+02   1.237414e+01
  -6.389921e+01  -3.195593e+01
  -3.888186e+01  -2.923021e+01
   7.626419e+01   6.869375e+00
   3.327313e+01   3.172795e+01
  -6.225230e+01  -2.257327e+01
  -3.827663e+01  -3.023443e+01
  -4.760057e+01  -7.712257e+01
   2.136546e+01  -5.020231e+01
   6.504813e+01  -6.546037e+01
   7.928680e+01   4.609859e+01
  -1.261131e+01   5.356786e+01
  -4.616091e+01   8.260293e+01
  -2.572382e+01  -3.615831e+01
  -1.775905e+01  -7.805172e+01
   3.013859e+01  -3.745298e+01
   5.036526e+01   1.588872e+01
   3.472163e+01   5.755845e+01
  -6.454250e+01   1.879348e+01
  -7.405250e+00   1.478088e+00
   8.571606e+00  -2.349285e+01
   1.478743e+01   8.539138e+01
   2.124081e+01   7.465050e+01
  -6.764550e+01  -1.116716e+01
  -1.035149e+02  -7.437016e+01
  -4.781864e+01  -1.687500e+01
  -3.025798e+01  -3.311736e+01
   5.845435e+01  -3.586895e+01
   3.838133e+01  -8.930884e+00
   1.110174e+01  -8.512404e+00
  -3.567514e+01   2.379309e+01
   3.222999e+01   7.510560e+00
  -1.853765e+01  -1.405878e+01
  -5.887838e+00  -4.060480e+01
  -5.152935e+01   5.230386e+00
  -2.388224e+01  -5.969133e+01
   1.540325e-02  -1.328859e+01
   8.739749e+00  -1.035709e+02
   1.099997e+02  -6.702461e-01
   3.027532e+01   1.277641e+01
   3.414101e+01   3.077890e+01
  -4.547895e+01   1.380415e+02
  -3.392163e+01   2.390401e+01
  -6.387814e+01  -5.350057e+01
  -4.275945e+01  -2.953545e+01
   4.923495e+00   2.051812e+01
  -4.583760e-01  -3.183403e+01
  -1.584282e+01  -1.717177e+01
  -1.281552e+01  -5.061991e+01
   2.822314e+01  -7.636096e+01
   5.200497e+01   1.670603e+01
   3.900358e+01   2.182157e+01
  -2.566144e+00   1.147385e+02
  -7.140788e+01   6.056401e+00
  -3.940043e+01  -1.319982e+01
   2.311810e+01  -1.087569e+02
   3.667057e+01  -3.191900e+01
   2.893037e+01   1.906308e+01
   2.816275e+01   5.023561e+01
  -5.186156e+01   4.321033e+01
   2.571436e+01   2.832111e+01
   3.260010e+01   2.305207e+01
   2.216585e+01  -1.460686e+01
  -2.344472e+00   1.543384e+01
  -5.248966e+01   1.838054e+01
  -6.887024e+01   1.494549e+01
  -1.899270e+01  -3.716959e+01
  -3.003035e+01  -8.172399e+01
   2.516493e+01  -6.922308e+00
   4.477098e+01  -3.901627e+01
   3.324579e+01   1.454030e+01
   2.451810e+01   3.382960e+01
   5.722851e+00  -1.442302e+01
   1.858044e+01  -5.956352e+01
  -1.341980e+01   1.338428e+01
   3.861365e+01  -3.648796e+00
  -4.578074e+01   3.733886e+01
   1.099405e+01  -6.322273e+01
  -4.132438e+00  -3.070655e+01
   7.251254e+00   8.631390e+00
   7.014408e+00  -4.400327e-01
   2.597379e+00   7.330208e+01
  -1.848829e+01   4.054452e+01
  -2.187845e+01  -6.840924e+01
  -1.632522e+01  -1.473072e+01
  -4.532975e+00  -6.144553e+00
  -5.692112e+00   3.976956e+01
   1.351452e+01   3.088955e+01
  -2.097686e+01   1.284190e+01
  -6.261327e+01  -1.834320e+01
  -3.829292e+01   2.172459e+01
   1.436703e+01  -1.575290e+01
   4.666185e+01  -9.183001e+00
  -1.063732e+01  -3.260562e+01
  -1.984015e+01   8.658210e+00
  -4.182494e+01  -2.335879e+01
   6.549921e-01   6.547724e+01
   3.614920e+01  -2.493489e+01
