
 $NMID
 id='ANONYMOUS ', fmtdat='(2E16.6)'
 volume=1.0
 tramp=1.0
 $END
  -1.573480e+03  -6.094426e+02
  -8.056755e+02  -1.047088e+03
   1.822057e+02  -6.321787e+02
   7.973214e+02  -7.990703e+02
   2.826373e+02  -1.242415e+02
   7.100690e+01   3.763963e+00
  -9.303567e+01  -1.094357e+02
   8.684306e+01  -2.224527e+02
   2.088108e+02  -9.134660e+01
   3.180211e+02  -4.020665e+01
   1.973562e+02   2.939295e+02
   7.053386e+01   3.672150e+02
  -5.680269e+01  -4.575756e+01
   6.299331e+00  -1.852993e+02
   2.378146e+02  -2.269392e+02
   1.926527e+02   6.002032e+01
   6.830986e+01   2.655920e+02
  -1.069371e+02   1.958162e+02
  -3.282154e+02  -6.841303e+01
  -2.082038e+02  -7.622853e+01
  -3.225115e+01  -1.882851e+02
   9.010811e+01  -1.081588e+02
   2.787374e+01  -8.232969e+00
  -1.122934e+02  -9.106549e+01
  -1.386166e+02  -2.210914e+02
   1.460142e+02  -1.929032e+02
   3.560590e+02   1.349743e+01
   3.471675e+02   1.462209e+02
  -6.658970e+01   2.358681e+02
  -2.938490e+02  -1.157238e+01
  -2.498183e+02  -1.509169e+02
   2.469905e+01  -2.785170e+02
   2.427389e+02  -1.226518e+02
   2.977877e+02  -2.163853e+01
   1.407918e+02   1.450705e+02
   3.370546e+01   1.711926e+02
   3.454203e+00  -2.689220e+00
   1.237905e+02  -2.970925e+01
   1.462451e+02  -2.972581e+01
   1.314889e+02   9.729103e+01
  -2.613082e+02   2.344659e+02
  -1.366460e+02   2.812857e+02
  -1.518365e+02  -1.951684e+02
   5.499103e+01  -1.169934e+02
   4.395006e+01  -7.525864e+01
   5.999958e+01   2.049040e+02
  -2.658207e+01   1.811477e+02
  -2.830045e+02  -7.848036e+01
  -1.447732e+02  -3.355287e+02
  -6.234663e+01  -3.084456e+02
   2.020993e+02  -1.035112e+02
   2.120619e+02   7.593915e+01
   2.214847e+02   1.792191e+02
  -1.050485e+02   1.029962e+02
  -1.134781e+02   3.630567e+01
  -8.953037e+01  -7.442721e+01
  -1.931955e+01   2.954057e+00
   1.819430e+01   6.125055e+00
  -5.303145e+01   1.178128e+01
  -9.743033e+01  -1.188940e+02
  -1.820388e+01  -1.004045e+02
   1.362052e+02  -7.300094e+01
   2.099615e+02   5.852921e+01
   1.806565e+02   2.444240e+01
  -5.148486e+01   1.475476e+02
  -2.112762e+02   2.047616e+02
  -1.978499e+02   1.662558e+01
  -5.631487e+01  -4.985214e+01
   2.499247e+01  -2.156105e+02
   4.850307e+01  -1.486578e+02
   6.131768e+01  -9.025765e+01
   5.010844e+00  -1.066742e+01
   1.089692e+02  -6.045513e+01
   1.904059e+02   1.728853e+00
   1.357334e+02   1.338043e+02
  -6.258110e+00   1.536839e+02
  -6.120022e+01   1.020483e+02
  -7.814823e+01  -4.347068e+01
  -2.171710e+01  -1.791374e+02
   3.352296e+01  -1.209069e+02
   1.198568e+02   5.929747e+01
   1.623525e+02   1.247340e+02
   6.867917e+01   1.777182e+02
  -6.821411e+01   1.121879e+02
  -9.015419e+01   8.000606e+01
  -1.024354e+02   2.755840e+01
  -1.002296e+02   3.638806e+01
  -1.260591e+02  -4.186673e+01
  -2.309065e+02  -1.743210e+01
  -1.313214e+02  -2.376225e+02
   2.235256e+01  -2.430352e+02
   2.360013e+02  -1.470919e+02
   2.937357e+02  -9.390344e+01
   1.372965e+02   7.807615e+01
  -1.916552e+01   1.641637e+02
  -1.983921e+01   8.502041e+01
  -1.047025e+01  -3.551011e+00
   1.380836e+02   3.062645e+01
   2.947230e+01   5.949587e+01
   1.458173e+01   6.517512e+01
  -9.745587e+01  -2.772418e+00
  -1.318660e+01  -4.113807e+01
   3.091263e+01  -4.498483e+01
   9.479361e+01   4.940472e+01
   8.030308e+01   1.858346e+02
  -3.122529e+01   2.243311e+02
  -1.072932e+02   5.869130e+01
  -1.817365e+02  -7.933289e+01
  -9.521999e+01  -1.645593e+02
   9.237432e+00  -1.639173e+02
   1.162001e+02  -7.356009e+01
   1.114876e+02  -2.275265e+01
   5.421271e+00   2.671807e+00
  -2.768346e+00  -3.125352e+01
   4.824275e+01  -3.877068e+01
   7.714699e+01  -5.712395e-01
   4.507345e+01   4.340927e+01
  -4.914751e+01  -3.714735e+00
  -5.418011e+01  -4.938249e+01
   1.953819e+01  -1.933887e+01
   1.245684e+02  -1.594969e+01
   2.151866e+02   2.472490e+01
   1.342800e+02   8.828233e+01
   6.585180e+00   1.657212e+02
  -1.272231e+02   6.831691e+01
  -1.407530e+02  -3.144561e+00
  -6.623127e+01  -6.976654e+01
   2.361879e+01  -2.983561e+01
   4.359977e+01   2.539746e+01
  -8.694356e+01   4.098828e+01
  -1.191841e+02  -7.304400e+01
  -9.431802e+01  -9.097934e+01
   3.002292e+00  -1.122614e+02
   1.093047e+02  -3.744305e+01
   5.235140e+01   5.688890e+00
   2.145119e+01   3.575259e+01
  -3.394336e+01  -1.416211e+01
  -6.737503e+00  -5.338696e+01
   2.828207e+01  -3.365773e+01
   1.153847e+02   5.371687e+01
   1.059792e+02   3.164067e+01
  -4.584632e+01   1.112029e+02
  -1.482601e+02   2.328342e+01
  -8.530417e+01  -3.288028e+01
   1.026647e+01  -6.114771e+01
   3.319983e+01  -4.973144e+01
   2.258464e+01  -4.416858e+01
  -3.460925e+01   3.389773e+00
   1.781212e+01   3.280383e+01
  -9.649395e+00  -4.592010e+01
   3.971522e+01   4.293036e+01
   6.511608e+01   4.663582e+01
   3.763788e+01   1.090096e+02
  -7.297069e+01   3.780191e+01
  -1.436195e+02  -2.863802e+01
  -7.423830e+01  -1.288136e+02
   3.335355e+01  -1.261829e+02
   6.882837e+01  -4.974803e+01
   5.796298e+01  -1.383484e+01
   3.549588e+01   2.617207e+01
   2.067419e+01   3.763631e+00
   1.812626e+01  -4.361778e+01
   2.151192e+01   2.887122e+01
   2.317361e+01   6.368934e+01
  -4.719170e+01   6.102047e+01
  -5.849464e+01   7.684997e+01
  -3.648206e+01  -4.385799e+01
   3.991251e+00  -6.369135e+01
   7.450837e+01  -3.373701e+01
   1.421316e+02   7.695822e+01
  -6.470606e+00   7.951354e+01
  -1.027089e+02   6.103502e+01
  -1.081247e+02   2.529402e+01
  -1.215987e+02  -5.590846e+01
  -6.208277e+01  -7.629932e+01
   6.358255e+01  -9.427492e+01
   3.335118e+01   1.153148e+01
   7.262015e+01   2.876961e+00
   5.531249e+01  -4.936546e+01
   7.124968e+01  -4.918088e+01
   7.668751e+01   6.767389e+01
   6.396176e+01   7.680040e+01
  -4.140789e+01   1.884950e+02
  -3.478454e+01   1.623619e+01
  -1.441234e+02  -3.758811e+01
  -5.314007e+01  -1.028433e+02
   3.375191e+01  -7.744440e+01
   5.559513e+01  -2.298035e+01
   5.383734e+01  -1.136476e+01
  -2.079305e+01   2.746494e+01
  -1.769715e+01  -3.966784e+01
  -8.033521e+00   5.397699e+01
   5.226635e+01   1.869648e+01
   2.687101e+01   7.390666e+01
  -3.052637e+01   2.133635e+01
  -1.061435e+02  -6.840808e+01
  -6.377317e+01  -9.777439e+01
   3.419610e+01  -5.541257e+01
   9.520096e+01   1.535546e-01
   6.941001e+01  -2.954633e-01
   4.360004e+01   2.732040e+01
  -5.023022e+01   3.101004e+01
  -4.695990e+01  -8.030285e+00
  -1.282930e+01  -3.854463e+01
   5.546704e+00  -1.833494e+01
   4.514105e+01   3.415330e+01
   2.176705e+00   3.642153e+00
   2.149382e+01   2.698186e+01
  -1.169068e+01  -2.116047e+01
   6.343799e+01   4.555141e+01
   1.579568e+01   2.259334e+01
  -7.808529e+01   1.071841e+02
  -9.610463e+01   3.282100e+01
  -9.024888e+01  -4.433674e+01
  -5.174907e+01  -6.391916e+01
   3.449036e+01  -6.306558e+01
   2.029578e+01  -2.715281e+01
   3.727157e+01   2.464576e+01
  -8.989557e+00   1.043734e+01
  -1.206909e+02  -2.693041e+01
  -2.702535e+00  -7.755260e+01
   6.850041e+01  -2.507431e+00
   1.034588e+02  -2.443629e+01
   1.119214e+02   7.968003e+01
   2.753838e+01   2.280005e+01
  -8.668456e+01  -2.033623e+01
  -2.886370e+01  -3.478840e+01
   5.880496e+01  -1.333636e+00
   6.850034e+01   9.604529e+00
   2.542931e+01   2.870184e+01
  -3.648125e+01   1.470912e+01
  -8.128071e+01  -3.344240e+01
  -8.639792e+01  -8.959446e+01
   3.833100e+01  -1.190013e+02
   5.066557e+01  -4.854063e+01
   6.101705e+01   1.404450e+01
  -2.945569e+01   4.834020e+01
  -5.293373e+01   6.395180e+01
  -1.407510e+00   4.289537e-01
  -1.575386e+01  -6.314934e+01
  -2.933844e+00   1.115058e+01
  -1.688588e+01   2.625132e+00
  -1.244230e+01   2.923090e+01
  -9.777625e+00  -2.103694e+01
   9.676139e+00  -7.712548e+01
   4.089083e+01  -3.759906e+01
   4.718667e+01   6.040459e+01
   5.369073e+01   7.043334e+01
   2.243765e+01   5.464399e+01
  -2.620787e+01   8.416831e-01
  -1.584028e+01   1.393951e+01
  -1.290284e+01  -2.439672e+01
   6.625181e+01  -3.023634e+00
  -5.861999e+00   5.933629e+00
   5.049927e+01  -3.382381e+00
   5.081475e+01  -9.099043e+00
   4.221629e+00   1.587192e+00
   4.920065e+01   4.248531e+01
   7.141933e+00   2.433040e+01
  -4.830967e+01   4.687141e+01
  -9.105796e+01   3.071038e+01
  -8.072669e+01  -5.980554e+01
   1.730305e+01  -8.189911e+01
   5.415394e+01  -8.366283e+01
   5.013746e+01  -4.311928e+01
   5.390058e+01   3.008895e+01
   3.511748e+01   8.268978e+01
  -5.058007e+01  -3.392398e+01
   5.463425e+00   2.008238e+01
   1.700042e+01   9.619495e+00
   8.074599e+00   8.034907e+01
  -2.133583e+01   3.729069e+01
  -5.531282e+01  -1.358301e+01
   1.681079e+01  -5.776978e+01
   4.834978e+01  -8.776958e+01
   5.439673e+01  -2.211424e+01
   8.854916e+01   5.160385e+01
  -7.006722e+00   8.733212e+01
  -5.288603e+01   5.318298e+01
   1.596805e+00  -1.081196e+00
  -2.739784e+01  -5.909528e+01
   2.751734e+01  -5.339112e+01
   2.585244e+01  -4.062267e-01
  -8.446942e+00  -5.125232e+01
  -3.313740e+01   7.036047e+00
   1.793726e+01   6.340334e+00
   2.856435e+01  -4.950488e+01
   8.559955e+01  -3.532772e+01
   2.027835e+01   6.235518e+00
  -7.568977e+00   9.673230e+00
  -4.576454e+01   3.931456e+01
  -3.552365e+01  -3.730328e+00
  -2.814012e+01   1.212243e+00
   1.707677e+01   9.136373e+00
   2.365886e+01   1.142225e+01
  -5.588279e+00   1.250523e+01
   1.435520e+01   9.431893e+00
   1.946232e+01  -5.162586e+01
  -2.700225e+01  -1.150777e+01
  -2.032398e+01  -4.073220e+00
  -1.822595e+01  -8.225871e+00
  -7.590113e+00   4.873358e+00
   1.992166e+01  -2.721828e+01
  -1.937785e+01  -7.372715e+00
   2.807627e+01  -1.103725e+01
   9.090520e+00   1.109842e+00
  -2.076502e+01   2.029812e+01
  -2.164253e+01   1.685638e+01
  -9.331394e+00  -5.343170e+01
  -4.816664e+00  -4.831105e+01
   2.947135e+01  -1.280899e+01
   3.633749e+01   9.377940e-01
   3.424235e+01   4.946519e+01
  -2.962013e+01   4.361170e+01
  -2.620468e+01   1.368281e+01
   8.783690e+00   8.918751e+00
   1.758967e+01  -1.751193e+01
   1.710481e+01  -8.662332e+00
   1.373551e+01   1.515385e+00
  -3.588158e+01  -3.338606e+01
