
 $NMID
 id='ANONYMOUS ', fmtdat='(2E16.6)'
 volume=1.0
 tramp=1.0
 $END
   1.726238e+03   2.536885e+02
   1.571784e+03   1.239281e+03
  -2.124993e+02   1.315586e+03
  -6.274802e+02   9.240929e+02
  -5.525238e+02   1.909420e+02
  -1.906154e+02  -3.162670e+01
   1.253473e+02  -1.372684e+01
  -2.466815e+01   2.237341e+02
  -7.396749e+01   3.228773e+02
  -2.908125e+02   1.610886e+02
  -2.354928e+02  -3.418415e+02
  -4.414700e+01  -3.293803e+02
   1.955397e+02  -7.152792e+01
   2.117026e+02   2.466670e+02
  -9.859414e+01   2.766423e+02
  -2.192960e+02   3.657621e+01
  -1.335071e+02  -4.166641e+02
   7.966693e+01  -4.315402e+02
   2.685462e+02  -1.768632e+02
   2.885215e+02   8.658470e+01
   6.256468e+01   2.312237e+02
  -7.899649e+01   2.068275e+02
  -6.962265e+01   1.181750e+02
   1.487820e+02   1.401843e+02
   1.019661e+02   2.307569e+02
  -5.179916e+01   2.082844e+02
  -4.073021e+02  -1.189171e+01
  -4.264539e+02  -2.033915e+02
  -2.519374e+01  -1.040011e+02
   1.772115e+02  -9.681876e+00
   3.389762e+02   1.702543e+02
   1.240922e+01   1.863455e+02
  -1.336964e+02   1.455744e+02
  -2.707062e+02   4.208808e+01
  -2.104099e+02  -1.041457e+02
  -7.300493e+01  -1.698979e+02
   2.892833e+01  -9.177144e+01
  -1.258649e+02   5.937732e+01
  -1.161938e+02  -5.651829e+00
  -3.805299e+01  -1.378886e+02
   7.850023e+01  -2.996337e+02
   1.832758e+02  -2.126905e+02
   1.392505e+02  -7.446859e+01
   5.372978e+01   1.686273e+02
  -6.192822e+01  -8.881191e+00
  -1.065166e+02  -1.822729e+02
   4.872495e+01  -3.144624e+02
   2.372058e+02  -6.938566e+01
   2.352354e+02   2.899350e+02
   6.509121e+01   4.326809e+02
  -1.982460e+02   1.367322e+02
  -3.084199e+02  -7.578847e+01
  -2.452531e+02  -1.499246e+02
   1.925485e+01  -1.183045e+02
   2.307357e+02  -6.209944e+01
   9.707191e+01  -3.294981e+01
   1.246934e+01  -4.392529e+01
   1.083913e+01   2.304381e+01
   7.086323e+01   6.254132e+01
   1.367333e+02   2.908696e+01
   8.277626e+01   1.037222e+02
  -9.730394e+01   1.319807e+02
  -2.336840e+02   1.155309e+02
  -2.223991e+02  -6.750284e+01
   4.607336e+01  -1.929391e+02
   2.104667e+02  -2.548342e+02
   2.279803e+02  -7.539210e+01
   1.598154e+02   1.630795e+02
  -2.442757e+01   2.471343e+02
  -5.579141e+00   2.632968e+02
  -4.484582e+01   8.168353e+01
  -1.308373e+01   1.018425e+02
  -1.293140e+02   1.024551e+02
  -1.499804e+02  -4.519740e+01
  -1.703709e+02  -1.470830e+02
  -3.768918e+01  -1.308405e+02
   7.529365e+01  -1.332008e+02
   1.051377e+02   5.883157e+01
   6.509946e+01   2.273409e+02
  -7.022761e+01   1.205880e+02
  -1.917929e+02  -1.391341e+01
  -1.596192e+02  -1.161635e+02
  -4.978311e+01  -2.258674e+02
   2.835453e+01  -1.588366e+02
   1.179356e+02  -1.251001e+02
   1.483456e+02  -4.593290e+01
   1.511044e+02  -3.231847e+01
   2.474313e+02  -6.175439e+00
   3.296813e+02   7.351665e+01
   1.707539e+02   2.632490e+02
  -7.869034e+01   2.730795e+02
  -2.323010e+02   2.860982e+02
  -3.005252e+02   1.516175e+02
  -1.529571e+02  -2.014170e+01
   3.534528e+01  -1.840218e+02
   3.763442e+01  -1.417289e+02
   2.106356e+00  -3.013787e+01
  -4.291014e+01  -4.247004e+01
  -9.170699e+01  -2.018533e+01
   9.222571e+00  -1.272409e+02
   5.825397e+01  -4.373214e+01
   6.711224e+01   3.885259e+01
  -5.213109e+01   6.732927e+01
  -1.156300e+02  -6.293596e+01
  -1.098961e+02  -1.507073e+02
   4.821326e+01  -2.102305e+02
   1.646551e+02  -1.369712e+02
   2.315253e+02   2.787205e+01
   9.291545e+01   1.453721e+02
   2.776406e+01   2.067017e+02
  -5.162635e+01   8.396700e+01
  -1.057094e+02  -9.588930e+00
  -5.883788e+01   1.192517e+01
   5.597283e+01   8.488899e+01
  -2.410256e+01   1.160747e+02
  -1.031820e+02   3.243128e+01
  -8.668524e+01  -4.823035e+01
   1.874567e+01  -1.482595e+01
   6.851974e+01   4.276596e+00
   3.557149e+01   6.764298e+01
  -1.132703e+02   4.680708e+01
  -1.962811e+02  -4.665488e+01
  -1.623763e+02  -1.200015e+02
  -8.207148e+00  -2.140911e+02
   1.247076e+02  -1.477547e+02
   1.736164e+02  -4.029837e+01
   1.054293e+02   5.944127e+01
  -1.644355e+01   5.819553e+01
  -2.102459e+01  -1.306162e+00
   4.337363e+01  -6.512439e+00
   1.194911e+02  -4.491481e+01
   1.017143e+02   1.291405e+01
   2.707828e+01   1.193395e+02
  -5.069442e+01   7.418143e+01
  -6.294437e+01   1.110475e+01
  -1.108721e+00  -4.697390e+01
   4.058033e+01   8.313955e+00
   9.235383e+00   7.880786e+01
  -8.493700e+01   8.188762e+01
  -1.600349e+02  -4.244769e+00
  -1.310722e+02  -9.320912e+01
  -4.253686e+01  -9.505859e+01
   1.102234e+02  -7.860084e+01
   1.193402e+02   4.688026e+01
   5.165964e+01   6.566223e+01
  -2.771676e+01   9.314592e+01
  -5.254621e+01   3.565443e+01
   2.671565e+01  -7.855382e+00
   2.675208e+01   3.335453e+01
  -1.217354e+01   2.234179e+01
  -6.760782e+01  -4.035529e+01
  -5.752415e+01  -9.403088e+01
  -2.155020e+01  -1.160109e+02
   9.016984e+01  -7.317043e+01
   1.855874e+02   5.108014e+01
   1.399215e+02   1.284247e+02
  -1.981937e+01   7.197935e+01
  -8.232796e+01   1.340406e+02
  -9.174959e+01  -1.745556e+01
  -5.806149e+01  -2.653716e+01
  -3.063446e+01  -2.983255e+01
  -4.133516e+01   4.779666e+01
  -6.748249e+01   3.464471e+01
  -1.686754e+01  -7.468889e+01
   3.476034e+01  -7.159424e+01
   9.818549e+01  -9.241607e+01
   8.616219e+01   6.994496e+00
  -3.426547e+01   6.645513e+01
  -9.910126e+01   7.318303e+01
  -1.593747e+02  -8.575310e+01
  -2.907276e+01  -1.781876e+02
   1.138268e+02  -1.261966e+02
   2.063524e+02  -9.491771e+01
   1.356888e+02   2.216351e+01
   1.165011e+02   1.354719e+02
  -2.097138e+01   7.803591e+01
  -1.863107e+01   2.784424e+01
  -3.841559e+01   2.608578e+01
  -3.246075e+01   1.028221e+02
  -8.392482e+01   3.924375e+01
  -8.811515e+01  -4.579178e+01
  -4.533988e+01  -1.230576e+02
  -3.188876e+01  -1.160121e+02
   3.655417e+01  -1.129147e+02
   8.599308e+01   1.147067e+01
   7.649141e+01   7.178994e+01
   3.773268e-01   1.110653e+02
  -3.809081e+01   2.702076e+01
  -5.848951e+01  -2.635092e+01
  -1.981460e+01  -3.708419e+01
   6.671205e+00  -2.045367e+01
  -7.539326e+00   2.205227e+01
  -4.925284e+01  -3.158002e+01
  -3.262888e+01  -2.107725e+01
   2.198044e+01  -4.919621e+01
   1.078018e+02  -6.974933e+01
   6.793208e+01   4.892321e+01
  -2.508608e+01   4.954901e+01
  -1.185317e+02   3.821533e+01
  -9.843970e+01  -3.695880e+01
  -2.029278e+01  -3.353326e+01
   4.930551e+01  -3.833820e+01
   1.205398e+01   2.161238e+01
   4.530745e+01   1.822777e+01
  -5.673302e+01   5.243244e+01
  -3.918733e+01  -1.999895e+01
  -3.916731e+01  -1.985472e+01
  -6.803666e+01   3.239547e+00
  -7.672932e+01  -2.461427e+01
  -2.416935e+01   1.941607e-01
  -4.185820e+01  -4.168775e+01
   4.208041e+01  -7.015474e+01
   6.134286e+01  -7.941333e+01
   1.613141e+02  -1.338950e+01
   9.085953e+01   1.108142e+02
  -5.611337e+01   9.104979e+01
  -4.921266e+01   7.421941e+01
  -1.372863e+01  -1.109296e+00
   3.819742e+01  -6.121730e+01
   7.886725e+01   3.255628e+01
  -1.426245e+00   7.390198e+01
  -6.403405e+01   3.423639e+01
  -1.255113e+02   2.471650e+01
  -1.363521e+02  -3.956126e+01
  -5.432878e+01  -7.853075e+01
   6.388853e+01  -1.670242e+01
   1.742303e+01  -3.460757e+00
  -5.202866e+01   2.343889e+01
  -6.534319e+01  -1.821968e+01
  -4.477627e+01  -7.585961e+01
   4.778509e+01  -1.112259e+02
   1.175637e+02  -2.522379e+01
   1.146909e+02   6.387373e+01
   4.945970e+01   1.382443e+02
  -6.946792e+01   6.484977e+01
  -3.354103e+01  -1.597906e+01
  -2.987461e+01  -7.244141e+01
  -2.897561e+01  -7.373714e+01
   3.294673e+01   4.962836e+00
   5.190030e+01   2.090749e+01
   3.562554e+01   6.746604e+00
   1.959948e+01   4.056925e+01
   4.092061e+01   1.190992e+01
   5.997679e+01   5.685121e+01
   6.848085e+00   8.777404e+01
  -2.362243e+01   9.818818e+00
  -7.990279e+01  -2.851429e+00
  -9.139919e+01  -3.464508e+01
  -5.503288e+00  -3.988014e+01
   2.915855e+01  -2.299777e+00
   4.921027e+01   1.467676e+01
   5.596118e+01  -1.225084e+01
  -5.572109e+01  -1.896877e+01
  -1.250408e+01   9.450883e+00
  -3.329022e+00  -4.848738e+01
  -5.343460e+01   1.089007e+01
  -6.285082e+01   3.694408e+01
  -9.001786e+01   9.020638e+00
   1.243892e+00  -5.538852e+01
   6.661742e+01  -7.300934e+01
   1.425895e+02  -3.825456e+01
   1.064590e+02   6.619185e+01
   4.890933e+01   1.463445e+02
  -3.061251e+01   8.367553e+01
  -6.366554e+01   2.865907e+01
  -4.652440e+01  -8.914286e+00
  -4.492896e+01  -5.167193e+01
  -8.299527e+00   2.439837e+01
  -3.278868e+01  -4.195398e+01
   8.204553e+00  -3.836179e+01
  -1.877489e+01  -9.774537e+01
   6.941596e+01  -3.445775e+01
   1.925669e+01  -7.990554e+00
   8.318560e+01   3.054795e+01
  -2.830680e+01   7.211636e+01
  -5.065467e+01   5.892385e+01
  -4.971819e+01  -7.351654e+01
   3.412859e+00  -7.570973e+01
   5.525208e+01  -1.557273e+01
   3.744845e+01  -1.480452e+01
   4.006857e+00   8.543489e+01
  -2.260665e+01   4.537650e+01
  -8.321836e+00   3.844108e+01
  -8.867248e+00   1.038843e+01
   4.495217e+01   2.317945e+01
   4.232969e+01   2.312732e+01
  -4.175620e+01   2.930365e+01
  -6.049381e+01   4.168160e+01
  -4.085771e+01   2.151106e+01
   2.844223e+01  -2.829503e+01
   7.721275e+01  -4.658422e+01
   1.874024e+01  -2.949650e+01
  -5.898925e+01   1.396106e+01
  -3.156967e+01   3.820900e+01
   2.828887e+00  -1.958570e+01
  -4.163801e+01   1.258839e+01
   4.977474e+01  -6.301007e+01
   5.982609e+01   2.494588e+01
   2.664124e+01   3.154492e+01
   1.482358e+01   1.355035e-02
  -3.218252e+00   2.492085e+01
   2.754931e+01  -1.624329e+01
   9.243707e+00   3.030496e+00
  -1.322404e+01   3.816741e+01
  -1.624005e+01   5.974861e+00
  -2.763487e+00  -5.665030e+00
   6.048074e+00  -6.077169e+01
   5.907781e+01  -2.457942e+01
   1.757373e+01   6.543367e+00
   1.151322e+01   3.109170e+01
  -8.462262e+01   8.121655e+00
  -4.714750e+01  -4.986242e+01
  -3.752023e+01  -5.306767e+00
   1.660423e+01  -3.169359e+01
   6.619366e+01  -1.624184e+00
   2.638728e+01   2.818012e+00
   4.381470e+00   5.113804e+00
  -1.841221e+01   3.766767e+01
   4.977721e+01  -1.024249e+01
   5.169730e+01  -1.532030e+01
