
 $NMID
 id='ANONYMOUS ', fmtdat='(2E16.6)'
 volume=1.0
 tramp=1.0
 $END
   2.131997e+03  -2.297884e+02
   1.714317e+03   1.443834e+03
  -1.402676e+02   1.637597e+03
  -6.043210e+02   7.375145e+02
  -5.690372e+02  -7.238866e+01
  -4.964597e+01  -1.201644e+02
   2.336290e+02   1.306300e+02
   9.998899e+01   4.082518e+02
  -3.454955e+02   4.326315e+02
  -4.087991e+02   1.163575e+02
  -3.376422e+02  -2.191455e+02
  -6.068764e+01  -4.152296e+02
   2.678399e+02  -8.152307e+01
   2.119212e+02   3.120994e+02
   3.611300e+01   3.219289e+02
  -2.095267e+02   1.873112e+02
  -2.180941e+02  -3.322451e+02
   1.418128e+02  -4.470421e+02
   3.085612e+02  -2.351161e+02
   3.457758e+02   1.471476e+02
   1.213331e+02   1.663156e+02
  -8.605429e+01   1.613661e+02
  -5.124100e+01  -5.349306e+00
   6.803818e+01   2.436074e+01
   1.696376e+02   1.288042e+02
   6.812370e+01   2.370798e+02
  -2.092346e+02   7.485287e+01
  -4.030350e+02  -9.215265e+01
  -2.141217e+02  -1.433111e+02
   1.582561e+02  -1.333716e+02
   4.451929e+02   3.447378e+01
   1.398013e+02   2.946622e+02
  -9.626191e+01   1.902621e+02
  -2.781448e+02   5.851353e+01
  -1.996633e+02  -7.276498e+01
  -1.045801e+02  -1.680019e+02
   6.580956e+01  -1.841442e+02
  -4.086971e+01   4.442570e+01
   1.196816e+00   2.217145e+02
  -1.030359e+02  -6.209961e+01
  -3.430196e+01  -3.050223e+02
   6.590017e+01  -2.742662e+02
   2.096118e+02  -6.511580e+01
   1.099207e+02   2.800181e+02
  -1.002458e+02   5.135573e+01
  -1.456652e+02  -2.099861e+02
   1.022880e+02  -2.950719e+02
   2.693855e+02  -3.923859e+01
   2.581740e+02   2.110110e+02
   1.483243e+02   2.745471e+02
  -2.400072e+02   1.866278e+02
  -4.095330e+02   4.130296e+01
  -2.271924e+02  -1.271619e+02
   5.043786e+01  -2.008343e+02
   1.072062e+02  -4.142342e+01
   1.181926e+02   1.353096e+00
  -3.101021e+01   5.700333e+00
   8.450518e+00  -1.840757e+01
   7.012799e+01  -1.127786e+01
   1.668553e+02   5.840519e+01
   1.574464e+02   1.220591e+02
  -1.050443e+02   1.548439e+02
  -2.145397e+02   8.138487e+01
  -1.770313e+02  -5.555913e+01
   8.190936e+01  -2.232860e+02
   1.685282e+02  -2.809691e+02
   1.864536e+02  -1.083186e+02
   2.052759e+02   1.810636e+02
   3.067233e+01   2.424543e+02
   2.384203e+00   2.004420e+02
  -1.171084e+01   1.073042e+02
  -3.535589e+01   4.457463e+01
  -1.386666e+02   6.505182e+01
  -8.184297e+01   1.427460e+01
  -1.344109e+02  -6.562233e+01
  -5.113333e+01  -1.167313e+02
   7.596340e+01  -1.342748e+02
   1.379223e+02   6.896469e+01
   9.427766e+01   1.918896e+02
  -4.921949e+01   1.777477e+02
  -1.693144e+02   5.989454e+01
  -2.115332e+02  -8.077230e+01
  -1.347450e+02  -1.352984e+02
   2.836832e+01  -2.208781e+02
   9.756995e+01  -1.226966e+02
   1.074152e+02  -7.567861e+01
   4.436270e+01  -3.840366e+01
   1.828773e+02  -1.640525e+01
   2.872487e+02   6.320183e+01
   1.339703e+02   1.094353e+02
  -3.797524e+01   3.033905e+02
  -2.346236e+02   2.685683e+02
  -2.464613e+02   1.581683e+02
  -1.685792e+02  -2.294085e+01
   6.120892e+00  -1.025312e+02
   5.822527e+01  -1.253559e+02
  -2.029692e+00   3.974875e+00
  -5.162256e+01   7.151171e+01
  -1.251002e+02  -2.247482e+00
   1.141256e+01  -7.176810e+01
   4.049829e+01  -5.284963e+01
   8.563905e+01  -1.258427e+01
  -2.983054e+01   8.939188e+01
  -1.099091e+02  -2.974896e+01
  -6.967433e+01  -1.449549e+02
   3.362572e+01  -2.467889e+02
   1.811627e+02  -1.364646e+02
   2.111332e+02   2.128820e+01
   1.678949e+02   1.531072e+02
   2.213870e+01   1.806123e+02
  -7.670697e+01   8.210127e+01
  -7.580507e+01  -1.454430e+01
  -2.538328e+01  -1.321744e+01
   6.007449e+01   1.451413e+01
  -1.080130e+01   9.464436e+01
  -1.085842e+02   2.902645e+01
  -5.365481e+01  -3.054305e+01
   9.258849e+00  -3.684426e+01
   5.168869e+01   4.710398e+01
   2.797802e+01   8.423579e+01
  -8.638247e+01   9.834679e+01
  -2.034063e+02  -3.110674e+00
  -1.001848e+02  -7.160550e+01
  -3.840746e+01  -1.595350e+02
   1.320187e+02  -1.824912e+02
   1.787404e+02  -1.096415e+02
   8.193170e+01   2.022045e+01
  -4.230493e+01   2.847770e+01
  -7.328947e+01  -4.428214e+01
   4.704237e+01  -4.559918e+01
   1.381427e+02  -2.236494e+01
   9.943108e+01   2.068862e+01
   2.776645e+01   1.088271e+02
  -5.547740e+01   1.178469e+02
  -6.318642e+01   2.766879e+01
  -4.840415e+01  -1.409907e+01
   2.094462e+01   3.188982e+01
  -2.671723e+00   8.766471e+01
  -3.628891e+01   8.854388e+01
  -9.301387e+01   3.593799e+01
  -1.185981e+02  -1.128903e+02
  -5.268113e+00  -1.149329e+02
   8.175006e+01  -1.035242e+02
   7.036551e+01   1.015610e+01
   5.885181e+01   4.175626e+01
  -1.108972e+02   6.838689e+01
  -2.255000e+01  -1.789125e+01
  -3.122487e+01   1.781382e+01
   2.872368e+01   9.608341e-01
  -3.222023e+01   1.402511e+01
  -5.793011e+01   2.765475e+01
  -4.086939e+01  -2.044222e+01
  -1.398200e+01  -9.011799e+01
   1.072149e+02  -1.012031e+02
   1.238306e+02  -9.189628e+01
   9.100715e+01   7.874124e+01
  -9.950683e+00   8.146838e+01
  -1.070916e+02   1.313605e+02
  -5.470098e+01   1.614418e+01
  -4.885277e+01  -1.229885e+01
  -4.628386e+01  -6.239256e-01
  -2.649297e+01   5.690827e+00
  -5.476135e+00   1.786821e+01
  -4.570527e+01  -1.750015e+01
   6.558104e+01  -8.244521e+01
   8.203996e+01  -4.565658e+01
   6.200693e+01  -5.552778e-01
  -4.730773e+01   5.813191e+01
  -1.173167e+02   6.516546e+01
  -1.479767e+02  -1.903392e+01
  -7.617544e+01  -1.683496e+02
   7.749356e+01  -8.757942e+01
   2.310660e+02  -1.043967e+01
   1.895867e+02   7.527155e+01
   6.301602e+01   1.486266e+02
  -4.299484e+00   6.901059e+01
  -9.417034e+01   2.040704e+01
  -6.441897e+01   2.222958e+01
  -3.259443e+01   8.661724e+01
  -5.511503e+01   4.817548e+01
  -8.856839e+01  -1.782376e+00
  -1.067186e+02  -1.557718e+02
  -4.506201e+01  -1.189459e+02
   8.538481e+01  -1.581051e+02
   1.070154e+02  -4.423049e+01
   7.556815e+01   5.841874e+01
  -1.364228e+01   1.054281e+02
  -5.830710e+01   5.345748e+01
  -4.372519e+01  -1.383142e+00
  -6.855755e+00  -1.212432e+01
   3.533999e+01  -5.709337e+01
  -3.898651e+01  -3.927240e+00
  -6.895039e+01   3.325941e+01
  -5.595701e+01  -6.065368e+01
   8.193980e+00  -7.913383e+00
   7.791269e+01   1.804145e+01
   9.923917e+01   6.487687e+01
  -7.733788e+00   2.914926e+01
  -9.552617e+01   4.210547e+01
  -1.086987e+02   4.069173e+01
   2.826141e+01  -2.057641e+01
   6.583124e+01   2.731140e-01
   3.621801e+01   2.030755e+01
   1.089617e+01   6.018004e+01
  -4.909527e+00   5.832019e+01
  -9.775754e+00   4.408116e+01
  -7.099220e+01  -5.086875e+00
  -7.963723e+01  -1.229287e+01
  -3.149940e+01  -2.449857e+01
  -2.788036e+01  -2.931272e+01
  -2.054892e+01  -5.181716e+01
  -1.024041e+01  -8.477269e+01
   8.092769e+01  -8.154357e+01
   1.091742e+02  -1.380430e+01
   1.126987e+02   4.781834e+01
   5.224499e+01   8.690711e+01
  -7.055032e+01   5.225218e+01
  -8.480764e+00   1.329237e+01
   4.754938e+01  -3.607124e+01
   1.221252e+02  -5.497280e+00
   3.055761e+01   5.627099e+01
  -5.066502e+01   4.995292e+01
  -1.182910e+02   1.828967e+01
  -8.893963e+01  -5.524996e+01
  -3.454232e+01  -7.693185e+01
   1.568693e+01   2.892223e+00
   7.256201e+01   2.531049e+01
   4.506619e+00   3.137997e+01
  -8.222483e+01  -3.263195e+01
  -5.412587e+01  -2.660733e+01
   8.119586e+01  -1.188095e+02
   3.925220e+01  -6.775735e+01
   1.220346e+02   6.875972e+01
  -5.518210e+00   1.368773e+02
  -3.779296e+01   5.130519e+01
  -1.340169e+02   1.471586e+01
  -5.188031e+01  -1.219632e+02
   6.897497e+00  -7.296779e+01
  -5.182080e+00   2.433879e+01
  -9.337611e+00   3.633199e+01
  -1.118813e+01   1.299108e+01
  -2.107430e+01  -1.660731e+01
   2.433708e+01   2.164288e+01
   5.262716e+01   7.663196e+01
   5.771190e+00   7.066626e+01
  -7.988493e+01   4.506729e+01
  -8.273959e+01   9.594584e+00
  -6.166222e+01  -9.164535e+00
  -5.483269e+00  -3.390666e+01
  -3.232284e+00  -1.064550e+00
   2.439538e+01   1.939895e+01
   2.968306e+01   4.510563e+01
  -3.490904e+01   4.762370e+01
  -4.307554e+01  -7.335891e+00
  -1.222555e+01  -5.177315e+00
   1.006941e+01   2.608414e+01
  -2.287379e+01   1.786199e+01
  -8.117312e+01  -4.434515e+01
  -4.100695e+01  -5.559654e+01
   9.570611e+01  -8.757499e+01
   1.129113e+02  -5.076062e+01
   1.255773e+02   7.752817e+01
   1.900086e+01   1.116028e+02
  -2.324781e+01   2.425298e+01
  -5.887165e+01   6.135020e+01
  -7.075535e+01  -4.109768e+01
  -9.414628e-01  -4.635661e+01
  -5.636723e+00   8.382422e+00
  -1.205132e+01   3.780572e+01
  -1.893783e+01  -4.876469e+01
  -6.780118e+01  -4.378117e+01
   3.641820e+01  -8.312711e+01
   7.080718e+01  -9.503959e+00
   5.937412e+01   3.241963e+01
  -1.235803e+00   3.049461e+01
  -9.411107e+01   3.772948e+01
  -7.471137e+01  -4.955568e+01
  -5.542724e+01  -3.693499e+01
   4.070372e+01  -2.030702e+01
   9.903695e+01  -1.165616e-01
   3.646219e+01   2.443910e+01
  -2.247561e+01   2.410004e+01
  -3.888537e+01   2.082403e+01
   1.879832e+01  -1.411591e+01
   7.248603e+01  -6.817593e+01
   2.116795e+01   4.189111e+00
  -5.361083e+01  -2.416316e+00
  -5.880844e+01   2.691499e+01
  -3.002972e+01  -1.627263e+01
  -1.464116e+01  -2.575954e+01
   5.865643e+01  -5.357888e+01
   2.122525e+01   1.878103e+01
   9.593361e+00   2.726046e+01
  -5.154663e+01   6.507753e+01
   6.709663e+00   1.217472e+01
   1.171641e+01  -1.932188e+01
  -1.354754e+00  -2.076799e+01
  -1.256687e+01   3.606996e+01
   5.972624e+01   2.251788e+01
   3.078070e+01   2.525335e+01
  -1.614693e+01  -1.133888e+01
   1.583993e+01   1.068152e+01
  -2.023695e+01   4.789715e+01
  -5.225984e+01   5.208001e+01
  -1.515470e+01   3.757848e+00
  -3.794822e+01  -1.255017e+01
  -2.902523e+01  -6.401307e+01
   2.107477e+01  -2.016854e+01
   4.967968e+01   1.593474e+01
   4.712085e+01   3.249718e+01
  -6.921940e+01   4.799619e+01
  -1.058504e+02  -1.450117e+01
  -2.865505e+01  -4.915807e+01
   3.061117e+01  -3.735776e+01
   4.787986e+01  -5.997005e+00
  -1.079227e+01  -2.367989e+01
  -1.105666e+00   3.448415e+01
  -9.884088e+00   1.038745e+01
   6.405603e+00   1.935178e+01
   3.468552e+01  -6.777080e+00
