
 $NMID
 id='ANONYMOUS ', fmtdat='(2E16.6)'
 volume=1.0
 tramp=1.0
 $END
   2.724432e+03   3.151258e+02
   1.670519e+03   1.389064e+03
  -3.072588e+02   2.122399e+03
  -1.440359e+03   1.027726e+03
  -6.773510e+02  -3.917983e+02
   2.264850e+02  -2.318247e+02
   4.853395e+02   2.944912e+02
   3.068371e+01   7.015915e+02
  -4.983390e+02   4.580161e+02
  -6.478736e+02   3.261179e+01
  -3.714938e+02  -6.299702e+02
   2.068036e+02  -6.244931e+02
   4.579834e+02  -1.796741e+02
   2.218803e+02   3.686106e+02
  -2.169076e+02   5.000562e+02
  -3.686910e+02   4.791705e+01
  -2.146551e+02  -4.949325e+02
   1.893143e+02  -4.256981e+02
   4.797851e+02  -5.472388e+01
   2.560927e+02   1.659892e+02
  -5.113743e+01   3.170322e+02
  -1.564124e+02   1.762958e+02
  -1.243031e+02   2.198608e+01
   9.390239e+01  -2.331084e+01
   2.021635e+02   1.736139e+02
   9.047371e+01   3.124301e+02
  -3.352759e+02   1.694288e+02
  -5.695096e+02  -7.557045e+01
  -1.800762e+02  -2.586225e+02
   2.646125e+02  -2.898285e+02
   4.991424e+02   1.153881e+02
   2.673777e+02   2.838557e+02
  -1.946315e+02   2.893826e+02
  -3.668090e+02   1.628002e+02
  -2.541011e+02  -2.038404e+02
   2.317456e+01  -2.523099e+02
   8.798550e+01  -2.448378e+02
   6.634786e+01   1.097733e+02
  -1.193508e+02   2.399635e+02
  -2.029380e+02  -6.756520e+01
  -5.193099e-01  -4.240061e+02
   1.427173e+02  -4.644807e+02
   3.723872e+02   3.430905e+01
   1.084287e+02   2.478657e+02
  -2.234067e+02   2.330118e+02
  -2.769429e+02  -2.240765e+02
   2.282812e+01  -4.013585e+02
   3.566875e+02  -4.072728e+01
   3.996143e+02   3.310414e+02
   1.174471e+02   3.622319e+02
  -2.476060e+02   2.441662e+02
  -3.413977e+02  -1.422630e+02
  -2.892245e+02  -2.585235e+02
   3.760278e+01  -2.376547e+02
   2.370971e+02  -4.980717e+01
   1.555668e+02   1.132707e+02
  -4.039234e+01   5.662506e+01
  -7.873846e+01  -9.373638e+01
   8.792856e+01  -1.351167e+02
   2.222124e+02   3.898672e+01
   7.534926e+01   1.896071e+02
  -1.393551e+02   2.152853e+02
  -2.345763e+02   2.674018e+01
  -8.782459e+01  -5.789481e+01
   7.237608e+01  -2.312976e+02
   1.280524e+02  -2.539352e+02
   2.464661e+02  -1.017336e+02
   2.042715e+02   1.245254e+02
   1.626020e+00   2.680730e+02
  -2.951646e+01   2.739131e+02
  -3.863489e+01   1.426749e+02
  -3.269677e+01   3.537891e+01
  -6.197170e+01   6.762525e+01
  -1.070509e+02   8.994014e+01
  -1.365616e+02  -8.145907e+01
  -4.533943e+01  -1.805058e+02
   9.164163e+00  -1.101150e+02
   1.913640e+02   2.581081e+01
   1.094180e+02   2.044407e+02
  -1.450708e+01   2.141166e+02
  -1.471304e+02   3.459968e+01
  -2.094822e+02  -1.458970e+02
  -1.005172e+02  -2.949532e+02
   7.473449e+01  -2.148018e+02
   1.627279e+02  -4.526024e+01
   9.147213e+01  -5.010364e+01
   1.330200e+02  -2.916979e+01
   1.673540e+02  -6.116222e+01
   2.970545e+02   1.665878e+01
   1.963072e+02   2.848869e+02
   2.008490e+01   3.202730e+02
  -3.107831e+02   3.100799e+02
  -3.153459e+02   6.661552e+01
  -2.295325e+02  -6.973904e+01
  -2.519454e+01  -1.977067e+02
   2.666206e+01  -1.543368e+02
   6.494298e+01  -9.411849e+01
  -7.247204e+01   2.958204e+01
  -8.122052e+01  -1.472639e+01
  -3.270634e+01  -1.641550e+02
   6.149176e+01  -9.007538e+01
   7.584611e+01   7.725758e+01
  -3.586079e+01   1.000205e+02
  -1.322040e+02  -3.314853e+01
  -9.665121e+01  -9.392567e+01
   4.713887e+01  -2.630572e+02
   1.708152e+02  -1.679687e+02
   2.741699e+02   7.471322e+01
   1.926296e+02   2.475470e+02
   7.613937e+01   1.784879e+02
  -4.682674e+01   7.302134e+01
  -1.166559e+02  -2.112665e+01
  -4.719895e+01  -1.079786e+01
   4.900252e+01   2.520357e+01
  -1.678976e+01   9.720367e+01
  -7.093925e+01   6.549937e+01
  -8.839390e+01  -4.045241e+01
   9.852113e+00  -5.301786e+01
   7.099350e+01   3.242018e+00
   1.616622e+01   5.047770e+01
  -1.313786e+02   3.718830e+01
  -2.252002e+02  -4.764288e+01
  -1.574141e+02  -6.562887e+01
  -9.235417e+00  -1.721741e+02
   1.316237e+02  -1.619669e+02
   1.778178e+02  -8.000344e+01
   1.183864e+02   4.161748e+01
  -2.622139e+01   1.060203e+02
  -5.069929e+01  -6.218379e+00
   3.647323e+01  -8.976637e+01
   1.650043e+02   1.692559e+01
   1.268333e+02   1.142253e+02
   7.553099e+01   1.078119e+02
  -6.693616e+01   7.233759e+01
  -1.426284e+02   1.197027e+01
  -8.196322e+01  -3.510607e+01
   2.561055e+00   2.648304e+01
  -1.188949e+01   4.418782e+01
  -5.769492e+01   6.843058e+01
  -1.582051e+02  -5.636707e+01
  -1.436212e+02  -1.310999e+02
   1.038507e+00  -1.431874e+02
   1.297844e+02  -1.413358e+02
   1.274237e+02  -9.073112e+00
   8.335315e+00   1.186060e+02
  -7.276210e+01   1.770193e+01
  -9.079953e+01   6.082650e+01
  -1.619527e+01  -1.607893e+01
   5.278026e+01   1.652478e+01
  -2.087739e+01   6.178743e+00
  -3.589252e+01  -2.288588e+01
  -4.403572e+01  -6.037577e+01
  -3.200368e+01  -7.152978e+01
   8.790477e+01  -1.031621e+02
   1.304349e+02  -7.228035e+00
   1.202933e+02   1.036466e+02
   2.569110e+01   1.116712e+02
  -4.255901e+01   1.486886e+02
  -7.557617e+01  -2.382583e+01
  -7.603218e+01  -3.624485e+01
  -8.534567e+00  -2.732692e+01
  -4.207255e+01   2.669241e+01
  -9.847119e+01  -4.938130e+00
  -2.940647e+01  -2.770993e+01
   8.456526e+00  -5.211694e+01
   1.004232e+02  -4.134445e+01
   4.537941e+01   7.142181e+01
  -1.092559e+01   9.796091e+01
  -1.113558e+02   8.380503e+01
  -9.780113e+01  -6.723574e+01
  -5.108142e+01  -1.674956e+02
   1.016739e+02  -1.270642e+02
   1.308633e+02  -9.581688e+01
   1.864082e+02   5.328572e+01
   1.020121e+02   1.193072e+02
  -2.571528e+01   1.121507e+02
  -8.259262e+01   5.432285e+01
  -8.645973e+01   5.343368e+01
  -6.935003e+01  -7.040800e+00
  -1.195599e+01   4.147540e+01
  -1.140033e+02  -5.713898e+01
  -1.096418e+02  -1.085633e+02
  -2.070871e+01  -1.844122e+02
   2.350589e+01  -1.165963e+02
   1.506096e+02   2.364297e+01
   5.928585e+01   1.065900e+02
   3.008317e+01   9.038206e+01
  -6.770617e+01   2.664024e+01
  -5.707167e+01   1.104691e+01
   2.116181e+01  -3.855694e+01
   4.423735e+01  -1.301676e+01
  -9.061447e+00  -5.406707e+01
  -4.200285e+01  -1.440323e+01
  -5.152308e+01  -4.135724e+01
   7.280691e+01  -4.591479e+01
   1.161402e+02  -2.140403e+01
   8.160025e+01   4.265357e+01
  -5.210732e+01   3.613742e+01
  -6.256025e+01   6.787071e+01
  -9.352395e+01  -7.101774e+00
  -5.513273e+01  -5.815276e+01
   4.842503e+01  -1.700055e+01
   2.850239e+00   2.330352e+01
  -8.851452e+00   7.968481e+01
   4.637836e+00   9.616518e+01
  -1.797973e+01  -3.131608e+00
  -3.938260e+01  -3.230651e+01
  -4.093015e+01  -3.653011e+01
  -5.657205e+01  -2.026168e+01
  -5.897033e+01   3.474890e+00
  -4.804937e+00  -5.359275e+01
   5.977875e+01  -1.024875e+02
   4.735782e+01  -7.586081e+01
   1.403882e+02  -2.239576e+00
   4.981851e+01   1.259058e+02
   1.223312e+01   6.656113e+01
  -6.458898e+01   3.032474e+01
  -3.873569e+01  -1.775264e+01
   5.978176e+01  -4.166460e+01
   7.378166e+01   4.244093e+01
   6.513543e+01   2.288017e+01
  -7.808178e+01   9.755406e+01
  -1.393918e+02   4.783264e+01
  -1.053350e+02  -2.003392e+01
  -5.347919e+01  -4.187569e+01
   4.317183e+01  -4.272414e+01
   4.508265e+01   1.703565e+01
  -5.686458e+01   2.738384e+00
  -8.058226e+01  -3.721090e+01
  -2.234040e+00  -3.784992e+01
   8.116276e+01  -5.462483e+01
   8.775053e+01  -3.913164e+01
   1.251281e+02   8.075201e+01
  -3.804335e+01   1.408983e+02
  -3.173076e+01   5.457807e+01
  -5.222405e+01  -1.476854e+01
  -4.571940e+01  -1.013025e+02
   1.409839e+01  -8.536538e+01
   5.197802e+01  -3.225210e+01
   2.250403e+01   3.514893e+01
   8.818098e+00  -5.614477e+00
   4.150108e+00  -7.408858e+00
   6.373348e+01   2.862600e+01
   6.276973e+01   1.601693e+01
  -1.054513e+01   7.258748e+01
  -9.128701e+01   1.125914e+01
  -1.085531e+02  -2.899123e+01
  -1.084743e+02  -5.241114e+01
   1.920140e+01  -6.094987e+01
   6.838784e+01  -1.984953e+01
   7.866429e+01  -3.355927e+01
   6.669117e+00   3.944479e+01
  -5.777093e+01   2.294580e+01
   7.139439e+00   1.908630e+01
   4.826309e+01   2.934065e+01
  -1.425835e+01  -2.885045e+01
  -5.987541e+01   6.265954e+00
  -5.330873e+00  -2.737800e+01
  -3.513753e+01  -5.391184e+01
   7.115847e+01  -5.933706e+01
   1.580483e+02  -5.207449e+01
   1.120056e+02   7.168274e+01
  -2.507978e+00   6.154410e+01
  -6.533008e+01   7.825379e+01
  -1.152845e+02   9.268310e+00
  -5.145053e+01  -6.308393e+00
  -3.497931e+00  -3.865126e+01
   2.678267e+01  -7.029807e+01
   2.697216e+01  -7.138219e+00
   1.273616e+01  -4.211341e+01
  -2.992007e+00  -7.170693e+01
   3.577199e+01  -5.712183e+01
   4.015144e+01   5.142867e+01
   1.082624e+02   9.910168e+01
  -8.293467e+00   9.254606e+01
  -5.234996e+01   2.511056e+01
  -5.460800e+01  -4.342005e+01
  -2.215161e+00  -9.357345e+01
   5.687847e+01  -6.143151e+01
   8.856299e+01   1.464533e+01
   7.922144e+00   5.124154e+01
  -5.461257e+01   5.600713e+01
  -2.080455e+01   1.978471e+01
   3.190138e+01   3.384176e+01
   8.275964e+01   3.199151e+01
   8.181576e+00   8.685171e+00
  -6.951215e+01   6.197049e+01
  -4.528241e+01   4.644678e+01
  -2.610190e+01  -1.834785e+01
   2.944514e+01  -3.212810e+01
   9.131434e+01  -8.815678e+01
   2.462746e+01  -1.386935e+01
   1.353950e+01   3.936241e+01
  -5.018934e+01   4.301724e+01
  -2.279633e+01  -2.515659e+00
  -1.976200e+01  -4.584142e+01
   3.312821e+01  -2.863795e+01
   3.064084e+01   2.143388e+01
   4.810584e+01   7.694317e+00
   5.974351e+01   1.669203e+01
   1.917020e+01   1.923441e+01
   1.285739e+01   4.479278e+01
   2.474886e+00   2.222673e+01
   4.946482e+01   2.023391e+01
  -9.271082e+00   1.511344e+01
  -6.426404e+01   4.247595e+00
   2.926961e+00  -6.824271e+01
   1.753334e+01  -2.973161e+01
   3.415912e+01  -2.344556e+01
   4.210201e+00   6.155295e+01
   5.879427e+00   1.105523e+01
  -4.861419e+01  -5.911117e+01
  -4.397558e+01  -2.600732e+01
   3.109862e+01  -4.882295e+01
   3.208137e+01  -4.123014e+01
  -1.689366e+01   6.870080e+00
  -2.356845e+01   2.197075e+01
  -2.297946e+01  -3.713224e+01
   5.994378e+01  -1.039670e+01
   8.900834e+01  -4.164862e+01
