
 $NMID
 id='ANONYMOUS ', fmtdat='(2E16.6)'
 volume=1.0
 tramp=1.0
 $END
   1.132890e+03   7.280509e+01
   4.810046e+02   5.670793e+02
   1.793691e+02   4.316122e+02
  -2.857173e+02   4.930391e+02
  -5.088539e+02   6.649515e+01
  -1.139357e+02  -1.416622e+02
   5.665080e+01  -3.396368e+01
   6.799244e+01   1.419646e+02
   4.689969e+01   3.016644e+02
  -1.789722e+02   7.947502e+00
  -1.256713e+02  -6.176291e+01
  -1.334796e+02  -1.560746e+02
   3.794899e+01  -8.986108e+01
   5.106183e+01   1.036498e+02
   1.870171e+01   2.163613e+02
  -1.500286e+02   1.035784e+02
  -4.619337e+01  -8.313002e+01
   5.705079e+01  -2.392271e+02
   1.594086e+02  -1.232969e+02
   1.513022e+02   6.614455e+01
   8.653230e+01   1.186809e+02
  -5.282927e+01   4.619205e+01
   4.916967e+00   4.197610e+01
   1.076620e+02   4.313036e+01
   6.038316e+01   3.771721e+01
  -7.342976e-01   1.510734e+02
  -2.134340e+02   3.029346e+01
  -2.089854e+02  -1.119580e+02
  -1.555255e+02  -1.026018e+02
   1.862279e+02  -5.888245e+01
   1.684264e+02   7.230724e+01
   4.421630e+01   1.378846e+02
  -5.437115e+01   1.053660e+02
  -1.179953e+02   1.130436e+02
  -1.778488e+02  -4.579221e+01
   1.547234e+01  -9.916906e+01
   2.499912e+01  -1.224025e+02
  -3.907097e+01   3.616811e+01
  -1.043280e+02   9.332172e+01
  -2.697411e+01   1.338343e+01
   3.644092e+01  -1.141134e+02
   2.936855e+01  -7.115476e+01
   1.066877e+02   2.060692e+01
  -5.639978e+00   7.798550e+01
  -7.569716e+01   1.686990e+00
  -8.193855e+01  -7.730640e+01
   9.066011e+01  -1.577225e+02
   1.992037e+02  -5.615272e+01
   1.476767e+02   1.470594e+02
   5.925467e+01   2.077929e+02
  -1.268996e+02   5.985796e+01
  -2.299389e+02  -4.420106e+01
  -5.260472e+01  -1.423377e+02
   3.698784e+01  -1.105797e+02
   1.016516e+02  -6.200730e+01
   6.381378e+01  -4.089185e+01
  -4.858458e+01   2.534081e-01
   2.474379e+01  -1.627386e+00
  -1.358164e+01   8.331483e+00
   5.388007e+01   4.863755e+01
   1.094476e+02   2.273358e+01
  -5.411635e+01   5.443198e+01
  -1.102222e+02   6.563372e+01
  -7.497571e+01  -2.543387e+01
   1.925818e+01  -1.579259e+02
   1.344173e+02  -1.115438e+02
   1.634137e+02   2.632461e+00
   8.680864e+01   5.506196e+01
  -4.163813e+01   9.387762e+01
   2.708178e+01   2.007694e+02
   3.225856e+01   1.120229e+02
   4.861254e+00   8.130467e+01
  -8.376061e+01   5.518123e+01
  -5.567007e+01   5.743841e+01
  -5.866424e+01  -6.438138e+01
  -4.432835e+01  -1.156375e+02
   6.223517e+01  -6.186016e+01
   6.581961e+01   4.462884e+01
  -7.301765e+00   3.794110e+01
  -3.782712e+01   4.544072e+01
  -1.002787e+02   7.034571e+01
  -1.544118e+02  -5.732079e+01
  -8.570941e+01  -1.144022e+02
   3.152780e+01  -9.859815e+00
   4.059561e+01  -6.393906e+01
   5.627040e+01  -5.935453e+01
   6.264740e+01  -6.063830e+01
   1.325263e+02  -7.143474e+01
   1.874792e+02   1.858715e+01
   5.491264e+01   1.178077e+02
  -2.238128e-01   2.532104e+02
  -9.668223e+01   1.071833e+02
  -1.109449e+02   6.881895e+01
  -6.536226e+01  -3.133693e+01
  -1.463909e+01  -3.492364e+01
   6.463491e+01  -1.043014e+02
   1.978171e+01  -5.444261e+00
  -4.332804e+01  -7.504132e+00
  -6.010337e+01   2.964055e+01
  -1.105269e+00  -2.009313e+00
   1.860160e+01  -4.603282e+01
   3.954331e+01   3.286611e+00
  -3.856813e-01   3.353892e+01
   1.162513e+00   1.435572e+01
  -2.581585e+01  -1.061368e+02
   6.272847e+01  -9.398241e+01
   3.846523e+01   1.595910e+01
   9.861089e+01   9.117087e+01
   7.664000e+01   5.441877e+01
   1.130632e+01   1.084483e+02
  -4.690943e+01   6.187767e+01
  -7.440737e+01  -9.987713e+00
  -1.112830e+01  -2.125534e+01
   2.465221e+00   4.654087e+01
   3.269197e+01   7.638222e+01
  -3.147455e+01  -1.994169e+01
  -6.176599e+01  -3.736259e+01
   4.604852e+00  -1.469457e+01
   4.012186e+01   2.829342e+01
  -3.876647e+01   2.662246e+01
  -3.655047e+00   1.908580e+01
  -7.117928e+01  -4.499516e+01
  -1.103720e+02  -8.617207e+00
  -1.317306e+01  -1.476772e+02
   6.884726e+01  -7.840497e+01
   9.007414e+01  -2.953653e+01
   3.377536e+01  -3.157008e+01
  -3.972945e+01   2.486206e+01
   9.302671e+00   1.956157e+00
   5.125130e+01  -2.289326e+01
   3.732106e+01   2.061606e+01
   8.028134e+01   2.290212e+01
  -1.879368e+01   4.854555e+01
  -1.689111e+01   6.957630e+00
  -5.405963e+01  -6.337485e+00
   3.864455e+01  -1.383940e+01
   4.327122e+01  -2.024067e+01
   4.917322e+01   1.250774e+01
  -3.777314e+01   2.738675e+01
  -8.338319e+01   1.643591e+01
  -6.920227e+01  -2.786031e+01
  -3.128943e+01  -1.171939e+02
   3.044878e+01  -5.862925e+01
   1.054925e+02  -2.992628e+01
   2.199099e+01  -2.475744e+01
  -3.833813e+01   2.990375e+01
  -3.756576e+01  -4.988485e+00
   1.605854e+01  -5.766392e+00
   1.673788e+01   3.777678e+00
   3.525430e+01   3.946220e+01
  -5.768511e+01   3.057179e+01
   2.801553e+01  -4.875638e+01
   7.201163e+00  -9.402499e+01
   7.104899e+01  -7.856356e+01
   1.038427e+02  -4.450879e+01
   9.795244e+01   4.852981e+01
   5.399409e+01   5.299941e+01
  -3.420385e+01   7.220052e+01
  -5.569555e+01   1.628838e+01
  -4.987173e+01   2.395327e+00
  -4.065536e+01   1.219644e+01
  -1.558459e+01  -8.781232e-01
   5.227393e+00  -2.318880e+00
  -3.378822e+01   1.257728e+01
   2.077165e+01  -1.188066e+01
   7.572812e+01  -2.383679e+01
  -1.000048e+01   1.783093e+01
   3.410239e+00   6.760287e+01
  -9.266868e+01   6.643616e+01
  -7.490279e+01  -2.429903e+01
   3.246075e+01  -9.052585e+01
   3.338087e+01  -1.582467e+02
   1.445828e+02  -2.753575e+01
   9.675506e+01   4.449712e+01
  -1.787295e+01   8.779004e+01
  -3.804859e+01   1.650177e+01
  -2.291618e+01   1.162089e+01
  -6.034976e+00   1.120711e+01
   4.187001e+00   1.955139e+01
  -4.015623e+01  -1.329927e+01
  -4.187352e+01   2.728945e+01
  -4.404842e+01  -1.026155e+02
  -1.032092e+01  -6.517342e+01
  -3.277954e+01  -5.713633e+01
   4.370259e+01  -1.713758e+01
   4.159862e+01   3.428839e+01
  -9.138453e+00   5.640953e+01
  -1.143768e+01   2.557137e+01
  -2.921565e+01   1.492813e+01
   3.924788e+01  -7.367893e+00
   5.028180e+00  -4.932326e+01
  -3.702225e+01  -1.359041e+01
  -3.242749e+01  -3.912171e+00
  -2.090047e+01  -3.623098e+00
   8.335986e+00  -2.428449e+01
   8.549741e+01   3.039389e+01
   3.883731e+01   2.903587e+01
   4.542003e+00  -4.193398e+00
  -6.689169e+01  -5.469600e+00
  -5.170658e+01   1.728368e+01
  -6.499325e+01  -8.794590e-01
   1.374324e+01  -9.330962e+00
   5.080850e+01   3.569408e+01
   1.096619e+01   4.624258e+01
  -3.181317e+01   3.921437e+01
  -2.119449e+01  -3.145297e+00
  -3.722467e+01  -1.020284e+01
  -3.060179e+00  -3.211146e+01
  -6.057160e+00   2.992566e+00
  -2.022865e+01   2.778809e+01
   3.916353e+00  -8.301589e+00
   2.876182e+00  -2.194304e+01
   8.380300e+01  -9.516936e+01
   6.637909e+01   3.848052e+00
   3.043687e+01   2.280792e+01
   1.758567e+01   2.271593e+01
  -7.889405e+01  -8.524785e-01
  -2.148902e+01   2.585466e+01
   4.961354e+01  -6.263369e+00
   3.433782e+01  -9.500424e+00
   4.365487e+01   2.178413e+01
  -3.401373e+01  -1.522753e+01
  -4.427317e+01  -3.193107e+00
  -5.693036e+00  -3.157059e+01
   2.141391e+01  -4.296736e+01
  -7.556735e-01  -4.907926e+01
   4.222901e+00  -2.397423e+01
  -1.487464e+01  -2.365504e+01
  -5.194494e+01   1.239034e+01
   1.840535e+00  -6.460404e+01
   3.101252e+01  -2.932053e+01
   9.355780e+01  -2.137841e+01
   5.555436e+01   6.478145e+01
  -6.600114e+01   6.519630e+01
  -3.118396e+01   1.705347e+01
  -5.199836e+01   1.035483e+01
  -2.325297e+01  -6.666837e+01
   3.483902e+00  -1.163840e+01
  -9.939969e+00  -6.111446e+00
   4.450394e+01   7.384507e+00
  -1.447059e+00   2.466080e+01
   1.426038e+01  -2.566441e+01
   2.067688e+01   1.855804e+01
   8.678251e+00   2.921256e+01
   5.587373e+01   5.622676e+01
  -3.817842e+00   7.626492e+01
  -5.913469e+01  -1.756171e+01
  -9.573063e+01  -1.750164e+01
  -2.157663e+01  -2.883224e+01
   6.746794e+01  -5.592048e+01
   7.710322e+01  -7.950581e+00
  -5.600407e+00   3.633190e+00
  -1.127886e+01   1.278022e+01
  -2.519569e+01   2.230056e+01
  -3.315798e+01   2.431734e+00
   3.469779e+01   1.596719e+01
   2.573677e+00  -2.131845e+01
   9.346721e+00  -1.436701e+01
  -4.937685e+01  -3.292865e+01
   7.421450e+01  -5.821636e+01
   9.633019e+01  -4.471806e+01
   8.719164e+01   1.422201e+01
   3.006516e+01   9.344275e+01
  -3.859483e+01   8.437010e+01
  -5.962476e+01  -6.621310e+00
  -3.884012e+01  -1.326002e+00
  -2.305449e+01   9.669902e+00
   2.304954e+01  -1.133674e+00
  -1.889578e+00   1.431720e+00
  -2.258749e+01   2.984362e+01
  -2.394123e+01  -1.644604e+01
   1.797486e+01   4.772956e+00
   3.389025e+01  -1.048173e+00
   2.548218e-01   2.848061e+01
   1.090664e+01   4.157975e+00
  -3.688355e+01   1.062333e+01
  -1.883430e+01  -7.835714e+00
  -9.439614e-01   6.360120e+00
  -5.231045e+00   9.090338e+00
   2.901859e+01  -4.234911e+01
   2.184052e+01  -1.134296e+01
   4.597129e+00   1.307775e+01
  -4.898520e+00  -1.450215e+01
  -9.231736e+00   1.634810e+00
   3.184660e+01   9.554583e+00
   4.034618e+01   1.015902e+01
  -4.712825e+00   2.935914e+01
  -4.100115e+01   5.643112e+00
  -6.190432e+01  -2.487107e+00
  -2.702730e+01  -1.649815e+01
   2.834256e+01  -2.180080e+01
   1.711619e+01   1.067487e+01
   1.106169e+01  -4.921423e+01
  -4.169612e+01   1.461119e+01
   2.226841e+01   7.274852e+00
  -4.596641e+01   9.791120e+00
   8.010409e+00  -4.978856e+01
   1.165814e+01  -2.448001e+01
   2.361470e+01   8.813673e+00
  -3.226879e+01   3.989583e+01
  -7.483240e+00   1.381284e+01
  -5.370566e+01  -2.936081e+01
   1.443938e+00  -6.034464e+00
  -2.500176e+01   6.505678e+01
   4.791533e+01   3.501048e+01
  -1.019775e+01  -3.936738e+01
  -7.081210e+00  -4.147493e+00
  -1.849742e+01   1.435287e+01
   4.326900e+01  -3.372566e+01
   2.228098e+01   1.879872e+01
  -4.136401e+01   2.667129e+01
  -5.370746e+01  -5.751363e+00
  -3.019826e+01  -8.005056e+00
   3.809556e+01  -2.655634e+00
   4.768214e+01  -3.028316e+01
   8.431425e+00  -8.856575e+00
  -1.891669e+01   2.104562e+01
  -2.818373e+01   2.354046e+00
  -2.222823e+01  -1.130165e+01
   1.928566e+01  -2.018487e+01
