
 $NMID
 id='ANONYMOUS ', fmtdat='(2E16.6)'
 volume=1.0
 tramp=1.0
 $END
  -1.257938e+03   6.259261e+01
  -5.388709e+02  -3.114767e+02
  -4.398866e+01  -8.954402e+02
   2.061173e+02  -4.279959e+02
   3.086535e+02   5.781036e+01
  -1.196043e+02   2.371059e+02
  -1.767202e+02  -1.144178e+01
  -9.503405e+01  -2.548921e+02
   2.054076e+02  -1.577653e+02
   1.794373e+02  -1.387952e+02
   1.804113e+02   1.803807e+02
  -6.594419e+01   9.871947e+01
  -1.748502e+02   1.678451e+02
  -8.192372e+01  -1.011980e+02
   1.475602e+02  -2.610196e+02
   1.337221e+02  -1.680046e+01
   8.339840e+01   9.015539e+01
  -5.352885e+01   1.495900e+02
  -1.992241e+02   5.162055e+01
  -4.348015e+01  -7.099591e+01
   1.729565e+01  -1.107065e+02
   4.935594e+01  -6.465954e+01
   4.017269e+01   1.048814e+01
   4.534048e+01   6.458604e+01
  -2.822939e+01   2.009898e+01
  -5.926424e+01  -6.167787e+01
   1.286446e+02  -3.814002e+01
   2.658964e+02  -4.524687e+01
   8.998729e+01   1.591870e+02
  -2.467757e+01   1.091254e+02
  -2.093967e+02   1.991046e+01
  -1.671104e+02  -3.853115e+01
   1.027097e+02  -1.171309e+02
   1.035059e+02  -4.078192e+01
   5.475665e+01   6.959434e+00
   3.998036e+01   1.258421e+02
   3.289327e+01   9.878142e+01
  -1.243333e+01  -8.576944e+01
   8.875709e+01  -4.305819e+01
   1.587342e+02  -5.017182e+01
   9.009411e+01   1.206646e+02
   1.700528e+01   1.457693e+02
  -1.273268e+02  -5.436587e+00
  -1.426835e+02  -1.283106e+02
   4.651556e+01  -1.204802e+02
   6.526979e+01   1.393873e+02
   7.043043e+00   1.501961e+02
  -1.024544e+02  -1.889659e+01
  -2.724591e+02  -1.836834e+02
  -5.500341e-01  -1.341350e+02
   3.973405e+01  -1.064660e+02
   6.261468e+01   4.323695e+01
   7.344410e+01   4.545050e+01
  -2.178202e+01   1.211884e+02
  -8.215619e+01   4.618004e+01
  -2.284832e+01  -2.763921e+01
   2.612017e+01  -3.422601e+01
   5.446457e+01  -3.505043e+01
  -2.655590e+01   8.549805e+01
  -1.152481e+02   3.353581e+01
  -4.893721e+01  -1.073745e+02
  -2.454304e-01  -6.719370e+01
   6.694479e+01  -3.298758e+01
   1.853799e+01  -1.246638e-01
  -4.345070e+01   5.537171e+01
  -6.938834e+01   5.336391e+01
  -5.954703e+01   4.269586e+01
  -3.132894e+01  -1.195466e+00
  -6.825908e+01   1.613562e+01
   7.689196e+00  -7.498541e+01
   2.908662e+01  -7.479097e+00
   3.185102e+01  -5.259721e+00
  -5.459980e+01   1.091620e+00
   2.849189e+01  -2.415116e+01
   9.261694e+01   8.670043e+00
   6.147836e+01   6.833884e+01
   2.081867e+01   2.042225e+01
  -6.078994e+01   1.558564e+01
  -4.648010e+01  -5.305614e+00
   1.182445e+01  -3.011808e+01
   4.422909e+01  -4.780627e+01
   9.379512e+01   8.342147e+01
   4.312321e+01  -1.653073e+01
  -4.081326e+01   5.943581e+01
  -4.897696e+01   3.483223e+01
  -3.014409e+01  -8.554525e+00
  -3.531159e+01  -3.628358e+01
  -1.165547e+02   6.912664e+00
  -7.071089e+01  -2.393073e+01
  -1.230892e+02  -7.479161e+01
  -5.783270e+01  -6.843585e+01
   1.457080e+02  -8.300329e+01
   1.324628e+02   1.463029e+01
   4.447242e+01   2.435699e+01
   3.031887e+00   6.794751e+01
   1.202549e+01   7.556000e+01
  -5.201028e+00   1.568098e+00
   5.786625e+01  -2.283006e+01
   1.625754e+01   4.993349e+00
   2.189545e+01   5.784733e+01
  -4.377274e+01   6.215919e+01
  -2.838079e+01  -1.857268e+01
  -1.239627e+01  -3.859521e+01
   5.024379e+01   1.044879e+01
   9.121160e+00   3.661239e+01
   4.730096e+01   1.563860e+02
  -4.124607e+01   1.030467e+02
  -4.523610e+01  -4.810218e+00
  -5.786546e+01  -1.523788e+02
   1.662022e+01  -8.355914e+00
   5.589986e+01  -6.150932e+01
   2.946336e+01   1.758330e+01
   2.449255e+01  -1.496281e+01
   6.815268e+00  -1.567366e-01
  -8.016210e+00  -1.981917e+01
   1.649801e+01  -4.749921e+01
   5.626500e+01  -2.588648e+01
   3.456005e+01   2.061262e+00
  -2.009057e+01   2.389784e+01
  -5.124352e+01  -2.805187e+01
   6.626721e+01  -2.559690e+00
   5.447738e+01   1.684320e+01
   8.964584e+01   5.765657e+01
   1.119948e+01  -1.861149e+00
  -7.622813e+01   5.942331e+01
  -8.840589e+01   3.919330e+01
  -5.388211e+01  -2.664917e+01
   3.610951e+00  -7.321304e+00
   2.253269e+01  -4.247446e+01
   1.488818e+00   6.166116e+01
  -4.276389e+01   1.002415e+01
  -4.613030e+01  -3.327590e+01
  -4.249823e+01  -9.483972e+01
   3.429157e+01  -4.418128e+01
   6.043534e+00   2.204994e+00
  -5.797722e-01  -1.067844e+01
  -3.143362e+01   2.392374e+00
   3.255013e+01  -1.933763e+01
   1.089106e+01  -4.341398e+00
   5.917691e+01   3.509178e+01
   5.167553e+01   3.680439e+01
   2.828747e+01   5.995681e+01
  -4.718133e+01   7.787791e+01
  -2.866009e+01   8.929450e+00
   2.157202e+01  -3.155596e+01
   3.488992e+01   3.963054e+01
   3.335756e+01   1.160792e+01
   1.275102e+01  -1.102418e+01
  -3.554362e+01   6.782212e+00
  -2.304998e+01  -3.529686e+01
   1.429136e+01   1.089111e+01
   3.738133e+01   4.849133e+01
   3.911886e+00  -4.508958e+00
  -8.762351e+00   3.563165e+01
  -1.160899e+02  -1.188216e+01
  -3.784441e+01  -3.647263e+01
  -3.185909e+01  -4.765654e+01
  -2.547651e+01  -4.791906e+01
  -9.665879e-02  -2.558103e+01
   2.997245e+01   9.772147e+00
   1.002281e+01  -3.078450e+01
   3.884978e+01   3.059499e+01
   1.881117e+00   7.343371e+00
  -1.939477e+01   2.260585e+01
  -6.454866e+00   4.156950e-01
  -7.762880e+01   1.476090e+01
  -2.671510e+01  -1.640771e+01
   1.220440e+01  -3.589314e+00
   2.374058e+01  -1.742131e+01
   2.210531e+01   1.706299e+01
   5.227204e+01  -5.219059e+01
  -2.961188e+01   2.343871e+01
  -4.013808e+01   3.525317e+01
  -4.165482e+01  -3.890155e+01
  -4.289896e+01   3.910747e+00
   9.703622e+00  -8.436641e-01
  -3.143441e+01  -2.280652e+01
   2.577853e+01  -7.464409e+01
  -3.280551e+00   7.739384e-02
  -4.468196e-01   8.721253e-01
   3.381258e+01   5.017974e+01
   2.281863e+01   1.485741e+00
  -3.403085e+01  -7.535660e-01
   1.063659e+01   4.387286e+01
  -5.297254e+01  -4.990179e+00
  -3.002907e+01   5.857301e+00
   7.484344e+00  -3.113969e+01
   1.700625e+00  -3.119116e+01
   6.842082e+00  -8.166032e-01
  -4.700393e+00   4.573058e+01
   2.491833e+01   7.805536e+00
  -3.160415e+01  -3.508499e+01
  -2.420973e+01   1.795258e+01
   2.957865e+00   2.858872e+01
   2.108655e+01   1.386682e+01
  -3.444528e+01   1.372182e+01
  -6.746160e+01   5.826047e+00
   7.787683e+00  -7.602857e+00
   2.420468e+01   9.362120e-01
   3.655113e+01   1.684859e+01
   3.205307e+01  -3.297924e+01
  -3.986799e+01   3.716812e+01
  -5.387908e+01   3.516455e+01
  -2.224778e+00   6.222227e+00
  -9.940268e+00   1.505409e+01
   2.418412e+01   9.445422e+00
   1.343131e+01   1.156848e+01
  -8.344674e+00   2.370875e+01
  -1.996965e+01   8.183409e+00
   2.812413e+01   3.315693e+01
   2.218355e+01   2.106139e+01
  -6.002872e+01   4.926159e+01
  -4.945006e+01   4.182717e+01
  -5.153395e+01   2.062464e+01
  -4.880039e+01   3.037037e+01
  -6.077448e+00  -3.015534e+01
   4.842383e+01  -2.866847e+01
   3.377535e+01  -2.595664e+01
  -1.662675e+01  -1.508404e+01
   9.823874e+00   1.036050e+01
   3.402366e+01  -1.347467e+01
   3.421756e+01  -1.597309e+01
   4.325526e+01   6.371359e+01
   1.779650e+01   4.650085e+01
   2.825840e+01   2.636162e+01
  -1.752403e+00  -1.679366e+01
   2.785918e+01  -9.292115e+00
   1.477922e+00  -6.135780e+00
   2.102699e+01  -1.887450e+01
   4.967342e+01  -3.153430e+00
   9.107532e+00   2.386324e+00
  -3.269635e+01  -1.172920e+01
  -5.114353e+01  -5.731981e+01
  -6.710500e+01  -1.583526e+01
   6.562239e+01  -2.450980e+01
   3.120643e+01   1.132309e+01
   5.309636e+01   7.914106e+01
   1.438451e+01   7.991067e+01
   2.274403e+01   2.022949e+01
  -3.763497e+01  -1.288627e+01
   8.923201e+00  -2.509366e+01
  -1.857323e+01   2.589478e+01
  -9.259566e+00   1.870690e+01
  -1.137425e+01  -3.686710e+01
  -1.701696e+01   1.450300e+01
   1.891574e+01  -8.902899e+00
   9.001812e+01  -1.763964e+01
   1.161969e+01  -1.384036e+01
   2.020817e+01   3.186467e+01
  -3.699640e+01   3.323664e+01
  -3.680291e+01  -2.703578e+00
  -4.152416e+01  -3.923244e+01
  -1.929938e+01  -1.016306e+01
   1.286336e+01  -8.777533e+00
   2.648515e+01   1.104999e+01
  -6.667115e+01  -2.341042e+01
  -1.444466e+01   6.972790e+00
  -2.209347e+01   3.930283e+00
   2.065214e+01   3.965325e+01
  -2.099178e+01  -7.551855e+00
  -3.409579e+01   3.896425e+01
  -1.656762e+01  -1.508464e+01
  -2.713350e+01  -2.268902e+01
   4.027706e+01  -4.907512e+01
  -5.969068e+00   2.538811e+01
  -2.782317e+00   1.420370e+01
  -3.100932e+01   3.033067e+01
   6.036411e+00   4.646609e+01
   2.205894e+00  -4.695118e+01
  -2.979472e+01   2.680989e+00
   1.758617e+01   4.287170e+01
  -4.834619e+01  -9.241915e+00
  -3.276755e-01  -1.936336e+01
  -2.043423e+01  -7.272645e+00
   3.001926e+01   1.589309e+01
  -7.466973e+00  -9.011901e+00
  -1.038011e+01   2.044664e+01
   2.056699e+01   4.699646e+01
  -2.817267e+01   3.018748e+01
  -1.702854e+01   1.473716e+01
   2.450267e+01  -1.685320e+01
   1.695525e+01  -2.354626e+01
   3.199481e+01  -1.215020e+01
  -2.473525e+01   1.889439e+01
   3.042837e+00  -8.101607e-02
  -1.900063e+01  -2.088579e+01
   9.931155e+00  -9.967878e+00
   2.728080e+01   2.376489e+01
   3.146720e+01  -6.555969e+00
  -3.745302e+01   2.884531e+01
   5.258757e+00   1.205520e+01
  -2.473848e+01  -1.062299e+01
   1.170445e+01   9.337375e+00
   1.780137e+01  -1.402766e+01
   9.195379e+00   8.314355e-01
  -2.412470e+01   8.585025e+00
  -1.108086e+01   1.470499e+01
   6.025598e-01   4.270789e+00
  -3.266040e+00   1.356282e+01
  -1.483279e+01  -1.841889e+00
   1.139571e+01   3.329066e+01
   7.087650e+01  -1.856203e+01
  -1.199077e+01   5.024711e+00
   3.242157e+01   2.696495e+01
   1.642742e+01  -1.709633e+01
   8.801188e+00   2.616202e+00
  -4.644175e+00  -6.782896e-01
  -8.119474e+00   8.466150e+00
   5.110221e+00  -8.266987e+00
   5.357388e+00  -5.845404e+01
   2.292451e+01   1.199629e+01
  -2.331434e+00  -2.381179e+01
   6.122756e-01   1.949577e+01
   8.018105e-01   4.463926e+01
  -4.018097e+00   2.683069e+01
  -1.502803e+01  -8.051088e+00
  -2.064316e+01  -2.457016e+01
   3.338791e+01  -2.069920e+00
  -3.264954e+01   2.329450e+01
  -3.525147e+01   1.167724e+01
