
 $NMID
 id='ANONYMOUS ', fmtdat='(2E16.6)'
 volume=1.0
 tramp=1.0
 $END
  -2.455256e+03  -9.888886e+01
  -1.881499e+03  -1.001010e+03
   4.323288e+02  -1.622498e+03
   9.579915e+02  -7.869033e+02
   6.613187e+02   2.847947e+02
  -5.748038e+01   6.156513e+01
  -3.129966e+02  -1.440910e+02
  -3.862221e+00  -5.504882e+02
   4.843885e+02  -3.783895e+02
   6.298651e+02  -5.443433e+01
   3.341105e+02   5.507956e+02
  -8.166937e+01   5.643390e+02
  -4.340595e+02   1.452203e+02
  -2.665218e+02  -4.401490e+02
   1.629422e+02  -3.395258e+02
   3.262558e+02  -5.075594e+00
   1.306103e+02   4.553976e+02
  -2.058069e+02   4.369328e+02
  -3.984836e+02   1.688622e+02
  -2.636391e+02  -8.985286e+01
  -3.477409e+01  -3.019953e+02
   1.459671e+02  -1.738699e+02
   1.155988e+02  -5.833497e+01
  -1.341260e+02  -3.134173e+01
  -2.280030e+02  -1.488900e+02
  -6.318382e-01  -3.404822e+02
   3.707104e+02  -9.180955e+01
   5.166711e+02   2.002359e+02
   1.850393e+02   2.666901e+02
  -3.435018e+02   1.853507e+02
  -4.441258e+02  -1.022746e+02
  -2.074585e+02  -3.214653e+02
   3.150010e+02  -2.385825e+02
   3.998157e+02  -1.092156e+02
   2.336086e+02   1.277015e+02
  -1.348395e+01   2.268766e+02
  -6.495904e+01   2.051887e+02
   6.835703e+01  -1.401512e+02
   1.570302e+02  -1.834517e+02
   1.528858e+02   1.023663e+02
  -2.674804e+01   3.894925e+02
  -1.540262e+02   3.209591e+02
  -3.130766e+02  -2.814551e+01
  -9.321216e+01  -2.727987e+02
   1.312653e+02  -2.054059e+02
   1.912383e+02   2.084815e+02
  -3.373588e+01   3.694028e+02
  -3.551757e+02  -6.169704e+01
  -3.314328e+02  -3.203065e+02
  -1.334759e+02  -3.375896e+02
   2.570657e+02  -2.030424e+02
   3.891254e+02   1.267205e+02
   2.936203e+02   2.058801e+02
  -7.058472e+01   2.145180e+02
  -2.320707e+02   6.513013e+01
  -1.502317e+02  -9.640681e+01
   1.302513e+01  -6.414834e+01
   5.593433e+01   7.669277e+01
  -1.159997e+02   7.550026e+01
  -1.872028e+02  -9.647631e+01
  -9.150020e+01  -2.032503e+02
   1.865159e+02  -1.419890e+02
   3.050907e+02  -4.218915e+01
   1.914356e+02   8.008194e+01
  -2.775531e+01   2.283370e+02
  -2.199634e+02   2.166007e+02
  -2.840589e+02   6.274200e+01
  -1.861820e+02  -1.037474e+02
  -3.754167e+01  -2.816294e+02
   6.222191e+01  -2.375523e+02
   3.978710e+01  -1.432066e+02
   7.026659e+01  -5.462008e+01
   6.127793e+01  -7.139550e+01
   1.338227e+02   4.236339e+01
   1.536643e+02   5.290753e+01
   3.150771e+01   2.138750e+02
  -4.675621e+01   1.414887e+02
  -1.731697e+02  -1.010985e+02
  -7.839000e+01  -2.328379e+02
   6.618000e+01  -1.627769e+02
   1.910016e+02  -1.846395e+01
   2.492618e+02   1.164263e+02
   9.607594e+01   1.937821e+02
  -1.311206e+02   2.129043e+02
  -1.582679e+02   5.728302e+01
  -9.802188e+01   1.032641e+02
  -7.758882e+01   2.029730e+01
  -1.522803e+02   4.901903e+00
  -2.559446e+02  -1.117484e+02
  -1.602418e+02  -2.654053e+02
  -3.744141e+00  -3.256498e+02
   4.015137e+02  -3.054445e+02
   3.635532e+02  -4.407762e+01
   2.143085e+02   3.149576e+01
  -1.068491e+01   1.771772e+02
  -7.027703e+01   1.576702e+02
  -1.772887e+01   1.575892e+01
   7.577919e+01  -3.479666e+01
   9.627266e+01   5.131031e+01
   3.188423e+01   8.854492e+01
  -7.527647e+01   4.864366e+01
  -5.816146e+01  -5.896980e+01
   3.610938e+01  -1.061930e+02
   8.420993e+01   4.014486e+01
   1.025962e+02   1.167687e+02
  -7.294832e+01   3.232810e+02
  -2.023202e+02   1.494564e+02
  -2.998224e+02  -1.408578e+02
  -2.142748e+02  -2.211774e+02
  -4.600698e+01  -1.933695e+02
   1.083501e+02  -1.038708e+02
   1.438519e+02   4.267369e+01
   5.348618e+01   1.819782e+01
  -4.889868e+01  -3.303585e+01
  -1.857468e+01  -1.079676e+02
   1.044755e+02  -7.137911e+01
   1.283022e+02   8.508400e+01
   1.420372e+00   4.970069e+01
  -4.820037e+01  -7.849426e-01
  -2.780899e+01  -8.085819e+01
   1.091788e+02  -2.897745e+01
   1.898298e+02  -2.812166e+01
   1.853723e+02   1.069117e+02
   4.746088e+01   1.891181e+02
  -1.611587e+02   1.743706e+02
  -1.993253e+02   4.838436e+01
  -9.581379e+01  -2.318939e-01
   2.571377e+01  -1.007294e+02
   1.067990e+02   3.220973e+01
  -1.037843e+00   4.156157e+01
  -1.067627e+02   1.355918e+01
  -1.364389e+02  -7.529587e+01
  -1.872532e+01  -1.186415e+02
   5.807014e+01  -9.289997e+01
   1.330219e+02   9.920669e+00
   2.409880e+01   2.709533e+01
  -1.643160e+01  -2.223285e+01
   4.694561e+01  -5.892979e+01
   3.635551e+01  -8.087427e+01
   1.210956e+02   6.125842e+00
   1.099978e+02   1.353688e+02
  -2.200389e+01   1.576271e+02
  -1.202734e+02   1.445644e+02
  -1.376182e+02  -8.007871e+00
   2.156840e+01  -9.836943e+01
   1.039703e+02  -8.665803e+01
   6.880460e+01   7.945933e+00
   6.517450e-01   2.273558e+01
   5.551214e-01   5.308084e+00
   3.393508e+00   8.140660e+00
   4.885876e+01  -8.387661e+00
   5.558486e+01   6.434117e+01
   4.224596e+01   1.149038e+02
  -1.493243e+02   1.239559e+02
  -1.784044e+02  -1.107821e+01
  -1.139192e+02  -9.028797e+01
   2.520606e+01  -1.317031e+02
   5.440755e+01  -1.050778e+02
   8.733653e+01  -3.485267e+01
   9.377455e+01   4.122418e+01
   7.561242e+01   3.344459e+01
  -3.086148e+00   1.349586e+01
   4.679817e+01   9.207578e+00
  -4.916139e-01   4.076751e+01
   1.745781e+01   7.649922e+01
  -8.034663e+01   5.710914e+01
  -7.731544e+01  -3.627561e+01
   6.583697e+00  -6.769833e+01
   1.398351e+02  -4.857489e+01
   1.312852e+02   8.308501e+01
   7.222137e+01   1.561550e+02
  -9.895410e+01   1.839014e+02
  -1.600526e+02   5.134780e+01
  -1.917061e+02  -9.190303e+01
  -9.421759e+01  -8.024215e+01
   3.446703e+01  -8.904165e+01
   5.038184e+01  -2.036553e+01
   5.788221e+01  -7.783074e+01
   4.375865e+01  -5.711090e+01
   7.251235e+01  -5.974827e+01
   7.720685e+01   5.145986e+01
   4.471153e+01   1.452723e+02
  -2.241447e+01   1.974327e+02
  -6.130786e+01   1.277661e+02
  -1.376981e+02  -5.381684e+01
  -1.118302e+02  -8.194400e+01
  -4.549864e+01  -1.101704e+02
   5.359262e+01  -1.045429e+02
   7.139950e+01   4.404546e-01
   1.969136e+01   2.012630e+01
  -5.003531e+00   1.271017e+00
   4.267993e+00   1.213075e+01
   4.419407e+01   1.663944e+01
   3.058448e+01   2.167048e+01
  -2.794526e+01   7.308556e+01
  -1.308219e+02   1.077324e-01
  -9.430258e+01  -5.735694e+01
   2.326310e+01  -6.915498e+01
   1.543783e+02  -3.775604e+01
   1.115121e+02   5.627536e+01
   2.960055e+01   5.450000e+00
  -7.023130e+01   7.458270e+01
  -1.033830e+01  -1.243732e+01
   1.219215e+01  -4.398255e+00
   2.447466e+01  -2.158848e+01
   2.257783e+01  -7.179962e+01
   3.238355e+01   4.552713e+01
   7.002055e+01   7.635640e+01
   3.938873e+01   2.383063e+01
   3.210997e+01  -1.234829e+01
   2.629924e-02   8.375378e+01
  -8.909802e+01   1.163610e+02
  -1.195302e+02   6.712416e+01
  -1.311516e+02  -1.784228e+00
  -8.518198e+01  -8.693918e+01
   3.938112e+01  -9.092200e+01
   7.183204e+01  -1.284717e+01
   6.293476e+01   7.437400e+00
  -3.378451e+00   9.257750e+00
  -1.396480e+02  -3.496320e+01
  -7.977190e+01  -4.530936e+01
   5.849305e+01   2.431711e+00
   1.512616e+02  -5.545534e+00
   1.410435e+02   3.502409e+01
   2.382005e+01   4.333845e+01
  -4.445433e+01   6.180763e+01
  -3.622070e+01  -4.157468e+01
   1.437727e+01   1.272676e+01
   1.008345e+02   1.697537e+01
  -1.181515e+01   9.631342e+01
  -7.586841e+01   1.101124e+02
  -1.323656e+02   4.235424e+01
  -7.592801e+01  -5.333274e+01
  -3.562175e+01  -1.060708e+02
   5.552046e+01  -3.424743e+01
   6.929298e+01   2.745211e+01
   8.086581e+01   1.231572e+02
   1.642349e+00   8.853332e+01
  -8.453435e+01  -5.612239e+00
   7.971524e+00  -3.755515e+01
  -4.830391e+01  -6.139439e+00
  -1.723793e+01   4.239665e+01
  -4.524454e+01   6.206013e+00
  -3.439007e+01  -4.066196e+01
   5.942094e+00  -7.952402e+01
   3.547620e+01  -5.646580e+01
   8.986083e+01   4.510784e+01
   1.343914e+02   4.584535e+01
   4.128643e+01   7.388773e+01
  -6.132879e+01   3.977511e+01
  -3.866823e+01   1.454122e+01
  -9.810137e-02  -2.903567e+01
   5.074676e+01  -3.392497e+01
  -3.618503e+01  -1.755858e+01
   2.062234e+01   4.513708e+01
   1.527000e+01   1.115472e+01
   6.065057e+01   3.307991e+01
   7.353743e+01   2.161110e+01
   1.633817e+01   4.123573e+01
  -1.181286e+02   8.597559e+01
  -1.168125e+02   5.152862e+01
  -1.138430e+02  -5.641502e+01
  -5.865887e+00  -7.482070e+01
   8.097665e+01  -6.367207e+01
   6.890223e+01  -2.083727e+01
   4.026487e+01   6.231194e+01
   4.624730e+01   9.656522e+00
  -9.858281e-01  -1.532780e+01
  -1.379590e+01   1.112747e+01
  -2.172293e+00   2.487768e+01
  -2.138796e+01   1.162464e+02
  -5.594911e+01   4.447026e+01
   4.369903e+00  -2.300395e+01
  -1.003613e+02  -8.526148e+01
  -1.182716e+01  -7.705930e+01
   3.530344e+01  -1.475157e+01
   6.109595e+00   2.866934e+01
   3.996334e+01   8.570989e+01
  -5.985116e+01   5.301054e+01
  -1.239018e+02  -2.252060e+01
  -1.454158e+01  -8.324274e+01
   2.479122e+01  -1.587760e+01
  -3.766615e+00  -1.403781e+01
  -3.442014e+01  -2.029583e+01
  -6.591933e+01   1.798005e+01
  -1.428257e+01  -4.248160e+01
  -6.238368e+00  -3.969170e+01
   4.067746e+01  -2.669232e+01
   4.750235e+01   3.819562e+01
  -1.087476e+01   5.523903e+01
  -7.202582e+01   2.428147e+01
  -4.735219e+01  -2.293320e+01
   3.290153e+01  -1.103570e+01
   9.862473e+00  -4.263127e+01
   7.624390e+01   4.564945e+01
   4.896188e+01   6.636841e+01
  -2.844060e+01   2.559161e+01
  -5.456842e+01  -5.578999e+01
  -3.310417e+01  -3.245614e+01
  -4.090607e+01   5.161364e+00
  -1.229618e+01   6.459077e+01
  -8.783698e+00   1.815582e+01
   5.172103e+00  -5.728835e+01
   3.567948e+01  -2.671929e-01
   1.474709e+01  -2.649060e+01
   3.127531e+01   6.689647e+01
   1.794013e+01   3.671391e+01
  -1.118279e+01   6.879544e+00
  -3.335374e+01  -4.376838e+01
  -2.501627e+01  -6.401971e+01
   4.105431e+00  -4.733454e+01
   2.778445e+01   2.892974e+01
  -1.251171e+01   6.601157e+01
  -2.226461e+01   6.049516e+01
  -6.270476e+01   1.780430e+01
  -1.060157e+01  -2.481670e+01
   2.993965e+01  -2.866097e+01
   4.116483e+01   5.086988e+01
  -3.249832e+01   3.177563e+01
  -4.632494e+01   3.329477e+00
