
 $NMID
 id='ANONYMOUS ', fmtdat='(2E16.6)'
 volume=1.0
 tramp=1.0
 $END
  -3.168536e+03   4.242873e+02
  -1.718858e+03  -1.115992e+03
  -2.301929e+02  -1.711981e+03
   9.668982e+02  -9.344017e+02
   9.775191e+02  -1.487282e+02
  -1.530935e+02   1.301706e+02
  -2.517140e+02  -1.463597e+01
  -2.997221e+01  -3.332341e+02
   3.990072e+02  -4.634351e+02
   4.265918e+02  -7.250254e+01
   1.591983e+02   4.273664e+02
   1.417397e+01   5.266169e+02
  -2.078798e+02   1.039980e+02
  -1.662130e+02  -4.276161e+02
   1.508091e+02  -4.574130e+02
   3.494840e+02  -1.288153e+00
   2.267687e+02   3.999867e+02
  -1.541761e+02   6.379887e+02
  -4.027994e+02   3.665960e+02
  -3.551009e+02  -1.475077e+02
  -1.311942e+02  -3.182089e+02
   6.768804e+01  -2.064977e+02
   5.790299e+01  -7.351091e+01
  -2.087250e+02  -1.209015e+02
  -2.096538e+02  -2.495434e+02
   6.713542e+00  -3.089254e+02
   5.123236e+02  -5.131724e+01
   4.559151e+02   2.738112e+02
   1.526443e+02   3.728913e+02
  -2.853010e+02   8.536220e+01
  -4.422514e+02  -9.526896e+01
  -1.170136e+02  -2.273971e+02
   2.872459e+02  -3.430759e+02
   3.455103e+02  -1.470701e+02
   3.215994e+02   8.388977e+01
   3.565978e+01   2.751132e+02
   1.605383e+01   1.561899e+02
   3.835778e+01  -1.174636e+02
   2.382978e+02  -9.107897e+01
   1.038340e+02   1.631071e+02
   3.801133e+01   4.430673e+02
  -1.714237e+02   3.053294e+02
  -3.157358e+02  -7.982852e+01
  -6.474903e+01  -3.144352e+02
   7.678727e+01  -8.272694e+01
   1.372268e+02   2.306473e+02
  -1.243452e+02   2.697597e+02
  -4.205047e+02   8.078953e+01
  -3.966660e+02  -4.244402e+02
  -1.194217e+02  -5.186943e+02
   2.551264e+02  -1.778745e+02
   4.737783e+02   6.898351e+01
   2.586109e+02   2.467305e+02
  -7.003320e+01   1.524310e+02
  -2.285889e+02   3.874428e+01
  -1.640515e+02   1.625611e+01
  -2.949002e+01   1.395747e+01
   3.741594e+00  -1.675061e+00
  -3.030437e+01  -1.891243e+01
  -1.681515e+02  -5.882096e+01
  -1.027265e+02  -1.732457e+02
   1.305796e+02  -2.011376e+02
   3.462422e+02  -1.507715e+02
   2.349199e+02   7.025138e+01
  -4.823679e+01   3.216488e+02
  -2.229405e+02   3.430398e+02
  -3.016274e+02   7.037623e+01
  -1.975869e+02  -9.582825e+01
  -7.653409e+00  -2.397221e+02
   3.030093e+01  -2.823898e+02
   2.939838e+01  -1.389810e+02
   7.303277e+01  -9.294595e+01
   1.891643e+02  -1.316929e+02
   2.111123e+02  -2.106971e+01
   1.886051e+02   1.374823e+02
   7.218360e+01   2.294202e+02
  -1.082327e+02   1.634564e+02
  -1.184483e+02  -4.911282e+01
  -5.077530e+01  -2.081348e+02
   5.921395e+00  -1.642423e+02
   2.482080e+02  -3.581967e+01
   2.693744e+02   1.068556e+02
   1.160068e+02   2.777281e+02
  -3.408583e+00   2.219101e+02
  -1.438732e+02   1.127373e+02
  -9.023659e+01   1.405499e+02
  -1.335953e+02   3.887910e+01
  -2.350213e+02  -1.212459e+01
  -3.414656e+02  -7.285402e+01
  -3.457626e+02  -2.934789e+02
   1.013279e+02  -3.410862e+02
   3.290580e+02  -4.039222e+02
   4.260464e+02  -1.653477e+02
   2.538206e+02   8.491151e+01
   1.039706e+01   2.045744e+02
  -9.578208e+01   1.786777e+02
  -2.578527e+01   2.758732e+01
   9.976294e+01  -6.575179e+01
   1.351606e+02  -1.556304e+01
  -4.867535e+01   9.057144e+01
  -8.402498e+01   7.242422e+01
  -7.962728e+01  -5.120844e+01
   3.206509e+01  -8.069078e+01
   1.502593e+02   5.196954e+00
   1.106680e+02   1.870360e+02
   3.916654e+00   2.704397e+02
  -1.894309e+02   9.523081e+01
  -2.975105e+02  -7.515374e+01
  -3.043068e+02  -2.858682e+02
   3.490419e+01  -2.345378e+02
   1.221906e+02  -1.395075e+02
   1.857849e+02   3.834154e+00
   3.089167e+01   1.401630e+01
  -6.136487e+01  -5.448395e+01
   1.708269e+01  -7.638764e+01
   1.351603e+02   1.056542e+01
   1.254206e+02   1.055833e+01
   2.260481e+00   7.581326e+01
  -6.890179e+01  -2.890755e+01
  -2.537554e+01  -1.145056e+02
   1.449391e+02  -7.083792e+01
   2.318862e+02   2.602718e+01
   2.239280e+02   1.678038e+02
   2.089120e+01   2.057864e+02
  -1.805985e+02   2.079096e+02
  -2.537285e+02   8.218884e+01
  -9.418663e+01   8.400373e+00
   2.236242e+01  -8.063702e+01
   2.390227e+01   1.417888e+01
  -8.539441e+01   8.986947e+01
  -1.304082e+02   3.175704e+01
  -1.904831e+02  -4.390813e+01
  -1.049326e+02  -1.656625e+02
   1.114340e+02  -9.129707e+01
   1.559675e+02  -4.123220e+00
   5.946862e+01   3.995003e+00
  -5.333137e+01  -2.689391e+01
  -2.636128e+01  -1.042811e+02
   8.264037e+01  -1.447692e+02
   1.891360e+02  -2.045668e+00
   1.091961e+02   1.129144e+02
   5.693948e+00   1.767091e+02
  -1.909060e+02   1.360943e+02
  -1.554573e+02  -1.725576e+01
  -6.471595e+01  -8.408411e+01
   5.996640e+01  -9.037730e+01
   9.388147e+01  -4.238924e+01
   2.892235e+01   2.858918e+01
  -2.721650e+01  -2.377201e+01
  -9.968143e+00  -4.014278e+00
   1.276655e+02  -2.065434e+00
   1.034551e+02   1.163522e+02
  -1.558559e+01   1.789513e+02
  -1.417182e+02   1.754402e+02
  -2.044822e+02  -3.787120e+01
  -1.175390e+02  -1.274971e+02
  -5.172119e+00  -2.308602e+02
   1.348019e+02  -1.066909e+02
   7.557006e+01  -4.714087e+01
   6.412742e+01   1.592875e+01
   6.373251e+01  -2.481628e+01
   8.720574e+01   1.825643e+01
   2.469335e+01   1.821965e+00
   5.995598e+01   4.640752e+01
  -4.017075e+01   1.086321e+02
  -8.193794e+01   1.149566e+02
  -1.214332e+02  -1.210078e+01
  -3.320948e+01  -1.030117e+02
   1.677410e+02  -7.985564e+01
   1.967618e+02   7.765770e+01
   6.619739e+01   2.068035e+02
  -1.489584e+02   1.600040e+02
  -2.202620e+02   4.627453e+01
  -2.286141e+02  -8.035402e+01
  -7.314757e+01  -9.758013e+01
   2.697177e+01  -9.616927e+01
   1.157571e+02  -1.020236e+02
   1.112581e+01  -2.283305e+01
   7.862970e+01  -7.109290e+01
   1.039673e+02  -8.949749e+01
   1.191726e+02   3.588423e+01
   5.574418e+01   9.266367e+01
   2.872749e+01   2.239494e+02
  -8.638407e+01   1.690191e+02
  -1.567305e+02  -2.992074e+01
  -1.222817e+02  -8.790097e+01
   3.056160e+01  -1.797255e+02
   5.082110e+01  -8.572026e+01
   5.980099e+01  -5.890823e+00
  -8.703799e+00   7.225448e+01
  -1.081658e+01   4.605143e+01
   1.478935e+01   1.961879e+01
   8.570265e+01   1.410625e+01
   7.007225e+01   5.025478e+01
  -6.595000e+01   8.012133e+01
  -1.611035e+02   2.531769e+01
  -1.439416e+02  -1.033745e+02
  -3.934099e+00  -9.990114e+01
   1.317744e+02  -4.991572e+01
   2.044660e+02   1.783701e+01
   4.561917e+01   5.726952e+01
  -2.994081e+01   5.535976e-01
  -5.540804e+01  -1.707843e+01
   1.409168e+01  -9.875923e+01
   5.445128e+01  -4.403882e+01
   3.528303e+01   7.474008e+00
   6.950601e+01   3.080047e+01
   4.249142e+01   4.740910e+01
   5.551985e+01   2.165211e+01
   7.217791e+01  -2.745901e+01
   4.110725e+01   6.034854e+01
  -5.618987e+01   1.563112e+02
  -9.200044e+01   1.756298e+02
  -1.640022e+02   5.365637e+00
  -8.740724e+01  -9.023750e+01
  -2.646335e+01  -1.329182e+02
   8.106396e+01  -2.745917e+01
   3.438684e+01  -1.463533e+00
  -5.029816e+01   2.992185e-01
  -1.366138e+02  -6.279153e+01
  -3.187301e+01  -7.051603e+01
   1.112487e+02  -8.681875e+01
   1.675144e+02   5.324436e+00
   7.869879e+01   1.023201e+01
   4.842809e+00   7.517449e+01
  -8.364199e+01   5.334119e+00
  -5.235439e+01  -4.085179e+01
   3.280115e+01  -5.693010e+01
   1.910543e+01   4.772707e+01
   4.786997e+01   1.151900e+02
  -6.212227e+01   1.010889e+02
  -1.196168e+02   4.220962e+01
  -9.431257e+01  -8.501383e+01
   9.876618e+00  -1.443367e+02
   3.793185e+01  -1.234902e+02
   1.517185e+02   4.374805e+01
   7.734048e+01   1.114568e+02
  -1.611283e+01   9.760530e+01
  -6.079068e+01   2.706854e+01
  -3.496433e+01  -7.119916e+01
   5.582645e+00   1.787999e+00
   5.665525e+00   1.271227e+01
  -5.336796e+01   6.623435e+00
  -6.047772e+01  -5.800024e+01
  -4.752969e+01  -1.207673e+02
   1.398350e+01  -3.180198e+00
   1.461439e+02  -2.039508e+01
   7.890441e+01   6.073011e+01
   7.334567e+00   4.121950e+01
  -7.714110e+01   5.747275e+01
  -6.787781e+01   1.018703e+01
  -3.551771e+01  -2.898805e+00
   2.310314e+01   1.016490e+01
  -5.227148e+00  -3.126217e+01
  -3.719626e+01  -2.466919e+01
   1.925592e+01   1.607445e+01
   5.430617e+01  -3.147835e+01
   1.008790e+02   3.540694e+01
  -4.823062e+01   7.469657e+01
  -6.225212e+01   6.418192e+01
  -1.730942e+02   6.743074e+01
  -1.571561e+02  -9.507025e+01
  -2.699449e+01  -1.537548e+02
   8.523064e+01  -1.493200e+02
   1.198940e+02  -4.721762e+01
   5.661738e+01  -2.281227e+00
   4.834588e+01   1.879583e+01
   1.015079e+01   1.362653e+01
   1.988967e+01  -1.308385e+01
   2.986776e+01   3.119107e+01
   3.635732e+01   5.372839e+01
  -1.370862e+01   4.180802e+01
  -8.531599e+01  -3.171183e+00
  -5.070390e+01  -7.799937e+01
  -1.114827e+01  -1.236322e+02
   5.658449e+01  -5.552487e+01
   1.134064e+02   8.249952e+01
   1.120243e+01   7.212422e+01
  -9.766588e+01   7.297226e+01
  -8.520160e+01   4.480877e+01
  -4.014940e+01  -9.392928e+01
   6.852884e+01  -7.683843e+01
   1.740254e+01  -6.720707e+01
  -7.489296e+01   3.924715e+01
  -5.470871e+01  -1.482072e+01
   2.387863e+00  -3.351869e+01
   7.173798e+01  -1.988365e+01
   9.696432e+01  -9.682472e+01
   1.301050e+02   2.052645e+01
  -7.894216e+00   6.777531e+00
  -3.119959e+01   1.129659e+02
  -4.357578e+01   5.706635e+01
   1.922084e+01  -2.111734e+01
   7.814031e+00  -2.964244e+01
   3.719116e+01  -6.512614e+00
   2.289355e+01   3.688423e+01
   1.099122e+01   1.584471e+01
  -1.275119e+01  -1.189389e+01
   1.141693e+01  -4.127373e+01
  -5.999647e+01   1.708832e+01
   1.694460e+01   9.022834e+00
  -8.567767e+00   5.188309e+01
   2.539703e+01  -5.139300e+01
  -1.354493e+01  -9.134160e+01
  -6.666813e+00  -3.259192e+01
   5.980578e+01   4.144788e+01
  -5.277299e+00   5.372425e+01
  -5.245183e+01   5.797933e+01
  -5.885336e+01  -4.742481e+01
   3.205987e+01  -6.708026e+01
   8.535826e+01  -2.400993e+01
   9.039108e+01  -6.855241e+00
   5.351219e+01   3.998130e+01
  -1.910343e+01   3.246423e+01
  -5.625905e+01   3.361941e+01
  -2.646962e+01  -1.055432e+01
   5.225527e+01   1.677935e+00
   5.147585e+01  -1.879674e+00
  -2.293081e+01   3.315112e+01
  -5.441606e+01   2.540808e+01
