
 $NMID
 id='ANONYMOUS ', fmtdat='(2E16.6)'
 volume=1.0
 tramp=1.0
 $END
  -2.297454e+03  -3.318593e+01
  -2.027573e+03  -1.552195e+03
  -5.785285e+02  -1.302889e+03
   8.918010e+02  -1.348807e+03
   6.762246e+02  -2.507687e+02
   1.960207e+01   3.847812e+01
  -3.308777e+02   2.854842e+01
   4.185331e+00  -3.144368e+02
   3.104478e+02  -3.485415e+02
   5.556399e+02  -2.177885e+02
   3.534558e+02   3.134517e+02
   8.925002e+00   4.709293e+02
  -1.462858e+02   1.326590e+02
  -2.306938e+02  -1.996828e+02
   3.268716e-01  -3.014401e+02
   3.401220e+02  -1.411709e+02
   2.667589e+02   2.340752e+02
   1.814587e+01   4.723867e+02
  -2.938179e+02   2.551499e+02
  -4.615462e+02  -6.427487e+01
  -3.267413e+01  -2.908498e+02
   4.572172e+01  -1.923746e+02
   4.394355e+01  -3.460997e+01
  -1.151895e+02  -9.190996e+01
  -2.135766e+02  -2.852843e+02
   7.717457e+01  -2.657948e+02
   3.171238e+02  -9.989340e+01
   4.446230e+02   7.128708e+01
   1.208792e+02   2.629723e+02
  -3.329280e+02   7.558966e+01
  -2.977161e+02  -1.197439e+02
  -1.739339e+02  -3.149431e+02
   2.639723e+02  -2.310940e+02
   3.717481e+02  -2.022328e+01
   2.627292e+02   1.461598e+02
   2.499969e+01   2.494822e+02
  -6.476869e+01   3.459673e+01
   8.058326e+01  -5.664054e+01
   1.896724e+02  -1.147651e+02
   1.801857e+02   1.137374e+02
  -1.181889e+02   3.266983e+02
  -9.259893e+01   4.233690e+02
  -2.326567e+02   3.202155e+01
  -7.871636e+01  -1.996574e+02
   7.968755e+01  -1.059393e+02
   6.624992e+01   2.798709e+02
  -1.368053e+02   3.241000e+02
  -3.253296e+02   6.157582e+01
  -3.307614e+02  -2.624698e+02
  -1.542877e+02  -3.471610e+02
   2.719025e+02  -1.467343e+02
   4.694679e+02   1.262202e+02
   2.688920e+02   1.526678e+02
  -1.884875e+01   2.040403e+02
  -1.939700e+02   9.565436e+01
  -1.679568e+02  -3.209954e+01
   6.989491e+00   3.142919e+01
   5.700024e+01   8.637538e+01
  -7.415084e+01   6.221428e+01
  -1.404569e+02  -5.556098e+01
  -8.606794e+01  -1.602763e+02
   6.857711e+01  -1.918239e+02
   2.580900e+02  -9.557249e+01
   2.230617e+02   1.889865e+01
  -3.851973e+01   2.635231e+02
  -2.757826e+02   3.420446e+02
  -3.375178e+02   1.743307e+02
  -1.770424e+02  -1.686525e+02
  -2.685397e+01  -2.774889e+02
  -4.260922e+01  -2.242897e+02
   5.320804e+01  -1.236277e+02
   2.676229e+01  -1.139446e+02
   1.009957e+02  -9.454455e+01
   1.669831e+02   1.901672e+01
   1.851505e+02   9.281683e+01
   4.898674e+01   2.273613e+02
  -1.038583e+02   1.755856e+02
  -1.508316e+02  -2.685315e+01
  -8.016982e+01  -2.121770e+02
   4.446605e+01  -1.816129e+02
   2.158010e+02  -5.245397e+01
   3.004029e+02   1.618512e+02
   1.371828e+02   2.485686e+02
  -3.363914e-01   2.376425e+02
  -9.428453e+01   1.464224e+02
  -1.313149e+02   5.669061e+01
  -7.754267e+01   1.006011e+02
  -2.164151e+02   7.577399e+01
  -3.308316e+02  -7.632628e+01
  -2.263177e+02  -2.388712e+02
  -1.317641e+01  -3.541222e+02
   4.127198e+02  -3.487664e+02
   4.430784e+02  -8.938485e+01
   2.141042e+02   7.236485e+01
   2.635077e+01   1.752400e+02
  -6.684998e+01   1.514771e+02
  -1.369502e+01   1.208705e+01
   6.262385e+01   1.699332e+00
   7.743984e+01   7.820613e+01
  -2.795033e+01   1.354039e+02
  -6.976046e+01   3.863250e+01
  -5.362455e+01  -8.683261e+01
   5.068591e+01  -9.563494e+01
   1.255621e+02  -1.808106e+01
   9.818273e+01   1.615342e+02
  -5.522342e+01   2.675063e+02
  -1.864543e+02   2.113118e+02
  -2.496774e+02  -2.065042e+01
  -1.534962e+02  -1.822947e+02
  -9.060863e+01  -2.451473e+02
   1.177502e+02  -8.872782e+01
   9.697962e+01  -3.451065e+00
   1.160759e+01   3.014931e+00
  -5.300766e+01  -7.697208e+01
   3.211029e+01  -1.303480e+02
   1.169909e+02  -6.247666e+01
   8.203660e+01   2.705488e+01
  -1.735887e+01   9.262635e+01
  -6.622708e+01  -3.735211e+01
   1.495140e+01  -5.238524e+01
   1.165262e+02  -3.549608e+01
   2.669525e+02   5.784425e+01
   2.010634e+02   1.680617e+02
   6.675532e+01   1.979726e+02
  -1.973355e+02   1.679182e+02
  -1.377536e+02   9.101061e+01
  -9.125010e+01  -4.227989e+01
   3.476152e+00  -6.194511e+01
   8.852112e+01  -1.657468e+01
   6.081453e+00   3.097438e+01
  -1.990811e+02   1.117344e+01
  -1.381088e+02  -7.108133e+01
  -4.142809e+01  -1.348246e+02
   1.030935e+02  -8.551712e+01
   8.987406e+01  -1.093326e+01
   5.371349e+01   3.344949e+01
  -5.296411e+00   4.303641e+00
  -3.212582e+01  -8.199216e+01
   5.997344e+01  -1.077237e+02
   1.891323e+02   2.795677e+01
   1.373731e+02   1.196824e+02
  -3.002977e+00   1.781515e+02
  -1.331714e+02   9.287114e+01
  -1.529730e+02  -2.865632e+01
  -1.489843e+01  -8.670016e+01
   7.749635e+01  -6.971786e+01
   6.532573e+01  -4.137499e+01
  -2.247524e+01   2.470329e+01
  -2.364937e+01   2.419810e+00
   3.972953e+01  -2.748186e+01
   5.790149e+01  -6.722073e+00
   8.277123e+01   8.556135e+01
   2.303231e+01   1.493915e+02
  -1.108907e+02   1.206461e+02
  -2.022621e+02  -6.835966e+00
  -1.493158e+02  -1.149826e+02
  -1.812605e+01  -1.578321e+02
   9.663171e+01  -1.215644e+02
   1.480417e+02  -2.831970e+01
   7.575633e+01   2.252062e+01
   5.042475e+01   2.183782e+01
   4.405570e+01   1.098953e+01
   6.061821e+01   1.566880e+00
   5.219691e+01   3.551679e+01
  -2.111715e+01   1.135093e+02
  -1.373781e+02   5.861259e+01
  -9.199760e+01  -7.982047e+01
   3.708480e+01  -9.375315e+01
   1.014215e+02  -8.612382e+01
   1.487181e+02   6.435787e+01
   7.140498e+01   1.518130e+02
  -1.187004e+02   1.760863e+02
  -1.965275e+02   1.188051e+02
  -2.418250e+02  -1.001035e+02
  -4.996799e+01  -9.011079e+01
   1.155543e+01  -1.257191e+02
   6.658911e+01  -7.177986e+01
   4.702454e+01  -1.782914e+01
   7.606684e+01  -4.942736e+01
   8.552550e+01  -7.429206e+01
   1.381604e+02   2.967035e+01
   1.257915e+02   1.212403e+02
  -1.034137e+01   1.952888e+02
  -4.792123e+01   1.290765e+02
  -1.340683e+02   3.258156e+01
  -1.077125e+02  -7.449871e+01
   9.304087e+00  -1.238644e+02
   2.553900e+01  -8.834608e+01
   8.727106e+01   6.433183e+00
  -4.089393e+01   3.850014e+01
  -2.689932e+01   1.597485e+01
   4.151680e+00  -7.590713e+00
   8.720631e+01  -5.025498e+00
   5.131106e+01   5.637429e+00
  -7.660606e+01   2.989120e+01
  -1.308232e+02   1.778027e+01
  -5.413859e+01  -2.902483e+01
   4.247728e+01  -5.897564e+01
   1.200073e+02  -3.638484e+01
   8.648297e+01   8.767655e+00
   5.881017e+01   4.803664e+01
  -3.806074e+01   8.713129e+01
  -6.451598e+01  -1.562006e+01
  -2.325156e+01  -9.946572e+01
   1.957988e+01  -3.419999e+01
   9.523320e+01   1.869607e+01
   7.824234e+01   2.689837e+01
   6.177563e+01   7.131757e+01
   5.831825e+01   8.172539e+00
   7.779912e+01   4.766103e+00
   5.150569e+01   5.013087e+01
   6.160148e-01   1.260072e+02
  -1.071403e+02   1.016312e+02
  -1.006109e+02   1.615920e+01
  -7.978780e+01  -6.260711e+01
   9.609310e+00  -8.858023e+01
   8.780896e+01  -7.572617e+01
   3.787532e+01   2.110734e+01
  -7.098237e+01  -1.136136e+00
  -1.127018e+02  -6.315671e+01
  -1.107551e+02  -6.208262e+01
   8.345805e+01  -1.103525e+02
   1.145568e+02  -3.428758e+01
   9.816891e+01   1.892531e+01
   4.097192e+00   6.961588e+01
  -1.081782e+02   4.075248e+01
  -4.665446e+01   7.248233e+00
   5.300368e+01  -3.767038e+01
   8.290373e+01   2.635392e+01
   2.263922e+01   1.005303e+02
  -1.560084e+01   1.283728e+02
  -1.177475e+02   5.286500e+01
  -1.343739e+02  -3.143787e+01
  -1.583685e+01  -1.256680e+02
   7.715512e+01  -7.909392e+01
   9.794324e+01   3.545838e+01
   7.364834e+01   1.171712e+02
   3.304075e+01   6.969778e+01
  -4.079399e+01   4.636581e+01
  -4.778410e+01  -2.995956e+01
  -5.530905e+00   3.035762e+01
   7.508970e+00  -5.927653e+00
  -1.145083e+01  -2.770004e+01
  -5.438898e+01  -8.185914e+01
  -6.057387e+01  -7.546743e+01
   6.199024e+01  -3.508985e+01
   1.165814e+02   5.126110e+01
   1.046239e+02   7.949684e+01
  -2.706221e+01   6.691837e+01
  -5.984778e+01   2.673311e+01
  -6.695803e+01   9.721657e+00
  -3.823440e+01   1.010898e+00
   1.091155e+01  -7.916168e+01
   1.597879e+01   4.334971e+01
  -1.340243e+01  -2.031035e+01
  -1.097726e+00   2.301398e+01
   3.752904e+01   1.325335e+01
   9.053851e+01   2.264518e+01
   1.881175e+00   3.940786e+01
  -6.131499e+01   1.038933e+02
  -1.381480e+02   7.185979e+01
  -1.143876e+02  -3.802528e+01
   3.412003e+00  -1.353870e+02
   6.895845e+01  -1.364006e+02
   7.875302e+01  -1.009007e+02
   6.848810e+01   6.784881e+01
   1.723419e+01   2.301646e+01
  -1.044637e+01   1.119430e+01
   1.547561e+01   9.757312e+00
   3.834334e+01   4.255707e+01
   3.872945e+01   2.390072e+01
  -1.015239e+01   6.738147e+01
  -3.521840e+01  -2.018402e+01
  -4.376052e+01  -9.147598e+01
  -7.413686e+00  -8.480325e+01
   4.340120e+01  -6.373780e+01
   5.552155e+01   2.610339e+01
   5.475501e+01   8.239591e+01
  -1.854186e+01   5.517552e+01
  -8.142105e+01   1.507623e+00
  -6.136669e+01  -6.103069e+01
   1.279997e+01  -1.461199e+01
   3.830390e+01  -1.418811e+01
  -3.451424e+01   3.361559e-01
  -1.889602e+01  -4.179652e+01
   1.820764e+01   2.416154e+00
   5.408137e+01  -3.420523e+01
   9.934031e+01  -3.272281e+01
   4.479212e+01   5.117439e+01
   2.582985e+01   7.843682e+01
  -4.232444e+01   1.191330e+02
  -1.570584e+01   4.938274e+01
  -2.116368e+01  -3.695427e+01
   1.375220e+01  -3.707587e+01
   1.477329e+01   1.042479e+01
   2.624120e+01   8.569635e+01
   1.034796e+01   5.716765e+01
  -2.592434e+01  -1.490494e+01
  -3.133297e+01  -7.068924e+00
  -1.377688e+01  -8.243990e+00
  -1.224653e+01   7.274602e+00
  -2.229626e+01   1.729219e+00
  -2.039202e+01  -3.549088e+01
  -2.561421e+01  -7.321352e+01
   1.649026e+01  -2.477830e+01
   6.375508e+01  -2.560183e+00
   1.782761e+01   3.396384e+01
  -6.597065e+01   2.824868e+01
  -3.834429e+01  -4.042306e+00
  -4.338092e+01  -2.704262e+01
   2.644360e+01  -1.390215e+01
   6.309363e+01   3.437806e+01
   1.287043e+01   5.136850e+01
   3.622238e+00   5.244908e+01
  -5.054208e+01  -2.814167e+01
  -3.527804e+01   3.296754e+01
   3.872200e+01   8.189131e+00
   6.005192e+01   1.287278e+00
  -3.408292e+01   3.690954e+01
  -1.068572e+02   2.833167e+01
