
 $NMID
 id='ANONYMOUS ', fmtdat='(2E16.6)'
 volume=1.0
 tramp=1.0
 $END
  -2.520147e+03  -1.457934e+02
  -1.942617e+03  -1.069220e+03
  -3.301152e+02  -1.534656e+03
   8.284019e+02  -1.124655e+03
   8.935906e+02  -2.074789e+02
   2.297621e+02  -2.790320e+01
  -4.753396e+01  -1.296076e+02
  -5.795998e+01  -2.249074e+02
   4.142838e+02  -4.861901e+02
   5.066228e+02  -1.751328e+02
   2.336141e+02   2.197658e+02
  -5.615810e+01   4.516737e+02
  -1.705730e+02   1.866676e+02
  -1.320936e+02  -2.821841e+02
   1.207881e+02  -3.156314e+02
   3.323367e+02  -1.089881e+02
   2.073938e+02   2.919748e+02
  -7.832437e+01   5.510479e+02
  -3.746871e+02   2.895997e+02
  -4.064844e+02  -7.573264e+01
  -1.087956e+02  -2.757781e+02
   5.263941e+01  -1.895522e+02
   3.112011e+01  -7.314251e+01
  -1.324645e+02  -1.110767e+02
  -2.133179e+02  -2.794585e+02
  -1.290751e+00  -3.168264e+02
   3.168381e+02   2.645863e+01
   4.557805e+02   1.177106e+02
   4.858371e+01   2.925991e+02
  -2.554178e+02   2.015980e+01
  -4.044717e+02  -1.182098e+02
  -1.485645e+02  -2.347540e+02
   2.408003e+02  -2.930171e+02
   3.427026e+02  -1.866826e+02
   2.307122e+02   1.588861e+02
   5.388490e+01   2.925354e+02
   1.278259e+01   1.522236e+02
   1.417379e+02  -3.502224e+01
   9.108080e+01  -8.276618e+01
   1.241749e+02   1.395582e+02
   1.083831e+02   4.290503e+02
  -1.423126e+02   3.339621e+02
  -1.632078e+02  -7.031827e+01
  -7.386153e+01  -2.485871e+02
   6.963434e+01  -3.975593e+01
   1.190340e+02   2.535737e+02
  -5.640675e+01   3.306065e+02
  -3.138143e+02   4.318810e+00
  -2.853096e+02  -1.801956e+02
  -2.203687e+02  -3.553499e+02
   2.233888e+02  -1.959604e+02
   5.296356e+02   4.868219e+01
   2.279958e+02   1.327467e+02
   3.672262e+01   1.357870e+02
  -2.594653e+02   8.629114e+01
  -1.867531e+02   6.790009e+01
  -7.868348e+01   6.233025e+00
   3.902780e+01  -2.869457e+00
  -8.277860e+01   7.003694e+01
  -1.568368e+02   1.631480e+01
  -1.044057e+02  -1.618500e+02
   1.147042e+02  -2.254058e+02
   3.201495e+02  -1.213972e+02
   2.128663e+02   7.140306e+01
  -6.212208e+01   2.919037e+02
  -2.086820e+02   3.201729e+02
  -3.052488e+02   1.548780e+02
  -2.022601e+02  -1.108171e+02
  -3.023751e+01  -2.869626e+02
   2.667511e+01  -2.424188e+02
   1.644989e+01  -1.778251e+02
  -2.110946e+00  -1.381661e+02
   1.397189e+02  -6.681341e+01
   2.511245e+02  -9.426960e+00
   1.576243e+02   6.916305e+01
   3.460557e+01   2.319914e+02
  -1.093852e+02   1.420436e+02
  -1.494399e+02  -3.912506e+01
  -8.637572e+01  -2.781995e+02
  -4.088898e+01  -1.641372e+02
   2.543553e+02  -7.368154e+01
   2.791067e+02   2.261917e+02
   1.867003e+02   2.399790e+02
  -4.384402e+01   2.222722e+02
  -1.405853e+02   1.180897e+02
  -1.195031e+02   5.095032e+01
  -1.489597e+02   3.565622e+01
  -2.973585e+02   6.339991e+01
  -4.171953e+02  -1.255130e+02
  -2.820455e+02  -2.246811e+02
   4.574225e+01  -3.490657e+02
   2.816384e+02  -3.887490e+02
   3.837197e+02  -1.395820e+02
   1.938879e+02   1.011532e+02
  -7.631151e+01   2.595539e+02
  -6.887544e+01   1.402564e+02
  -2.283292e+01   1.413537e+01
   1.375747e+02   2.921050e+00
   1.102059e+02   8.628610e+01
   3.375443e+01   1.183951e+02
  -7.028989e+01   1.007217e+02
  -7.436004e+01  -3.798710e+01
   1.464593e+01  -1.366240e+02
   1.252226e+02  -4.056859e+01
   1.311651e+02   1.775654e+02
   4.332941e+01   2.611277e+02
  -2.152622e+02   1.783312e+02
  -2.667117e+02  -5.685427e+01
  -2.064821e+02  -2.599141e+02
  -4.884287e+00  -1.984827e+02
   1.216068e+02  -9.250676e+01
   1.298154e+02   4.087291e+00
   3.010183e+01   5.311458e+01
  -2.395191e+01  -6.954844e+01
  -1.146780e+01  -1.083493e+02
   1.244986e+02  -7.223979e+01
   1.085150e+02   5.916777e+01
   5.917450e+01   1.757622e+01
  -3.875049e+01  -6.740103e+00
  -6.388559e+01  -9.735673e+01
   1.402285e+02  -2.429185e+01
   2.337983e+02   1.335034e+01
   2.532953e+02   1.342696e+02
  -1.146393e+01   2.605370e+02
  -2.382265e+02   1.853286e+02
  -1.901380e+02   6.261464e+01
  -8.451901e+01  -3.767259e+01
   4.593575e+01  -2.378874e+01
   9.525777e+01   8.690707e+00
  -6.922869e+01   6.184384e+01
  -1.141567e+02  -1.131107e+01
  -1.728225e+02  -1.058482e+02
  -4.415983e+01  -1.451048e+02
   8.114473e+01  -1.248584e+02
   1.349629e+02  -6.182436e+00
   1.349996e+01   3.368134e+01
  -7.514840e+01   1.640596e+01
  -2.413504e+01  -1.024505e+02
   7.075716e+01  -1.254520e+02
   1.742994e+02   3.738459e+00
   1.571034e+02   8.460216e+01
   1.531261e+01   1.308645e+02
  -1.335218e+02   1.407001e+02
  -1.495674e+02  -3.861519e+01
  -3.622353e+01  -8.282427e+01
   7.220375e+01  -5.401571e+01
   8.713785e+01  -5.064831e+00
  -1.154812e+00   2.618464e+01
  -6.051704e+01   2.725003e+01
  -2.231393e+01   8.713346e+00
   4.505257e+01  -4.960118e+01
   1.090648e+02   8.878362e+01
  -5.693866e+00   1.205801e+02
  -1.248272e+02   1.527654e+02
  -2.135694e+02  -1.849457e+01
  -1.473009e+02  -1.390977e+02
  -5.765969e+01  -1.444936e+02
   5.375169e+01  -1.095792e+02
   1.063908e+02  -3.072999e+01
   3.423467e+01   3.675965e+00
   2.895399e+01   1.393505e+01
   5.605877e+01   1.669430e+01
   7.828126e+01  -2.565877e+01
   8.300426e+01   5.890573e+01
  -5.268238e+01   1.021013e+02
  -1.372084e+02   7.305809e+01
  -1.615621e+02  -7.631158e+01
   4.072788e+01  -1.169576e+02
   1.755355e+02  -7.857856e+01
   1.431249e+02   8.058328e+01
   5.522696e+01   2.067304e+02
  -1.550063e+02   2.131106e+02
  -1.947163e+02   6.103738e+01
  -1.935612e+02  -5.600282e+01
  -5.962135e+01  -1.175925e+02
   5.312274e+01  -1.291932e+02
   6.945705e+01  -4.337883e+01
   7.458739e+01  -8.508841e+01
   4.905786e+01  -1.123432e+02
   3.190548e+01  -8.049460e+01
   1.006299e+02   4.805610e+01
   9.031441e+01   1.466797e+02
  -1.627159e+01   1.462006e+02
  -7.993719e+01   1.502629e+02
  -1.584071e+02  -1.029970e+00
  -1.059671e+02  -1.253126e+02
   7.598359e+00  -1.143109e+02
   3.261784e+01  -3.079020e+01
   6.543638e+01  -7.908836e+00
   1.060463e+01   6.016125e+01
  -1.729285e+01  -7.875575e+00
  -5.026836e+00  -3.215505e+01
   7.154115e+01   5.348590e+01
   1.759365e+01   1.557356e+01
  -7.862260e+01   2.400550e+01
  -1.480928e+02   9.649093e-01
  -4.506264e+01  -2.041101e+01
   2.689501e+01  -7.006212e+01
   1.007786e+02  -9.917379e+01
   1.507781e+02   2.485636e+01
   2.734094e+01   8.450929e+01
  -1.028780e+02   5.370373e+01
  -6.545546e+01  -2.454058e+01
  -6.046296e+01  -8.920601e+01
   5.100069e+01  -6.447544e+01
   5.881711e+01   1.227168e+01
   1.943354e+01   4.708420e+01
   7.573071e+01   4.144892e+01
   5.488069e+01  -2.720868e+01
   6.721905e+01  -2.463450e+00
   3.815595e+01   1.928509e+01
  -5.971050e+01   1.337871e+02
  -1.046782e+02   5.810623e+01
  -1.408547e+02  -1.860501e+01
  -1.185746e+02  -1.160769e+02
   9.612467e+00  -1.023993e+02
   1.042897e+02  -2.214383e+01
   2.044816e+01  -5.246757e+00
  -3.091622e+01   1.234254e+01
  -1.186194e+02  -8.893670e+01
  -8.633418e+01  -7.058450e+01
   8.398035e+01  -9.494433e+01
   1.560547e+02  -1.033197e+01
   1.593312e+02   3.663754e+01
  -1.487190e+00   7.719987e+01
  -8.865271e+01   6.021984e+01
  -3.015690e+01   8.315563e-01
   4.520414e+01  -4.912572e+01
   4.980535e+01   2.691441e+01
   3.214578e+01   9.902209e+01
  -6.770797e+01   1.099146e+02
  -8.410370e+01   5.353845e+01
  -9.649249e+01  -8.729102e+01
  -4.330005e+01  -1.533410e+02
   2.709992e+01  -1.023866e+02
   8.718401e+01  -2.042482e+01
   1.098072e+02   7.857727e+01
  -2.152585e+01   6.714149e+01
  -5.282539e+01  -5.804764e+00
  -2.289596e+01  -2.653948e+01
  -6.717428e+01  -4.039182e+01
  -2.475814e+01   2.200913e+01
  -1.389845e+01  -2.415605e+01
  -1.836524e+01  -5.282287e+01
  -4.088950e+01  -5.483287e+01
   5.899772e+01  -6.585799e+01
   1.228901e+02   1.447755e+01
   1.300275e+02   5.735064e+01
   1.353124e+01   8.703667e+01
  -4.182807e+01   2.855134e+01
  -4.617100e+00  -1.712965e+01
  -3.446313e+01   1.258078e+01
   7.450240e+00   2.175000e+01
   4.690582e+00  -1.143454e+01
  -1.497479e+01   2.998892e+01
  -1.022759e+01   3.265755e+01
   1.263384e+01  -3.653793e+01
   7.065968e+01   1.358645e+01
  -1.084850e+01   4.927234e+01
  -9.182455e+01   6.376328e+01
  -1.337882e+02   1.157481e+02
  -1.051669e+02  -2.416860e+01
  -6.658966e+01  -1.431227e+02
   1.002513e+02  -1.257624e+02
   6.428018e+01  -2.058032e+01
   8.858536e+01   2.866806e+01
   9.377943e+01   3.113331e+01
   4.307754e+00   1.842094e+01
   1.600060e+01   4.743559e+01
   1.859988e+00   1.467436e+00
   2.664454e+01   3.989501e+01
  -3.701506e+01   6.857022e+01
  -8.416353e+01  -3.087873e+00
  -9.004795e+01  -7.121911e+01
  -3.951818e+01  -1.259325e+02
   6.728990e+01  -5.132202e+01
   7.753660e+01   4.608115e+01
   3.910502e+01   7.600952e+01
  -1.202925e+01   4.306107e+01
  -8.606168e+01  -1.097299e+01
  -2.921160e+01  -4.718142e+01
   3.914432e+01  -5.073198e+01
   4.929850e+01  -3.461347e+01
  -3.004444e+01  -1.146423e+01
  -1.728394e+01  -3.729431e+00
  -1.657606e+00  -3.440993e+01
   7.983618e+01  -7.598809e+01
   5.969639e+01  -6.262436e+01
   8.000386e+01   1.592312e+00
  -2.561844e+00   6.870106e+01
  -2.078047e+00   7.229116e+01
  -6.763061e+01   5.883630e+01
  -7.296488e+00  -1.778424e+01
   3.933794e+01  -4.186754e+01
   4.582104e+01   1.214234e+01
   4.311572e+01   7.072728e+00
  -7.338573e+00   2.889018e+01
  -3.304411e+01   2.354978e+01
  -1.004980e+02  -2.007533e+01
  -4.286076e+01  -5.389586e+01
   1.308545e+01   3.149941e+01
   8.679630e-01   5.111180e+00
  -3.914841e+01  -2.261742e+01
  -2.699685e+01  -5.105684e+01
   4.609836e+00  -5.234705e+00
   2.239266e+01   3.454370e+01
  -4.007446e+01   8.649460e+01
  -3.472410e+01   2.432438e+01
  -5.279444e+01   1.514436e+00
  -1.424245e+01  -2.855400e+01
   5.963705e+00  -6.315455e+01
   7.240599e+01   1.853105e+01
   3.001649e+01   3.610372e+01
  -1.519011e+01   4.827366e+01
  -2.751003e+01   4.910162e+01
  -2.191599e+01   1.560975e+01
   2.088848e+01  -3.088044e+01
   9.811786e+00   2.081907e+01
  -1.295928e+01   1.861319e+01
  -3.313119e+01  -8.515349e+00
