
 $NMID
 id='ANONYMOUS ', fmtdat='(2E16.6)'
 volume=1.0
 tramp=1.0
 $END
  -3.081313e+03  -1.873553e+02
  -2.296153e+03  -1.536191e+03
   7.622226e+01  -1.952768e+03
   1.435805e+03  -1.287255e+03
   9.016731e+02   1.286438e+02
  -3.148064e+00   2.675053e+02
  -4.212585e+02  -2.491075e+02
   3.360815e+01  -5.163189e+02
   5.002364e+02  -4.744701e+02
   6.998191e+02  -2.030085e+01
   3.311042e+02   4.942158e+02
  -6.681249e+01   6.308621e+02
  -4.673041e+02   1.530513e+01
  -2.270020e+02  -4.171626e+02
   1.803016e+02  -4.197920e+02
   3.479345e+02  -1.066166e+02
   2.971144e+02   4.771919e+02
  -2.205683e+02   5.855293e+02
  -3.661799e+02   1.156952e+02
  -4.171177e+02  -1.200162e+02
  -1.325671e+02  -2.797970e+02
   1.304428e+02  -2.446961e+02
   6.557418e+01  -2.833961e+01
  -1.216901e+02  -3.459136e+01
  -3.107149e+02  -2.420624e+02
  -1.038456e+00  -3.361790e+02
   3.929112e+02  -1.843574e+02
   5.383355e+02   7.438811e+01
   2.304264e+02   2.897632e+02
  -3.172873e+02   1.568102e+02
  -5.277549e+02  -1.236673e+02
  -2.324408e+02  -2.767098e+02
   2.497830e+02  -3.390767e+02
   4.896489e+02  -1.039943e+02
   2.018966e+02   8.907088e+01
   7.288274e+01   3.211215e+02
  -9.239034e+01   1.384182e+02
  -1.768209e+01  -1.333979e+02
   1.565059e+02  -1.010436e+02
   2.490033e+02   8.124650e+01
   7.872067e+01   4.860562e+02
  -1.588364e+02   4.573773e+02
  -2.659573e+02  -6.311032e+01
  -8.863635e+01  -2.820475e+02
   1.377097e+02  -2.099752e+02
   1.688095e+02   2.181817e+02
  -9.067965e+01   4.490755e+02
  -3.680033e+02   9.425268e+00
  -4.270177e+02  -3.654061e+02
  -1.931368e+02  -5.212955e+02
   3.192275e+02  -3.071575e+02
   4.897943e+02   8.545687e+01
   3.563926e+02   2.429728e+02
  -1.268426e+02   2.539556e+02
  -3.344266e+02   7.660416e+01
  -1.924024e+02  -2.578879e+01
  -2.683878e+01  -9.827258e+01
   8.049632e+01   4.613853e+01
  -1.058700e+02   8.283460e+01
  -2.139607e+02  -7.892884e+01
  -1.129963e+02  -1.844900e+02
   1.308306e+02  -2.025563e+02
   2.633551e+02  -5.046668e+01
   2.356822e+02   7.360862e+01
  -3.506761e+00   1.892059e+02
  -2.464654e+02   3.330759e+02
  -2.381502e+02   1.782925e+02
  -2.122051e+02  -1.940294e+02
  -7.277405e+01  -3.163674e+02
   1.102591e+02  -2.889893e+02
   5.993503e+01  -1.716401e+02
   1.969352e-01  -7.508706e+01
   9.458036e+01  -1.119586e+02
   1.741033e+02  -4.073426e+01
   2.907052e+02   6.787095e+01
   6.299600e+01   2.038415e+02
   1.424788e-01   1.869763e+02
  -1.482497e+02  -7.627816e-01
  -1.380322e+02  -2.534827e+02
   1.143953e+01  -2.444708e+02
   2.064004e+02  -3.904202e+01
   2.493604e+02   1.558083e+02
   1.791990e+02   3.148640e+02
  -7.012954e+01   2.236546e+02
  -1.115537e+02   1.619709e+02
  -1.218528e+02   5.151907e+01
  -1.055116e+02   4.501774e+01
  -2.405121e+02   1.026609e+01
  -4.408213e+02  -1.189157e+02
  -2.796255e+02  -3.769134e+02
   4.910824e+00  -3.664968e+02
   3.915803e+02  -3.515486e+02
   4.365607e+02  -1.228987e+02
   2.543513e+02   7.758002e+01
   7.102225e+00   2.339649e+02
  -7.904843e+01   1.714762e+02
  -4.186454e+01   1.677598e+01
   1.171047e+02  -3.648138e+01
   1.729302e+02   6.190643e+01
   3.136475e+01   1.641255e+02
  -1.511239e+02   4.935723e+01
  -1.394755e+02  -4.429960e+01
   3.069811e+01  -1.058976e+02
   1.239136e+02  -4.937889e+00
   1.517105e+02   2.315228e+02
  -5.326573e+01   2.722326e+02
  -2.067558e+02   1.793270e+02
  -3.229095e+02  -4.496471e+01
  -2.546717e+02  -1.852352e+02
  -6.779079e+01  -2.186934e+02
   1.640526e+02  -1.607831e+02
   1.599907e+02  -4.860944e+01
   7.107208e-01   8.897832e+00
  -6.635639e+01  -3.394606e+01
  -8.569929e+00  -1.117105e+02
   1.189524e+02  -6.594107e+01
   1.126952e+02   8.704531e+00
   6.691372e+01   4.387286e+01
  -1.236800e+01  -7.842497e+00
  -2.589865e+01  -6.907671e+01
   1.514166e+02  -6.133039e+01
   2.887343e+02   2.924201e+01
   2.025481e+02   1.678636e+02
   1.423256e+02   2.335401e+02
  -1.610195e+02   1.529675e+02
  -1.613224e+02   1.087826e+02
  -1.179025e+02  -7.147591e+01
   1.120221e+01  -5.814812e+01
   6.642674e+01   1.695390e+01
  -2.209567e+01   6.107597e+01
  -1.852055e+02   7.497223e+01
  -1.269188e+02  -1.273826e+02
  -3.454241e+01  -1.883809e+02
   1.001345e+02  -1.624587e+02
   1.406724e+02  -1.136949e+01
   6.892490e+01   5.736737e+01
  -2.103545e+01  -2.602340e+01
   3.557304e+00  -8.827758e+01
   7.322949e+01  -6.660989e+01
   1.758758e+02   3.849150e+00
   1.697989e+02   1.087702e+02
  -4.506014e+01   2.063702e+02
  -1.207119e+02   1.085483e+02
  -1.706451e+02  -4.457077e+01
  -3.095712e+01  -9.870744e+01
   5.808017e+01  -6.545138e+01
   8.344892e+01   7.168525e+00
  -1.756466e+01   2.084577e+01
  -3.551313e+01   4.105643e+00
  -1.884103e+01  -9.133029e+00
   9.599063e+01  -1.231710e+01
   8.655129e+01   1.017127e+02
   5.667770e+01   1.535194e+02
  -5.924039e+01   1.044919e+02
  -1.903808e+02   3.161249e+01
  -1.545507e+02  -2.083577e+02
  -2.489664e+01  -1.541294e+02
   7.905106e+01  -1.128236e+02
   1.004421e+02  -1.944995e+01
   4.146047e+01   9.595883e+01
   5.977831e+01   1.372054e+01
   9.196091e-01   9.892444e+00
   7.212843e+01  -1.325386e+01
   1.769625e+01   5.663719e+01
  -2.344484e+01   1.137596e+02
  -1.213970e+02   3.810377e+01
  -1.085917e+02  -1.177184e+01
  -2.157140e+01  -1.293028e+02
   1.691393e+02  -1.016129e+02
   1.884970e+02   7.118462e+01
   8.488920e+01   1.975453e+02
  -1.361805e+02   1.650383e+02
  -2.810113e+02   1.072777e+02
  -2.421677e+02  -7.385088e+01
  -9.086754e+01  -1.571506e+02
   7.825032e+00  -1.355975e+02
   9.655157e+01  -8.855845e+01
   9.117087e+01  -3.704197e+01
   4.975202e+01  -8.177607e+01
   4.364897e+01  -9.686802e+01
   1.575723e+02   1.780545e+01
   1.179856e+02   1.399899e+02
   1.416815e+01   1.903201e+02
  -6.343653e+01   1.586458e+02
  -1.611430e+02   1.167056e+01
  -9.309325e+01  -1.176428e+02
   8.571411e+00  -1.662472e+02
   1.084452e+02  -9.367275e+01
   3.871343e+01   5.272793e+00
   3.655356e+00   4.246176e+01
  -3.763781e+01   1.662709e+01
   4.490923e+01   3.449259e+01
   9.528616e+01   2.342118e+00
   5.781025e+01   8.897095e+01
  -5.307906e+01   1.675698e+01
  -1.231021e+02   3.270294e+01
  -9.223815e+01  -6.070389e+01
   1.494163e+01  -8.262143e+01
   1.019249e+02  -6.781384e+01
   8.554620e+01  -4.486556e+00
   3.433706e+01   3.442112e+01
  -5.406975e+01   3.134262e+01
  -4.479291e+01  -4.236313e+01
  -1.836740e+01  -3.421524e+01
   7.323307e+00  -7.046632e+01
   4.395737e+01  -2.609421e+01
   6.832438e+01   8.994899e+01
   3.543563e+01   1.556300e+01
   2.852318e+01   2.138862e+00
   8.930797e+01  -1.294660e+01
   1.592870e+01   2.415531e+01
  -2.634686e-01   8.812455e+01
  -1.605679e+02   1.528504e+02
  -1.425536e+02   7.267165e+00
  -1.408618e+02  -9.531887e+01
   1.190443e+01  -1.321664e+02
   3.961328e+01  -8.840733e+01
   7.871566e+01   1.788798e+01
  -6.583200e+01  -2.232396e+00
  -1.309924e+02  -1.657475e+01
  -3.835277e+01  -9.842044e+01
   4.952683e+01  -8.298567e+01
   1.482930e+02  -2.320710e+01
   1.612807e+02   6.413466e+01
   4.589005e+01   7.511503e+01
  -5.754095e+01   1.015729e+02
  -3.588588e+01  -6.018355e+00
   1.344154e+01  -7.262687e+00
   5.852979e+01   4.283742e+01
   3.778942e+01   1.548327e+02
  -1.066155e+01   1.111146e+02
  -1.521624e+02   7.052549e+01
  -1.156102e+02  -7.248374e+01
  -3.259068e+00  -1.710588e+02
   6.688737e+01  -1.294167e+02
   1.176806e+02   2.695368e+01
   4.560653e+01   7.827449e+01
  -1.607483e+00   8.869019e+01
  -4.361771e+01   1.047509e+01
  -7.098909e+01  -3.859272e+01
  -4.375254e+01  -4.781953e+01
  -1.560589e+01   2.587753e+01
  -3.890563e+01   7.292944e+00
  -9.985537e+01  -7.392453e+01
  -1.785578e+01  -5.380161e+01
   4.030746e+01  -3.239937e+00
   1.150102e+02   5.056347e+01
   1.133153e+02   2.781668e+01
   5.072365e+01   8.370908e+01
  -1.391366e+02   1.733553e+01
  -1.154743e+02  -1.128276e+01
  -1.932202e+01  -2.724527e+01
   4.485919e+01  -2.292443e+00
   3.952761e+01  -1.587017e+01
  -3.079915e+01  -1.153697e+01
   2.473508e+01  -1.882351e+01
   2.524360e+01   1.133562e+01
   5.982334e+01   9.642628e+00
  -2.988411e+01   9.422093e+01
  -1.003962e+02   1.049283e+02
  -1.677524e+02   2.677930e+01
  -8.755218e+01  -7.767017e+01
  -4.232055e+01  -1.097216e+02
   5.792778e+01  -1.447663e+02
   5.279271e+01  -7.545720e+01
   6.183249e+01   2.686872e+01
   2.785803e+01   2.472772e+01
  -7.671865e+00   3.556078e+01
   3.175376e+01   2.560639e+01
   2.754660e+01   6.926387e+01
   8.965007e+00   1.018728e+02
  -2.658984e+01   4.277240e+01
  -6.341575e+01  -2.969353e+01
  -7.401794e+01  -7.281298e+01
   2.563474e+01  -1.121785e+02
   7.059532e+01  -4.732538e+01
   7.338400e+01   4.016468e+01
   5.212972e+01   6.853606e+01
  -9.284899e+01   5.051040e+01
  -1.225403e+02   2.584099e+01
   6.707303e+00  -3.599424e+01
   2.258762e+01  -4.930747e+01
   7.445565e+00  -4.298482e+01
  -1.571285e+01  -2.018686e+01
  -2.439062e+01  -5.215836e+00
  -5.087121e+00  -2.478424e+01
   6.341620e+01  -7.234153e+01
   9.886173e+01  -4.389534e+01
   7.486974e+01   6.257816e+00
  -1.175394e+01   1.183268e+02
  -8.353417e+01   9.263824e+01
  -6.036052e+01   1.581381e+01
   7.062497e+00  -8.890152e+01
   1.985366e+01  -4.472917e+01
   3.941441e+01  -2.599458e+01
   5.055929e+01   9.333301e+01
  -1.031379e+01   2.753700e+01
  -7.597469e+01   9.329627e+00
  -4.319040e+01  -4.724266e+01
   2.012003e+01  -1.146726e+01
  -4.075642e+01   2.619485e+01
   1.512033e+01   5.064191e+01
  -1.106082e+01  -1.610195e+01
  -2.113479e+01  -3.501236e+01
   8.457078e+00   3.122949e+01
   4.095091e+01   1.832796e+01
   5.063936e+01   8.384530e+01
  -3.009434e+01   3.978224e+01
  -2.526781e+01  -4.733082e+01
   9.897237e+00  -4.989780e+01
   6.817794e+01  -2.597438e+00
   7.680551e+01  -2.591803e+01
   4.702574e+01   6.637840e+00
  -5.118675e+01  -1.288466e+01
  -6.211648e+01   2.384147e+01
  -4.296755e+01   2.923497e+01
   2.120905e+00  -1.033186e+00
   2.787142e+01   1.071337e+01
  -2.355616e+01   9.732272e+00
  -9.280742e+01  -1.900106e+01
