
 $NMID
 id='ANONYMOUS ', fmtdat='(2E16.6)'
 volume=1.0
 tramp=1.0
 $END
  -2.579667e+03   3.751034e+02
  -2.195628e+03  -1.179039e+03
  -3.930455e+02  -1.710394e+03
   9.126449e+02  -8.487958e+02
   9.409130e+02  -3.616860e+02
   2.978188e+01   1.381825e+02
  -3.239999e+02   2.270036e+01
  -1.965819e+02  -4.288737e+02
   1.773901e+02  -3.497929e+02
   5.955175e+02  -1.445667e+02
   3.866722e+02   3.289502e+02
   1.133931e+02   4.537693e+02
  -2.125687e+02   1.524947e+02
  -2.237805e+02  -2.476716e+02
  -3.061781e+01  -3.694051e+02
   3.594056e+02  -1.621382e+02
   2.789153e+02   3.415883e+02
  -5.406896e+01   6.130770e+02
  -2.745907e+02   3.362545e+02
  -4.583235e+02  -1.701172e+02
  -1.708172e+02  -2.368312e+02
   9.581305e+01  -2.152637e+02
   6.014152e+01  -6.522424e+01
  -1.700072e+02  -1.179187e+02
  -2.305250e+02  -2.233182e+02
  -8.191981e+00  -1.652309e+02
   3.508126e+02  -2.400448e+02
   3.644244e+02   1.632818e+02
   1.619583e+02   1.798343e+02
  -1.223969e+02   1.535458e+02
  -3.758485e+02  -5.844001e+01
  -1.528695e+02  -3.444117e+02
   1.963227e+02  -2.808591e+02
   2.847374e+02  -1.358966e+02
   2.771471e+02   3.607071e+01
   6.054249e+01   1.577439e+02
   5.796905e+01   1.668276e+02
   8.466307e+00  -4.805374e+01
   9.033973e+01  -1.537862e+01
   1.789528e+02   8.283959e+01
   5.567198e+01   3.789544e+02
  -1.529027e+02   3.603230e+02
  -1.596420e+02   8.921825e+01
  -8.773297e+01  -1.910503e+02
   1.420472e+02  -1.133979e+02
   1.103023e+02   2.109253e+02
  -1.324212e+02   3.269922e+02
  -2.933593e+02   3.464985e+01
  -4.478826e+02  -3.322511e+02
  -1.934006e+02  -4.199314e+02
   2.560328e+02  -3.036593e+02
   4.411847e+02   3.410659e+01
   3.032934e+02   2.008282e+02
  -5.455419e+01   1.241793e+02
  -2.104287e+02   8.757309e+01
  -2.377604e+02  -1.235513e+01
  -5.634420e+01  -4.384895e+01
   2.614774e+01   4.950512e+01
  -1.046355e+02   3.658148e+01
  -1.850399e+02  -5.410974e+01
  -1.543419e+02  -1.132469e+02
   4.944238e+01  -2.258732e+02
   2.335752e+02  -1.311611e+02
   2.510337e+02   1.055995e+02
   3.797410e+01   3.665796e+02
  -3.046910e+02   2.515187e+02
  -3.530304e+02   1.315510e+02
  -1.837661e+02  -1.432928e+02
  -4.448717e+01  -3.685152e+02
  -3.045505e+01  -2.106256e+02
   2.391373e+01  -2.209284e+02
   3.562584e+01  -1.568763e+02
   1.760868e+02  -1.327857e+02
   1.628633e+02  -4.073642e+01
   1.649833e+02   1.410978e+02
   1.270563e+02   2.762035e+02
  -1.147402e+02   1.405893e+02
  -1.807575e+02  -2.801043e+01
  -9.216772e+01  -2.160356e+02
   3.369552e+01  -2.133501e+02
   1.808553e+02  -1.034172e+02
   2.759537e+02   1.395324e+02
   1.499287e+02   2.343297e+02
  -7.627545e+00   2.135601e+02
  -1.249202e+02   1.396382e+02
  -1.808466e+02   7.038321e+01
  -9.973164e+01   9.011006e+01
  -2.206681e+02   3.447175e+01
  -3.497867e+02  -1.131126e+02
  -2.373919e+02  -2.091565e+02
   2.936021e+01  -3.673324e+02
   2.595923e+02  -2.806708e+02
   3.333507e+02  -1.625984e+02
   2.619195e+02   1.267126e+01
   3.936496e+01   2.368316e+02
  -6.486280e+01   1.377909e+02
  -5.014752e+00  -2.074673e+01
   3.821013e+01  -6.574182e+01
   8.460410e+01   9.229048e+00
   3.235954e+01   1.006565e+02
  -9.853689e+01   8.392406e+01
  -8.408253e+01  -5.586811e+01
   5.623804e+00  -1.051373e+02
   1.654962e+02   3.092782e+01
   1.165303e+02   1.952890e+02
  -1.193802e+01   2.992404e+02
  -1.602798e+02   2.069839e+02
  -3.206094e+02  -2.668687e+00
  -2.116613e+02  -2.293515e+02
  -1.065748e+02  -2.459542e+02
   7.186995e+01  -1.036419e+02
   8.743051e+01   3.332230e+01
   2.771367e+00  -3.610436e+01
  -4.053130e+01  -2.895454e+01
   2.525321e+01  -1.372066e+02
   1.641181e+02  -7.395816e+01
   1.350514e+02   1.987237e+01
   8.098609e+01   2.218176e+01
  -9.957641e+01  -1.457759e+01
  -6.412345e+01  -4.639282e+01
   1.444983e+02  -1.125534e+02
   2.954918e+02   1.967878e+01
   3.075946e+02   1.119770e+02
   1.102058e+01   2.460283e+02
  -1.764607e+02   2.359930e+02
  -2.142406e+02   8.423942e+01
  -1.188947e+02  -3.798475e+00
   5.272193e+01  -5.883111e+01
   4.464522e+00   3.172716e+01
  -1.660113e+01   1.019233e+02
  -1.439131e+02   2.420640e+01
  -1.086382e+02  -4.912147e+01
  -1.994148e+01  -1.564107e+02
   3.556780e+01  -1.261109e+02
   1.018210e+02  -7.486963e+00
  -1.610888e+00   2.177594e+01
  -7.524421e+01  -3.451628e+01
  -4.299513e+01  -1.555752e+02
   8.480728e+01  -8.949417e+01
   1.826687e+02  -2.078003e+01
   1.815161e+02   1.485684e+02
   3.973745e+01   1.577253e+02
  -6.806654e+01   1.026072e+02
  -1.463527e+02   7.301858e+01
  -2.705610e+01  -6.176136e+01
   5.961988e+00  -1.138031e+02
   5.303564e+01  -6.951016e+01
  -1.373681e+01   3.020529e+01
  -1.826063e+01   2.306791e+01
   2.285189e+01  -1.355322e+01
   1.193256e+02   6.034725e+00
   1.300305e+02   9.328405e+01
   2.716852e+01   1.442427e+02
  -1.631406e+02   1.409219e+02
  -2.418171e+02   2.772516e+01
  -2.225951e+02  -1.211951e+02
  -2.612174e+01  -2.569985e+02
   5.877685e+01  -1.265363e+02
   9.615643e+01  -3.037312e+01
   9.532274e+01   3.714376e+01
   9.158723e+00   2.671051e+01
   3.972764e+01  -2.680752e+01
   8.631709e+01  -2.620288e+01
   7.766049e+01   3.593115e+01
   3.900612e+00   1.507807e+02
  -7.902807e+01   3.751837e+01
  -9.350179e+01  -5.627053e+00
   2.072178e+01  -1.443701e+02
   1.734565e+02  -8.061937e+01
   1.977784e+02   8.401577e+01
   8.482219e+01   2.290117e+02
  -1.165166e+02   1.504046e+02
  -2.102832e+02   7.268853e+01
  -2.043896e+02  -7.663850e+01
  -1.042902e+02  -1.299099e+02
   9.108340e+00  -1.256225e+02
   8.475663e+01  -1.007118e+02
   5.836928e+01  -6.252575e+01
   2.428347e+01  -7.560865e+01
   9.775280e+01  -7.569046e+01
   1.056699e+02  -1.904115e+01
   1.142091e+02   1.419695e+02
   7.084132e+01   1.500033e+02
  -1.005731e+02   1.500155e+02
  -1.089152e+02   2.315373e+01
  -1.062322e+02  -7.267911e+01
  -4.215362e+01  -9.333065e+01
   6.327475e+01  -7.514780e+01
   5.490823e+01   1.282306e+01
   3.986710e+01   3.846172e+01
  -5.225908e+01   8.024722e+01
   5.027221e+01   1.345045e-01
   8.208676e+01   8.543155e-02
   5.566725e+01   4.698188e+01
  -6.937580e+01   3.271983e+01
  -1.353720e+02   2.186650e+01
  -2.086504e+02   2.237080e+01
   1.121422e+01  -1.396541e+02
   1.393780e+02  -2.184306e+01
   1.108281e+02  -6.027260e+01
   2.331399e+01   2.998766e+01
  -5.642143e+01   5.033657e+01
  -8.542781e+01  -1.877917e+01
  -4.457694e+01  -6.681085e+01
   2.254653e+00  -7.067240e+01
   5.462990e+01  -3.328810e+01
   3.912567e+01   4.660046e+01
   1.806325e+01   8.701485e+01
   4.026991e+01  -1.226129e+01
   8.556198e+01  -2.776447e+01
   3.903064e+01   2.490224e+01
  -3.489648e+00   1.624798e+02
  -8.533090e+01   1.436230e+02
  -1.729422e+02   6.028763e+01
  -1.346833e+02  -1.006207e+02
  -1.178976e+01  -1.222243e+02
   6.591072e+01  -8.895535e+01
   2.544747e+01  -3.393619e+01
  -2.555257e+01  -8.048521e+00
  -9.857334e+01  -1.936829e+01
  -5.963563e+01  -1.189946e+02
   5.457147e+01  -4.379641e+01
   1.925276e+02  -3.058853e+01
   1.350506e+02   2.098178e+01
   1.403112e+01   4.742768e+01
  -1.009343e+01   4.608859e+01
  -6.352580e+01   9.583264e+00
   2.859621e+01  -5.452411e+00
   1.212279e+02   3.785866e+00
   7.609449e+01   8.760529e+01
  -5.599985e+01   7.992429e+01
  -1.173335e+02   4.333407e+01
  -1.093380e+02  -1.027820e+02
  -8.491262e+00  -1.646328e+02
   4.448980e+01  -9.098419e+01
   9.481943e+01  -2.399334e+01
   8.217059e+01   9.725365e+01
   9.736958e+00   4.337388e+01
  -4.141656e+01   2.317452e+00
  -2.851498e+01  -6.421434e+01
   2.858130e+00  -1.990021e+01
   8.819080e+00   1.434716e+01
  -6.807937e+01  -1.447388e+01
  -6.833413e+01  -5.156610e+01
  -1.869150e+01  -8.633364e+01
   7.637015e+01  -1.284695e+01
   9.534579e+01   5.207189e+00
   1.046840e+02   6.298102e+01
   6.565564e+01   8.345752e+01
  -7.976754e+01   4.568455e+01
  -9.923386e+01  -2.368164e+01
  -2.889956e+01   4.291711e+01
   5.163529e+01  -5.452250e+01
   1.654305e+01  -5.016304e+00
   1.937402e+01  -1.547068e+01
  -1.754530e+01  -4.072158e+00
   7.498131e+01   2.807821e+01
   8.729930e+01   2.965936e+01
   3.650999e+01   8.234833e+01
  -8.039282e+01   9.927668e+01
  -1.335748e+02   1.018229e+02
  -1.695197e+02  -2.776552e+01
  -4.381411e+01  -1.260511e+02
   4.929853e+01  -8.269890e+01
   8.154514e+01  -9.390191e+01
   6.476872e+01   1.592288e+01
   2.128038e+01   5.486887e+01
  -6.274877e+00   3.458764e+01
   1.965299e+01   1.518152e+01
   7.702734e+00   2.974923e+01
   7.279237e+01   3.941881e+01
  -3.326577e+01   8.726506e+01
  -7.532569e+01  -2.446922e+01
  -7.644049e+01  -7.937452e+01
  -2.374579e+01  -7.293812e+01
   7.488987e+01  -5.543324e+01
   1.039387e+02   1.266797e+01
   7.796051e+01   3.847182e+01
  -5.221998e+01   3.003672e+01
  -6.935073e+01   1.986642e+01
  -4.372460e+01  -3.168403e+01
   1.818230e+01  -8.246681e+01
   1.373535e+01  -2.191343e+01
  -3.395055e+01   9.614852e+00
  -3.994756e+01   2.248393e+01
   2.472147e+00  -4.870733e+01
   7.826495e+01  -6.352888e+01
   1.029946e+02  -5.816806e+01
   8.270759e+01   1.755584e+01
  -4.919180e+00   7.173119e+01
  -3.614183e+01   6.238148e+01
  -4.051946e+01   4.806440e+01
  -2.932799e+00  -7.053350e+01
   2.756083e+00  -7.548051e+01
   6.144818e+00   4.141090e+01
  -3.436661e+01   6.449809e+01
  -2.797995e+01   8.081468e+01
  -4.190965e+01   2.294556e+01
  -5.398387e+01  -3.570952e+01
  -5.598422e+01  -1.054042e+01
   3.044908e+01  -9.609203e+00
   1.989735e+01   9.622971e+00
  -1.066146e+01  -1.608249e+01
  -4.176297e+01  -4.163051e+01
   2.588218e+00  -4.303335e+01
   2.910748e+01   7.760262e+00
  -6.917340e+00   7.179378e+01
  -3.647706e+01   1.176893e+01
  -3.179577e+01  -4.437301e+01
  -2.922643e+01  -4.129952e+01
   4.505177e+01  -8.358846e-01
   8.802773e+01   1.306600e+01
   1.200033e+02   5.983448e+01
  -2.047190e+01   1.942653e+01
  -6.230848e+01   4.263847e+01
   8.269395e+00   1.266333e+01
   8.319372e+00   2.211024e+01
   6.231505e+01  -7.054020e+00
  -2.277974e+01   1.934374e+01
  -5.435566e+01   4.929348e+00
