
 $NMID
 id='ANONYMOUS ', fmtdat='(2E16.6)'
 volume=1.0
 tramp=1.0
 $END
   1.416894e+03  -5.679913e+02
   1.107573e+03   1.644638e+02
   3.703598e+02   1.062595e+03
  -5.014751e+02   1.009807e+03
  -4.143811e+02   6.169414e+02
  -2.509261e+02  -1.349640e+02
   1.267788e+02  -1.176620e+02
   2.066591e+02   2.970977e+02
  -5.973687e+01   3.195910e+02
  -3.979726e+02   1.145852e+02
  -3.826145e+02  -3.560430e+02
  -1.013732e+02  -3.476758e+02
   1.054265e+02  -1.999116e+02
   2.131680e+02   2.037112e+02
   9.908633e+01   3.046090e+02
  -1.726392e+02   1.469669e+02
  -2.689794e+02  -2.292491e+02
  -1.126917e+02  -4.024692e+02
   2.445512e+02  -2.709499e+02
   2.437072e+02   1.166335e+02
   1.135162e+02   1.775455e+02
  -6.180520e+01   1.868340e+02
  -8.449000e+00   3.800796e+01
   1.340456e+02   7.765061e+01
   1.245939e+02   1.397121e+02
  -5.590935e+01   1.246729e+02
  -2.255857e+02   6.620958e+01
  -2.436606e+02  -5.142204e+01
  -2.068704e+02  -9.251011e+01
   6.036366e+01  -6.857801e+01
   8.855978e+01   5.051317e+01
   9.517164e+01   1.970889e+02
  -1.270764e+02   1.411773e+02
  -1.971271e+02   2.934958e+01
  -1.961661e+02   6.744471e+01
  -5.594769e+01  -8.872428e+01
  -5.959938e+01  -7.207609e+01
  -2.304227e+01  -3.183627e+01
  -4.514008e+01   1.955124e+01
  -8.708054e+01  -1.962216e+01
  -4.150102e+01  -1.539268e+02
   9.343449e+01  -3.049340e+02
   1.432518e+02  -1.358818e+02
   1.368829e+02   9.924706e+01
  -2.703908e+01   1.314586e+02
  -1.977176e+01  -7.351050e+01
   4.471333e+01  -1.213185e+02
   1.322099e+02   2.371055e+01
   1.983532e+02   1.300783e+02
   1.671412e+02   1.923137e+02
  -7.480927e+01   1.318468e+02
  -2.346033e+02   3.039357e+00
  -2.095813e+02  -1.120450e+02
  -6.206714e+01  -8.030552e+01
   1.164105e+02  -7.198010e+01
   8.334048e+01  -6.153801e+01
   5.779081e+01  -1.843522e+01
  -7.151734e+01   3.288176e+01
   5.797551e+00   3.566889e+00
   1.098331e+02  -5.299006e+01
   6.324607e+01   8.427700e+01
  -2.652006e+01   9.771937e+01
  -2.179344e+02   1.059047e+02
  -1.842638e+02  -6.001565e+01
  -3.739438e+00  -1.796539e+02
   1.567215e+02  -2.668278e+02
   1.761992e+02  -1.037076e+02
   1.738401e+02   4.797983e+01
   3.270266e+01   1.777226e+02
   4.477457e+01   1.246912e+02
  -1.040261e+01   9.610914e+01
  -5.530406e+01   8.006104e+01
  -9.036382e+01   5.053661e+01
  -1.463738e+02   5.810147e+01
  -1.335583e+02  -6.790486e+01
  -7.453380e+01  -8.262775e+01
   6.144710e+01  -1.231334e+02
   1.057249e+02   1.937110e+01
   5.757916e+01   1.329798e+02
  -2.675801e+01   1.364115e+02
  -8.299491e+01   2.250774e+01
  -6.669341e+01  -4.320665e+01
  -1.424028e+02  -1.322913e+02
   4.329151e+00  -1.578330e+02
   5.853075e+00  -1.390995e+02
   4.617882e+01  -9.172225e+01
   3.409541e+01  -4.730547e+01
   9.309509e+01   7.293011e+00
   2.582181e+02   1.005177e+02
   1.142005e+02   1.179590e+02
   3.504095e+01   2.212313e+02
  -2.151348e+02   1.107890e+02
  -2.811145e+02   1.027919e+02
  -1.530349e+02  -5.391584e+01
   1.076313e+01  -8.598964e+01
   1.020085e+01  -9.210453e+01
  -2.762654e+01  -8.727954e+01
  -6.983134e+01  -1.159417e+01
  -2.991499e+01   1.123528e+01
  -3.372941e+01  -4.182089e+01
   2.663808e+00  -2.050816e+00
   5.916108e+01   6.450624e+00
  -1.634649e+01   1.801492e+01
  -6.146100e+01   1.622369e+01
  -1.618091e+02  -1.168368e+02
  -7.465328e+01  -2.120336e+02
   1.212150e+02  -2.371979e+02
   2.017853e+02  -2.666712e+01
   1.781595e+02   1.567653e+02
   1.012603e+02   1.073000e+02
  -8.749083e+01   1.161802e+02
  -3.697878e+01  -4.491827e+01
  -3.557351e+01   3.322995e+01
   3.018231e+01   4.071574e+01
  -3.708854e+01   3.944560e+01
  -6.872375e+01   3.763888e+01
  -5.019851e+01   3.706674e+01
   4.251743e+00  -2.313455e+01
   5.697807e+01  -3.331446e+01
   2.176782e+01   7.022268e+01
  -3.457348e+01   3.327672e+01
  -2.398596e+02  -2.330458e+01
  -1.630997e+02  -5.468065e+01
  -6.670063e+00  -1.703050e+02
   4.827737e+01  -1.136708e+02
   1.338412e+02  -6.705905e+01
   1.090120e+02   3.618138e+01
   2.254868e+01   1.772087e+01
  -2.446808e+01  -3.330350e+00
   3.006544e+01  -5.193305e+01
   1.401917e+02   2.690624e+00
   8.690322e+01   4.226903e+01
   9.202367e+01   9.577943e+01
  -6.144340e+01   8.488783e+01
  -1.298107e+01   2.803726e+01
   2.576012e+01   1.138106e+01
   1.839332e+01   6.570656e+01
   4.893723e+01   9.017951e+01
  -6.954061e+01   7.872804e+01
  -9.407785e+01   2.536041e+01
  -9.609208e+01  -6.689746e+01
  -2.103558e+01  -9.031941e+01
   9.129860e+01  -4.256704e+01
   7.929047e+01  -2.141664e+01
   2.549255e+01   8.431001e+00
  -7.176191e+00   3.865624e+01
  -5.087302e+01  -1.525089e-01
   4.460868e+01  -6.329592e+00
   3.742846e+00  -2.900024e+01
   3.528839e+01  -3.723747e+00
  -8.058784e+01   1.720481e+01
  -9.061910e+01  -4.753002e+01
  -3.067760e+01  -1.554147e+02
   1.107252e+02  -9.493491e+01
   8.493299e+01   5.548921e+00
   1.375953e+02   1.313363e+02
   6.910512e+01   1.193848e+02
  -5.027960e+01   1.075897e+02
  -6.035244e+01   5.135222e+00
  -2.655219e+01  -5.572215e+00
  -1.980797e+01  -1.023365e+01
  -3.304566e+01  -2.666340e-01
  -6.298839e+01   3.302615e+01
  -2.213475e+01  -4.838064e+01
   4.558183e+01  -6.601634e+01
   4.536673e+01  -4.619575e+01
   1.007094e+02   7.979391e+00
  -2.582513e+01   4.555593e+01
  -7.979832e+01   5.456337e+01
  -1.414010e+02  -3.446921e+00
  -5.180385e+01  -1.384145e+02
   8.080238e+01  -6.197191e+01
   1.493451e+02  -6.973635e+01
   1.553436e+02  -2.813991e+01
   7.728008e+00   1.183585e+02
  -7.194905e+01   6.775845e+01
  -4.014102e+01   4.699744e+01
  -3.709582e+01   4.231606e+01
  -2.272497e+01   7.899840e+01
  -1.238066e+01   3.108213e+01
  -7.419962e+01   3.283673e+01
  -1.032338e+02  -1.046695e+02
  -2.652947e+01  -8.901803e+01
   3.245764e+01  -6.640023e+01
   9.107564e+01  -3.436208e+01
   5.164189e+01   5.303902e+01
   2.359024e+01   1.005034e+02
  -3.618082e+01   7.530324e+01
  -2.535143e+01   1.742102e+01
  -1.688053e+00  -1.527493e+01
   3.144028e+00  -2.059906e+01
   1.419798e+01   1.781385e+01
  -5.455596e+01  -1.919349e+01
  -1.496186e+01   1.998693e+01
   5.383799e+01  -1.414155e+01
   8.723001e+01  -3.825493e+01
   7.254970e+01   8.435114e+01
   1.065321e+01   5.668209e+01
  -4.527264e+01   1.181642e+01
  -5.790562e+01   1.641489e+01
  -2.220614e+01  -3.382280e+01
   7.245923e+00  -2.135645e+01
   4.342419e+01  -1.349526e+01
   2.614891e+01   3.675468e+01
  -2.274402e+00   4.223946e+01
  -6.161632e+01  -3.487701e+00
  -5.906377e+01  -1.281266e+01
  -6.533938e+00  -2.724773e+01
  -1.734103e+01  -6.851113e-01
  -8.560846e+01   2.041988e+00
  -1.306694e+01  -3.925190e+01
   5.733785e-01  -7.915611e+01
   4.545804e+01  -1.302027e+02
   5.741304e+01   4.885965e+00
   7.712192e+01   5.952968e+00
   2.899686e+01   7.174254e+01
  -1.976231e+01   1.256481e+02
  -3.259458e+01  -1.792132e+01
   3.648039e+01  -3.637282e+01
   8.612628e+01  -1.489846e+01
  -3.243058e+00   7.171605e+01
  -4.888035e+01   6.160138e+01
  -9.152145e+01   4.002225e+01
  -1.330209e+02  -3.031101e+01
  -5.600557e+01  -3.360154e+01
   5.273828e+01  -4.927010e+01
   3.465942e+01   7.964278e+00
  -4.193108e+01  -5.868141e+00
  -1.791630e+01  -2.796760e+01
  -4.684246e+01  -6.366534e+01
  -7.952470e+00  -9.883099e+01
   2.662702e+01  -8.734661e+01
   7.599947e+01  -5.218275e+00
  -3.226964e+01   1.017917e+02
  -2.152082e+01   1.085029e+02
  -6.674971e+01   1.230562e+01
  -2.198064e+01  -2.288846e+01
  -2.978980e+01  -5.647450e+01
   3.836463e+01  -2.310419e+01
   9.399551e+00  -1.195390e+01
   1.503220e+01  -2.294737e+01
  -5.829648e-01  -2.904874e+01
   4.846854e+01   4.151802e+01
   4.699714e+01   5.387955e+01
   8.119883e+00   2.702602e+01
  -2.106974e+01   3.657954e+01
  -5.674879e+01   2.162910e+00
  -5.083646e+01  -4.725058e+01
  -3.635124e+01  -3.059117e+01
   1.041019e+01  -1.306535e+01
   5.454013e+01  -7.141927e+00
   1.812411e+01   4.195830e+01
  -3.902406e+01  -3.746178e+01
   1.586939e+01   1.021428e+01
   1.071181e+00   1.461987e+00
   2.242918e+01   3.521524e+01
   2.294689e+01   8.506989e+00
  -3.548771e+01   4.724350e+00
  -1.222880e+01  -4.789240e+01
   4.821072e+01  -8.104918e+01
   7.771729e+01  -8.468078e+01
   8.072136e+01   3.585885e+01
  -1.917379e+01   5.815007e+01
   1.884743e+01   6.927398e+01
  -7.864912e+01   3.049441e+01
  -3.334816e+01  -2.908188e+00
  -8.243429e+00  -3.800811e+01
   1.280571e+01  -1.256823e+01
   1.153119e+01  -2.037623e+01
  -2.832278e+01   1.506450e+01
   3.594271e+01  -3.907382e+01
   4.551018e+01  -4.897548e+01
   3.935855e+01   3.458180e+01
   6.203808e+01   3.070548e+01
   1.163238e+01   9.309706e+01
  -3.171458e+01   1.723709e+01
  -8.419803e+01   1.432302e+01
  -4.510498e+01  -5.483384e+01
   7.468300e+00  -3.754511e+01
   3.867467e+01  -1.761569e+01
   6.513483e+00   4.108262e+01
  -3.464176e+01   4.910009e+01
  -5.567923e+01   2.037204e+01
   4.136245e+01  -7.211850e+00
   2.691494e+01  -6.757792e+01
   5.788864e+01   1.821649e+01
  -4.286428e+01   6.163884e+01
  -8.757945e+01   4.484476e+01
  -6.515498e+01   4.255287e-01
  -1.183881e+01  -4.670369e+01
  -3.129081e+00  -5.117716e+01
   1.773206e+01  -2.457669e+01
   1.395489e+01  -1.032136e+01
  -4.904365e+01   1.892530e+01
   1.079750e+00  -5.147313e+00
   8.698011e+00  -4.915563e+01
  -1.558359e+01  -4.304616e+01
   4.989099e+01  -9.978693e-01
   5.815129e+01   2.929557e+01
  -2.953271e+01   1.072070e+01
  -3.330220e+00   1.189911e+01
   4.633806e+01  -6.625018e+00
   1.883206e+01   4.472568e+01
   2.027287e+01   8.759560e+00
  -3.120987e+01   3.839452e+01
  -3.858368e+01  -2.738658e+01
  -5.392213e+01  -4.119343e+01
  -1.649891e+01  -2.875345e+01
   3.228668e+01   1.617948e+01
   3.517659e+01   1.546585e+01
  -2.111100e+01   1.398493e+01
  -1.739522e+01  -3.968259e+00
   7.836024e-01  -1.259480e+01
   2.238751e+00  -2.619527e+01
   6.105573e+01  -3.110770e+01
   1.224514e+01   7.159473e+00
   4.544534e+01   1.561412e+01
  -1.853342e+01   4.764439e+00
   3.167486e+01   1.714944e+01
   5.018128e+01  -1.851991e+01
