
 $NMID
 id='ANONYMOUS ', fmtdat='(2E16.6)'
 volume=1.0
 tramp=1.0
 $END
   2.014047e+03   4.110320e+02
   6.443236e+02   4.066281e+02
  -3.247035e+01   9.411715e+02
  -3.767823e+02   2.619133e+02
  -2.308965e+02  -1.076937e+01
   1.527214e+02  -9.113648e+01
   1.189950e+02   1.578852e+02
  -7.954953e+01   2.894936e+02
  -3.307511e+02   3.130993e+02
  -2.697402e+02   4.752884e+01
  -1.700517e+02  -2.455513e+02
   6.197809e+00  -2.444419e+02
   8.503361e+01  -1.970146e+00
   1.203317e+02   2.129467e+02
  -5.186492e+01   3.383342e+02
  -1.889353e+02  -4.872032e+00
  -1.197707e+02  -2.583720e+02
   8.060217e+01  -2.776064e+02
   1.896254e+02  -1.001798e+02
   2.576501e+02   6.806683e+01
   5.523011e+01   2.012239e+02
  -7.092590e+01   1.253189e+02
  -1.155712e+01   2.726093e+01
   1.212698e+02   3.144094e+01
   1.025415e+02   1.741685e+02
  -1.110737e+01   1.680215e+02
  -1.704790e+02   5.182987e+01
  -2.134562e+02  -8.530315e+01
  -1.310218e+02  -1.712108e+02
   2.306889e+02  -7.618306e+01
   2.024694e+02   6.551889e+01
  -1.121164e+01   1.863670e+02
  -1.329355e+02   1.909810e+02
  -2.467470e+02   5.534552e+01
  -7.606815e+01  -9.476054e+01
  -1.285580e+02  -1.384533e+02
   1.496802e+01  -3.355984e+01
  -2.148582e+01   4.289760e+01
  -3.358939e+01   9.284998e+01
  -1.031266e+02  -4.775968e+01
  -2.901974e+01  -2.859014e+02
   3.907702e+01  -2.062732e+02
   9.615806e+01  -3.122478e+01
   6.375151e+01   1.245363e+02
  -7.385982e+01   3.645486e+01
  -6.103324e+01  -1.172092e+02
   1.434722e+01  -1.301234e+02
   2.757340e+02  -3.414361e+01
   1.124175e+02   1.852298e+02
  -4.019845e+00   2.986030e+02
  -9.421512e+01   9.217429e+01
  -2.364735e+02   5.211574e+01
  -7.528831e+01  -8.680889e+01
   2.785506e+01  -1.366099e+02
   1.591522e+02  -2.111199e+01
   1.255904e+02   6.820612e+01
  -1.393876e+01   1.929555e+01
  -2.567549e+01  -5.630981e+01
  -1.368736e+01  -3.444644e+00
   1.309611e+02   1.916964e+01
   7.654394e+01   5.375553e+01
  -1.126877e+02   7.653393e+01
  -1.991512e+02   5.065675e+01
  -9.398312e+01  -4.924651e+01
  -4.563566e+00  -7.468641e+01
   1.467327e+02  -1.376323e+02
   1.559416e+02  -7.597346e+01
   7.705123e+01   5.145352e+01
   2.878822e+01   9.559106e+01
   3.118397e+01   2.384880e+02
   6.885630e+00   4.845281e+01
  -1.332500e+01   8.652884e+01
  -9.225577e+01   4.654769e+01
  -1.016864e+02   3.259908e+01
  -5.902692e+01  -7.958963e+01
  -4.533681e+01  -1.515530e+02
   2.985219e+01  -8.872826e+01
   2.445377e+01   4.381913e+01
   3.236175e+01   1.241445e+02
  -2.173474e+00   4.906630e+01
  -1.299143e+02   2.641348e+01
  -1.508362e+02  -8.661405e+01
  -6.306553e+01  -8.674708e+01
   4.151704e+01  -1.345811e+02
   3.950407e+01  -5.778143e+01
   5.247550e+01  -3.969425e+01
   1.004713e+02  -5.651429e+01
   1.316217e+02   3.310496e+01
   2.071028e+02   9.534664e+01
   1.295969e+02   1.141061e+02
  -1.603751e+01   1.450572e+02
  -1.925650e+02   1.939001e+02
  -2.275650e+02   8.911417e+01
  -1.523207e+02  -5.068459e+01
   3.798283e+00  -1.109781e+02
   2.048618e+01  -8.715504e+01
   6.459535e+01   1.163098e-01
  -5.971661e+01   8.790958e+00
  -8.810023e+01  -4.025227e+01
   2.892887e+01  -5.942950e+01
   9.558682e+01  -1.036806e+01
   8.115667e+01   9.922808e+00
  -3.201156e+01   4.980475e+01
  -1.076348e+02   2.214471e+01
  -5.184198e+01  -1.043477e+02
  -4.647374e+01  -1.014154e+02
   5.966806e+01  -8.858395e+01
   1.066261e+02   8.882710e+01
   1.338067e+02   1.127540e+02
  -7.276221e-01   5.668080e+01
  -1.247568e+02   7.867925e+01
  -1.030112e+02   4.005628e+01
  -4.426538e+01  -2.609216e+01
  -3.284368e+00   5.434830e+01
  -1.308042e+01   8.641939e+01
  -4.515109e+01  -2.484003e+00
  -9.724957e+01  -4.181060e+01
  -4.653934e+01  -4.046446e+01
   8.390662e+01   2.322296e+00
   2.707176e+01   6.207727e+01
  -1.300704e+02   7.777186e+01
  -9.205908e+01  -5.915987e+01
  -3.831108e+01  -1.113050e+02
  -2.928642e+01  -1.102901e+02
   8.618589e+01  -5.520864e+00
   1.632235e+02  -1.612771e+01
   1.197026e+02   1.131367e+01
  -4.661886e+01   4.255794e+00
   2.360837e+01  -4.472993e+01
   2.441736e+01  -3.885155e+01
   8.468126e+01  -1.694549e+01
   7.439213e+01   6.924892e+01
  -3.741516e+01   5.993420e+01
  -4.817965e+01   7.684588e+01
  -1.034583e+02  -7.302005e+00
  -1.396464e+00  -3.865586e+01
   3.665028e+01   7.893654e+00
   8.080315e+00   2.794386e+01
  -1.152253e+01   3.415535e+01
  -1.230154e+02  -3.232940e+00
  -5.250914e+01  -6.177564e+01
   3.316750e+01  -9.892570e+01
   8.611944e+00  -1.087093e+02
   5.182404e+01   2.336177e+00
   4.446921e+00   4.526934e+01
  -4.806497e+01   4.054219e+01
  -4.205927e+01  -4.845213e+00
  -4.333776e+00   1.770107e+01
  -2.709814e+01   1.486141e+01
   1.357201e+01   4.964155e-01
  -4.907555e+01   1.534437e+01
  -3.237670e+01  -6.234306e+01
  -2.080476e+01  -7.457763e+01
   1.091341e+02  -9.728381e+01
   1.181034e+02   4.143177e+01
   8.254883e+01   7.294134e+01
  -7.157769e+00   1.170027e+02
  -8.171621e+01   7.851368e+01
  -1.572250e+01   1.424881e+01
  -7.639654e+01  -5.786592e+01
  -2.897589e+01   1.494552e+01
  -4.806178e+01   3.440146e+01
  -3.388736e+01   2.291160e+01
  -2.473775e+01  -2.993891e+01
  -3.123681e+00  -4.243675e+01
   5.934807e+01  -6.926479e+01
   3.409594e+01   3.421638e+01
  -6.891694e+00   4.659832e+01
  -4.026533e+01   5.697544e+01
  -1.357030e+02  -5.857944e+01
  -5.762531e+01  -1.007743e+02
   8.504836e+01  -9.801572e+01
   8.245698e+01   1.716580e+01
   1.234664e+02   3.623902e+01
   6.792824e+01   9.181345e+01
  -7.758249e+01   3.396319e+01
  -2.617206e+01   8.458877e+00
   2.070491e+01   5.072330e+01
  -4.931405e+01   4.701815e+01
  -4.431637e+01   5.378564e+01
  -3.934766e+00   5.360347e+01
  -3.916635e+01  -7.436498e+01
  -3.372966e+01  -1.552400e+02
   7.411457e+01  -4.175680e+01
   7.962039e+01  -1.762133e+01
   2.934718e+01   1.125553e+02
  -1.313889e+01   7.761099e+01
  -5.347932e+01   3.285508e+00
  -1.999462e+01   4.635910e-01
  -5.503994e+01   5.416336e+00
  -3.740823e+01   1.878862e+01
  -3.619746e+00   1.181500e+01
  -3.570575e+01  -5.190305e+01
   1.114623e+01   4.364623e+00
   2.605692e+01  -2.410548e+01
   7.437644e+01  -1.958082e+01
   1.026854e+02   4.981695e+01
  -1.160319e+01   3.310817e+01
  -3.174907e+01  -3.562183e+01
  -8.881798e+01   2.472489e+01
  -2.465918e+01  -5.762848e+00
   1.321465e+01  -1.432249e+01
   3.983857e+01  -5.274618e+00
  -2.670468e+01   2.299695e+01
   2.702128e+01  -2.862220e+00
  -2.191536e+01  -2.838900e+01
  -2.661230e+01  -4.915877e+01
   6.128631e+00  -1.044869e+01
   4.893618e+00  -2.213311e+01
  -5.743692e+01   7.702325e+00
  -3.083289e+01   3.939020e+00
   2.207266e+01  -3.569104e+01
   2.878211e+01  -8.338453e+01
   8.535711e+01  -3.782052e+01
   6.390241e+01   6.060392e+01
  -7.711514e+00   8.241322e+01
  -5.275099e+01   1.078761e+01
  -1.354651e+01  -2.194092e+01
   3.056107e+01  -6.343422e+00
   1.714057e+01   4.063971e+01
   1.457670e+01   9.672293e+01
  -6.647136e+01   1.374934e+01
  -1.101987e+02  -1.174992e+00
  -7.296408e+01  -2.895660e+01
  -3.043922e+01  -4.274734e+01
   6.804821e+01  -5.053881e+01
   3.803815e+01   1.350948e+01
  -5.332111e+00   1.805389e+01
  -5.166973e+01  -4.065122e+01
   6.702161e+00  -7.499335e+01
   2.289002e+01  -6.245344e+01
   1.145120e+02  -2.932307e+01
   3.143455e+01   7.075592e+01
   1.894445e+01   7.970615e+01
  -3.506414e+01   6.767828e+01
  -9.398854e+01   1.158161e+01
  -6.769917e+01  -8.965092e+01
  -1.169777e+01  -1.387045e+00
   6.902757e+00  -4.632633e+01
   3.944294e+01   1.669363e+01
   5.264449e+01   1.444395e+01
  -8.590059e+00   4.439392e+00
   1.198019e+01  -2.212910e+00
   1.892095e+00   4.386214e+01
   1.664782e+01   4.266699e+01
  -3.369765e+01   4.920310e+01
  -4.418521e+01  -3.623243e+01
  -8.563276e+01  -7.661139e+00
  -3.533606e+00   2.793712e+00
   5.354066e+01  -6.845536e+00
   3.207776e+00   1.459783e+01
   9.826773e+00   1.313856e+01
  -3.276034e+01   3.181461e+01
  -1.126468e+01   2.168584e+00
   8.810219e+00  -4.318276e+01
   3.093910e+01   2.545931e+01
  -2.454975e+01  -4.197575e+01
  -4.220354e+01  -4.673565e+01
   2.262760e+01  -3.503399e+01
   9.190322e+01  -3.792018e+01
   1.094065e+02  -2.846875e+01
   2.463833e+01  -1.924516e+01
   1.306838e+01   7.225250e+01
  -5.850735e+01   4.444293e+01
  -3.089117e+01   3.708575e+01
  -4.181114e+01  -8.347098e+00
  -1.640592e+00  -1.377238e+01
  -1.387961e+01   1.694208e+01
  -4.775849e+01   4.564202e+01
  -2.502981e+01   1.169088e+01
  -6.128946e+00  -4.505104e+01
   9.265391e+00  -5.464310e+01
   3.251455e+01   2.391224e+01
   1.031826e+01   5.135621e+01
   2.028572e+01   6.520777e+01
  -2.491571e+01   1.851168e+01
  -2.486299e+01  -5.716542e+00
  -2.294796e+01  -6.256865e+01
   8.242933e+00  -1.980419e+01
   2.299407e+01  -2.967118e+01
  -7.523737e+00   1.491506e+01
   1.470329e+01   3.432537e+01
  -1.415832e+01  -2.069354e+01
  -1.656866e+01  -1.427706e+01
   7.203472e+01   1.303207e+01
   3.194333e+01  -2.183049e+00
  -1.034819e+00   5.053436e+00
  -5.205136e+01   2.379823e+01
  -5.818790e+01  -1.291279e+01
   5.243775e+00  -1.959821e+01
   5.901450e+01  -6.326840e+01
   5.085575e+01  -3.601269e+00
  -1.742637e+01   1.434003e+01
  -5.645487e+01   5.165537e+01
  -5.186045e+01  -4.278766e+01
  -3.088047e+01  -2.028999e+01
  -1.154765e+01  -4.113757e+01
   3.836272e+00  -6.615100e-01
  -6.573729e+00   4.720765e+00
   7.296480e+00   9.428152e+00
   2.158587e+01  -8.214792e+00
  -1.833844e+01  -1.770526e+01
   2.738642e+01   2.018681e+01
   1.563499e+01  -1.482568e+01
   2.934711e+01  -1.461062e+01
  -3.462529e+01   1.235678e+01
  -5.017268e+01  -2.095753e+01
   2.729069e+01   1.677093e+01
   1.841663e-01  -4.736447e+00
  -1.140496e+01   5.253127e+01
   1.518563e+01   5.493295e+01
  -1.142925e+01  -3.495591e+01
  -4.080512e+00  -2.742510e+01
   1.600371e+01  -1.367290e+01
   2.361082e+01  -6.824063e+00
   9.136295e+00   8.014742e+00
   1.252006e+01  -1.166287e+01
  -1.025162e+00  -7.436045e+00
   2.468321e+01  -2.421070e+01
   1.920962e+01  -3.265668e+01
