
 $NMID
 id='ANONYMOUS ', fmtdat='(2E16.6)'
 volume=1.0
 tramp=1.0
 $END
   2.228355e+03   2.036741e+02
   1.380850e+03   9.198131e+02
   1.552459e+02   1.474866e+03
  -7.691312e+02   1.113538e+03
  -8.781606e+02   6.613478e+02
  -2.888328e+02   1.584884e+01
   8.738469e+01  -2.221638e+01
   1.970648e+02   2.837290e+02
  -2.517838e+02   4.993101e+02
  -4.222305e+02   2.461904e+02
  -3.587348e+02  -1.856661e+02
  -7.999698e+01  -3.609366e+02
   1.481252e+02  -3.514900e+02
   2.531647e+02   2.119434e+02
   4.834958e+01   3.702248e+02
  -2.164627e+02   7.007325e+01
  -4.416091e+02  -2.834012e+02
   5.133676e+00  -4.698887e+02
   3.825762e+02  -2.909878e+02
   3.466726e+02   1.696939e+01
   1.691842e+02   2.339148e+02
  -3.387934e+01   2.328389e+02
   1.696641e+01   1.045679e+02
   1.914676e+02   1.020955e+02
   1.603936e+02   2.635342e+02
  -1.076899e+02   2.364555e+02
  -2.780853e+02   8.289086e+00
  -4.114392e+02  -2.043346e+02
  -1.021557e+02  -1.271547e+02
   8.044194e+01  -3.483926e+01
   3.305186e+02   5.732898e+01
   2.066228e+02   1.385032e+02
  -1.059128e+02   2.033270e+02
  -3.200993e+02  -4.416318e+01
  -2.201006e+02  -1.296841e+02
  -1.157165e+02  -1.255925e+02
  -6.513986e+01  -1.014233e+02
  -9.053406e+01   3.897052e+01
  -5.224318e+01   4.980279e+01
  -4.838352e+01  -1.042908e+02
   1.199740e+02  -1.675888e+02
   9.206799e+01  -2.448344e+02
   1.068163e+02  -4.244325e+01
   7.103787e+01   1.419650e+02
   4.244172e+01   7.768309e+01
  -9.083973e+01  -1.124968e+02
   4.932933e+01  -2.685554e+02
   3.416976e+02  -4.707274e+01
   3.600980e+02   9.782792e+01
   1.058634e+02   3.215843e+02
  -1.478912e+02   2.298560e+02
  -2.992947e+02  -7.030676e+01
  -2.445499e+02  -6.762207e+01
  -3.760956e+01  -1.856113e+02
   1.783697e+02  -9.275369e+01
   1.762291e+02  -6.325152e+01
   3.248860e+01   5.640009e+01
  -3.183132e+01  -8.397343e+00
   2.163725e+01  -5.375802e+00
   1.895989e+02  -4.607204e+01
   6.821593e+01   5.188571e+01
  -6.477774e+01   2.163093e+02
  -2.319853e+02   1.485234e+02
  -1.826468e+02  -2.705735e+01
  -4.823449e+01  -2.157136e+02
   1.839819e+02  -3.156512e+02
   3.050759e+02  -1.346221e+02
   1.327922e+02   8.965973e+01
   7.855582e+01   1.481450e+02
  -1.431467e+01   2.503430e+02
   1.362736e+01   1.607577e+02
  -4.456781e+01   1.197313e+02
  -1.049402e+02   8.048506e+01
  -1.956382e+02   6.554485e+01
  -1.431025e+02  -5.994401e+01
  -4.012924e+01  -1.367691e+02
   6.373858e+01  -1.476802e+02
   7.343400e+01   3.095738e+01
   1.103818e+02   1.776479e+02
  -3.307193e+01   1.482143e+02
  -1.637580e+02  -1.559891e+00
  -1.480762e+02  -1.240480e+02
  -1.387794e+02  -2.210241e+02
  -7.107804e+00  -1.343999e+02
   1.156794e+02  -1.494231e+02
   7.774171e+01  -1.102006e+02
   1.271904e+02  -4.021538e+01
   2.170348e+02  -3.147144e+01
   3.640533e+02   1.008864e+02
   2.148270e+02   2.386309e+02
  -9.566031e+00   2.938499e+02
  -3.154588e+02   2.891871e+02
  -3.461623e+02   1.208431e+02
  -2.449945e+02  -5.307702e+01
  -3.305277e+01  -1.356897e+02
   6.367728e+01  -1.646045e+02
  -1.346130e+01  -4.480597e+01
  -1.021828e+02  -8.127242e-01
  -7.272670e+01  -2.732058e+01
  -1.440370e+01  -6.956482e+01
   5.825776e+01  -6.130281e+01
   5.247686e+01   3.224825e+01
  -5.656363e+01   6.640061e+01
  -9.364720e+01   3.986191e+01
  -1.250753e+02  -1.691688e+02
  -5.747874e+01  -2.549211e+02
   1.932845e+02  -1.695380e+02
   2.572760e+02  -1.956885e+01
   2.177050e+02   2.070125e+02
   1.076722e+02   2.205049e+02
  -9.645927e+01   7.208174e+01
  -1.012664e+02   3.296890e+01
  -4.016089e+01   1.852204e+01
  -1.320822e+01   6.844950e+01
   3.806586e+00   6.699015e+01
  -8.768720e+01   4.201146e+01
  -3.772060e+01  -2.024749e+00
  -2.096145e+01  -4.665616e+01
   3.601123e+01   4.528940e+00
   3.674177e+01   2.527341e+01
  -9.501296e+01   9.868246e+01
  -2.040431e+02  -1.135210e+01
  -1.099206e+02  -1.596267e+02
  -8.311612e+01  -2.242191e+02
   1.366453e+02  -1.820373e+02
   1.788110e+02  -8.196230e+01
   1.085225e+02   2.221661e+01
  -7.419160e+00   3.943958e+01
  -4.472403e+01   1.556205e+01
   3.125419e+01  -6.059803e+01
   1.007681e+02  -7.894853e+01
   1.157121e+02   9.595675e+01
   7.534145e+01   1.012769e+02
  -5.966700e+01   1.005897e+02
  -1.320533e+02   5.299798e+00
  -1.033437e+01   4.445450e+00
   2.244045e+01  -3.233692e+00
   3.501941e+01   7.356761e+01
  -7.521614e+01   7.269200e+01
  -1.611813e+02   2.345139e+01
  -1.273988e+02  -1.109080e+02
  -2.880263e+01  -1.722975e+02
   1.068917e+02  -1.063604e+02
   8.139036e+01   4.134549e+01
   3.883118e+01   2.044245e+01
  -6.754960e+01   6.160211e+01
  -2.177407e+01   1.247384e+01
   1.979920e+01  -5.699673e+01
   3.425313e+01   1.351991e+01
  -3.879470e+00   6.758638e+01
  -6.691196e+01   2.617694e+01
  -9.284803e+01  -8.796055e+01
  -1.385254e+01  -1.648774e+02
   8.492392e+01  -1.357794e+02
   1.281822e+02  -1.029149e+01
   1.260528e+02   1.039117e+02
   5.225470e+00   1.469537e+02
  -6.693412e+01   1.373570e+02
  -7.661804e+01   4.188412e+01
  -6.322311e+01  -5.334490e+00
  -2.352310e+01  -4.792982e+01
  -4.081807e+00   3.200469e+01
  -3.905328e+01   4.681889e+00
  -6.824392e+01  -9.625454e+01
  -3.972696e+00  -1.012928e+02
   9.829278e+01  -6.714379e+01
   8.871150e+01   6.032939e+01
  -3.101525e+01   1.137563e+02
  -1.354331e+02   6.971834e+01
  -1.840616e+02  -4.211270e+01
  -9.905977e+01  -1.876778e+02
   1.266819e+02  -1.242519e+02
   1.956910e+02  -1.071272e+02
   1.687192e+02   9.506927e+01
   5.894344e+01   1.664391e+02
  -3.422864e+01   9.684353e+01
  -8.295204e+01   6.065635e+01
  -4.269085e+01   6.092739e+01
  -2.626384e+01   8.035826e+01
  -5.347611e+01   9.101417e+01
  -1.223035e+02   3.559524e+00
  -1.024388e+02  -7.720769e+01
  -2.838409e+01  -1.931487e+02
   7.591842e+01  -1.535297e+02
   1.417825e+02   1.978030e+01
   2.149991e+01   1.236839e+02
   2.115162e+01   1.161115e+02
  -5.953946e+01   8.184195e+01
  -2.435842e+01   1.856867e+00
  -7.273365e-01  -3.788552e+01
   6.021426e+01  -2.098701e+01
  -6.152491e+01  -1.558224e+01
  -8.051772e+01  -2.606646e+00
  -3.811547e+01  -3.589790e+01
   4.679256e+01  -5.009437e+01
   1.576705e+02  -2.787958e+01
   1.059283e+02   4.750675e+01
  -1.692710e+01   2.635178e+01
  -1.093927e+02   5.040320e+01
  -9.641050e+01   3.681232e+01
  -2.436067e+01  -6.159143e+01
   2.248489e+01  -2.066747e+01
   4.648442e+01   3.348496e+01
   2.848612e+01   4.635017e+01
  -7.239697e+01   3.965260e+01
  -8.042055e+01   1.008686e+01
  -2.005946e+01  -6.069601e+01
  -6.202442e+01  -1.426785e+00
  -3.428051e+01   2.367143e+00
  -6.929764e+01   3.224241e+01
  -1.521362e+01  -8.233200e+01
  -1.067806e+01  -1.240615e+02
   8.453524e+01  -1.479689e+02
   1.518923e+02   8.168573e+01
   1.025882e+02   1.016792e+02
  -4.717457e+01   7.092289e+01
  -5.714339e+01   5.571011e+01
  -4.457792e+01   1.465923e+01
   2.583591e+01  -1.439832e+01
   9.257734e+01  -2.441661e-01
   8.176111e+01   8.172257e+01
  -7.591660e+01   1.014657e+02
  -8.618354e+01   5.250809e+01
  -6.465589e+01  -3.979089e+01
  -2.166113e+01  -8.622334e+01
   4.134526e+01  -1.408514e+01
   5.035740e+01  -1.365995e+01
  -3.059477e+01   3.604889e+01
  -8.821789e+01  -1.791061e+01
  -4.819054e+01  -5.897906e+01
   1.255297e+01  -1.910885e+02
   9.914860e+01  -4.593680e+01
   1.082779e+02   8.356169e+01
   6.635255e+01   1.830874e+02
  -5.928912e+01   1.312425e+02
  -7.415050e+01  -3.160588e+01
  -3.964634e+01  -6.705796e+01
  -1.521218e+00  -4.938114e+01
   2.130502e+01   5.713363e+00
   3.796574e+01   2.871574e+01
   5.878676e+00  -1.399737e+01
   1.711231e+01   3.629800e+01
   5.911381e+01  -6.307898e+00
   8.834427e+01   2.610114e+01
   7.207965e+00   6.692711e+01
  -2.445601e+01  -3.876652e+00
  -1.097312e+02  -2.352158e+01
  -8.691011e+01  -1.864578e+01
  -4.116926e+01  -5.514038e+01
   3.666682e+01  -1.008924e+01
   8.113951e+01   8.295367e-01
   1.357331e+01   1.413048e+01
  -9.980809e+00   1.649480e+01
  -1.281183e+01   7.279140e+00
   2.898863e+00  -1.790325e+01
   2.069842e+01  -4.688151e+00
  -2.353354e+01   4.333562e+00
  -7.228706e+01   3.859154e+00
   1.381304e+01  -9.948065e+01
   6.808707e+01  -7.059757e+01
   1.577431e+02  -3.163027e+01
   1.284793e+02   3.704913e+01
   2.699815e+01   1.352037e+02
  -5.348708e+01   9.902172e+01
  -9.013102e+01   5.821580e+01
  -5.427041e+01   1.521169e+01
   2.407411e+01  -1.439264e+01
  -1.809580e+01   1.279687e+01
   1.688269e+01   1.414339e+01
  -3.662391e+01  -6.453570e+01
   3.822449e+01  -4.659112e+01
   1.036976e+00  -5.813052e+01
   6.608681e+01  -2.975056e+01
   8.670230e+01   8.428664e+01
   1.213990e+01   1.121796e+02
  -4.453173e+01   1.513744e+01
  -8.891720e+01  -4.770553e+01
   6.434915e+00  -1.033590e+02
   3.424779e+01  -7.560841e+01
   8.285779e+01  -1.327640e+01
   3.024099e+01   4.594707e+01
  -4.574749e+01   6.276471e+01
  -1.319334e+01   2.271029e+01
   2.942627e+01   7.187790e+00
   1.058021e+02  -2.030925e+01
   4.924481e+01   5.620126e+01
  -2.654003e+01   3.286227e+01
  -6.120156e+01   5.947632e+01
  -3.599806e+01  -1.661960e+00
  -1.914711e+01  -3.606796e+01
   2.547901e+01  -8.387169e+01
   7.089800e+01  -4.894745e+00
   1.008239e+01   4.001784e+01
   1.831077e+01   6.065996e+01
   6.639084e+00   3.016528e+01
  -5.369059e+01  -4.904357e+01
  -4.112580e+00  -2.584014e+01
   6.740717e+01   6.524431e+00
   2.550214e+01   9.987784e+00
  -1.790723e+01  -1.827755e+00
   6.617522e+00  -1.727834e+01
   1.935239e+01   3.861069e+00
  -1.860163e+01   3.219529e+01
   9.359728e+00   5.066982e+00
   2.756957e+00   2.611579e+01
  -4.353119e+01  -1.319932e+01
  -2.536184e+01  -1.028022e+02
   4.958221e+01  -3.545481e+01
   2.101186e+01  -8.211134e+00
   2.363711e+01   5.091197e+01
  -5.258497e+01   4.209042e+01
  -1.074769e+02   1.240368e+01
  -3.168710e+01  -4.190540e+00
   5.146855e+01  -5.261219e+01
   4.491072e+01   3.696475e+00
   3.075432e+01  -3.577624e+01
  -2.932129e+01  -4.302553e+00
  -2.351919e+01   2.407495e+01
   1.229058e+01   4.220822e-01
   1.040935e+01  -1.323148e+01
