
 $NMID
 id='ANONYMOUS ', fmtdat='(2E16.6)'
 volume=1.0
 tramp=1.0
 $END
  -1.630643e+03  -1.140942e+02
  -9.781705e+02  -5.923095e+02
  -2.807215e+02  -9.456059e+02
   4.766148e+02  -1.949835e+02
   2.319225e+02   9.786339e+01
  -1.152153e+02   5.042518e+01
  -1.951900e+02  -1.505626e+02
   1.470297e+02  -2.895887e+02
   3.512650e+02  -3.085129e+02
   2.448189e+02  -3.554116e+01
   1.730466e+02   1.897047e+02
  -1.490693e+01   3.587577e+02
  -9.500728e+01  -8.680378e+00
  -5.187866e+01  -2.772181e+02
   8.523069e+01  -2.842183e+02
   2.402498e+02  -7.402103e+00
   1.034524e+02   2.380936e+02
  -4.793341e+01   2.610301e+02
  -1.817924e+02   8.895764e+01
  -2.320332e+02  -9.288351e+01
  -5.710060e-01  -1.800799e+02
   3.769111e+01  -1.264088e+02
   1.332186e+00  -3.757810e+01
  -1.040750e+02  -6.753844e+01
  -1.773030e+02  -1.720690e+02
  -3.879822e+00  -2.053191e+02
   2.103005e+02  -5.465616e+01
   3.312542e+02   7.139364e+00
   1.562937e+02   2.162738e+02
  -1.950504e+02   1.051163e+02
  -1.798064e+02  -1.456169e+02
  -3.045617e+01  -1.937145e+02
   1.208913e+02  -1.842597e+02
   2.693792e+02  -9.511904e+01
   9.097490e+01   1.436811e+02
   1.047449e+02   1.348385e+02
  -3.252626e+01   4.857043e+01
  -4.121899e+01  -1.486305e+02
   7.099103e+01  -1.341179e+02
   9.171850e+01   1.186199e+02
   4.072215e+00   2.738283e+02
  -5.425787e+01   9.075112e+01
  -1.913252e+02   1.350681e+01
  -1.357601e+02  -1.309880e+02
   1.391737e+02  -2.174528e+01
   9.210637e+01   1.521546e+02
  -3.844976e+01   1.174792e+02
  -2.599320e+02  -2.673261e+00
  -1.870713e+02  -2.432639e+02
  -6.048001e+01  -2.340242e+02
   1.268937e+02  -1.026251e+02
   2.723456e+02  -6.209963e+00
   1.086772e+02   1.913554e+02
  -2.344900e+01   7.468807e+01
  -1.496943e+02  -3.396021e+01
  -9.616830e+01  -5.042687e+01
  -2.781662e+01  -6.490066e-01
   2.018132e+01   1.233571e+01
   1.041065e+01  -1.321098e+01
  -1.060481e+02  -4.573147e+01
  -6.427708e+01  -6.125335e+01
   1.128160e+02  -7.738312e+01
   2.097369e+02  -8.040080e+01
   4.200064e+01   5.140766e+01
   4.134432e+01   1.152571e+02
  -8.926501e+01   1.444315e+02
  -1.655583e+02   1.033122e+02
  -4.798727e+01  -2.484109e+01
   1.123823e+01  -2.003582e+02
   8.515700e+00  -1.576528e+02
   9.331025e-01  -5.564040e+01
  -3.616939e+01  -3.387005e+01
   7.120261e+01  -3.109953e+01
   1.440361e+02  -4.983132e+01
   9.077716e+01   1.161350e+02
   2.379760e+01   1.843787e+02
  -8.309505e+01   1.039877e+02
  -5.416024e+01  -9.681512e+00
  -3.821353e+01  -1.490798e+02
   3.166691e+01  -8.803433e+01
   1.491263e+02  -2.419458e+01
   1.868355e+02   8.133727e+01
   1.186501e+02   1.573005e+02
   1.082201e+01   1.273378e+02
  -3.484450e+01   4.349186e+01
  -7.279046e+01   5.158717e+01
  -1.240316e+02  -6.889025e+00
  -1.595881e+02   3.149544e+01
  -2.009003e+02  -4.712801e+01
  -1.254096e+02  -1.135071e+02
   6.711854e+01  -1.706482e+02
   1.733958e+02  -1.351564e+02
   2.651243e+02  -1.609722e+02
   1.473868e+02   6.436198e+01
  -2.023173e+01   1.144813e+02
  -4.831629e+01   1.050367e+02
   1.364376e+01  -1.959812e+01
   8.767941e+01  -3.562669e+01
   9.352957e+01   4.082030e+01
   1.141758e+01   7.119821e+01
  -1.149496e+02   3.971537e+01
  -1.116997e+02   1.279780e+01
  -9.281846e+00  -5.707133e+01
   9.008795e+01  -8.042285e+00
   6.765401e+01   1.163057e+02
   2.959794e+01   1.395390e+02
  -6.065659e+01   5.020816e+01
  -1.250355e+02  -5.038818e+01
  -1.408011e+02  -1.332211e+02
   2.347951e+01  -9.598772e+01
   8.279388e+01  -7.548383e+01
   6.997100e+01   2.300650e+01
   1.008745e+01   3.441126e+01
  -1.069385e+01  -9.064797e+00
   2.906318e+01  -5.474681e+01
   4.801069e+01   1.893103e+01
   9.580102e+01   3.176464e+01
   1.122602e+00   3.414927e+01
  -4.966065e+01  -5.106118e+00
   1.529549e+01  -5.441479e+01
   9.214067e+01  -8.918958e+01
   1.918286e+02   1.107466e+01
   6.132790e+01   9.889806e+01
   9.071857e+00   9.202721e+01
  -1.158251e+02   4.851642e+01
  -1.872280e+02   5.080735e+01
  -9.122902e+01   2.187793e+00
   3.475172e+01  -2.164330e+01
   6.356216e+01  -6.584621e-01
  -1.567240e+01   2.033565e+00
  -6.054790e+01   6.675268e+00
  -1.293280e+02  -3.733613e+01
  -4.328148e+01  -1.140395e+02
   5.071050e+00  -5.764916e+01
   4.935413e+01   1.654115e+01
   1.926128e+01   5.150592e+01
  -5.308763e+01  -2.809769e+01
  -2.804993e+01  -7.283132e+01
   4.862135e+01  -7.285884e+01
   1.238468e+02   4.105473e+00
   9.823463e+01   2.818624e+01
  -3.957302e+01   7.488114e+01
  -6.782342e+01   8.496933e+01
  -7.172017e+01   1.802948e+01
  -5.944172e+01  -4.721052e+01
   6.203268e+01  -2.325617e+01
   1.487855e+01   6.078650e+00
   1.495257e+01   2.718988e+01
  -5.536287e+01  -4.779202e+01
   1.067068e+01  -1.640515e+01
   1.911548e+01  -2.594686e+00
   1.359669e+01   3.508904e+01
  -2.703773e+01   8.302730e+01
  -1.015189e+02   7.363144e+01
  -6.820487e+01  -2.816216e+00
  -1.040706e+02  -1.106568e+02
   5.096779e+01  -1.439199e+02
   1.029607e+02  -6.478664e+01
   3.599146e+01  -1.676860e+01
   3.644415e+01   4.895671e+00
   2.288280e+01  -1.126375e+01
   7.237801e+00  -1.427145e+01
   1.677357e+01   9.326208e+00
   4.517848e+01   8.294696e+00
  -2.997838e+01   4.879878e+01
  -8.057371e+01   4.843281e+01
  -5.385938e+01  -4.232678e+01
  -3.217869e-01  -5.576078e+01
   3.470736e+01  -3.784898e+01
   6.873656e+01   1.295996e+01
   4.717465e+01   9.630976e+01
  -5.434056e+01   1.075788e+02
  -1.084934e+02   3.508918e+01
  -1.024982e+02  -5.934216e+01
  -5.602514e+01  -7.590852e+01
   1.200269e+01  -7.098650e+01
   6.099542e+01  -5.727618e+01
   5.059470e+00  -5.391737e+01
   3.913438e+01  -2.501430e+01
   3.064982e+01  -2.566459e+01
   2.267405e+01   1.963683e+01
   3.436484e+01   4.594823e+01
   2.683151e+01   1.703929e+02
  -6.831996e+01   7.615065e+01
  -4.801839e+01   3.813760e+01
  -5.555613e+01  -5.448705e+01
   2.664261e+01  -8.373345e+01
   2.190979e+01   1.586878e+00
   4.368588e+01   3.130675e+01
   1.769113e+01   2.883796e+01
  -3.494007e+01  -1.640324e+01
   1.087380e+01   9.429650e+00
   1.233697e+01   4.720604e+01
  -2.562007e+01   1.974515e+01
  -6.069296e+01   1.212070e+01
  -8.677233e+01  -3.041208e+01
  -7.886043e+01  -7.550942e+01
   1.599355e+00  -1.705168e+01
   7.438512e+01  -3.253012e+01
   5.895217e+01  -2.189053e+00
  -1.094943e+01   2.485190e+01
  -2.116081e+01   1.115873e+01
   3.459745e+01   3.249006e+01
  -6.652997e+00  -6.612095e+01
   2.747920e+01  -3.916608e+01
   4.274403e+01  -2.573608e+01
   1.266976e+01   1.083490e+01
   3.033562e+01   3.347585e+01
   5.447939e+01  -1.908388e+01
   5.877577e+01   4.423613e+01
   8.892516e+00   3.564944e+01
  -5.460439e+01   5.631432e+01
  -9.961149e+01   6.611695e+01
  -9.595453e+01   8.267454e-01
  -8.003300e+01  -7.693708e+01
   3.037214e+01  -3.532103e+01
   9.613448e+01  -7.732683e+00
   5.786892e+01   5.555121e+01
  -6.441161e+00  -1.314136e+01
  -6.776217e+01  -5.875188e+01
   4.833769e-01  -8.925203e+01
   6.751731e+01  -6.573498e+01
   1.226147e+02   1.532220e+01
   9.529752e+01   1.056145e+01
   2.428563e+01   7.643040e+00
  -3.325611e+01   3.038956e+01
   1.706726e+01   1.502285e+00
   1.653442e-02  -1.303172e+01
   2.523116e+01   1.819372e+01
  -1.374876e+01   3.100508e+01
  -2.209830e+01   9.356466e+01
  -8.443635e+01   1.164784e+01
   1.425615e+01  -6.246980e+01
  -1.773160e+00  -9.574376e+01
   5.680759e+01  -2.934090e+01
   3.462771e+01   4.092658e+01
   3.352686e+01   4.840216e+01
   4.156026e+01   5.571435e+01
  -3.833398e+01  -1.500794e+01
  -2.194036e+01  -3.783828e+01
   3.191610e+00  -5.887059e+01
   4.061634e+00  -1.306239e+01
  -4.948983e+01  -1.682737e+01
  -1.385181e+01  -5.363935e+01
   6.453909e+00  -3.428515e+01
   5.442514e+01  -1.657828e+00
   7.867684e+01   1.807999e+00
   6.274924e+01  -1.155503e+01
   2.356560e+01   3.589397e+00
  -3.855863e+01  -1.576115e+01
  -3.201373e+01  -1.050893e+00
  -1.400172e+01  -1.045958e+01
   7.099929e+00   4.572404e+00
   6.192693e+01  -2.601664e+01
  -8.494475e+00   2.441104e+01
  -6.827035e+00   3.237201e+01
   2.939958e+01   2.380236e+00
   1.164988e+01   1.194943e+01
  -6.667577e+00   3.382266e+01
  -5.477861e+01   2.565249e+01
  -9.115771e+01   1.067290e+01
  -5.640961e+01  -3.778522e+01
   4.672548e+00  -1.216551e+02
   1.893355e+01  -9.234324e+01
   6.893103e+01  -4.192738e+01
   7.769938e+01   3.224743e+01
  -1.931199e+01   1.729097e+01
  -2.623590e+01  -1.618576e+01
   3.843890e+01   1.808503e+01
  -5.201212e+00   7.446873e+01
   1.934613e+01   4.266529e+01
  -2.787581e+01   8.408258e+01
   3.870620e+00   9.452621e+00
  -1.849089e+01  -8.506021e+01
  -1.234039e+01  -5.941143e+01
   1.940832e+01  -1.942298e+01
   1.789488e+01   6.173409e+01
  -2.299406e+01   1.810899e+01
  -5.633552e+01   1.725438e+01
  -3.634494e+01   1.196775e+01
  -1.789006e+00  -3.381688e+01
   4.236323e+01  -4.038455e+01
   3.027573e+01   7.336273e+00
  -3.307976e+01  -1.569901e+01
  -3.911899e+01   2.663988e+01
   2.451708e+00  -2.489741e-01
   5.472958e+01   2.455439e+00
   4.832485e+01   2.400593e+01
   1.756217e+01   1.748463e+01
  -4.026156e+00   2.665105e+01
  -4.298595e+01   7.240479e+01
  -4.126304e+01  -2.809531e+01
  -1.619534e+01  -1.007278e+01
   3.833482e+01   5.854296e+00
   3.826841e+01  -2.046117e+01
   1.111819e+01   1.528266e+01
   2.873250e+01   3.681536e+01
  -4.335516e+01  -2.314495e+01
   2.420744e+01   4.132054e+01
  -1.316363e+01   4.748878e+01
   2.619842e+01   1.906586e+01
   1.054460e+01  -1.118572e+00
  -3.306613e+01   2.893264e+01
  -2.181543e+00  -1.270026e+01
   7.367500e+01  -1.308658e+01
  -3.147130e+01   8.324927e-01
  -1.104878e+01   1.212836e+01
   7.311673e+00  -5.046281e+00
  -1.799238e+01  -2.153230e+01
   2.702112e+01  -2.022934e+01
  -1.096059e+00  -4.963023e+01
   5.616697e+01  -3.209548e+01
  -3.441419e+00   3.877778e+01
   1.340285e+00   2.843838e+01
  -8.610156e+00   2.790151e+01
  -4.261424e+01  -1.989454e+01
   7.040130e+00  -4.640922e+00
   7.749784e+00   6.805535e+00
  -4.249973e+01   4.832383e+00
  -3.158402e+01  -2.283895e+00
