
 $NMID
 id='ANONYMOUS ', fmtdat='(2E16.6)'
 volume=1.0
 tramp=1.0
 $END
   1.617677e+03  -1.327300e+02
   1.082919e+03   7.680565e+02
   3.297355e+02   7.544850e+02
  -5.030137e+02   9.228050e+02
  -4.425779e+02   2.789632e+02
  -1.171886e+02  -3.468311e+01
   7.887046e+01  -1.610851e+02
   2.381127e+02   2.722139e+02
  -6.338727e+01   1.623674e+02
  -2.337303e+02   2.320674e+02
  -4.116803e+02   3.526315e+00
  -1.137493e+02  -2.886343e+02
   5.634346e+01  -1.719509e+02
   1.670538e+02   4.102474e+01
  -7.661973e+01   2.631778e+02
  -2.151460e+02   7.762566e+01
  -3.166604e+02  -1.421314e+02
   4.485932e+01  -2.672543e+02
   2.403709e+02  -2.307093e+02
   2.091647e+02   2.771682e+01
   1.291106e+02   1.801684e+02
  -3.398483e+01   1.476325e+02
   7.418522e+00   6.797749e+01
   8.167076e+01   5.537414e+01
   1.288476e+02   1.720089e+02
  -5.378028e+01   1.477675e+02
  -1.810823e+02  -2.806217e+01
  -2.721266e+02  -3.552845e+01
  -9.203415e+01  -1.336550e+02
   1.355082e+02  -1.143928e+02
   1.831580e+02   9.105949e+01
   5.499605e+01   1.857553e+02
  -9.353183e+01   1.890634e+02
  -2.915177e+02   2.005115e+01
  -1.378226e+02  -4.867342e+01
  -5.767426e+01  -9.926160e+01
  -4.346153e+00  -8.600058e+01
  -7.005550e+01   1.576456e+01
  -1.028568e+02  -1.241067e+01
   2.425906e+00  -1.463572e+02
   1.256977e+02  -2.232229e+02
   5.675797e+01  -1.659361e+02
   4.009283e+01   2.210978e+01
   8.689639e+00   1.027460e+02
   2.293013e+00   5.811818e+01
  -4.217455e+01  -1.453346e+02
  -2.653277e+01  -1.747701e+02
   2.363463e+02   6.075853e+00
   2.909655e+02   1.219015e+02
   6.895346e+01   2.293068e+02
  -9.892159e+01   1.577067e+02
  -2.509360e+02  -8.227102e+01
  -2.388395e+02  -7.776998e+01
  -2.783342e+01  -1.145049e+02
   9.145572e+01  -1.765783e+01
   1.313489e+02  -2.551525e+01
   3.337262e+01   6.564069e+01
  -5.672248e+01   6.370400e+00
   6.245225e+01  -5.459963e+00
   7.355162e+01   3.171926e+01
   1.083655e+02   8.319922e+01
  -1.004282e+02   1.307126e+02
  -1.793711e+02   1.210414e+02
  -1.697798e+02  -2.633132e+01
  -2.677876e+01  -2.155813e+02
   1.519323e+02  -2.265608e+02
   2.823430e+02  -7.988519e+01
   1.451197e+02   5.756910e+01
  -9.954519e+00   1.071819e+02
  -2.514113e+01   5.858829e+01
  -2.731939e+00   1.099950e+02
  -5.939809e+00   1.104464e+02
  -6.858814e+01   1.010250e+02
  -1.036071e+02  -2.836501e+01
  -6.213875e+01  -5.927897e+01
   1.286737e+01  -1.466364e+02
   6.367296e+01  -5.825893e+01
   9.076229e+01   1.392894e+01
   3.970719e+01   1.374173e+02
  -5.323345e+01   1.144623e+02
  -1.023531e+02  -2.869280e+01
  -1.455147e+02  -1.330435e+02
  -6.099859e+01  -1.439653e+02
   6.795925e+01  -1.001245e+02
   7.734701e+01  -9.859273e+01
   5.528080e+01  -7.024998e+01
   7.955329e+01  -8.657644e+00
   1.888458e+02  -3.286001e+01
   2.330658e+02   5.250239e+01
   1.638949e+02   1.901832e+02
  -1.350136e+01   1.721070e+02
  -1.777812e+02   1.227681e+02
  -2.170006e+02   1.034324e+02
  -9.301507e+01  -2.816882e+00
   3.222030e-01  -6.671812e+01
   4.393879e+01  -8.365825e+01
  -1.728144e+01  -3.024816e+01
  -9.996992e+01  -1.385175e+01
  -2.275268e+01  -7.384963e+01
   3.598932e+00  -6.745801e+01
   8.913642e+01  -5.351239e+01
   1.927169e+00   2.792078e+01
  -5.904930e+01   5.221091e+01
  -6.176128e+01  -4.583066e+01
  -7.068457e+01  -7.811518e+01
   5.841408e+01  -1.461737e+02
   9.447816e+01  -1.197843e+02
   1.491728e+02   3.045741e+01
   1.574959e+02   1.480300e+02
  -6.022415e+00   1.172203e+02
  -6.746427e+01   4.594012e+01
  -7.808143e+01   3.546475e-01
   9.105773e+00   7.900195e+00
   6.013059e+01   3.536717e+01
  -2.110535e+01   4.608678e+01
  -4.842378e+01   3.998303e+01
  -2.976427e+01   2.173598e+01
  -3.297208e+01  -4.096987e+00
  -1.180930e+01  -1.473935e+01
   3.875160e+01   5.006459e+01
  -1.026167e+02   6.562703e+01
  -1.375835e+02   1.804642e+01
  -1.411759e+02  -1.188353e+02
  -3.586994e+01  -1.686927e+02
   9.371863e+01  -1.639132e+02
   5.118991e+01  -1.199574e+02
   5.805080e+01   2.341723e+01
  -2.041654e+01   3.531982e+01
  -1.023197e+00  -2.062784e+01
   4.470650e+01  -6.017459e+01
   9.514318e+01   3.803098e+01
   8.806220e+01   4.301588e+01
   1.721421e+01   9.951311e+01
  -5.673235e+01   6.464441e+01
  -8.305680e+01   4.857260e+01
  -8.124769e-01   3.289984e+01
   1.200322e+01  -4.868645e+00
   2.802492e+01   1.318076e+02
  -4.439331e+01   5.990631e+01
  -1.129230e+02   3.009630e+01
  -4.341394e+01  -6.307182e+01
  -3.421255e+01  -7.477063e+01
   1.030094e+02  -9.166391e+01
   4.077535e+01  -8.080142e+00
   6.409737e+01   6.186931e+01
  -5.159628e+01   9.209766e+00
  -4.967002e+01   1.528210e+01
   1.959903e+01  -1.443973e+01
   3.751665e+01  -3.394665e+00
   3.724514e+00  -3.516724e+01
  -3.331066e+01   3.315223e+01
  -5.137757e+01  -4.410111e+01
  -3.878524e+01  -7.098995e+01
   1.296358e+02  -1.162630e+02
   1.354113e+02   1.364070e+01
   1.315784e+02   9.921090e+01
   4.475755e+01   1.251692e+02
  -4.710530e+01   9.490605e+01
  -8.207755e+01   4.355831e+01
  -6.911141e+01  -4.529212e+01
  -5.998739e+00  -2.953051e+01
  -4.638158e+01  -1.494758e+01
  -7.833198e+01  -4.420107e+01
   4.886879e-01   1.573388e+00
  -1.192392e+01  -3.231191e+01
   5.424779e+01  -6.771034e+00
   1.087176e+02   3.156592e+01
  -7.766624e+00   4.614884e+01
  -9.003737e+01   7.300115e+01
  -9.014137e+01  -5.398222e+01
  -5.842683e+01  -7.832320e+01
   8.665089e+01  -1.062734e+02
   1.152005e+02  -3.347375e+01
   1.067124e+02   6.500746e+01
   3.480763e+01   2.202551e+01
  -3.281523e+01   8.248779e+01
  -4.537381e+01   4.531058e+01
  -3.626094e+01   5.253469e+01
  -8.428943e+00   3.425501e+01
  -2.871350e+01   3.684403e+00
  -6.694869e+01   1.193952e+01
  -3.160493e+01  -6.337606e+01
   4.019333e+01  -1.119999e+02
   8.840435e+01  -8.595507e+01
   1.281050e+02  -4.628258e+01
   5.836505e+01   3.545430e+01
   2.992476e+01   9.020133e+01
  -2.314659e+01   5.970471e+01
  -7.138602e+01  -3.763695e+01
   5.155388e+01  -5.911918e+00
  -6.685304e-01  -1.669359e+01
  -9.741978e-01   4.990138e+01
  -3.532172e+01  -1.265970e+01
  -5.816016e+01  -2.305135e+00
   4.662243e+01  -1.177216e+01
   6.419862e+01  -5.534394e+00
   1.170475e+02   6.369274e+01
  -2.629221e+01   2.209921e+01
  -9.990366e+01   2.413892e+01
  -7.040167e+01  -2.301997e+00
  -3.987799e+01   1.082079e+01
   5.354386e+01  -1.977588e+01
   8.981029e+01  -3.271063e+00
  -2.362895e-01   2.216479e+01
  -3.973117e+01   6.228495e+01
  -5.860628e+01  -4.218388e+01
  -5.775362e+01  -7.092121e+01
  -5.593429e+01   3.690855e+00
  -1.057828e+01  -1.900971e+01
  -1.658527e+01   5.835830e+01
  -1.712128e+01  -4.533578e+01
  -6.486048e+00  -7.302592e+01
   4.326416e+01  -5.019962e+01
   8.258704e+01   1.055619e+01
   4.035097e+01   3.856191e+01
   9.846770e+00   5.908926e+01
  -7.674181e+01   3.717734e+01
  -3.635107e+01  -2.695641e+01
   4.142746e+01  -4.576406e+01
   5.391899e+01  -2.093310e+01
   2.070558e+01   5.013903e+00
  -2.706483e+01   5.550144e+01
  -1.119942e+02   3.892748e+01
  -9.135280e+01  -2.190376e+01
  -1.708565e+01  -3.904187e+01
   1.966305e+01  -2.561695e+01
   2.844798e+01   3.517357e+01
  -1.415026e+01   1.394998e+01
  -6.622925e+01  -4.240066e+00
   1.684278e+01  -7.504475e+01
   4.970050e+00  -7.087879e+01
   1.408630e+02  -4.238145e-01
  -6.788412e+00   9.794479e+01
   6.003974e-01   5.886309e+01
   2.252687e+00   7.226097e+01
   1.368180e+01  -1.620284e+01
  -1.019044e+01  -5.554150e+01
   3.470070e+01  -7.835612e+01
   6.897208e+01  -6.542202e+01
   1.219361e+01   8.402555e+00
  -1.713766e+01  -1.941487e+01
   1.533936e+01  -1.616728e+01
   1.549769e+01   2.220920e+01
   4.485227e+01   2.946417e+01
   8.018493e+00   5.025305e+01
  -5.451189e+01   2.805395e+01
  -8.466472e+01  -4.357579e+01
  -5.862407e+01  -6.919330e+00
  -7.402027e+01  -3.196984e+01
   4.915869e+01  -1.453410e+01
   4.332942e+01   5.610089e+00
   1.076155e+01  -1.612137e+01
  -1.734251e+01   1.684064e+01
  -2.789790e+01   8.426765e+00
   2.547831e+01  -4.663708e+01
   7.140416e+00   2.561696e+00
  -2.600770e+01   1.426425e+01
  -1.175763e+01  -1.997185e+01
   1.722873e+00  -3.834048e+01
   5.373218e+01  -5.309064e+01
   1.108884e+02  -2.079071e+00
   5.847541e+01   6.785392e+01
   4.160640e+00   1.074827e+02
  -5.193933e+01   6.360596e+01
  -6.259623e+01   5.905533e+01
  -1.179692e+01  -9.187116e+00
  -1.483318e+01  -4.219409e+01
  -3.758476e+00  -1.542484e+01
  -6.351002e+00   6.718441e+00
   2.058807e+01  -1.112287e+01
   3.406950e+01  -6.442281e+01
   1.539218e+01  -4.715293e+01
   5.298987e+01  -4.581062e+00
   9.320155e+00   1.887022e+01
   1.673927e+01   6.190753e+01
   1.976299e+01   1.610763e+01
  -6.378896e+01  -1.705668e+01
  -5.210821e-01  -8.515896e+01
   1.819352e+01  -2.292837e+01
   1.068641e+02   1.861939e+00
   5.230928e+01   2.870177e+01
  -2.554307e+01   1.492732e+01
  -2.134596e+01   3.024726e+01
  -1.915155e+00  -8.412208e+00
   2.062582e+01  -2.678073e+01
  -4.023731e+01   2.387198e+01
  -5.115998e+01   3.360366e+01
  -5.573003e+01   6.402021e+01
  -2.168498e+01   3.800063e+01
  -5.958266e+00   1.048395e+01
   2.767101e+01  -5.576823e+01
   1.869853e+01  -1.135133e+00
  -1.356623e+01  -2.830143e+00
  -1.353609e+00   1.701443e+01
  -4.159787e+01  -7.783268e+00
  -2.409766e+01   1.876509e+01
  -3.842439e-02  -5.399456e+00
   1.826522e+01   1.885817e+01
   1.850734e+01   8.944748e+00
   1.409418e+01   2.799467e+01
  -1.052927e+01  -2.613967e+01
  -8.946840e+00   3.878796e+01
  -1.430275e+01   1.786027e+01
   2.004315e+01   3.085471e+01
   1.977902e+01   5.897467e+01
  -4.402152e+01  -4.623590e+01
  -1.715037e+01  -3.276511e+01
  -1.516142e+01  -4.139425e+01
   4.338173e+01   1.334647e+01
   6.924692e-01   2.091228e+01
  -6.084464e+01  -2.102992e+01
  -2.347322e+01  -3.381826e+01
  -4.285265e+01   1.501691e+01
   1.490073e+01  -2.401282e+01
   5.206565e+01  -1.132373e+01
   2.864630e+01  -1.231246e+01
  -3.303545e+01   1.618838e+01
  -6.875418e+01  -1.556887e+01
   1.045461e+01  -4.067415e+01
   5.535332e+01   3.061457e+01
