
 $NMID
 id='ANONYMOUS ', fmtdat='(2E16.6)'
 volume=1.0
 tramp=1.0
 $END
  -1.385781e+03  -1.658917e+02
  -1.309723e+03  -4.665880e+02
  -3.015904e+02  -1.033548e+03
   2.364261e+02  -6.633769e+02
   6.215927e+02  -4.315524e+02
   1.530762e+02  -8.168709e+00
   2.036746e+01   9.545340e+01
  -1.735393e+02  -1.316105e+02
   1.608180e+02  -3.303278e+02
   1.692979e+02  -1.811124e+02
   2.404524e+02   4.841469e+01
  -1.203600e+00   1.905206e+02
  -1.191852e+02   2.303959e+02
  -1.870273e+02  -1.323038e+02
   8.484410e+00  -1.977732e+02
   7.768075e+01  -5.706494e+01
   2.559660e+02   2.023525e+02
   1.974497e+00   3.427541e+02
  -2.618798e+02   1.622702e+02
  -2.196448e+02  -4.223054e+01
  -8.039300e+01  -1.517614e+02
   5.018714e+01  -1.534383e+02
  -5.138463e+01  -7.282064e+01
  -5.447297e+01  -9.787541e+01
  -1.532183e+02  -1.300248e+02
   5.980784e+01  -8.025920e+01
   1.325153e+02   4.020680e+01
   2.122898e+02   1.560338e+02
   4.776746e+01   4.787273e+01
  -3.078675e+01  -2.030176e+01
  -1.573293e+02  -8.274344e+01
  -1.187581e+02  -9.735135e+00
   1.425891e+02  -1.422563e+02
   1.753405e+02   1.096891e+01
   5.895986e+01   9.760785e+00
   3.123894e+01   9.727457e+01
   7.378808e+01   7.722906e+01
   1.281102e+02   4.555008e+01
   3.895138e+01  -2.512768e+01
  -5.364616e+00   1.331605e+02
  -4.099158e+01   1.272613e+02
  -1.130203e+02   1.390932e+02
   3.924742e+00   2.627117e+01
  -2.507858e+01  -7.822926e+01
  -1.023362e+02  -3.265552e+01
   6.939603e+00   3.128301e+01
  -3.298077e+01   1.127355e+02
  -1.729351e+02  -5.775118e+00
  -2.494961e+02  -3.489212e+01
  -6.886951e+01  -2.234573e+02
   6.722264e+01  -1.818157e+02
   1.746517e+02   5.452767e+01
   1.969277e+02   2.396053e+01
   3.259957e+01   1.089898e+02
  -8.094257e+01   5.712120e+01
  -1.117018e+02   7.948487e+01
  -3.160145e+01  -5.560405e+01
   3.696277e+01   1.250539e+01
  -6.433584e+00  -1.872702e+01
  -8.475166e+01   2.110538e+01
  -1.359460e+01   1.885140e+01
   5.306518e+01  -1.051564e+02
   1.359323e+02  -1.287072e+02
   1.033875e+02   2.259987e+01
   1.566085e+01   1.231133e+02
  -1.506990e+02   1.710904e+02
  -2.161107e+02   4.736502e+01
  -3.995749e+01  -4.727393e+01
  -8.628119e+00  -7.855863e+01
  -4.750970e+00  -1.716858e+02
  -2.609312e+01  -8.168508e+01
   3.953770e+01  -1.082826e+02
   8.705407e+01  -4.573477e+01
   1.161417e+02   4.331526e+01
   1.403207e+02   3.186864e+01
   1.798135e+01   9.033388e+01
  -4.026528e+01   3.074328e+01
  -6.908209e+01   1.586283e+01
  -2.396512e+01  -8.611811e+01
   3.249982e+01  -1.010703e+02
   7.165118e+01  -1.759251e+01
   9.667843e+01   8.030943e+01
   2.182507e+01   2.170165e+02
  -2.150874e+01   8.816045e+01
  -4.313364e+01   7.100607e+01
  -7.160447e+01   8.708410e+01
  -9.642129e+01   4.573286e+01
  -1.306894e+02   3.555983e+01
  -1.433634e+02  -5.864140e+01
  -1.200127e+02  -1.192579e+02
   3.584070e-01  -1.380212e+02
   1.600961e+02  -1.366226e+02
   1.772028e+02  -6.232903e+01
   1.146190e+02   3.747611e+00
   3.872485e+01   1.082033e+02
  -1.626982e+01   2.107308e+01
   4.011339e+01   2.560517e+01
   2.648841e+01  -2.445780e+01
   2.726672e+01   2.956064e+00
   2.314982e+01   3.285589e+01
  -6.110959e+01  -5.361610e+00
  -2.280111e+01  -1.580768e+01
  -2.427302e+01  -1.749360e+00
   4.640231e+01   4.616107e+00
   4.831707e+01   7.415182e+01
   8.016738e+01   1.443194e+02
  -1.329016e+02   8.321330e+01
  -9.128483e+01   1.982691e+01
  -7.175704e+01  -1.053848e+02
  -6.767029e+01  -1.425993e+02
   4.916222e+01  -3.171369e+01
   2.632222e+01   2.151099e+01
   6.609788e+00   3.378400e-01
  -1.175429e+01  -1.707406e+01
  -8.340046e+00  -3.267344e+01
   4.689879e+01  -1.889491e+01
   3.965124e+01   2.830198e+01
   3.515023e+01   1.584065e+01
   1.095382e+01   3.859668e+01
   1.531391e+01  -3.425302e+01
   1.164035e+02  -5.382130e+01
   1.527909e+02  -7.741521e+00
   1.032553e+02   7.243993e+01
   5.738995e+01   1.282207e+02
  -4.563415e+01   9.617768e+01
  -1.114073e+02   7.508193e+01
  -4.026335e+01   5.960981e+00
  -5.412310e+00   3.021972e+00
   2.875429e+01   6.140809e+00
  -3.871092e+01   5.896473e+01
  -7.247287e+01   5.097417e+01
  -1.529664e+01  -7.924213e+01
  -5.122890e+01  -6.674136e+01
   9.783222e+01  -5.854672e+01
   7.513184e+01  -3.848676e-01
   2.050756e+01  -1.879804e+01
  -5.564165e+01  -6.510073e+00
   2.177632e+00  -8.221909e+01
   4.266851e+01  -7.886121e+01
   5.495412e+01  -4.800128e+01
   8.184312e+01   3.487318e+01
   2.239863e+00   9.040368e+01
  -6.092162e+01   3.681772e+01
  -3.955915e+01   2.301089e+01
  -1.923109e+01  -1.019315e+01
  -1.305513e+01  -4.850502e+01
   3.655443e+01   5.556755e+01
  -1.328056e+01   2.698418e+00
  -4.816468e+01   2.303296e+01
  -1.299510e-01  -1.143954e+01
   9.328838e+01  -3.207761e+01
   5.606911e+01   2.496800e+01
   7.644117e+00   5.060922e+01
  -5.180325e+01   4.709698e+01
  -4.583291e+01   5.244913e+01
  -3.206311e+01  -6.194453e+01
  -3.217764e+01  -5.575627e+01
   7.082577e+01  -7.577328e+01
   5.289465e+01  -1.189099e+01
  -1.874076e+01  -8.616024e+00
   2.312667e+01   5.003442e+01
  -6.190819e+00  -4.529449e+01
   3.939855e+01   1.024285e+00
   1.381448e+01   7.333666e+01
  -2.745718e+01   3.763287e+01
  -9.134137e+01   6.217953e+00
  -6.156539e+01  -1.751747e+01
   4.218748e+01  -4.041267e+01
   8.819700e+01   2.089747e+01
   3.623185e+01  -8.836655e+00
   9.996106e+01   8.737834e+01
  -7.351112e+01   4.000768e+01
  -1.078258e+02   6.470806e+01
  -7.910037e+01  -5.251574e+01
  -4.456021e+01  -6.951687e+01
   4.791704e+01  -3.233426e+01
   3.292326e+01  -3.821163e+01
   3.096412e+01  -5.997352e+00
   3.736918e+01  -4.675326e+01
   6.292142e+01  -6.673354e+01
   6.509445e+01   2.023845e+01
   4.420839e+01   1.907617e+01
   7.726295e+01   1.176814e+02
  -8.882979e+01   1.165147e+02
  -4.920488e+01   9.932582e+00
   8.425306e+00  -7.263706e+01
  -2.180171e+01  -7.506664e+01
   4.472743e+01   2.901735e+00
   6.223593e+00   2.003479e+01
  -2.078925e+01   2.285781e+01
  -2.921097e+01  -6.510055e+00
  -1.053661e+01  -4.063780e+01
   6.580799e+01   8.738100e-01
   3.028674e+01  -3.225838e+01
  -4.701541e+01  -1.563470e+01
  -7.198870e+01   1.133594e+01
  -8.463850e+01  -5.757725e+01
   8.550405e+01  -1.115277e+01
   6.624838e+01  -2.621182e+01
   7.283634e+01  -2.671375e+01
   5.161591e+01   6.934632e+01
  -6.442054e+01   1.933370e+01
  -2.145322e+01  -1.489499e+01
  -3.221554e+01  -5.221141e+01
   3.294597e+01  -3.540994e+01
   1.233214e+01  -9.266966e+00
   2.565041e+01   1.683022e+01
   5.718185e+01   3.983912e+01
   2.008294e+01  -8.607713e+00
   5.436313e+01  -7.789465e+00
   2.811848e+01  -1.601169e+01
  -5.558072e+00   5.842547e+01
  -3.774683e+01   6.073096e+01
  -1.745653e+02  -2.254171e+01
  -5.830381e+01  -3.568107e+01
   3.269462e+01  -8.169571e+01
   2.165959e+01  -5.280900e+01
   1.611368e+01   1.608903e-01
  -3.723886e+01   2.750072e+01
  -7.057579e+01   1.837537e+01
  -3.731249e+01  -4.540558e+01
   3.414270e+01  -6.217738e+01
   7.078702e+01   1.638790e+01
   7.954609e+01   1.606305e+01
  -5.973929e+00   4.145795e+01
  -1.881705e+01   3.134525e+00
  -3.452454e+01  -3.649441e+01
   5.744616e+00   9.057852e-01
   9.036321e+01  -2.122723e+01
   5.148896e+01   8.351901e+01
  -3.425861e+01   1.097222e+02
  -1.204468e+02   7.775920e+00
  -7.167356e+01  -4.451323e+01
   1.509363e+01  -9.376702e+01
   5.327760e+01  -8.876755e+01
   3.644273e+01  -5.210653e+00
   1.038831e+02   1.053248e+02
  -5.643556e+00   4.159707e+01
  -5.950402e+01   7.763886e+00
  -4.090164e+00  -2.878700e+01
  -1.734901e+01  -8.650419e+00
   1.110825e+01  -3.302783e+01
  -7.139262e+01   5.873032e-02
  -5.125530e+01  -1.581043e+01
  -6.831419e+00  -1.081614e+01
   1.476299e+01  -1.039279e+01
   8.161948e+01   5.794707e+01
   2.662297e+01   8.997214e+00
   3.752986e+01   4.500623e+00
  -2.663020e+01   1.715902e+01
  -1.523043e+01   1.466099e+01
  -3.763608e+01   4.008104e+00
  -7.519758e+00  -2.126594e+01
   8.450847e+00   1.155027e+00
  -2.944694e+01   1.071790e+01
  -1.805135e+01   2.350284e+01
   2.703010e+01   1.811736e+00
   6.208982e+00   2.612325e+00
  -6.341837e+00   4.774276e+01
  -2.984676e+01   7.781857e+01
  -6.654350e+01   3.862848e+01
  -6.070318e+01  -3.865406e+01
  -2.568700e+01  -6.435696e+01
  -1.200889e+01  -6.729141e+01
   5.074854e+01   7.879300e+00
   1.044305e+01   3.518630e+00
  -3.019475e+01  -3.658937e+00
   2.768466e+01   1.211194e+01
   1.167239e+01   3.496289e+01
   8.200383e+01   4.847684e+01
   9.762791e+00   3.144617e+01
  -5.946749e+01   3.574000e+01
   4.213223e+00  -2.980533e+01
  -1.453977e+01   1.664782e+00
  -1.203110e+01  -6.281149e+01
   3.374702e+01   8.569584e+00
   4.686936e+01  -1.429075e+00
   5.231429e+01   1.967997e+01
  -2.766682e+01   5.579985e+01
  -3.823008e+01  -4.348123e+01
  -1.147116e+01  -2.470264e+01
   2.306195e+01  -4.365304e+01
   3.062800e+00  -2.739238e+01
  -2.379472e+01  -4.644759e+00
  -3.920428e+01   1.978069e+01
   3.262043e+01  -1.858167e+01
   5.930715e+01  -5.504273e+01
   9.159308e+00   5.753810e+00
  -6.418491e+00  -1.339408e+01
   2.835776e+01   4.153777e+01
   4.030134e+01   6.415383e+01
  -4.140073e+01   2.453196e+01
   9.826324e+00  -5.042343e+01
  -2.061105e+01  -4.972404e+01
   2.029164e+01  -1.952823e+01
   6.149258e+00   2.723070e+01
   4.036147e+00  -2.145956e+01
  -1.739402e+01  -3.427890e+00
  -2.801305e+01  -4.428394e+01
   1.139739e+01  -5.781529e+00
  -5.035953e+00   5.482528e+00
   3.950876e+01  -2.611391e+01
  -3.246382e+01  -2.731866e+01
  -1.320230e+01  -4.061206e+01
   3.145723e+01  -2.840462e+00
   3.460396e+01  -3.622651e+01
  -2.102639e+01  -3.120589e-01
  -3.624436e+01   1.544473e+01
  -2.849135e+01   4.322035e+01
  -5.217823e+01  -2.422281e+01
   1.555126e+01  -1.041364e+01
   3.631138e+01   1.336853e+01
   2.468183e+01   5.583575e+01
  -3.752055e+01   2.771146e+01
  -2.389841e+01   1.373968e+01
   1.927449e+01   2.570302e+01
   3.326241e-01  -2.736974e+01
   3.474827e+01   5.423593e+00
  -4.861227e+01   1.677867e+01
  -4.275423e+01   1.706352e+01
