
 $NMID
 id='ANONYMOUS ', fmtdat='(2E16.6)'
 volume=1.0
 tramp=1.0
 $END
   7.262852e+02   4.290578e+02
   8.486209e+02   2.914131e+02
   2.431897e+02   8.345925e+01
  -2.334853e+02   2.861232e+02
  -1.488906e+02   4.376757e+02
  -1.862614e+02   1.340848e+02
  -7.726434e+01   7.687500e+00
  -9.612023e+01   8.940881e+01
  -1.864313e+01   1.248219e+02
  -1.962251e+02   3.686469e+01
  -9.905148e+01  -2.390273e+01
  -2.940152e+01  -9.865171e+01
   4.416968e+01  -2.198832e+01
   1.733525e+02   5.054244e+01
   1.076357e+01   5.887923e+01
  -2.127751e+01   3.559872e+01
  -6.657011e+01  -5.404520e+01
  -1.571775e+02  -3.020447e+02
   9.952793e+01  -9.690970e+01
   1.018922e+02   3.844358e+01
   1.049666e+02   6.289210e+01
  -5.889358e+01   2.355864e-01
   6.194024e+00   3.754624e+01
   4.471357e+01   2.804115e+01
   1.060089e+02   6.858803e+01
  -1.369379e+02   3.427646e+01
  -7.770545e+01   3.834396e+01
  -4.866202e+01  -1.316556e+02
   3.243094e+01  -5.446446e+01
   7.648004e+01  -3.441955e+01
   1.217608e+02   7.043398e+00
   7.662253e+01   1.338050e+02
  -3.679219e+01  -6.143777e+01
  -4.266964e+01   1.573450e+00
  -7.938222e+01   4.413932e+01
  -7.085682e+01  -2.727484e+00
  -6.596160e+01  -5.397664e+01
  -1.071318e+02  -7.416188e+00
  -7.697302e+01  -2.985468e+01
  -8.883917e+01  -7.105900e+01
   6.133917e+01  -4.392225e+01
   4.175768e+01  -8.371170e+01
  -2.422020e+01  -7.796955e+01
   1.803279e+01  -3.260839e+01
   2.564353e+01   4.307265e+01
  -1.147910e+01  -1.502987e+01
   3.819444e+01  -4.268164e+01
   5.662428e+01   1.644577e+00
   1.050450e+02   1.366632e+02
   7.046702e+01   1.194325e+02
  -5.169815e+01   9.338039e+01
   3.280945e+01   8.057753e+01
  -6.838319e+01  -5.061221e+01
   1.067644e-01  -6.600460e+01
  -2.511435e+01   7.540859e+00
   1.488387e+01  -2.453002e+01
  -1.010002e+01  -7.543305e+00
   5.203798e+00  -2.434160e+01
   6.261537e+01   6.063073e-01
   9.181950e+01  -9.960482e+00
   1.777735e+00   1.930587e+01
  -6.825826e+00   7.552596e+01
  -1.156530e+02   5.810567e+01
  -1.011147e+02  -6.299527e+01
  -5.166990e+01  -1.063418e+02
   1.533631e+02  -1.071779e+02
   9.722367e+01  -6.626798e+01
   4.907260e+01   2.852420e+01
   3.597945e+01   8.236658e+01
   4.688781e+01   1.097977e+02
   1.334283e+01   1.381625e+02
  -7.310779e+01   7.014112e+01
  -3.529023e+00   7.092126e+01
  -5.043764e+01   7.340974e+01
  -9.459593e+01   9.740118e+00
  -7.455973e+01  -2.202556e+01
   7.252239e+01  -6.434627e+01
   1.082771e+02  -6.322508e-01
  -7.825800e+00   8.863062e+00
  -1.879395e+01   8.850164e+01
  -9.656655e+01   9.908929e+00
  -2.283034e+01  -1.099969e+01
  -8.489802e+00  -5.999625e+01
  -2.151835e+01  -7.256411e+01
  -2.809647e+01  -3.128388e+01
   3.965003e+01   1.038721e+01
   6.182417e+01  -5.943980e+01
   1.016164e+02   2.854734e+01
   1.110332e+02   6.814861e+01
   5.909366e+01   4.961702e+01
   7.587629e+00   7.549883e+01
  -1.246386e+02   1.183108e+02
  -1.141722e+02   1.153871e+01
  -1.315233e+02   4.484645e+01
  -6.576353e+01  -4.500954e+01
  -2.776076e+01  -3.588390e+01
   6.223679e+00  -3.347091e+00
  -5.145699e+01  -4.103784e+00
   2.381714e+00  -1.783701e+01
  -3.770986e+01  -1.053930e+01
   5.852969e+01  -6.765262e+00
   1.046766e+01   3.107767e+01
  -8.306708e+00  -2.545432e+01
   3.037939e+00   7.107427e+01
  -2.406199e+01   1.678495e+01
  -6.342494e+01  -4.212564e+01
   5.636631e+01  -7.648372e+01
   1.494726e+02   3.462809e+00
   7.005917e+01   7.980917e+01
   6.381301e+01   7.540178e+01
  -1.877178e+01   2.335156e+01
  -4.228749e+01  -2.048817e+01
   1.200419e+00   3.343794e+01
  -4.414355e+00   1.147972e+00
   1.220979e+01   1.884537e+01
  -6.143134e+00  -2.465432e+00
  -2.720896e+01   3.213398e-01
  -3.745080e+00  -2.236447e+01
   5.261100e+01   1.056927e+01
   2.783002e+01   2.099217e+01
  -6.529008e+01   2.542395e+01
  -8.279689e+01   2.997308e+01
  -8.102158e+01  -2.942236e+01
   7.045538e+01  -6.981283e+01
   6.700644e+01  -4.746081e+01
   7.884670e+01  -5.521407e+01
   1.143686e+01   8.664071e+00
  -1.626514e+01   1.064154e+01
   2.548467e+00  -2.106002e+01
   2.571546e+01  -3.407929e+01
   7.310980e+01  -3.461444e+01
  -3.017780e+01   9.928996e+00
  -2.046443e+01   6.515856e+01
  -5.850142e+01  -4.204323e+01
  -1.034585e+01  -4.872198e+01
   9.431911e+00  -3.106957e+01
   1.614577e+01   1.490637e+01
   1.669904e+01   1.215714e+01
  -2.943894e+01   6.187588e+01
  -8.693965e+01   4.100269e+01
  -6.380716e+01  -9.536319e+01
   1.566956e+01  -4.171582e+01
   1.740960e+01  -5.197758e+01
   3.557545e+01  -5.872335e+01
   3.573039e+01   2.599088e+01
   1.303033e-01   6.285720e+01
   3.937094e+00   1.502471e+01
   3.806628e+01  -8.807814e+00
   1.598529e+01  -6.936302e-01
  -1.819354e+00   1.557099e+01
   1.527234e+01   9.031609e+00
  -9.571252e+00   5.124283e+00
  -3.614302e+01  -5.782963e+01
   3.648983e+01  -2.664114e+01
   1.341019e+00   1.502135e+01
   5.920372e+01  -2.324222e+01
   1.769313e+01   7.678812e+00
  -2.375832e+01   6.925426e+01
  -6.338053e+01   6.030516e+00
  -2.118152e+01   1.675043e+01
  -7.267467e+00   1.762745e+01
  -1.038331e+01   3.687235e+00
  -2.788044e+01   2.197296e+01
  -9.654271e+01  -7.443184e+00
   7.443925e+01  -6.338804e+01
   3.257957e+01  -3.487043e+01
   2.200988e+01  -1.711602e+01
   4.740327e+01   3.387023e+01
  -5.671195e+01  -1.691016e+01
  -9.361148e+01  -3.750833e+01
  -5.166473e+01  -5.469074e+01
   1.760664e+01   2.902297e+00
   1.266866e+02  -1.541629e+01
   7.790302e+01   1.563190e+01
   6.033812e+01   2.847079e+01
  -2.831672e+01   4.670697e+01
  -6.025300e+01  -1.158317e+01
  -4.478006e+01   1.333554e+01
   4.368677e+00   4.757641e+01
  -2.565498e+01   7.104138e+01
  -1.608979e+01   1.578558e+00
  -3.921814e+01  -3.198030e+01
   1.557915e+01  -2.368890e+01
   9.239710e+01  -5.015751e+01
   5.943827e+01  -3.609466e+01
   3.251346e+01   8.371627e+01
  -2.675863e+00   8.297294e+01
  -5.037418e+01  -2.391081e+00
  -1.874060e+01  -8.124518e+00
   1.543777e+01  -1.141057e+01
   1.982937e+01   1.259880e+01
  -3.611924e+00   8.710750e+00
  -2.623163e+01  -2.403235e+00
  -2.163247e+01   8.818291e-01
   5.347513e+00   2.866688e+01
   7.770554e+01  -1.014450e+01
   8.291497e+01   3.157939e+01
  -2.901537e+01   1.609935e+00
  -5.114393e+01   3.894574e+01
  -3.884360e+01  -1.420304e+00
  -2.709323e+00  -3.346666e+00
   4.276138e+00  -3.075122e+00
   4.100151e+01   1.072504e+01
   1.694133e+01   3.647417e+01
  -4.467531e+00   1.470506e+01
  -2.968817e+01   2.203406e+01
  -3.210324e+01   4.593292e+01
   4.197162e+01  -2.844988e+01
   1.073034e+01  -8.020423e+00
  -7.463691e+01  -2.046650e+01
  -3.095883e+01  -4.682129e+01
   1.371114e+01  -6.351775e+00
   2.612045e+01  -3.951012e+01
   6.571065e+01   2.191272e+01
   4.972784e+01   2.070466e-01
  -4.071508e+01   3.757924e+01
  -2.058932e+01   2.066126e+01
  -1.401336e+01   7.167787e+00
   4.376861e+01  -7.183616e+00
   2.236249e+01  -5.132837e+00
   2.881125e+00   3.639952e+01
  -5.441575e+01   3.262105e+01
  -6.378365e+01  -6.784353e+00
  -9.171773e+01   2.428086e+01
   3.205768e+00  -2.174619e+01
  -9.327706e+00  -2.062475e+01
  -9.843788e+00  -1.970081e+01
   3.013715e+01  -1.997619e+01
  -5.597428e+01  -1.268899e+01
  -2.919504e+01  -2.891161e+01
   5.876796e+01  -3.155247e+01
   3.943454e+00  -4.368066e+01
   4.892792e+01   2.500932e+01
   6.059986e+00   6.225281e+01
  -6.820570e+00   3.655823e+01
  -2.147509e+01  -3.002129e+01
  -3.248154e+01  -3.235629e+01
   6.821330e+01  -4.777956e+01
   4.305316e+00  -3.352203e+00
  -3.741910e+01  -1.014443e+01
  -2.774999e+01   1.721632e+01
   2.661416e+01   5.801932e+00
   9.957994e+00   1.126705e+01
   2.212235e+01   1.879941e+00
   5.434319e-01   2.082204e+01
  -1.508366e+01   1.114956e+01
  -2.544460e+01   1.390560e+01
  -7.030650e+01   1.318061e+01
   1.785802e+00  -1.490747e+00
  -1.312359e+01  -1.817658e+01
   3.389171e+01  -2.857069e+01
  -1.129220e+01  -6.863185e+00
   1.720540e+01   1.222931e+01
  -2.261107e+01  -4.698159e+00
   1.625291e+01  -1.433832e+00
   3.412653e+01  -1.706537e+01
  -4.411125e+01  -1.368700e+01
  -3.520599e+01   1.086874e+00
  -1.974260e+01  -3.999436e+00
  -4.255275e+00  -9.745951e+00
   3.916509e+01  -8.022520e+01
   1.173042e+02  -1.961879e+01
   1.248492e+00   1.179157e+01
   9.753010e-01   6.218978e+01
  -5.306144e+01   1.235048e+01
   4.396844e+00   6.960125e+00
  -5.821948e+01  -1.804300e+01
  -5.028332e+01   1.901527e+00
  -2.088140e+01   3.247869e+01
  -2.610211e+01  -1.274318e+00
   2.242223e+01  -3.887147e+01
   9.201918e+00  -5.137857e+01
  -8.984845e+00   2.386072e+01
   4.947718e+00   2.086548e+00
   7.887716e+00   3.470893e+01
  -2.727767e+01  -1.364222e+01
  -3.892130e+01  -1.229282e+01
  -2.837648e+01  -4.599913e+01
   2.023333e+01  -3.005322e+01
   3.288120e+01   3.207751e+00
   1.003696e-01   3.892739e+01
  -4.013630e+01   5.886867e+00
  -1.334894e+01   1.359097e+01
   1.156894e+01   2.191006e+01
   1.649941e+01  -4.824943e+01
   3.641247e+00   8.062240e+00
  -5.449674e+01   2.648326e+01
  -5.699176e+01   5.728561e+00
   2.253794e+01  -2.948417e+01
   1.276089e+01  -3.530209e+01
   1.060449e+01  -4.095395e+01
   6.406867e+00  -1.815977e+01
  -5.905807e+00   5.996061e+01
   4.833621e+00   4.414042e+01
   4.072390e+00   9.655443e+00
  -2.229381e+01  -6.651470e+00
   1.670319e+01  -3.582594e+00
   2.611784e+01  -5.798018e+00
   2.601506e+00  -2.547605e+01
   2.607858e+01  -9.550987e+00
   1.646420e+01  -5.399968e+01
  -1.308866e+00   1.973574e+01
  -3.003205e+00  -6.446798e+00
   4.923010e+00   3.331460e+01
   1.061141e+01   3.209012e+00
  -7.289467e+01  -1.286487e+01
  -1.486363e+01  -4.002549e+01
   3.854720e+00  -2.318382e+01
   4.474888e+00   2.681825e+01
   4.551615e+00   1.787015e+01
  -4.919608e+00   2.342289e+00
  -2.187382e+01  -1.572499e+01
  -1.743425e+01  -2.140295e+00
   9.573343e+00  -1.804498e+01
  -1.372791e+01  -3.013723e+01
  -1.429477e+01  -2.501118e+01
   1.949704e+01   7.184895e+00
  -7.218943e+00   7.561240e+00
  -2.343618e+01  -8.767295e+00
   1.175963e+01  -2.253491e+01
