
 $NMID
 id='ANONYMOUS ', fmtdat='(2E16.6)'
 volume=1.0
 tramp=1.0
 $END
  -7.456321e+02   5.036043e+02
   2.023598e+02  -3.669775e+02
   1.043042e+02  -1.782651e+02
   3.062366e+02   8.644480e+01
   2.617860e+02  -3.311414e+01
  -1.386971e+01   1.872740e+01
  -9.790149e+01   3.034850e+01
  -8.758409e+01  -1.847195e+02
   2.049173e+02  -1.525495e+02
   3.681366e+01  -1.178607e+01
   3.854707e+01   1.253820e+02
   8.381739e+00   2.302033e+02
   4.348003e+00  -6.607045e+01
  -4.756637e+01  -1.086525e+02
   4.007069e+01  -1.358422e+02
  -2.866257e+01   7.484120e+01
   1.723019e+01   5.421355e+00
  -6.780121e+01   1.799476e+01
  -1.390856e+02   1.498224e+02
  -7.119881e+01  -1.020327e+02
   6.573928e+01  -7.257982e+01
   2.345231e+01  -1.115172e+02
   3.584557e+01  -1.691190e+01
  -7.147649e+01  -3.773043e+01
  -4.892024e+01  -3.575310e+01
  -9.049632e+01  -6.416155e+01
   1.171662e+02  -4.022731e+01
   1.229392e+02  -1.236931e+01
   1.394372e+02   1.231989e+02
  -2.124828e+01   8.541113e+01
  -2.484616e+02  -3.696623e+01
   1.005106e+01  -7.283592e+01
   1.627991e+00  -1.012669e+02
   1.062914e+02  -7.460153e+01
   7.127456e+01   6.274370e+01
   7.181664e+00   9.724217e+01
   5.433133e+00  -3.736058e+01
  -4.903056e+01  -1.447543e+01
   9.710439e+01  -1.324978e+02
   3.679469e+01   8.444387e+01
   9.114337e+01   1.971717e+02
  -8.232959e+01   6.128384e+01
  -1.201134e+02   2.761854e+00
   1.981888e+01  -4.450834e+01
  -9.961830e+00   2.929926e+01
   9.327054e+01   1.836760e+01
  -7.210073e+01   2.540742e+01
  -1.050288e+02   1.902723e+01
  -5.319527e+01  -1.357162e+01
  -6.531309e+01  -6.535716e+01
   1.461869e+01  -3.215541e+01
   1.514800e+00   1.672142e+01
   4.421215e+01   3.181615e+01
  -3.241161e+01  -3.599556e+01
  -4.184777e+01  -5.097799e+01
  -3.346588e+01   2.231240e+01
   2.166024e+01   8.106720e+00
   4.805305e+01  -2.258389e+01
  -5.376840e+01   2.557367e+01
  -5.045853e+01  -4.058541e-01
   5.254236e+00   5.739011e+01
   1.236226e+00  -2.038204e+01
   7.567354e+01   8.097548e+00
   3.821802e+00   1.890786e-01
  -4.055760e+01   8.510460e+01
  -8.471126e+01   9.051138e+01
  -7.723552e+01   3.582408e+01
  -1.288157e+01  -6.727102e+01
   7.801748e+01  -6.703317e+01
   3.473948e+01  -6.825607e+01
   2.832212e+01  -5.114826e+01
  -1.355215e+01  -3.785234e+01
   1.646617e+00  -6.729868e+00
   9.681720e+01  -4.232582e+00
   6.115031e+00   1.587695e+01
   1.957605e+01   8.951250e+01
  -3.043532e+01   1.323572e+01
  -2.564468e+01  -1.475376e+01
  -5.869661e+01  -7.155298e+01
   5.933052e+01  -1.986575e+01
   1.084534e+02   9.812086e+00
   1.735445e+01   1.654471e+01
   2.399160e+01   6.508490e+01
  -3.134335e+01   3.352966e+01
  -8.551756e+01  -4.887480e+00
   3.357420e+00   3.248631e+01
  -4.504993e+01  -2.960589e+01
  -2.033205e+01   1.384916e+01
  -9.007104e+00  -6.977135e+00
  -4.811881e+01  -2.126497e+01
   1.622694e+01  -2.773447e+01
  -3.662784e+01  -1.086255e+02
   9.439337e+01  -6.596078e+01
   3.634297e+01   3.336174e+01
  -8.282991e+00   4.646604e+01
  -1.919713e+01  -3.507389e+00
  -2.135942e+01  -8.414021e+00
   4.546283e+01   3.768047e+00
   8.401924e+01  -7.440903e+00
  -2.864480e+00   1.251060e+01
  -4.806142e+01   8.905630e+01
  -3.988238e+00  -1.692158e+01
   1.499897e+01   2.613047e+01
   3.988444e+01   3.448258e+01
  -1.476967e+01  -1.402875e+01
   1.413725e+01   9.196042e+01
  -5.124824e+01   2.154172e+01
  -4.826868e+01  -3.792486e+01
  -3.756679e+01  -4.004513e+01
   3.111508e+01  -7.529100e+01
   3.454870e+01  -5.995402e+01
   2.913834e+01  -2.787239e+01
   1.760749e+01  -1.159837e+01
   1.714517e+01  -1.163804e+01
  -1.332126e+01  -2.062010e+01
   3.386846e+01  -2.824298e+01
   2.975909e+01  -1.368421e+01
  -1.297611e+01   1.651668e+01
  -2.498847e+01  -9.711408e+00
  -2.867906e+01   9.830192e+00
   4.778010e+01  -5.418900e+01
   9.565937e+01   3.029291e+01
   3.963013e+01   1.110879e+02
  -6.188023e+00   3.543081e+01
  -4.557740e+01   1.431259e+01
  -3.142832e+01   4.968519e+01
  -8.182352e+01  -3.107529e+01
  -2.016009e+01  -2.309191e+01
  -1.968869e+01  -2.272091e+01
  -1.486746e+01   4.028078e+01
  -2.290426e+01  -5.638175e-01
  -2.230706e+01  -9.345079e+00
  -4.847328e+00   2.776519e+00
   1.770507e+01  -4.314579e+01
   2.443667e+00  -3.815714e+01
   9.151496e+01   6.983898e+01
  -2.187070e+01  -5.770189e+00
   5.535073e+00  -1.272084e+01
   4.094192e+01  -2.734315e+01
   6.565859e+01   3.128761e+00
   3.132471e+01   7.819004e+01
   4.322316e+01   9.076981e+01
   8.308123e+00   5.714615e+01
  -7.848718e+01  -3.151950e+01
   1.490792e+01  -1.173142e+01
   7.099909e+00  -1.509212e+01
  -3.962361e+01  -2.722966e+01
   8.548039e+00   6.782201e-01
   8.463990e+00   3.735593e+01
  -3.770610e+01  -5.513651e+00
   9.064849e-01   1.553157e+01
  -3.294189e+01   3.680521e+01
   1.328939e-01   4.210895e+01
  -2.931535e+01   7.474196e+01
  -5.038014e+01   2.769634e+01
  -7.618790e+01  -3.635363e+01
   5.899882e+01  -5.334016e+01
  -3.453214e+01  -6.815773e+01
  -3.177674e+01  -1.825674e+01
   2.477527e+01   1.226497e+01
   3.724072e+01   1.765060e+01
  -1.401188e+01  -2.416543e+01
  -1.835846e+01  -1.061844e+01
   3.583356e+01   2.475095e+01
  -4.483766e+01   1.443585e+00
  -3.508622e+01   3.561357e+01
  -4.636520e+01   3.932702e+01
   2.269462e+00  -3.469257e+01
  -2.055651e+01   1.223251e+00
   1.286673e+01   2.661758e+01
   1.587577e+01  -2.052256e+01
   3.674614e+01   2.463824e+01
  -2.657342e+01  -1.206597e+01
  -1.458014e+01  -7.723366e-01
   4.649085e+00  -5.683246e+01
  -1.145420e+01  -3.517918e+01
   2.648962e+01  -6.223963e+01
  -4.803469e+01  -3.031854e+01
   2.254464e+01  -4.839586e+01
   8.386829e+00  -2.161293e+01
   7.466984e+00  -1.287755e+01
   1.897550e+01   3.890362e+01
   3.384135e+01   1.306473e+01
  -1.626929e+01  -4.341063e+01
   6.889796e+00  -1.663541e+01
  -7.218251e-01  -1.462286e+01
   2.742751e+01  -1.760439e+01
   2.338806e+01  -3.115261e+00
  -1.032415e+01  -1.196330e+01
  -2.006294e+01   1.854172e+01
   1.521184e-01  -1.731825e+01
   2.987268e+00   1.495609e+01
  -1.160597e+01  -6.831994e+00
  -1.399868e+01   2.733119e+01
  -4.237387e+01   1.184171e+01
   5.346384e+00   1.149588e+01
  -3.660876e+01  -2.020972e+01
  -2.303412e+01   5.707853e+00
   1.519941e+01  -6.464077e+01
  -2.638011e+01   1.891971e+01
   2.371086e+00   2.019498e+01
   1.624955e+01   1.367606e+01
  -1.800017e+01   1.009651e+01
   2.558710e+01  -3.187653e+01
   1.979057e+01  -2.511627e+00
   2.141655e+01   5.700581e+00
   6.348801e+00   5.064931e+01
  -1.331113e+01   3.418047e+01
   6.320997e+01   1.194345e+01
  -1.298280e+01   1.401238e+01
  -5.476160e+00  -2.660190e+01
  -1.384487e+01   1.346020e+01
   1.042427e+01   5.569628e+01
  -5.112436e+01  -4.347018e+01
  -2.503591e+01  -1.025524e+02
   9.609647e+00  -3.799515e+01
  -1.097609e+01   4.988766e+01
   3.582545e+00   1.378143e+01
   4.107651e+00  -8.117566e+00
  -6.492136e+01   1.027914e+01
  -1.357161e+01   6.004050e+00
   2.404497e+01   1.549417e+00
   4.042731e+01   1.041732e+01
  -1.347535e+01   3.378309e+01
  -2.320124e+01   4.229785e+01
  -2.309348e+01   3.234632e+01
  -2.245758e+01  -9.829196e+00
  -2.801439e+01  -2.296673e+01
  -2.238369e+01   1.877673e+01
   3.394368e+00  -1.320599e+01
  -4.369940e+01   4.723572e+01
  -2.731004e+00   1.794933e+01
  -2.906827e+01  -4.791631e+01
   3.673781e+00  -1.350561e+00
   3.231874e+01   2.240654e+01
   4.620730e+01  -2.787102e+00
  -2.642775e+01  -1.784609e+01
   9.776689e-02   3.474187e+01
   3.253449e+00   1.356544e+01
   1.107373e+01  -1.875336e+01
  -7.740602e+00  -2.157311e+01
  -7.284474e+00  -8.375084e+00
  -6.799533e+00   1.195648e+01
  -2.426882e+00  -6.980580e-01
  -5.517322e+01  -3.524646e+01
  -2.872946e+01  -2.795815e+00
   3.847766e+01   2.745514e+00
   2.183159e+01   7.544897e+01
  -5.067557e+01   3.606687e+01
  -3.871632e+00   1.307483e+01
  -5.543767e+00  -6.144310e+00
   1.280163e+01   3.110405e+01
   3.297537e+01  -7.943565e+00
   2.242585e+01   2.428786e+01
   3.409498e+00  -1.702250e+01
   4.556084e+01  -4.637416e+00
   4.199606e+01  -5.200708e+01
   3.489400e+01  -3.312640e+00
  -3.974306e+00   2.574604e+01
  -1.338208e+01   2.717046e+01
  -4.305877e+01  -3.769595e+01
  -2.825317e+01  -5.203715e+01
  -2.312860e+01   9.410927e+00
   2.504589e+01  -3.320674e+01
   2.717948e+01  -2.058628e+00
   3.756798e+00  -5.953311e+01
   3.238026e+01   1.617378e+01
   4.769999e+00   7.623288e+00
  -6.893387e+00  -4.817137e+01
   1.037109e+00   2.164600e+01
  -2.669719e+01   3.341798e+00
  -1.845074e+01   1.465822e+00
  -6.878374e+01   5.707350e+01
   6.273609e+01  -4.291169e+01
   2.732662e+01  -4.738707e+01
   3.102658e+00   1.357997e+01
  -9.751469e+00  -2.150032e+00
  -6.692507e+00  -1.272330e+01
   1.426575e+01   5.420661e+01
  -3.901126e+01  -1.105933e+00
  -3.646470e+01   9.333517e+00
  -2.743097e+01   7.820003e+00
  -3.154610e+01  -2.916099e+01
  -2.514647e+01  -1.819192e+01
  -4.249444e+01  -4.111794e+01
   5.461598e+01   2.431809e+01
  -2.597595e+01  -2.689853e+01
   5.682455e+00   3.525739e+01
  -4.012057e+00  -6.438452e+00
   2.249154e+01   2.153689e+01
  -8.203803e+00   5.830543e+01
   5.733768e+00  -3.940062e+00
  -3.673459e+01   2.363332e+01
  -3.564976e+01  -1.078709e+00
   1.844376e+01  -1.096851e+01
  -2.225087e-01   1.351451e+01
   2.448532e+01   3.546517e+00
  -3.592613e+01  -3.790811e+00
   2.128436e+01   1.805774e+01
   8.266596e+00  -1.424152e+01
   9.552781e+00   1.129398e+01
  -3.921370e+01   5.915576e+00
   5.202709e-01  -2.799064e+01
  -1.813493e+01  -3.339172e+01
   2.378368e+01  -8.543519e+00
  -3.924877e+00  -7.223671e+00
  -4.667626e+00   1.808582e+01
   2.366356e+01   1.041878e+01
  -2.558034e+00   7.564043e+00
  -2.763870e+01   5.236416e+00
   1.929096e+01   1.352046e+01
   1.811449e+01   4.492465e+00
  -8.526435e+00   3.410238e+01
  -9.366410e+00   4.968055e+01
   3.371953e+01   3.736085e+01
   2.235204e+01  -1.440017e+01
   3.543558e+00  -2.592160e+01
  -1.461082e+01  -2.663622e+01
   1.331952e+01   9.107685e+00
   5.352978e+01   3.031788e+01
