
 $NMID
 id='ANONYMOUS ', fmtdat='(2E16.6)'
 volume=1.0
 tramp=1.0
 $END
   2.643778e+03   3.984760e+02
   1.839113e+03   1.285431e+03
  -1.212035e+02   1.456884e+03
  -1.137353e+03   1.428889e+03
  -8.539261e+02   1.942675e+02
  -2.185429e+02  -2.797871e+01
   2.318703e+02   1.753326e+02
   3.753580e+01   5.374707e+02
  -3.362791e+02   3.886365e+02
  -4.239267e+02   1.252149e+01
  -3.685153e+02  -3.654978e+02
  -3.204051e+01  -5.694251e+02
   2.633739e+02  -1.590814e+02
   1.672266e+02   2.800113e+02
   5.421950e+00   4.172712e+02
  -3.055049e+02   8.516167e+01
  -2.495162e+02  -3.177080e+02
   5.258180e+01  -5.353489e+02
   3.790454e+02  -2.563079e+02
   3.194542e+02   1.174279e+02
   7.538999e+01   3.165456e+02
  -7.700595e+01   1.829005e+02
  -5.060996e+01   5.072209e+01
   1.839503e+02   1.058701e+02
   1.818644e+02   2.257219e+02
  -1.019274e+02   2.475557e+02
  -3.811395e+02   6.509733e+01
  -4.654650e+02  -2.585152e+02
  -1.501298e+02  -2.507791e+02
   3.184245e+02  -1.218802e+02
   3.890697e+02   2.488138e+02
   1.617656e+02   3.041516e+02
  -2.411152e+02   2.650629e+02
  -4.377164e+02   2.904628e+01
  -2.629161e+02  -1.630494e+02
  -9.514611e+01  -2.528791e+02
   2.244047e+01  -1.211771e+02
  -1.033260e+02   9.567994e+01
  -1.768517e+02   8.094391e+01
  -2.201650e+02  -1.698764e+02
   1.819977e+01  -5.146284e+02
   1.483801e+02  -2.496112e+02
   2.269568e+02   2.924265e+01
   4.494966e+01   1.831852e+02
  -1.482861e+02   1.495406e+02
  -6.664973e+01  -2.671112e+02
   7.902364e+01  -3.147815e+02
   3.884563e+02   1.761671e+01
   3.598596e+02   2.310978e+02
   1.232400e+02   4.140359e+02
  -2.371301e+02   1.864483e+02
  -4.702235e+02  -2.723954e+01
  -2.819980e+02  -2.314712e+02
  -6.157826e-01  -1.145549e+02
   2.455680e+02  -1.135467e+02
   2.004687e+02   3.827438e+01
   5.605431e+01  -7.843086e+00
  -4.075977e+01  -3.278203e+00
   4.331438e+01  -6.730939e+01
   1.762927e+02   3.643956e+01
   1.241645e+02   1.783599e+02
  -1.559213e+02   2.150677e+02
  -2.786532e+02   1.209399e+02
  -2.876494e+02  -7.303017e+01
   5.809645e+01  -2.762521e+02
   2.715862e+02  -2.374925e+02
   3.473784e+02  -2.025477e+02
   2.934007e+02   1.597020e+02
   3.867135e+00   3.556850e+02
  -1.793940e+01   1.610166e+02
  -3.514893e+01   1.785758e+02
   3.834795e+01   9.030138e+01
  -1.394980e+02   1.174487e+02
  -1.797729e+02   1.697062e+01
  -1.902504e+02  -1.305997e+02
  -6.705801e+01  -2.773486e+02
   8.825306e+01  -1.535299e+02
   1.393453e+02   5.878499e+01
   6.682193e+01   1.759667e+02
  -1.351636e+02   1.521438e+02
  -1.689881e+02   2.126384e+01
  -2.562208e+02  -1.991431e+02
  -1.757100e+02  -2.560073e+02
   5.340310e+01  -1.900950e+02
   1.353052e+02  -1.146007e+02
   1.367323e+02  -4.050622e+01
   1.007411e+02  -6.882603e+01
   3.101443e+02  -6.316355e+00
   3.628523e+02   6.318686e+01
   3.341745e+02   3.399598e+02
  -3.961802e+01   3.935460e+02
  -4.080198e+02   3.274627e+02
  -4.467505e+02   1.141794e+02
  -1.573380e+02  -9.200033e+01
  -2.309657e+01  -1.581949e+02
   6.214374e+01  -1.492807e+02
  -1.209622e+01  -2.384282e+01
  -9.803510e+01  -6.451887e-01
  -9.983785e+01  -6.404871e+01
   1.166198e+01  -1.377447e+02
   1.149136e+02  -8.828039e+01
   7.255990e+01   1.874257e+01
  -7.217045e+01   1.331218e+02
  -1.362443e+02  -1.425319e+01
  -9.373045e+01  -1.518319e+02
   2.137700e+01  -2.925320e+02
   2.356019e+02  -2.229407e+02
   3.417684e+02   5.555694e+01
   2.149157e+02   2.596811e+02
   6.241148e+01   2.495070e+02
  -1.453842e+02   1.198486e+02
  -1.536341e+02   3.527979e+00
  -1.505128e+00  -2.169866e+01
   6.010786e+01   5.813863e+01
  -2.126364e+01   1.098378e+02
  -1.547406e+02   3.912109e+01
  -1.372037e+02  -3.162649e+00
  -2.108498e+01  -8.422629e+01
   7.871002e+01   1.811252e+01
   5.378006e+01   7.651750e+01
  -1.231002e+02   8.622860e+01
  -2.312907e+02  -6.036126e+01
  -2.785664e+02  -1.584298e+02
   9.872260e+00  -2.849365e+02
   1.567137e+02  -1.882005e+02
   2.232816e+02  -7.855541e+01
   9.569999e+01   1.833804e+01
  -1.648920e+01   4.047401e+01
  -4.022912e+01  -3.253458e+01
   5.020297e+01   1.201455e+01
   1.365590e+02  -3.750375e+00
   2.252535e+02   1.618680e+02
  -2.821206e+01   7.923394e+01
  -5.936082e+01   8.854467e+01
  -1.165667e+02   3.359541e+01
  -6.976388e+00  -5.975286e+00
   3.047006e+01   2.141092e+01
  -2.226591e+01   5.739431e+01
  -9.131014e+01   1.086241e+02
  -2.022901e+02  -4.746753e+00
  -1.458683e+02  -1.444714e+02
  -1.353034e+01  -1.818700e+02
   1.716547e+02  -1.310336e+02
   1.268291e+02  -1.052940e+01
   4.810751e+01   9.209017e+01
  -5.944371e+01   6.685844e+01
  -8.150400e+01   8.009600e-01
   1.476402e+01  -3.375414e+01
   2.916214e+01  -5.408226e+00
  -3.690406e+01   1.531598e+00
  -5.630511e+01   2.745816e+01
  -1.088851e+02  -8.511964e+01
   1.008986e+01  -1.606358e+02
   1.375107e+02  -1.150622e+02
   2.378751e+02   4.604423e+01
   1.655981e+02   1.559180e+02
  -7.043832e+00   2.166972e+02
  -1.066373e+02   1.058523e+02
  -1.545536e+02   1.992073e+01
  -7.481413e+01  -5.783540e+01
  -1.134058e+01  -4.360542e+01
  -2.843836e+01   1.779120e+01
  -3.593536e+01  -3.115361e+01
  -4.935548e+01  -2.721953e+01
   2.761897e+01  -9.455529e+01
   1.244592e+02  -1.125029e+02
   1.577441e+02   3.132013e+01
  -4.619723e+01   7.624532e+01
  -1.692930e+02   6.279544e+01
  -2.083430e+02  -7.328045e+01
  -8.133182e+01  -1.653001e+02
   1.381541e+02  -2.501145e+02
   2.383950e+02  -8.990328e+01
   2.640915e+02   8.227258e+01
   6.021468e+01   1.020816e+02
  -6.333776e+01   1.380189e+02
  -7.346835e+01   7.063398e+01
  -4.408949e+01   4.608052e+01
  -2.452037e+01   9.622276e+01
  -9.386283e+01   6.203230e+01
  -1.260243e+02  -1.027464e+01
  -8.541569e+01  -1.105357e+02
  -4.447061e+01  -1.500305e+02
   1.010893e+02  -1.372835e+02
   1.388454e+02   1.754672e+01
   1.231326e+02   1.128980e+02
  -4.613757e+01   9.499000e+01
  -7.669029e+01   5.466955e+01
  -3.753588e+01  -4.157526e+01
  -1.807922e+00  -5.041743e+01
   2.313833e+01  -2.307354e+01
   1.576505e+01  -1.902346e+01
  -7.906122e+01   1.880830e+00
  -5.159115e+01  -1.975670e+01
   8.568032e+01   1.535644e+01
   1.409863e+02   1.877810e+01
   1.216994e+02   3.387152e+01
   1.748560e+00   1.028298e+02
  -1.383433e+02   7.978057e+01
  -1.630086e+02  -2.341574e-01
  -3.444801e+01  -6.089527e+01
   8.629539e+01  -2.598480e+01
   8.714126e+01   1.884392e+01
   4.001649e+01   1.214496e+02
  -2.419179e+01   9.584192e+01
  -6.607125e+01   1.856206e+01
  -8.230361e+01  -2.117375e+01
  -1.754122e+01  -3.197459e+01
  -4.922530e+01   8.032866e+00
  -7.955235e+01   2.496309e+00
  -1.102733e+02  -1.056936e+02
   7.892989e+00  -1.463166e+02
   1.043134e+02  -1.485603e+02
   1.324717e+02  -6.391449e+00
   8.330440e+01   5.945184e+01
   7.304222e+00   7.790352e+01
  -1.031495e+02   6.894308e+01
  -3.292677e+01  -2.482117e+01
   4.798588e+01  -3.736550e+01
   9.297389e+01   1.791514e+01
   3.976627e+01   7.389080e+01
  -9.994100e+01   4.961316e+01
  -1.357999e+02   5.982464e+01
  -1.313342e+02  -3.242989e+01
  -4.343933e+01  -5.549987e+01
   3.715040e+01  -3.610160e+01
   4.423980e+01   1.557145e+01
  -2.039124e+01   8.675547e+00
  -1.132911e+02  -1.410626e+01
  -3.287557e+01  -1.277513e+02
   8.608951e+01  -1.309106e+02
   1.936673e+02  -7.018910e+01
   7.471474e+01   1.038823e+02
   3.081257e+01   1.483058e+02
  -7.838092e+01   1.252157e+02
  -8.094376e+01  -1.678579e+01
  -4.009141e+01  -1.309129e+02
   3.582348e+01  -6.951591e+01
   6.223155e+01   8.330705e+00
   7.784175e+01   3.928797e+01
   3.368337e+01   1.797340e+01
  -1.852507e+01  -1.700506e+01
   7.823450e+00   2.536635e+01
   4.023781e+01   6.516321e+01
   4.063501e+00   7.159777e+01
  -1.505661e+01   8.119846e+01
  -7.949638e+01  -4.207378e+01
  -5.165665e+01  -9.333336e+01
  -3.841595e+01  -2.311971e+01
   9.765782e+01  -7.238572e+01
   7.170378e+01  -1.826879e+01
   2.616081e+01  -2.144410e+01
  -2.489938e+01   2.809966e+01
  -8.701155e+00   1.681813e+01
  -5.673318e+00  -2.695058e+00
   2.274254e+01  -1.649295e+01
  -4.202653e+01   3.158256e+00
  -8.763587e+01  -1.897518e+01
  -1.480117e+01  -4.482700e+01
   1.243599e+02  -9.231338e+01
   1.626637e+02  -6.349314e+01
   1.513832e+02   5.893266e+01
   5.680938e+01   1.057105e+02
  -1.104266e+02   9.133996e+01
  -1.070796e+02   5.381381e+01
  -1.025560e+02  -1.492999e+01
  -4.360256e+01  -4.407605e+01
  -7.373558e+00  -3.623370e+01
   3.377966e+00   6.256285e+00
  -3.159980e+01  -5.857307e+01
  -1.646408e+01  -6.761310e+01
   4.672038e+00  -6.808428e+01
   1.136204e+02  -1.953389e+01
   4.173873e+01   1.250574e+02
  -5.870248e+00   1.149282e+02
  -2.803570e+01   6.641896e+00
  -1.115304e+02  -7.151448e+01
  -4.426466e+01  -1.071468e+02
   5.941131e+01  -2.733133e+01
   9.153249e+01   4.899848e+01
   4.927184e+01   1.118136e+02
  -1.971338e+01   6.107063e+01
  -3.548994e+01   1.095397e+01
   1.638979e+01  -6.344163e+00
   6.856696e+01  -2.086390e+01
   2.655878e+01   1.945282e+01
  -8.049029e+01   4.218579e+01
  -1.674110e+02   4.755718e+00
  -4.117515e+01   9.681805e+00
   4.501014e+01  -6.564163e+01
   1.022598e+01  -6.716130e+01
   3.086099e+01   9.503521e+00
  -1.928058e+01   6.719165e+01
  -6.056381e+01   3.540783e+01
  -5.822383e+01   1.022372e+01
  -3.130398e+01  -3.487174e+01
  -3.105282e+00  -4.090598e+01
  -2.917105e+01   2.322602e+01
   6.042582e+01   7.703363e+01
   1.792448e+01   4.353718e+01
  -5.609676e+01  -2.171024e+01
  -3.011863e+01   1.728291e+01
   8.491473e+00   1.293991e+01
   2.631809e+01   3.725809e+01
  -2.975381e+00   3.574991e+01
  -2.697882e+01   7.142877e+00
  -5.797859e+01  -2.267868e+01
   8.429657e+00  -3.698299e+01
   8.615816e+01   2.482052e+01
   8.050913e+00   6.298648e+01
  -4.439279e+01   1.092163e+01
  -5.339118e+01  -2.336654e+01
  -2.111572e+01  -9.836850e-02
   5.029596e+01  -9.161341e+01
   8.399694e+01  -9.458768e+01
   2.741728e+01   1.256096e+01
  -4.347103e+00   6.127483e+01
  -2.285861e+01  -1.708838e+01
   2.570155e+01  -2.168215e+01
   8.336426e+01   9.222326e+00
