
 $NMID
 id='ANONYMOUS ', fmtdat='(2E16.6)'
 volume=1.0
 tramp=1.0
 $END
  -3.136826e+03  -4.004957e+01
  -2.220794e+03  -1.558612e+03
  -2.206932e+02  -1.565473e+03
   1.017626e+03  -1.026277e+03
   7.535154e+02  -1.391411e+02
   4.759986e+01   1.635905e+02
  -4.382346e+02  -1.860582e+02
  -5.584228e+00  -5.793047e+02
   3.334402e+02  -5.419520e+02
   6.021594e+02  -1.601549e+02
   5.844046e+02   4.664241e+02
   3.986545e+01   6.813859e+02
  -2.167123e+02   1.607093e+02
  -3.027731e+02  -4.272613e+02
  -1.513392e+01  -4.655511e+02
   4.148533e+02  -6.039695e+01
   2.431575e+02   4.704908e+02
   3.284611e+01   5.276727e+02
  -3.460056e+02   2.461861e+02
  -3.979076e+02  -1.777278e+02
  -1.563055e+02  -2.784517e+02
   1.556445e+02  -2.189406e+02
   2.793195e+01  -4.024977e+01
  -2.570742e+02  -9.961083e+00
  -3.196044e+02  -1.991758e+02
  -9.517524e+01  -2.663126e+02
   3.477935e+02  -2.487642e+02
   5.362110e+02   8.630621e+01
   1.854042e+02   3.653253e+02
  -2.326957e+02   2.628965e+02
  -4.744401e+02  -2.673627e+01
  -9.652443e+01  -2.840397e+02
   1.974468e+02  -2.830499e+02
   3.553217e+02  -1.178716e+02
   2.668760e+02   9.049703e+01
   8.122836e+01   3.061525e+02
  -3.764206e+01   1.101601e+02
   1.400515e+01  -6.535321e+01
   9.242807e+01  -1.589186e+02
   2.492829e+02   1.000505e+02
  -5.346785e+01   4.535522e+02
  -2.333811e+02   5.113257e+02
  -3.655068e+02   7.235250e+01
  -9.475393e+01  -2.526231e+02
   1.999004e+02  -1.661512e+02
   1.425396e+02   2.153706e+02
  -5.263150e+01   3.720662e+02
  -3.999300e+02   7.805627e+01
  -4.462307e+02  -3.275865e+02
  -1.742873e+02  -4.263081e+02
   2.552609e+02  -2.783536e+02
   4.148899e+02   4.489998e+01
   3.880180e+02   2.557422e+02
  -5.558767e+01   2.213149e+02
  -1.903892e+02   1.303255e+02
  -2.184445e+02  -5.223949e+01
   2.048319e+01  -2.789973e+01
   3.976026e+01   4.161565e+01
  -1.057361e+02   7.904310e+01
  -1.542108e+02  -4.900457e+01
  -6.672422e+01  -1.514572e+02
   8.898286e+01  -2.097728e+02
   2.742994e+02  -1.487874e+02
   2.567862e+02   5.076515e+01
   3.102413e+01   3.048746e+02
  -2.684821e+02   3.288565e+02
  -3.561796e+02   2.238495e+02
  -2.266193e+02  -1.642503e+02
  -2.614580e+01  -3.687482e+02
   1.597724e+01  -2.832153e+02
  -1.760946e+01  -1.366505e+02
   1.695975e+01  -8.041313e+01
   1.113195e+02  -1.308508e+02
   2.077019e+02  -6.238227e+01
   2.997865e+02   9.325202e+01
   1.210012e+02   2.228708e+02
  -4.532727e+01   2.084885e+02
  -2.173630e+02  -4.993361e+01
  -1.095736e+02  -1.990824e+02
   7.294929e+01  -2.672958e+02
   2.426638e+02  -1.111305e+02
   2.436608e+02   8.729954e+01
   1.285608e+02   2.006896e+02
   4.321680e+00   2.315867e+02
  -7.942451e+01   1.769905e+02
  -1.332023e+02   7.279550e+01
  -1.119173e+02   7.057641e+01
  -2.589867e+02   1.033674e+01
  -3.794680e+02  -7.525667e+01
  -2.320287e+02  -2.666020e+02
   7.246888e+00  -3.406713e+02
   2.678476e+02  -3.031532e+02
   4.288561e+02  -1.545195e+02
   2.985765e+02   1.118456e+02
   3.315695e+01   1.930530e+02
  -3.251856e+01   2.186756e+02
  -2.145328e+01   3.398951e+01
   4.275076e+01  -7.454718e+00
   8.419155e+01   8.125839e+01
   6.472603e+01   1.397363e+02
  -1.344086e+02   1.297385e+02
  -8.886017e+01  -4.617502e+01
   3.371204e+00  -1.241379e+02
   1.329418e+02  -3.423558e+01
   1.730074e+02   2.305331e+02
  -5.958119e+00   3.143110e+02
  -1.948430e+02   2.665982e+02
  -3.676791e+02   6.446767e+01
  -2.388256e+02  -2.402517e+02
  -3.454516e+01  -2.863044e+02
   9.255147e+01  -6.577981e+01
   1.573494e+02   2.658808e+01
   2.676325e+01   1.166316e+01
  -7.886007e+01  -3.069867e+01
   4.033485e+01  -1.133833e+02
   1.721769e+02  -5.199329e+01
   1.333164e+02  -5.412468e+00
   1.416875e+01   2.928744e+01
  -3.764103e+01  -3.500287e+01
  -4.840482e+01  -7.678652e+01
   1.173826e+02  -5.857115e+01
   2.949209e+02  -2.824447e+01
   2.436807e+02   1.240146e+02
   3.709425e+01   2.630898e+02
  -1.626083e+02   2.779664e+02
  -2.415637e+02   1.313772e+02
  -1.331458e+02  -2.364392e+00
   4.100729e+01  -4.605030e+01
   5.647416e+01  -5.656196e+00
  -2.802401e+01   1.041494e+02
  -1.200828e+02   2.589644e+01
  -1.686424e+02  -9.864234e+01
  -5.902075e+01  -1.888535e+02
   7.902081e+01  -1.154095e+02
   5.063401e+01   1.574020e+01
   4.249211e+01   5.403340e+01
  -5.843636e+01  -2.969444e+01
  -6.247602e+01  -1.053669e+02
   7.599054e+01  -1.521951e+02
   1.614407e+02   2.080551e+01
   2.180206e+02   1.343439e+02
   5.938130e+01   2.116160e+02
  -1.165252e+02   1.536988e+02
  -1.472564e+02   5.032622e+01
  -2.980197e+01  -9.936804e+01
   5.176389e+01  -1.076218e+02
   9.050648e+01  -4.455936e+01
   2.218831e+01   1.834037e+01
  -8.791272e+01   9.438975e+00
   1.411483e+01  -3.023634e+01
   5.118500e+01  -1.495080e+01
   7.168042e+01   5.742189e+01
   8.496235e+00   1.650571e+02
  -7.980031e+01   1.604008e+02
  -1.767026e+02   4.902670e+01
  -1.615654e+02  -8.809964e+01
  -2.352564e+01  -2.133841e+02
   7.119732e+01  -1.730902e+02
   1.036951e+02  -3.111400e+01
   7.821710e+01   3.404714e+01
   2.732893e+01   5.247388e+01
   3.562454e+01  -1.287962e+01
   7.585531e+01  -4.417643e+01
   3.913596e+01   5.801515e+01
  -2.240645e+01   8.505843e+01
  -8.611900e+01   6.113097e+01
  -1.367408e+02  -5.358542e+01
  -6.676040e+00  -1.102677e+02
   1.124319e+02  -9.122959e+01
   1.757539e+02   6.861831e+01
   7.213832e+01   1.873621e+02
  -9.552474e+01   1.736708e+02
  -2.518259e+02   7.402027e+01
  -2.162521e+02  -8.438044e+01
  -1.403423e+02  -1.637728e+02
   3.985870e+01  -1.377227e+02
   7.807735e+01  -9.762317e+01
   3.089168e+01  -7.344818e+01
   4.556759e+01  -7.535393e+01
   9.650449e+01  -9.747028e+01
   9.979256e+01  -2.617588e+01
   8.264309e+01   1.213234e+02
   1.834149e+01   1.984281e+02
  -7.888442e+01   1.647027e+02
  -1.102023e+02   2.159496e+01
  -1.225897e+02  -7.726239e+01
  -7.343229e+01  -1.590172e+02
   4.235780e+01  -9.550433e+01
   5.427267e+01   1.177514e+01
  -2.235843e+01   4.045277e+01
  -3.127976e+01   2.674866e+01
   1.383250e+01   2.798132e+01
   6.500903e+01  -5.604155e+01
   4.330192e+01   3.165014e+01
  -5.480440e+01   2.930675e+01
  -2.138866e+02   2.527196e+01
  -1.653547e+02  -6.583572e+01
  -3.000779e+01  -5.845241e+01
   1.181648e+02  -8.339739e+01
   9.751547e+01  -3.032831e+01
   3.266463e+01   7.492419e+01
  -5.280855e+01   7.045171e+01
  -8.683755e+01  -1.808790e+01
  -2.365257e+00  -7.757082e+01
   5.288259e+01  -6.038351e+01
   2.097968e+01   2.709316e+00
   5.438041e+01   6.143815e+01
   5.267570e+01   9.364442e+00
   4.419407e+01  -9.512421e+00
   4.548399e+01   1.410917e+01
   6.056153e+01  -1.419993e+01
  -2.944181e+01   1.130632e+02
  -1.310311e+02   1.269145e+02
  -1.961987e+02  -1.744444e+01
  -1.699294e+02  -3.581188e+01
   4.369459e+01  -9.727247e+01
   1.106677e+02  -4.744367e+01
   6.200867e+01   6.650599e+00
  -5.337724e+01   2.851808e+01
  -8.992459e+01  -3.352573e+01
  -7.274580e+01  -8.974211e+01
   1.172671e+02  -5.827806e+01
   2.161896e+02  -6.646629e+01
   1.656622e+02   8.853484e-01
  -1.584027e+01   1.106519e+02
  -2.273522e+01   5.798233e+01
  -3.979412e+01   3.556337e+00
   4.005223e+01  -1.335012e+01
   8.017900e+01   1.350459e+01
   8.609472e+01   1.044242e+02
  -4.196154e+01   1.624279e+02
  -1.496954e+02   7.848344e+01
  -8.487387e+01  -4.637974e+01
  -5.056740e+01  -1.519920e+02
   1.117645e+02  -1.489291e+02
   7.765049e+01   3.831724e+01
   3.368115e+01   7.359984e+01
  -3.258791e+01   8.122374e+01
  -9.238996e+01   1.308938e+01
  -9.086894e+00  -6.042780e+01
  -2.293381e+01   1.346475e+01
   2.131843e+01   5.126368e+01
  -1.381787e+01  -1.484635e+01
  -6.400952e+01  -8.654893e+01
  -4.304689e+01  -1.371971e+02
   4.593089e+01  -5.210102e+01
   9.261876e+01   9.077217e+00
   1.592195e+02   5.731786e+01
   1.499362e+01   3.337068e+01
  -8.371737e+01   4.815319e+01
  -1.259986e+02   1.335042e+01
   1.107072e+01   2.351520e+01
  -5.836595e+00  -1.064308e+01
   1.935540e+01   1.024852e+00
  -2.537715e+01   3.328596e+01
  -3.037967e+01   1.074385e+00
   7.069566e+01  -2.262456e+00
   6.651028e+01  -3.323546e+01
   1.526485e+00   1.073064e+02
  -1.226152e+02   1.141931e+02
  -1.785920e+02   8.679422e+01
  -1.485843e+02   2.024216e+01
  -3.373343e+01  -1.681038e+02
   7.058965e+01  -1.533206e+02
   1.026673e+02  -8.437960e+01
   3.530586e+01   2.772273e+00
   4.785343e+01   5.497750e+01
   3.247966e+01  -2.131248e+01
   2.484425e+00   4.449666e+00
   3.233180e+01   1.707202e+01
   2.418149e+01   7.708567e+01
   1.336459e+00   7.085763e+01
  -5.746973e+01   1.463724e+01
  -7.569952e+01  -4.055700e+01
  -2.283840e+01  -7.830408e+01
   3.863509e+01  -6.717098e+01
   1.116998e+02   7.828819e+01
   2.213808e+01   3.724404e+01
  -4.037052e+01   8.926509e+01
  -4.918871e+01   6.035910e+01
  -2.579856e+01  -5.864994e+01
  -7.556136e+00  -6.058369e+01
   5.900722e+00  -3.837068e+01
   8.322425e-01  -3.445924e+01
  -3.658781e+01  -2.681612e+01
  -3.627350e+01  -5.907807e+01
   5.173586e+01  -6.090659e+01
   1.130322e+02  -4.793435e+00
   8.283529e+01   3.867096e+00
   1.159574e+01   5.497896e+01
  -4.526233e+01   5.710468e+01
  -2.853522e+01   9.946545e+00
   4.953900e+01  -3.678688e+01
  -9.827046e-01  -2.077186e+01
   1.352856e+01   5.347942e+01
   1.860832e+01   1.950413e+01
   8.213752e+00   5.071259e+01
  -9.919408e+00  -2.636961e+01
  -2.246717e+01  -4.499738e+01
  -5.533545e+00  -3.189636e+01
   1.294509e+01   1.181602e+01
  -7.333889e-01   1.705815e+01
  -2.477206e+01  -3.698067e+00
  -6.863003e+00  -4.318910e+01
   7.376772e+01   3.402583e+01
   6.009383e+01   8.523091e+00
   7.678640e+00   2.562861e+01
  -2.646376e+01  -7.055001e-01
  -3.139174e+01  -2.304177e+01
  -4.358732e+00  -1.013928e+01
   1.301474e+01  -5.213451e+01
   8.883937e+01  -1.212295e+01
   7.669112e+01   5.484570e+01
  -3.753733e+01   5.692933e+01
  -7.103915e+01   7.938071e+00
  -2.561171e+01   2.423784e+01
   4.080430e+01   3.183485e+00
   7.583960e+00  -1.320862e+01
   1.039692e+01   3.593754e+01
  -5.566053e+01   4.844868e+01
