
 $NMID
 id='ANONYMOUS ', fmtdat='(2E16.6)'
 volume=1.0
 tramp=1.0
 $END
  -2.328214e+03  -2.972992e+02
  -1.884136e+03  -1.441715e+03
   1.233447e+02  -1.746483e+03
   1.003362e+03  -1.058915e+03
   7.558853e+02  -1.252031e+02
   1.265271e+02   2.625480e+02
  -3.476833e+02  -2.328873e+02
  -6.263064e+00  -4.540330e+02
   4.826985e+02  -5.676108e+02
   6.361626e+02  -5.710895e+01
   4.286555e+02   5.202022e+02
  -1.278840e+01   5.231998e+02
  -2.953614e+02   1.468248e+02
  -2.438334e+02  -4.494244e+02
   1.121488e+02  -4.318572e+02
   3.101217e+02  -9.353489e+01
   2.808469e+02   4.734289e+02
  -2.226947e+02   6.117851e+02
  -4.316904e+02   1.960961e+02
  -3.291753e+02  -1.118992e+02
  -1.243112e+02  -3.805395e+02
   9.015954e+01  -2.040525e+02
   7.052797e+01  -1.147659e+02
  -2.164460e+02  -1.040855e+02
  -2.241559e+02  -2.557658e+02
   1.260200e+01  -2.539182e+02
   3.917267e+02  -2.081063e+02
   5.054456e+02   2.320138e+01
   1.900568e+02   3.233039e+02
  -2.059764e+02   1.948020e+02
  -4.982394e+02  -1.595796e+02
  -1.325436e+02  -2.320840e+02
   1.740509e+02  -3.400723e+02
   3.308849e+02  -8.849552e+01
   2.741425e+02   1.618666e+02
   6.492404e+01   2.783920e+02
  -2.675687e+01   1.871031e+02
   5.276831e+01  -6.416150e+01
   8.169272e+01  -1.867094e+02
   2.088582e+02   1.104506e+02
   1.506985e+02   2.894140e+02
  -2.925052e+02   3.696683e+02
  -3.255409e+02   1.451465e+01
  -7.261362e+01  -2.587946e+02
   1.917952e+02  -8.755492e+01
   2.365588e+02   2.593377e+02
  -8.093499e+01   3.015565e+02
  -3.445504e+02   9.881286e+01
  -3.923502e+02  -3.214633e+02
  -9.932186e+01  -4.065467e+02
   3.300835e+02  -2.668832e+02
   4.422310e+02   9.831609e+00
   3.144736e+02   2.017531e+02
  -1.070597e+01   1.795123e+02
  -2.726350e+02   8.856883e+01
  -1.602659e+02  -5.554500e+01
   3.839783e+01  -2.742326e+01
   1.878554e+01   1.394425e+01
  -8.617933e+01   5.944599e+01
  -1.820490e+02  -1.321642e+01
  -1.368013e+02  -1.216514e+02
   1.174305e+02  -2.446355e+02
   2.925162e+02  -1.472715e+02
   2.017351e+02   5.958334e+01
  -6.715829e+01   3.139771e+02
  -2.195581e+02   3.690717e+02
  -3.016971e+02   1.410920e+02
  -2.019334e+02  -1.424239e+02
  -3.386015e+01  -3.685493e+02
   1.281713e+01  -2.873875e+02
   7.005050e+01  -1.620544e+02
   3.617533e+01  -1.137506e+02
   1.751174e+02  -1.264847e+02
   2.800932e+02  -1.107922e+01
   2.196047e+02   8.643077e+01
   4.650921e+01   2.517369e+02
  -7.627272e+00   1.225729e+02
  -2.163374e+02  -4.060299e+01
  -1.719637e+02  -1.426068e+02
   3.191640e+01  -2.037857e+02
   2.254196e+02  -2.240214e+01
   2.868723e+02   1.681149e+02
   1.588701e+02   2.884771e+02
  -2.219634e+01   2.394456e+02
  -1.365514e+02   1.574846e+02
  -1.258663e+02  -7.782081e+00
  -1.654666e+02   5.753459e+01
  -2.267402e+02   7.068843e+01
  -3.268193e+02  -9.910438e+01
  -2.427190e+02  -2.630265e+02
   3.532754e+01  -3.960351e+02
   2.726619e+02  -3.031249e+02
   3.880740e+02  -1.613082e+02
   2.152364e+02   1.432056e+02
  -1.898519e+01   2.841697e+02
  -1.245953e+02   2.137854e+02
   8.795881e-01   7.552300e+01
   9.819695e+01  -2.210567e+01
   6.347136e+01   6.043731e+01
  -1.898079e+01   1.143129e+02
  -9.637671e+01   1.081595e+02
  -9.150439e+01  -5.713177e+01
   3.941455e+01  -1.005982e+02
   1.419676e+02   1.933215e+00
   1.619268e+02   1.410304e+02
  -1.576820e+01   3.026645e+02
  -2.499907e+02   1.812403e+02
  -3.038739e+02  -1.178225e+02
  -2.351057e+02  -2.177157e+02
  -2.713657e+01  -2.797965e+02
   7.182445e+01  -7.555015e+01
   1.025650e+02  -1.950437e+01
   2.573669e+01   2.178808e+01
   1.745710e+01  -5.134570e+01
  -3.413213e+00  -1.041685e+02
   8.368143e+01  -8.457561e+01
   1.081309e+02   4.683690e+01
   2.479614e+01   9.526866e+01
  -6.565334e+01  -1.248221e+01
  -6.007774e+01  -5.250602e+01
   8.703507e+01  -4.141894e+01
   2.802947e+02   5.132485e+01
   2.408787e+02   2.014832e+02
   6.319668e+01   2.548583e+02
  -2.009251e+02   2.203529e+02
  -2.499896e+02   1.063527e+02
  -1.120297e+02  -6.039586e+01
   2.400603e+01  -1.028612e+02
   5.385046e+01  -1.715290e+01
  -7.598285e+01   9.679549e+01
  -1.601611e+02   2.932058e+00
  -1.954497e+02  -1.003061e+02
  -5.059592e+01  -1.637078e+02
   5.666817e+01  -1.309629e+02
   8.795969e+01  -3.041087e+01
   5.303123e+01   3.924480e+01
  -2.218891e+01  -1.509897e+01
   9.277648e+00  -1.336620e+02
   7.371093e+01  -5.506755e+01
   1.785240e+02  -4.453261e+00
   1.316403e+02   1.894939e+02
   1.506387e+01   2.168186e+02
  -1.388703e+02   1.314205e+02
  -1.031259e+02   1.633345e+01
  -5.413654e+01  -9.744908e+01
   8.691886e+01  -1.133810e+02
   1.060401e+02  -1.878671e+01
  -3.030852e+01   1.266865e+01
  -4.320214e+01   3.975753e+01
   4.893942e+01  -1.868508e+01
   1.001550e+02  -3.141556e+01
   1.044854e+02   1.128596e+02
   3.500664e+01   1.003506e+02
  -1.417518e+02   9.385469e+01
  -1.854321e+02   1.505077e+01
  -9.628801e+01  -1.098267e+02
  -2.762291e+01  -1.887860e+02
   1.147967e+02  -1.312787e+02
   1.082520e+02   9.866325e-03
   5.838600e+01   4.766509e+00
   3.339611e+00   4.082477e+01
   6.541486e+01   8.902944e+00
   7.854171e+01   1.170285e+01
   4.231176e+01   6.652864e+01
  -2.595960e+01   1.178468e+02
  -8.722715e+01   6.666681e+01
  -7.743261e+01  -4.902455e+01
   4.048089e+01  -1.096743e+02
   1.574659e+02  -6.750309e+01
   2.011747e+02   1.464417e+02
   9.311168e+01   1.743859e+02
  -8.449394e+01   2.253462e+02
  -1.847479e+02  -1.184832e+01
  -1.793767e+02  -5.664163e+01
  -2.569672e+01  -2.174616e+02
   5.699030e+01  -1.363653e+02
   5.686986e+01  -5.595697e+01
   6.932628e+01  -5.080652e+01
   4.247849e+01  -1.203373e+02
   1.256145e+02  -9.221691e+01
   1.165736e+02   2.334637e+01
   1.186324e+02   7.768582e+01
  -1.448705e+01   1.632960e+02
  -1.149125e+02   1.363393e+02
  -1.598228e+02  -7.915287e+00
  -5.971231e+01  -1.079252e+02
  -4.471059e+00  -1.390849e+02
   1.403176e+01  -8.623518e+01
   2.424238e+01   4.293947e+00
  -9.723618e+00   3.107643e+01
  -4.203529e+01   5.159243e+01
   2.723766e+01   1.033387e+01
   1.088937e+02  -3.367549e+01
   5.965837e+01   5.109332e+01
  -5.012408e+01   7.334846e+01
  -2.002208e+02  -2.784043e+01
  -1.413511e+02  -6.495193e+01
  -3.226857e+00  -9.928341e+01
   1.369328e+02  -6.404693e+01
   1.505348e+02   3.093268e+01
   5.299404e+01   5.021570e+01
  -6.211785e+01   2.523838e+01
  -3.736765e+01  -3.192272e+01
  -1.881020e+01  -1.114098e+02
   2.350286e+01  -8.239230e+01
   1.013729e+02   1.895364e+01
   9.320213e+00   7.918103e+01
   4.679445e+01   2.667739e+01
   4.128007e+01   7.325129e-01
   4.549182e+01   5.398055e+01
   4.127490e+01   1.270281e+01
  -3.582379e+01   1.597135e+02
  -1.059345e+02   1.116801e+02
  -2.019276e+02   3.906833e+01
  -1.153109e+02  -1.016426e+02
  -1.662263e+01  -1.034411e+02
   7.113471e+01  -8.315729e+01
   7.948906e+01   2.862356e+01
  -4.801593e+01   4.801064e+01
  -1.182540e+02  -2.328548e+01
  -5.849108e+01  -1.204363e+02
   8.457104e+01  -9.756770e+01
   1.474402e+02  -8.008286e+00
   1.237594e+02   6.302246e+01
   9.088325e+00   9.412394e+01
  -4.629426e+01   6.540049e+01
  -6.438842e+01   1.070840e+01
   4.995780e+01  -3.679226e+01
   5.103848e+01  -2.563778e+01
   3.383494e+01   1.033966e+02
  -1.008313e+02   1.243649e+02
  -7.685388e+01   5.453168e+01
  -1.137383e+02  -7.910751e+01
   8.809102e+00  -2.011012e+02
   2.481498e+01  -1.024221e+02
   1.173117e+02  -3.133417e+01
   6.592059e+01   1.072002e+02
  -3.296603e+01   1.178414e+02
  -8.437996e+01  -9.590778e-01
  -6.882920e+01  -2.192272e+01
  -3.573843e+01  -7.523462e+00
   8.070813e+00   3.839446e+01
  -2.814590e+01  -1.158919e+01
  -7.217952e+01  -8.605986e+01
  -5.403051e+01  -6.191959e+01
   6.039718e+01  -6.289956e+01
   1.059356e+02   2.690599e+01
   9.149495e+01   8.607212e+01
   1.271312e+01   2.369449e+01
  -2.676176e+01   1.123851e+01
  -6.393179e+01  -7.666431e+00
  -4.266488e+01  -3.443400e+01
   2.096080e+01  -1.630897e+01
   3.039620e+01   2.827765e+00
  -9.407066e+00   1.541832e+01
  -1.682616e+01  -1.075549e+01
   4.793820e+01  -3.211683e+01
   1.055621e+02   2.333517e+01
   5.646236e+01   9.858636e+01
  -9.622417e+01   8.854290e+01
  -1.245104e+02   9.245231e+01
  -1.528622e+02  -8.467342e+01
  -1.004358e+01  -1.452840e+02
   1.155997e+02  -1.360817e+02
   9.771385e+01  -1.652681e+00
   8.297371e+01  -2.071223e+01
   3.564492e+01   1.173819e-01
   8.245495e+01   9.862395e+00
  -1.858490e+01   3.517615e+01
   5.049958e+01   4.317290e+01
   2.749753e+01   7.629067e+01
  -5.408254e+01   9.469570e+01
  -3.015855e+01  -1.395309e+01
  -7.860988e+01  -1.094280e+02
  -5.589723e+00  -6.791778e+01
   5.871614e+01   1.889374e+01
   8.773494e+01   8.687996e+01
   4.850923e+01   6.587916e+01
  -3.944437e+01   7.139018e+01
  -1.218945e+02   1.472991e+01
  -6.701320e+01  -3.853809e+01
   2.185012e+01  -6.670711e+01
   2.051144e+01   1.307932e+01
   1.107705e+01   3.239538e+01
  -8.183619e+01   1.912995e+01
  -3.576259e+01  -5.365132e+01
   8.128458e+01  -3.637213e+01
   1.283813e+02  -1.293819e+01
   5.958257e+01  -8.312477e+00
  -2.494925e+01   8.737434e+01
  -1.313208e+01   2.700878e+01
  -5.516686e+01   7.675209e+00
   1.819052e+01  -5.108723e+01
   5.403156e+01  -5.560455e+01
   5.505342e+01   9.185165e+00
   1.844398e+01   3.996511e+00
   2.611556e+01   4.195662e+01
  -2.581769e+01  -3.292024e+01
  -2.321470e+01  -3.471517e+01
  -2.664011e+01  -1.095298e+01
   1.832207e+00   3.987616e+01
   1.287040e+01   4.967022e+01
  -9.719506e+00  -1.468294e+01
   1.759288e+01  -5.495520e+01
   5.759697e+00  -1.526060e+01
   5.225153e+01   3.172239e+01
  -1.253732e+01   7.267212e+01
  -1.895857e+01   1.214947e+01
  -6.635534e+01  -4.545485e+01
  -3.357540e+01  -3.449565e+01
   8.757652e+01  -4.122892e+01
   6.780118e+01   1.576504e+01
   4.528688e+01   3.472336e+01
  -1.854747e+01   4.029439e+01
  -3.394017e+01   3.250382e+01
  -3.889093e+01   6.311273e+01
   5.067380e+01  -8.929831e+00
   2.406172e+01   5.621592e+00
  -2.398675e+00   5.617727e+00
  -5.996000e+01   3.470541e+01
