
 $NMID
 id='ANONYMOUS ', fmtdat='(2E16.6)'
 volume=1.0
 tramp=1.0
 $END
  -2.421219e+03  -5.207123e+02
  -1.156009e+03  -8.319032e+02
   2.016320e+02  -1.529839e+03
   6.221560e+02  -9.756757e+02
   6.872396e+02  -2.206604e+02
   4.222332e+01  -3.891976e+00
  -1.237586e+02  -1.024528e+02
  -3.966400e+00  -2.960788e+02
   3.709900e+02  -4.003731e+02
   3.069348e+02  -9.230389e+01
   1.357659e+02   3.733016e+02
   7.476814e+01   3.705557e+02
  -1.121967e+02   1.707451e+01
  -1.413406e+02  -1.660875e+02
   6.357607e+01  -3.554727e+02
   1.749882e+02  -5.570792e+01
   1.885925e+02   3.320419e+02
  -5.523710e+01   3.641467e+02
  -3.357257e+02   7.196449e+01
  -3.182601e+02  -4.494025e+01
  -2.422048e+01  -2.928793e+02
   1.082638e+02  -1.393476e+02
  -1.785267e+01  -7.594976e+01
  -1.071291e+02  -1.140994e+02
  -9.381833e+01  -1.819225e+02
   7.552858e+01  -2.824118e+02
   4.040236e+02  -8.914428e+01
   4.650359e+02   2.555939e+02
   1.143874e+02   1.945891e+02
  -1.969503e+02   5.404762e+01
  -3.590864e+02  -7.092308e+01
  -8.989020e+01  -2.628991e+02
   3.180354e+02  -2.160337e+02
   3.618957e+02  -1.685684e+02
   2.440344e+02   8.799899e+01
   7.624483e+00   2.329548e+02
   4.821806e+01   5.470349e+01
   8.139702e+01   4.105460e+01
   1.678687e+02  -1.663883e+01
   1.270964e+02   1.213017e+02
  -8.856183e+01   3.905911e+02
  -1.910076e+02   2.014782e+02
  -1.690123e+02  -7.923622e+01
   1.844895e+01  -2.121417e+02
   1.006786e+02  -6.778823e+01
   1.253349e+02   2.623129e+02
  -1.657177e+02   2.464712e+02
  -3.158860e+02   1.031801e+01
  -2.063663e+02  -3.038813e+02
  -1.127556e+02  -3.820925e+02
   2.624319e+02  -8.543742e+01
   4.462317e+02   3.914879e+01
   2.236692e+02   1.947596e+02
  -9.678100e+01   9.060073e+01
  -2.071071e+02   1.569422e+01
  -1.268780e+02  -2.491959e+01
  -4.129972e+00  -1.290310e+00
  -3.143648e+01  -5.416184e+00
  -5.059943e+01  -3.486297e+00
  -1.882341e+02  -4.047688e+01
  -4.445039e+01  -1.136373e+02
   1.374633e+02  -1.629964e+02
   2.446694e+02  -3.255566e+01
   1.602447e+02   1.330788e+02
  -6.334526e+01   2.370388e+02
  -2.407003e+02   2.607058e+02
  -2.780310e+02   8.868142e+01
  -1.400201e+02  -1.468316e+02
  -3.661860e+01  -2.748716e+02
  -1.019064e+01  -1.809057e+02
   3.220612e+01  -1.108839e+02
   3.317109e+01  -7.143571e+01
   1.166090e+02  -5.275004e+01
   2.188448e+02  -1.077558e+01
   1.198458e+02   1.254365e+02
   5.693309e+01   2.002830e+02
  -6.482793e+01   1.373277e+02
  -5.560056e+01  -8.591913e+01
  -1.206027e+02  -2.247822e+02
   3.712384e+01  -1.478839e+02
   2.138561e+02  -3.888415e+01
   1.558664e+02   1.359813e+02
   1.139530e+02   2.271450e+02
  -3.530407e+01   1.870498e+02
  -1.211456e+02   1.138999e+02
  -8.349448e+01   3.180814e+01
  -1.189921e+02   9.580361e+01
  -2.059330e+02   2.236468e+01
  -2.270699e+02  -6.292545e+01
  -2.628272e+02  -2.461110e+02
   5.248967e+01  -2.999418e+02
   3.332180e+02  -2.369376e+02
   3.924504e+02  -1.640685e+02
   2.108484e+02   5.326789e+01
   9.014358e+00   1.914695e+02
  -4.968902e+01   7.256056e+01
  -3.118531e+01   2.392790e+01
   9.867664e+01  -1.241175e+01
   1.172288e+02   2.356543e+01
   6.020630e+00   9.453239e+01
  -9.178153e+01   6.042268e+01
  -1.580139e+01  -7.749479e+01
   1.398464e+01  -1.265580e+02
   1.079104e+02   1.359322e+01
   1.409521e+02   1.837186e+02
  -9.447331e-01   2.503342e+02
  -1.645992e+02   2.156311e+02
  -2.706523e+02  -7.672535e+01
  -8.787733e+01  -2.224837e+02
  -5.664725e+01  -2.006095e+02
   9.939915e+01  -1.141930e+02
   9.455453e+01  -6.716632e+00
   3.863583e+01  -1.546074e+01
  -3.125923e+01  -4.732230e+01
   3.739994e+01  -3.414966e+01
   6.680358e+01  -3.171845e+01
   8.931338e+01   1.729527e+01
   3.039132e+01   9.872731e+01
  -5.543598e+01  -3.848755e+01
   4.323628e+00  -2.111435e+01
   9.562864e+01  -4.311895e+01
   2.123577e+02   3.407252e+01
   1.727608e+02   1.061021e+02
  -6.886746e+00   1.997613e+02
  -2.156184e+02   1.069719e+02
  -2.075490e+02   1.013801e+01
  -1.220247e+02  -4.855056e+01
   4.113719e+00  -6.374634e+01
   2.318485e+01  -2.734359e+01
  -3.036166e+01   5.458374e+01
  -1.290089e+02  -3.093618e+01
  -1.422636e+02  -1.011721e+02
  -1.974331e+01  -9.162425e+01
   3.786813e+01  -9.731653e+01
   1.194104e+02   1.075818e+01
   5.554626e+01   3.074453e+01
  -5.573429e+01  -1.198877e+01
  -6.585976e+00  -6.736997e+01
   4.864856e+01  -5.821846e+01
   1.423365e+02   3.601929e+01
   1.150512e+02   8.554953e+01
   1.026894e+00   1.194937e+02
  -1.308493e+02   7.997408e+01
  -1.467923e+02   6.193252e-01
  -6.663255e+01  -9.754515e+00
   4.260807e+01  -5.052774e+01
   3.119048e+01   6.339575e+00
   1.725496e+01   9.450063e+00
  -3.133566e+01  -1.348995e+01
  -1.816317e+00  -4.392383e+01
   2.468538e+01   2.082101e+01
   1.041805e+02   6.697823e+01
  -1.914064e+01   1.307856e+02
  -1.221507e+02   8.946967e+01
  -1.736768e+02  -5.708137e+01
  -1.474107e+02  -1.313739e+02
  -7.545253e+00  -2.290230e+02
   1.087691e+02  -1.150280e+02
   6.565565e+01  -3.195780e+01
   5.984188e+01   1.389170e+01
   2.029960e+01   5.057358e+01
   4.085198e+01  -2.047992e+01
   6.506657e+01   9.270133e+00
   4.554314e+01   4.232404e+01
  -2.321383e+01   5.947701e+01
  -9.596031e+01   2.297431e+01
  -6.463418e+01   2.077663e+00
   4.563160e+01  -9.359026e+01
   1.091514e+02  -7.650686e+00
   1.593637e+02   7.204688e+00
   2.465998e+01   2.144121e+02
  -1.319211e+02   2.055323e+02
  -1.860352e+02   7.646283e+01
  -1.722840e+02  -2.416620e+01
   1.015888e+01  -8.294886e+01
   1.000089e+01  -8.585924e+01
   6.951707e+01  -7.725468e+01
   4.307864e+01  -2.629561e+01
   3.482652e+01  -7.001470e+01
   9.413418e+01  -2.665596e+01
   7.357915e+01   2.046268e+01
   6.970912e+01   1.578039e+02
   2.701146e+01   1.983502e+02
  -1.064727e+02   9.544519e+01
  -8.301960e+01  -1.285921e+01
  -5.978759e+01  -6.785724e+01
   2.529738e+01  -8.798409e+01
   8.064495e+01  -3.834759e+01
   7.451866e+01  -4.851183e+00
   5.561402e+01   5.533156e+01
  -2.839225e+01   3.808523e+01
   3.241373e+01   4.362758e+00
  -3.921834e+00   4.282813e+01
   4.565806e+01   1.816942e+01
  -6.115687e+01   2.137069e+01
  -1.056778e+02  -5.400193e+01
  -7.967279e+01  -7.602588e+01
  -6.578069e+00  -5.820375e+01
   6.839123e+01  -5.852295e+01
   8.018239e+01  -3.540107e+00
   4.704279e+01   3.013375e+01
  -7.064293e+01   6.261920e+01
  -3.707596e+01   4.121126e+00
  -1.951476e+01  -5.037366e+01
   2.411942e+01  -8.660642e+01
   4.168007e+01   1.071004e+01
   6.015798e+01   1.750423e+01
   3.397679e+01   6.046941e+00
   3.436974e+01   2.497665e+01
   2.922091e+01   3.077676e+01
   5.003343e+01   8.539038e+01
  -1.760182e+01   1.116483e+02
  -1.136639e+02   1.354606e+02
  -9.572245e+01   3.603023e+01
  -6.901162e+01  -9.549064e+01
   1.602804e+01  -9.747414e+01
   5.699605e+01  -5.228580e+01
   9.152775e+01  -5.860430e+00
  -7.434442e+01  -4.268922e+00
  -5.632969e+01  -9.446640e+00
  -6.650329e+01  -7.781380e+01
   6.219799e+01  -1.469338e+02
   1.182643e+02  -1.872961e+01
   9.973848e+01  -1.326809e+01
  -7.151278e+00   2.713039e+01
  -2.016805e+01   4.456646e+01
  -6.069430e+01   1.707060e+01
   2.398164e+01  -4.052929e+01
   4.459271e+01   2.358725e+01
   2.198852e+01   1.228897e+02
  -4.202359e+01   8.715299e+01
  -1.058639e+02   5.357003e+01
  -7.723635e+01  -9.836613e+01
   7.587391e+01  -1.536014e+02
   7.788692e+01  -1.199755e+02
   6.806400e+01   5.131464e+01
   9.227562e+00   7.285001e+01
  -5.138921e+01   7.317261e+01
  -4.471735e+01   5.908301e+01
  -2.855437e+01  -3.589549e+01
   1.882329e+01  -2.212526e+01
   1.583855e+01  -4.898932e+00
  -4.153118e+01  -5.525820e+00
  -5.416856e+00  -5.416408e+01
  -1.051846e+01  -7.090033e+01
   1.458717e+01  -5.191699e+01
   1.200258e+02   5.188553e+01
   5.850071e+01   6.125576e+01
   8.189761e+01   4.577586e+01
  -3.471361e+01   4.295155e+01
  -5.234714e+01  -1.415334e+01
  -3.100347e+01  -2.742187e+01
   7.132514e+00  -5.464018e+01
  -1.780308e+00  -3.879129e+01
   1.045771e+01  -1.073922e+01
   1.749649e+01   3.247367e+01
  -2.116938e+01   2.897907e+00
   3.538951e+01   1.265320e+01
   5.448752e+01   6.508685e+01
  -9.838216e+01   9.687387e+01
  -1.418527e+02  -8.594291e-01
  -1.020300e+02  -1.919709e+01
   5.856710e-01  -1.045586e+02
   1.045613e+02  -1.414049e+02
   1.141213e+02  -1.389088e+01
   7.363600e+01   2.952201e+01
   4.064193e+01   4.854646e+00
   1.159041e+01   4.625713e+01
   1.840479e+01   1.950735e+01
  -1.949549e+00   1.515704e+01
  -2.359449e+01   1.088783e+01
   9.215818e+00   3.561460e+01
  -7.221321e+01   3.284359e+00
  -7.101311e+01  -3.007046e+01
   2.605732e+01  -9.166688e+01
   4.046093e+01  -5.762305e+01
   6.426087e+01   4.589648e+01
   2.803136e+01   1.221249e+02
  -3.811743e+01   5.209739e+01
  -6.817416e+01  -8.172357e+00
  -3.643060e+01  -8.285652e+01
   1.802237e+01   2.488313e+01
   2.408365e+01  -4.980904e+01
   3.854358e+00  -1.677288e+00
  -4.986150e+01   1.391335e+01
  -1.992613e+01  -2.967049e+01
   6.408550e+01  -1.726082e+01
   8.543968e+01  -4.955618e+00
   4.359854e+01   4.288521e+00
  -6.275427e+01   5.623626e+01
  -4.322395e+01   3.854084e+01
  -4.324891e+01  -3.800614e+00
   1.405175e+01  -2.677938e+01
  -2.765762e+01  -5.087263e+01
   3.718439e+01   1.065969e+01
   3.516511e+01   4.736811e+01
  -2.055807e+01  -2.197960e+01
  -1.502113e+01   3.827021e+01
  -6.521356e+01  -4.090726e+01
  -3.836860e+01  -4.112277e+01
   5.789980e+00   2.626418e+01
   1.708436e+01   3.536816e+01
  -7.579842e-01   8.238814e+00
   3.858750e+01  -2.554194e+01
  -1.059703e+01  -4.205713e+01
  -5.144203e+00   5.007154e+01
  -3.109715e+01   5.816155e+01
  -5.369378e+00  -1.121690e+01
  -2.667197e+01  -4.216775e+01
  -2.049014e+01  -9.503236e+01
   4.119870e+01  -2.518777e+01
   4.977323e+01   4.579215e+00
   7.874855e+01   1.244830e+01
  -2.049378e+01   6.854491e+00
   3.508884e+00   3.032642e+01
  -3.390162e+01   3.418148e+01
   1.766197e+01  -1.132407e+01
   7.278154e+00  -7.730954e+00
  -1.494869e+01  -5.465323e+00
  -5.320615e+01   8.402574e+00
