
 $NMID
 id='ANONYMOUS ', fmtdat='(2E16.6)'
 volume=1.0
 tramp=1.0
 $END
  -2.323462e+03  -4.479829e+01
  -1.189822e+03  -7.096096e+02
  -5.105437e+01  -1.120477e+03
   9.693272e+02  -9.625301e+02
   5.823572e+02  -3.219306e+02
   2.299637e+02   2.244381e+01
  -1.126687e+02   1.068565e+02
  -1.783182e+02  -4.034673e+02
   1.952690e+02  -2.885728e+02
   3.407452e+02  -1.935519e+02
   4.218544e+02   2.039295e+02
  -2.001154e+01   4.025143e+02
  -1.358820e+02   1.425003e+02
  -2.624192e+02  -1.048252e+02
   2.232825e+02  -3.171842e+02
   2.260422e+02  -1.335582e+02
   2.479377e+02   2.441223e+02
  -1.174271e+02   3.871070e+02
  -3.295480e+02   2.016701e+02
  -2.267129e+02  -5.635582e+01
  -8.914952e+01  -2.501677e+02
   3.397740e+01  -1.905472e+02
   2.536489e+01  -7.063069e+01
  -1.418765e+02  -1.678462e+02
  -1.928395e+02  -2.324342e+02
   5.710937e+01  -2.942301e+02
   3.025527e+02  -1.292686e+02
   4.174653e+02   2.650966e+01
   1.690782e+02   1.942658e+02
  -2.471203e+02   8.398786e+01
  -1.916629e+02  -2.870362e+02
  -3.910549e+01  -2.653787e+02
   2.267921e+02  -2.719623e+02
   3.487739e+02  -5.473911e+01
   1.330347e+02   1.154166e+02
   1.108606e+02   1.930201e+02
  -1.886052e+00   9.472657e+01
   7.935230e+01  -4.009021e+01
   1.207533e+02   1.803866e+01
   1.311772e+02   1.687487e+02
  -1.922882e+02   3.440735e+02
  -2.057748e+02   1.808886e+02
  -1.878301e+02  -6.978219e+01
  -8.360658e+01  -1.507889e+02
   1.106817e+02  -6.802201e+01
   7.329725e+01   1.649656e+02
  -1.543835e+02   2.431426e+02
  -2.704445e+02  -5.189135e+01
  -3.326717e+02  -2.380548e+02
  -1.143707e+02  -3.081060e+02
   1.643167e+02  -1.792736e+02
   2.998025e+02   8.409647e+01
   3.161247e+02   1.751239e+02
   5.229205e+01   1.241088e+02
  -1.265294e+02   1.695045e+01
  -1.885481e+02  -1.972986e+01
  -3.078345e+01  -3.743424e+01
   2.358184e+01   4.964928e+01
  -7.152157e+01   2.450735e+00
  -1.245373e+02  -4.996561e+01
  -9.976745e+01  -1.251529e+02
   1.058695e+02  -1.188925e+02
   2.635907e+02  -1.445297e+02
   1.849858e+02   7.375937e+01
  -2.081946e+01   2.409585e+02
  -2.386677e+02   2.293580e+02
  -3.110563e+02   6.146005e+01
  -1.883147e+02  -1.630182e+02
   1.723997e+01  -2.178629e+02
   4.066195e+01  -1.294283e+02
   3.786361e+00  -1.466482e+02
   1.342541e+01  -1.656827e+02
   1.120237e+02  -1.031631e+02
   2.377118e+02  -2.052652e+01
   1.069788e+02   6.828399e+01
  -2.743799e+01   2.154271e+02
  -6.075438e+01   8.145038e+01
  -8.018640e+01  -7.385549e+01
  -1.478832e+01  -1.424027e+02
   7.702737e+01  -1.823265e+02
   1.433044e+02  -4.181477e+00
   1.809554e+02   1.661908e+02
   9.719067e+01   2.249238e+02
  -2.731881e+01   1.626810e+02
  -1.110808e+02   6.143022e+01
  -1.194731e+02   5.032467e+01
  -1.058455e+02   3.536723e+01
  -2.994769e+02   1.070674e+01
  -2.538869e+02  -7.159008e+01
  -1.968843e+02  -2.924767e+02
   4.729074e+01  -2.787637e+02
   3.242716e+02  -2.358983e+02
   3.421021e+02  -3.240182e+01
   1.452658e+02   9.493299e+01
  -1.577367e+01   1.074960e+02
  -6.077541e+01   1.439957e+02
   5.111890e+01   1.436057e+01
   8.892223e+01  -2.567927e+00
   6.481378e+01   2.768013e+01
  -3.907375e+01   1.241204e+02
  -1.137088e+02   2.895777e+01
  -4.982002e+01  -8.116158e+01
   1.980997e+01  -6.062399e+01
   1.418967e+02   3.587304e+01
   8.829667e+01   1.531611e+02
  -6.137972e+01   2.414938e+02
  -2.069067e+02   1.137529e+02
  -2.378650e+02  -3.404765e+01
  -2.131527e+02  -2.155661e+02
   4.324524e+00  -1.579866e+02
   1.542652e+02  -6.250236e+01
   7.492005e+01  -7.134288e-01
   1.220940e+01   1.373658e+01
  -4.604950e+01   1.161183e+01
  -1.350370e+01  -7.367312e+01
   6.933220e+01  -4.934128e+01
   1.146613e+02   1.986350e+01
   1.485590e+01   4.931993e+01
  -6.508398e+01   1.770532e+01
  -9.202697e+00  -9.379391e+01
   4.097736e+01  -4.834746e+01
   1.608602e+02   7.894477e+01
   2.253075e+02   1.286559e+02
   3.545449e+01   2.115951e+02
  -1.082531e+02   1.719598e+02
  -1.346136e+02   1.294262e+02
  -1.061219e+02  -7.123861e+00
   2.640142e+01  -6.930544e+01
   2.897668e+01  -6.549872e-01
  -6.335372e+01   6.947084e+01
  -9.908986e+01   2.130160e+01
  -1.072674e+02  -1.003238e+02
   1.727703e+01  -1.278090e+02
   7.761749e+01  -5.889292e+01
   1.143565e+02   2.747652e+01
   2.838556e+01   4.512123e+01
  -8.249409e+01  -4.103038e+01
  -2.548376e+01  -1.264152e+02
   1.202558e+02  -6.840718e+01
   1.318345e+02   2.470019e+01
   1.507759e+02   6.532366e+01
   4.040530e+00   1.301759e+02
  -1.245278e+02   4.157784e+01
  -9.307203e+01  -3.737635e+01
  -5.915650e+01  -7.862064e+01
   6.086353e+01  -3.961389e+01
   4.154633e+01   2.522723e+01
  -3.426823e-01  -3.002522e-02
  -4.092377e+01   1.132421e+01
  -1.083149e+01  -3.726945e+01
   3.650691e+01  -1.091929e+01
   6.924809e+01   8.969816e+01
  -4.847883e+01   1.334685e+02
  -1.154977e+02   9.099248e+01
  -1.876061e+02   2.183388e+01
  -1.290674e+02  -1.251139e+02
  -6.741123e+01  -1.612165e+02
   2.815932e+01  -1.206123e+02
   7.216706e+01   1.999640e+01
   8.729122e+01   2.710907e+01
   6.750793e+01   4.472322e+01
   4.930866e+01  -4.896505e+00
   8.168068e+01   1.013486e+01
   2.583713e+01   1.910172e+01
   2.359814e+01   7.963221e+01
  -7.909359e+01  -2.120806e+01
  -7.593782e+01  -5.059834e+01
   1.077638e+01  -1.407562e+02
   1.581144e+02  -5.842298e+01
   8.423211e+01   6.683104e+01
   4.854700e+01   8.361623e+01
  -1.184018e+02   1.714178e+02
  -1.855072e+02   6.875112e+01
  -2.065827e+02  -8.029107e+01
  -5.372608e+01  -3.756434e+01
  -4.242913e+00  -1.357923e+02
   2.253198e+01  -4.032164e+01
   5.532450e+01  -6.552098e+01
  -1.003643e+01  -3.184685e+01
   2.419190e+01  -5.314909e+01
   8.703931e+01   1.423472e+01
   1.057473e+02   1.513912e+02
   6.216585e+01   1.425892e+02
  -9.755605e+01   1.192846e+02
  -1.126846e+02   5.226448e+00
  -1.036275e+02  -8.957562e+01
   1.372100e+01  -1.084867e+02
   6.432182e+01  -7.024076e+01
   6.761992e+01   1.499095e+01
  -1.745185e+01   2.395745e+01
  -6.160557e+01   2.742751e+01
   2.069226e+01   2.428210e+01
   8.209795e+01   2.790611e+01
   2.545496e+01   3.345738e+01
  -5.630091e+01   4.589269e+01
  -1.242660e+02   1.189399e+01
  -1.295511e+02  -4.282698e+01
   2.072692e+01  -1.036138e+02
   1.444396e+02  -4.707443e+01
   1.605466e+02  -4.025895e+01
   4.807563e+01   2.064844e+01
  -4.762696e+01   4.979982e+01
  -8.023171e+01  -7.193619e+01
  -2.881629e+01  -4.005198e+01
   7.312058e+00  -7.556161e+01
   6.079509e+01  -1.452337e+01
   8.574255e+01   7.032584e+01
   6.069846e+01   7.835774e+00
   5.544430e+01   1.865364e+01
   6.037204e+01  -8.128054e+01
   2.661673e+01   6.331945e+01
   2.492896e+00   1.333732e+02
  -7.707527e+01   1.119336e+02
  -1.376405e+02  -1.342727e+01
  -9.860211e+01  -7.051596e+01
  -1.917864e+01  -1.010700e+02
   4.186036e+01  -8.129968e+01
   1.430098e+01   8.438508e+00
  -4.359382e+01   3.181429e+01
  -9.724214e+01   5.461625e+00
  -9.502917e+01  -1.116391e+02
   4.294761e+01  -9.589535e+01
   1.102236e+02  -5.170830e+00
   7.326631e+01   9.250904e+01
   1.993028e+01   5.727782e+01
  -4.560143e+01   2.908300e+01
  -2.356762e+01   7.455037e+00
   5.369266e+01  -5.796017e+01
   7.273369e+01  -2.003884e+01
   6.488653e+01   6.831833e+01
  -4.508704e+01   1.001564e+02
  -1.380455e+02   4.049281e+01
  -8.350494e+01  -5.674431e+01
  -4.639356e+01  -1.255978e+02
   7.222632e+01  -4.354637e+01
   5.911183e+01  -6.679660e+00
   1.424461e+01   7.801393e+01
  -1.715024e+01   6.753247e+01
  -6.497934e+01   1.935980e+01
  -2.147861e+01  -5.208633e+01
   4.577895e+00  -1.878964e+00
  -7.139414e+00   6.143545e+00
  -3.533311e+01  -4.108582e+01
  -2.354702e+01  -7.447798e+01
  -4.818683e+01  -6.430627e+01
   3.073559e+01  -2.976656e+01
   1.020195e+02   5.962214e+01
   5.282658e+01   1.060567e+01
   4.612467e+01   6.522252e+01
  -5.287905e+01   6.926603e+00
  -3.825917e+01   2.581515e+01
  -2.871984e+01  -1.832573e+01
  -1.268435e-01  -1.150663e+01
   7.482300e+01  -2.686286e+01
  -3.636260e+01  -4.235436e+00
   1.449658e+01  -1.987021e+01
   2.720122e+01   2.659265e+01
   5.903855e+01  -1.267975e+01
   9.212662e+00   8.802318e+01
  -7.945287e+01   8.716157e+01
  -1.035194e+02   3.068001e+01
  -4.882366e+01  -6.013664e+01
  -4.613133e+01  -1.164828e+02
   4.905775e+01  -8.357962e+01
   6.148113e+01  -4.839369e+01
   5.812382e+01   1.966153e+01
  -1.177707e+01  -1.271118e+01
  -1.211982e+01   4.841270e+01
   1.359174e+01   2.284885e+01
   2.023762e+01   8.693957e+01
  -3.080622e+01   4.667959e+01
   1.772323e+01   7.742738e+01
  -3.810430e+01  -7.532651e+01
  -3.084259e+01  -8.202269e+01
   2.437226e+01  -9.345884e+01
   3.704049e+00  -1.114720e+01
   6.026735e+01   3.487512e+00
   6.398328e+00   8.701950e+01
  -6.224736e+01   6.906988e+01
  -8.315634e+01  -1.177622e+01
  -3.108684e+01  -5.496685e+01
   1.859463e+01  -3.962301e+01
  -8.291866e+00  -3.170367e+01
  -1.993803e+01  -3.718535e+01
  -4.272273e+01  -4.224693e+01
  -3.238624e+01  -6.262481e+00
   6.438397e+01  -1.055980e+02
   8.521372e+01   1.651627e+01
   5.503896e+01   4.411445e+00
   9.923191e+00   6.527901e+01
  -2.682422e+01   4.174676e+01
  -9.605560e+01  -6.877718e-01
  -4.197368e+01  -3.353654e+01
   3.113052e+01  -2.743810e+01
   3.623642e+01  -1.457124e+01
   1.872905e+01  -1.609511e+01
  -7.791188e+00  -2.153608e+01
  -3.499815e+01   4.358214e+01
  -3.889072e+01  -1.165034e+01
   1.441510e+01  -1.882790e+01
  -3.350733e+01   2.320338e+01
   2.480729e+01   4.434087e+01
  -1.982215e+00  -2.338285e+01
  -4.733629e+01  -5.232140e+01
  -1.694850e+01  -1.604183e+01
   1.753438e+01   4.656496e+00
   1.946069e+01   5.089294e+01
  -5.816373e+01   2.973466e+01
  -1.641478e+01  -2.231556e+01
  -8.362466e+00  -2.251513e+01
   3.477310e+01   1.856026e+01
   6.730120e+01   2.100285e+01
   4.209534e+01   4.839961e+00
  -3.334516e+01  -8.641900e+00
  -4.581342e+01   7.222450e+01
  -3.282210e+01   6.081612e+00
   8.252376e+00  -8.701900e-01
  -1.945067e+01  -1.852913e+01
   4.774765e+00   2.008583e+00
  -6.766405e+01  -7.218791e+00
