
 $NMID
 id='ANONYMOUS ', fmtdat='(2E16.6)'
 volume=1.0
 tramp=1.0
 $END
   1.878160e+03   2.861624e+02
   1.511431e+03   8.095399e+02
   2.011340e+02   1.426733e+03
  -4.218742e+02   9.326117e+02
  -7.762132e+02   3.520743e+02
  -1.603502e+02  -3.937301e+01
   9.633379e+01  -1.062031e+02
   1.463119e+02   2.651561e+02
  -2.599872e+02   4.664678e+02
  -2.801468e+02   1.847626e+02
  -2.852831e+02  -1.817465e+02
  -3.879609e+01  -3.798596e+02
   1.375265e+02  -2.132520e+02
   2.292843e+02   2.276388e+02
  -1.252726e+02   3.073150e+02
  -1.985875e+02   3.535631e+01
  -2.462402e+02  -3.413731e+02
   3.065160e+01  -4.372839e+02
   2.750589e+02  -2.592204e+02
   3.415225e+02   6.341281e+01
   8.350768e+01   1.831998e+02
  -7.267925e+01   2.152182e+02
   3.704913e+00   9.664210e+01
   1.090641e+02   6.645176e+01
   1.550354e+02   1.998319e+02
  -2.555144e+01   2.173311e+02
  -2.994852e+02   1.074647e+01
  -4.417097e+02  -1.133090e+02
  -1.189770e+02  -1.437031e+02
   1.381210e+02  -4.041887e+00
   1.807461e+02   9.572846e+01
   9.478968e+01   1.752250e+02
  -2.548315e+02   2.582149e+02
  -3.137914e+02   5.292438e+01
  -1.683661e+02  -6.469338e+01
  -8.098051e+01  -1.722041e+02
   3.010933e+01  -1.394065e+02
  -8.564789e+01   3.953982e+00
  -1.537407e+02   5.435576e+01
  -1.231386e+00  -6.130541e+01
   8.260765e+01  -2.229636e+02
   1.088654e+02  -2.315940e+02
   8.957927e+01  -4.300741e+00
   9.565816e+01   2.112511e+02
  -4.214015e+01   7.332770e+01
  -6.879963e+01  -1.411693e+02
   3.645848e+01  -1.698184e+02
   3.379608e+02   7.548621e+01
   3.897445e+02   1.827013e+02
   1.448555e+02   2.821162e+02
  -1.548108e+02   2.346742e+02
  -3.445498e+02  -1.663366e+02
  -1.484234e+02  -1.096610e+02
  -4.447104e+00  -1.898408e+02
   1.597537e+02  -1.206734e+02
   1.405526e+02   1.550076e+01
   2.764333e+01   4.835404e+01
   1.587037e+01  -7.075135e+00
   1.194283e+01  -3.750934e+01
   1.231882e+02  -1.951979e+00
   4.019048e+01   9.462815e+01
  -7.675410e+01   1.260665e+02
  -2.521327e+02   1.137483e+02
  -2.017983e+02  -9.834179e+01
   1.659678e+01  -2.344109e+02
   2.034885e+02  -3.212159e+02
   2.719578e+02  -4.338077e+01
   9.355650e+01   8.325895e+01
   7.572232e+00   1.661771e+02
   3.625256e+01   2.149870e+02
   5.246509e+00   1.156066e+02
  -4.229252e+01   1.001614e+02
  -8.485400e+01   9.223407e+01
  -1.914800e+02  -1.460994e+01
  -1.836215e+02  -7.651010e+01
  -2.037203e+01  -1.894081e+02
   4.390212e+01  -1.684326e+02
   1.110787e+02   2.941509e+01
   7.793472e+01   1.293086e+02
  -4.843238e+01   1.621788e+02
  -1.328127e+02   6.209296e+01
  -1.511353e+02  -1.288468e+02
  -8.495625e+01  -2.047718e+02
   4.049512e+01  -1.270479e+02
   5.734409e+01  -1.199784e+02
   9.731663e+01  -5.123708e+01
   1.482052e+02  -3.256549e+01
   1.874811e+02   2.827499e+01
   2.873201e+02   4.366729e+01
   1.616531e+02   2.277623e+02
  -5.205118e+01   2.407781e+02
  -2.632239e+02   2.265881e+02
  -3.471257e+02   5.243837e+01
  -1.676489e+02  -7.803255e+01
   2.754263e+00  -1.977046e+02
   3.942765e+01  -7.382866e+01
   6.426614e+00  -3.981098e+01
  -1.246015e+02   3.308641e+01
  -6.781649e+01  -4.191375e+01
  -1.185352e+01  -7.009360e+01
   7.327789e+01  -2.339346e+01
   6.307296e+01   3.465970e+01
  -1.959454e+01   7.873152e+01
  -6.469800e+01  -6.052726e+01
  -1.206505e+02  -1.602822e+02
   7.044300e+01  -2.719016e+02
   1.045413e+02  -1.672098e+02
   2.425220e+02  -1.790058e+01
   1.922539e+02   1.816199e+02
   5.568530e+01   1.857618e+02
  -9.602142e+01   9.897153e+01
  -7.501828e+01  -2.471420e+01
   1.057449e+01   1.052673e+01
   5.839588e+01   1.146428e+01
  -2.393651e+00   1.883231e+01
  -5.314545e+01   5.513528e+01
  -8.821145e+01   2.212316e+01
  -1.324495e+01  -7.290610e+00
   8.125200e+01  -5.849354e+00
   3.380050e+01   8.986122e+01
  -8.092520e+01   6.928757e+01
  -1.982701e+02  -1.619657e+00
  -1.548348e+02  -7.654780e+01
  -1.447115e+01  -1.728431e+02
   9.884695e+01  -1.791476e+02
   2.055804e+02  -8.446489e+01
   9.000407e+01   5.092957e+01
  -1.944189e+01   2.601325e+01
  -3.477666e+01   2.768533e+01
   3.058718e+01  -6.557086e+01
   1.359853e+02   2.262699e+01
   8.833109e+01   8.848527e+01
   7.263343e+01   1.399989e+02
  -8.099107e+01   1.046754e+02
  -7.034318e+01   9.143384e+00
  -2.025115e+01  -1.078933e+01
   2.368988e+01  -6.900717e+00
  -3.616593e+01   3.329623e+01
  -4.339548e+01   1.043909e+02
  -1.342075e+02   3.861364e+00
  -1.412479e+02  -6.900985e+01
  -1.659267e+01  -1.778312e+02
   8.629348e+01  -1.013897e+02
   1.012765e+02   7.708632e+00
   2.201804e+01   5.803315e+01
  -6.600027e+01   5.678457e+01
  -5.640330e+01   4.598876e+00
  -2.216751e+01  -9.033595e+00
   4.620110e+01  -1.840033e+01
  -1.678135e+01  -5.115094e+00
  -6.828579e+01   1.108700e+01
  -8.194474e+01  -1.912233e+01
   1.808252e+01  -1.615352e+02
   7.638031e+01  -9.037909e+01
   1.162883e+02   6.500892e+00
   1.028419e+02   6.219215e+01
  -3.967235e+00   1.407961e+02
  -4.527486e+01   1.190661e+02
  -4.211802e+01   2.709003e+01
  -7.383163e+01  -5.873713e+01
  -3.581176e+01  -2.937921e+01
  -2.202657e+01  -9.350605e+00
  -7.413744e+01   6.236924e+00
  -2.748697e+01  -3.957265e+01
  -2.545585e+01  -6.894002e+01
   1.372189e+02  -1.926538e+01
   6.004655e+01   2.003282e+01
  -4.658981e+01   9.542862e+01
  -7.445197e+01   9.010979e+01
  -8.778076e+01  -5.895735e+01
  -7.704433e+01  -1.752074e+02
   8.734576e+01  -9.591219e+01
   2.091359e+02  -6.187907e+01
   1.096601e+02   6.406478e+01
   6.558907e+01   1.322223e+02
  -5.235099e+01   7.686455e+01
  -8.855808e+01   3.147501e+01
  -6.478332e+01   5.391607e+01
   1.612112e+01   9.229842e+01
  -8.090970e+01   9.637512e+01
  -8.953945e+01   3.682321e+01
  -5.875198e+01  -1.285334e+02
  -8.647234e+01  -1.836158e+02
   8.879479e+01  -1.318100e+02
   1.157638e+02  -1.412572e+01
   6.891268e+01   9.452387e+01
   1.525603e+01   1.341328e+02
  -7.736281e+01   4.929412e+01
  -1.472681e+01  -5.709359e+01
   2.541003e+00  -2.707648e+00
   3.152150e+01  -4.177223e+01
  -1.192077e+01   1.615940e+01
  -8.383442e+01   8.828546e+00
  -2.958978e+01  -5.744214e-01
   6.831783e+01   6.410653e+00
   1.583242e+02  -1.270270e+00
   9.577797e+01   3.334911e+01
  -3.558656e+01   1.441921e+01
  -9.393016e+01   2.355482e+01
  -1.327467e+02   1.602012e+01
  -4.133864e+01  -6.042204e+01
   2.195353e+01  -4.261362e+01
   7.423093e+01  -1.059220e+01
   2.155731e+01   2.505009e+01
  -3.076982e+01   8.859040e+01
  -4.670672e+01  -1.821895e+01
  -2.522578e+01   2.701745e+01
  -3.605650e+01  -4.966541e+01
  -3.853917e+01   7.641566e+00
  -1.320232e+01   1.368265e+01
  -3.342015e+01  -5.247220e+01
   2.932758e+01  -1.045900e+02
   9.155286e+01  -8.937458e+01
   1.549211e+02   4.639639e+01
   1.031369e+02   1.168424e+02
   2.129116e+01   1.024136e+02
  -9.090000e+01   3.451880e+01
  -1.584852e+01  -3.399400e+01
   5.043647e+01  -4.396127e+01
   1.177055e+02   3.040661e+01
   5.723669e+01   1.178005e+02
  -9.241231e+01   7.923473e+01
  -7.092700e+01   2.164039e+01
  -8.126031e+01  -5.178733e+01
  -3.522289e+01  -5.857477e+01
   5.302698e+01  -4.272918e+01
   3.110584e+01   2.144297e+01
  -2.426158e+01   1.796913e+01
  -6.622322e+01  -2.673056e+01
  -1.615774e+01  -8.613265e+01
   7.188196e+01  -1.221713e+02
   8.652263e+01  -5.672026e+01
   9.751867e+01   4.766846e+01
   4.270181e+01   1.663024e+02
  -4.056744e+01   6.334655e+01
  -7.062600e+01   8.152785e+00
  -9.471818e+00  -7.023491e+01
   8.237824e+00  -5.982147e+01
   5.083364e+01   3.651138e+01
  -1.091169e+01   1.043785e+01
   2.023409e+00  -3.008652e+00
  -2.174339e+01  -2.506064e+01
   3.844980e+01   9.618146e+00
   5.691828e+01   4.874564e+01
   3.031041e+00   7.912323e+01
  -5.463759e+01   5.564524e+01
  -9.610303e+01  -6.406377e+01
  -5.766844e+01  -6.338941e+01
  -3.430263e+01  -5.844716e+01
   3.552600e+01  -3.712054e+01
   8.890261e+01  -1.331776e+01
   3.554989e+01   3.270452e+01
  -2.415591e+01   1.174915e+01
   1.063720e+01  -1.711214e+00
   3.242914e+01   3.516835e+01
   1.455008e+01   1.623257e+00
  -2.081313e+01  -1.762084e+01
  -9.029284e+01   2.636797e+00
  -1.042183e+01  -8.814551e+01
   5.760770e+01  -6.281226e+01
   1.473153e+02  -3.020931e+01
   6.979564e+01   5.750355e+01
   4.938242e+01   1.150555e+02
  -6.990423e+01   1.176661e+02
  -5.929689e+01   3.354031e+01
  -6.649169e+01  -1.508535e+01
  -4.415579e+01  -1.344805e+01
   8.590841e-01  -5.104687e+01
  -1.496389e+01  -2.359507e+01
  -8.479650e+00  -6.183148e+01
  -5.355380e+00  -5.330922e+01
  -4.651458e+00  -6.572767e+01
   2.224046e+01   5.735884e+00
   7.321913e+01   6.901446e+01
   3.600393e+00   8.902213e+01
  -5.662393e+01   5.422935e+00
  -8.302462e+01  -5.612259e+01
  -1.714489e+00  -4.847311e+01
   3.906186e+01  -1.365054e+01
   2.499625e+01   5.103049e+01
   2.263760e+01   2.312242e+01
  -3.381041e+01   8.464572e+00
  -4.797578e+01   2.950110e+01
   2.469453e+01  -3.903607e+01
   4.217697e+01  -1.844790e+01
  -5.490116e+00   2.122186e+01
  -4.947635e+01   7.510195e+01
  -1.026954e+02   4.591647e+01
  -3.441596e+01  -2.036697e+01
   4.594838e+01  -5.454920e+01
   4.077639e+01  -9.258561e+01
   4.100645e+01  -4.292268e+01
  -1.329139e+01   1.201100e+01
  -2.280530e+01   2.603980e+01
  -1.789568e+01  -6.206955e+00
   6.397545e+00  -4.160850e+01
  -3.938409e+01  -2.216547e+01
   3.186131e+01   5.536378e+00
   7.151925e+01   7.124488e+00
   3.665698e+01  -2.377046e+01
  -4.497576e+01  -2.975470e+01
  -1.643275e+01   1.292561e+01
  -2.186882e+00   2.045440e+01
   1.245217e+01   3.911418e+01
  -2.887713e+01  -1.047360e+01
  -1.215803e+01  -2.255166e+01
   1.851054e+01  -3.814955e+01
   8.760983e+00  -4.383730e+00
   3.776735e+01   2.716720e+01
   9.049759e+00   5.836838e+01
  -2.893008e+01   6.203808e+00
  -8.702759e+01  -6.248326e+00
  -1.638700e+01  -2.483388e+01
   2.510578e+01  -2.562227e+01
   7.163910e+01  -3.530950e+01
   2.921137e+01   2.104049e+01
  -3.252462e+01   5.250718e-01
  -4.633365e+01  -1.829860e+01
   1.989866e+01  -2.572056e+01
   4.565135e+01  -1.178301e+01
