
 $NMID
 id='ANONYMOUS ', fmtdat='(2E16.6)'
 volume=1.0
 tramp=1.0
 $END
  -1.203462e+03  -2.230836e+00
  -1.136231e+03  -7.413655e+02
  -2.801686e+02  -7.469699e+02
   3.397216e+02  -6.842684e+02
   6.101543e+02  -4.111983e+02
   1.404812e+02  -1.649490e+02
   4.607126e+01   4.390153e+01
   2.281479e+01  -2.915712e+02
   2.022524e+02  -2.284656e+02
   4.061905e+02  -1.245632e+02
   3.002762e+02   1.667337e+02
  -2.625259e+01   3.026551e+02
  -1.348260e+02   1.073090e+02
  -2.882393e+02  -2.269815e+02
   1.078878e+01  -1.438463e+02
   1.239887e+02  -9.351736e+01
   1.719911e+02   2.435507e+02
   1.126400e+02   4.619537e+02
  -2.080917e+02   1.813394e+02
  -2.760271e+02  -4.468121e+01
  -1.341118e+02  -1.471848e+02
   7.146497e+01  -1.199086e+02
   1.353111e+01  -5.842479e+01
  -1.887421e+02  -2.633808e+01
  -2.072453e+02  -2.418881e+02
   4.547357e+01  -1.671816e+02
   1.753360e+02  -1.036412e+02
   1.572049e+02   1.599875e+02
   1.147202e+02   1.410833e+02
  -1.492020e+02   1.215067e+02
  -2.016108e+02  -5.710753e+01
  -7.262464e+01  -1.827642e+02
   1.398591e+02  -1.033444e+02
   1.675208e+02  -3.554980e+01
   1.584783e+02  -9.708639e+00
   5.762125e+01   3.115420e+01
   6.598138e+01   8.887081e+01
   1.419526e+02   1.285123e+01
   7.552805e+01   4.365738e+00
   1.055541e+02   1.230087e+02
  -2.077176e+01   2.098415e+02
  -9.463105e+01   1.669733e+02
  -1.198378e+02   1.009877e+02
  -4.672744e+01  -1.013451e+02
   8.139653e+00  -6.440725e+01
   7.321865e+01   7.505809e+01
  -2.715939e+01   1.933409e+02
  -1.650816e+02   1.501439e+01
  -2.632747e+02  -2.500160e+02
  -1.029145e+02  -2.242799e+02
   1.336713e+02  -1.347349e+02
   1.872812e+02   2.308115e+01
   1.634473e+02   1.312965e+02
  -9.088253e+00   1.045855e+02
  -6.833355e+01   8.902866e+01
  -1.226183e+02   2.688927e+01
  -2.504218e+01  -5.474766e+01
  -3.295024e+01   1.654456e+01
  -7.293892e+01   4.616981e+01
  -9.694969e+01   2.406747e+01
  -1.443445e+01  -3.023307e+01
   4.536560e+01  -2.054883e+02
   1.340585e+02  -7.031617e+01
   1.603082e+02   1.050329e+01
  -2.496705e+01   2.346174e+02
  -2.400067e+02   2.948898e+02
  -2.582036e+02   1.017373e+02
  -8.786070e+01  -7.666974e+01
  -7.531951e+01  -1.939668e+02
   3.029566e+01  -1.717770e+02
  -4.246580e+01  -1.174330e+02
   2.978433e+01  -5.405937e+01
   4.941934e+01  -7.996563e+01
   1.501431e+02  -4.154666e+01
   1.217026e+02   6.873249e+01
   3.912891e+01   9.085479e+01
  -3.958568e+01   9.806813e+01
  -8.769134e+01   2.043652e+01
  -7.092009e+01  -1.506723e+02
  -1.775371e+01  -1.333952e+02
   1.417868e+02  -4.877236e+01
   1.316050e+02   9.287019e+01
   6.775969e+01   1.548897e+02
   2.687942e+01   1.546759e+02
  -4.240068e+01   6.007049e+01
  -5.630502e+01   7.195825e+01
  -4.923544e+01   8.053211e+01
  -1.434859e+02  -5.026066e+01
  -2.338717e+02  -9.326352e+01
  -1.439948e+02  -1.455229e+02
  -1.028000e+01  -2.108833e+02
   1.679996e+02  -2.357772e+02
   2.592223e+02  -1.790823e+01
   2.180218e+02  -5.394418e-01
   8.362556e+00   1.370829e+02
  -8.946358e+00   8.688445e+01
   2.728510e+01   5.067023e+01
   5.345124e+01  -1.608663e+01
   2.409001e+01   4.827896e+01
  -2.807460e+00   5.864817e+01
  -2.637704e+01   1.870124e+01
  -3.553620e+01  -4.728978e+01
   2.328696e+01  -4.114378e+01
   8.137316e+01   2.040775e+00
   9.215963e+01   3.095891e+01
  -3.133502e+01   2.155748e+02
  -9.825135e+01   1.593518e+02
  -2.656224e+02  -2.296650e+01
  -1.202177e+02  -8.511028e+01
  -2.707951e+01  -1.596277e+02
   1.043227e+02  -4.718983e+01
   3.411781e+01   4.270384e+00
   4.314083e+01   6.230105e+00
  -1.315060e+01  -3.277545e+01
  -1.723945e+01  -6.253016e+01
   6.420531e+01  -2.745207e+01
   7.351521e+01   1.559756e+01
  -3.508088e+01   1.670344e+01
  -3.464339e+01   2.085764e+01
  -1.008310e+01  -7.268797e+01
   1.223290e+02  -4.862115e+01
   1.820454e+02   3.698177e+00
   1.854150e+02   8.480489e+01
  -2.650773e+01   1.276428e+02
  -7.727533e+01   1.051223e+02
  -1.440257e+02   1.340901e+02
  -8.195245e+01  -4.963970e+01
   2.539811e+01  -6.495907e+01
   3.308275e+01  -1.450063e+01
  -3.104986e+01   6.659321e+01
  -1.410214e+02   4.498877e+01
  -6.835431e+01  -7.085285e+01
  -3.931394e+01  -8.881872e+01
   4.208531e+01  -1.651441e+01
   5.990631e+01   4.716552e+01
   2.010643e+01   2.202050e+01
   1.011360e+01  -2.657878e+00
  -3.028022e+01  -2.817001e+01
   4.952419e+01  -6.305139e+01
   8.539326e+01   1.560438e+01
   1.200661e+02   9.243860e+01
   4.892206e+01   1.246321e+02
  -1.030017e+02   4.580119e+01
  -9.831634e+01   1.415572e+01
  -2.043075e+01  -3.894722e+01
  -7.550464e+00  -4.154672e+01
   3.906366e+00  -5.249772e+01
   1.212603e+01   8.896353e+00
  -1.889188e+01   2.969453e+01
   3.335396e+01  -2.819802e+01
   5.874747e+01  -3.381853e+01
   6.171223e+01   6.703730e+01
   3.233332e+00   2.833009e+01
  -8.964401e+01   4.435487e+01
  -1.226819e+02  -8.039414e+00
  -7.260473e+01  -9.144558e+01
  -4.840390e+01  -9.703456e+01
   7.603139e+01  -1.189888e+02
   7.164918e+01  -2.327026e+01
   3.802405e+01   2.566926e+01
   7.038502e+00  -5.007256e+00
   1.509255e+01   1.475187e+01
   1.612876e+00   4.763628e+00
   4.524736e+01   2.430294e+01
   1.730327e+01   6.503469e+01
  -6.289243e+01   2.035056e+01
  -4.848360e+01   1.352370e+01
  -3.388416e+01  -9.771760e+01
   1.043794e+02   4.429193e+00
   1.573106e+02   9.763992e+00
   3.091571e+01   1.366939e+02
  -1.631982e+01   7.695247e+01
  -1.599045e+02  -2.318217e+01
  -1.210382e+02  -1.498806e+01
  -7.683283e+01  -8.505732e+01
   3.020273e+01  -7.670822e+01
   6.975289e+01  -4.538620e+01
   6.538094e+01  -4.615532e+01
   8.057304e+01  -1.537377e+01
   3.070535e+01  -4.133509e+01
   8.281613e+01   2.930443e+01
   8.552555e+01   1.227380e+02
  -1.405751e+01   1.436591e+02
  -1.121469e+02   8.518930e+01
  -1.123677e+02  -2.855403e+00
  -3.788770e+01  -1.034635e+02
  -4.227064e+01  -1.144733e+02
   6.644154e+01   5.163052e+00
   1.177506e+01   5.903276e+01
   8.225136e-01  -6.618755e+00
   9.022920e+00   1.730158e+01
  -2.118572e+01  -7.300113e+00
   4.254303e+01   1.519143e+00
   2.776782e+01   8.762735e+00
  -4.759686e+01  -1.962599e+01
  -1.197971e+02   2.012797e+01
  -7.664079e+01  -7.315671e+01
  -2.544236e+01  -1.699002e+01
   6.424626e+01  -5.196976e+01
   1.027704e+02  -1.415920e+01
   2.659271e+01  -9.732364e-01
  -4.717409e+01   2.713776e+01
  -2.749980e+01   5.463202e+00
  -5.258962e+01  -2.743223e+01
   3.819657e+01  -5.637197e+01
   4.749219e+01  -1.734707e+01
   4.824434e+01   3.908017e+01
   2.952770e-02   4.085996e+01
   3.451788e+01   2.527373e+01
   5.372056e+01   6.924864e+00
   5.273993e+01   5.960072e+01
  -2.899965e+01   4.255026e+01
  -8.538860e+01   8.385227e+01
  -1.101551e+02   2.215693e+01
  -9.733341e+01  -4.170327e+01
  -1.240600e+01  -9.987140e+01
   8.260234e+00  -7.833507e+01
   1.989876e+00   3.601974e+01
  -6.590657e+01   5.394937e+01
  -7.444642e+01  -2.035665e+01
  -2.720811e+01  -3.850872e+01
   6.502319e+01  -5.326913e+01
   9.215178e+01  -1.954465e+01
   9.065315e+01   8.467063e-01
   1.036841e+01   4.732766e+01
   1.375962e+01   1.566187e+01
   2.721772e+00   2.206535e+01
   3.024262e+01  -9.784212e+00
   1.550624e+01  -2.223634e+01
   5.024072e+01   5.141758e+01
  -3.346528e+01   8.654663e+01
  -9.912646e+01   4.131787e+01
  -9.629931e+01  -3.509693e+01
   3.559198e+01  -9.794260e+01
   5.879309e+01  -9.199104e+01
   4.925181e+01   9.317563e+00
   1.781650e+01   1.180423e+02
   1.497458e+01   6.981298e+01
  -4.606323e+01  -3.450886e+00
  -9.188094e+00  -1.424748e+01
   1.646495e+01  -2.725342e+01
   4.057362e+01  -2.012934e+01
  -4.032329e+01  -5.436374e+01
  -1.954567e+01  -4.715034e+01
   2.099992e+01  -9.789257e+01
   4.310914e+01   9.436612e+00
   1.037935e+02   3.476507e+01
   7.167941e+01   2.597603e+01
   1.202197e+01   1.268728e+00
  -5.171826e+00   4.324556e+01
  -5.744007e+01   2.578078e+01
  -2.172819e+01  -3.288873e+01
  -5.958792e+00  -6.354588e+00
   1.995920e+01   1.303648e+00
  -4.361181e+01   1.178089e+00
  -2.266011e+01   5.052256e+01
   3.808321e+01   2.364923e+01
   6.394085e+01  -1.145482e+01
  -8.873351e+00   3.358464e+01
  -5.116338e+01   1.462105e+01
  -1.262543e+02   8.393599e+01
  -6.259405e+01  -1.197566e+01
  -1.959769e+01  -1.319475e+02
   4.034815e+00  -7.269983e+01
   9.802488e+01  -4.551401e+01
   7.894744e+01  -1.557986e+01
  -2.394188e+01  -9.941795e+00
   2.397697e+01   3.024963e+01
   5.620092e+00   3.233779e+01
   3.884796e+01   5.656916e+01
   2.427027e+01   5.004275e+01
  -1.942113e+01   5.339869e+01
  -6.708252e+01  -4.477883e+00
  -4.197516e+01  -6.297935e+01
  -2.602833e+01  -3.709890e+01
   3.648197e+01  -2.186861e+01
   7.929910e+01   8.637709e+00
   6.200213e+01   2.598155e+01
  -2.950221e+01  -1.064657e+01
  -3.238131e+01  -2.177417e+01
   3.165593e+01  -2.988358e+01
   2.688598e+01  -6.104602e+00
   5.273450e+01   2.279025e+01
  -2.199830e+01   3.525799e+01
  -5.385972e+01   2.516922e+01
  -4.132253e+01  -3.031438e+01
   1.936697e+01  -5.421840e+01
   8.223101e+01  -2.433397e+01
   3.913452e+01  -4.580950e-01
  -5.171314e+00  -8.236309e+00
  -6.108415e+00   6.656417e+01
   3.134952e+01  -4.994445e+00
  -8.085314e+01  -8.100776e+01
  -7.981327e-01  -3.896535e+01
  -7.306950e+00  -3.345792e+01
  -1.714419e+00   2.210131e+01
  -1.374446e+01   1.941830e+01
  -1.394651e+01   1.115302e+01
  -3.888091e+01   1.166687e+01
  -2.058914e+01   1.769826e+01
   3.978553e+00  -8.791746e+00
   2.231950e+01  -1.684578e+01
   3.143638e+01  -2.252124e+01
  -4.015292e+01  -5.052714e+01
  -1.041681e+01  -3.721232e+01
   2.958106e+01   3.530459e+00
  -2.379599e+01   5.058361e+00
   1.022971e+01   2.640395e+01
  -3.986392e+01  -1.074195e+01
   4.011779e+01  -2.860525e+01
   5.858386e+01   9.739907e+00
   1.379897e+01  -5.581232e-01
   3.724379e+01   7.458352e+00
  -4.657973e+01   4.449356e+01
  -8.166789e+01   2.534484e+01
  -1.034170e+01   4.549028e+01
   5.555209e+00  -2.316707e+01
   2.280511e+01  -1.599172e+00
  -2.397990e+00   7.527562e+00
  -4.349945e+01  -5.527209e+00
