
 $NMID
 id='ANONYMOUS ', fmtdat='(2E16.6)'
 volume=1.0
 tramp=1.0
 $END
  -1.415878e+02  -4.078153e+02
   5.974000e+02   1.982109e+02
   3.435615e+02   4.587826e+02
  -1.694237e+02   3.464840e+02
  -2.081320e+02   9.942651e+01
  -2.337425e+02   1.387037e+02
   5.609694e+01  -1.325866e+02
  -3.806412e+01  -2.991861e+01
  -5.660240e+01   8.451609e+01
  -8.390565e+01  -2.499354e+01
  -4.488570e+01  -1.713415e+02
  -5.920460e+01  -2.053524e+02
   1.815474e+01  -2.066963e+01
   1.050516e+01   1.115352e+02
   1.141794e+01   2.584030e+01
  -7.205328e+01   8.274565e+01
  -1.330695e+02  -1.250442e+02
  -4.253656e+01  -9.977845e+01
   3.317905e+01  -1.275412e+02
   9.077603e+01  -7.002614e+01
   1.221786e+02   1.543431e+01
  -5.217164e+00   1.943772e+01
   1.926501e+01   2.842031e+01
   7.605642e+01   6.909753e-01
   1.107708e+02   8.313187e+01
   6.525344e+01  -4.067359e+00
  -1.129894e+02   1.008571e+02
  -1.810110e+01  -4.564680e+01
  -8.008976e+01  -5.299354e+01
   4.207383e+01   7.693127e+00
   6.225602e+01  -1.091390e+02
  -2.303535e+01   9.635316e+01
  -6.649218e+00   1.269950e+01
   2.807317e+01   5.812412e+01
  -6.848317e+01   2.542250e+01
  -3.580744e+01   6.402451e+00
  -1.293879e+01  -3.766491e+01
  -1.272081e+02   1.633213e+01
  -7.216093e+01  -3.163692e+01
  -2.642374e+01  -6.354765e+01
  -9.046419e+01  -6.143654e+00
  -3.397159e+01  -6.292376e+01
   3.263790e+01  -7.384764e+00
  -2.462857e+01   1.244375e+02
  -3.944776e+01   5.407527e+01
  -9.855175e+01  -5.556000e+01
  -7.322992e+01  -1.690436e+02
   8.689878e+01  -3.151319e+01
   1.585445e+01   1.388852e+02
   6.914425e+01   1.367279e+02
  -8.023351e+01   1.258236e+02
  -7.709176e+01   1.102894e+02
  -4.167741e+01  -1.938543e+01
  -6.402395e+01  -5.002306e+00
   4.621767e+01  -4.839643e+01
   6.719873e+01  -3.965454e+01
   3.263596e+01   1.779149e+01
   2.921652e+01   1.226286e+01
   3.099045e+01  -4.485669e+01
  -2.662358e+01   1.436773e+01
   2.976939e+01   1.346354e+01
  -6.787073e+01   1.014963e+02
  -6.048613e+01   1.001012e+02
  -3.332459e+01  -3.164210e+01
   9.478220e+00  -1.531863e+02
   6.621931e+01  -7.496082e+01
   7.982545e+01  -4.989705e+01
   3.413151e+01  -5.496658e+00
   6.340798e+01   5.040700e+01
  -3.341374e+01   2.702034e+01
   4.434330e+01   3.564410e+01
   5.007233e+01  -1.691094e-01
  -3.476910e+01   5.309396e+01
  -4.260140e+01   5.849702e+01
  -6.605077e+01  -4.389074e+01
  -6.565675e+01   1.765558e+00
   4.979619e+00  -5.272128e+01
   9.721818e+01  -1.151055e+01
   7.238078e+01   2.080487e+01
   2.127891e+01   8.664255e+00
  -2.914802e+01   6.780573e+00
  -8.786423e+01   9.901127e+00
  -2.108936e+01  -7.300015e+00
  -6.802126e+01  -1.387975e+01
   2.468238e+01  -9.504371e+01
   8.438292e+00  -3.678736e+01
   2.113494e+01  -4.244558e+00
   5.440380e+01  -8.595894e+00
   5.927797e+01   4.078442e+01
   1.221011e+02   1.144535e+01
  -6.354230e+00   1.283273e+02
  -2.058985e+01   6.533212e+01
  -8.294894e+00   4.839960e+01
  -8.287891e+01  -3.448985e+01
  -2.031088e+01  -6.569574e+01
   2.595262e+01  -2.060241e+01
  -2.823647e+01  -1.620524e+01
   4.086911e+00  -1.692020e+01
   1.923103e+00  -2.556573e+01
  -3.377779e+01  -2.966779e+01
  -8.956079e+00  -4.701987e+00
  -1.664129e+01  -1.021283e+01
  -2.175474e+01   4.277239e+01
  -5.194383e+01   2.730527e+01
  -5.304271e+01   1.631217e+01
   4.770487e-03  -4.183325e+01
   9.139914e+01  -3.826544e+01
   1.038788e+02   3.115633e+01
   6.461852e+01   3.130547e+01
   1.988686e+01   7.853581e+01
  -5.091934e+01   5.416888e+01
  -1.245302e+01   4.359263e+01
  -1.347816e+01   1.716287e+01
  -7.301627e-01   1.128471e+01
  -2.018641e+01   2.682317e+01
  -9.390773e+00   2.743868e+01
  -5.245383e+01   1.111337e+01
   3.584371e+01  -1.492701e+01
   1.535079e+01  -2.751291e+01
  -1.547307e+01  -1.262573e+01
  -3.899318e+01   2.276076e+01
  -1.006653e+02   3.278073e+01
  -6.522806e+01  -3.182644e+01
  -3.453928e+01  -5.294011e+01
   8.071650e+01  -4.397209e+01
   1.035388e+02  -2.322350e+01
   1.821688e+01   3.624688e+01
  -3.036931e+01   4.550380e+00
  -2.050424e+01   5.623571e+01
   1.511270e+01   8.825172e+00
   1.004821e+02  -8.353157e+00
   7.516478e+01   1.803523e+01
   6.190487e+01   6.031645e+01
  -2.556504e+01   1.491097e+01
   3.648864e+01   1.666625e+00
  -7.361040e-01   4.202423e+00
   1.579389e+01   2.332228e+01
   3.224275e+01   7.116281e+01
  -8.402007e+00   4.562477e+01
  -5.609400e+01   4.035437e+01
  -8.270032e+01  -2.312701e+01
   8.714105e+00  -4.896298e+01
   4.340275e+01  -1.155692e+01
  -1.722541e+01   1.994884e+00
   5.543700e+01   1.277403e+01
  -1.006407e+00   5.940225e+00
  -3.018161e+01   9.928050e+00
  -4.197480e+01   1.133832e+00
   2.238610e+01  -8.203193e+00
  -9.790798e+00   4.542379e+01
  -4.206484e+01  -1.439385e+01
  -3.933504e+01  -1.654961e+01
  -3.929880e+00  -4.338905e+01
  -2.629553e+00  -5.423973e+01
   5.505084e+01  -2.519732e+00
   1.553982e+01  -2.161815e+01
   4.074356e+01  -4.165382e+00
  -3.149648e+01   3.186957e+01
  -3.142750e+01   3.243085e+01
  -4.465598e+01   2.444024e+01
   1.229785e+01  -3.936887e+01
  -4.944911e+01  -1.650656e+01
  -2.935623e+01  -2.403542e+01
  -2.652057e+01   3.156449e+01
  -1.057432e+01  -5.091418e+01
   5.566463e+01  -4.772477e+01
   2.777646e+01  -1.975337e+01
   3.317893e+01   8.761001e+01
  -1.899057e+01   1.840396e+01
  -1.081876e+02   1.122163e+01
  -1.640450e+01  -3.602303e+01
   1.099516e+01  -1.418575e+01
   5.798300e+01  -4.029089e+01
   5.473549e+01   7.164740e+01
   6.423814e+01   2.396074e+01
  -2.053515e+01   2.994055e+01
  -1.121199e+01   4.447856e+00
   1.863797e+01   5.086590e+00
   1.152648e+01   4.187768e+01
   3.644785e+01   1.445915e+01
  -2.781290e+01   1.365060e+01
  -4.958154e-01  -4.720573e+00
   6.625850e+00  -1.210075e+01
   2.786492e+01  -3.085553e+01
   6.477177e+00   2.276637e+01
   5.364780e+01  -4.973286e+00
   1.048489e+01   1.665431e+01
  -6.771431e+01  -7.983097e+00
   2.179595e+01   1.261763e+01
   1.622647e+01  -4.811772e+01
   2.075506e+01  -1.273321e+01
   1.786194e+01   1.381673e+01
  -3.452867e+01   5.776174e+01
   2.897756e+01  -2.181062e+01
   3.432802e+01   3.593694e+00
   2.122020e+01  -3.611940e+01
  -4.983396e-01  -1.933576e+01
  -2.136810e+01   4.669164e+01
  -2.350887e+01   2.575824e+01
  -3.235945e+01   8.786608e+00
  -5.042750e+01   2.339954e+01
  -2.242759e+01  -2.949477e+01
   6.258236e-01  -4.084992e+00
   3.920584e+01   4.572591e+01
  -6.027545e+00   1.077108e+01
  -5.165822e+01   1.010265e+01
   1.000180e+01   3.003958e+00
   8.965802e+00   1.891609e+01
   9.730668e+00   1.954465e+01
  -1.273398e+01  -1.303085e+01
  -4.286896e+01   3.818384e+01
  -2.399904e+01  -1.561095e+01
   2.773291e+01  -2.854762e+01
   1.540348e+01  -1.273143e+01
   4.179230e+01  -1.444126e+01
  -3.749050e+00   2.728425e+01
  -3.108963e+01   1.643732e+01
  -2.028047e+01  -2.746633e+00
   1.383487e+01  -2.273899e+01
   2.346177e+01   3.281585e+01
  -3.391272e+01   8.501183e+01
  -5.402777e+00   6.325494e+00
  -4.133613e+01  -6.646757e+00
  -5.668662e+01  -3.120749e+01
  -4.908539e+00  -2.446091e+01
  -4.414507e+01  -5.980345e+00
   4.271150e+01  -3.490551e+01
   2.495027e+01  -3.887342e+01
   2.634443e+00   1.371687e+01
   1.973157e+01  -1.901795e+01
  -9.269566e+00  -8.111782e+00
  -3.179928e+01   9.442286e+00
   3.544486e+01   4.398488e+01
   3.726009e+01   3.010860e+01
   1.436244e+00   5.952104e+00
  -6.662537e+00   2.936971e+01
   1.892249e+01  -5.505511e+01
  -3.861989e+01  -8.456755e+00
  -5.166894e-01  -4.608753e+01
   1.827300e+01   3.762173e+00
  -2.989510e+01  -3.093054e+01
   2.202416e+00   7.549840e-01
   3.446437e+01   8.940078e+00
   2.993276e+01   1.128481e+01
   3.502293e+01   3.550404e+01
   2.455286e+01   2.117764e-01
  -4.044694e+01  -6.616939e+00
  -5.540773e+01  -1.187240e+01
  -4.394104e+00  -4.271046e+01
   6.978539e+00  -3.749502e+01
   5.773317e+01  -1.682395e+01
  -2.538973e+01   4.282839e+00
  -7.384154e+00   1.192267e+01
  -4.150149e+01   1.736596e+01
  -1.410856e+01  -8.897133e+00
   5.102990e+00  -1.534648e+01
   3.126814e+01  -3.048374e+01
   9.112752e+00   1.179054e+01
  -1.921367e+01  -5.610707e+00
   1.485033e+00  -4.288694e-02
   2.497297e+01  -5.398807e+00
   3.168311e+01  -1.189314e+01
   3.256616e+01  -2.838598e+00
  -2.248380e+01  -1.529907e+00
  -3.688169e+01   5.155696e+01
  -4.016799e+00  -5.548190e+01
  -3.089421e+00   1.227402e+01
   7.039370e+00  -2.115371e+01
   1.104622e+01   3.472475e+00
   2.947638e+01  -6.139296e+00
   2.375245e+01  -1.379917e+01
  -4.120413e+01  -8.779500e+00
   3.385127e+01  -2.293491e+01
   2.276955e+01   2.966147e+01
   1.813087e+01  -1.747943e+01
   3.105214e+01  -3.093773e+01
  -5.780066e+00  -2.383095e+01
  -8.841067e+00  -1.187830e+01
  -1.927725e+01  -1.209481e+01
   3.020315e+01  -2.474774e+01
   3.928017e+01  -2.022035e+00
   1.430377e+01   2.443727e+01
  -8.991199e-02   2.939780e+01
   7.877768e+00   5.212815e+01
   1.111188e+00  -2.213778e+01
   1.223009e+01   1.675792e+01
  -2.415451e+00  -4.414647e+01
  -1.436366e+01   1.784779e+01
   3.248960e+01   2.780902e+01
   4.272909e+01  -5.433616e+00
   1.060264e+01   2.507567e+01
  -1.683255e+00   3.017588e+01
  -3.187650e+00   2.450838e+01
  -1.414186e+01   1.191637e+01
  -1.914200e+01  -7.101497e+00
   2.875342e+00   2.902185e+00
  -4.127119e+00  -1.847267e+00
   8.278773e+00  -5.475907e+00
   1.464459e+01  -2.975522e+01
  -2.144428e+01   2.964898e+01
  -4.009165e+01   2.055078e+00
   2.096002e+01  -5.091395e+00
  -4.186597e+01  -1.600684e+01
   3.885487e+01   4.881477e+01
  -1.003339e+01   3.077255e+01
  -1.874247e+01  -5.639800e+00
  -1.144595e+01  -3.414398e+01
   1.337365e+01  -1.898944e+01
  -2.103099e+01   2.561944e+01
  -1.651619e+01  -1.919765e+01
  -2.326481e+01   3.210611e+01
   4.888366e+00  -3.807532e-01
  -3.780352e+01  -8.038037e-01
   2.276277e+01  -4.187833e+01
   2.161074e+00  -4.585304e+01
   7.567721e+00  -1.492525e+01
   2.225799e+01  -9.500240e+00
   5.195671e+01  -8.546369e-01
  -3.160953e+01  -3.095251e+01
   2.207791e+01  -6.535379e+00
