
 $NMID
 id='ANONYMOUS ', fmtdat='(2E16.6)'
 volume=1.0
 tramp=1.0
 $END
  -2.814341e+03  -7.857082e+02
  -1.848899e+03  -1.600101e+03
   2.045881e+02  -1.175827e+03
   1.198218e+03  -1.122016e+03
   8.748922e+02  -2.268933e+02
   1.789123e+02   4.128589e+01
  -1.564822e+02  -1.046725e+02
   4.231850e+00  -4.049176e+02
   3.628618e+02  -3.353687e+02
   6.320797e+02  -3.748613e+01
   2.454436e+02   3.995165e+02
   3.515487e+01   6.198241e+02
  -3.005374e+02   1.444441e+02
  -1.774950e+02  -2.940431e+02
   5.367482e+01  -4.401033e+02
   3.245032e+02  -1.370165e+01
   1.668737e+02   3.842883e+02
  -7.227645e+01   5.420430e+02
  -3.381969e+02   1.543152e+02
  -3.245296e+02  -1.349693e+02
  -1.172032e+02  -3.338361e+02
   8.808313e+01  -2.004429e+02
   4.983008e+01  -5.570531e+01
  -1.598993e+02  -1.220227e+02
  -2.331262e+02  -2.680849e+02
   1.101058e+02  -3.254520e+02
   4.273208e+02  -1.237366e+02
   4.698309e+02   3.120418e+02
   1.454787e+02   2.515662e+02
  -3.493324e+02   1.299018e+02
  -4.874066e+02  -3.116934e+02
  -1.022369e+02  -3.676002e+02
   2.501737e+02  -3.145813e+02
   4.289847e+02  -1.630324e+00
   2.400147e+02   1.623644e+02
   1.009092e+02   2.555715e+02
  -4.842680e+01   1.083632e+02
   4.471873e+01  -1.010204e+02
   1.498643e+02  -1.019397e+02
   1.975866e+02   2.635388e+02
   3.490194e+00   4.902763e+02
  -1.897847e+02   3.009072e+02
  -2.662784e+02  -5.590739e+01
  -1.251298e+02  -1.773771e+02
   1.306918e+02  -4.042633e+01
   9.414902e+01   2.972354e+02
  -1.776284e+02   2.846320e+02
  -4.253761e+02   3.050399e+01
  -3.539500e+02  -3.558898e+02
  -1.163983e+02  -4.167420e+02
   2.301660e+02  -1.987152e+02
   4.716149e+02   4.561757e+01
   3.090045e+02   2.735450e+02
  -2.777174e+01   1.471061e+02
  -2.623711e+02   1.039282e+02
  -1.651118e+02  -6.207712e+01
  -9.893313e+01   3.252750e+01
   1.792173e+01   2.686033e+01
  -1.016562e+02   7.519565e+01
  -2.130611e+02  -8.912770e+01
  -9.723748e+01  -2.387540e+02
   1.881491e+02  -1.502562e+02
   2.844207e+02  -7.042908e+01
   2.379689e+02   8.641722e+01
  -3.451770e+01   2.743994e+02
  -3.038587e+02   3.094419e+02
  -3.417284e+02   2.033264e+02
  -1.978290e+02  -1.699842e+02
   9.228424e+00  -3.585915e+02
   2.458554e+00  -1.945411e+02
  -1.743747e+01  -1.374795e+02
   2.691388e+01  -1.389809e+02
   1.762977e+02  -8.318724e+01
   2.475571e+02  -5.220246e+01
   1.739647e+02   1.198963e+02
   7.268497e+01   2.861298e+02
  -9.406221e+01   1.282795e+02
  -1.023073e+02  -7.345049e+01
  -1.018614e+02  -2.292507e+02
   5.076233e+01  -1.926946e+02
   2.023513e+02  -1.421676e+01
   2.502402e+02   1.933380e+02
   1.718630e+02   2.290935e+02
  -4.331392e+01   2.135102e+02
  -1.397331e+02   1.054489e+02
  -1.425589e+02   3.690141e+01
  -1.146926e+02   3.797787e+01
  -2.680930e+02  -2.697182e+01
  -4.131792e+02  -7.950096e+01
  -3.110121e+02  -3.041290e+02
  -7.806290e+00  -4.080228e+02
   4.218854e+02  -2.747960e+02
   4.888549e+02  -1.562124e+02
   2.158448e+02   1.273359e+02
   9.432714e+00   1.834484e+02
  -5.461373e+01   1.422935e+02
  -1.978326e+01   5.645670e+01
   7.127477e+01  -3.043189e+01
   1.161578e+02   7.164509e+01
  -2.930993e+01   1.334136e+02
  -1.239435e+02   1.079906e+02
  -7.228905e+01  -6.883291e+01
   2.797183e+01  -1.029694e+02
   1.667509e+02   2.744405e+01
   5.291265e+01   2.145750e+02
   6.808469e+00   3.368096e+02
  -1.986365e+02   1.549838e+02
  -3.423656e+02  -6.146978e+01
  -2.418621e+02  -2.778372e+02
  -3.478841e+01  -1.952332e+02
   1.289998e+02  -1.301445e+02
   1.697696e+02   1.574634e+01
   1.762740e+01   5.527739e+00
  -5.429049e+01  -6.428099e+01
  -2.739836e+01  -1.047445e+02
   1.684808e+02  -5.113304e+01
   1.396311e+02   3.339518e+01
   3.703115e+01   5.923343e+01
  -4.357867e+01  -3.907298e+00
  -6.198900e+01  -7.781292e+01
   1.218014e+02  -5.175077e+01
   2.717559e+02   6.857855e+01
   2.148328e+02   1.940016e+02
  -5.198791e+01   2.629345e+02
  -2.050536e+02   1.625044e+02
  -1.986149e+02   5.296012e+01
  -9.560445e+01  -3.313280e+01
   3.728851e+01  -2.973834e+01
   3.918108e+01   1.245762e+01
  -5.747905e+01   4.779833e+01
  -1.585833e+02   4.122995e+01
  -1.582898e+02  -9.362492e+01
  -2.800819e+01  -1.704721e+02
   2.604710e+01  -8.316639e+01
   9.271957e+01   1.696314e+01
  -1.135083e+00   2.856059e+01
  -5.257290e+01   4.352864e+01
  -2.462873e+01  -1.044156e+02
   1.577776e+02  -6.508761e+01
   1.511113e+02   7.076811e-01
   1.241447e+02   1.175291e+02
   1.750237e+01   1.638920e+02
  -1.318155e+02   1.195095e+02
  -1.251311e+02  -6.258315e+01
   3.281377e+00  -8.948215e+01
   4.039684e+01  -1.060522e+02
   7.179586e+01  -2.595211e+01
   4.107125e+00   2.668037e+01
  -2.165530e+01   3.107199e+01
   2.508887e+01  -1.905140e+01
   8.500599e+01  -1.022831e+01
   7.312456e+01   9.797382e+01
   2.250925e+01   1.329104e+02
  -1.796092e+02   9.733750e+01
  -2.403260e+02  -2.621266e+01
  -1.533125e+02  -1.821001e+02
   1.710427e+01  -2.075805e+02
   1.050609e+02  -1.366083e+02
   1.040199e+02  -3.018262e+01
   8.209202e+01   5.613445e+01
   5.355713e+01   3.400055e+01
   7.380881e+01   1.048787e+01
   7.292174e+01   2.173338e+01
   6.119415e+01   2.889379e+01
  -2.401330e+01   9.492653e+01
  -8.605017e+01   1.056385e+02
  -1.265812e+02  -2.882722e+01
   3.290034e+01  -1.085333e+02
   1.785403e+02  -8.450565e+01
   2.053764e+02   7.364497e+01
   7.647234e+01   1.868266e+02
  -1.250107e+02   2.891860e+02
  -2.738108e+02   6.045061e+01
  -2.694569e+02  -1.179380e+02
  -4.066323e+01  -1.370779e+02
   2.801592e+01  -1.380199e+02
   1.223699e+02  -7.014013e+01
   2.235702e+01  -3.650562e+01
   4.718856e+01  -4.964687e+01
   7.080836e+01  -5.657046e+01
   9.956148e+01   2.929468e+01
   9.698744e+01   1.307072e+02
   4.697029e+00   1.892187e+02
  -1.195129e+02   1.329583e+02
  -1.809511e+02   2.398860e+01
  -1.481543e+02  -1.138038e+02
  -1.859351e+00  -1.302859e+02
   8.112977e+01  -5.569703e+01
   5.061126e+01  -6.103438e+00
   3.370847e-01   3.438324e+01
   4.247718e+00   7.743277e+01
   4.474253e+01  -3.519454e+00
   6.264344e+01   2.876740e+01
   3.188909e+01   7.877924e+01
  -6.838655e+01  -7.937752e+00
  -1.773805e+02  -1.090445e+01
  -8.324227e+01  -8.594268e+01
   6.022461e+00  -6.821419e+01
   7.843204e+01  -8.374218e+01
   1.323102e+02  -1.139164e+00
   4.192059e+01   3.402182e+01
  -3.895088e+01   8.539491e+01
  -9.196146e+01  -5.209202e+01
   7.002897e+00  -8.710376e+01
   6.580467e+01  -6.692811e+01
   4.775753e+01  -2.982118e+01
   5.069430e+01   2.675124e+01
   4.491224e+01   5.120213e+01
   2.502582e+01   2.824391e+01
   6.384198e+01   3.938075e+01
   4.517695e+01   5.071044e+01
   1.372417e+01   1.158075e+02
  -1.631131e+02   1.251009e+02
  -1.308526e+02   3.385845e+01
  -1.260723e+02  -9.910831e+01
   1.980423e+01  -1.009206e+02
   8.588330e+01  -7.129675e+01
   7.821676e+01   2.633342e+01
  -2.706327e+01   2.870522e+01
  -1.302240e+02  -4.220012e+01
  -5.413054e+01  -1.257086e+02
   9.609963e+01  -9.013413e+01
   1.917843e+02  -1.759506e+01
   1.626660e+02   1.613279e+01
   1.916847e+01   1.232103e+02
  -1.331872e+02   7.184047e+01
  -3.379192e+01  -3.307409e+01
   3.715063e+01  -3.372660e+01
   6.460000e+01   1.759680e+01
   6.768474e+00   1.154546e+02
  -7.282731e+01   1.391325e+02
  -1.709254e+02   8.891315e+01
  -5.165215e+01  -7.838437e+01
  -8.570941e+00  -2.023295e+02
   6.932945e+01  -1.133288e+02
   8.638645e+01   2.773539e+01
   5.329831e+01   9.449791e+01
  -3.295038e+01   6.881859e+01
  -6.258225e+01  -5.267442e+00
  -2.626098e+01  -4.478240e+01
   1.522884e+01  -2.213543e+00
  -2.648151e+01   1.026293e+01
  -4.812604e+01   1.963245e+01
  -2.535168e+01  -1.032462e+02
  -1.126158e+01  -7.534118e+01
   8.672375e+01  -1.890953e+01
   1.316300e+02   5.715765e+01
   1.350154e+02   7.860255e+01
   2.836289e+01   5.450527e+01
  -9.903296e+01   1.619640e+01
  -5.733246e+01   3.539919e+01
  -2.016378e+01   3.841258e+01
   3.902083e+01  -2.519790e+01
   3.037585e+01   1.619537e+01
  -4.672595e+01   1.158108e+01
  -1.885398e+01   8.646526e+00
   6.335838e+01  -3.257079e+00
   5.412246e+01   2.100814e+00
   2.520203e+01   8.692263e+01
  -1.119280e+02   1.332731e+02
  -1.543647e+02   3.714081e+01
  -1.597259e+02  -3.371364e+01
  -5.478166e+01  -1.528123e+02
   5.839048e+01  -1.284470e+02
   4.541803e+01  -6.150681e+01
   5.887683e+01  -1.777209e+01
   1.140208e+01   1.409479e+00
   1.038601e+01   3.469857e+01
   4.037846e+01   2.524799e+01
   4.728416e+00   5.394596e+01
   1.642061e+00   6.453092e+01
  -1.750618e+01   8.617601e+01
  -8.776732e+01  -4.237415e+01
  -6.847487e+01  -8.762841e+01
   2.087032e+01  -1.135864e+02
   8.510701e+01   2.708388e+00
   1.009410e+02   1.136800e+02
   3.341221e+01   1.614503e+02
  -3.964183e+01   3.354741e+01
  -8.650346e+01  -2.557392e+01
  -8.040385e+00  -1.371408e+01
   5.332371e+01  -2.784190e+01
   2.950078e+01  -2.406393e+00
  -3.404719e+01   3.763290e+00
  -3.795858e+01  -1.261787e+00
  -1.501948e+01  -3.976699e+01
   6.441459e+01  -3.215258e+01
   1.748872e+02  -4.893276e+01
   6.489944e+01  -8.853192e+00
  -2.086529e+01   9.237049e+01
  -6.725877e+01   6.661926e+01
  -1.015771e+01  -5.150968e+00
  -3.171655e+00  -8.596305e+01
   7.470396e+01  -7.703928e+01
   5.622133e+01  -1.008181e+01
   2.556987e+01   4.597933e+01
   2.162586e+01   6.474124e+01
  -1.356064e+01  -2.315666e-01
  -3.838207e+01  -1.669600e+01
  -3.095890e+01  -2.825275e+01
   7.477417e+00   3.014716e+01
   2.272735e+01  -2.145574e+01
  -1.886177e+01  -1.145437e+01
  -3.087063e+01  -5.428658e+01
  -9.508266e+00  -1.562815e+01
   4.884626e+01   4.402988e+01
   5.688052e+01   2.999105e+01
  -1.831293e+01   5.810834e+01
  -8.394430e+01  -1.859390e+01
  -4.889250e+01  -4.744427e+01
   2.718046e+01  -3.189201e+01
   3.122663e+01   4.402036e+00
   9.086020e+01   1.341351e+01
   9.857616e+00   8.327521e+01
  -5.431629e+01   6.659908e+01
  -8.836460e+00   2.268656e+01
   1.495955e+01  -2.808727e+01
   4.403542e+01  -3.547482e+01
  -1.301666e+00   3.074441e+00
  -6.490554e+01  -1.141767e+01
