
 $NMID
 id='ANONYMOUS ', fmtdat='(2E16.6)'
 volume=1.0
 tramp=1.0
 $END
   3.832403e+03   6.662686e+01
   1.886937e+03   2.801906e+03
  -1.264984e+03   2.069420e+03
  -1.845849e+03   6.307099e+02
  -6.715296e+02  -5.363502e+02
   6.333706e+02  -3.654643e+02
   6.624218e+02   5.377386e+02
   1.504926e+02   8.030922e+02
  -7.315306e+02   6.678846e+02
  -8.731768e+02  -9.490243e+01
  -2.524093e+02  -6.859104e+02
   1.078150e+02  -7.071936e+02
   5.785716e+02  -7.269477e+01
   4.587220e+02   6.184675e+02
  -2.666077e+02   5.196088e+02
  -5.705926e+02   1.040089e+01
  -2.320341e+02  -4.161320e+02
   3.492430e+02  -5.187233e+02
   4.629552e+02  -5.677796e+01
   3.478367e+02   3.114126e+02
  -1.995784e+01   4.028521e+02
  -1.963013e+02   1.834130e+02
  -2.065795e+02   1.333779e+01
   6.136989e+01  -8.410208e+01
   3.058171e+02   1.271266e+01
   4.207344e+01   3.562190e+02
  -3.971879e+02   2.678298e+02
  -7.204688e+02  -2.006964e+01
  -2.713350e+02  -4.853278e+02
   2.957928e+02  -3.667636e+02
   5.498442e+02  -3.998821e+01
   3.493649e+02   4.291865e+02
  -2.638826e+02   4.363440e+02
  -5.471304e+02   1.295018e+02
  -3.394107e+02  -2.454997e+02
   2.988956e+00  -4.462684e+02
   2.505689e+02  -2.424261e+02
   1.708317e+02   1.635234e+02
  -1.919164e+02   4.197934e+02
  -3.172044e+02  -6.289271e+01
  -1.307844e+02  -5.717331e+02
   4.159900e+02  -5.484738e+02
   4.915004e+02   1.068806e+01
   2.759526e+02   5.227942e+02
  -2.468971e+02   2.981573e+02
  -3.590134e+02  -2.961038e+02
   1.299110e+02  -3.801529e+02
   4.644131e+02  -1.595458e+02
   4.486796e+02   2.311471e+02
   1.883520e+02   4.898954e+02
  -3.158656e+02   2.783134e+02
  -5.268441e+02  -1.937297e+02
  -2.699103e+02  -2.757151e+02
   9.675299e+01  -2.550532e+02
   3.246921e+02  -5.842285e+01
   2.024886e+02   1.275935e+02
  -1.497200e+02   5.685672e+01
  -1.335856e+02  -1.048018e+02
   1.757752e+02  -1.492898e+02
   2.413123e+02   7.834240e+01
   9.336349e+01   2.943350e+02
  -1.797927e+02   1.910713e+02
  -2.375566e+02   1.057459e+02
  -1.787005e+02  -6.122895e+01
   8.158229e+00  -1.674747e+02
   1.704602e+02  -2.624115e+02
   2.676611e+02  -1.761753e+02
   2.545203e+02   9.443888e+01
   1.036534e+02   3.662583e+02
  -1.156594e+02   2.964698e+02
  -8.549551e+01   7.753559e+01
   8.922013e+00   4.659117e+00
  -5.241635e+01   1.449689e+01
  -1.638383e+02   1.708349e+02
  -1.960735e+02   1.727926e+01
  -1.721992e+02  -2.281351e+02
   2.758786e+01  -1.940014e+02
   1.814382e+02   2.545564e+00
   1.216113e+02   1.909583e+02
  -9.517770e+00   2.312518e+02
  -2.461122e+02   7.277262e+01
  -3.350675e+02  -1.681996e+02
  -1.693181e+02  -3.220620e+02
   7.964594e+01  -2.561138e+02
   1.562373e+02  -6.917603e+01
   1.367315e+02  -2.227808e+01
   6.734791e+01  -2.354479e+01
   2.162371e+02  -1.853108e+01
   3.094823e+02   6.725143e+01
   2.079444e+02   2.686770e+02
  -3.189272e+01   4.291262e+02
  -3.263304e+02   3.962857e+02
  -3.844945e+02   1.772085e+02
  -3.029504e+02  -7.394884e+01
  -5.201500e+01  -2.622084e+02
   1.462919e+02  -1.958474e+02
   1.091897e+02  -2.300946e+01
  -8.753482e+01   7.876408e+01
  -1.377848e+02  -6.511329e+00
  -1.511248e+01  -1.832084e+02
   1.756289e+02  -1.204312e+02
   1.702513e+02   6.063034e+01
  -5.551319e+01   1.150451e+02
  -1.624099e+02   6.020646e+01
  -1.696608e+02  -2.041621e+02
   7.289144e+01  -2.834348e+02
   2.287063e+02  -1.231987e+02
   2.633416e+02   7.161650e+01
   2.208532e+02   1.384466e+02
   9.734160e+01   2.354356e+02
  -9.701873e+01   1.163541e+02
  -1.527563e+02   4.287215e+01
  -2.468723e+01  -5.814518e+01
   4.864502e+01   4.743787e+00
   2.417442e+01   1.256430e+02
  -1.403519e+02   9.832455e+01
  -1.582038e+02  -1.969622e+01
  -6.510190e+01  -3.960040e+01
   4.032890e+01  -2.972386e+01
   3.352498e+01   5.909108e+01
  -6.285712e+01   8.346169e+01
  -1.910200e+02   3.932576e+01
  -2.029242e+02  -1.172315e+02
  -4.832892e+01  -1.895119e+02
   1.426250e+02  -2.545202e+02
   2.576389e+02  -9.763613e+01
   1.617829e+02  -9.059964e+00
   2.890625e+01   6.693627e+01
  -8.278893e+01   1.562916e+01
   5.132027e+01  -5.983953e+01
   1.476599e+02  -7.088645e+01
   2.044706e+02   1.009840e+02
   7.896408e+01   2.317920e+02
  -9.284424e+01   1.183411e+02
  -1.289504e+02  -1.811506e+01
  -3.469051e+01  -9.580033e+01
   3.684404e+01   7.374181e+00
   1.292160e+01   8.496580e+01
  -4.134385e+01   1.381505e+02
  -2.001026e+02   3.964300e+01
  -1.493430e+02  -9.049425e+01
  -6.912716e+01  -2.082535e+02
   1.159668e+02  -1.619907e+02
   1.735555e+02  -4.216044e+01
   7.155046e+01   1.134842e+02
  -3.635455e+01   1.198489e+02
  -3.758118e+01   3.607529e+01
  -2.906701e+01  -3.199204e+01
   5.165498e+01  -3.639912e+01
  -1.198875e+01   3.334601e+01
  -4.738435e+01  -9.091672e+00
  -6.842735e+01  -8.983935e+01
  -2.793413e+01  -9.988076e+01
   1.171368e+02  -1.390574e+02
   1.779603e+02  -2.512753e+01
   1.413050e+02   9.877775e+01
   4.350280e+01   2.117962e+02
  -7.459835e+01   1.375065e+02
  -1.173775e+02   9.243897e+00
  -5.699291e+01  -5.933108e+01
  -4.355558e+01  -4.226121e+01
  -5.780224e+01  -1.100809e+01
  -6.043586e+01   1.933903e+01
  -3.696125e+01  -6.326887e+01
   2.326577e+01  -7.304374e+01
   8.173322e+01  -9.436702e-01
   3.831789e+01   2.568811e+01
  -5.372023e+01   7.693566e+01
  -1.361927e+02   6.800297e+01
  -1.780443e+02  -2.648448e+00
  -5.414231e+01  -1.774259e+02
   4.802744e+01  -2.001235e+02
   2.040573e+02  -7.031928e+01
   2.210849e+02   8.000959e+01
   6.923626e+01   1.688132e+02
   2.728776e+00   1.064651e+02
  -1.119848e+02   8.964411e+01
  -1.029486e+02   8.550541e+00
  -3.728216e+01   1.065540e+02
  -6.218798e+01   3.993470e+01
  -1.002849e+02  -5.165327e+00
  -1.414409e+02  -1.202847e+02
  -5.238611e+01  -1.504609e+02
   7.250753e+01  -1.366322e+02
   1.434445e+02  -2.002470e+01
   1.185628e+02   1.102738e+02
   1.593291e+01   1.144143e+02
  -4.976529e+01   8.163280e+01
  -6.988419e+01   1.165923e+01
   4.221758e+01  -1.300248e+01
   1.664509e+01  -5.766586e+01
  -2.907192e+01  -4.121279e+01
  -7.756287e+01  -2.415037e+01
  -3.911527e+01  -8.237413e+01
   4.711175e+01  -3.270034e+01
   1.136995e+02   1.648755e+01
   1.216626e+02   3.195120e+01
   1.703789e+00   6.471028e+01
  -1.498363e+02   2.682629e+01
  -1.243019e+02   1.846988e+01
  -6.294859e+01  -7.319794e+01
   1.055791e+01  -4.027184e+01
   7.326613e+01   1.638758e+01
  -2.080593e+00   1.729647e+01
  -1.174522e+02   3.193591e+01
  -5.942609e+01  -7.570219e+00
  -4.229990e+01  -7.252185e+01
  -8.272040e+01  -4.070823e+01
  -1.945406e+01  -2.384566e+00
  -4.231882e+01  -1.797597e+01
  -1.789810e+01  -8.427138e+01
   6.628376e+00  -1.149083e+02
   8.991586e+01  -1.152905e+02
   1.374219e+02   1.537510e+01
   1.122235e+02   7.514571e+01
  -2.484476e+01   1.063227e+02
  -8.384713e+01   5.325192e+01
  -4.546629e+01   1.724673e+01
   1.371674e+01  -2.618204e+01
   9.704191e+01   1.923493e+01
   8.452689e+01   1.169762e+02
  -7.236014e+01   1.064340e+02
  -1.212963e+02   5.549887e+01
  -1.176189e+02  -2.399049e+01
  -5.875796e+01  -4.698069e+01
   8.442098e+01  -7.316026e+01
   3.192552e+01  -2.000512e+01
  -4.537754e+01   2.626118e+01
  -1.832875e+01  -3.823810e+01
  -1.009187e+01  -6.936875e+01
   7.044616e+01  -1.438454e+02
   1.600481e+02  -4.561426e+01
   5.451822e+01   4.980504e+01
  -3.494856e+01   1.510987e+02
  -1.306628e+02   4.837375e+01
  -7.918447e+01  -1.133159e+01
  -2.973929e+01  -9.922213e+01
   2.301058e+01  -8.502966e+01
   3.209260e+01   9.849714e+00
   5.136625e+01   2.720561e+01
   5.341879e+01   4.646098e+00
  -3.424884e+00  -1.000040e+01
  -1.422012e+01   8.099440e+00
   3.396509e+01   1.128541e+02
   1.885409e+01   6.439834e+01
  -1.598942e+01   3.403524e+01
  -1.492412e+02  -7.560835e+01
  -1.018320e+02  -2.095318e+01
  -5.481918e+01  -1.671275e+01
   4.512965e+01  -4.188158e+01
   5.528693e+01  -3.155573e+00
  -5.005119e+00  -3.958630e+01
  -1.995919e+01   1.237041e+01
  -2.913733e+01  -3.574895e+01
   3.128298e+01  -3.940193e+00
  -2.649205e+01  -1.884645e+01
  -4.303978e+01  -1.176161e+01
  -5.821680e+01  -6.059144e+01
   2.380740e+01  -6.638738e+01
   1.435939e+02  -1.016549e+02
   1.574589e+02   4.088553e+00
   8.941706e+01   5.647347e+01
   4.362837e+00   1.149617e+02
  -3.520646e+01   1.087887e+02
  -6.795419e+01   1.191354e+01
  -7.962119e+01  -6.238562e+00
  -1.951818e+01  -2.491504e+01
   2.858957e+00  -4.334987e+01
  -4.441624e+01  -3.839393e+01
  -2.229054e+01  -5.740765e+01
   7.319856e+00  -7.070609e+01
   4.052152e+01  -7.020347e+01
   6.939633e+01   1.212647e+01
   6.042510e+01   1.247294e+02
  -3.682072e+00   1.104140e+02
  -1.171367e+02  -4.101908e+01
  -7.628191e+01  -5.598601e+01
  -3.873946e+01  -1.070175e+02
   7.432434e+01  -2.562472e+01
   7.967007e+01   2.108782e+01
   5.527244e+00   4.537954e+01
  -5.815398e+01   4.546555e+01
  -8.215996e+00   2.084798e+01
   7.558632e+01   8.837337e+00
   5.501277e+01  -1.487814e+01
   1.529932e+01   5.913271e+01
  -1.168564e+02   5.927669e+01
  -1.117550e+02   3.800262e+01
  -1.777865e-01   2.371853e+01
   7.403879e-01  -6.449636e+01
   1.373575e+01  -6.095020e+01
   4.256085e+01   5.995572e+00
   4.777552e+00   5.855463e+01
  -4.226829e+01   5.983890e+01
  -7.956286e+00  -2.174410e+01
  -5.030663e+01  -5.819010e+01
   2.238321e+01  -2.491307e+01
   9.531988e+00   1.562481e+01
   1.318121e+01   1.981912e+01
   2.900904e+01  -7.936755e+00
  -1.323382e+01   3.428508e+01
  -2.121596e+01  -4.207866e+01
  -4.941065e+00   2.038408e+01
  -3.887802e+01   3.792276e+01
  -5.418725e+01   2.106254e+01
  -7.589191e+01  -4.571723e+01
  -5.197897e+01  -7.549388e+01
   3.464855e+01  -9.696241e+00
   8.913403e+01   4.794445e+01
   2.826736e+01   2.092181e+01
  -4.091292e+01   3.685346e+01
  -6.790400e+01  -3.006562e+01
  -2.064776e+01  -3.220997e+01
   3.726354e+01  -1.574226e+01
   4.959922e+01  -3.445404e+01
  -5.122640e+00  -3.495387e+01
  -3.561358e+00  -3.358493e+01
   9.530545e+00   1.014508e+01
   6.565063e+00  -3.599254e+00
   3.725489e+01  -4.206615e+01
