
 $NMID
 id='ANONYMOUS ', fmtdat='(2E16.6)'
 volume=1.0
 tramp=1.0
 $END
   3.140645e+03  -4.134183e+01
   2.303662e+03   1.417975e+03
   3.134045e+02   1.626036e+03
  -1.274684e+03   1.062734e+03
  -9.034447e+02   3.975368e+01
   4.637168e+01  -1.977128e+02
   5.356835e+02  -2.587507e+01
   3.376776e+00   6.050883e+02
  -4.407277e+02   5.946946e+02
  -5.977728e+02   5.743031e+01
  -5.287182e+02  -4.957978e+02
   1.457898e+01  -6.858308e+02
   3.125401e+02  -1.977947e+02
   2.913312e+02   4.507999e+02
  -9.912427e+01   5.338673e+02
  -4.249114e+02   1.033605e+02
  -3.026730e+02  -4.229083e+02
  -1.015241e+00  -5.652954e+02
   3.720312e+02  -2.591669e+02
   3.664702e+02   1.547954e+02
   1.508909e+02   3.295426e+02
  -1.867080e+02   2.597883e+02
  -8.071922e+01   2.621949e+01
   1.652799e+02   7.270366e+01
   3.555883e+02   2.738261e+02
   7.533519e+01   2.903193e+02
  -3.521604e+02   2.029467e+02
  -5.791841e+02  -1.427026e+02
  -2.403532e+02  -3.532781e+02
   3.235596e+02  -2.733145e+02
   4.226742e+02  -2.632315e+01
   2.173214e+02   2.542067e+02
  -1.878078e+02   3.002863e+02
  -4.233247e+02   1.038405e+02
  -3.671997e+02  -7.224074e+01
  -5.550567e+01  -3.129657e+02
   1.098540e+01  -1.863175e+02
  -2.822003e+01   2.771235e+01
  -1.279232e+02   2.101615e+02
  -2.287585e+02  -9.482293e+01
   4.985421e+01  -4.096999e+02
   1.990381e+02  -4.294430e+02
   3.704885e+02  -6.710579e+01
   1.603011e+02   3.134449e+02
  -1.717183e+02   9.668474e+01
  -1.204478e+02  -2.032317e+02
   6.256153e+01  -2.868430e+02
   3.992821e+02  -4.924313e+01
   4.337744e+02   3.101820e+02
   2.165633e+02   4.732925e+02
  -2.347418e+02   2.409541e+02
  -4.277100e+02  -5.119136e+01
  -3.378973e+02  -2.580513e+02
   4.952018e+01  -2.508579e+02
   2.728162e+02  -1.030819e+02
   1.951180e+02   6.358101e+01
  -1.940171e+01   9.143913e+01
  -5.367554e+01  -5.235440e+01
   1.087030e+02  -1.084869e+02
   1.672318e+02   1.594080e-01
   8.551919e+01   1.970294e+02
  -9.458994e+01   1.818927e+02
  -2.454221e+02   1.232319e+02
  -2.444065e+02  -4.044092e+01
  -1.173606e+01  -2.279197e+02
   2.885494e+02  -3.239058e+02
   3.335773e+02  -1.509022e+02
   2.406010e+02   1.268165e+02
  -3.048115e+00   3.283869e+02
  -1.151803e+01   2.408009e+02
  -4.058092e+01   1.565756e+02
   5.778513e+00   8.782730e+01
  -1.140034e+02   1.145968e+02
  -2.110249e+02   9.497260e+01
  -2.822223e+02  -6.605735e+01
  -1.228220e+02  -2.142592e+02
   7.654575e+01  -2.358496e+02
   1.600312e+02   1.366745e+01
   6.213544e+01   1.994558e+02
  -1.988472e+01   1.946754e+02
  -2.070108e+02   8.589828e+01
  -2.255397e+02  -1.164853e+02
  -1.559683e+02  -2.879039e+02
   4.492993e+01  -2.622599e+02
   1.629955e+02  -1.614010e+02
   1.130027e+02  -4.356407e+01
   1.322126e+02  -6.955927e+01
   2.153383e+02  -2.793275e+00
   3.846479e+02   1.270275e+02
   2.729890e+02   2.556780e+02
   3.203100e+01   3.632716e+02
  -2.719214e+02   2.592299e+02
  -4.330550e+02   1.111382e+02
  -2.840355e+02  -1.079118e+02
   1.008297e+01  -2.348251e+02
   6.278982e+01  -2.546742e+02
   9.954247e+00  -2.433992e+01
  -7.310127e+01   8.254548e+01
  -1.108748e+02   1.641633e+01
   2.539808e+01  -1.379683e+02
   9.534310e+01  -1.205811e+02
   8.914657e+01   7.048968e+01
   5.471649e+00   8.553984e+01
  -1.222245e+02   3.606963e+01
  -1.437662e+02  -1.827190e+02
  -1.509929e+01  -2.558887e+02
   2.412475e+02  -2.136786e+02
   3.460036e+02  -1.460373e+01
   2.492727e+02   2.498810e+02
   9.187235e+01   2.908658e+02
  -1.271516e+02   1.221268e+02
  -1.576701e+02   3.052567e+01
  -2.819703e+01  -1.249722e+01
   6.682333e+01   4.872103e+01
  -8.645967e+00   1.085777e+02
  -1.543716e+02   8.839084e+01
  -1.527780e+02   6.188648e+00
  -2.997919e+01  -6.949286e+01
   7.629294e+01  -3.943265e-02
   8.284381e+01   2.013944e+01
  -1.442021e+02   1.134370e+02
  -2.578137e+02  -1.065629e+01
  -2.615167e+02  -1.321809e+02
  -2.449896e+01  -2.160651e+02
   2.077720e+02  -2.466985e+02
   2.587724e+02  -1.065499e+02
   1.654837e+02   5.452974e+00
  -7.085132e+01   7.431997e+01
  -2.765783e+01  -3.100938e+01
   3.353886e+01  -4.733156e+01
   1.721082e+02  -9.843223e+01
   1.510143e+02   9.547257e+01
   4.156682e+01   1.159548e+02
  -8.827723e+01   1.159692e+02
  -8.248259e+01  -9.869516e+00
   2.174504e+01  -1.332479e+01
  -6.013512e+00   1.983487e+01
   5.874022e+01   8.057197e+01
  -9.061701e+01   1.224358e+02
  -1.737091e+02  -7.613201e+00
  -2.322177e+02  -1.549629e+02
  -4.948492e+01  -2.001925e+02
   1.320561e+02  -1.687588e+02
   1.738185e+02  -3.968576e+01
   5.194293e+01   1.012902e+02
  -5.006352e+01   1.010247e+02
  -1.125850e+02   4.927883e+01
  -4.425066e+01  -1.477758e+01
   4.534910e+01  -4.059546e+01
   2.134065e+00   3.101333e+01
  -9.387194e+01  -2.205896e+01
  -9.220840e+01  -2.826013e+01
  -2.285775e+01  -1.573127e+02
   1.173908e+02  -1.347337e+02
   1.493816e+02  -1.498045e+01
   2.092033e+02   1.238419e+02
   3.596415e+01   1.780006e+02
  -6.806987e+01   1.612986e+02
  -1.412997e+02   3.646517e+01
  -5.111833e+01  -2.314498e+01
  -9.007725e+00  -1.679992e+01
  -3.441851e+00  -7.975482e+00
  -4.718637e+01   3.321208e+01
  -4.396668e+01  -3.644062e+01
   2.281124e+01  -9.387647e+01
   1.015054e+02  -5.845603e+01
   6.146806e+01   5.970916e+01
  -1.445329e+01   9.626141e+01
  -1.470784e+02   6.901578e+01
  -2.172108e+02  -6.725851e+01
  -7.344466e+01  -1.553877e+02
   1.023865e+02  -1.549304e+02
   2.416932e+02  -8.432254e+01
   2.411036e+02   4.203099e+01
   7.312946e+01   1.621158e+02
   2.440405e+00   1.444034e+02
  -5.599400e+01   8.903418e+01
  -6.262186e+01   4.384405e+01
  -5.687324e+01   9.991958e+01
  -1.105264e+02   8.562070e+01
  -1.084217e+02  -4.074145e+01
  -1.475935e+02  -1.280859e+02
  -6.443226e+01  -2.107460e+02
   1.042684e+02  -1.528165e+02
   1.501554e+02  -3.853025e+01
   1.408197e+02   8.297809e+01
   5.174841e+01   1.330048e+02
  -5.617974e+01   5.275783e+01
  -2.018872e+01   1.376845e+01
  -1.060487e+01  -2.650734e+01
   1.311752e+01  -7.215123e+01
  -4.686746e+01  -1.713698e+01
  -9.215060e+01   4.541199e-01
  -5.779724e+01  -8.993517e+00
   4.579278e+01  -1.396627e+00
   1.630631e+02  -3.397435e+01
   7.984040e+01   2.363778e+01
  -9.013459e-01   8.246087e+01
  -1.396395e+02   8.540503e+01
  -1.397135e+02  -1.825720e+01
  -4.361205e+01  -6.385150e+01
   3.647301e+01  -5.496987e+01
   1.142425e+01   6.366104e+01
   1.213709e+01   7.421452e+01
  -5.182454e+01   7.771613e+01
  -7.555999e+01   9.517834e+00
  -3.423139e+01  -7.386186e+01
  -3.697776e+01  -4.689151e+01
  -3.987410e+01  -5.627027e+00
  -6.199876e+01  -2.637383e+01
  -2.648149e+01  -4.350789e+01
   1.081782e+01  -1.451946e+02
   1.188962e+02  -1.964524e+02
   1.208727e+02  -2.627224e+01
   1.379249e+02   5.194448e+01
  -2.562041e+01   1.398849e+02
  -1.075823e+02   5.967788e+01
  -1.575480e+01  -5.996729e+01
   4.554797e+01  -2.856040e+01
   1.079717e+02   2.528359e+01
   9.819018e+01   9.918321e+01
  -8.672938e+01   3.178597e+01
  -9.634816e+01   8.205731e+01
  -1.373871e+02  -1.547967e+01
  -1.490782e+01  -7.274349e+01
   5.294141e+01  -7.641530e+01
   7.202329e+01  -2.269703e+01
  -3.195842e+01   1.972886e+01
  -9.951325e+01  -9.722890e+00
  -7.942585e+01  -1.075993e+02
   3.475545e+01  -1.372715e+02
   1.789222e+02  -5.591466e+01
   1.335897e+02   5.835405e+01
   4.747970e+01   1.450518e+02
  -9.187211e+01   1.478230e+02
  -8.399964e+01  -2.336800e+01
  -3.693893e+01  -8.304111e+01
   1.949212e+01  -9.834799e+01
   5.907981e+01  -2.117418e+01
   3.890877e+01   2.776845e+01
   2.237158e+01   8.590270e+00
  -2.710405e+01   2.788790e+00
   3.955639e+01   5.672592e+00
   5.877645e+01   1.293978e+02
   2.155657e+01   8.279305e+01
  -2.860296e+01   4.580111e+01
  -1.484277e+02  -5.540004e+01
  -9.272085e+01  -4.480074e+01
  -4.927442e+00  -4.417754e+01
   6.993026e+01  -6.386466e+00
   8.977426e+01  -4.664377e+00
  -2.070517e+00   2.643511e+01
  -3.313696e+01  -2.193541e+01
  -2.254458e+01   8.983655e+00
   7.376358e+00   2.119476e+01
  -2.620430e+01   1.780251e+01
  -3.753753e+01  -3.367484e+01
  -7.101334e+01   3.530106e+01
  -2.809983e+01  -8.375025e+01
   7.389478e+01  -6.380293e+01
   1.683374e+02  -5.481044e+01
   1.775233e+02   5.462865e+01
   1.821708e+01   8.765688e+01
  -8.552256e+01   1.128885e+02
  -1.002976e+02   9.736214e+01
  -8.433173e+01  -2.743065e+01
  -2.534132e+01   1.817019e+01
  -2.471594e+01   6.508202e+00
  -1.988247e+01  -3.302023e+01
  -2.442705e+01  -1.429034e+01
  -4.436317e+01  -4.347170e+01
   2.799529e+01  -2.942223e+01
   7.363661e+01  -4.009179e+01
   8.585900e+01   4.813684e+01
   9.870828e+00   1.277922e+02
  -3.492356e+01   7.284746e+01
  -1.402654e+02  -3.954675e+01
  -4.249274e+01  -8.131744e+01
   8.741716e+01  -4.566556e+01
   8.384589e+01  -2.827550e+00
   4.912012e+01   3.347630e+01
  -3.036154e+01   9.444340e+01
  -2.708258e+01   2.646510e+01
   1.863972e+01   1.471020e+01
   4.145836e+01  -2.513023e+01
   4.480688e+01   4.217905e+01
  -1.016336e+02   9.947018e+01
  -8.729270e+01   4.759107e+01
  -5.749652e+01  -3.974321e+01
   1.057047e+00  -1.000803e+02
   5.435301e+01  -3.021934e+01
   3.939042e+01  -1.834463e+01
   3.211020e+01   1.939806e+01
   1.126590e+01   1.691953e+01
  -5.761509e+00  -1.263962e+01
  -7.360254e+00  -5.678685e+01
   2.067459e+01  -1.878695e+01
  -7.698060e+00   1.118635e+01
   1.733176e+01  -2.051933e+01
   2.401673e+01  -2.032079e+01
   1.534194e+01  -4.658278e+01
  -3.477718e+01  -4.862690e+00
  -2.454479e+01   3.734631e+01
   3.930918e+01   4.058479e+01
  -4.881452e+01  -1.400571e+01
  -9.393286e+00  -3.689334e+01
   1.058435e+01  -1.149809e+02
   6.885160e+01   6.509737e+01
   6.549430e+01   4.552583e+01
   8.896137e+00   3.434251e+00
  -1.849632e+01   4.095484e+01
  -6.131637e+01  -1.874870e+01
  -5.290815e+01  -5.198803e+01
   8.640705e+01   6.226295e+00
   3.305928e+01  -2.837767e+01
   6.284369e+01   3.482797e+01
  -3.789569e+01  -3.144195e+00
  -7.410753e+01  -1.311120e+01
   3.025693e+01  -3.023245e+01
   8.395174e+01  -7.555083e+00
