
 $NMID
 id='ANONYMOUS ', fmtdat='(2E16.6)'
 volume=1.0
 tramp=1.0
 $END
   2.556336e+03  -1.828278e+02
   1.764585e+03   1.668914e+03
   1.124878e+01   1.470666e+03
  -9.952514e+02   1.100719e+03
  -7.738323e+02  -1.208913e+01
  -2.093983e+01  -2.406372e+02
   3.622150e+02   2.362402e+02
   4.195615e+01   4.550457e+02
  -3.896943e+02   4.950606e+02
  -6.701716e+02   3.434807e+01
  -3.444236e+02  -5.478264e+02
   5.971007e+01  -6.306479e+02
   3.369704e+02  -9.012433e+01
   1.998756e+02   4.824376e+02
  -6.207906e+01   4.868968e+02
  -3.448824e+02   1.707203e+01
  -2.580738e+02  -3.848338e+02
   2.549244e+02  -5.881716e+02
   4.055884e+02  -1.888602e+02
   3.883711e+02   1.170291e+02
   1.296281e+02   4.072220e+02
  -1.061232e+02   1.840129e+02
  -8.375250e+01   9.283518e+01
   1.323607e+02   9.962597e+01
   2.019116e+02   2.865006e+02
  -2.398689e+01   3.017090e+02
  -3.712318e+02   1.974172e+02
  -4.739848e+02  -6.439107e+01
  -1.797458e+02  -3.522264e+02
   3.289072e+02  -2.154691e+02
   4.909595e+02   8.066460e+01
   2.446350e+02   3.204692e+02
  -1.429801e+02   3.035977e+02
  -3.025737e+02   1.033951e+02
  -2.755772e+02  -1.512904e+02
  -1.117293e+02  -2.935107e+02
   3.135720e+01  -1.448638e+02
   2.908960e+01   9.711953e+01
  -1.622646e+02   1.682547e+02
  -2.716158e+02  -9.873501e+01
  -6.374796e+01  -3.918696e+02
   3.181722e+02  -3.893597e+02
   3.171106e+02   2.411253e+01
   1.118686e+02   1.982729e+02
  -1.307513e+02   7.660862e+01
  -1.988854e+02  -2.610320e+02
   7.883120e+01  -3.421094e+02
   3.046394e+02  -7.300063e+01
   4.010236e+02   3.389289e+02
   1.612530e+02   3.744224e+02
  -3.043953e+02   2.088455e+02
  -3.366867e+02  -1.470878e+01
  -2.718079e+02  -2.167995e+02
   3.344118e+01  -2.205561e+02
   2.906075e+02  -4.952234e+01
   1.628010e+02   2.679437e+01
   1.631928e+01   2.108331e+01
  -2.028650e+01  -4.265904e+01
   9.954652e+01  -6.364581e+01
   2.000078e+02   9.727194e+00
   9.945056e+01   1.514995e+02
  -9.014419e+01   2.199579e+02
  -2.644444e+02   8.564864e+01
  -2.693341e+02  -7.111807e+01
   3.484480e+01  -2.519378e+02
   1.976495e+02  -2.958517e+02
   2.903456e+02  -9.164200e+01
   1.324887e+02   1.240326e+02
   7.005249e+01   3.482059e+02
  -7.670215e+01   2.747345e+02
  -6.391302e+01   1.462266e+02
  -3.155973e+01   8.811002e+01
  -1.035248e+02   8.878957e+01
  -2.346177e+02   3.610250e+01
  -1.938430e+02  -8.427643e+01
  -6.117924e+01  -2.635149e+02
   4.882340e+01  -1.658444e+02
   1.905559e+02   5.741042e+01
   1.495356e+02   1.721744e+02
  -1.470802e+01   2.338594e+02
  -2.120680e+02   2.041591e+01
  -2.387744e+02  -9.594907e+01
  -1.255941e+02  -2.590636e+02
   8.994551e+00  -2.295257e+02
   1.824225e+02  -1.095121e+02
   1.126907e+02   1.944117e+00
   1.616045e+02  -7.081295e+01
   1.867241e+02  -5.855402e+01
   3.929204e+02   7.458478e+01
   2.483996e+02   2.234245e+02
   1.491227e+01   4.045425e+02
  -2.731009e+02   3.025152e+02
  -2.952508e+02   1.349955e+02
  -1.996377e+02  -1.432524e+02
   8.203732e+00  -1.940576e+02
   1.273838e+02  -2.207020e+02
  -2.102008e+01   1.305947e+01
  -1.412495e+02   8.815393e-01
  -1.021523e+02  -3.839492e+01
   3.751583e+01  -1.552999e+02
   6.473035e+01  -8.631308e+01
   9.943349e+01   7.094534e+01
  -3.685078e+01   1.173270e+02
  -1.267737e+02   1.135583e+01
  -1.195488e+02  -1.931012e+02
   8.862489e+00  -2.978264e+02
   2.901639e+02  -1.869463e+02
   3.378102e+02   1.048333e+02
   2.566679e+02   1.879673e+02
   2.846287e+00   2.052476e+02
  -8.948400e+01   9.113256e+01
  -9.810431e+01   1.314839e+01
  -6.914262e+01  -2.041014e+01
   8.360214e+00   4.151691e+01
  -2.638094e+01   1.138434e+02
  -1.137802e+02   9.668960e+01
  -1.213110e+02   3.051644e-01
  -7.105067e+01  -6.384302e+01
   7.561226e+01  -1.810763e+01
   2.966840e+01   6.717832e+01
  -1.328513e+02   6.863301e+01
  -2.392032e+02   7.704662e+00
  -1.998637e+02  -1.591495e+02
  -5.151350e+00  -2.030163e+02
   2.170141e+02  -2.179488e+02
   2.655896e+02  -1.236499e+02
   1.081637e+02   7.324940e+01
   7.316796e+00   8.671642e+01
  -6.065571e+01   1.925498e+01
   2.784933e+01  -7.093499e+01
   2.138721e+02  -1.823776e+01
   1.622667e+02   1.192349e+02
   9.470456e+00   1.455302e+02
  -5.526728e+01   8.199953e+01
  -9.256513e+01  -1.093436e+01
   1.847225e+01  -6.704483e+01
   2.355092e+01   3.570257e+01
   6.355047e+01   1.226381e+02
  -1.022065e+02   7.350072e+01
  -1.833282e+02   1.323699e+01
  -1.354338e+02  -1.199303e+02
   2.767341e+00  -1.963069e+02
   1.155689e+02  -9.779432e+01
   1.265603e+02   2.287726e+01
   5.675066e+01   1.011082e+02
  -5.072417e+01   8.633670e+01
  -3.382580e+01   2.991380e+01
   2.591078e-02  -1.829612e+01
   6.127554e+01  -3.241341e+01
   1.673373e+01   1.183766e+01
  -4.888505e+01  -2.158335e+01
  -1.257220e+02  -9.774770e+01
  -1.937234e+01  -1.359225e+02
   1.409157e+02  -1.050811e+02
   2.281173e+02  -3.654615e+01
   1.390202e+02   1.075553e+02
   8.444855e+00   1.733729e+02
  -1.161168e+02   1.617915e+02
  -1.188792e+02   9.968307e+00
  -6.974171e+01  -1.235382e+01
  -5.251252e+01   5.195655e+00
  -8.034402e+01   2.118298e+01
  -7.251476e+01   4.697480e+01
  -2.057044e+01  -6.357796e+01
   6.573345e+01  -1.122534e+02
   8.382509e+01  -4.672569e+01
   6.195740e+01   3.758365e+01
  -6.291554e+01   6.809977e+01
  -1.731380e+02   9.129774e+01
  -1.806618e+02  -8.930062e+01
  -1.206649e+02  -1.594850e+02
   1.043686e+02  -2.069890e+02
   2.556462e+02  -5.041021e+01
   1.984281e+02   9.208702e+01
   3.814275e+01   1.895601e+02
  -4.244011e+01   1.366887e+02
  -9.331255e+01   9.777740e+01
  -5.309693e+01   7.119254e+01
  -8.884161e+01   5.220723e+01
  -1.203437e+02   3.065215e+01
  -9.548744e+01  -2.013308e+01
  -1.120136e+02  -1.151738e+02
  -1.450458e+01  -2.021943e+02
   4.981519e+01  -9.518658e+01
   1.214770e+02  -5.523428e-01
   5.038788e+01   1.014584e+02
   5.136450e+00   1.425311e+02
  -5.539144e+01   7.969137e+01
  -4.314877e+01  -9.855656e+00
  -2.952405e+01  -1.973514e+01
   6.666974e+01  -4.426020e+01
  -3.460058e+01   1.480791e+00
  -5.059812e+01  -7.993897e+00
  -3.822366e+01  -1.466694e+01
   5.862612e+01  -5.412467e+01
   1.045562e+02   1.636846e+01
   9.395001e+01   4.974765e+01
  -5.012814e+00   1.014105e+02
  -9.278718e+01   9.055997e+01
  -1.469103e+02  -4.569795e+01
  -4.178736e+01  -2.728007e+01
   4.022634e+01  -4.131666e+01
   1.932389e+01   2.890255e+01
   3.291707e+01   9.675920e+01
  -2.769404e+00   5.154256e+01
  -3.473881e+01  -1.306012e+01
  -9.533710e+01  -9.304942e+01
  -6.449290e+01  -3.145234e+01
  -4.443856e+01   1.991349e+01
  -6.207967e+01  -2.901496e+01
  -1.832177e+01  -1.083993e+02
  -1.546477e+01  -1.483455e+02
   7.293373e+01  -1.018638e+02
   1.310419e+02   2.632489e+01
   7.241434e+01   1.162461e+02
   2.326524e+01   1.138025e+02
  -1.373054e+02   9.587621e+01
  -8.598093e+01   5.339139e+00
   3.771809e+01  -4.743169e+01
   1.214826e+02   8.297305e+01
   7.881474e+01   7.049965e+01
  -6.901109e+01   4.847383e+01
  -1.195733e+02   2.675353e+01
  -1.607978e+02  -6.395592e+01
  -5.419919e+01  -6.082417e+01
   6.360275e+01  -2.489751e+01
   6.809861e+01  -3.697107e+01
  -4.225982e+01   2.600978e+01
  -4.599584e+01  -7.433882e+00
   2.365562e+01  -1.026584e+02
   5.858537e+01  -1.355388e+02
   1.024570e+02  -5.760080e+01
   7.062650e+01   6.844891e+01
  -1.124184e+01   1.382337e+02
  -1.014121e+02   1.409358e+02
  -1.101753e+02  -2.167588e+01
  -5.053973e+01  -8.901785e+01
  -2.058711e-01  -1.036116e+02
   4.063083e+01  -1.221919e+01
   4.467135e+00   6.284813e+01
  -8.750271e+00   8.528382e+00
  -1.262966e+01  -1.451895e+01
   4.572301e+00   2.250160e+01
   1.054143e+02   6.819069e+01
   4.396795e+01   8.777561e+01
  -7.105418e+01   6.453972e+00
  -1.031943e+02   6.713004e+00
  -1.440776e+02  -6.628223e+01
  -3.237464e+01  -4.741357e+01
   5.874122e+01  -5.770844e+01
   7.930422e+01   1.663161e+01
   2.002274e+01   8.332732e+00
  -2.479614e+01   2.790276e+01
  -1.034809e+01  -7.025289e+00
   2.769522e-01   2.557778e+00
   1.451101e+01  -4.472843e+01
  -8.838657e+01   1.634632e+01
  -9.958369e+01  -1.690425e+01
  -6.686838e+01  -1.074981e+02
   1.011647e+02  -1.171812e+02
   1.513645e+02  -5.459226e+01
   8.616912e+01   7.592217e+01
  -8.098414e+00   1.543421e+02
  -6.832776e+01   1.016172e+02
  -1.157034e+02   4.132348e+01
  -8.792402e+01  -2.115324e+01
  -2.782578e+01  -2.228384e+01
   3.514221e+01  -9.644010e+00
  -4.085202e+00   3.636185e+01
  -2.161975e+01  -1.996843e+01
   5.621573e+00  -8.748079e+01
   5.363032e+01  -4.042704e+01
   7.249524e+01   4.597331e+00
   2.820729e+01   7.980866e+01
  -1.282670e+01   3.617928e+01
  -2.398447e+01   3.975025e+00
  -8.016773e+01  -6.423616e+01
  -1.307865e+01  -1.010634e+02
  -1.025756e+01  -9.703721e+01
   1.067840e+02  -3.687610e+01
   4.680466e+01   5.717588e+01
  -2.323010e+01   1.447673e+01
  -4.855452e+01   3.604954e+01
   3.119106e+01  -1.494600e+01
   6.655752e+01   2.290844e+00
   6.660283e+01   5.273743e+01
  -9.034532e+01   7.379900e+01
  -7.584044e+01   4.543817e+01
  -5.428095e+01   2.767251e+01
   2.353426e+01  -1.051026e+02
   6.471869e+01  -5.710017e+01
   1.630941e+01  -2.833702e+01
   1.359395e+01   4.636434e+01
   3.128256e+01   8.506127e+01
  -5.518505e+01  -2.613789e+00
  -7.772226e+01  -5.839193e+01
   2.396567e+01  -4.432823e+01
   3.577668e+01  -1.218308e+01
   8.528358e+00   5.233307e+01
   1.513792e+01  -2.045666e+01
  -2.743510e+01  -2.370767e+01
   2.699699e+01   6.392071e+00
   1.757696e+01   4.399903e+01
   4.302246e+01   5.867305e+01
  -4.116977e+01   1.997951e+01
  -1.087183e+01  -1.154761e+01
  -2.594955e+01  -1.079010e+02
   4.391701e+01  -1.577190e+01
   5.101998e+01   2.647194e+01
   3.323499e+01   5.948514e+01
  -4.432614e+01   2.683240e+01
  -9.100368e+01  -4.182761e+01
  -2.914097e+01  -2.742657e+01
   5.495010e+01  -2.737996e+01
   7.720293e+01  -4.012920e+01
   9.400312e+00   8.948560e+00
  -6.122413e+01   8.124803e+00
  -1.582121e+01   2.177702e+00
   4.517937e+01  -2.411447e+00
   5.431087e+01  -2.326270e+01
