
 $NMID
 id='ANONYMOUS ', fmtdat='(2E16.6)'
 volume=1.0
 tramp=1.0
 $END
   2.129705e+03  -4.551538e+02
   1.508402e+03   9.828729e+02
   3.664633e+02   1.496286e+03
  -6.386036e+02   1.069594e+03
  -8.217296e+02   2.829094e+02
  -1.830875e+02   3.294608e+01
   1.218380e+02  -4.006597e+01
   5.355229e+01   4.431883e+02
  -3.226231e+02   4.306987e+02
  -5.804385e+02   1.940168e+02
  -4.610134e+02  -3.607316e+02
   3.104503e+01  -5.587056e+02
   2.150282e+02  -1.960654e+02
   2.446350e+02   2.767965e+02
  -2.341000e+01   3.851844e+02
  -2.919297e+02   1.402689e+02
  -1.914685e+02  -4.611465e+02
  -3.833909e+00  -5.846659e+02
   3.763436e+02  -2.101049e+02
   4.027975e+02   3.434529e+01
   2.060061e+02   3.057390e+02
  -7.833410e+01   1.938887e+02
  -7.225808e+01   7.197642e+01
   1.832590e+02   1.217741e+02
   2.341617e+02   3.386107e+02
  -9.404560e+01   2.758410e+02
  -3.026175e+02   1.342354e+02
  -3.970406e+02  -1.831324e+02
  -9.775509e+01  -2.887871e+02
   2.645052e+02  -1.678034e+02
   3.460725e+02   1.551936e+01
   1.227814e+02   2.860757e+02
  -2.131562e+02   2.542433e+02
  -3.678345e+02   9.607408e+01
  -3.237675e+02  -4.442974e+01
  -5.154875e+01  -1.627256e+02
   7.341700e-01  -1.800111e+02
  -1.010912e+02   8.337128e+01
  -1.345405e+02   1.058406e+02
  -4.868292e+01  -9.529204e+01
   6.659934e+01  -3.513636e+02
   1.616775e+02  -2.337395e+02
   2.943276e+02  -2.154649e+01
   9.093328e+01   2.154259e+02
  -1.033259e+02   1.624056e+02
  -1.251230e+02  -1.659657e+02
   8.434716e+01  -3.385961e+02
   3.478284e+02  -2.574951e+01
   3.597396e+02   3.841556e+02
   1.246657e+02   4.199686e+02
  -2.440041e+02   2.160265e+02
  -3.165392e+02  -5.098037e+01
  -2.623111e+02  -1.593977e+02
   4.698732e+01  -1.741150e+02
   2.067205e+02  -1.228456e+02
   1.566902e+02   1.487875e+01
   3.863759e+01  -2.939000e+01
  -6.459353e+01  -2.524748e+01
   1.143405e+02  -1.190029e+01
   1.943613e+02  -1.091579e+01
   9.094368e+01   1.127850e+02
  -1.304152e+02   2.680975e+02
  -2.804252e+02   1.100025e+02
  -2.218180e+02  -5.509477e+01
   7.222644e+01  -3.068623e+02
   2.838875e+02  -2.888350e+02
   3.687586e+02  -9.007830e+01
   1.968479e+02   1.183204e+02
   8.893668e+00   3.155342e+02
   7.304549e-01   2.946155e+02
   2.726847e+01   1.394867e+02
  -4.979378e+01   1.472725e+02
  -1.610204e+02   1.328233e+02
  -1.933490e+02   1.667260e+01
  -2.053254e+02  -1.243498e+02
  -6.012211e+01  -2.095680e+02
   9.216233e+01  -1.566766e+02
   1.647165e+02   6.594725e+01
   8.931993e+01   1.864356e+02
  -3.123162e+01   1.989416e+02
  -2.491056e+02   8.221523e+01
  -2.311387e+02  -1.014319e+02
  -1.875044e+02  -3.058382e+02
  -1.331571e+00  -1.679385e+02
   1.076361e+02  -1.725985e+02
   1.537357e+02  -9.953891e+01
   1.557363e+02  -1.031152e+02
   2.269128e+02   4.428674e-01
   3.796350e+02   9.166433e+01
   2.559433e+02   2.431303e+02
   5.605422e-01   3.550285e+02
  -2.988744e+02   3.729112e+02
  -4.028584e+02   7.258570e+01
  -3.133528e+02  -3.097248e+01
  -4.353674e+01  -2.657306e+02
   6.536880e+01  -1.670895e+02
  -1.961125e+01  -6.240417e+01
  -8.147114e+01   6.750962e+01
  -1.101242e+02  -2.594383e+01
  -6.461530e+01  -1.123650e+02
   6.785066e+01  -8.317094e+01
   6.953217e+01   5.518912e+01
  -5.116667e+01   5.233135e+01
  -1.306627e+02  -1.365976e+01
  -8.408818e+01  -1.473900e+02
   3.213400e+01  -2.895219e+02
   1.437748e+02  -1.848466e+02
   2.971041e+02   2.714952e+01
   2.101364e+02   2.566047e+02
   3.430262e+01   2.690611e+02
  -1.166006e+02   7.970189e+01
  -9.711561e+01  -4.570738e+01
   3.432150e+00  -8.140520e+00
   3.709832e+01   2.206945e+01
   3.678380e-01   8.331018e+01
  -1.032440e+02   4.948825e+01
  -1.273858e+02  -1.234049e+00
  -2.395446e+01  -7.232883e+01
   6.035805e+01  -1.981575e+01
  -2.093572e+01   8.839636e+01
  -1.792221e+02   4.272065e+01
  -2.209756e+02   2.947423e+01
  -2.582280e+02  -1.410256e+02
  -9.945621e+00  -2.488639e+02
   2.438518e+02  -1.889464e+02
   2.469217e+02  -6.725605e+01
   9.195647e+01   5.403335e+01
  -4.666310e+01   6.694201e+01
  -6.215064e+01   9.534284e-01
   7.950045e+01  -3.027706e+01
   1.681413e+02  -1.743521e+01
   1.175813e+02   8.141063e+01
   4.511717e+01   1.302374e+02
  -3.068511e+01   8.748875e+01
  -1.113122e+02   3.047519e+01
  -3.344347e+01  -3.871920e+00
   5.122655e+01   4.685962e+01
  -1.894834e+00   9.370755e+01
  -9.454734e+01   9.975241e+01
  -1.665023e+02  -1.908601e+01
  -1.705640e+02  -8.952926e+01
  -3.246920e+01  -1.764745e+02
   1.314439e+02  -1.004853e+02
   1.273209e+02  -3.992736e-01
   4.281250e+01   6.122962e+01
  -2.843193e+01   5.728258e+01
  -6.199630e+01   4.019853e+01
  -5.224184e+01  -1.568741e+01
   4.049248e+01  -2.335575e+01
  -2.995254e+01   4.829443e+01
  -6.651812e+01   2.156251e-01
  -1.061507e+02  -8.728153e+01
   3.003875e+00  -9.767705e+01
   6.722707e+01  -1.864419e+02
   1.588541e+02   9.019828e+00
   1.451406e+02   1.006737e+02
   5.914466e+01   1.209499e+02
  -1.116643e+02   1.564065e+02
  -9.855152e+01   4.247114e+01
  -4.935894e+01   1.379368e+01
  -4.790509e+01  -2.221814e+00
  -5.336890e+01   1.871130e+01
  -4.331764e+01  -2.074848e+01
  -7.576763e+01  -4.223562e+01
   9.003861e+00  -1.012156e+02
   1.124821e+02  -6.159128e+01
   7.301113e+01   1.196497e+01
  -9.303510e+00   1.654910e+02
  -1.169023e+02   4.228367e+01
  -2.301046e+02  -6.041302e+01
  -9.306431e+01  -1.785501e+02
   1.043308e+02  -1.830373e+02
   2.247115e+02  -2.191348e+01
   2.212077e+02   8.558083e+01
   8.428130e+01   1.502240e+02
  -5.341938e+01   9.276557e+01
  -6.311937e+01   6.951190e+01
  -8.210325e+01   2.550473e+01
  -2.097220e+01   9.055809e+01
  -9.116539e+01   1.256441e+02
  -9.205620e+01  -2.638896e+01
  -8.620232e+01  -1.472973e+02
  -5.223870e+00  -2.113540e+02
   1.228133e+02  -1.496389e+02
   1.402921e+02   3.807262e+01
   1.533576e+02   8.079399e+01
   5.865572e+01   1.247198e+02
  -7.229369e+01   7.249280e+01
  -5.277704e+01  -3.605981e+01
   1.108732e+01  -4.532025e+01
   1.681572e+01  -2.654293e+01
  -1.864795e+01  -3.168302e+01
  -8.599177e+01  -5.067476e+01
  -4.014419e+01  -1.147177e+00
   4.893066e+01   4.646034e+00
   2.267456e+02   1.646415e+01
   1.364796e+02   4.854533e+01
  -4.532055e+01   1.139898e+02
  -1.210218e+02   7.534098e+01
  -1.142212e+02  -2.003634e+01
  -3.100096e+01  -6.267980e+01
   5.843295e+01  -1.602524e+01
   2.091742e+01   2.729412e+01
   1.646413e+01   4.045504e+01
  -5.945723e+01   3.973893e+01
  -9.173242e+01  -2.050446e+01
  -4.599855e+01  -2.316029e+01
  -6.057495e+00  -3.261980e+01
  -1.675511e+01  -4.736286e+01
  -7.003169e+01   1.189190e+01
  -3.512673e+01  -6.884314e+01
   3.518927e+01  -1.137971e+02
   9.921600e+01  -9.027194e+01
   2.006495e+02  -1.740628e+01
   1.604294e+02   9.584022e+01
   8.928512e+00   1.281154e+02
  -8.532993e+01   4.087459e+01
  -4.400649e+01  -9.952922e+00
   7.439960e+01  -2.469478e+01
   1.514119e+02   2.374685e+01
   6.391187e+01   1.140329e+02
  -8.131344e+01   1.096394e+02
  -1.871366e+02   4.251389e+01
  -1.278154e+02  -1.047990e+01
  -3.009795e+01  -6.328783e+01
   4.165381e+01  -3.663209e+01
   5.649784e+01   1.964924e+01
  -1.292393e+01   9.683648e+00
  -9.730463e+01  -4.138632e+01
  -2.386241e+01  -9.579247e+01
   6.487676e+01  -1.385990e+02
   1.352961e+02  -6.459130e+01
   1.080529e+02   7.867922e+01
   1.320802e+01   1.478835e+02
  -8.092914e+01   1.213427e+02
  -3.296848e+01  -4.295453e+01
  -1.953835e+01  -1.072835e+02
  -3.131356e+01  -4.729534e+01
   1.063277e+01   2.279305e+00
   4.043848e+01   5.081160e+01
   7.703589e+00   2.681126e+01
  -1.558608e+01  -2.268516e+01
   1.595602e+01   2.388037e+01
   4.199605e+01   2.900796e+01
  -2.492903e+00   7.427074e+01
  -4.701735e+01  -6.735502e+01
  -9.308523e+01  -3.197737e+01
  -1.147897e+02  -6.828953e+01
  -1.140058e+01  -3.016380e+01
   4.970009e+01  -5.062858e+01
   9.595741e+01  -3.116754e+01
   5.665152e+01   4.973735e+01
  -4.459447e+01   2.865837e+01
  -4.475752e+01   1.525226e+01
   2.775773e+01   3.375133e+01
   1.762261e+01  -1.052999e+01
  -2.421226e+01   5.931807e+00
  -9.085283e+01  -1.607555e+01
  -5.771640e+01  -5.259781e+01
   8.823467e+01  -1.050178e+02
   1.311751e+02  -1.045054e+02
   1.418517e+02   5.938676e+01
   8.356154e+01   1.623817e+02
  -4.422354e+01   1.263577e+02
  -8.027850e+01   1.035317e+02
  -7.792614e+01  -5.899316e+01
   7.320565e+00  -4.665139e+01
   2.714505e+01  -2.841358e+01
  -1.924578e+01  -2.365304e+01
  -2.968551e+01  -6.993646e+01
  -2.658750e+01  -1.030197e+02
   2.187117e+01  -1.556965e+01
   7.692472e+01   2.793580e+01
   1.381604e+02   3.774910e+01
  -1.171501e+01   9.665804e+01
  -8.561293e+01   3.222742e+01
  -9.240994e+01  -6.240324e+01
  -6.791777e+01  -4.306866e+01
   6.470498e+01  -7.161073e+01
   7.911419e+01   1.012669e+01
   4.114801e+01   4.915955e+01
  -2.156337e+00   6.937339e+01
  -4.015333e+01   2.111016e+01
   1.652396e+01  -1.507100e+01
   4.732422e+01  -3.553088e+01
   7.728302e+00   2.680004e+01
  -3.052203e+01   6.242416e+01
  -9.926565e+01   1.722667e+01
  -6.610579e+01   9.914673e+00
  -2.277405e+01  -9.753642e+01
   7.949227e+01  -1.068188e+02
   1.545874e+01  -2.912575e+01
  -4.250415e+01   4.263838e+01
  -5.253759e+01  -2.991139e+01
  -7.437235e+00  -6.239837e+00
  -2.163000e+01  -2.145918e+01
   1.242542e+01  -2.937243e+01
  -7.764011e+00   1.037558e-01
   4.993104e+01   4.011381e+01
  -1.152422e+01  -1.771703e+01
   1.829250e+01  -7.562147e+00
  -1.059697e+01   6.449546e+00
   7.353032e+00   2.154879e+01
  -2.791494e+00   5.543786e+01
  -7.211214e+01   3.612246e+01
   3.726878e+01  -6.694553e+01
  -1.381864e+01  -7.903954e+01
   2.486348e+01  -1.854127e+01
   5.038860e+01   2.963255e+01
   2.258851e+01   7.812339e+01
  -6.340784e+01   6.585718e+01
  -8.986977e+01  -3.384330e+01
  -9.961144e+01  -2.818553e+01
   6.719796e+01  -3.788089e+01
   2.089225e+01  -3.633963e+01
  -9.377841e+00  -8.301889e+00
   9.028019e+00  -8.212671e+00
  -6.698852e+01   9.494003e+00
  -1.719632e+01  -4.023984e+01
   4.351085e+01  -5.676222e+01
