
 $NMID
 id='ANONYMOUS ', fmtdat='(2E16.6)'
 volume=1.0
 tramp=1.0
 $END
  -1.068875e+03   3.518363e+02
  -5.009884e+02  -6.160784e+02
  -1.792925e+01  -8.846494e+02
   3.450177e+02  -2.811893e+02
   4.537619e+02  -8.476001e+01
   3.199624e+01   1.236518e+02
  -1.571928e+02   2.956298e+01
  -2.112492e+02  -1.838955e+02
   1.307885e+02  -2.754817e+02
   1.307046e+02  -1.302270e+02
   1.426597e+02   1.546725e+02
  -6.658800e+00   1.681998e+02
  -2.348166e+01   7.521810e+01
  -1.000108e+02  -7.601053e+01
   5.204567e+01  -1.441142e+02
   6.476654e+01   2.923150e+01
   2.092081e+01   2.016029e+02
  -6.122303e+01   1.890857e+02
  -2.027635e+02   1.029281e+02
  -1.494902e+02   1.628938e+01
  -1.855620e+01  -1.241101e+02
  -1.185153e+01  -7.618154e+01
   2.105838e+01  -3.286515e+01
  -3.328290e+01  -3.503691e+01
   5.247656e+00  -9.984997e+01
  -3.018255e+01  -1.120286e+02
   1.726453e+02  -6.408713e+01
   1.989812e+02   6.932141e+01
   1.101433e+02   7.855049e+01
  -5.292390e+01   5.878866e+01
  -1.889183e+02   6.938403e+01
  -8.178154e+00  -1.066351e+02
   9.966023e+00  -1.929537e+02
   1.074574e+02  -1.290471e+02
   1.051042e+02   4.054541e+01
   9.861989e+00   1.403784e+02
  -1.366321e+01   3.757591e+01
   3.881388e+01   1.891468e+00
   4.827657e+01  -4.522517e+01
   5.617236e+01  -5.224213e+00
   2.939158e+01   1.387650e+02
  -6.855584e+01   1.865890e+02
  -1.139840e+02  -8.262427e+01
   3.022294e+01   2.704194e+00
   4.530778e+01  -1.805432e+01
   8.529543e+01   6.182202e+01
  -2.570123e+01   1.350068e+02
  -1.289354e+02   6.915192e+01
  -1.040276e+02  -8.566052e+01
  -1.000562e+01  -1.060451e+02
   1.072673e+02  -6.641652e+01
   1.291028e+02   2.411347e+00
   8.846300e+01   1.865357e+01
   2.484461e+01   6.305434e+01
  -9.073438e+01   4.457777e+01
  -6.554443e+01  -8.038591e+00
  -4.571178e+00  -1.502519e+01
   2.501497e+01  -2.536610e+01
  -4.605897e+01  -8.490381e+00
  -7.774754e+01  -2.543980e+01
  -7.410326e+01   2.523278e+01
   6.532431e+01  -5.951920e+01
   1.382678e+02  -9.648034e+01
   9.231240e+01   4.662543e+01
  -3.737742e+01   6.483201e+01
  -9.025993e+01   9.193404e+01
  -1.282787e+02   5.127622e+01
  -2.296283e+01  -5.575510e+01
  -6.490829e+01  -1.329189e+02
  -2.326282e+01  -1.322090e+02
   8.836685e+01  -6.730863e+01
   2.517239e+01  -5.390413e+01
   1.227793e+01   1.605463e+01
   1.290540e+02  -8.096772e+01
   1.045287e+02   3.324735e+01
   5.708958e+01   1.031511e+02
  -1.857731e+01   4.624702e+01
  -8.135842e+01  -1.519287e+01
  -1.011801e+02  -1.247550e+02
  -3.069615e+01  -8.253357e+01
   6.208061e+01  -4.574998e+01
   3.458123e+01   2.826890e+01
   3.708940e+01   4.711531e+01
   1.885249e+01   1.002575e+02
  -4.191744e+01   5.293955e+01
  -6.925945e+01   1.445529e+01
  -9.502976e+01  -1.558795e+01
  -6.454393e+01   9.523530e+01
  -8.197756e+01  -3.074904e+01
  -1.510146e+02  -8.002118e+01
  -1.595954e+01  -1.030055e+02
   1.236528e+02  -1.777097e+02
   1.591201e+02  -1.174516e+02
   1.141088e+02   2.847964e+01
  -1.000518e+01   9.978171e+01
  -1.596564e+01   3.414181e+01
   2.601708e+01   7.571291e+00
   1.504733e+01  -6.660993e+01
   3.158915e+01   9.457655e+00
   1.408940e+01   8.576444e+01
   2.881004e+00   3.184773e+01
  -5.096565e+01   2.559139e+01
   3.833704e+01  -4.541459e+01
   6.070214e+01   3.159726e+01
   6.058181e+01   8.663229e+01
  -3.358486e+01   2.049737e+02
  -1.399382e+02   5.592966e+01
  -8.116041e+01  -6.375720e+01
  -6.988620e+01  -9.001308e+01
  -1.154872e+01  -8.343618e+01
   3.001903e+01  -2.218385e+01
   3.440609e+01  -2.370873e+01
   2.837460e+01  -3.143565e+01
   7.531215e+00  -3.012395e+01
   1.631842e+01  -3.012473e+01
  -4.919518e+00  -3.066977e+01
   3.330235e+01   1.922430e+01
   4.665543e+00  -1.435754e+01
  -5.809562e+01   7.206767e+00
   3.925277e+00  -2.343079e+01
   5.878349e+01  -4.785604e+01
   8.462552e+01   6.357296e+01
   3.197433e+01   7.807145e+01
   5.122142e+01   2.987975e+01
  -7.201346e+01   5.981373e+00
  -5.120390e+01   2.701607e+01
  -4.279804e+01  -2.308355e+01
   4.910848e+01  -1.601217e+01
   3.974645e+01  -4.533689e+01
  -2.205617e+01   5.476009e+01
  -1.021693e+02   3.433828e+01
  -7.473535e+01  -1.066344e+01
  -2.537149e+01  -6.492954e+01
  -1.527437e+01  -5.738106e+01
   5.947665e+01  -1.482479e+01
   3.262728e+01  -4.761931e+00
   1.579891e+00  -4.848512e+01
   2.370748e+01   1.225056e+01
   2.129044e+01  -4.258174e+01
   8.302387e+01  -2.597283e+01
   7.186352e+01   7.571893e+01
   1.474141e+01   1.068578e+02
  -3.022748e+01   7.388668e+01
  -4.981784e+01  -2.586197e+01
  -4.409692e+01  -8.305452e+00
   1.339220e+01  -6.525500e+00
   4.462471e+01  -3.032860e+01
  -3.127502e+01   3.573983e+00
  -1.659342e+01  -3.170055e+01
  -7.876741e+00  -4.214561e+01
   6.838731e+00   5.766266e+01
   9.109641e+00   3.641863e+01
   1.312040e+01   5.058315e+01
  -8.569009e+01   4.792343e+01
  -6.434656e+01   8.314014e+00
  -1.350208e+02  -2.748034e+01
  -4.919012e+00  -7.980299e+01
   8.534377e+01  -8.104430e+01
   8.144920e+01   7.545345e+00
   4.907387e+01   2.242429e+01
  -1.821916e+01   8.627977e+00
   7.333049e+00  -1.863610e+01
   2.025724e+01  -1.726595e+01
  -2.458248e+01  -1.608176e+00
  -2.604403e+01   3.332526e+01
  -1.455848e+01   6.124808e+00
  -2.144239e+01  -4.325047e+01
   3.788396e+01  -6.873495e+01
   1.843551e+01  -8.921830e+00
   4.019038e+01   4.043552e+01
   1.586795e-01   8.926052e+01
   1.664214e+01   5.773685e+01
  -1.355526e+02   4.851591e+01
  -4.384917e+01  -3.366373e+01
  -2.178911e+01  -7.898887e+01
  -2.136321e+00  -5.933370e+01
  -7.111070e+00  -4.055422e+01
   6.220026e+01  -1.578676e+01
   4.484343e+01  -5.052081e+01
  -1.822097e+01  -9.484604e-02
   4.291745e+01  -4.985327e+01
   4.803299e+01   2.902263e+01
   9.264775e+00   6.725207e+01
  -2.015621e+01   9.253189e+01
  -1.420140e+01   6.281290e+01
  -2.978677e+01  -1.823196e+01
   2.380704e+01  -1.508044e+01
   4.819218e+01  -1.576119e+01
   2.648593e+01   2.485335e+01
   3.503153e+01  -2.218150e-01
  -3.966601e+00   5.487005e+00
  -1.236452e+01   1.776622e+01
   4.096592e+01  -2.639018e+01
   3.086795e+01   3.075031e+01
   9.508449e+00   1.461178e+01
  -6.559697e+01   1.818865e+01
  -3.174785e+01  -1.926531e+01
  -1.283265e+01  -3.250497e+01
   4.668696e+01  -7.132400e+01
   3.176986e+01  -3.100344e+01
  -8.129280e+00   2.473155e+01
   1.765508e+01   2.902998e+01
  -5.514382e+01   7.113998e+00
  -3.029058e+01  -3.390986e+01
   2.602252e+01   1.047420e+00
   1.642686e+01   1.263177e+00
  -7.387808e-01   3.103410e+01
   1.201355e+01   2.374197e+01
   3.125933e+01  -1.060737e+01
   4.063394e+01  -4.218756e+01
   6.164580e+01   3.076076e+01
   1.516144e+01   6.632273e+01
  -7.683696e+00   3.972268e+00
  -3.877354e+01  -1.416866e+01
  -5.724216e+00  -6.888395e+01
  -1.386340e+01  -5.643895e+01
   5.329547e+01  -1.458293e+01
   1.967419e+01   7.798616e+00
   6.507461e+00   1.539841e+01
  -9.109990e+01   1.674864e+01
  -1.289667e+01  -2.489302e+01
   2.642505e+01  -2.564200e+01
   7.845384e+01  -1.934956e+01
   1.944868e+01  -3.219571e+00
  -6.508555e+01   4.964175e+00
  -9.550517e+00  -3.472331e+00
  -6.650477e+01   2.672321e+01
  -6.894943e+00  -2.203002e+01
   2.171030e+01   1.946454e+00
   2.837605e+00   2.584103e+01
  -4.041200e+01   7.235433e+01
  -4.041686e+01  -3.680039e+01
  -7.097432e+00  -1.964862e+01
  -4.689366e+01  -5.847694e+01
   9.589450e+00  -1.794672e+01
   5.954212e+01  -2.956037e+01
  -2.715951e+00  -6.613074e+00
   1.150867e+01   3.261755e+01
  -6.859458e+00  -5.070842e+01
  -5.380977e+01  -2.111918e+01
   9.802065e-01   2.054644e+01
  -2.780898e+01  -2.451967e+00
  -2.565338e+00   3.990691e+00
  -3.396329e+01   2.310438e+00
   1.488987e+01  -5.239897e+01
   9.540270e+00  -2.042582e+01
   7.334399e+01   4.687735e+00
   5.221339e+01   2.851332e+01
  -1.147409e+01   1.792023e+01
  -4.989335e+00   4.767510e+01
  -2.776692e+01  -6.338619e+00
   1.267013e+01  -4.256316e+01
   1.317484e+01   3.510509e+01
  -2.720338e+01  -8.218691e-01
   1.380498e+01   4.093056e+00
   1.786896e+01   2.792586e+01
   4.561212e+01   5.850240e-01
   3.503676e+01   6.052170e+00
   1.776451e+01   3.710209e+01
  -2.709619e+01   4.848247e+01
  -8.878214e+01   1.813450e+01
  -3.530047e+01  -5.349668e+00
   2.206068e+00  -3.234904e+01
   4.122844e+01  -5.745322e+01
   4.675354e+01  -7.283627e-01
   1.643564e+00   3.857360e+00
   2.929933e+01  -2.636095e+01
  -2.091809e+00   2.029778e+01
  -2.206623e+00   2.093671e+00
   1.501489e+01   3.065298e+00
   4.836301e+01   4.176444e+01
   8.085009e-01   3.656234e+01
  -2.143345e+01  -1.681507e+00
  -2.125353e+01  -3.806014e+01
  -3.729410e+01  -3.852951e+01
   4.043501e+01  -1.130025e+01
   8.347661e+01   2.546444e+01
   8.118864e+00   4.571084e+01
   1.293644e+01   4.457328e+01
  -1.756169e+01   2.752544e+01
  -2.589861e+01  -2.833256e+01
   2.654323e+01  -6.872914e+00
   4.660185e+00  -2.880097e+01
   3.136521e+01   1.351710e-02
  -4.301746e+01   5.406577e+01
  -2.234572e+01  -4.547725e+01
   3.183951e+00  -4.596578e+01
   2.303678e+01  -2.695219e+01
  -1.960635e+01  -1.642362e+00
  -5.867653e-02  -2.268017e+00
  -9.584075e+00   9.454309e+00
   1.946371e+01  -6.333588e+00
  -4.259164e+01  -5.596986e-01
   3.091271e+00  -3.790186e+01
   2.604605e+01  -2.496559e+01
   1.112868e+01  -5.860063e+00
   2.362935e+00   1.480653e+01
  -1.950224e+01  -7.940951e-01
  -4.843414e+01   2.952011e+01
   1.480946e+00   1.325884e+01
   9.484108e+00  -3.240495e+01
  -9.210641e+00  -1.257268e+01
   3.979594e+01  -2.987275e+01
   1.016455e+01  -4.576164e+00
   1.759735e+01  -1.840781e+00
   2.363538e-01   3.541448e+00
   5.190708e-01  -3.997833e+01
  -2.423065e+01   3.630529e+01
  -5.735281e+01  -1.575743e+01
   3.615497e+01  -1.261514e+01
   1.339590e+01  -3.498575e+01
   1.564949e+01  -1.772480e+01
   4.673044e+01   2.025470e+00
   8.429501e+00  -2.725967e+01
  -2.123995e+01   2.352451e+01
   2.485580e+01   2.007748e+01
   3.130680e+01  -3.038319e+01
  -5.024480e-01   6.107714e+00
  -3.706575e+01   3.214662e+01
  -1.344323e+01   3.519374e+00
