
 $NMID
 id='ANONYMOUS ', fmtdat='(2E16.6)'
 volume=1.0
 tramp=1.0
 $END
   1.874729e+03   5.469572e+01
   7.928946e+02   9.473457e+02
  -2.944165e+02   1.325182e+03
  -6.428504e+02   1.244745e+02
  -4.382952e+02  -2.396041e+02
   3.821679e+02  -2.921703e+02
   3.173962e+02   4.382145e+02
   7.527513e-01   3.684671e+02
  -3.700108e+02   2.871351e+02
  -3.916259e+02   1.219480e+01
  -1.515341e+02  -3.586302e+02
   1.998998e+02  -1.955845e+02
   2.347143e+02  -5.604123e+01
  -2.795744e+01   1.833252e+02
  -8.873562e+01   3.399742e+02
  -2.090890e+02  -1.926021e+01
  -2.041621e+02  -2.292861e+02
   1.459542e+02  -2.672614e+02
   2.312613e+02  -1.701590e+01
   5.421274e+01   1.328448e+02
  -3.197899e+01   1.566195e+02
  -1.044337e+02   1.310489e+02
  -8.834605e+00   1.201323e+01
   5.743262e+01   1.472488e+01
   1.174045e+02  -1.162171e+01
   9.426590e+01   1.696157e+02
  -2.478766e+02   1.504649e+02
  -3.583125e+02  -6.052806e+01
  -1.121247e+02  -2.893598e+02
   1.568502e+02  -2.101937e+02
   1.840111e+02  -2.723139e+01
   1.169469e+02   1.993350e+02
  -6.668597e+01   2.260953e+02
  -1.726138e+02   7.578405e+01
  -1.115403e+02  -9.293366e+01
  -5.917401e+01  -2.074253e+02
   3.090398e+01  -1.022433e+02
   1.121884e+02   1.314180e+02
  -3.992182e+01   2.206061e+02
  -2.479693e+02  -7.970295e+01
  -7.889607e+01  -2.714431e+02
   7.728536e+01  -2.280686e+02
   2.462969e+02   2.509331e+01
   9.216264e+01   2.325935e+02
  -6.894805e+01   1.077414e+01
  -1.398836e+02  -1.380474e+02
  -1.502253e+01  -1.987640e+02
   1.946756e+02  -5.928836e+01
   1.860177e+02   1.564348e+02
   7.019133e+01   2.024160e+02
  -1.567370e+02   7.622639e+01
  -2.807573e+02  -1.379230e+01
  -1.119182e+02  -1.983952e+02
   3.741760e+01  -1.921747e+02
   1.855214e+02   2.276128e+01
   9.101014e+01   2.377570e+01
  -5.085643e+01  -2.526286e+01
  -5.176168e+01  -7.765844e+01
   7.363492e+01  -6.240318e+01
   1.823401e+02   5.577241e+01
   7.189961e+01   5.541403e+01
  -7.897075e+01   1.004110e+02
  -1.655897e+02   3.632545e+01
  -7.660784e+01  -5.945612e+01
   4.907385e+01  -9.215389e+01
   7.433255e+01  -9.816115e+01
   1.110268e+02  -4.273856e+01
   8.320308e+01   4.890513e+01
  -9.251941e+00   1.019771e+02
  -1.001875e+02   1.809925e+02
  -3.094387e+01   7.668477e+01
  -1.531165e-01   8.308229e+01
  -1.414489e+01  -2.560961e+01
  -1.688675e+02   8.775239e+01
  -3.327802e+01  -4.770585e+01
  -2.883534e+01  -1.203732e+02
   4.086994e+01  -6.555058e+01
   5.157268e+01   1.763643e+01
   4.733605e+01   1.336943e+02
   1.799642e+01   1.234486e+02
  -7.827061e+01   5.635991e+01
  -1.585661e+02  -8.546099e+00
  -9.953589e+01  -9.503419e+01
   8.701279e+00  -1.212951e+02
   8.593983e+01  -2.098098e+01
   6.029059e+01  -2.986075e+01
   6.383272e+00  -1.919593e+01
   1.379051e+02  -1.519234e+01
   1.640204e+02   6.775681e+01
   1.858612e+02   4.618542e+01
  -1.018272e+02   1.921519e+02
  -1.760153e+02   2.368593e+02
  -1.994669e+02   5.314033e+01
  -6.199343e+01  -6.484604e+01
   4.774924e+01  -9.369329e+01
   4.494000e+01  -8.681203e+01
   8.793190e+01  -4.207556e+00
  -3.300783e+01   4.195210e+01
  -1.033950e+02   6.845740e+00
   8.809178e+00  -8.613743e+01
   7.474827e+01  -4.488765e+01
   7.624301e+01   1.062679e+01
  -1.281003e+01   1.446667e+02
  -9.050717e+01   1.940614e+01
  -7.172137e+01  -1.450394e+02
   5.817330e+01  -2.047074e+02
   9.035825e+01  -6.388601e+01
   1.131603e+02   3.058402e+01
   1.179085e+02   1.374089e+02
  -1.091477e+00   1.231422e+02
  -7.843140e+01   4.105350e+01
  -9.263837e+01  -2.143851e+01
   1.216778e+01  -2.530621e+01
   3.475740e+01   4.063762e+01
  -2.657052e-01   7.604833e+01
  -3.372278e+01   1.718815e+01
  -1.182067e+02  -1.669006e+01
  -4.999238e-01  -1.782582e+01
   2.778647e+01  -5.219401e+00
   3.230238e+01   4.889546e+01
  -7.135783e+01  -6.434917e+00
  -8.538254e+01   1.875860e+01
  -1.095897e+02  -5.343692e+01
  -2.271779e+00  -1.049966e+02
   4.971649e+01  -7.962053e+01
   1.059033e+02  -9.347477e+01
   7.904272e+01   1.429806e+00
   3.412001e+01  -6.002739e+00
   4.219258e+00   1.515366e+01
  -2.363774e+00   2.369853e+01
   9.855705e+01  -3.912474e+01
   7.730584e+01   3.867909e+01
   3.433018e+01   1.143139e+02
  -4.580369e+01   6.909269e+01
  -5.184504e+01   1.733681e+01
  -2.820292e+01  -5.091993e+01
  -2.807704e+00  -5.295174e+00
  -5.068163e+01   4.688636e+01
  -3.077034e+01   3.634355e+01
  -1.113579e+02  -6.734354e-01
  -6.565304e+01  -8.401562e+01
  -1.179403e+00  -4.783412e+01
   5.655295e+01  -1.033734e+02
   7.469858e+01   2.611233e+01
  -1.207903e+01   2.971212e+01
   3.029890e+00   1.840218e+01
  -4.098589e+01  -1.842569e+01
  -8.615941e+00  -9.592703e+00
   9.237855e+00   2.421091e+01
   2.143628e+01   4.546519e+00
   4.016997e+00  -2.373505e+01
  -1.598319e+01  -1.447878e+01
  -3.296613e-01  -7.559981e+01
   4.339724e+01  -6.850296e+01
   4.993223e+01   8.197199e+00
   1.513546e+02   1.018444e+02
   1.445912e+01   1.157120e+02
  -4.932920e+01   1.447223e+01
  -1.707533e+01   5.302807e+00
  -1.655544e+01  -5.433658e+00
  -5.265488e+01  -2.299600e+01
  -6.207143e+01   1.044662e+00
  -1.070802e+01  -1.776382e+01
   2.174564e+01  -1.783608e-01
   4.555748e+01   1.623281e+01
   3.077084e+01  -7.246380e+00
   8.498680e+01   5.338659e+01
  -5.328430e+01   3.146830e+01
  -4.074567e+01   1.024400e+01
  -6.839073e+01   3.704720e+00
  -2.439950e+01  -1.012767e+02
   9.581370e+01  -1.246033e+02
   1.722047e+02  -2.491235e+01
   3.946983e+01  -1.014353e+01
   5.938070e+01   3.174092e+01
   6.187612e+00   1.717458e+00
  -5.882279e+01  -2.216484e+01
  -6.687403e+01   5.963432e+01
  -1.777405e+01   9.005028e+00
  -2.702593e+01   1.045430e+00
  -7.312779e+01   1.265388e+01
   9.814695e-02  -8.042055e+01
   1.603099e+01  -6.088769e+01
   6.387439e+01  -8.395441e+01
   4.850140e+01  -4.231100e+01
   2.170734e+01   4.639286e+01
  -1.949300e+01   5.966629e+01
  -6.718714e+01   1.447109e+01
  -6.628527e+01   1.278972e+01
   2.077607e-01  -4.538077e+01
   6.292300e+01  -3.994896e+01
  -3.589893e-01   1.961952e+00
  -1.948347e+01  -7.152676e+00
   8.126642e+00  -6.126850e+00
   2.252077e+01  -3.942094e+01
   7.214307e+01   2.001459e+01
   9.732321e+01   3.634273e+01
  -8.315554e-02   7.578478e+01
  -7.114844e+01   4.787140e+01
  -5.484956e+01   7.752243e+00
   6.366211e+00  -4.585469e+00
   1.274917e+01  -1.097692e+01
   2.713750e+01   4.190898e+01
  -4.641391e+01  -5.244400e+00
  -3.785449e+01   3.163763e+01
  -3.571835e+01  -1.426233e+01
  -6.439738e+00  -3.744270e+01
  -6.982427e+00  -1.586168e+01
  -2.773878e+01  -5.206823e+01
  -8.114577e+00  -4.610509e+00
  -1.233305e+01  -8.671409e-01
   1.154899e+01  -2.814867e+01
   9.635536e+01  -3.189292e+01
   9.295730e+01  -3.882894e+01
   2.701635e+01   3.852998e+01
  -6.745616e+00   3.787130e+01
  -6.439672e+01  -7.747664e-01
  -4.659932e+01  -5.278563e+00
   1.557332e+01   7.998714e+00
   5.728709e+01  -2.972720e+00
   3.157847e+01   4.738357e+01
  -3.923792e+01   2.728157e+01
  -2.914705e+01  -6.288844e+00
  -3.003564e+01   7.881399e+00
   3.350435e+00  -3.117958e+01
  -9.142816e+00  -2.338346e+01
   2.774515e+01  -2.983188e+01
  -3.524635e+01  -3.368852e+01
  -3.359779e+01  -5.284086e+01
   2.329238e+01  -6.149068e+01
   8.614682e+01  -7.520095e+01
   6.906962e+01  -6.843677e+01
   3.789889e+01   5.323717e+01
  -2.606582e+01   2.656706e+01
  -7.566123e+01   5.359794e+01
  -1.542083e+01   4.991088e+00
  -1.464926e+01  -3.570150e+01
  -2.171025e+01  -8.239891e+01
   2.879498e+00   1.466859e+01
   4.526110e+01   1.831205e+01
   4.010124e+01  -1.148072e+01
  -2.022714e+00  -8.781599e+00
   2.288556e+01   9.009018e-01
   1.188763e-01  -7.221885e+00
   4.281915e+01   4.142403e+01
  -1.952233e+00   3.276248e+01
  -8.453173e+01  -1.512693e+00
  -1.593039e+00  -2.395969e+01
  -2.739039e+00  -6.023802e+00
   6.834427e+01  -3.901806e+01
   3.112543e+01   3.832440e-01
   1.624436e+01  -2.100052e+01
   5.044274e+00  -1.598632e+01
  -3.036811e+01   3.319942e+01
  -1.200593e+01  -1.744186e+01
   1.553776e-01   4.397414e+01
  -1.076638e+01  -2.365303e+01
  -6.671228e+01  -8.529842e+00
   2.379766e+01  -3.562016e+01
   4.497973e+01  -6.734017e+01
   9.648507e+01  -1.353740e+01
   5.707158e+00  -1.702036e+01
   3.943482e+01   1.060827e+00
  -5.441423e+01   3.281089e+01
  -5.120265e+01   1.207149e+01
  -4.104862e+01  -1.059927e+01
   4.816601e+00   3.613697e+01
  -1.759270e+01   1.378497e+01
   1.447518e+01   3.948281e+01
  -7.419975e+00  -6.891272e+01
   8.596083e+00  -4.592657e+01
   2.563635e+01   1.124521e+01
   3.468362e+01   6.295834e+00
   7.094904e+01   3.675380e+01
  -3.088137e+01   3.472685e+01
  -5.990023e+00  -2.147176e+01
   1.374486e+01  -6.816322e+01
   1.350899e+01  -2.963703e+01
   8.205994e+00   7.612243e+00
   2.683488e+01   3.759425e+00
   3.709327e+01   1.543942e+01
   1.647724e+01   2.066844e+01
  -3.212847e+01  -1.746198e+01
   9.921521e+00  -7.637890e-01
   3.190543e+01  -7.459153e+00
  -3.181091e+01  -2.703562e+01
  -9.454122e+00   2.103218e+01
  -1.728633e+01  -1.042826e+01
  -8.261666e-01  -1.458967e+01
  -7.921160e+00  -4.024216e+01
   1.486629e+01  -1.975804e+01
   6.755189e+00  -3.073286e+00
  -1.763372e+01   2.830071e+01
  -2.149076e+00  -7.458124e-01
  -3.220451e+01   1.714863e+01
   1.698963e+01   1.072863e+01
  -2.357356e+01   1.971944e+01
  -9.029571e+00   4.817671e+00
   4.643673e+01   3.553666e+01
  -4.973979e+00  -1.072942e+01
  -3.518744e+01   3.595250e+01
   4.297210e+00  -6.844082e+00
  -1.555132e+01   2.008436e+01
  -1.201189e+01   6.775118e+00
  -2.614641e+01   7.318388e+00
  -1.256440e+01  -3.046041e+01
  -2.539885e+01  -1.956886e+01
  -7.869835e+00   2.878076e+01
   2.664927e+01   4.524567e+01
   4.845808e-01   3.354163e+01
  -7.430487e+00  -8.872503e+00
  -3.026281e+01   1.702215e+01
   1.357579e+01  -1.123364e+00
   9.841430e+00   1.625577e+01
   1.714835e+01  -1.356597e+01
   3.878121e+01  -2.352297e+01
   3.249306e+01  -2.037781e+01
  -1.560431e+01  -7.330516e+00
  -3.263094e+01  -8.244472e+00
   3.991441e+01   1.171694e+01
