
 $NMID
 id='ANONYMOUS ', fmtdat='(2E16.6)'
 volume=1.0
 tramp=1.0
 $END
  -2.854856e+03   1.067831e+02
  -1.892377e+03  -2.148913e+03
   6.284399e+02  -1.700157e+03
   1.409055e+03  -5.572685e+02
   7.032394e+02   6.217797e+02
  -5.242972e+02   4.034643e+02
  -6.189892e+02  -3.805435e+02
   2.716893e+01  -8.040001e+02
   5.315215e+02  -4.920982e+02
   7.070134e+02   1.182260e+02
   7.285539e+01   6.732655e+02
  -1.774373e+02   5.348654e+02
  -4.427430e+02   8.954524e+01
  -1.437971e+02  -5.042227e+02
   2.359311e+02  -4.642113e+02
   4.090425e+02  -1.249485e+01
   1.014994e+02   3.846778e+02
  -2.592415e+02   3.235501e+02
  -3.619170e+02   7.992399e+01
  -2.656516e+02  -2.760939e+02
   2.703218e+01  -3.082223e+02
   2.205785e+02  -1.797443e+02
   1.578504e+02   8.457370e+00
  -6.653300e+01   7.135878e+01
  -2.732227e+02  -9.992046e+01
  -1.209381e+02  -3.762807e+02
   3.857259e+02  -2.351984e+02
   4.691310e+02   1.379315e+02
   2.045402e+02   2.872135e+02
  -2.520024e+02   3.342080e+02
  -5.656209e+02  -3.345927e+01
  -2.678144e+02  -3.504641e+02
   2.369316e+02  -3.203742e+02
   3.947795e+02  -1.229056e+02
   2.772223e+02   1.033266e+02
  -1.112523e+01   3.624354e+02
  -1.785683e+02   2.887365e+02
  -6.126145e+01  -1.721957e+02
   1.435022e+02  -3.357541e+02
   2.971108e+02   6.669512e+01
   2.104988e+02   4.393401e+02
  -2.825732e+02   5.089239e+02
  -4.593539e+02  -9.855854e+01
  -1.209702e+02  -3.558633e+02
   1.381510e+02  -1.864472e+02
   2.276601e+02   2.161915e+02
  -6.994194e+01   3.690512e+02
  -4.028698e+02   4.416028e+01
  -3.435290e+02  -2.493986e+02
  -1.320841e+02  -4.097336e+02
   2.706482e+02  -2.066902e+02
   5.081378e+02   3.035722e+01
   2.933262e+02   3.955655e+02
  -9.476949e+01   2.633998e+02
  -2.293031e+02  -9.046871e+00
  -1.790437e+02  -9.683211e+01
   9.732051e+01  -3.562014e+01
   5.540599e+01   9.740172e+01
  -1.396724e+02   1.358490e+02
  -2.566287e+02  -3.747586e+01
  -4.874893e+01  -2.216795e+02
   1.259451e+02  -1.529303e+02
   2.171564e+02  -4.671968e+01
   1.575344e+02   5.340815e+01
  -2.387061e+01   1.977796e+02
  -1.373327e+02   2.484026e+02
  -2.157204e+02   1.733087e+02
  -2.333425e+02  -7.779907e+01
   2.663931e+00  -3.203569e+02
   1.384586e+02  -2.336233e+02
   1.116681e+02  -3.129060e+01
   3.725187e+01   2.616030e+01
   7.920092e+01  -5.542227e+01
   1.128753e+02  -5.991660e+01
   1.432166e+02  -3.491441e+01
   1.318509e+02   2.032030e+02
  -6.707434e+01   1.842994e+02
  -1.756433e+02  -1.912400e+01
  -9.565322e+01  -1.783600e+02
  -3.517798e+00  -2.472415e+02
   1.930567e+02  -6.399902e+01
   2.571197e+02   1.399047e+02
   1.401927e+02   2.003327e+02
  -1.175996e+02   2.070292e+02
  -1.434666e+02   3.503706e+01
  -1.204912e+02  -5.025574e+00
  -5.698539e+01  -1.552110e+01
  -1.254141e+02   6.769877e+01
  -2.573350e+02  -5.883536e+01
  -2.447022e+02  -2.260872e+02
   4.035596e+01  -2.983533e+02
   2.536398e+02  -3.460772e+02
   3.442431e+02  -1.127105e+02
   2.001749e+02   5.635611e+01
  -1.684639e+01   1.473584e+02
  -1.319294e+02   2.039795e+02
  -4.149990e+01   3.129000e+01
   8.234208e+01  -5.645595e+01
   1.433008e+02   3.132412e+01
   6.907269e+01   1.463336e+02
  -9.364679e+01   1.117205e+02
  -1.370958e+02  -2.229004e+01
   6.056401e+01  -1.278868e+02
   1.473047e+02  -4.513579e+00
   5.795882e+01   1.444928e+02
  -3.324644e+01   2.229912e+02
  -1.604677e+02   7.290384e+01
  -2.382046e+02  -4.106993e+01
  -1.656428e+02  -1.460091e+02
  -6.281921e+01  -1.670383e+02
   3.697461e+01  -5.668790e+01
   1.343745e+02  -2.315270e+01
   6.073917e+01   2.968461e+01
  -4.008508e+01  -7.048221e+00
  -3.995862e+01  -1.062530e+02
   7.386115e+01  -9.943456e+01
   8.955309e+01   4.347176e+01
   6.032879e+01   5.762031e+01
  -8.271997e+01   2.748432e+01
  -5.079311e+01  -5.358958e+01
   9.231114e+01  -6.063015e+01
   1.317468e+02  -8.543669e+00
   1.669171e+02   9.505679e+01
   7.999568e+00   1.997551e+02
  -6.697019e+01   2.017231e+02
  -1.951131e+02   5.745553e+01
  -9.003146e+01  -4.521214e+01
  -9.620259e-02  -6.954762e+01
   5.293460e+01   1.218147e+01
  -6.620731e+00   3.860555e+01
  -1.252853e+02   8.244091e+01
  -1.485607e+02  -5.220121e+01
  -4.971711e+01  -1.100978e+02
   8.422286e+01  -1.176436e+02
   1.069055e+02  -1.154951e+01
   5.631219e+01   6.734345e+00
  -2.367256e+01  -3.687262e+01
  -2.683426e+01  -5.137635e+01
   7.720064e+01  -7.094321e+01
   1.530514e+02  -1.886802e+01
   1.160659e+02   6.383543e+01
   7.645872e+00   1.179743e+02
  -1.437279e+02   8.710189e+01
  -9.782548e+01   1.863290e+01
  -2.597907e+01  -9.836088e+01
   4.711239e+01  -6.907604e+01
   6.400481e+01  -3.082268e+01
   3.771586e+01   2.754671e+01
   8.049621e+00   3.149288e+01
   3.042298e+01  -6.816520e-01
   4.298722e+01   6.142846e+00
   1.862744e+01   1.696830e+01
  -2.758595e+01   8.418045e+01
  -8.350237e+01   9.591937e+01
  -1.383337e+02   2.017646e+01
  -7.476301e+01  -1.489198e+02
  -1.381577e+01  -1.456699e+02
   1.163241e+02  -9.888487e+01
   1.230248e+02  -3.265796e+01
   1.512170e+01   7.339242e+01
  -1.258730e+01   3.131767e+01
   1.079015e+01   2.520670e+00
   2.497460e+01  -6.112893e+01
  -1.924346e+00   5.409939e+01
  -4.866604e+01   7.389039e+01
  -9.217534e+01   3.153920e+01
  -6.370428e+01  -4.079701e+01
  -7.068474e+00  -7.576904e+01
   9.981322e+01  -8.268962e+01
   9.193110e+01   3.315016e+01
   2.674260e+01   1.339563e+02
  -1.027043e+02   1.754889e+02
  -1.951987e+02   5.095350e+01
  -2.256644e+02  -1.356942e+01
  -9.430487e+01  -1.476036e+02
   1.759742e+01  -9.631321e+01
   6.966840e+01  -1.957608e+01
   2.051936e+01  -3.551495e+01
   3.180838e+01  -9.563132e+01
   7.487899e+01  -2.452439e+01
   1.062816e+02   4.188573e+01
   9.015878e+01   6.941402e+01
   4.044096e+01   1.022282e+02
  -9.802451e+01   1.091042e+02
  -8.561368e+01  -8.946688e-01
  -7.644286e+01  -6.801029e+01
  -2.106456e+01  -7.461030e+01
   6.818240e+01  -8.347600e+01
   1.430212e+01   1.530096e+01
   2.231199e+01  -4.107242e+00
  -1.711841e+01   2.632084e+01
   2.326826e+01  -2.609489e+01
   2.979049e+01  -1.130903e+01
   3.608096e+01   5.632903e+01
  -4.447974e+01   3.071456e+01
  -1.456261e+02  -2.203108e+01
  -6.759361e+01  -8.145323e+00
  -1.167563e+00  -6.044773e+01
   6.137873e+01  -6.793973e+01
   9.732937e+01   4.759029e+01
   2.305761e+01   5.638737e+01
  -3.039094e-01   2.048496e+01
  -8.803258e+01  -7.334129e+00
  -3.672081e+01  -6.790420e+01
   1.665677e+01  -6.039907e+01
   3.283074e+01  -8.432002e+00
   1.640726e+01   1.850556e+01
   2.512171e+01   1.201253e+01
   3.394390e+01   1.728227e+01
   3.462647e+01  -1.975425e+01
  -1.927532e+01   2.672855e+01
  -3.429695e+01   8.525570e+01
  -8.001582e+01   1.202219e+02
  -1.644355e+02   1.136622e+01
  -8.664157e+01  -5.946822e+01
  -8.154524e+00  -6.633150e+01
   5.736171e+01  -2.371675e+01
   3.704073e+01  -3.414226e+01
  -2.515567e+01   1.786722e+01
  -7.088142e+01  -3.857463e+01
  -3.410727e+01  -5.684152e+01
   7.944463e+01  -6.101946e+01
   1.515062e+02  -5.490313e+01
   8.829307e+01   1.700122e+00
   2.943719e+00   3.057959e+01
  -2.026020e+01   4.590089e+01
  -6.110578e+01   2.331119e+01
   2.384399e+01  -1.146268e+01
   1.008963e+02   2.442596e+01
   3.967939e+01   1.475178e+01
  -1.133939e+02   9.383932e+01
  -8.589453e+01   4.262944e+01
  -7.811091e+01  -3.360087e+01
  -1.562676e+01  -1.183977e+02
   3.499931e+01  -1.023894e+02
   8.211283e+01  -6.706592e+01
   8.608504e+01   8.025883e+01
   2.188995e+01   7.175548e+01
  -2.988942e+01   1.200776e+01
  -2.012169e+01  -8.720680e-01
   2.721380e+00   3.359589e+01
  -1.202277e+01   6.415409e+01
  -2.477095e+01  -2.449480e+01
  -3.191663e-01  -7.305596e+01
  -6.890263e+01  -7.640183e+01
  -3.207883e+00  -2.374406e+00
   7.741898e+01   2.592286e+01
   4.666177e+01  -1.468622e+00
   2.591641e+00   8.724467e+00
  -9.039786e+01   3.400553e+01
  -2.905543e+01   8.515584e+00
   5.544232e+01   1.956386e+01
   2.715687e+01  -1.460471e+01
   1.535081e+01  -1.698330e+01
  -8.999761e+00  -1.119718e+01
   4.398356e+00  -2.807577e+00
   3.753627e+01  -2.003032e+00
   5.779249e+01   2.971404e+01
   1.386147e+00   3.563547e+01
  -6.196702e+01   1.160468e+02
  -1.179771e+02  -9.214556e+00
  -8.492976e+01  -3.840241e+01
   3.175858e-01  -7.271929e+01
   2.125348e+01  -5.138478e+01
   3.923685e+01   1.694256e+01
   4.485263e+01  -1.183335e+01
   1.767292e+01  -2.101326e+01
  -3.606314e+01   7.461545e-02
   5.934275e+01   1.392726e+01
   1.814822e+01  -1.578790e+01
   1.295215e+01   6.530210e+01
  -4.174414e+01   6.678266e+01
  -3.704679e+01  -2.951287e+01
  -5.264039e+01  -7.078013e+01
  -5.162287e+00  -1.484530e+02
   2.647546e+01  -3.124061e+01
   9.392922e+01   9.116593e+01
   4.447400e+01   9.350969e+01
  -1.078824e+02  -3.942074e+01
  -9.142000e+01  -2.458738e+01
  -9.640762e+00  -5.092366e+01
   1.471235e+01  -4.613016e+01
   1.912279e+01  -3.067091e+01
  -1.555364e+01  -2.671967e+01
  -5.579398e+01  -1.369295e+01
  -8.279971e+00  -6.123822e+00
   7.166634e+01  -2.820787e+01
   7.704153e+01  -3.578996e+01
   3.021419e+01  -3.708869e+01
  -3.599999e+01   5.471899e+01
  -2.343349e+01   5.990611e+01
  -1.082918e+01   2.582439e+01
  -2.089115e+01  -4.174473e+01
  -3.308805e+01  -4.137435e+01
   4.345924e+01  -7.074345e+00
   3.713639e+01   4.705838e+01
   1.343780e+01   3.067281e+01
  -2.751824e+01  -1.592018e+01
  -4.976451e+01  -2.063057e+01
  -1.565476e+01  -4.168796e+01
  -3.920727e+01  -6.331381e+00
   1.163910e+00  -5.438230e+01
   4.916829e+00  -2.540984e+01
  -1.179002e+01  -4.651373e+00
   1.710610e+01  -6.947311e+00
   5.127185e+01   1.767186e+01
  -1.228335e+00   8.520720e+00
  -3.715357e+01   1.399481e+01
  -6.115889e+01  -5.342317e+01
   2.262261e+01  -6.413746e+01
   6.563849e+01  -3.151154e+01
   6.504644e+01  -2.156315e+01
   3.755841e+01   2.661614e+00
  -1.835333e+01   4.358429e+01
  -3.374170e+01   3.708076e+01
  -2.028331e+01   6.435656e+00
   1.060205e+01   6.527245e+01
   3.374974e+01   3.135072e+01
  -1.632593e+01   6.243323e+01
  -8.009703e+01   1.592829e+01
