
 $NMID
 id='ANONYMOUS ', fmtdat='(2E16.6)'
 volume=1.0
 tramp=1.0
 $END
  -2.928283e+03  -1.416721e+02
  -1.199158e+03  -1.957879e+03
   9.155578e+02  -1.717235e+03
   1.616517e+03  -4.661063e+02
   5.280072e+02   3.238216e+02
  -4.545302e+02   3.327722e+02
  -3.891403e+02  -2.625550e+02
  -7.253048e+01  -5.468337e+02
   6.203470e+02  -5.994902e+02
   5.838886e+02   1.612244e+02
   2.040318e+02   5.292388e+02
  -1.235886e+02   5.120993e+02
  -4.224283e+02   4.044242e+01
  -3.010199e+02  -3.562234e+02
   2.173075e+02  -3.875740e+02
   4.132845e+02  -1.299423e+01
   2.038625e+02   3.234859e+02
  -2.154922e+02   4.111823e+02
  -4.166978e+02   1.623950e+01
  -2.280896e+02  -1.849588e+02
   1.166284e+01  -3.061646e+02
   1.497321e+02  -1.523489e+02
   1.104775e+02   6.937533e+00
  -6.576393e+01   1.480994e+01
  -2.180765e+02   1.963852e+01
  -7.628861e+01  -2.374546e+02
   2.256508e+02  -1.170585e+02
   6.127643e+02   2.222803e+01
   2.902685e+02   3.655118e+02
  -2.301243e+02   2.489964e+02
  -3.715536e+02  -1.144323e+02
  -3.026139e+02  -2.795407e+02
   1.907710e+02  -3.163649e+02
   3.680327e+02  -1.292495e+02
   2.735506e+02   1.443866e+02
  -2.569512e+01   3.264144e+02
  -1.153783e+02   1.704905e+02
  -9.068127e+01  -1.129230e+02
   9.431588e+01  -2.385949e+02
   2.354588e+02   7.256599e+01
   1.191910e+02   4.128300e+02
  -2.989971e+02   3.441756e+02
  -3.296209e+02  -7.699339e+01
  -2.008323e+02  -4.026933e+02
   1.651778e+02  -1.903638e+02
   2.187142e+02   3.156116e+02
  -5.097828e+01   3.542810e+02
  -3.593733e+02   5.658143e+01
  -4.001676e+02  -1.948767e+02
  -1.466087e+02  -3.388270e+02
   1.864675e+02  -2.068069e+02
   3.993741e+02   1.455342e+02
   1.441899e+02   1.654910e+02
  -6.702835e+01   2.652694e+02
  -2.511510e+02   3.482618e+00
  -2.043189e+02  -9.377184e+01
   8.226092e+01  -3.581650e+00
   7.612626e+01   7.832677e+01
  -1.108425e+02   1.167254e+02
  -2.363926e+02  -4.551273e+01
  -5.936399e+01  -1.391309e+02
   1.760343e+02  -1.419590e+02
   2.183851e+02  -3.588027e+01
   1.587000e+02   4.641307e+01
  -4.393143e+01   1.745721e+02
  -1.209576e+02   2.366155e+02
  -2.762857e+02   1.252659e+02
  -2.064927e+02  -9.476813e+01
   2.916637e-01  -2.977861e+02
   1.796027e+02  -2.407549e+02
   8.552492e+01  -6.629098e+01
   2.475073e+01   1.098571e+01
   3.912869e+01   1.483380e+01
   1.446658e+02  -4.257667e+01
   1.362370e+02  -9.631212e+00
   1.100407e+02   1.073448e+02
  -1.703081e+01   1.525889e+02
  -1.359594e+02  -1.390967e+01
  -1.590568e+02  -1.735944e+02
   4.252694e+01  -1.541348e+02
   1.131388e+02  -4.091979e+01
   2.607661e+02   1.771225e+02
   1.339237e+02   2.100761e+02
  -8.922559e+01   2.232110e+02
  -9.442224e+01   7.420884e+01
  -9.720897e+01   1.442518e+01
  -6.494409e+01   2.014670e+01
  -2.070977e+02  -4.341082e+01
  -2.608968e+02  -4.898285e+00
  -1.728432e+02  -2.231599e+02
   9.288318e+01  -2.756632e+02
   2.565264e+02  -2.528154e+02
   2.660280e+02  -4.125845e+01
   1.885062e+02   6.324342e+01
   5.375372e+01   1.851860e+02
  -9.574502e+01   9.532493e+01
  -1.962552e+01  -1.222352e+01
   8.412855e+01  -5.831664e+01
   1.222529e+02  -6.818430e+00
   2.015925e+01   1.237024e+02
  -1.100212e+02   8.827355e+01
  -8.555960e+01  -6.718004e+01
   4.677889e+01  -1.069318e+02
   1.047587e+02  -2.781319e+00
   1.200541e+02   1.508448e+02
  -1.002613e+02   2.252242e+02
  -1.636559e+02   9.656059e+01
  -1.614473e+02  -2.959158e+01
  -1.966826e+02  -1.222742e+02
  -2.135902e+01  -1.270828e+02
   9.070042e+01  -1.459147e+02
   8.003640e+01  -3.031142e+01
   3.529266e+01  -1.638159e+01
  -7.747510e+01  -8.585699e+00
  -1.772525e+01  -4.913609e+01
   1.343786e+02  -5.075135e+01
   8.596209e+01   9.077538e+00
   6.194485e+00   7.446437e+00
  -6.464313e+01   1.814553e+01
  -8.334526e+01  -1.018529e+02
   9.108549e+01  -3.721691e+01
   1.653432e+02   7.551820e+00
   1.907824e+02   1.006452e+02
   6.183101e+01   1.248583e+02
  -1.040415e+02   2.243323e+02
  -1.635903e+02   8.518242e+01
  -8.319307e+01  -1.550579e+01
  -1.858143e+01  -8.125121e+01
   9.285310e+01   4.600494e-02
  -4.113492e+00   3.812506e+01
  -1.104450e+02   6.332869e+01
  -1.430494e+02  -1.015039e+02
  -2.532562e+01  -1.505345e+02
   1.101055e+01  -8.001286e+01
   7.521387e+01  -6.622165e+01
   3.880593e+01   9.500338e+00
   2.648925e+00  -1.851760e+01
   3.904666e+00  -5.783087e+01
  -3.836647e+00  -6.343226e+01
   1.368940e+02  -2.516554e+01
   1.255952e+02   2.994971e+01
   1.795219e+01   1.178783e+02
  -1.731748e+02   5.749212e+01
  -1.267344e+02  -1.002974e+01
  -2.591155e+01  -7.286635e+01
   6.137055e+01  -6.244015e+01
   7.435190e+01  -2.271923e+01
   1.698427e+01   4.296702e+01
  -5.842372e+01  -2.080412e+01
   6.526501e+00   4.241864e-01
   4.356831e+01   4.142568e+01
   5.045377e+01   5.965970e+01
  -1.642916e+01   4.689533e+01
  -7.755484e+01   9.987329e+01
  -1.490331e+02   8.125820e+00
  -7.779715e+01  -9.339431e+01
  -4.975084e+01  -1.562261e+02
   5.629113e+01  -1.374260e+02
   7.041178e+01  -4.868410e+01
   1.928380e+01   6.398732e+01
  -1.429330e+01   6.802645e+00
   5.620283e+01   6.299617e-01
   6.433708e+01   1.486402e+01
   1.229708e+01   3.682689e+01
  -1.096529e+02   7.459590e+01
  -8.980540e+01   3.972303e+01
  -8.634800e+00  -5.338863e+01
   3.673972e+01  -5.900389e+01
   9.181928e+01  -8.496380e+01
   1.167626e+02   1.032919e+01
  -3.009512e+00   1.109113e+02
  -1.081734e+02   6.329130e+01
  -1.594527e+02   3.896681e+01
  -1.500947e+02  -4.334190e+01
  -5.621326e+01  -9.696047e+01
   1.801887e+01  -6.817376e+01
   5.723930e+01  -3.391316e+01
   4.576009e+01  -1.005846e+02
   1.987418e+01  -3.278724e+01
   3.002843e+01  -4.636783e+01
   8.059126e+01   6.630638e+01
   8.563775e+01   9.450959e+01
   5.240727e+01   1.845607e+02
  -5.697306e+01   1.275524e+02
  -8.870658e+01   1.923673e+01
  -2.330549e+01  -8.789448e+01
  -1.206132e+01  -1.066535e+02
  -1.709087e+01  -3.403360e+01
   2.483891e+01   6.194611e+01
  -6.167574e+00   4.853446e+01
  -1.001928e+01   2.023392e-01
   1.737663e+01   2.854216e+01
   1.130649e+01   5.318243e+01
  -1.896958e+01   7.504817e+01
  -6.600121e+01  -8.610857e+00
  -2.983241e+01  -2.000583e+01
  -7.830082e+01  -3.959274e+01
  -3.364768e+01  -5.202992e+01
   1.283273e+02  -6.667302e+01
   1.090725e+02  -2.444701e+01
   3.955189e+01   2.706415e+01
  -8.435136e+00   4.701271e+01
  -3.562359e+01   1.071930e+01
  -1.451238e+01  -8.316796e+01
   6.773843e+01  -3.919127e+01
  -1.191069e+01   4.958912e+01
   4.790444e+01   6.542586e+01
   2.173859e+00   3.838870e+01
  -1.297912e+01   1.573591e+01
   4.674280e+01   6.485832e+00
   4.109212e+01   3.772225e+01
  -3.755353e+01   9.170141e+01
  -6.263767e+01   1.026989e+02
  -1.363160e+02   3.500265e+01
  -6.092413e+01  -8.741666e+01
   5.837649e+00  -7.987551e+01
   4.359375e+01  -7.042581e+01
   3.952285e+01   1.424344e+01
  -4.600306e+01   1.059124e+01
  -8.577859e+01  -1.491894e+01
  -5.276090e+01  -2.594516e+01
   4.718189e+01  -7.026977e+01
   4.906095e+01  -8.743057e+01
   9.637424e+01   3.759909e+01
   2.569101e+01   7.562294e+01
  -3.043964e+00   6.783885e+01
  -3.409098e+01  -1.431301e+00
   2.302982e+01  -7.838485e+00
   2.408078e+01   1.185357e+01
   2.974717e+01   9.733564e+01
  -7.776781e+01   5.342376e+01
  -7.346184e+01   1.523541e+01
  -5.711712e+01  -6.144731e+01
  -1.099250e+01  -7.082207e+01
   7.913919e+01  -6.820374e+01
   7.317884e+01   2.906165e+00
   2.473712e+01   1.162496e+02
  -4.400894e+00   5.387161e+01
  -4.591033e+01   2.644935e+00
  -3.153288e+01  -6.408736e+01
   1.538917e+01   1.091597e+00
  -7.227071e+00   1.854559e+01
   9.324226e+00  -2.695720e+01
  -4.404137e+01  -6.484197e+01
   1.731165e+01  -5.172696e+01
   4.089141e+01  -6.058925e+01
   8.839623e+01   3.089351e+01
   5.169601e+01   4.207508e+01
   1.779308e+01   5.458513e+01
  -5.323128e+01   1.191707e+01
  -5.527922e+01   2.333372e+00
  -4.011118e+01   1.785518e+01
  -1.375645e+01  -1.818378e+01
   2.413233e+01  -1.857282e+01
  -1.851511e+01  -2.393113e+01
   1.403041e+01   1.969770e+01
   5.502281e+01  -1.067446e+01
   1.914112e+01   4.129755e+01
  -3.173548e+01   7.590569e+01
  -1.139429e+02   9.104152e+01
  -1.416710e+02  -2.866147e+01
  -7.097432e+01  -1.867748e+01
  -3.934049e+01  -3.684880e+01
   4.160939e+01  -1.034777e+02
   4.041566e+01  -1.894002e+01
   5.826756e+01  -1.385944e+01
   7.008645e-01   1.851448e+01
  -1.808589e+01  -2.540313e+01
   5.072498e+00   3.499005e+01
   3.483807e+01   9.556843e+00
  -2.501275e+01   5.000083e+01
  -2.651294e+00   5.049249e+01
  -2.115462e+01   6.261371e+00
  -8.723227e+01  -9.394037e+01
  -4.783709e+00  -8.764088e+01
   1.557790e+01  -2.507555e+01
   3.941127e+01   5.369806e+01
  -6.291528e+01   6.808255e+01
  -2.678774e+01   3.330978e+01
  -7.160137e+01  -2.084564e+01
  -3.599946e+01  -3.083046e+01
   3.116688e+01  -3.899019e+01
   2.522566e+01  -9.070713e+00
  -1.960809e+01  -3.855124e+01
  -1.136537e+01   2.014345e+01
   1.692587e+01  -7.057821e+01
   3.669735e+01  -7.042545e+01
   5.999459e+01  -6.491934e+00
   6.370191e+01  -4.851640e+00
   5.065752e+01   4.293916e+01
  -3.519393e+01   3.705532e+01
  -6.241692e+01   2.598511e+00
   3.400508e+01  -3.522985e+01
  -2.870192e+01   4.676228e-01
   2.318289e+01  -1.864309e+01
   2.482713e+01   2.484232e+01
  -2.620356e+01   1.293843e+01
  -2.375740e+01   1.905134e+01
  -5.206196e+00  -8.023338e+00
  -7.592165e+00   7.638619e+00
  -3.143947e+01  -1.325116e+01
  -9.062257e+00   2.513566e+01
   5.120615e+01  -5.389710e-01
   3.169125e+01  -2.824537e+01
   2.291314e+01  -6.420308e+00
   3.080310e+01   4.675431e+01
   8.123681e+00   7.218576e+01
  -1.173649e+01  -8.953004e+00
  -5.189552e+01  -5.576315e+01
   2.769187e+01  -4.388462e+01
   5.139516e+00  -1.857814e+01
   6.398630e+01   2.607540e+01
   3.578561e+01   2.988741e+01
  -3.396122e+01   4.778042e+00
  -5.345298e+01   4.185560e+00
  -1.131807e+01  -9.496123e-01
   5.945833e+00   1.673636e+01
   1.008295e+01   7.824093e+00
  -3.719707e+01   3.151945e+00
  -6.984668e+01  -1.639425e+01
