
 $NMID
 id='ANONYMOUS ', fmtdat='(2E16.6)'
 volume=1.0
 tramp=1.0
 $END
  -2.699732e+03  -2.710243e+02
  -1.504871e+03  -1.129896e+03
   1.678842e+02  -1.293492e+03
   1.263971e+03  -7.672137e+02
   6.649965e+02  -1.312095e+02
  -8.140112e-01   8.851713e+00
  -2.757880e+02  -1.821672e+02
  -2.513778e+01  -2.343928e+02
   3.896850e+02  -4.029118e+02
   4.881546e+02  -9.624701e+01
   1.551871e+02   2.537288e+02
  -1.220177e+01   4.786697e+02
  -1.073100e+02   2.539313e+01
  -5.903581e+01  -2.674158e+02
   6.526800e+01  -4.063090e+02
   3.026796e+02  -5.351205e+01
   1.176426e+02   3.465742e+02
  -6.472294e+01   4.095669e+02
  -3.213172e+02   1.644861e+02
  -2.955142e+02  -2.446412e+02
  -7.063123e+01  -2.866330e+02
   4.487490e+01  -1.989490e+02
   8.094729e+01  -4.193412e+01
  -1.597029e+02  -1.027168e+02
  -1.811956e+02  -2.213999e+02
   1.121212e+01  -3.855958e+02
   4.438137e+02  -9.730326e+01
   3.939185e+02   1.975894e+02
   1.936822e+02   2.703808e+02
  -2.067801e+02   9.727883e+01
  -4.684446e+02  -1.981486e+02
  -7.487657e+01  -2.688318e+02
   3.093134e+02  -2.336371e+02
   3.811152e+02  -6.794885e+01
   2.547593e+02   1.314194e+02
   1.856916e+01   2.282827e+02
   1.331566e+01   8.405228e+01
   4.216251e+01  -2.689687e+01
   1.824689e+02  -7.189929e+01
   1.983523e+02   1.598149e+02
  -2.200192e+00   4.218822e+02
  -1.140270e+02   3.159587e+02
  -1.660838e+02  -2.977558e+01
  -7.710061e+01  -1.497466e+02
   7.002173e+01  -6.596067e+01
   1.630650e+02   3.181372e+02
  -1.549804e+02   3.005971e+02
  -4.223187e+02  -1.860749e+01
  -2.413030e+02  -2.392443e+02
  -1.209893e+02  -3.569371e+02
   3.057281e+02  -1.405536e+02
   4.233808e+02   4.066959e+01
   1.560119e+02   1.930292e+02
  -8.202895e+00   1.688754e+02
  -1.881242e+02   3.155467e+01
  -1.379840e+02  -9.411802e+01
  -1.780039e+01   7.975891e+00
   3.004326e+01   2.629961e+01
  -6.861936e+01   4.794140e+01
  -1.705180e+02  -8.074710e+01
  -3.100567e+01  -1.511917e+02
   1.765404e+02  -1.638058e+02
   2.558149e+02  -7.240100e+01
   1.672244e+02   5.937718e+01
  -4.117271e+00   2.038640e+02
  -2.804083e+02   2.663711e+02
  -3.405602e+02   1.442382e+02
  -1.403962e+02  -1.121997e+02
   3.858004e+01  -2.271930e+02
  -2.235552e-01  -2.950240e+02
  -2.811539e+01  -9.777761e+01
  -2.422367e+01  -1.181809e+02
   9.061577e+01  -9.950365e+01
   1.885472e+02  -7.574081e+01
   1.983307e+02   1.461148e+02
   4.400848e+01   1.823479e+02
  -1.314159e+02   9.268467e+01
  -1.397309e+02  -7.364792e+01
  -1.299793e+02  -2.216352e+02
   5.463790e+01  -1.408258e+02
   2.152123e+02  -1.169766e+01
   2.517107e+02   1.148704e+02
   1.601628e+02   2.554069e+02
  -3.546479e+01   1.799047e+02
  -1.514165e+02   1.079289e+02
  -1.134740e+02   4.795261e+01
  -1.157349e+02   5.133857e+01
  -2.661146e+02   3.770995e+01
  -3.440852e+02  -1.054398e+02
  -2.463044e+02  -2.675129e+02
   1.557704e+01  -3.753273e+02
   3.370297e+02  -3.576979e+02
   4.463127e+02  -1.629658e+02
   1.854551e+02   9.269983e+01
  -3.439940e+01   2.083592e+02
  -1.194802e+02   9.922845e+01
  -1.476976e+00   8.258818e+01
   1.119315e+02  -3.440810e+01
   1.325548e+02   2.020586e+01
  -6.220453e+00   8.729676e+01
  -1.015921e+02   1.130298e+02
  -4.438106e+01  -9.918544e+01
  -2.143637e+01  -8.197751e+01
   1.188656e+02   2.829312e+01
   1.277186e+02   1.987834e+02
   7.513812e+00   3.180675e+02
  -1.936950e+02   1.616610e+02
  -2.733560e+02  -4.295366e+01
  -1.865337e+02  -1.518339e+02
  -6.792208e+00  -2.044620e+02
   1.252204e+02  -1.514553e+02
   1.154026e+02   5.687281e+00
   1.499075e+01   2.599956e+01
  -1.088014e+01  -3.204938e+01
  -1.389726e-02  -7.355584e+01
   6.587678e+01  -2.802259e+01
   9.700661e+01   6.071624e+01
   4.710953e+01   4.694065e+01
  -5.024883e+01   1.768886e+01
  -2.602206e+01  -3.176949e+01
   1.180488e+02  -4.130045e+01
   2.273165e+02   6.064663e+01
   1.687046e+02   1.268683e+02
  -4.647654e+01   2.214951e+02
  -1.409666e+02   1.530523e+02
  -2.129189e+02   2.377666e+01
  -1.090146e+02  -2.037612e+01
   7.713339e+00  -7.643238e+01
   6.216581e+01   2.906293e+01
  -1.796683e+01   8.403420e+01
  -1.179519e+02  -6.051158e+00
  -1.126634e+02  -8.918147e+01
  -4.133561e+01  -1.796176e+02
   5.591364e+01  -9.593471e+01
   9.059531e+01   3.175458e+01
   2.185452e-01   6.428442e+01
  -3.577210e+01  -1.571873e+01
  -3.489689e+01  -1.047923e+02
   1.617903e+02  -1.340491e+02
   1.738160e+02  -2.730791e+01
   1.024084e+02   9.380036e+01
  -5.641186e-01   1.282851e+02
  -1.076034e+02   9.134750e+01
  -9.438596e+01   3.804929e+00
  -5.480947e+01  -9.218016e+01
   3.509176e+01  -5.410762e+01
   2.863588e+01  -3.506224e+01
   3.039092e+01   1.516217e+01
  -1.870098e+01   3.232956e+01
   1.460196e+01  -7.684460e+01
   4.887185e+01  -5.007001e+00
   1.029582e+02   4.311599e+01
  -2.026022e+01   1.378750e+02
  -1.394198e+02   4.836393e+01
  -2.170315e+02  -5.267014e+01
  -1.653711e+02  -1.832623e+02
  -2.075966e+01  -1.660881e+02
   1.320841e+02  -1.560743e+02
   8.753687e+01  -2.034647e+01
   4.554136e+01   3.748953e+01
   3.469830e+01   4.118529e+01
   8.978441e+01  -2.532258e+01
   1.109666e+02   6.882535e+00
   9.911650e+01   6.270494e+01
  -3.858409e+01   1.263859e+02
  -1.045539e+02   8.381565e+01
  -1.366514e+02   1.712876e+01
  -1.407122e+00  -6.832265e+01
   1.378085e+02  -9.640177e+01
   1.559039e+02   7.221772e+01
   6.632554e+01   1.765938e+02
  -9.553625e+01   1.381580e+02
  -2.021916e+02   1.257581e+01
  -1.509146e+02  -4.648363e+01
  -3.660758e+01  -1.091866e+02
   1.107718e+01  -5.349610e+01
   9.327305e+01  -9.473179e+01
   6.213842e+01  -2.301610e+01
   4.929187e+01  -6.569773e+01
   5.480017e+01  -3.958428e+01
   1.356602e+02  -2.091018e+01
   6.227688e+01   1.185026e+02
  -1.067390e+01   2.040595e+02
  -9.195392e+01   1.114306e+02
  -6.193417e+01   5.301313e+01
  -5.824671e+01  -1.272633e+02
  -1.037012e+00  -1.006698e+02
   4.446078e+01  -3.640617e+01
   7.213034e+01  -1.829256e+01
  -1.584996e+01   1.417445e+01
   1.156865e+01   3.787093e+01
   3.147174e+01   1.864831e+01
   5.896218e+01   3.583361e+01
   4.113397e+01  -5.429174e+00
  -7.978174e+01   5.158794e+01
  -1.140359e+02  -1.459467e+01
  -7.342473e+01  -6.659862e+01
   2.244983e+01  -7.342389e+01
   1.077358e+02  -4.954369e+01
   9.653773e+01  -2.058575e+01
   4.589383e+01   5.059127e+01
  -3.487354e+00   5.230645e+01
  -8.490488e+01  -5.150735e+01
   2.419629e+01  -3.011677e+01
   9.237340e+00  -7.835313e+01
   4.428475e+01   6.485172e+00
   6.564175e+01   4.273794e+01
   6.792436e+01   1.001022e+01
   7.491219e+01   1.691400e+01
   7.617142e+01   7.303367e+00
   4.640460e+01   5.004657e+01
  -2.978280e+01   1.197829e+02
  -1.146032e+02   1.313695e+02
  -1.864569e+02  -1.702244e+01
  -8.887627e+01  -6.540798e+01
   1.559580e+01  -4.904773e+01
   5.401892e+01  -4.898560e+01
   8.653551e+01  -7.159281e+00
  -2.764847e+01   4.972018e+01
  -5.597262e+01   1.138198e+01
  -1.596788e+01  -9.621294e+01
   6.700257e+01  -6.984531e+01
   1.631309e+02  -2.514313e+01
   1.332255e+02   5.065143e+01
   2.483658e+01   3.108790e+01
  -4.309380e+01   4.893625e+01
  -4.722066e+01  -1.653325e+01
   6.761108e+01  -2.630369e+01
   7.089996e+01   2.654879e+01
   3.305158e+00   8.528110e+01
  -9.693950e+01   1.276232e+02
  -1.448672e+02   6.038061e+01
  -1.039693e+02  -7.648284e+01
  -4.482184e+01  -1.506338e+02
   4.137409e+01  -7.411244e+01
   6.020047e+01  -8.282268e+00
   5.904190e+01   1.043430e+02
   2.734033e+01   7.211898e+01
  -6.239432e+00  -1.999710e+01
  -4.952541e+01  -8.999913e+00
   2.559559e+00  -5.739175e+01
  -8.433480e+00  -2.253590e+01
  -1.513833e+01  -4.563763e+01
  -5.551664e+01  -9.118207e+01
   2.250429e+01  -1.266813e+02
   9.775262e+01  -5.889552e+01
   9.365854e+01   5.949906e+01
   1.121777e+02   6.868325e+01
   2.773247e+01   3.214021e+01
  -7.597734e+01   7.888593e+01
  -4.095907e+01   1.524650e+01
  -4.027140e+01  -1.382218e+01
   2.963294e+01  -3.778515e+01
   6.341513e+00   3.678084e+01
  -7.442234e+00   2.315597e+01
   2.811877e+01  -1.357509e+01
   8.431531e+01   1.910413e+01
   6.663231e+01   1.786669e+01
   2.396250e+01   1.487447e+01
  -1.055032e+02   1.266657e+02
  -1.202183e+02   8.151392e+01
  -6.853164e+01  -3.222106e+01
  -1.270659e+01  -1.127768e+02
   1.911511e+01  -7.815519e+01
   7.373943e+01  -6.774999e+01
   7.805615e+01   1.365669e+00
   3.030571e+01  -1.187103e+01
  -8.293015e-01   1.349853e+01
  -2.656037e+01  -3.154083e+01
   1.652973e+01   6.178005e+01
   2.841605e+01   8.753289e+01
  -1.896702e+01   4.576778e+01
  -6.916668e+01   7.995871e+00
  -8.087358e+01   2.077060e+01
  -4.942217e+01  -8.090602e+01
   2.741478e+01  -5.924224e+01
   3.039160e+01   4.869134e+01
   5.280531e+01   7.026984e+01
  -3.286439e+01   8.462809e+01
  -7.959551e+01  -3.392619e+01
  -3.695721e+01  -4.967114e+01
  -6.583543e+00  -3.514189e+01
   3.299301e+01  -5.195144e+01
  -4.109880e+01  -2.789367e+01
  -4.428230e+01   2.190975e+00
  -1.048506e+00   1.002417e+01
   9.981940e+01  -1.285700e+01
   8.973771e+01  -3.461639e+01
   7.736351e+01   9.922958e+00
   1.285718e+00   7.572627e+01
  -7.002434e+01   7.230770e+01
   1.004490e+01  -4.975649e+00
   1.678518e+01  -5.437895e+01
   4.498240e+01  -4.355022e+01
   4.074643e+01   2.724753e+01
   4.715074e+01   4.057382e+01
   1.274589e+01   1.715236e+01
  -3.319271e+01   1.210873e+01
  -1.472320e+01  -5.247826e+01
  -5.402570e+01   7.061970e+00
  -2.217284e+00   3.558705e+01
   1.539792e+01   3.232286e+01
   1.403768e+01  -2.039996e+01
  -2.575839e+01  -3.786846e+01
  -1.171557e+00  -2.718832e+01
   2.736302e+01   2.950959e+01
   1.231838e+01   4.763839e+00
  -3.951026e+01   2.768219e+01
  -6.639149e+01   1.032290e+00
  -1.936550e+00  -7.793005e+01
   3.846381e+01  -4.898677e+01
   9.143779e+01   3.855476e+00
  -1.748361e+01   3.305795e+01
  -1.858490e+01   1.056570e+01
  -3.535276e+01   4.340839e+01
   1.750944e+00   2.101033e+01
   3.089347e+01  -1.722503e+01
   5.103016e+01  -2.777879e+01
  -2.582367e+00   7.310126e+00
  -2.308395e+01  -1.785813e+01
