
 $NMID
 id='ANONYMOUS ', fmtdat='(2E16.6)'
 volume=1.0
 tramp=1.0
 $END
  -2.901989e+03  -9.251591e+02
  -1.395187e+03  -1.496223e+03
   4.983896e+02  -1.843086e+03
   1.222642e+03  -7.489799e+02
   7.510982e+02  -2.820628e+02
   2.278986e+02   2.629429e+02
  -2.177523e+02  -5.640621e+01
   1.070688e+02  -5.322552e+02
   4.184027e+02  -5.000040e+02
   5.149822e+02  -1.377961e+02
   4.095298e+02   4.511943e+02
   4.351229e+01   5.258463e+02
  -1.990519e+02   1.543677e+02
  -2.018337e+02  -3.247746e+02
   1.623598e+02  -5.405603e+02
   3.313968e+02  -8.247963e+01
   3.036326e+02   4.456524e+02
  -1.143287e+02   5.759569e+02
  -4.464493e+02   2.295795e+02
  -3.446008e+02  -1.337056e+02
  -2.023772e+02  -2.848315e+02
   9.155539e+01  -2.239604e+02
   3.941001e+01  -8.212346e+01
  -1.552829e+02  -7.704249e+01
  -2.692318e+02  -2.587325e+02
   5.714854e+01  -3.781508e+02
   4.661047e+02  -9.708428e+01
   6.735653e+02   1.728690e+02
   1.510415e+02   3.869184e+02
  -3.023001e+02   1.256059e+02
  -2.727098e+02  -2.542753e+02
  -8.072838e+01  -3.439685e+02
   3.052928e+02  -3.286546e+02
   3.797250e+02  -6.467159e+01
   1.790817e+02   1.578230e+02
   9.000940e+01   3.316279e+02
   1.308597e+01   1.944631e+02
   6.770284e+01  -6.403066e+01
   9.920312e+01  -5.978628e+01
   1.138560e+02   1.926889e+02
  -1.288850e+02   4.252404e+02
  -2.513200e+02   4.471588e+02
  -2.091467e+02   3.698081e+01
  -1.795138e+02  -3.497263e+02
   1.521125e+02  -1.107195e+02
   9.617292e+01   2.755141e+02
  -1.701517e+02   3.506611e+02
  -4.352135e+02   4.264786e+01
  -5.037095e+02  -3.065182e+02
  -1.347894e+02  -3.765334e+02
   2.712034e+02  -1.788274e+02
   4.235423e+02   1.100030e+02
   2.457912e+02   1.845985e+02
  -9.015364e+01   1.632642e+02
  -2.332997e+02   1.084370e+01
  -1.306448e+02  -1.107583e+01
  -3.526547e+01  -2.230824e+01
   7.762897e+00   6.065911e+01
  -8.614454e+01   3.219378e+01
  -1.444804e+02  -8.920135e+01
  -1.283937e+02  -1.336274e+02
   1.874117e+02  -1.624526e+02
   2.893991e+02  -1.785513e+02
   2.420664e+02   1.078477e+02
   9.716718e+00   3.096571e+02
  -2.468428e+02   2.754944e+02
  -3.521771e+02   1.562697e+02
  -2.185935e+02  -1.629498e+02
  -5.336963e+01  -2.845122e+02
   2.238864e+01  -2.627988e+02
   4.921572e+01  -1.074760e+02
   3.179812e+01  -1.512117e+02
   1.596824e+02  -1.105568e+02
   2.220302e+02  -2.315810e+01
   2.111552e+02   1.332810e+02
   4.876001e+00   2.309441e+02
  -1.004509e+02   1.087580e+02
  -1.722371e+02  -4.978205e+01
  -1.036680e+02  -2.411917e+02
   4.223206e+01  -2.453697e+02
   2.149151e+02   2.777759e+01
   2.772370e+02   2.041027e+02
   1.169736e+02   2.411139e+02
   1.927058e+01   2.116019e+02
  -1.565198e+02   1.259195e+02
  -1.112504e+02   3.251937e+01
  -1.281543e+02   6.145585e+01
  -2.592444e+02   9.758823e+00
  -3.260372e+02  -8.311085e+01
  -2.893554e+02  -3.619485e+02
  -4.630294e+01  -4.165738e+02
   3.603943e+02  -3.304040e+02
   3.752725e+02  -1.350615e+02
   2.502089e+02   1.357145e+02
   7.103202e+00   2.407021e+02
  -1.022993e+02   1.465118e+02
   1.520091e+01  -2.219464e-01
   8.243593e+01  -2.038601e+01
   1.335445e+02   6.286753e+01
  -2.305919e+01   1.235885e+02
  -1.332170e+02   8.828427e+01
  -9.690026e+01  -7.547708e+01
   1.018111e+02  -1.259661e+02
   1.441458e+02   5.878795e-01
   1.192770e+02   2.249203e+02
  -9.284943e+01   3.363157e+02
  -2.841747e+02   1.229666e+02
  -2.843130e+02  -7.267715e+01
  -3.023307e+02  -2.472014e+02
  -4.640453e+01  -2.737572e+02
   1.543770e+02  -1.502918e+02
   1.280447e+02   2.373171e+01
  -1.419361e+01   2.387145e+00
  -2.382406e+01  -5.053454e+01
  -5.100097e+01  -9.259888e+01
   1.429824e+02  -2.076445e+01
   1.409187e+02  -9.626334e+00
  -5.641717e+00   4.103207e+01
  -6.215094e+01   9.581475e+00
  -1.054401e+01  -9.695000e+01
   1.177049e+02  -4.832917e+01
   2.489463e+02   5.559012e+01
   1.697863e+02   2.045437e+02
  -2.049297e+01   2.324163e+02
  -2.303630e+02   2.004901e+02
  -2.872400e+02   1.141019e+02
  -1.420911e+02  -4.785782e+01
   8.190638e+00  -1.728656e+01
   4.653869e+01   1.090895e+01
  -5.673092e+01   1.124190e+02
  -1.402985e+02   2.896936e+01
  -1.576448e+02  -1.354543e+02
  -4.652151e+00  -1.607171e+02
   1.294932e+02  -8.718570e+01
   1.231876e+02  -3.422658e+00
   1.936631e+00   5.346417e+01
  -1.101196e+00  -1.748343e+01
   3.980424e+00  -8.416568e+01
   1.057314e+02  -1.085850e+02
   1.883489e+02   1.759870e+00
   1.288660e+02   1.112967e+02
   1.239674e+01   1.828049e+02
  -1.277718e+02   1.627340e+02
  -1.216812e+02  -5.454962e+01
  -7.405685e+01  -8.818474e+01
   8.360039e+01  -8.799712e+01
   5.235052e+01  -2.078264e+01
   7.911755e+00   4.444756e+01
  -6.377595e+01   1.455495e+01
   2.278464e+01  -3.738828e+01
   9.737480e+01   1.433427e+01
   1.629042e+02   8.929300e+01
  -1.259849e+01   1.116252e+02
  -1.043573e+02   1.428959e+02
  -2.193054e+02  -2.870938e+01
  -1.231618e+02  -1.731690e+02
  -7.466112e+01  -2.154700e+02
   7.780322e+01  -1.746830e+02
   1.281941e+02  -9.568583e+00
   4.200195e+01   3.264220e+01
   3.175987e+01   2.155972e+01
   4.790782e+01  -2.248728e+01
   9.598666e+01   2.472232e+01
   5.454405e+01   1.738451e+01
  -2.170389e+01   6.490717e+01
  -1.052604e+02  -1.087634e+01
  -1.026510e+02  -5.724509e+01
  -1.971565e+01  -1.360873e+02
   1.294761e+02  -7.463901e+01
   1.885781e+02   1.025284e+02
   9.802721e+01   2.151371e+02
  -1.707476e+02   2.023672e+02
  -1.820107e+02   8.618662e+01
  -1.936994e+02  -1.004492e+02
  -9.362583e+01  -1.564716e+02
   4.452236e+01  -1.082226e+02
   1.080664e+02  -8.450273e+01
   7.747868e+01  -6.185376e+01
   8.436686e+01  -6.771785e+01
   7.950295e+01  -6.345009e+01
   1.270436e+02   1.729552e+01
   1.061207e+02   9.006865e+01
   2.548627e+01   2.031981e+02
  -9.576319e+01   1.088903e+02
  -1.893638e+02   5.911684e+01
  -1.374389e+02  -1.506531e+02
   1.625056e+01  -1.582188e+02
   6.872386e+01  -7.478974e+01
   6.646756e+01   2.899875e+01
  -5.092355e+01  -6.685251e+00
  -3.200689e+01   1.771167e+01
  -2.436074e+01   2.312246e+01
   8.801662e+01  -1.523850e+01
   3.697003e+01   5.523212e+01
  -6.086540e+01   2.244019e+01
  -1.616002e+02   4.129894e+01
  -1.564915e+02  -1.031080e+02
  -6.657065e+00  -1.074027e+02
   1.731811e+02  -2.976917e+01
   1.391648e+02   6.934113e+00
   3.040386e+01   4.146755e+01
  -9.282308e+01   1.462086e+01
  -6.063994e+01   1.125693e+01
  -2.401100e+01  -3.739725e+01
   4.053848e+01  -1.058314e+02
   8.456049e+01   1.509596e+01
   1.915519e+01   4.309577e+01
   3.236759e+01   2.360311e+01
   6.403888e+01   1.748559e+01
   3.179173e+01  -4.876140e+01
   7.639590e+01   6.622584e+01
  -2.825537e+01   1.019843e+02
  -7.833583e+01   7.059609e+01
  -1.904049e+02   8.958056e+01
  -1.293916e+02  -1.354293e+02
   1.986260e+01  -1.320465e+02
   1.024270e+02  -7.159903e+01
   2.807014e+01  -1.175780e+00
  -2.091106e+01   2.457378e+01
  -1.615411e+02  -7.830867e+00
  -6.828087e+01  -7.704153e+01
   1.057314e+02  -8.456832e+01
   1.988790e+02  -3.561700e+01
   1.318557e+02   6.361918e+01
   2.861039e+01   8.262095e+01
  -1.039222e+02   3.329836e+01
  -2.274344e+01   1.489409e+01
   5.176886e+01  -6.633655e+00
   8.621975e+01  -1.555336e+01
   7.861585e-01   8.907573e+01
  -6.621942e+01   1.516568e+02
  -1.422808e+02   2.148162e+01
  -1.107987e+02  -9.754554e+01
   1.281101e+01  -2.075530e+02
   1.339081e+02  -1.283510e+02
   8.349552e+01   2.457037e+01
  -3.583542e+00   7.358539e+01
  -2.911860e+01   9.786037e+01
  -5.721719e+01  -2.928196e+01
   3.288358e-01  -2.635931e+01
  -5.254652e+01   4.345511e+00
   1.442018e+01   6.060018e+00
  -1.936063e+01   5.446687e+00
  -6.161621e+01  -4.684622e+01
   3.445164e+01  -6.561558e+01
   6.111025e+01  -6.500243e+01
   9.982502e+01   3.514720e+01
   8.808046e+01   2.882041e+01
  -8.242962e+00   7.875361e+01
  -1.991438e+01   1.470714e+01
  -8.406436e+01  -1.311092e+01
  -1.301132e+01  -1.392403e+01
   3.776042e+01  -3.389384e+01
   3.750828e+01   2.018321e+01
  -1.509492e+01   1.588594e+01
  -1.175281e+01  -2.805388e+01
   5.354979e+01  -4.380037e+01
   7.462419e+01   6.703089e+01
   1.014987e+01   6.273042e+01
  -8.739811e+01   1.100634e+02
  -1.616048e+02   4.422910e+01
  -1.730896e+02  -6.974768e+01
  -5.781426e+01  -1.620717e+02
   7.974181e+01  -1.395456e+02
   1.302512e+02  -4.905944e+01
   8.245623e+01   3.308556e+01
  -2.131775e+01   5.149064e+01
  -2.404534e+00  -2.919994e+01
   7.092668e+01  -5.496107e+00
  -1.633387e+01   4.933607e+01
  -7.356066e+00   1.072363e+02
  -2.224443e+01   9.213664e+01
  -1.039145e+02  -2.858724e+01
  -5.063710e+01  -5.424437e+01
  -2.343907e+01  -7.491725e+01
   5.264077e+01  -2.392953e+01
   8.226283e+01   2.707655e+01
   3.011517e+01   1.217460e+02
  -7.123738e+01   7.976735e+01
  -1.166567e+02  -3.666936e+01
  -7.000812e+01  -1.699017e+01
   5.137061e+01  -3.948378e+01
   5.534466e+01  -1.688198e+01
  -2.473802e+01   1.578444e+00
  -7.236775e+01   3.363128e+01
   1.885441e+01   5.598072e+00
   5.128619e+01  -2.335237e+01
   4.972864e+01  -5.913208e+01
   9.474238e+01  -1.952332e+01
  -8.808690e+00   7.689028e+01
  -5.171378e+01   4.561427e+01
  -7.246423e+01   9.374835e+00
  -4.410013e+01  -4.346078e+01
   1.495696e+01  -4.470839e+01
   4.644811e+01  -2.289039e+01
   9.531981e+00   6.696323e+01
   2.741254e+01   5.766876e+00
  -3.602450e+01   1.856450e+01
  -5.939812e+01   5.695830e+00
   7.785420e+00  -8.768596e+00
   2.502316e+01  -1.913204e+00
   2.775726e+01   3.677158e+01
  -1.430710e+01   1.237228e+00
   5.756614e+01  -2.195706e+01
   2.147564e+01   3.789160e-01
  -2.080830e+00  -1.471627e+01
  -2.935622e+01   8.292552e+01
  -3.347930e+01   2.643254e+01
  -4.489976e+01  -1.804486e+01
  -4.379224e+01  -3.565426e+01
   6.241724e+01  -3.921045e+01
   4.894363e+01   2.904228e+01
   9.810850e+01   8.618618e+01
  -5.108377e+01   1.110359e+01
  -4.104078e+01   2.978897e+01
  -3.214500e+01  -2.444177e+01
  -2.161079e+01  -2.646530e+01
   2.406710e+01  -2.172009e+00
  -4.646428e+01   2.290836e+01
  -5.564337e+01   3.875551e+01
