
 $NMID
 id='ANONYMOUS ', fmtdat='(2E16.6)'
 volume=1.0
 tramp=1.0
 $END
   2.093791e+03  -3.468652e+02
   1.705862e+03   8.298502e+02
   3.139816e+02   1.513799e+03
  -6.363111e+02   1.235988e+03
  -7.751235e+02   1.346473e+02
  -3.754706e+02  -1.882723e+02
   1.104029e+02  -3.495580e+01
   5.705755e+01   2.634863e+02
  -2.167619e+02   4.224151e+02
  -4.004522e+02   1.340591e+02
  -3.206840e+02  -3.001943e+02
  -4.424480e+01  -4.885560e+02
   2.381324e+02  -1.714711e+02
   1.082498e+02   2.227786e+02
   1.156790e+01   4.167951e+02
  -2.646672e+02   9.518278e+01
  -2.592539e+02  -3.644992e+02
   4.169428e+01  -5.449452e+02
   2.712714e+02  -3.000711e+02
   3.562171e+02   8.133725e+01
   2.073147e+02   2.514239e+02
  -4.239779e+01   1.245158e+02
  -1.026538e+01   7.802187e+01
   8.802692e+01   8.294808e+01
   7.425172e+01   2.790431e+02
  -2.549929e+00   2.312731e+02
  -3.456290e+02   1.841316e+02
  -3.818357e+02  -1.682400e+02
  -3.741235e+01  -2.066802e+02
   1.686315e+02  -3.059953e+01
   3.201781e+02   2.313744e+01
   1.524876e+02   2.297355e+02
  -7.561522e+01   1.891757e+02
  -3.210731e+02   5.131033e+01
  -2.274189e+02  -1.319268e+02
  -1.337056e+02  -1.883407e+02
  -8.229843e+00  -1.726192e+02
  -8.523803e+01   8.280020e+00
  -8.676510e+01   7.934012e+01
  -1.034749e+02  -5.969953e+01
  -4.592858e+01  -2.652920e+02
   1.075702e+02  -2.365346e+02
   1.531722e+02  -6.769854e+01
   4.182734e+01   1.468015e+02
  -9.861083e+01   9.265688e+01
  -1.642761e+02  -1.921206e+02
   2.197155e+01  -3.122957e+02
   2.840835e+02  -3.126302e+01
   3.263921e+02   3.021486e+02
   1.579472e+02   4.204210e+02
  -2.182547e+02   2.310967e+02
  -3.800451e+02   5.310377e+01
  -2.336140e+02  -1.235330e+02
  -4.052596e+00  -1.121882e+02
   1.823331e+02  -1.117365e+02
   1.708049e+02  -7.975888e+01
   7.157343e+01   1.485997e+01
  -4.899016e+01   2.776546e+01
   1.734025e+01  -2.942733e+01
   1.730633e+02   9.303430e+00
   1.349325e+02   9.592995e+01
  -1.026560e+02   2.005846e+02
  -2.425117e+02   1.153448e+02
  -1.937498e+02  -6.294190e+01
   2.473332e+01  -2.661703e+02
   3.000389e+02  -2.596752e+02
   3.038586e+02  -1.031525e+02
   1.763439e+02   1.260888e+02
   7.900529e+01   2.057187e+02
  -1.731616e+00   2.075150e+02
  -3.869789e+00   1.136528e+02
  -5.235972e+00   1.052141e+02
  -1.119819e+02   1.621664e+02
  -1.486299e+02   5.772488e+01
  -1.675235e+02  -1.211254e+02
  -3.494027e+01  -1.714897e+02
   4.140120e+01  -1.460315e+02
   1.447522e+02   1.841398e+01
   1.740800e+02   1.596094e+02
  -5.539799e+01   1.585647e+02
  -2.066980e+02   2.471440e+01
  -2.567215e+02  -1.352049e+02
  -1.697606e+02  -2.621815e+02
   3.356909e+01  -1.946929e+02
   1.237970e+02  -1.524072e+02
   8.290980e+01  -1.200045e+02
   1.673682e+02  -1.953874e+01
   2.322787e+02  -2.184092e+01
   3.511546e+02   6.675261e+01
   2.239023e+02   1.958000e+02
  -4.462651e+00   3.047285e+02
  -2.522688e+02   3.247937e+02
  -2.414996e+02   2.061713e+02
  -1.895691e+02  -9.816671e+01
   1.119876e+01  -1.834235e+02
   1.005948e+02  -1.919967e+02
   6.113090e+00  -4.717830e+01
  -7.801193e+01  -5.026771e+00
  -9.156149e+01  -1.924436e+01
   6.387506e+00  -1.223558e+02
   5.835962e+01  -1.050441e+02
   9.243764e+01  -7.311410e+00
  -5.513223e+01   5.299649e+01
  -1.486747e+02  -4.349833e+00
  -1.409898e+02  -1.624535e+02
  -1.118872e+01  -2.406173e+02
   1.440912e+02  -1.688381e+02
   2.261139e+02   3.919799e+01
   2.130258e+02   1.663785e+02
  -5.978039e+00   2.159277e+02
  -8.691093e+01   8.819986e+01
  -5.502519e+01  -3.589195e+00
  -2.030905e+01   8.459037e+00
   3.980963e+01   2.611056e+01
  -3.319161e+01   8.002622e+01
  -6.713212e+01   8.023453e+01
  -1.139067e+02  -1.837943e+01
  -2.713058e+01  -4.013821e+01
   5.536949e+01   1.626676e+01
   6.106585e+00   5.038635e+01
  -8.047342e+01   4.254795e+01
  -2.489456e+02  -2.314701e+01
  -2.219555e+02  -1.663219e+02
   2.383434e+00  -1.645634e+02
   1.714227e+02  -1.524228e+02
   2.190429e+02  -8.724454e+01
   1.295324e+02   8.108040e+01
  -1.819412e+01   5.875167e+01
  -2.975783e+01   2.033265e+01
   4.223319e+01  -7.453215e+01
   1.419207e+02  -6.632363e+01
   1.055460e+02   4.373485e+01
   7.010571e+01   1.256904e+02
  -6.034404e+01   7.193563e+01
  -1.214187e+02   4.287937e+01
  -2.561748e+01  -1.549227e+01
   3.169384e+01   1.101944e+01
   1.712959e+00   1.057603e+02
  -7.941396e+01   7.971039e+01
  -1.273088e+02   4.411303e+01
  -1.585117e+02  -8.221267e+01
   1.354978e+01  -1.968491e+02
   1.048096e+02  -1.559938e+02
   1.268481e+02  -1.789945e+01
   4.821756e+01   5.058725e+01
  -5.003428e+01   9.362475e+01
  -8.658010e+01   5.086566e+01
  -3.863682e+00  -1.110370e+01
   4.597690e+01   5.324418e+01
  -1.175250e+01   3.238310e+01
  -7.670549e+01  -3.013408e+01
  -9.337074e+01  -8.669938e+01
  -2.151091e+01  -1.320728e+02
   1.100598e+02  -1.301220e+02
   1.807750e+02  -2.637027e+01
   1.339557e+02   1.063935e+02
   2.635995e+01   1.844369e+02
  -9.667330e+01   1.069781e+02
  -8.323133e+01   1.449577e+01
  -3.322843e+01   2.377508e+00
  -6.463232e+01  -1.229999e+01
  -5.052061e+01   3.710448e+01
  -7.494468e+01   2.302224e+01
  -6.661044e+01  -6.619197e+00
   3.779720e+01  -7.335792e+01
   9.101369e+01  -5.103969e+01
   1.023483e+02   1.992655e+01
  -9.755166e+00   1.215991e+02
  -1.223143e+02   6.170658e+01
  -1.819064e+02  -7.997251e+01
  -1.001699e+02  -1.391227e+02
   1.350634e+02  -1.527727e+02
   2.366336e+02  -5.112796e+01
   1.273369e+02   6.585435e+01
   8.951879e+01   1.108250e+02
  -4.704173e+01   1.209470e+02
  -8.922042e+01   4.948822e+01
  -3.891568e+01   8.033650e+01
  -3.067789e+01   9.165313e+01
  -9.561676e+01   8.056572e+01
  -8.021180e+01  -1.436456e+01
  -1.278754e+02  -1.258079e+02
  -1.519264e+01  -1.827616e+02
   7.224045e+01  -1.410360e+02
   1.105692e+02  -7.349019e+00
   4.674925e+01   7.528766e+01
   3.909258e+01   1.450745e+02
  -7.700752e+01   6.317201e+01
  -3.580552e+01   7.730464e+00
   1.280019e+00  -4.328779e+01
   9.946987e-02  -1.445778e+01
   2.165765e+01   1.351241e+01
  -1.011253e+02  -2.678626e+01
  -2.133187e+01   1.655680e+01
   8.492510e+01  -9.215568e+00
   1.822201e+02  -2.252135e+01
   5.844197e+01   9.218607e+01
   6.395504e+00   1.009699e+02
  -1.272614e+02   4.882191e+01
  -1.239514e+02   3.070824e+01
  -8.792098e+01  -1.446576e+01
   4.862926e+01  -1.208215e+01
   4.302765e+01  -4.811928e+00
   3.951676e+01   6.026129e+01
  -4.452065e+00   7.960225e+01
  -5.853773e+01  -7.767294e+00
  -1.746275e+01  -2.813145e+01
  -2.914582e+01  -4.157908e+01
  -8.660700e+00   1.158847e+01
  -3.341474e+01   3.515262e+01
  -2.876217e+01  -8.573780e+01
   3.452786e+01  -1.346531e+02
   1.286528e+02  -1.388059e+02
   1.152809e+02  -3.057364e+01
   1.038908e+02   8.484878e+01
  -3.643969e+01   8.099222e+01
  -1.235866e+02   7.067792e+01
  -4.225275e+01   8.231910e-01
   5.372421e+01  -4.286743e+00
   1.393889e+02   1.512906e+01
   4.330196e+01   7.805564e+01
  -7.088509e+01   7.589128e+01
  -1.413024e+02   3.602046e+01
  -1.223448e+02  -1.307467e+01
  -4.973062e+01  -8.121625e+01
   4.547268e+01  -3.463543e+01
  -2.731316e+00   3.787186e+00
  -1.051495e+01   3.474758e+01
  -8.320826e+00  -2.073379e+00
  -4.488167e+01  -6.257194e+01
  -4.278335e+00  -1.227722e+02
   1.607161e+02  -3.764272e+01
   1.131403e+02   6.655331e+01
   7.085246e+00   1.200989e+02
  -2.927208e+01   7.496045e+01
  -6.806100e+01  -7.139444e+00
  -5.169866e+01  -1.241938e+02
  -1.641185e+01  -5.325238e+01
   8.536250e+01  -2.888299e+01
   3.072589e+01  -8.657974e+00
  -2.081054e+00  -6.178455e+01
   7.061138e+00  -4.434811e+01
   7.079420e+01   2.938318e+01
   3.556059e+01   8.714611e+01
   6.974948e+01   6.552916e+01
  -2.374283e+01   3.220728e+01
  -1.256218e+02   2.576781e+01
  -9.503936e+01  -3.198275e+01
   3.362176e+01  -3.574314e+01
   6.654407e+01  -5.075858e+01
   5.512108e+01  -1.928103e+01
   1.472038e+01   1.172685e+01
  -5.166301e+01  -5.933889e-01
  -2.985347e+01   1.745779e+01
   3.241401e+01  -3.046300e+01
  -1.790696e+01  -1.063934e+01
  -5.215668e+01   3.665777e+00
  -1.038580e+02   3.315979e-01
  -3.450121e+01  -9.654209e+01
   4.812741e+01  -9.754020e+01
   1.703590e+02  -6.537692e+01
   1.143426e+02   4.268253e+01
   3.279285e+01   1.929487e+02
  -2.964268e+01   1.242434e+02
  -5.542176e+01   6.716876e+01
  -5.297684e+01  -6.450381e+01
  -7.453279e+01   7.874718e+00
  -7.607418e+00   1.046141e-01
  -4.480206e+01  -2.307978e+00
   7.702141e-01  -3.875554e+01
  -3.205797e+01  -5.782408e+01
  -2.023471e+01  -1.011285e+02
   6.577748e+01   3.388802e+01
   6.833338e+01   6.370009e+01
  -1.910799e+01   9.817091e+01
  -8.211408e+01   2.251134e+00
  -9.499618e+01  -6.046070e+01
  -7.509721e+01  -1.057041e+02
   4.635889e+01  -5.288039e+01
   1.072480e+02  -1.976842e+01
   6.743492e+01   3.574741e+01
  -3.503626e+01   4.100741e+01
  -3.068920e+01  -5.298013e+00
   1.838923e+01  -2.453483e+01
   4.905478e+01  -3.287109e+01
   3.546459e+01  -2.900875e+00
  -9.168457e+01   1.230032e+02
  -1.082476e+02   5.403578e+01
  -8.212278e+01  -9.121358e+00
   1.718770e+01  -9.667417e+01
   6.025379e+01  -8.627051e+01
   5.908938e+01  -3.991684e+01
  -5.922940e+00   1.917948e+01
  -4.217694e+01   6.090961e+01
  -5.580398e+01   4.482164e+00
  -8.514779e-01  -6.430901e+01
  -1.683357e+01  -3.880684e+01
   4.889739e+01  -1.881288e+01
   8.093596e+01   4.568952e+01
  -2.320380e+01  -1.120769e+01
  -7.535842e+00   1.104781e+01
   4.721772e+01   1.828898e+00
   3.264824e+00   2.795721e+01
  -2.837370e+01   1.124018e+01
   7.577784e+00   1.166746e+01
  -3.313565e+01  -2.303366e+01
   3.903002e+00  -3.481316e+01
   5.380405e+01  -8.564100e+01
   4.857136e+01   4.368151e+01
   3.260345e+01   9.011963e+00
  -2.743877e+01   5.194037e+01
  -1.145443e+02   1.119707e+01
  -8.710333e+01  -3.235199e+01
   3.909142e+01  -3.444876e+01
   6.446706e+01  -6.537900e+01
   3.759654e+01  -8.601569e+00
  -1.538095e+01   7.487502e+00
  -2.697236e+01  -3.624315e+01
  -8.070172e-01  -3.684777e+01
   9.923880e+01   4.896717e+00
