
 $NMID
 id='ANONYMOUS ', fmtdat='(2E16.6)'
 volume=1.0
 tramp=1.0
 $END
   3.044206e+03   3.940882e+01
   2.109642e+03   1.413343e+03
   1.178437e+02   1.804380e+03
  -1.171111e+03   1.344991e+03
  -7.147282e+02   1.351821e+02
  -2.025376e+01  -5.410131e+01
   3.401898e+02   9.344066e+01
   1.522164e+01   3.308938e+02
  -4.145703e+02   4.312237e+02
  -5.671596e+02   1.363994e+02
  -2.274462e+02  -3.935044e+02
   1.061930e+02  -4.383639e+02
   2.672595e+02  -1.400283e+02
   1.446846e+02   3.796891e+02
  -1.193898e+02   4.318548e+02
  -3.209784e+02   4.838293e+01
  -1.559660e+02  -3.373192e+02
   3.318088e+01  -4.625262e+02
   3.501205e+02  -2.802801e+02
   3.473444e+02   2.382057e+02
   7.040216e+01   3.398425e+02
  -4.587704e+01   2.879063e+02
  -1.822330e+00   3.079584e+01
   1.938289e+02   6.040356e+01
   2.515614e+02   1.966819e+02
  -5.485706e+01   3.763055e+02
  -5.007622e+02   1.159559e+02
  -5.323553e+02  -2.289400e+02
  -2.021253e+02  -3.145344e+02
   2.626107e+02  -2.033949e+02
   5.970837e+02   1.233526e+02
   1.431147e+02   4.030392e+02
  -2.107305e+02   2.183155e+02
  -3.233081e+02   7.131294e+01
  -2.663757e+02  -2.319721e+02
  -1.220769e+02  -3.020295e+02
   4.735755e+01  -1.789555e+02
  -1.265363e+01   8.423265e+01
  -1.590907e+02   1.619043e+02
  -2.474299e+02  -1.262600e+02
   5.458345e+01  -4.435244e+02
   1.465323e+02  -4.013928e+02
   2.804171e+02   9.993693e+01
   9.313212e+01   1.400251e+02
  -1.058934e+02   1.436033e+01
  -1.543881e+02  -2.714242e+02
   1.440961e+02  -3.416889e+02
   4.253452e+02  -2.615868e+01
   3.015351e+02   2.662084e+02
   9.202671e+01   4.182216e+02
  -2.230612e+02   2.286708e+02
  -4.412240e+02  -1.445553e+02
  -2.432212e+02  -2.608527e+02
   1.378237e+00  -1.896249e+02
   2.159770e+02  -9.248909e+01
   1.652049e+02   7.535220e+00
   2.627415e+01   1.446807e+01
  -1.055573e+01  -5.427432e+01
   1.084520e+02  -1.425693e+01
   1.824537e+02   6.484546e+01
   1.195364e+02   1.825824e+02
  -1.222508e+02   2.221524e+02
  -2.631845e+02   1.056192e+02
  -1.874002e+02  -5.911805e+01
   1.062929e+01  -2.424275e+02
   2.566483e+02  -3.593983e+02
   2.888492e+02  -9.635219e+01
   1.651088e+02   1.096385e+02
   8.682432e+00   3.202924e+02
   1.800947e+01   3.442023e+02
   5.286764e+01   1.061296e+02
  -1.197019e+00   1.059880e+02
  -1.109119e+02   7.109654e+01
  -3.087010e+02   3.719810e+01
  -2.075014e+02  -1.221489e+02
  -5.653980e+01  -2.105510e+02
   1.198542e+02  -1.912538e+02
   1.300780e+02   6.377062e+01
   1.036105e+02   2.535090e+02
  -3.047132e+01   2.297623e+02
  -2.214145e+02   1.158180e+02
  -2.779908e+02  -1.348366e+02
  -1.365183e+02  -3.038813e+02
   1.443358e+00  -2.589850e+02
   1.064860e+02  -9.426312e+01
   1.396197e+02  -9.028509e+01
   1.207530e+02  -5.466423e+01
   2.592953e+02  -4.816853e+00
   3.874583e+02   1.194090e+02
   3.009137e+02   2.739758e+02
  -5.944491e+01   4.524310e+02
  -3.976340e+02   3.531819e+02
  -5.100611e+02   1.866254e+02
  -2.772385e+02  -9.215793e+01
   4.969481e+01  -2.323090e+02
   1.072236e+02  -1.663187e+02
  -8.399818e-01  -5.420332e+01
  -1.333199e+02   5.120444e+01
  -1.632915e+02  -1.219254e+02
   3.912435e+01  -9.615846e+01
   1.610597e+02  -1.001138e+02
   9.819217e+01   4.180521e+01
  -3.821863e+00   1.001021e+02
  -1.480845e+02  -1.198223e+01
  -1.299016e+02  -1.669159e+02
  -2.677341e+00  -2.642325e+02
   1.589712e+02  -2.178991e+02
   3.073983e+02   8.796522e+00
   2.505047e+02   1.599952e+02
   4.459741e+01   2.598868e+02
  -1.039748e+02   1.088041e+02
  -1.187418e+02  -2.617653e+01
  -3.608467e+01   1.559436e+01
   1.891017e+01   1.034586e+02
   3.634678e+01   1.381627e+02
  -4.884543e+01   4.811115e+01
  -1.680596e+02  -6.584944e+01
  -2.749982e+01  -5.558906e+01
   3.957048e+01  -4.194558e+01
   3.377687e+01   7.475489e+01
  -1.505454e+02   7.832529e+01
  -2.378153e+02   4.187160e+01
  -1.733538e+02  -1.406664e+02
  -1.913041e-01  -2.589455e+02
   1.656592e+02  -1.665376e+02
   2.394380e+02  -6.306583e+01
   1.065480e+02   6.888014e+01
  -2.419063e+01   8.159760e+01
  -5.292665e+01  -1.785858e+01
   5.165266e+01  -8.635011e+01
   1.453983e+02  -1.404215e+01
   1.747921e+02   8.434432e+01
   8.453607e+01   1.529036e+02
  -8.007281e+01   1.046997e+02
  -1.238901e+02   2.994686e+01
  -4.831537e+01  -7.126630e+01
   7.986708e+01   4.585679e+01
   5.258457e+00   7.538846e+01
  -7.691998e+01   1.345099e+02
  -1.716211e+02  -1.033151e+01
  -1.692770e+02  -1.147348e+02
  -5.619967e+01  -1.544686e+02
   1.293403e+02  -9.073842e+01
   1.609126e+02  -3.177027e+01
   4.057276e+01   6.174074e+01
  -8.465748e+01   9.036037e+01
  -7.363371e+01   2.597173e+01
  -3.129973e+01   1.220491e+01
   2.120491e+01  -2.445540e+01
  -1.935141e+01   4.165629e+01
  -1.229446e+02  -1.667026e+01
  -7.867591e+01  -6.460354e+01
  -5.644316e+00  -1.695476e+02
   1.664944e+02  -1.182085e+02
   2.249993e+02  -6.741632e+00
   1.845944e+02   1.761205e+02
   2.109057e+01   1.386667e+02
  -9.130613e+01   1.225439e+02
  -1.245740e+02   5.641886e+01
  -5.260043e+01  -6.498632e+01
  -4.068180e+01  -4.442713e+01
  -6.935923e+01  -1.390800e+01
  -6.385353e+01   2.241727e+01
  -4.991444e+01  -6.314285e+01
   3.769447e+01  -9.384336e+01
   1.386400e+02  -7.991181e+01
   1.054769e+02   1.988791e+01
   1.653190e+01   1.018585e+02
  -1.196506e+02   9.471494e+01
  -1.873815e+02  -1.247903e+01
  -1.117753e+02  -1.852514e+02
   1.262698e+02  -2.203320e+02
   2.893648e+02  -5.074926e+01
   2.296457e+02   9.116623e+01
   8.997375e+01   1.599931e+02
  -6.348334e+01   1.381331e+02
  -7.432504e+01   8.098685e+01
  -3.981931e+01   3.214165e+01
  -5.603122e+01   9.095095e+01
  -9.725273e+01   1.031283e+02
  -1.252967e+02  -2.500614e+01
  -5.851944e+01  -1.829596e+02
  -1.406592e+01  -1.895394e+02
   1.315679e+02  -1.506190e+02
   1.213026e+02  -5.713524e+01
   1.438916e+02   7.524529e+01
   6.767878e+00   1.308539e+02
  -5.679948e+01   4.441408e+01
  -2.023444e+01  -2.803501e+01
   4.791676e+00  -6.627742e+01
   6.445330e+01  -2.179113e+01
  -2.724253e+01   1.980308e+01
  -5.447940e+01  -2.589684e+01
  -5.920389e+01  -3.542220e+00
   7.902284e+01  -1.946627e+01
   2.137812e+02   3.775716e+01
   1.047008e+02   1.823781e+01
   3.814867e+01   9.749311e+01
  -9.530533e+01   8.828714e+01
  -1.548381e+02  -4.850186e+00
  -4.904483e+01   4.858710e+00
   5.063402e+01  -9.723686e+00
   4.587309e+01   5.041145e+01
   2.717725e+01   3.900429e+01
  -4.240268e+01   9.934275e+01
  -7.419742e+01   8.421887e-01
  -3.734323e+01  -3.721828e+01
  -4.129026e+01  -7.763011e+01
  -4.497885e+01   1.618476e+01
  -3.984679e+01  -6.842634e+00
  -4.278909e+01  -6.813435e+01
   1.206674e+01  -1.499612e+02
   1.118385e+02  -1.741721e+02
   1.852744e+02  -6.870462e+00
   8.850786e+01   7.997088e+01
  -4.043799e+01   1.205256e+02
  -6.497570e+01   3.304444e+01
  -6.901602e+01   6.705439e+00
   4.778289e+00  -4.725551e+01
   9.216001e+01   4.649815e+01
   8.477379e+01   1.094896e+02
  -1.069104e+02   1.278071e+02
  -1.238625e+02   4.216348e+01
  -1.412882e+02  -4.978766e+01
  -3.594558e+01  -5.673134e+01
   4.413758e+01  -3.291327e+01
   2.167324e+01   9.477396e+00
  -7.055561e+01   4.785164e+01
  -5.066236e+01  -3.883323e+01
  -3.789104e+01  -8.977875e+01
   4.148369e+01  -1.060899e+02
   1.753859e+02  -5.136334e+01
   1.394777e+02   2.066824e+01
  -5.022413e+00   1.924178e+02
  -1.026281e+02   1.007193e+02
  -1.119860e+02   1.594863e+01
  -2.967679e+01  -1.050202e+02
  -2.772510e+01  -1.078239e+02
  -8.671197e+00  -1.082327e+01
   2.771482e+01   1.501866e+01
  -7.825728e+00   1.160427e+01
   3.929781e+01  -2.839451e+01
   2.674136e+01   2.081029e+01
   2.628249e+01   6.473182e+01
   2.126478e+01   1.307669e+02
  -5.248168e+01   1.701468e+01
  -9.043658e+01  -4.859242e+01
  -1.179336e+02  -5.886700e+01
  -2.942014e+01  -2.741248e+01
   7.144681e+01  -2.835464e+01
   7.214143e+01  -4.830796e+01
   4.769261e+01  -7.339858e+00
  -4.171701e+01  -2.145817e+01
  -7.117161e+01   3.654694e+01
   2.105346e+01   2.908129e+01
   8.652412e-01  -2.371596e+01
  -5.278538e+01  -1.925153e+01
  -1.050767e+02   2.725340e+01
   3.940710e+01  -3.895784e+01
   1.198182e+02  -1.451831e+02
   1.629653e+02  -9.785278e+01
   1.117332e+02   2.306462e+01
   3.749079e+01   8.942182e+01
  -5.360473e+01   1.749252e+02
  -1.220021e+02   2.092732e+01
  -2.068059e+01  -2.488871e+01
  -8.650277e+00  -2.278633e+01
  -2.093661e+01   1.172887e+01
  -3.558167e+01  -2.137392e+01
  -3.485001e+01  -8.141568e+01
  -5.486257e+00  -1.563837e+02
   1.918992e+01  -2.601873e+01
   6.864797e+01   2.140266e+01
   9.624692e+01   7.888579e+01
   3.597263e+01   9.268145e+01
  -2.137887e+01   3.127545e+01
  -7.429645e+01  -6.394688e+01
  -4.572536e+01  -7.162278e+01
   6.073942e+01  -4.313673e+01
   1.206730e+02   2.681211e+01
   3.404917e+01   3.826356e+01
  -3.909820e+01   6.213506e+01
  -2.832811e+01   3.379022e+01
   9.237372e+00  -1.437679e+01
   5.656311e+01  -5.335519e+00
   4.116259e+01   3.184552e+01
  -9.980237e+01   5.835745e+01
  -9.107477e+01   6.030549e+01
  -2.506388e+01  -2.373588e+01
  -6.942110e+00  -8.877728e+01
   4.818432e+01  -9.893466e+01
   8.415373e+01   4.974419e+00
   1.990780e+01   2.157637e+01
  -6.772946e+01   3.909583e+01
  -3.489047e+01  -3.015849e+00
  -1.225375e+00  -8.386990e+01
  -5.371358e+01   2.272441e+00
   3.285107e+01   5.029650e+00
   2.972910e+01   3.065927e+01
   3.515958e+01   4.502552e+01
  -1.693279e+01   6.735280e+00
  -9.593244e+00  -1.206121e+01
  -1.326358e+01   2.843077e+01
   5.576368e+01   6.197193e+01
  -4.313331e+01  -1.430206e+01
  -4.668809e+01  -3.107176e+01
  -3.394386e+00  -5.237947e+01
   4.514563e+01  -3.163741e+01
   5.424891e+01   7.516821e-01
   1.808926e+00   4.994494e+01
  -6.519116e+01   4.712804e+01
  -4.082356e+01  -1.907866e+01
  -5.857100e+01  -9.223795e+00
   1.011146e+01  -1.623563e+01
   6.615980e+01  -8.885255e+01
  -3.497396e+00  -2.779563e+01
  -4.780528e+01  -8.607322e+00
  -3.047098e+01   2.145660e+01
   3.954698e+01  -2.489904e+00
   8.687524e+01   9.729998e-01
