
 $NMID
 id='ANONYMOUS ', fmtdat='(2E16.6)'
 volume=1.0
 tramp=1.0
 $END
   3.296892e+03  -1.977974e+02
   1.744689e+03   1.891199e+03
  -8.729058e+01   2.220812e+03
  -1.681908e+03   1.303902e+03
  -9.663143e+02  -6.259356e+01
   1.831938e+02  -4.296711e+02
   6.720496e+02   1.202727e+02
  -3.844141e+01   7.331067e+02
  -6.878361e+02   6.654936e+02
  -7.301266e+02   6.015953e+01
  -5.082450e+02  -5.729377e+02
  -3.932042e+01  -7.696544e+02
   4.129408e+02  -1.464864e+02
   1.988615e+02   4.122633e+02
  -1.081093e+02   6.044042e+02
  -5.014870e+02   4.320052e+01
  -2.034973e+02  -5.521029e+02
   2.273643e+02  -6.063762e+02
   5.323279e+02  -2.293736e+02
   4.555373e+02   1.367016e+02
   1.357837e+02   3.106879e+02
  -1.396237e+02   3.068019e+02
  -1.224541e+02   9.961571e+01
   1.054300e+02   7.269380e+01
   2.977568e+02   2.933892e+02
   5.754576e+01   3.168692e+02
  -4.329919e+02   2.320983e+02
  -7.468580e+02  -1.654976e+02
  -2.765403e+02  -3.967433e+02
   3.557726e+02  -2.274450e+02
   4.952682e+02   4.738582e+01
   2.296503e+02   3.298767e+02
  -2.668269e+02   3.963968e+02
  -4.416371e+02   2.268348e+02
  -3.887272e+02  -1.293964e+02
  -7.565737e+01  -3.815626e+02
   7.949348e+01  -2.228180e+02
   2.337201e+01   1.016728e+02
  -1.956478e+02   2.501971e+02
  -2.336943e+02   1.774179e+01
  -1.740014e+02  -5.841155e+02
   1.978771e+02  -5.590387e+02
   3.401132e+02   1.852538e+01
   1.835671e+02   3.627358e+02
  -2.447893e+02   1.920774e+02
  -2.377964e+02  -2.432698e+02
   4.957253e+01  -4.374998e+02
   3.945211e+02  -1.244230e+02
   4.695451e+02   4.618950e+02
   1.916947e+02   5.505115e+02
  -3.336307e+02   2.123259e+02
  -5.613354e+02  -5.858087e+01
  -3.313046e+02  -3.015360e+02
   2.798125e+01  -2.152093e+02
   3.479397e+02  -9.439388e+01
   2.674112e+02   6.709525e+01
  -2.796325e+01   6.487365e+01
  -1.339808e+02  -9.331513e+01
   8.070832e+01  -1.274026e+02
   2.074638e+02   2.158558e+01
   1.455012e+02   2.182056e+02
  -1.413472e+02   2.150244e+02
  -3.128596e+02   8.168494e+01
  -2.222606e+02  -1.328184e+02
   3.716109e+01  -2.483419e+02
   3.176197e+02  -3.153947e+02
   3.930046e+02  -9.737236e+01
   2.824997e+02   1.707145e+02
   5.657191e+01   3.540241e+02
  -5.479409e+01   3.132688e+02
  -9.511131e+01   1.373894e+02
  -4.451459e+01   5.620179e+01
  -1.431816e+02   5.201481e+01
  -2.205761e+02   3.735377e+01
  -2.732667e+02  -1.392278e+02
  -1.069510e+02  -2.164003e+02
   2.136595e+01  -2.028444e+02
   2.466194e+02   7.964467e+01
   1.613120e+02   2.359167e+02
   4.629874e+01   2.609720e+02
  -2.456729e+02   1.878830e+01
  -3.365315e+02  -2.018795e+02
  -1.681865e+02  -2.829028e+02
   7.068169e+01  -3.163159e+02
   1.874599e+02  -1.691367e+02
   1.431329e+02  -6.612266e+01
   1.511664e+02  -6.488614e+01
   2.154753e+02  -4.618153e+01
   3.768517e+02   1.052393e+02
   2.610571e+02   2.723689e+02
  -4.152839e+01   4.352868e+02
  -4.124633e+02   4.102655e+02
  -4.968570e+02   1.703067e+02
  -2.754919e+02  -9.044575e+01
   5.941115e+00  -2.397807e+02
   9.631881e+01  -2.062167e+02
   5.377562e+00  -6.768613e+01
  -1.121808e+02   6.488990e+01
  -1.134062e+02  -2.914814e+01
  -3.987709e+01  -1.765677e+02
   1.237206e+02  -1.353065e+02
   1.213752e+02   7.655369e+01
  -4.321924e+01   1.428214e+02
  -1.359476e+02  -4.894600e+01
  -1.507068e+02  -1.901342e+02
   8.246206e+01  -2.316747e+02
   2.295270e+02  -1.536995e+02
   3.533131e+02   7.049637e+01
   1.790476e+02   2.584086e+02
   7.154199e+01   2.757507e+02
  -1.248959e+02   1.580731e+02
  -1.442973e+02   3.752626e-01
  -4.348197e+01  -5.993332e+01
   4.198335e+01   8.263253e+01
   3.927393e+00   1.184269e+02
  -1.224254e+02   5.459705e+01
  -1.318072e+02  -4.191653e+01
   6.966775e-01  -5.897382e+01
   5.882063e+01  -5.803296e+00
   6.081355e+01   8.876445e+01
  -1.238595e+02   8.522974e+01
  -3.212961e+02  -3.042614e+01
  -2.737929e+02  -1.739549e+02
  -3.704697e+00  -1.759326e+02
   2.540795e+02  -2.394345e+02
   2.431837e+02  -1.083065e+02
   1.604498e+02   6.006868e+01
  -4.602263e+01   7.259217e+01
  -5.038962e+01  -6.248663e+00
   3.486143e+01  -7.394677e+01
   1.534067e+02  -2.398161e+01
   2.095903e+02   1.084737e+02
   9.730823e+01   1.765427e+02
  -9.456554e+01   1.168240e+02
  -1.444120e+02   1.154071e+01
  -3.313469e+01  -4.839611e+01
   1.531086e+01  -2.542900e+01
  -1.573771e+01   1.033368e+02
  -7.436583e+01   1.390129e+02
  -2.078225e+02   4.782636e+01
  -1.931872e+02  -1.194975e+02
  -3.497596e+01  -2.220652e+02
   1.927817e+02  -1.278309e+02
   1.791542e+02  -1.329395e+00
   4.096010e+01   8.584525e+01
  -6.847684e+01   1.170463e+02
  -9.964042e+01   5.742002e+01
  -4.209999e+01  -2.592624e+01
   5.308911e+01  -1.615318e+00
  -2.117482e+01   4.733092e+01
  -1.193207e+02   2.098423e+00
  -7.794588e+01  -9.624168e+01
  -6.777240e+01  -1.982221e+02
   1.429926e+02  -1.396052e+02
   1.840613e+02   2.083273e+01
   1.646704e+02   1.831477e+02
   8.572425e+01   2.319023e+02
  -1.136052e+02   1.577995e+02
  -1.466818e+02  -1.815439e-01
  -9.124777e+01  -4.994169e+01
  -3.563183e+01  -2.380789e+00
  -1.652657e+01   2.277971e+01
  -7.299023e+01  -1.466577e+01
  -4.418351e+01  -3.343385e+01
   2.491295e+01  -9.960707e+01
   1.539507e+02  -6.728377e+01
   5.670993e+01   3.152493e+01
  -4.665358e+01   6.982402e+01
  -1.044242e+02   4.453272e+01
  -2.358441e+02  -4.869466e+01
  -3.739420e+01  -1.837647e+02
   1.455253e+02  -2.274238e+02
   2.606675e+02  -5.296960e+01
   2.415242e+02   6.218412e+01
   8.485413e+01   1.726109e+02
  -1.338042e+01   1.507610e+02
  -5.332262e+01   7.054646e+01
  -4.620319e+01   6.280019e+01
  -6.230291e+01   6.988272e+01
  -8.858534e+01   4.132783e+01
  -1.432492e+02  -1.934341e+01
  -1.206115e+02  -1.887650e+02
   2.009222e+01  -2.898347e+02
   1.040612e+02  -2.020256e+02
   1.770912e+02  -1.539752e+01
   1.427575e+02   1.546346e+02
   2.227412e+01   1.570773e+02
  -6.484240e+01   2.454275e+01
  -9.602779e+01   1.222369e+01
  -1.175101e+01  -4.068864e+01
   5.791777e+01  -3.749227e+01
   2.444968e+01   4.935393e+00
  -6.676114e+01  -4.578182e+01
  -1.010886e+02  -6.726791e+01
   6.491321e+01   6.825585e+00
   1.548171e+02  -1.710835e+01
   9.970588e+01   4.899220e+01
  -1.248385e+01   8.107053e+01
  -1.553098e+02   8.298888e+01
  -1.184647e+02  -1.194332e+00
  -1.293569e+01  -5.858974e+00
   7.033968e+01   2.114192e+01
   3.821046e+01   1.440309e+01
   4.835086e+01   9.413126e+01
  -4.696078e+01   6.235983e+01
  -2.329660e+01  -3.409408e+00
  -6.125289e+01  -8.255635e+01
  -8.423235e+01  -6.677898e+01
  -3.932773e+01  -2.319506e+01
  -3.065427e+01  -9.286552e+00
  -5.742545e+01  -7.764226e+01
   3.903428e+01  -1.108540e+02
   1.268167e+02  -1.126673e+02
   1.541238e+02  -2.330407e+01
   1.365135e+02   1.164751e+02
   1.560241e+01   1.286554e+02
  -1.230150e+02   9.499850e+01
  -4.665495e+01   2.223341e+01
   3.520394e+01  -4.170647e+01
   1.376255e+02   2.663059e+01
   7.614695e+01   1.617140e+02
  -7.918195e+01   8.250608e+01
  -2.188028e+02   2.244637e+01
  -1.981172e+02  -4.468055e+01
  -9.079655e+00  -7.187881e+01
   8.623885e+01  -9.385502e+01
   6.560700e+01  -1.326932e+01
   8.688484e+00   1.978937e+01
  -1.188802e+02  -3.075614e+01
  -4.401030e+01  -7.251800e+01
   1.019934e+02  -1.125089e+02
   1.500413e+02  -5.843456e+01
   8.005293e+01   1.041432e+02
  -2.492863e+00   1.477637e+02
  -1.166730e+02   1.225984e+02
  -1.072972e+02  -8.966057e+00
  -2.298650e+01  -1.329347e+02
   2.843318e+01  -7.133345e+01
   4.759203e+01   1.751385e+00
  -5.817010e+00   2.565695e+01
   4.255843e+01   1.285317e+01
   4.424519e+01  -7.484278e+00
   2.944896e+01   2.372685e+01
  -8.070916e+00   1.068993e+02
   3.220835e+01   1.442550e+02
  -5.433153e+01   9.123906e+01
  -6.179362e+01  -2.752253e+01
  -1.617207e+02  -9.251736e+01
  -7.992196e+00   1.677989e+00
   8.231878e+01  -3.315400e+01
   7.699482e+01   5.644981e+00
   5.674383e+01   1.517325e+01
  -7.056840e+01  -1.693190e+00
  -5.800275e+00   1.430740e+01
   4.691625e+00   3.473206e+01
  -2.997563e+01  -1.830921e+01
  -4.914863e+01  -1.569778e+01
  -1.114828e+02  -2.644749e+01
  -2.628925e+01  -7.730651e+01
   5.666709e+01  -9.856040e+01
   1.836736e+02  -4.092188e+01
   1.414202e+02   7.063133e+01
   7.574452e+01   1.679407e+02
  -5.267834e+01   1.286836e+02
  -1.159257e+02   9.615176e+01
  -7.140474e+01  -3.218546e+01
  -4.728106e+01  -4.190909e+01
  -3.983477e+00  -2.294510e+01
   2.238660e+01   9.349869e+00
   8.617215e+00  -7.567201e+01
  -3.293540e+01  -8.067779e+01
   3.891503e+01  -6.265603e+01
   3.820293e+01   4.774628e+00
   1.326551e+02   6.479386e+01
   3.709677e+01   8.646366e+01
  -7.334924e+01   4.197692e+00
  -1.173604e+02  -4.828609e+01
  -1.059117e+01  -8.444258e+01
   6.937619e+01  -8.027679e+01
   8.514228e+01   4.536477e+00
   9.834088e+01   5.656156e+01
  -6.502375e-01   5.035385e+01
  -4.564937e+01   6.176807e+00
   3.537173e+01   9.786712e+00
   4.672107e+01  -2.377070e+01
  -1.854460e+01   4.287141e+01
  -1.215197e+02   8.740196e+01
  -1.330195e+02   4.706319e+01
  -8.905265e+01  -4.900490e+00
  -2.877634e+01  -7.544057e+01
   7.502267e+01  -7.294441e+01
   5.484713e+01  -4.319457e+01
   5.131762e+01   3.663588e+01
  -5.975614e+01   7.782778e+01
  -4.765454e+01  -1.153089e+01
  -5.065942e+01  -5.831530e+01
  -1.758121e+00  -1.622035e+01
  -1.816441e+01  -1.323539e+01
   5.121203e+01   9.451572e+00
   9.503593e+00  -3.423364e+00
   2.637206e+01   1.285015e+01
  -2.472667e+01   1.709830e+01
  -8.290136e+00   2.472927e+01
  -3.882135e+01   3.590699e+01
  -1.634843e+01   8.826786e+00
  -3.011601e+01  -2.219370e+01
   5.277191e+01  -4.127071e+01
   2.597259e+01  -3.695608e+01
   8.439090e+01   3.759302e+01
   6.819883e+00   4.510139e+01
  -6.511273e+01   2.755228e+01
  -6.532985e+01  -1.060995e+01
  -8.087451e+01  -7.113285e+01
   1.861889e+01  -1.101183e+00
   6.245510e+01  -3.754492e+01
   4.322618e+01  -2.888213e+01
  -1.714585e+01   1.322027e-01
  -3.077064e+01  -1.927285e+01
   1.014865e+01  -4.084631e+01
   4.648451e+01  -2.127608e+01
