
 $NMID
 id='ANONYMOUS ', fmtdat='(2E16.6)'
 volume=1.0
 tramp=1.0
 $END
  -3.117952e+03   5.721841e+02
  -1.801523e+03  -1.737643e+03
  -1.749791e+02  -1.822929e+03
   9.874900e+02  -1.106282e+03
   8.129451e+02  -2.196487e+02
  -1.129896e+02   4.568170e+02
  -4.290411e+02  -3.172893e+01
  -3.757277e+01  -3.921065e+02
   4.023687e+02  -4.376095e+02
   5.986880e+02  -2.083634e+02
   3.213414e+02   3.964891e+02
  -9.911318e+00   4.998754e+02
  -2.420724e+02   2.572849e+02
  -2.088825e+02  -3.406531e+02
   1.187022e+02  -4.535867e+02
   3.112621e+02  -1.058541e+02
   2.459440e+02   4.098808e+02
  -1.773703e+02   5.460058e+02
  -4.491620e+02   2.105434e+02
  -4.646811e+02  -1.833762e+02
  -8.548028e+01  -3.426032e+02
   1.085458e+02  -2.672980e+02
   6.581141e+01  -5.990764e+01
  -1.011784e+02  -4.188730e+01
  -1.471020e+02  -1.966646e+02
  -2.188186e+01  -3.068599e+02
   3.819743e+02  -1.621926e+02
   5.683424e+02   1.567759e+02
   2.043375e+02   2.716254e+02
  -2.745469e+02   1.339283e+02
  -4.552713e+02  -1.850486e+01
  -1.720453e+02  -3.045688e+02
   2.774930e+02  -4.258155e+02
   3.709620e+02  -2.053532e+02
   2.532484e+02   8.791889e+01
   1.098013e+02   2.957654e+02
   3.150000e+01   1.715393e+02
   7.019967e+01  -1.109128e+02
   6.867594e+01  -1.046321e+02
   2.292109e+02   1.022021e+02
   8.795354e+01   4.481792e+02
  -2.083529e+02   4.714685e+02
  -2.679551e+02   3.006159e+01
  -2.882005e+01  -2.694511e+02
   1.611189e+02  -1.086593e+02
   2.237347e+02   1.645508e+02
  -5.214986e+01   2.918291e+02
  -3.231385e+02   1.219417e+02
  -4.199138e+02  -3.430081e+02
  -1.052814e+02  -4.450848e+02
   2.014019e+02  -2.968835e+02
   4.991735e+02  -8.532819e+00
   3.059844e+02   2.149976e+02
   4.723667e+01   2.039626e+02
  -2.908829e+02   4.987986e+01
  -1.999243e+02  -6.775873e+00
   7.709462e+00  -7.116279e+01
   4.893949e+01   5.107217e+01
  -6.936073e+01   1.583317e+01
  -2.642664e+02  -5.980375e+01
  -1.206621e+02  -1.433903e+02
   1.002190e+02  -1.841306e+02
   2.869798e+02  -1.044943e+02
   2.729446e+02   6.280946e+01
   2.692763e+01   2.591695e+02
  -2.852387e+02   3.309819e+02
  -3.483037e+02   1.521672e+02
  -2.527418e+02  -1.597724e+02
  -4.820610e+01  -3.647192e+02
   1.617897e+01  -2.738315e+02
   3.327432e+01  -1.459007e+02
   6.780579e+01  -7.301835e+01
   1.401172e+02  -9.144279e+01
   1.519653e+02  -9.241533e+01
   2.622201e+02   1.207525e+02
   1.418915e+02   2.103101e+02
  -5.552379e+01   1.360779e+02
  -1.339851e+02  -5.629810e+01
  -1.473215e+02  -1.908432e+02
   1.166618e+01  -2.174213e+02
   1.402799e+02  -3.360873e+01
   3.017987e+02   9.446986e+01
   1.796998e+02   3.019917e+02
   7.509361e+01   2.631775e+02
  -1.040571e+02   1.338662e+02
  -1.569217e+02   7.282651e+01
  -1.424451e+02   5.866967e+01
  -1.891201e+02   4.973781e+01
  -4.243011e+02  -5.649589e+01
  -3.010416e+02  -2.857834e+02
   8.384131e+00  -4.354539e+02
   2.533518e+02  -3.770663e+02
   4.596191e+02  -1.232303e+02
   1.863445e+02   9.204647e+01
   9.684647e+00   1.886185e+02
  -1.015578e+02   2.002797e+02
   4.677137e+00   7.079511e+01
   8.112166e+01  -5.104541e+01
   8.730348e+01  -1.697079e+01
   2.100051e+01   1.255035e+02
  -7.909721e+01   7.628551e+01
  -7.306058e+01  -4.356139e+01
   2.041288e+01  -1.870959e+02
   1.318833e+02  -4.665405e+00
   1.271834e+02   2.238376e+02
   4.928949e-02   3.034652e+02
  -2.454423e+02   1.592255e+02
  -2.487528e+02  -9.568195e+01
  -2.972854e+02  -2.092174e+02
  -1.405184e+01  -1.734343e+02
   9.122172e+01  -7.499705e+01
   1.384338e+02  -1.275367e+01
   1.912377e+01   2.879060e+01
  -1.825701e+01  -8.872836e+01
   9.040927e+00  -1.022484e+02
   1.384320e+02  -6.924979e+01
   1.267059e+02   1.439453e+01
   2.346271e+01   3.651529e+01
  -1.126940e+02  -1.612330e+00
  -3.158129e+01  -1.008864e+02
   1.218645e+02   3.371726e+00
   2.610508e+02   3.115904e+01
   2.128945e+02   1.483639e+02
   3.436107e+01   2.457969e+02
  -2.000601e+02   1.910455e+02
  -2.375784e+02   4.157444e+01
  -1.049589e+02   3.044296e+00
   3.973351e+01  -9.329432e+01
   4.833273e+01   3.318209e+01
  -4.990571e+01   7.895360e+01
  -1.909153e+02   1.610228e+01
  -1.543970e+02  -7.119901e+01
   3.504768e+00  -1.581939e+02
   6.482395e+01  -1.145587e+02
   6.316106e+01   1.351550e+01
   5.328980e+01  -1.031449e+01
  -5.454084e+01  -3.550391e+01
  -5.899739e+01  -1.216451e+02
   1.211878e+02  -1.037189e+02
   1.520186e+02  -1.267666e+01
   1.223080e+02   1.393950e+02
  -2.672286e+01   1.850647e+02
  -1.136531e+02   1.364253e+02
  -9.735947e+01   4.137867e+01
  -4.333799e+01  -5.865202e+01
   2.688548e+01  -7.278277e+01
   5.789757e+01  -4.960827e+01
   7.505191e+00   1.643428e+01
   2.220627e+01   3.561196e+01
  -3.335248e+01  -3.512826e+00
   8.186821e+01   2.340914e+01
   3.458639e+01   1.234797e+02
   5.332492e+01   1.325979e+02
  -7.775650e+01   1.820909e+02
  -1.518848e+02   3.732265e+01
  -1.550052e+02  -1.164709e+02
  -3.218666e+01  -1.903157e+02
   1.417634e+02  -1.637226e+02
   1.098341e+02  -2.232902e+01
   4.947478e+01   2.682054e+01
   6.412276e+01  -1.393896e+01
   9.044944e+01  -1.041438e+01
   1.001550e+02   5.709495e+00
   3.387532e+01   1.435851e+01
  -3.931023e+01   7.177996e+01
  -1.174876e+02   6.596247e+01
  -1.226102e+02  -2.092778e+00
   3.489973e+01  -1.029740e+02
   1.577529e+02  -9.090117e+01
   2.248572e+02   7.416154e+01
   1.010463e+02   1.580768e+02
  -1.758443e+02   1.839334e+02
  -2.385682e+02   7.849195e+01
  -2.041624e+02  -9.262378e+01
  -8.014109e+01  -1.235370e+02
   4.821758e+01  -9.321030e+01
   5.671272e+01  -6.807485e+01
   5.138707e+00   4.279890e+00
   5.468574e+01  -1.014224e+02
   6.630458e+01  -9.186057e+01
   1.178513e+02   2.183475e+01
   1.148713e+02   1.248208e+02
  -7.748635e+00   1.829527e+02
  -9.668827e+01   1.396923e+02
  -1.323768e+02   2.967334e+01
  -9.891798e+01  -9.638032e+01
  -1.096410e+01  -1.008453e+02
   8.334941e+01  -6.936862e+01
   3.468020e+01   1.129788e+01
  -1.471854e+01   8.081589e-01
  -2.193822e+01  -7.268706e+00
   7.816402e+00   2.373541e+01
   6.813973e+01  -7.946223e+00
   4.628356e+01   4.921027e+01
  -4.480323e+01   7.027043e+01
  -1.587837e+02  -2.036548e+01
  -1.055231e+02  -6.118198e+01
   2.102253e+01  -1.162875e+02
   1.481269e+02  -3.786079e+01
   1.493777e+02  -2.267882e+00
   5.698265e+01   3.467961e+01
  -3.538907e+01   1.634468e+01
  -8.872748e+01  -5.371469e+01
  -4.067292e+01  -4.695447e+01
   4.163646e+01  -6.411399e+01
   3.880839e+01  -8.903414e+00
   7.009541e+01   6.770105e+01
   3.849820e+01   4.627613e+01
   5.540871e+01   1.431461e+01
   6.913312e+01   2.652893e+00
   1.155013e+01   7.275295e+01
  -2.332872e+01   1.265763e+02
  -1.279193e+02   9.962988e+01
  -1.531318e+02   2.169758e+01
  -1.192758e+02  -1.030047e+02
  -1.596073e+01  -1.288701e+02
   9.200942e+01  -6.655920e+01
   7.700084e+01   5.872306e+00
  -5.671549e+01   1.593631e+01
  -9.181236e+01  -1.480439e+01
  -6.232242e+01  -9.299398e+01
   8.572753e+01  -8.218274e+01
   1.651412e+02  -6.411276e+01
   1.481348e+02   5.013935e+01
   4.162450e+01   1.174119e+02
  -7.689632e+01   8.209948e+01
  -2.123110e+01  -7.078511e+00
   1.244655e+01  -4.075173e+01
   7.857423e+01   3.841199e+01
  -2.403140e+01   1.345159e+02
  -2.580247e+01   1.457985e+02
  -1.519411e+02   9.395172e+01
  -1.042077e+02  -5.747654e+01
  -4.164401e+01  -1.824836e+02
   1.534143e+01  -1.394655e+02
   4.049384e+01   5.423933e+01
   4.065169e+01   5.735997e+01
  -1.478115e+01   1.125161e+02
  -8.770593e+01   1.746968e+01
  -5.693553e+00  -3.075840e+01
  -2.433026e+01  -5.430156e+00
   7.186644e-01   2.685895e+01
  -6.598590e+01   5.257507e+00
  -9.292272e+01  -6.582888e+01
  -2.508618e+01  -5.911900e+01
   5.492239e+01  -4.603017e+01
   1.406739e+02   3.831047e+01
   1.042910e+02   7.376036e+01
  -1.400898e+01   6.145283e+01
  -6.708747e+01   5.051170e+01
  -4.738405e+01   2.683696e+01
  -3.193429e+01   1.569990e+01
   7.295298e+01   6.328011e-01
  -1.264868e+01  -2.901109e+01
  -1.385179e+00  -5.178049e+01
   1.499775e+01  -3.044797e+01
   6.693593e+01   1.546367e+01
   9.737500e+01   1.351589e-01
   2.529755e+01   8.613887e+01
  -1.085580e+02   1.267682e+02
  -1.724201e+02   5.227436e+01
  -1.290089e+02  -3.639212e+01
  -5.795584e+01  -1.881695e+02
   6.147816e+01  -1.045004e+02
   9.204592e+01  -4.871034e+01
   8.131218e+01  -1.537045e+00
  -1.147100e+01   3.593467e+01
  -9.956653e+00  -2.460557e+01
   4.629875e+01   6.791127e+00
  -2.023105e-01   3.346685e+01
   4.910447e+01   1.066511e+02
  -3.068393e+01   7.264976e+01
  -8.100895e+01   9.009344e+00
  -4.885956e+01  -8.511731e+01
   1.218502e+01  -9.281235e+01
   3.925634e+01  -3.072100e+01
   1.187649e+02   3.365638e+01
   4.074746e+01   1.131304e+02
  -2.907151e+01   7.164076e+01
  -8.300719e+01   1.078467e+01
  -2.205935e+01  -5.562494e+01
   5.025831e+01  -6.969051e+00
   3.799677e+01  -5.905244e+01
  -4.003879e+01   2.239125e+01
  -3.345101e+01  -9.001523e+00
  -3.468487e+01  -9.625390e+00
   7.759792e+01  -4.084613e+01
   8.575502e+01  -3.219706e+01
   4.204135e+01   3.873000e+01
  -1.139828e+01   4.044205e+01
  -4.736553e+01   4.445939e+01
  -9.071489e-02   1.595256e+01
  -2.877671e+00  -1.837866e+00
   4.384614e+01  -3.981411e+01
   1.758841e+01  -5.739892e-01
   1.196409e+01   5.795199e+01
  -2.510469e+01   4.062460e+01
  -2.803068e+00  -1.941585e+01
   5.105585e+00  -7.293502e+00
  -1.722166e+01  -1.607651e+01
   3.369052e+01   3.301847e+01
  -4.418024e+00   1.317644e+01
  -4.941973e+00   1.200242e+00
   1.633066e-01  -5.577451e+01
  -2.376253e+00  -7.871884e+00
   3.149405e+01   3.947212e+01
   7.475835e+01   4.885697e+01
  -7.266141e+00  -6.955138e+00
  -3.820666e+01  -3.494179e+01
  -3.555199e+00  -7.298301e+01
   3.228888e+01  -3.484696e+01
   8.042937e+01   2.169970e+00
   4.661255e+01   4.265146e+01
  -3.753094e+01   2.423595e+01
  -6.663659e+01   5.242190e+01
  -3.580447e+01  -3.250204e+01
   9.042437e+00  -1.878456e+01
   6.613143e+01  -3.996158e+01
  -6.529354e+01  -1.812846e-01
  -8.060580e+01   5.100506e+01
