
 $NMID
 id='ANONYMOUS ', fmtdat='(2E16.6)'
 volume=1.0
 tramp=1.0
 $END
   3.135611e+03  -6.603717e+01
   1.771072e+03   1.148185e+03
   3.254606e+02   1.927174e+03
  -1.004483e+03   1.038007e+03
  -6.865046e+02   4.672867e+02
  -2.205215e+02  -3.880154e+01
   3.641707e+02   7.915575e+01
   1.859836e+01   4.796003e+02
  -3.303159e+02   4.836377e+02
  -4.819493e+02   1.498190e+02
  -4.852316e+02  -3.928878e+02
  -6.105725e+01  -5.160364e+02
   5.918506e+01  -1.694247e+02
   2.064776e+02   2.826677e+02
  -1.270936e+02   5.169719e+02
  -2.963436e+02   5.201483e+01
  -3.124580e+02  -3.970832e+02
   4.582060e+01  -6.144816e+02
   3.284985e+02  -2.766437e+02
   4.091798e+02   1.011301e+02
   8.055953e+01   3.139612e+02
  -7.927529e+01   2.089444e+02
  -5.441863e+01   8.067078e+01
   1.684093e+02   1.233204e+02
   1.437347e+02   2.657255e+02
   2.427629e+01   2.466834e+02
  -3.771818e+02   1.556083e+02
  -4.055477e+02  -2.419682e+02
  -1.424978e+02  -2.301602e+02
   2.223663e+02  -1.477442e+02
   3.570817e+02   1.580990e+02
   1.511274e+02   2.828403e+02
  -1.675374e+02   3.570713e+02
  -4.024256e+02   1.949772e+02
  -2.769017e+02  -1.037067e+02
  -1.109123e+02  -3.282062e+02
  -2.545970e+01  -1.195916e+02
  -9.348666e+01   6.614743e+01
  -9.648977e+01   1.204920e+02
  -1.557739e+02  -1.600713e+02
   6.892766e+01  -4.348923e+02
   1.617103e+02  -4.201676e+02
   3.076019e+02  -1.217335e+01
   1.017677e+02   3.158899e+02
  -1.043610e+02   1.264739e+02
  -2.126131e+02  -1.815811e+02
   2.448128e+01  -3.642852e+02
   3.959032e+02  -1.024906e+02
   3.505670e+02   2.436295e+02
   1.563006e+02   3.703975e+02
  -2.113077e+02   2.121087e+02
  -4.603142e+02  -6.054740e+01
  -3.145579e+02  -2.558878e+02
   4.348699e+01  -1.657403e+02
   2.130766e+02  -5.217925e+01
   1.506801e+02  -8.507929e+01
   5.806565e+01   3.247593e+01
  -6.259617e+01  -7.342030e+01
   8.856226e+01  -5.065623e+01
   2.053913e+02   4.695221e+01
   1.081847e+02   1.670618e+02
  -8.338191e+01   2.273158e+02
  -2.725780e+02   2.467750e+02
  -2.655016e+02  -1.067190e+02
   8.260319e+00  -2.758784e+02
   2.378017e+02  -3.422645e+02
   3.737161e+02  -6.853942e+01
   2.114315e+02   1.917748e+02
   8.298716e+01   2.607888e+02
  -1.555082e+01   2.327641e+02
   6.337457e+00   1.429175e+02
   2.573694e+00   6.502241e+01
  -9.822369e+01   8.266090e+01
  -2.150518e+02   3.440086e+01
  -1.899932e+02  -1.173087e+02
  -1.052245e+02  -2.343120e+02
   7.786800e+01  -1.900479e+02
   1.004491e+02   1.933925e+01
   1.386572e+02   2.547425e+02
  -2.409253e+01   2.571383e+02
  -1.677485e+02   5.148469e+01
  -2.883700e+02  -8.560450e+01
  -1.054596e+02  -2.899879e+02
   3.062196e+00  -2.855467e+02
   1.401988e+02  -9.024208e+01
   1.407690e+02  -8.022264e+01
   1.292296e+02  -6.627775e+01
   2.612488e+02  -5.340581e+01
   3.457501e+02   7.988263e+01
   3.187141e+02   3.087108e+02
  -2.980944e+01   3.531416e+02
  -2.694784e+02   3.782244e+02
  -4.394957e+02   1.496802e+02
  -2.292926e+02  -1.032616e+02
   2.061281e+01  -2.123880e+02
   6.107143e+01  -1.669010e+02
  -1.992579e+01  -2.669743e+01
  -5.697475e+01   3.528457e+01
  -1.018958e+02  -3.121780e+01
  -2.185860e+01  -1.178765e+02
   1.077552e+02  -7.985330e+01
   8.273631e+01   3.422919e+01
  -5.175211e+01   1.485112e+02
  -1.075086e+02  -6.207033e+01
  -1.339335e+02  -2.414948e+02
   1.582465e+01  -2.907954e+02
   1.838253e+02  -1.701537e+02
   2.553984e+02   3.558640e+01
   2.086894e+02   2.376803e+02
   3.367493e+01   2.274531e+02
  -6.973485e+01   1.623684e+02
  -1.918951e+02   3.355395e+01
  -2.220024e+01  -1.489178e+01
   6.870039e+01   7.246169e+01
   7.628792e+01   9.250542e+01
  -7.601481e+01   6.890798e+01
  -1.352777e+02  -1.007959e+01
  -3.229899e+01  -2.245975e+01
   8.514753e+01  -1.219927e+01
   2.445415e+01   1.442394e+01
  -9.140819e+01   5.178086e+01
  -2.559004e+02  -1.414694e+01
  -2.040111e+02  -1.324274e+02
  -4.569324e+01  -2.675270e+02
   1.660283e+02  -1.461087e+02
   2.001118e+02  -8.426859e+01
   1.067558e+02   5.787694e+00
  -5.399671e+01   7.175650e+01
  -2.680771e+01  -1.257835e+01
   7.140975e+01  -8.638624e+01
   1.424645e+02   9.711238e+00
   1.353587e+02   9.373083e+01
   2.269036e+01   1.483870e+02
  -6.414119e+01   1.416640e+02
  -1.190299e+02   3.195111e+01
  -4.361084e+01  -2.586680e+01
   7.005999e+01   3.784012e+01
   3.345705e+01   9.333501e+01
  -1.011059e+02   1.388585e+02
  -1.437098e+02  -2.735235e+00
  -1.438434e+02  -1.122449e+02
  -3.358073e+01  -1.651001e+02
   1.311315e+02  -1.682643e+02
   1.759831e+02  -1.232459e+01
   3.037130e+01   7.980043e+01
  -8.413372e+01   9.957490e+01
  -5.903037e+01   3.926704e+01
  -1.802031e+01  -9.347997e+00
   3.198933e+01  -3.940539e+00
   2.311479e+01   3.112985e+01
  -6.619257e+01  -2.747367e+01
  -7.206504e+01  -8.099380e+01
  -2.326970e+01  -1.858452e+02
   1.468110e+02  -1.165831e+02
   1.746721e+02  -5.737528e+01
   1.803930e+02   1.210167e+02
   3.367335e+01   2.271403e+02
  -5.090476e+01   1.368185e+02
  -1.017327e+02   5.011996e+01
  -9.724933e+01  -3.395802e+01
  -1.427192e+01   1.349122e-01
  -6.252245e+01   4.623292e+01
  -5.161237e+01   4.493975e+01
  -4.537704e+01  -6.180760e+01
   2.480776e+01  -1.248428e+02
   1.051195e+02  -9.051730e+01
   1.109156e+02   4.570216e+01
  -6.987452e+00   9.168051e+01
  -1.013134e+02   2.898048e+01
  -1.784575e+02  -7.066494e+01
  -7.416060e+01  -1.960727e+02
   2.143868e+01  -2.037941e+02
   2.003890e+02  -8.039120e+01
   1.667117e+02   9.001342e+01
   1.056027e+02   1.037605e+02
  -3.355556e+01   1.096714e+02
  -8.329310e+01   7.286150e+01
  -6.704074e+01   4.584884e+01
  -7.656274e+01   1.225464e+02
  -6.182343e+01   7.204089e+01
  -9.808062e+01  -4.276163e+01
  -1.207599e+02  -1.462137e+02
  -2.080925e+01  -1.812280e+02
   1.388958e+02  -1.739236e+02
   1.481404e+02  -2.755270e+01
   1.269327e+02   1.360634e+02
  -3.654916e+01   1.087509e+02
  -1.241535e+02   6.680548e+01
  -5.499531e+01   7.722301e+00
  -4.008203e+01  -3.537360e+01
   6.574250e+01  -3.348083e+01
  -4.413053e+01   3.780192e+00
  -6.773652e+01   1.528701e+01
  -4.669643e+01  -1.808482e+01
   9.522505e+01  -2.484855e+00
   1.023936e+02  -3.700097e+01
   8.772532e+01   6.230952e+01
   1.460815e-01   9.334947e+01
  -1.279605e+02   6.530972e+01
  -1.444693e+02  -1.510142e+01
  -6.162084e+01  -2.952744e+01
   6.488755e+01  -5.000941e+01
   8.686817e+01   3.969838e+01
  -1.044885e+01   7.065549e+01
  -1.240491e+01   7.859540e+01
  -8.782634e+01  -4.635057e-01
  -2.635028e+01  -5.000366e+01
  -2.373970e+01  -5.372114e+01
  -4.743986e+01  -1.342987e+00
  -2.823898e+01  -2.217749e+01
  -1.770157e+01  -9.394280e+01
   5.796059e+00  -1.773612e+02
   1.279597e+02  -1.232423e+02
   1.379145e+02  -3.246063e+01
   8.648225e+01   9.825048e+01
   2.947705e+01   8.496018e+01
  -7.214486e+01   2.408863e+01
  -2.109064e+01  -6.229430e+00
   3.043606e+01  -2.183243e+01
   1.018412e+02   1.865662e+01
   1.293618e+02   7.805209e+01
  -9.496033e+01   1.065069e+02
  -1.447464e+02   3.710391e+01
  -1.558557e+02  -5.116084e+01
  -5.126328e+01  -4.439420e+01
   7.814066e+01  -3.203498e+01
   7.230946e+01  -2.785227e+01
  -4.054237e+01   5.812583e+01
  -5.559903e+01  -1.398529e+01
  -3.803714e+00  -1.307095e+02
   3.757998e+01  -1.251783e+02
   1.177545e+02  -8.849890e+01
   1.326997e+02   6.045601e+01
   1.823568e+01   1.604785e+02
  -1.948395e+01   1.585834e+02
  -6.942356e+01   2.400027e+01
  -5.817887e+01  -8.844856e+01
   6.931453e+01  -1.166228e+02
   4.883801e+01  -6.375492e+00
   6.111080e+01   2.597864e+01
  -4.456204e+01  -1.035715e+01
   4.006456e+01   1.321249e+01
   6.958435e+01   3.119468e+01
   3.645217e+01   8.251826e+01
   4.019106e+01   7.009951e+01
  -5.898784e+01   2.422784e+01
  -1.462755e+02  -1.143123e+01
  -1.371874e+02  -8.753959e+01
  -2.989807e+01  -4.129484e+01
   7.623810e+01  -5.017889e+01
   8.499187e+01  -3.340880e+01
   1.284813e+01   1.316970e+01
  -4.609650e+01  -2.639625e-01
  -2.763504e+01  -1.063777e+01
   6.564892e+01  -2.011039e+00
   1.314387e+01   2.046477e+00
  -7.729183e+01   3.880097e+01
  -5.754796e+01  -4.588145e+01
   5.764826e+00  -8.933587e+01
   1.099887e+02  -1.331631e+02
   1.823057e+02  -7.453517e+01
   8.314638e+01   2.895875e+01
   1.152500e+01   1.472392e+02
  -8.566105e+01   1.240997e+02
  -1.137913e+02   6.409509e+01
  -3.167354e+01   1.939985e+01
   1.559499e+01  -4.868624e+01
  -4.629666e+00  -8.232233e+00
  -5.469807e+01   1.828421e-01
  -2.696733e+01  -4.491612e+01
   1.573079e+01  -1.352499e+02
   2.632258e+01  -4.141223e+01
   6.955618e+01   1.620441e+00
   9.646553e+01   8.715551e+01
   4.508960e+01   1.024864e+02
  -2.922390e+01   1.317604e+01
  -8.813554e+01  -3.347736e+01
  -1.936736e+01  -1.045913e+02
   6.376710e+01  -6.806602e+01
   1.110762e+02  -1.013798e+01
   1.377259e+01   3.384571e+00
  -1.969908e+01   2.201722e+01
  -4.319312e+01   2.702640e+01
   2.683214e+01   1.341654e+01
   3.290146e+01  -4.634102e+01
  -1.566455e+01   3.482585e+01
  -5.567071e+01   4.745267e+01
  -9.981200e+01   4.662380e+01
  -5.928720e+01  -4.796381e+01
  -1.695575e+00  -1.191068e+01
   6.178668e+01  -6.912075e+01
   3.717430e+01  -2.376069e+01
  -5.559870e+00   2.679452e+01
  -2.463587e+01   6.328631e+01
  -1.509495e+01  -2.050007e+01
  -5.115852e+01  -6.793284e+01
   2.724495e+01  -4.961300e+01
   3.449711e+01   1.244818e+01
   2.820949e+01   3.278515e+01
   3.875270e+01   5.914338e+00
  -2.198433e+01  -1.538259e+01
   2.283120e+01  -1.729399e+01
   1.804814e+01   4.258724e+01
  -6.819979e+00   4.233546e+01
  -3.394507e+01   1.080077e+01
  -5.281068e+01  -4.965629e+01
  -1.696469e+01  -4.850016e+01
  -1.186827e+00  -2.935999e+01
   7.044344e+01   5.220208e+01
   6.047395e-01   8.441144e+01
  -7.361763e+01   4.864866e+00
  -8.696915e+01  -6.368519e+00
  -5.304587e+01  -5.218595e+01
   5.074289e+01   6.961062e+00
   7.828084e+01  -2.970270e+01
   2.465805e+01   1.930444e+01
  -4.657454e+01  -1.756019e+00
  -3.475239e+01   4.678246e+01
   1.698175e+01   3.350670e+01
   7.925266e+01   4.180650e+01
