
 $NMID
 id='ANONYMOUS ', fmtdat='(2E16.6)'
 volume=1.0
 tramp=1.0
 $END
  -3.242273e+03   2.697640e+01
  -2.009188e+03  -1.724413e+03
   5.161849e+02  -1.767100e+03
   1.212700e+03  -1.149446e+03
   8.708344e+02   1.353217e+02
  -1.830077e+01   2.970905e+02
  -4.030730e+02  -1.768109e+02
  -1.345082e+01  -5.276739e+02
   5.922861e+02  -5.838184e+02
   6.329704e+02  -5.555668e+01
   2.826893e+02   4.360768e+02
  -1.522801e+01   6.295433e+02
  -3.145773e+02   7.839123e+01
  -2.863571e+02  -4.710374e+02
   1.110246e+02  -4.988586e+02
   4.715437e+02  -1.393054e+02
   2.998980e+02   4.964922e+02
  -1.472706e+02   6.289662e+02
  -4.510816e+02   2.091427e+02
  -3.509563e+02  -1.782711e+02
  -8.577817e+01  -3.677660e+02
   1.718272e+02  -2.016516e+02
   1.343398e+02  -5.922683e+01
  -1.403288e+02  -5.867276e+01
  -2.978545e+02  -1.858836e+02
   7.592102e+00  -4.031865e+02
   4.744597e+02  -2.159261e+02
   4.692783e+02   9.555629e+01
   2.663402e+02   3.473957e+02
  -3.083739e+02   1.433716e+02
  -4.530729e+02  -2.189743e+02
  -8.637495e+01  -3.014253e+02
   2.470734e+02  -2.771370e+02
   4.334759e+02  -4.971654e+01
   2.997996e+02   1.945654e+02
   1.310505e+02   3.719539e+02
  -6.530590e+01   1.508316e+02
  -3.475322e+00  -9.050267e+01
   1.775243e+02  -2.209861e+02
   1.849621e+02   1.259049e+02
  -4.685576e+00   4.293582e+02
  -3.462708e+02   3.820264e+02
  -3.534027e+02  -2.810212e+01
  -1.030214e+02  -3.537725e+02
   1.500000e+02  -1.709504e+02
   9.460148e+01   3.312490e+02
  -2.028137e+02   3.762355e+02
  -4.220496e+02   2.997732e+01
  -4.538357e+02  -3.329580e+02
  -2.117081e+02  -4.322170e+02
   2.936254e+02  -3.088374e+02
   5.281263e+02   8.952986e+01
   3.066366e+02   2.262706e+02
  -8.824283e+01   1.964389e+02
  -2.611530e+02   5.016252e+01
  -1.573099e+02  -3.101540e+01
   5.422311e+01  -5.195291e+01
   7.208387e+01   6.990189e+01
  -1.308117e+02   2.490204e+01
  -1.785460e+02  -8.520602e+01
  -1.167078e+02  -2.214379e+02
   1.799139e+02  -1.858716e+02
   3.164915e+02  -1.024388e+02
   2.387944e+02   5.928995e+01
  -3.634506e+01   2.576686e+02
  -2.065976e+02   3.208498e+02
  -2.632934e+02   1.158971e+02
  -2.474518e+02  -1.145375e+02
  -4.592423e+00  -2.787207e+02
   1.051801e+02  -3.448422e+02
   1.331946e+01  -1.505522e+02
  -1.170718e+01  -7.213928e+01
   8.274333e+01  -9.132635e+01
   2.494532e+02  -9.546030e+01
   2.042380e+02   1.578914e+02
   1.261220e+02   2.755094e+02
  -1.379914e+02   1.631273e+02
  -1.868980e+02  -4.788667e+01
  -9.003181e+01  -2.188938e+02
   7.025611e+01  -2.380945e+02
   2.265252e+02  -7.442186e+01
   2.475177e+02   1.784056e+02
   1.525018e+02   2.440533e+02
  -9.223567e+01   2.221947e+02
  -1.576292e+02   1.045273e+02
  -1.072188e+02   9.607508e+01
  -1.106881e+02   8.781682e+01
  -2.441874e+02  -3.553734e+00
  -3.958383e+02  -3.752849e+01
  -2.528646e+02  -3.211659e+02
   7.936402e+01  -3.917133e+02
   3.912589e+02  -3.149059e+02
   3.934936e+02  -1.291938e+02
   2.333914e+02   1.141807e+02
   8.417120e+00   2.791037e+02
  -1.025058e+02   1.968276e+02
  -1.246536e+01   3.090578e+01
   1.176114e+02  -4.210849e+01
   1.128997e+02   7.433986e+01
  -8.724824e+00   1.532769e+02
  -1.431595e+02   1.158022e+02
  -1.366657e+02  -6.739086e+01
   5.050602e+01  -1.090521e+02
   1.851336e+02  -2.392018e+01
   1.043527e+02   2.293352e+02
  -6.135819e+01   2.971328e+02
  -2.266567e+02   1.796367e+02
  -3.119124e+02  -1.030611e+02
  -2.351272e+02  -2.663599e+02
  -8.666113e+01  -2.661489e+02
   8.580010e+01  -1.302983e+02
   1.465548e+02   2.380154e-01
   2.964287e+01   1.726986e+01
  -5.342696e+01  -1.486466e+01
   6.406839e+00  -1.295448e+02
   1.263453e+02  -7.887618e+01
   1.518680e+02   4.447985e+00
   7.135429e+01   8.733657e+01
  -1.252943e+02  -1.291272e+01
  -1.550856e+01  -5.516682e+01
   1.447357e+02  -6.802982e+01
   3.053032e+02   7.897731e+01
   2.678842e+02   1.704980e+02
   7.233138e+01   2.247944e+02
  -2.027119e+02   2.447269e+02
  -2.759897e+02   1.359342e+02
  -1.151099e+02  -6.277024e+01
   5.428674e+01  -6.611859e+01
   6.365274e+01   1.068383e+00
  -5.098525e+01   6.684721e+01
  -1.692165e+02   1.499603e+01
  -1.384517e+02  -7.774749e+01
  -2.512696e+01  -1.793630e+02
   6.752803e+01  -1.226604e+02
   1.891804e+02  -3.016981e+01
   6.478218e+01   2.680077e+01
  -5.934588e+01  -1.972100e+01
  -3.713463e+01  -1.583399e+02
   9.713060e+01  -9.884631e+01
   2.109208e+02   4.008610e+01
   1.180141e+02   1.455353e+02
  -3.051781e-01   1.533306e+02
  -1.655141e+02   1.537575e+02
  -1.772638e+02  -1.768848e+01
  -3.367781e+01  -6.592719e+01
  -3.034977e+00  -1.037939e+02
   7.716570e+01  -1.179627e+01
   1.414555e+01  -5.529754e+00
   1.205634e+01   3.011564e+00
  -1.985919e+01  -4.779557e+01
   1.006361e+02  -1.044080e+01
   1.067358e+02   1.039389e+02
   2.014493e+01   1.266039e+02
  -1.248867e+02   1.390441e+02
  -2.173697e+02   1.878888e+00
  -1.279879e+02  -1.413126e+02
  -1.656549e+01  -2.493022e+02
   1.094482e+02  -1.147185e+02
   1.009567e+02   1.276313e+01
   3.295965e+01   3.344578e+01
   1.360554e+01   2.632756e+01
   8.861723e+01  -2.238230e+01
   7.496264e+01   3.216041e+01
   7.046333e+01   4.082401e+01
  -2.056606e+00   8.755840e+01
  -1.128340e+02   4.680544e+01
  -1.435057e+02  -7.445916e+00
   2.462014e+01  -1.093185e+02
   1.660313e+02  -6.906674e+01
   2.360333e+02   3.571961e+00
   4.535099e+01   2.046076e+02
  -1.057908e+02   1.810668e+02
  -2.653028e+02   6.268939e+01
  -2.307983e+02  -1.127826e+02
  -3.918745e+01  -1.525298e+02
   2.158691e+01  -8.496988e+01
   4.667190e+01  -6.899062e+01
   2.914932e+01  -4.927310e+01
   4.894579e+01  -8.964338e+01
   1.175812e+02  -1.181281e+02
   1.180497e+02   5.306543e+01
   9.629182e+01   1.527601e+02
   7.304121e+01   2.171925e+02
  -1.394048e+02   1.276141e+02
  -2.327476e+02   2.825273e+00
  -1.117898e+02  -1.037476e+02
  -1.561482e+01  -1.659625e+02
   9.458017e+01  -4.204731e+01
   5.138243e+01  -1.476099e+01
  -5.082554e+01   1.474567e+01
  -2.134448e+01   4.297853e+01
   3.384470e+00   2.172065e+01
   6.962318e+01   4.982933e+01
  -1.326620e+00   1.623490e+01
  -7.691110e+01   3.581969e+01
  -2.413356e+02  -1.096795e+01
  -1.607666e+02  -5.945125e+01
  -2.056312e+01  -8.647202e+01
   9.415647e+01  -1.031775e+01
   1.457486e+02  -2.547624e+01
   5.658089e+01   6.141427e+01
  -1.089883e+02   3.464773e+01
  -5.569185e+01  -4.282132e+01
   8.645352e+00  -5.808463e+01
   6.278343e+01  -7.427049e+01
   3.146886e+01   5.962707e+00
  -1.987655e+01   2.236889e+01
   3.906824e+01   2.702128e+00
   5.615448e+01  -4.549752e+01
   2.795482e+01  -3.619622e+01
   5.684087e+01   5.881091e+01
  -2.421741e+01   1.551339e+02
  -1.067610e+02   1.222268e+02
  -2.024321e+02   7.855727e+01
  -1.267813e+02  -7.152105e+01
   3.506199e+01  -1.114369e+02
   1.108807e+02  -5.091224e+01
   4.208736e+01   2.481069e+01
  -4.664417e+01   1.397782e+01
  -1.222203e+02  -2.700743e+01
  -5.172812e+01  -7.117134e+01
   8.059926e+01  -5.424446e+01
   1.851699e+02  -4.171300e+01
   1.148689e+02   7.330486e+01
   2.886273e+00   5.776522e+01
  -4.263654e+01   6.474958e+01
  -4.667802e+01   2.746832e+01
   3.505801e+01  -2.329892e+01
   1.823628e+01   1.221987e+01
   7.755363e+01   7.484187e+01
  -6.744604e+01   9.780000e+01
  -6.283790e+01   3.721763e+01
  -1.408400e+02  -4.530766e+01
  -2.509768e+01  -1.722618e+02
   4.252165e+01  -1.576398e+02
   1.185191e+02   2.944759e+01
   8.528099e+01   1.100628e+02
   5.022649e-01   9.495507e+01
  -4.783812e+01   3.057634e+01
  -3.464275e+01  -4.666433e+01
   4.901114e+01  -2.204493e+01
  -2.923686e+01   8.754859e+00
   1.301989e+01  -1.421751e+01
  -5.503334e+01  -1.044750e+02
   2.197778e+01  -1.071570e+02
   7.470642e+01  -3.599423e+01
   1.146817e+02   5.502064e+01
   1.290571e+02   9.743790e+01
  -4.138066e+00   1.830967e+01
  -1.042198e+02  -4.016881e-02
  -9.757962e+01   6.088243e+00
  -6.576728e+00   1.161350e+00
   6.369919e+01   1.898963e+01
   4.239984e+01  -4.923846e+01
  -3.246824e+01   1.781055e+01
   2.945024e+01   5.961870e+00
   7.648620e+01   9.614965e+00
   6.902027e+01   5.347251e+01
   1.588812e+01   5.784015e+01
  -9.916824e+01   7.815815e+01
  -2.035546e+02   7.208571e+01
  -1.420163e+02  -4.976033e+01
  -2.081700e+01  -1.599024e+02
   8.386218e+01  -8.547053e+01
   9.861337e+01  -5.505306e+01
   6.411823e+01  -3.265196e+01
   1.736980e+01   4.461973e+01
  -1.967420e+01  -1.482285e+00
   3.031314e+01   1.525548e+01
   3.373730e+01   9.112677e+01
  -1.318843e+01   9.891367e+01
  -2.492496e+01   5.921850e+01
  -7.284643e+01  -5.938310e+01
  -2.530388e+01  -4.409074e+01
  -2.537212e+01  -8.259924e+01
   5.790009e+01  -2.013301e+01
   1.171682e+02   7.861641e+01
   3.697576e+01   1.240408e+02
  -6.814725e+01   3.696140e+01
  -9.783798e+01   1.928407e+00
  -4.274666e+01  -6.150431e+01
   3.601308e+01  -1.153661e+02
   8.006382e+01  -4.096036e+00
  -2.261623e+01  -2.208110e+01
  -5.757745e+01  -2.097678e+00
  -6.424130e+01  -4.511644e+01
   7.123037e+01  -5.768982e+01
   1.235999e+02  -6.971110e+01
   8.792510e+01   2.511957e+00
  -2.200548e+01   7.191355e+01
  -8.810506e+01   6.930558e+01
  -8.147804e+01  -3.379599e+00
  -2.598766e+00  -5.536575e+01
   8.328977e+01  -6.331628e+01
   1.802693e+01   6.869280e+00
  -3.934688e+00   5.010271e+01
  -1.087803e+01   2.699973e+01
   2.401008e+01  -3.535831e+01
  -1.440109e+01  -2.561080e+01
  -2.394909e+01  -5.858840e+00
  -1.686960e+01   7.226424e+00
  -1.760870e+00  -1.767822e+00
   9.794485e+00  -4.203176e+00
   2.006006e+01  -7.077991e+01
   3.412018e+01  -1.566055e+01
   1.902401e+01   3.989815e+01
  -6.726757e+00   6.644054e+01
  -2.438030e+01   3.770513e+01
  -9.150514e+01  -6.454353e+01
  -3.411643e+01  -4.038960e+01
   4.025182e+01  -4.986422e+01
   1.017682e+02  -1.291747e+01
   4.507839e+01   3.789322e+01
  -4.686956e+01   8.082951e+01
  -5.950398e+01  -3.018054e+01
  -5.591771e+01   6.329261e+00
   6.514969e+00  -3.370760e+01
   4.910865e+01   1.681269e+01
  -2.063526e+01   2.333571e+01
  -4.184526e+01   2.214352e+01
