
 $NMID
 id='ANONYMOUS ', fmtdat='(2E16.6)'
 volume=1.0
 tramp=1.0
 $END
   3.554468e+07  -2.259035e+06
   2.391566e+07   1.870284e+07
  -1.305750e+06   2.396641e+07
  -1.627690e+07   1.266797e+07
  -1.192622e+07  -1.571026e+06
   5.896639e+05  -6.378516e+06
   6.822790e+06  -1.179375e+06
   3.644580e+06   6.024278e+06
  -2.796047e+06   7.803025e+06
  -6.378586e+06   2.877390e+06
  -5.207429e+06  -3.977015e+06
  -8.800710e+05  -6.251628e+06
   2.794176e+06  -1.813766e+06
   2.241564e+06   4.466781e+06
  -2.110418e+06   5.563083e+06
  -5.492749e+06   3.895321e+04
  -3.844960e+06  -6.566492e+06
   1.681431e+06  -8.210944e+06
   6.361989e+06  -4.309360e+06
   6.937852e+06   1.191426e+06
   3.983038e+06   4.545203e+06
   4.565248e+05   4.807464e+06
  -8.853029e+05   3.340580e+06
   3.742072e+05   2.305586e+06
   1.640644e+06   2.886495e+06
  -2.321524e+05   3.947386e+06
  -4.768432e+06   3.116853e+06
  -7.440413e+06  -8.064343e+04
  -4.902564e+06  -3.130386e+06
   4.999873e+05  -3.416830e+06
   3.368878e+06  -1.246618e+06
   1.652600e+06   9.425907e+05
  -1.681063e+06   1.396357e+06
  -3.009254e+06   4.846825e+04
  -1.807975e+06  -2.143644e+06
   2.084024e+05  -3.508705e+06
   1.527848e+06  -2.404405e+06
   1.545868e+06   6.131191e+05
   4.764917e+05   2.275102e+06
  -4.108373e+05   3.726566e+05
   2.839148e+05  -2.584140e+06
   1.969823e+06  -2.097237e+06
   2.074902e+06   1.887013e+06
  -6.305420e+05   4.209677e+06
  -3.699842e+06   1.292133e+06
  -3.475699e+06  -3.856656e+06
   4.883613e+05  -5.424832e+06
   4.710145e+06  -1.913525e+06
   5.419024e+06   2.776844e+06
   2.094962e+06   4.449323e+06
  -2.402586e+06   2.575120e+06
  -4.427424e+06  -5.262610e+05
  -2.524293e+06  -2.376040e+06
   1.279032e+06  -1.890570e+06
   3.241238e+06   1.556187e+05
   1.712953e+06   1.639693e+06
  -1.030266e+06   1.067835e+06
  -1.564081e+06  -6.278166e+05
   4.325822e+05  -1.139372e+06
   1.943411e+06   2.602556e+05
   6.454228e+05   1.852723e+06
  -2.222520e+06   1.755986e+06
  -3.581852e+06  -5.456832e+04
  -2.008117e+06  -2.313277e+06
   1.265361e+06  -3.805379e+06
   3.990546e+06  -3.576706e+06
   4.645017e+06  -1.139178e+06
   3.114301e+06   2.439097e+06
   6.545484e+05   4.613525e+06
  -9.693544e+05   3.863571e+06
  -1.045781e+06   1.619448e+06
  -5.775258e+05   4.802478e+05
  -9.158465e+05   8.898517e+05
  -1.978807e+06   9.493885e+05
  -2.422544e+06  -5.203111e+05
  -1.404319e+06  -2.196638e+06
   4.563349e+05  -2.073105e+06
   1.792456e+06  -3.400010e+04
   1.611987e+06   2.111840e+06
  -1.249502e+05   2.598275e+06
  -2.344379e+06   1.135915e+06
  -3.334494e+06  -1.168738e+06
  -2.193517e+06  -2.769111e+06
   3.361864e+04  -2.817257e+06
   1.381417e+06  -1.806492e+06
   1.321595e+06  -9.699514e+05
   1.286252e+06  -8.426448e+05
   2.427066e+06  -6.951445e+05
   3.703616e+06   3.874575e+05
   3.079245e+06   2.211271e+06
   2.380322e+05   3.577087e+06
  -2.785022e+06   3.432937e+06
  -3.719151e+06   1.713810e+06
  -2.230941e+06  -6.013969e+05
   4.389184e+04  -2.007249e+06
   1.154476e+06  -1.546419e+06
   4.546292e+05   1.202103e+05
  -1.008964e+06   1.103843e+06
  -1.580409e+06   3.571600e+05
  -6.909373e+05  -9.693284e+05
   5.304017e+05  -9.911156e+05
   5.726567e+05   3.106382e+05
  -6.521463e+05   9.499111e+05
  -1.703053e+06  -4.163470e+05
  -1.256843e+06  -2.630499e+06
   5.669742e+05  -3.379978e+06
   2.514360e+06  -1.812625e+06
   3.327927e+06   7.833299e+05
   2.507633e+06   2.519232e+06
   5.642065e+05   2.532493e+06
  -1.161285e+06   1.332078e+06
  -1.445173e+06   1.543446e+05
  -4.383517e+05  -3.416252e+04
   3.399650e+05   6.482524e+05
  -2.557898e+05   1.120776e+06
  -1.523969e+06   5.556480e+05
  -1.758772e+06  -6.002087e+05
  -4.540223e+05  -1.145507e+06
   9.839823e+05  -5.785262e+05
   9.044183e+05   3.720595e+05
  -6.728246e+05   6.604614e+05
  -2.103039e+06  -3.148735e+04
  -1.845351e+06  -1.185324e+06
   5.721498e+04  -1.947696e+06
   2.052894e+06  -1.654223e+06
   2.486177e+06  -3.392901e+05
   1.096563e+06   1.028795e+06
  -7.207974e+05   1.246743e+06
  -1.248612e+06   1.875356e+05
  -1.425735e+05  -8.751987e+05
   1.294363e+06  -6.610108e+05
   1.553536e+06   5.948253e+05
   4.498075e+05   1.453134e+06
  -8.614272e+05   1.015463e+06
  -1.169978e+06  -1.087042e+05
  -3.485091e+05  -6.485874e+05
   6.305761e+05  -9.671494e+04
   6.406871e+05   8.876429e+05
  -5.077292e+05   1.239168e+06
  -1.766563e+06   4.721298e+05
  -1.792348e+06  -9.082633e+05
  -3.795457e+05  -1.807221e+06
   1.197949e+06  -1.484975e+06
   1.512781e+06  -2.686908e+05
   5.169768e+05   7.394749e+05
  -5.409436e+05   7.615191e+05
  -6.253670e+05   7.211517e+04
   5.002427e+04  -4.410319e+05
   5.332281e+05  -3.060313e+05
   2.951312e+05   1.043474e+05
  -3.159223e+05   1.120354e+05
  -5.396197e+05  -4.584369e+05
   6.408854e+04  -1.039974e+06
   1.173789e+06  -8.476091e+05
   1.851102e+06   3.089517e+05
   1.327439e+06   1.685956e+06
  -1.531639e+05   2.179429e+06
  -1.434527e+06   1.372966e+06
  -1.602441e+06  -2.169136e+04
  -9.068279e+05  -8.804814e+05
  -3.161108e+05  -7.845690e+05
  -3.079510e+05  -3.032486e+05
  -4.372635e+05  -2.076210e+05
  -8.117158e+04  -5.911959e+05
   7.254089e+05  -8.414924e+05
   1.312736e+06  -3.777115e+05
   1.035407e+06   6.584424e+05
  -1.471043e+05   1.414776e+06
  -1.531177e+06   1.059073e+06
  -2.053197e+06  -3.719840e+05
  -1.112775e+06  -1.830475e+06
   7.532246e+05  -2.123915e+06
   2.173726e+06  -1.043859e+06
   2.165203e+06   4.393761e+05
   1.027047e+06   1.183175e+06
  -9.678976e+04   9.813706e+05
  -4.392183e+05   5.701585e+05
  -2.198929e+05   6.406215e+05
  -1.402465e+05   1.055132e+06
  -5.379200e+05   1.084536e+06
  -1.090371e+06   2.862468e+05
  -1.183136e+06  -9.462293e+05
  -5.140733e+05  -1.681729e+06
   5.434556e+05  -1.288952e+06
   1.156952e+06  -4.155325e+04
   7.794595e+05   1.081196e+06
  -2.423901e+05   1.248770e+06
  -9.439352e+05   4.850820e+05
  -7.362034e+05  -4.595706e+05
  -1.761514e+04  -8.870683e+05
   3.375719e+05  -7.347619e+05
   2.116237e+04  -4.288540e+05
  -3.639907e+05  -3.187131e+05
  -4.157691e+04  -3.506206e+05
   9.761002e+05  -2.259907e+05
   1.780762e+06   2.295633e+05
   1.459321e+06   8.506159e+05
   7.533074e+04   1.224236e+06
  -1.299122e+06   1.024186e+06
  -1.597696e+06   3.399337e+05
  -7.899855e+05  -3.229730e+05
   1.766800e+05  -4.657026e+05
   4.309011e+05  -8.364654e+04
   6.726591e+03   3.095514e+05
  -4.240467e+05   2.150757e+05
  -4.219352e+05  -2.991791e+05
  -1.572276e+05  -6.556697e+05
  -2.037375e+04  -4.240165e+05
  -1.353586e+05   1.378462e+05
  -3.088014e+05   3.234638e+05
  -2.619535e+05  -1.958219e+05
   1.527914e+05  -9.020094e+05
   7.785955e+05  -9.474409e+05
   1.114300e+06  -1.343695e+05
   6.826988e+05   7.954527e+05
  -3.455814e+05   9.497093e+05
  -1.057210e+06   2.511568e+05
  -6.485090e+05  -5.235934e+05
   5.988508e+05  -6.067813e+05
   1.457743e+06   2.236266e+04
   1.013942e+06   7.460184e+05
  -3.502672e+05   9.613311e+05
  -1.363358e+06   5.549063e+05
  -1.178828e+06  -1.029270e+05
  -1.651322e+05  -4.794895e+05
   5.709438e+05  -2.881701e+05
   3.265874e+05   2.302152e+05
  -5.452417e+05   4.359639e+05
  -1.045692e+06  -1.084822e+05
  -5.482821e+05  -1.067638e+06
   5.786512e+05  -1.496277e+06
   1.349317e+06  -7.604793e+05
   1.130095e+06   6.903211e+05
   1.930666e+05   1.622570e+06
  -6.546270e+05   1.211144e+06
  -8.527240e+05  -1.036268e+05
  -4.510297e+05  -1.065405e+06
   1.291515e+05  -9.147504e+05
   4.891548e+05  -1.102124e+05
   4.659319e+05   3.481772e+05
   1.946662e+05   1.417894e+05
   2.602057e+04  -1.037172e+05
   1.917104e+05   2.212819e+05
   4.481325e+05   8.458316e+05
   2.424143e+05   9.859548e+05
  -5.741662e+05   3.834969e+05
  -1.343894e+06  -4.021770e+05
  -1.217200e+06  -7.431883e+05
  -1.832182e+05  -6.160864e+05
   8.084739e+05  -3.775145e+05
   9.031530e+05  -1.921397e+05
   2.901911e+05   1.131806e+04
  -1.453828e+05   1.983645e+05
   2.019173e+04   2.187286e+05
   2.915732e+05   1.191571e+05
   2.431960e+04   1.192503e+05
  -6.493779e+05   1.901487e+05
  -9.309598e+05  -1.529683e+04
  -3.154064e+05  -5.978117e+05
   7.923791e+05  -1.026539e+06
   1.476650e+06  -6.602670e+05
   1.199713e+06   3.963795e+05
   2.376350e+05   1.266827e+06
  -6.588283e+05   1.225744e+06
  -9.309385e+05   4.562527e+05
  -5.940050e+05  -2.330323e+05
  -1.004303e+05  -3.160375e+05
   1.043680e+05  -2.282717e+04
  -6.014740e+04   5.385541e+04
  -2.997853e+05  -3.142228e+05
  -2.510608e+05  -7.251352e+05
   1.629771e+05  -5.986937e+05
   6.178113e+05   1.375928e+05
   6.377273e+05   8.762663e+05
   5.917728e+04   9.117787e+05
  -6.970352e+05   1.782012e+05
  -9.136927e+05  -6.789373e+05
  -2.910549e+05  -9.675097e+05
   6.367180e+05  -5.773994e+05
   9.781252e+05   6.760182e+04
   4.589716e+05   5.076223e+05
  -2.419390e+05   5.671292e+05
  -2.955466e+05   3.282576e+05
   2.633051e+05   2.868687e+04
   5.927322e+05  -3.238613e+04
   1.203584e+05   2.647097e+05
  -7.351853e+05   6.227065e+05
  -1.092337e+06   5.337150e+05
  -6.472450e+05  -1.125785e+05
   7.992234e+04  -7.632615e+05
   4.477153e+05  -7.605821e+05
   3.335965e+05  -1.237628e+05
   2.749344e+04   4.439479e+05
  -2.156651e+05   3.684347e+05
  -3.144489e+05  -1.670100e+05
  -2.268631e+05  -5.162094e+05
   4.896709e+04  -3.476846e+05
   3.472121e+05   5.281993e+04
   4.195423e+05   2.191442e+05
   2.212562e+05   6.068338e+04
  -1.713088e+04  -1.019451e+05
  -8.238861e+04   2.335880e+04
  -4.181953e+04   3.340304e+05
  -1.084433e+05   4.422526e+05
  -2.985211e+05   1.268617e+05
  -3.582191e+05  -3.739969e+05
  -7.876054e+04  -5.762596e+05
   3.798937e+05  -2.643590e+05
   5.696282e+05   2.663036e+05
   2.111971e+05   5.243999e+05
  -4.398653e+05   3.281019e+05
  -7.674871e+05  -7.371937e+04
  -4.216483e+05  -3.337935e+05
   2.559404e+05  -3.336236e+05
   5.563098e+05  -1.774168e+05
   1.946982e+05  -1.672934e+04
  -3.462568e+05   2.898652e+04
  -3.763784e+05  -9.705097e+04
   1.847390e+05  -2.827455e+05
   7.184666e+05  -2.408959e+05
