
 $NMID
 id='ANONYMOUS ', fmtdat='(2E16.6)'
 volume=1.0
 tramp=1.0
 $END
   6.045686e+07  -1.066676e+05
   3.600500e+07   3.802491e+07
  -8.563346e+06   4.103380e+07
  -2.973659e+07   1.497930e+07
  -1.724636e+07  -8.221143e+06
   3.906054e+06  -9.891542e+06
   1.033541e+07   1.800606e+06
   2.500696e+06   1.046432e+07
  -6.852913e+06   9.467058e+06
  -1.020931e+07   1.757254e+06
  -7.347457e+06  -6.517849e+06
  -9.059078e+05  -8.948217e+06
   4.154551e+06  -2.994927e+06
   2.742559e+06   5.439236e+06
  -4.002833e+06   6.602402e+06
  -8.282824e+06  -1.603486e+06
  -4.578256e+06  -1.083097e+07
   4.107549e+06  -1.245549e+07
   1.075839e+07  -6.301323e+06
   1.160255e+07   2.067802e+06
   7.298655e+06   8.003052e+06
   8.670756e+05   9.504758e+06
  -3.366799e+06   6.702315e+06
  -2.471830e+06   2.693149e+06
   9.257357e+05   1.758960e+06
   5.026697e+05   4.037916e+06
  -5.257744e+06   4.722080e+06
  -9.922293e+06   8.583268e+05
  -7.498854e+06  -4.130319e+06
  -5.902373e+05  -5.378023e+06
   3.611985e+06  -2.982155e+06
   2.650000e+06  -3.860686e+05
  -1.781949e+05   7.736384e+05
  -1.915714e+06   6.850233e+05
  -2.264480e+06  -1.078578e+06
  -1.047135e+06  -3.882289e+06
   1.744627e+06  -4.188825e+06
   3.656027e+06  -1.159164e+05
   2.104660e+06   3.897609e+06
  -8.434566e+05   2.363654e+06
  -5.983329e+05  -2.296640e+06
   2.453516e+06  -2.307158e+06
   2.503347e+06   3.426863e+06
  -2.801824e+06   6.498497e+06
  -7.663660e+06   9.728598e+05
  -5.518743e+06  -7.521929e+06
   2.153669e+06  -9.159460e+06
   7.921199e+06  -2.586463e+06
   7.192129e+06   4.660727e+06
   1.779482e+06   6.222325e+06
  -3.610101e+06   2.687390e+06
  -5.303371e+06  -1.684935e+06
  -2.336083e+06  -3.641118e+06
   2.635837e+06  -2.234042e+06
   4.748217e+06   1.054236e+06
   1.980953e+06   2.913841e+06
  -1.837980e+06   1.435124e+06
  -1.734748e+06  -1.076589e+06
   1.527877e+06  -8.216443e+05
   2.553887e+06   2.114129e+06
  -9.459559e+05   3.794572e+06
  -5.157109e+06   1.925217e+06
  -5.625862e+06  -1.630940e+06
  -2.369700e+06  -4.290431e+06
   1.806824e+06  -5.526691e+06
   5.026240e+06  -5.123382e+06
   6.386360e+06  -1.973469e+06
   4.908475e+06   3.171707e+06
   1.104701e+06   6.384920e+06
  -1.982380e+06   4.877435e+06
  -1.890132e+06   1.062704e+06
  -1.933156e+04  -4.729337e+05
   3.569464e+05   9.774127e+05
  -1.381845e+06   2.028324e+06
  -2.826786e+06   5.373828e+05
  -2.197042e+06  -1.726272e+06
  -2.319211e+05  -2.090255e+06
   1.411291e+06  -2.956594e+05
   1.681408e+06   1.942424e+06
   1.067554e+05   2.927749e+06
  -2.760258e+06   1.811579e+06
  -4.679701e+06  -1.065492e+06
  -3.487079e+06  -3.867698e+06
  -3.400101e+04  -4.508853e+06
   2.427346e+06  -2.935016e+06
   2.415195e+06  -1.177486e+06
   1.920144e+06  -6.319722e+05
   2.978682e+06  -4.422383e+05
   4.396050e+06   7.742122e+05
   3.529515e+06   2.775023e+06
   1.653124e+05   4.143633e+06
  -3.148258e+06   3.962664e+06
  -4.125275e+06   2.254454e+06
  -2.709086e+06  -2.934566e+05
  -4.179430e+05  -2.224390e+06
   1.005040e+06  -2.016578e+06
   5.830150e+05  -5.803935e+03
  -1.048441e+06   1.352601e+06
  -1.939896e+06   4.346309e+05
  -9.895692e+05  -1.224634e+06
   4.718968e+05  -1.127855e+06
   3.702464e+05   3.901473e+05
  -1.150826e+06   5.997329e+05
  -1.852272e+06  -1.503643e+06
  -4.653230e+05  -3.627071e+06
   1.821180e+06  -3.306366e+06
   3.205996e+06  -8.756016e+05
   3.189438e+06   1.558568e+06
   2.150252e+06   2.691606e+06
   4.436988e+05   2.524377e+06
  -1.194571e+06   1.476492e+06
  -1.561587e+06   2.745637e+05
  -4.949983e+05  -3.999070e+04
   3.650132e+05   7.546556e+05
  -4.320373e+05   1.378331e+06
  -1.966619e+06   5.988580e+05
  -2.074382e+06  -9.250189e+05
  -3.704520e+05  -1.457622e+06
   1.186407e+06  -5.680865e+05
   8.559069e+05   4.515992e+05
  -8.721566e+05   4.573300e+05
  -2.125192e+06  -3.823429e+05
  -1.655782e+06  -1.337013e+06
   2.792775e+05  -1.902524e+06
   2.285583e+06  -1.626312e+06
   2.770226e+06  -2.846557e+05
   1.238738e+06   1.287445e+06
  -9.342388e+05   1.560076e+06
  -1.618713e+06   2.112083e+05
  -2.368793e+05  -1.115885e+06
   1.531334e+06  -7.654403e+05
   1.729393e+06   7.954137e+05
   3.067580e+05   1.660720e+06
  -1.124712e+06   9.401757e+05
  -1.247320e+06  -3.607394e+05
  -2.078060e+05  -7.999036e+05
   8.298012e+05  -4.997195e+04
   7.644483e+05   1.063816e+06
  -5.536327e+05   1.451481e+06
  -2.014188e+06   5.861497e+05
  -2.071890e+06  -1.028557e+06
  -4.071432e+05  -2.094241e+06
   1.453464e+06  -1.667090e+06
   1.742266e+06  -2.069543e+05
   4.915165e+05   8.791969e+05
  -6.662765e+05   8.001501e+05
  -6.092152e+05   8.818033e+04
   1.347630e+05  -3.113802e+05
   4.466769e+05  -1.664988e+05
   4.355355e+04   4.218077e+04
  -4.858870e+05  -1.487715e+05
  -4.954766e+05  -7.263289e+05
   2.399486e+05  -1.201400e+06
   1.396846e+06  -8.999468e+05
   2.097877e+06   4.052263e+05
   1.495561e+06   1.944652e+06
  -1.913099e+05   2.424813e+06
  -1.598021e+06   1.397349e+06
  -1.656219e+06  -1.361501e+05
  -8.151098e+05  -8.498421e+05
  -3.159816e+05  -5.615323e+05
  -5.332024e+05  -1.660939e+05
  -6.859488e+05  -3.348950e+05
  -1.028413e+05  -8.040050e+05
   8.886502e+05  -9.008753e+05
   1.436882e+06  -3.103577e+05
   1.019941e+06   7.005403e+05
  -2.597093e+05   1.417612e+06
  -1.709714e+06   1.059411e+06
  -2.241245e+06  -4.713916e+05
  -1.129510e+06  -2.104442e+06
   1.035286e+06  -2.384281e+06
   2.573093e+06  -1.025105e+06
   2.339709e+06   6.848744e+05
   9.060149e+05   1.330215e+06
  -2.277088e+05   8.911063e+05
  -3.402278e+05   4.682543e+05
   1.403716e+03   7.715538e+05
  -5.885266e+04   1.362493e+06
  -6.756962e+05   1.333804e+06
  -1.320183e+06   3.428246e+05
  -1.367013e+06  -1.066229e+06
  -5.870206e+05  -1.893702e+06
   6.012705e+05  -1.450794e+06
   1.284896e+06  -2.741935e+03
   8.137544e+05   1.300489e+06
  -4.134335e+05   1.405657e+06
  -1.199914e+06   3.723726e+05
  -8.196976e+05  -7.575281e+05
   1.615324e+05  -1.112952e+06
   5.868797e+05  -7.768217e+05
   1.018930e+05  -3.926637e+05
  -4.513444e+05  -3.202590e+05
  -7.247812e+04  -3.795280e+05
   1.170443e+06  -2.139429e+05
   2.102551e+06   3.255496e+05
   1.633899e+06   1.043049e+06
  -6.086475e+04   1.464987e+06
  -1.626961e+06   1.171237e+06
  -1.848696e+06   2.710503e+05
  -8.239113e+05  -5.342168e+05
   2.774440e+05  -5.951762e+05
   5.244033e+05  -1.824483e+04
   4.809347e+04   4.536531e+05
  -4.260918e+05   2.760610e+05
  -4.944059e+05  -3.364495e+05
  -3.033177e+05  -7.155543e+05
  -1.388581e+05  -4.809454e+05
  -1.296137e+05   7.111413e+04
  -2.439601e+05   2.675420e+05
  -2.716595e+05  -2.332769e+05
   1.083670e+05  -9.809719e+05
   8.910880e+05  -1.089756e+06
   1.413372e+06  -2.162302e+05
   9.147118e+05   9.092652e+05
  -4.041411e+05   1.186931e+06
  -1.288665e+06   3.928532e+05
  -7.527771e+05  -5.521891e+05
   7.057716e+05  -6.509889e+05
   1.574774e+06   9.694763e+04
   9.644893e+05   8.589600e+05
  -5.102517e+05   9.601539e+05
  -1.480418e+06   4.415158e+05
  -1.198214e+06  -2.032815e+05
  -1.202455e+05  -5.018577e+05
   6.512618e+05  -2.575389e+05
   4.023656e+05   3.046492e+05
  -5.606232e+05   5.568802e+05
  -1.196699e+06  -2.864665e+04
  -7.370326e+05  -1.160716e+06
   5.143131e+05  -1.742342e+06
   1.452510e+06  -9.501812e+05
   1.278495e+06   7.189986e+05
   2.438757e+05   1.782593e+06
  -7.158144e+05   1.285576e+06
  -9.185558e+05  -1.897309e+05
  -4.204847e+05  -1.187919e+06
   2.418987e+05  -9.475472e+05
   5.722213e+05  -7.516564e+04
   4.439247e+05   3.602890e+05
   1.336520e+05   1.209258e+05
   5.901665e+04  -8.461861e+04
   3.319087e+05   3.186477e+05
   5.452803e+05   9.705697e+05
   1.697127e+05   1.065189e+06
  -7.555073e+05   3.962095e+05
  -1.478806e+06  -4.366685e+05
  -1.257569e+06  -8.109282e+05
  -1.925224e+05  -7.043711e+05
   8.115764e+05  -4.441017e+05
   9.677653e+05  -1.890558e+05
   3.909059e+05   7.046224e+04
  -1.273952e+05   2.343019e+05
  -7.272855e+04   1.808119e+05
   2.235905e+05   5.966064e+04
   7.239478e+04   1.311770e+05
  -6.095575e+05   2.751786e+05
  -1.058435e+06   2.844378e+04
  -5.212197e+05  -6.983087e+05
   7.719269e+05  -1.237434e+06
   1.723121e+06  -8.368231e+05
   1.491364e+06   3.734042e+05
   3.341902e+05   1.398410e+06
  -7.480791e+05   1.417881e+06
  -1.043823e+06   6.027763e+05
  -6.602605e+05  -1.872706e+05
  -1.656085e+05  -3.591219e+05
   2.872927e+04  -1.014956e+05
  -9.423790e+04  -1.575083e+04
  -2.876182e+05  -3.744560e+05
  -2.505921e+05  -8.041568e+05
   1.515018e+05  -6.994391e+05
   6.812517e+05   6.668525e+04
   8.042123e+05   9.031297e+05
   2.030775e+05   1.043386e+06
  -7.227904e+05   3.234487e+05
  -1.083027e+06  -6.477934e+05
  -4.174861e+05  -1.089708e+06
   6.902364e+05  -7.416205e+05
   1.152968e+06   2.697168e+04
   5.797280e+05   6.353220e+05
  -2.741012e+05   7.362313e+05
  -4.117449e+05   3.895038e+05
   2.050876e+05  -1.980406e+04
   6.404269e+05  -6.857311e+04
   1.723893e+05   3.151372e+05
  -8.082732e+05   7.021212e+05
  -1.285919e+06   5.450308e+05
  -8.151445e+05  -1.939896e+05
   6.637277e+04  -8.959433e+05
   5.696823e+05  -8.944794e+05
   4.714697e+05  -2.066572e+05
   9.590468e+04   4.627585e+05
  -2.191534e+05   4.717986e+05
  -3.594708e+05  -9.431411e+04
  -2.818039e+05  -5.709712e+05
   2.997788e+04  -4.708404e+05
   3.979911e+05   1.312503e+04
   5.005586e+05   2.967342e+05
   2.456828e+05   1.152901e+05
  -5.865487e+04  -1.846034e+05
  -8.042688e+04  -1.096665e+05
   8.533661e+04   3.319773e+05
   4.974586e+04   6.080464e+05
  -2.917009e+05   3.111194e+05
  -5.350899e+05  -3.181664e+05
  -2.577295e+05  -6.446115e+05
   3.789024e+05  -3.541651e+05
   7.096331e+05   2.302249e+05
   2.998445e+05   5.517778e+05
  -5.109479e+05   3.917170e+05
  -9.182209e+05  -2.589629e+04
  -5.090016e+05  -3.623296e+05
   2.831981e+05  -4.465255e+05
   6.493674e+05  -2.927261e+05
   2.864759e+05  -3.239882e+04
  -2.996619e+05   1.206698e+05
  -3.967754e+05   2.011164e+03
   1.163433e+05  -2.723472e+05
   6.722479e+05  -3.072965e+05
