
 $NMID
 id='ANONYMOUS ', fmtdat='(2E16.6)'
 volume=1.0
 tramp=1.0
 $END
   5.477342e+07  -1.005735e+06
   3.375115e+07   3.328137e+07
  -6.431102e+06   3.729730e+07
  -2.668140e+07   1.489956e+07
  -1.635674e+07  -6.477208e+06
   3.009373e+06  -9.219897e+06
   9.707675e+06   9.624211e+05
   2.961315e+06   9.541412e+06
  -5.923612e+06   9.329439e+06
  -9.443986e+06   2.160322e+06
  -6.920220e+06  -5.954852e+06
  -8.980807e+05  -8.395584e+06
   3.845442e+06  -2.712493e+06
   2.604459e+06   5.326652e+06
  -3.624428e+06   6.504576e+06
  -7.741282e+06  -1.156686e+06
  -4.520830e+06  -9.899934e+06
   3.488273e+06  -1.158943e+07
   9.740626e+06  -5.925563e+06
   1.053036e+07   1.814361e+06
   6.548013e+06   7.130870e+06
   8.579275e+05   8.344428e+06
  -2.642882e+06   5.956125e+06
  -1.709653e+06   2.776825e+06
   1.063420e+06   2.217446e+06
   2.118151e+05   4.092547e+06
  -5.263602e+06   4.285894e+06
  -9.411592e+06   5.354673e+05
  -6.893382e+06  -3.944883e+06
  -2.785338e+05  -4.875769e+06
   3.596624e+06  -2.471219e+06
   2.345453e+06   3.167063e+03
  -6.956702e+05   8.855216e+05
  -2.276533e+06   4.024455e+05
  -2.102486e+06  -1.448299e+06
  -6.403795e+05  -3.820007e+06
   1.702957e+06  -3.743600e+06
   3.074779e+06   4.567034e+04
   1.687095e+06   3.458515e+06
  -6.634567e+05   1.836197e+06
  -2.802612e+05  -2.407323e+06
   2.413397e+06  -2.287870e+06
   2.465199e+06   3.083901e+06
  -2.224022e+06   6.064416e+06
  -6.723408e+06   1.177579e+06
  -5.121898e+06  -6.620710e+06
   1.678420e+06  -8.349107e+06
   7.190654e+06  -2.485123e+06
   6.877828e+06   4.270111e+06
   1.901900e+06   5.921518e+06
  -3.397983e+06   2.725351e+06
  -5.223561e+06  -1.442847e+06
  -2.458196e+06  -3.420217e+06
   2.326384e+06  -2.215412e+06
   4.456930e+06   8.229273e+05
   1.969042e+06   2.633827e+06
  -1.654293e+06   1.371600e+06
  -1.734809e+06  -9.978155e+05
   1.278500e+06  -9.732700e+05
   2.509392e+06   1.631645e+06
  -4.554113e+05   3.392173e+06
  -4.447846e+06   1.999335e+06
  -5.229935e+06  -1.193267e+06
  -2.359053e+06  -3.842053e+06
   1.704034e+06  -5.159787e+06
   4.868283e+06  -4.760663e+06
   6.031852e+06  -1.750248e+06
   4.483452e+06   3.033146e+06
   9.738673e+05   6.024789e+06
  -1.771728e+06   4.728308e+06
  -1.742319e+06   1.274085e+06
  -2.357442e+05  -2.297415e+05
  -3.501968e+04   9.101960e+05
  -1.581538e+06   1.692613e+06
  -2.731904e+06   1.947774e+05
  -1.951547e+06  -1.916729e+06
   1.555657e+04  -2.105146e+06
   1.556347e+06  -1.683517e+05
   1.653743e+06   2.081625e+06
  -4.096432e+03   2.898009e+06
  -2.709494e+06   1.623818e+06
  -4.375835e+06  -1.143776e+06
  -3.180567e+06  -3.638509e+06
  -2.427988e+04  -4.121301e+06
   2.171371e+06  -2.691164e+06
   2.164691e+06  -1.166277e+06
   1.809996e+06  -7.131890e+05
   2.923247e+06  -5.021694e+05
   4.321110e+06   7.303827e+05
   3.470475e+06   2.731458e+06
   1.378973e+05   4.099258e+06
  -3.181395e+06   3.871287e+06
  -4.135016e+06   2.091715e+06
  -2.614954e+06  -4.242069e+05
  -2.546130e+05  -2.202011e+06
   1.092472e+06  -1.899115e+06
   5.511367e+05   3.777254e+04
  -1.081174e+06   1.294436e+06
  -1.890044e+06   4.021076e+05
  -9.151108e+05  -1.184772e+06
   5.194000e+05  -1.102095e+06
   4.371872e+05   3.999487e+05
  -1.069642e+06   7.284808e+05
  -1.896696e+06  -1.250145e+06
  -7.023287e+05  -3.489387e+06
   1.569801e+06  -3.461839e+06
   3.165955e+06  -1.158472e+06
   3.337526e+06   1.444730e+06
   2.272752e+06   2.784115e+06
   4.381129e+05   2.616129e+06
  -1.240918e+06   1.451751e+06
  -1.568554e+06   2.199144e+05
  -4.910870e+05  -4.610073e+04
   3.575426e+05   7.508617e+05
  -4.059794e+05   1.341258e+06
  -1.899461e+06   5.867291e+05
  -2.037041e+06  -8.796137e+05
  -3.919516e+05  -1.417784e+06
   1.173465e+06  -5.723862e+05
   8.896536e+05   4.643888e+05
  -8.614919e+05   5.265784e+05
  -2.194902e+06  -3.321635e+05
  -1.741656e+06  -1.378117e+06
   2.645936e+05  -1.979098e+06
   2.317886e+06  -1.646318e+06
   2.772550e+06  -2.670230e+05
   1.218508e+06   1.263397e+06
  -9.107455e+05   1.501921e+06
  -1.555174e+06   1.974140e+05
  -2.047680e+05  -1.073952e+06
   1.513901e+06  -7.364126e+05
   1.720283e+06   7.845889e+05
   3.347374e+05   1.660554e+06
  -1.102726e+06   9.805447e+05
  -1.266650e+06  -3.183861e+05
  -2.464949e+05  -7.906132e+05
   7.991268e+05  -5.883025e+04
   7.373652e+05   1.051796e+06
  -5.747297e+05   1.421229e+06
  -2.003852e+06   5.406815e+05
  -2.032476e+06  -1.049310e+06
  -3.829306e+05  -2.074515e+06
   1.442301e+06  -1.643783e+06
   1.729926e+06  -2.078743e+05
   5.014323e+05   8.738208e+05
  -6.631479e+05   8.034635e+05
  -6.317875e+05   7.016275e+04
   1.295777e+05  -3.627229e+05
   4.996064e+05  -1.980256e+05
   1.164901e+05   8.021546e+04
  -4.625096e+05  -7.276728e+04
  -5.255847e+05  -6.795095e+05
   2.086981e+05  -1.193900e+06
   1.385884e+06  -8.948036e+05
   2.081481e+06   4.172810e+05
   1.462455e+06   1.944054e+06
  -2.218549e+05   2.418159e+06
  -1.622599e+06   1.405330e+06
  -1.691061e+06  -1.376612e+05
  -8.453990e+05  -9.057161e+05
  -2.988631e+05  -6.504832e+05
  -4.687904e+05  -2.087234e+05
  -6.324642e+05  -3.049455e+05
  -9.667077e+04  -7.640848e+05
   8.798364e+05  -9.011072e+05
   1.452107e+06  -3.179089e+05
   1.042708e+06   7.302437e+05
  -2.627541e+05   1.459581e+06
  -1.727932e+06   1.065190e+06
  -2.245468e+06  -4.910388e+05
  -1.128756e+06  -2.105903e+06
   1.015423e+06  -2.369944e+06
   2.550003e+06  -1.029632e+06
   2.354469e+06   6.703160e+05
   9.483043e+05   1.351203e+06
  -2.201378e+05   9.468658e+05
  -3.961945e+05   4.984078e+05
  -7.307604e+04   7.399552e+05
  -9.451565e+04   1.302296e+06
  -6.662976e+05   1.290983e+06
  -1.292497e+06   3.217450e+05
  -1.335261e+06  -1.078315e+06
  -5.542780e+05  -1.891931e+06
   6.221859e+05  -1.433964e+06
   1.285615e+06   5.526831e+03
   8.124376e+05   1.287394e+06
  -3.944228e+05   1.400632e+06
  -1.172877e+06   4.070629e+05
  -8.210138e+05  -7.023752e+05
   1.220474e+05  -1.085220e+06
   5.433771e+05  -7.897817e+05
   9.166792e+04  -4.173883e+05
  -4.315214e+05  -3.325710e+05
  -5.943972e+04  -3.811814e+05
   1.150959e+06  -2.113758e+05
   2.065603e+06   3.302772e+05
   1.618107e+06   1.039255e+06
  -3.833657e+04   1.442473e+06
  -1.591211e+06   1.146607e+06
  -1.836274e+06   2.752428e+05
  -8.390719e+05  -5.022145e+05
   2.595921e+05  -5.740523e+05
   5.160337e+05  -3.315148e+04
   3.728049e+04   4.217074e+05
  -4.388358e+05   2.567510e+05
  -4.818542e+05  -3.403412e+05
  -2.571580e+05  -7.145051e+05
  -1.009225e+05  -4.725882e+05
  -1.407604e+05   9.005391e+04
  -2.799032e+05   2.824886e+05
  -2.746802e+05  -2.339979e+05
   1.401221e+05  -9.804162e+05
   8.972350e+05  -1.066884e+06
   1.364175e+06  -1.873291e+05
   8.596235e+05   9.056539e+05
  -4.081526e+05   1.145145e+06
  -1.255262e+06   3.493928e+05
  -7.329097e+05  -5.684087e+05
   7.047711e+05  -6.478989e+05
   1.586825e+06   1.036280e+05
   9.952203e+05   8.734189e+05
  -4.976167e+05   9.869818e+05
  -1.504118e+06   4.634060e+05
  -1.228365e+06  -2.038165e+05
  -1.275291e+05  -5.148643e+05
   6.533991e+05  -2.648638e+05
   3.894081e+05   2.950890e+05
  -5.760942e+05   5.255358e+05
  -1.179666e+06  -6.924759e+04
  -6.826567e+05  -1.169183e+06
   5.692129e+05  -1.702650e+06
   1.470375e+06  -8.958711e+05
   1.256472e+06   7.482837e+05
   2.077318e+05   1.786748e+06
  -7.405081e+05   1.288017e+06
  -9.263974e+05  -1.850263e+05
  -4.237169e+05  -1.196104e+06
   2.338147e+05  -9.667429e+05
   5.678359e+05  -8.075820e+04
   4.559230e+05   3.780324e+05
   1.513853e+05   1.376096e+05
   5.398863e+04  -9.343480e+04
   2.992376e+05   2.966996e+05
   5.188605e+05   9.661593e+05
   1.779482e+05   1.079925e+06
  -7.307071e+05   3.990859e+05
  -1.472879e+06  -4.617534e+05
  -1.267627e+06  -8.380578e+05
  -1.858668e+05  -7.014796e+05
   8.384098e+05  -4.194666e+05
   9.799740e+05  -1.785963e+05
   3.744618e+05   5.664705e+04
  -1.389263e+05   2.261060e+05
  -5.359270e+04   2.015793e+05
   2.448613e+05   8.840983e+04
   5.818989e+04   1.299088e+05
  -6.387763e+05   2.419183e+05
  -1.048079e+06   1.731501e+03
  -4.664161e+05  -6.857274e+05
   8.123523e+05  -1.191402e+06
   1.704669e+06  -7.869437e+05
   1.437082e+06   4.034772e+05
   2.934555e+05   1.399321e+06
  -7.605166e+05   1.390486e+06
  -1.043047e+06   5.612511e+05
  -6.521533e+05  -2.160481e+05
  -1.460344e+05  -3.558421e+05
   4.894543e+04  -7.544487e+04
  -9.109416e+04   4.660018e+03
  -2.951803e+05  -3.742270e+05
  -2.454335e+05  -8.088523e+05
   1.678010e+05  -6.850984e+05
   6.753935e+05   1.002660e+05
   7.594688e+05   9.268660e+05
   1.521977e+05   1.028328e+06
  -7.326323e+05   2.754618e+05
  -1.046954e+06  -6.872671e+05
  -3.762643e+05  -1.084565e+06
   6.987839e+05  -7.023812e+05
   1.130215e+06   5.308031e+04
   5.550025e+05   6.199294e+05
  -2.770182e+05   7.031101e+05
  -3.934293e+05   3.810763e+05
   2.251172e+05   2.197837e+03
   6.433027e+05  -4.915398e+04
   1.583979e+05   3.092687e+05
  -8.191409e+05   6.855241e+05
  -1.275618e+06   5.418403e+05
  -7.894239e+05  -1.818107e+05
   8.283987e+04  -8.792963e+05
   5.599701e+05  -8.756010e+05
   4.428085e+05  -1.869402e+05
   6.960898e+04   4.675861e+05
  -2.275363e+05   4.499196e+05
  -3.492894e+05  -1.231773e+05
  -2.647019e+05  -5.731474e+05
   3.841405e+04  -4.456504e+05
   3.911187e+05   3.049481e+04
   4.892667e+05   2.875410e+05
   2.464395e+05   1.060368e+05
  -4.951205e+04  -1.638528e+05
  -8.974485e+04  -7.529005e+04
   4.277047e+04   3.351897e+05
   2.252798e+03   5.664786e+05
  -2.962560e+05   2.585331e+05
  -4.870701e+05  -3.433115e+05
  -2.026111e+05  -6.360023e+05
   3.914348e+05  -3.292310e+05
   6.806656e+05   2.533371e+05
   2.718922e+05   5.596865e+05
  -5.084508e+05   3.775299e+05
  -8.955389e+05  -5.062736e+04
  -4.913980e+05  -3.692281e+05
   2.852088e+05  -4.212346e+05
   6.385727e+05  -2.588671e+05
   2.669179e+05  -2.861016e+04
  -3.182843e+05   8.721880e+04
  -3.951576e+05  -3.451017e+04
   1.464623e+05  -2.758657e+05
   7.068652e+05  -2.784893e+05
