
 $NMID
 id='ANONYMOUS ', fmtdat='(2E16.6)'
 volume=1.0
 tramp=1.0
 $END
  -4.290496e+07   6.538263e+05
  -2.726482e+07  -2.457057e+07
   3.621487e+06  -2.888190e+07
   2.047978e+07  -1.348298e+07
   1.379957e+07   3.330769e+06
  -1.449877e+06   7.498793e+06
  -8.038703e+06   4.923124e+05
  -3.509843e+06  -7.435357e+06
   4.039320e+06  -8.624243e+06
   7.686706e+06  -2.670752e+06
   5.858798e+06   4.947191e+06
   7.202286e+05   7.271774e+06
  -3.323961e+06   2.068835e+06
  -2.331313e+06  -5.081139e+06
   2.838610e+06  -6.113559e+06
   6.437599e+06   4.652655e+05
   4.029121e+06   8.013183e+06
  -2.577970e+06   9.574243e+06
  -7.838197e+06   4.766534e+06
  -8.287053e+06  -1.718752e+06
  -4.716210e+06  -5.683827e+06
  -3.820760e+05  -6.045220e+06
   1.518469e+06  -4.179031e+06
   1.879408e+05  -2.596507e+06
  -1.521085e+06  -3.003841e+06
   2.921688e+05  -4.273028e+06
   5.367936e+06  -3.449859e+06
   8.471638e+06   2.241545e+05
   5.631128e+06   3.747874e+06
  -4.754815e+05   4.006964e+06
  -3.720458e+06   1.513322e+06
  -1.913316e+06  -8.474631e+05
   1.615196e+06  -1.323733e+06
   3.066087e+06  -3.363928e+04
   1.950196e+06   2.211447e+06
  -1.451211e+05   3.857620e+06
  -1.786713e+06   2.859183e+06
  -2.019410e+06  -5.880864e+05
  -7.147092e+05  -2.757188e+06
   5.280804e+05  -7.346318e+05
  -2.632532e+05   2.730640e+06
  -2.306043e+06   2.225388e+06
  -2.249067e+06  -2.393181e+06
   1.228418e+06  -4.930954e+06
   4.747856e+06  -1.198464e+06
   3.962512e+06   4.949122e+06
  -1.038954e+06   6.501279e+06
  -5.734402e+06   1.996313e+06
  -6.058356e+06  -3.556971e+06
  -2.029485e+06  -5.213001e+06
   2.914649e+06  -2.710033e+06
   4.923963e+06   9.517359e+05
   2.610386e+06   2.895556e+06
  -1.687687e+06   2.057887e+06
  -3.762763e+06  -4.495540e+05
  -1.842203e+06  -2.060852e+06
   1.292006e+06  -1.178401e+06
   1.698309e+06   8.181943e+05
  -7.016124e+05   1.160816e+06
  -2.201690e+06  -6.800747e+05
  -3.519942e+05  -2.369157e+06
   2.987968e+06  -1.843150e+06
   4.236991e+06   4.773596e+05
   2.146278e+06   2.932748e+06
  -1.622324e+06   4.371105e+06
  -4.651353e+06   3.979078e+06
  -5.380317e+06   1.188123e+06
  -3.585228e+06  -2.894773e+06
  -6.013924e+05  -5.330407e+06
   1.382144e+06  -4.325199e+06
   1.350363e+06  -1.621070e+06
   5.572327e+05  -3.316972e+05
   8.119918e+05  -9.333928e+05
   2.073913e+06  -1.124760e+06
   2.663273e+06   4.813836e+05
   1.562759e+06   2.348626e+06
  -4.576132e+05   2.222076e+06
  -1.869513e+06   7.384039e+03
  -1.666352e+06  -2.319254e+06
   2.003684e+05  -2.861272e+06
   2.652963e+06  -1.250953e+06
   3.794673e+06   1.381721e+06
   2.489120e+06   3.277963e+06
  -1.370605e+05   3.345374e+06
  -1.752518e+06   2.099687e+06
  -1.664984e+06   1.034889e+06
  -1.541115e+06   8.224069e+05
  -2.753826e+06   6.051978e+05
  -4.114425e+06  -6.441173e+05
  -3.319655e+06  -2.622034e+06
  -9.454326e+04  -3.979896e+06
   3.222346e+06  -3.689711e+06
   4.166672e+06  -1.793572e+06
   2.470578e+06   6.872882e+05
  -5.000679e+04   2.204992e+06
  -1.283797e+06   1.707949e+06
  -5.071594e+05  -1.230903e+05
   1.141895e+06  -1.193621e+06
   1.783968e+06  -3.365343e+05
   7.604084e+05   1.118306e+06
  -5.998167e+05   1.073157e+06
  -5.675944e+05  -3.717860e+05
   8.323316e+05  -9.367891e+05
   1.850579e+06   7.139711e+05
   1.112114e+06   3.076082e+06
  -9.746509e+05   3.623920e+06
  -2.921130e+06   1.693275e+06
  -3.548570e+06  -1.124323e+06
  -2.547338e+06  -2.863475e+06
  -4.826075e+05  -2.763721e+06
   1.319226e+06  -1.418912e+06
   1.591100e+06  -1.290063e+05
   4.836627e+05   5.555330e+04
  -3.442692e+05  -7.330093e+05
   3.536554e+05  -1.245097e+06
   1.747131e+06  -5.451721e+05
   1.931379e+06   7.766882e+05
   4.299529e+05   1.308879e+06
  -1.120375e+06   5.805870e+05
  -9.501190e+05  -4.533890e+05
   7.931863e+05  -6.471424e+05
   2.277988e+06   1.877752e+05
   1.911883e+06   1.388483e+06
  -1.841997e+05   2.096683e+06
  -2.331719e+06   1.698258e+06
  -2.754034e+06   2.544298e+05
  -1.169687e+06  -1.202506e+06
   8.669142e+05  -1.373585e+06
   1.422122e+06  -1.571733e+05
   1.350053e+05   9.924369e+05
  -1.467619e+06   6.787054e+05
  -1.685844e+06  -7.423896e+05
  -4.018594e+05  -1.625839e+06
   1.018353e+06  -1.049178e+06
   1.272845e+06   2.089827e+05
   3.250846e+05   7.394625e+05
  -7.188206e+05   6.689105e+04
  -6.738679e+05  -1.018762e+06
   6.121162e+05  -1.354523e+06
   1.974977e+06  -4.540898e+05
   1.949423e+06   1.079930e+06
   3.397151e+05   2.021300e+06
  -1.402292e+06   1.588952e+06
  -1.687933e+06   2.187778e+05
  -5.251299e+05  -8.434789e+05
   6.366846e+05  -8.067316e+05
   6.740578e+05  -5.576573e+04
  -8.930291e+04   4.492342e+05
  -5.742629e+05   2.809369e+05
  -2.682308e+05  -1.157323e+05
   3.791878e+05  -6.062265e+04
   5.574147e+05   5.686923e+05
  -1.458707e+05   1.152680e+06
  -1.347023e+06   8.764976e+05
  -2.033910e+06  -4.305933e+05
  -1.394749e+06  -1.926754e+06
   2.637750e+05  -2.395716e+06
   1.638203e+06  -1.430479e+06
   1.743151e+06   1.100697e+05
   9.300818e+05   9.850509e+05
   3.111303e+05   8.232515e+05
   3.614272e+05   3.179636e+05
   5.086134e+05   2.674856e+05
   6.591555e+04   6.831403e+05
  -8.516428e+05   8.917702e+05
  -1.461286e+06   3.402508e+05
  -1.091071e+06  -7.663678e+05
   2.402538e+05  -1.526905e+06
   1.735352e+06  -1.080907e+06
   2.239920e+06   5.080028e+05
   1.128926e+06   2.076149e+06
  -9.551624e+05   2.311416e+06
  -2.466316e+06   1.033948e+06
  -2.354592e+06  -6.094124e+05
  -1.040168e+06  -1.348296e+06
   1.686145e+05  -1.041233e+06
   4.812961e+05  -5.808220e+05
   2.255976e+05  -7.080557e+05
   1.817414e+05  -1.190999e+06
   6.521645e+05  -1.195265e+06
   1.232720e+06  -2.737423e+05
   1.273019e+06   1.094983e+06
   4.984157e+05   1.878741e+06
  -6.522084e+05   1.400302e+06
  -1.275506e+06  -1.066661e+04
  -8.031618e+05  -1.241373e+06
   3.453738e+05  -1.368191e+06
   1.086561e+06  -4.641105e+05
   7.908979e+05   5.818287e+05
  -5.115067e+04   1.000134e+06
  -4.407443e+05   7.868693e+05
  -5.456833e+04   4.560389e+05
   3.969370e+05   3.613507e+05
   3.578433e+04   3.873561e+05
  -1.101277e+06   2.007722e+05
  -1.975274e+06  -3.421168e+05
  -1.573759e+06  -1.016752e+06
  -4.325734e+03  -1.369584e+06
   1.507814e+06  -1.078349e+06
   1.786919e+06  -2.880942e+05
   8.458276e+05   4.199489e+05
  -2.295138e+05   5.194195e+05
  -4.864294e+05   6.028676e+04
  -1.273983e+03  -3.624567e+05
   4.688501e+05  -2.273463e+05
   4.578566e+05   3.482653e+05
   1.696172e+05   7.283861e+05
   2.585438e+04   4.708690e+05
   1.512119e+05  -1.318030e+05
   3.360341e+05  -3.269500e+05
   2.766854e+05   2.311654e+05
  -1.962925e+05   9.852793e+05
  -9.041809e+05   1.017324e+06
  -1.266325e+06   1.107789e+05
  -7.467261e+05  -9.117577e+05
   4.258617e+05  -1.055838e+06
   1.197660e+06  -2.520976e+05
   6.992060e+05   5.993057e+05
  -6.926524e+05   6.395654e+05
  -1.597584e+06  -9.819102e+04
  -1.057124e+06  -8.692917e+05
   4.475821e+05  -1.024985e+06
   1.518713e+06  -5.231612e+05
   1.274140e+06   1.783151e+05
   1.506625e+05   5.292856e+05
  -6.435673e+05   2.819691e+05
  -3.565202e+05  -2.764419e+05
   6.117172e+05  -4.706095e+05
   1.154669e+06   1.473345e+05
   5.827087e+05   1.196038e+06
  -6.776968e+05   1.640491e+06
  -1.511465e+06   8.014691e+05
  -1.221566e+06  -7.995146e+05
  -1.506284e+05  -1.793284e+06
   7.697039e+05  -1.296880e+06
   9.296996e+05   1.633764e+05
   4.375300e+05   1.193317e+06
  -1.982931e+05   9.890812e+05
  -5.485394e+05   9.161546e+04
  -4.854470e+05  -3.979538e+05
  -1.936032e+05  -1.569207e+05
  -3.799902e+04   1.074239e+05
  -2.227790e+05  -2.662242e+05
  -4.667332e+05  -9.568100e+05
  -2.081926e+05  -1.090096e+06
   6.698104e+05  -3.920659e+05
   1.461864e+06   4.974027e+05
   1.293448e+06   8.665422e+05
   1.738938e+05   6.904732e+05
  -8.915254e+05   3.876970e+05
  -9.968646e+05   1.698006e+05
  -3.313908e+05  -3.587499e+04
   1.622077e+05  -2.154742e+05
   3.438664e+03  -2.299635e+05
  -2.985929e+05  -1.297085e+05
  -2.962576e+04  -1.327186e+05
   7.041177e+05  -1.948075e+05
   1.030077e+06   4.804840e+04
   3.532101e+05   6.799186e+05
  -8.974334e+05   1.116826e+06
  -1.671136e+06   6.838981e+05
  -1.335292e+06  -4.764977e+05
  -2.216849e+05  -1.405403e+06
   7.812878e+05  -1.333419e+06
   1.048056e+06  -4.808728e+05
   6.454602e+05   2.690460e+05
   1.068305e+05   3.545044e+05
  -1.009340e+05   3.530683e+04
   7.288456e+04  -4.279635e+04
   3.085694e+05   3.631622e+05
   2.408825e+05   8.089991e+05
  -1.996389e+05   6.591492e+05
  -6.746864e+05  -1.619336e+05
  -6.840193e+05  -9.803682e+05
  -5.183599e+04  -1.014054e+06
   7.673771e+05  -1.906150e+05
   9.920364e+05   7.677325e+05
   2.973045e+05   1.082216e+06
  -7.239121e+05   6.281515e+05
  -1.087803e+06  -1.075399e+05
  -4.963821e+05  -5.925410e+05
   2.927017e+05  -6.340455e+05
   3.549166e+05  -3.527591e+05
  -2.738264e+05  -3.221518e+04
  -6.518421e+05   1.687868e+04
  -1.284305e+05  -3.011280e+05
   8.348957e+05  -6.575021e+05
   1.238932e+06  -5.330603e+05
   7.255063e+05   1.646240e+05
  -1.163414e+05   8.468324e+05
  -5.389631e+05   8.278855e+05
  -3.920265e+05   1.340367e+05
  -2.395732e+04  -4.856444e+05
   2.501223e+05  -4.086952e+05
   3.424264e+05   1.807492e+05
   2.338693e+05   5.783364e+05
  -6.493519e+04   3.968276e+05
  -3.831204e+05  -6.454182e+04
  -4.589633e+05  -2.690847e+05
  -2.408842e+05  -8.484605e+04
   2.105838e+04   1.264340e+05
   8.840744e+04   2.289096e+03
   3.567070e+04  -3.605558e+05
   1.081406e+05  -5.058591e+05
   3.287311e+05  -1.587962e+05
   4.051581e+05   4.108059e+05
   9.366780e+04   6.409794e+05
  -4.225840e+05   2.869241e+05
  -6.313632e+05  -3.062627e+05
  -2.229314e+05  -5.819423e+05
   5.029644e+05  -3.479058e+05
   8.553084e+05   1.039106e+05
   4.581936e+05   3.843932e+05
  -2.965351e+05   3.707941e+05
  -6.271419e+05   1.894411e+05
  -2.282780e+05   1.224338e+04
   3.680507e+05  -3.440711e+04
   4.078842e+05   1.023641e+05
  -1.987475e+05   2.970693e+05
  -7.792978e+05   2.439267e+05
