
 $NMID
 id='ANONYMOUS ', fmtdat='(2E16.6)'
 volume=1.0
 tramp=1.0
 $END
   5.930795e+07   4.974152e+05
   3.524604e+07   3.705616e+07
  -8.258378e+06   4.001499e+07
  -2.911138e+07   1.507671e+07
  -1.716292e+07  -7.557509e+06
   3.592303e+06  -9.741964e+06
   1.026129e+07   1.403394e+06
   2.788744e+06   1.025529e+07
  -6.571041e+06   9.694858e+06
  -1.011882e+07   1.990886e+06
  -7.305201e+06  -6.557689e+06
  -8.177631e+05  -9.034659e+06
   4.217267e+06  -2.874081e+06
   2.757331e+06   5.697301e+06
  -3.972079e+06   6.816970e+06
  -8.239460e+06  -1.478090e+06
  -4.578633e+06  -1.074858e+07
   4.068285e+06  -1.235708e+07
   1.067450e+07  -6.134597e+06
   1.137538e+07   2.237129e+06
   6.933920e+06   7.954286e+06
   6.482841e+05   9.149901e+06
  -3.165741e+06   6.348333e+06
  -2.009541e+06   2.749421e+06
   1.176180e+06   2.189745e+06
   3.074251e+05   4.372369e+06
  -5.663470e+06   4.642350e+06
  -1.016125e+07   5.288889e+05
  -7.409810e+06  -4.364063e+06
  -2.663516e+05  -5.361124e+06
   3.918713e+06  -2.744756e+06
   2.646195e+06  -3.689512e+04
  -5.693480e+05   1.011491e+06
  -2.365907e+06   5.746071e+05
  -2.341951e+06  -1.466877e+06
  -7.687599e+05  -4.142839e+06
   1.913872e+06  -4.069729e+06
   3.447086e+06   1.316458e+05
   1.800993e+06   3.870183e+06
  -8.659235e+05   2.049516e+06
  -4.028687e+05  -2.581123e+06
   2.571887e+06  -2.410202e+06
   2.538544e+06   3.369684e+06
  -2.616613e+06   6.406890e+06
  -7.330342e+06   9.764106e+05
  -5.322686e+06  -7.345171e+06
   2.094937e+06  -8.949651e+06
   7.832491e+06  -2.486828e+06
   7.267686e+06   4.704332e+06
   1.900362e+06   6.322870e+06
  -3.649743e+06   2.818916e+06
  -5.490960e+06  -1.621241e+06
  -2.511188e+06  -3.657870e+06
   2.554583e+06  -2.278093e+06
   4.743330e+06   1.005096e+06
   2.021088e+06   2.869783e+06
  -1.816385e+06   1.426087e+06
  -1.815584e+06  -1.080723e+06
   1.391559e+06  -9.319276e+05
   2.561105e+06   1.874410e+06
  -7.097180e+05   3.595121e+06
  -4.889174e+06   1.934948e+06
  -5.545638e+06  -1.478251e+06
  -2.394649e+06  -4.194636e+06
   1.918722e+06  -5.531974e+06
   5.277597e+06  -5.090059e+06
   6.526490e+06  -1.824870e+06
   4.822779e+06   3.344327e+06
   9.772864e+05   6.499684e+06
  -1.973853e+06   4.992673e+06
  -1.842358e+06   1.253207e+06
  -1.378336e+05  -2.663712e+05
   5.636132e+04   1.062469e+06
  -1.689853e+06   1.921208e+06
  -2.986461e+06   2.757842e+05
  -2.167324e+06  -2.028694e+06
  -5.126647e+04  -2.273149e+06
   1.631809e+06  -2.405816e+05
   1.780643e+06   2.171179e+06
   1.405927e+04   3.095308e+06
  -2.921519e+06   1.752580e+06
  -4.724835e+06  -1.260656e+06
  -3.392028e+06  -3.981955e+06
   6.195981e+04  -4.467446e+06
   2.424220e+06  -2.854774e+06
   2.363566e+06  -1.178763e+06
   1.928945e+06  -7.040901e+05
   3.094433e+06  -4.959012e+05
   4.578225e+06   8.098759e+05
   3.670097e+06   2.920042e+06
   1.349367e+05   4.352062e+06
  -3.381851e+06   4.117847e+06
  -4.407496e+06   2.249507e+06
  -2.817254e+06  -4.374046e+05
  -3.052714e+05  -2.368889e+06
   1.159351e+06  -2.056531e+06
   6.007311e+05   3.549360e+04
  -1.148776e+06   1.389210e+06
  -2.019783e+06   4.197607e+05
  -9.774394e+05  -1.281237e+06
   5.435532e+05  -1.181327e+06
   4.447148e+05   4.068277e+05
  -1.128002e+06   7.148204e+05
  -1.936806e+06  -1.387263e+06
  -6.396528e+05  -3.679386e+06
   1.705050e+06  -3.560384e+06
   3.301693e+06  -1.130215e+06
   3.460033e+06   1.535845e+06
   2.381598e+06   2.897130e+06
   4.779838e+05   2.742280e+06
  -1.307451e+06   1.548548e+06
  -1.668319e+06   2.456758e+05
  -5.214924e+05  -4.897938e+04
   3.776431e+05   7.971516e+05
  -4.471031e+05   1.421934e+06
  -2.030612e+06   6.054892e+05
  -2.152593e+06  -9.547924e+05
  -3.970984e+05  -1.506321e+06
   1.244355e+06  -5.987342e+05
   9.327112e+05   4.820634e+05
  -9.002787e+05   5.330078e+05
  -2.289511e+06  -3.555586e+05
  -1.822670e+06  -1.431330e+06
   2.722405e+05  -2.067145e+06
   2.440889e+06  -1.736410e+06
   2.934780e+06  -2.815058e+05
   1.286087e+06   1.349340e+06
  -9.848511e+05   1.597193e+06
  -1.665238e+06   1.958970e+05
  -2.144031e+05  -1.154224e+06
   1.612981e+06  -7.796705e+05
   1.817221e+06   8.381518e+05
   3.424287e+05   1.750468e+06
  -1.165596e+06   1.018399e+06
  -1.324159e+06  -3.470517e+05
  -2.462552e+05  -8.307869e+05
   8.514436e+05  -5.157178e+04
   7.820979e+05   1.122428e+06
  -6.111720e+05   1.513874e+06
  -2.131913e+06   5.775498e+05
  -2.161610e+06  -1.116304e+06
  -4.028173e+05  -2.204553e+06
   1.536453e+06  -1.738762e+06
   1.832665e+06  -2.131113e+05
   5.244223e+05   9.243373e+05
  -7.029269e+05   8.464401e+05
  -6.655467e+05   8.267248e+04
   1.283781e+05  -3.676114e+05
   5.070795e+05  -2.104633e+05
   1.104690e+05   5.908487e+04
  -4.793800e+05  -1.042327e+05
  -5.357726e+05  -7.263854e+05
   2.337273e+05  -1.257180e+06
   1.471286e+06  -9.418708e+05
   2.206581e+06   4.459495e+05
   1.550742e+06   2.065602e+06
  -2.328839e+05   2.564200e+06
  -1.710040e+06   1.484994e+06
  -1.778095e+06  -1.416353e+05
  -8.950094e+05  -9.375673e+05
  -3.379179e+05  -6.672300e+05
  -5.219936e+05  -2.233960e+05
  -6.764927e+05  -3.434224e+05
  -9.369219e+04  -8.204257e+05
   9.346975e+05  -9.486322e+05
   1.530011e+06  -3.337127e+05
   1.100424e+06   7.614060e+05
  -2.715482e+05   1.531317e+06
  -1.822847e+06   1.124259e+06
  -2.375615e+06  -5.178770e+05
  -1.189022e+06  -2.228550e+06
   1.087334e+06  -2.502921e+06
   2.703566e+06  -1.076644e+06
   2.480414e+06   7.148791e+05
   9.921306e+05   1.415856e+06
  -2.252465e+05   9.833743e+05
  -3.980460e+05   5.293523e+05
  -6.480722e+04   8.065468e+05
  -1.055615e+05   1.400827e+06
  -7.189169e+05   1.373269e+06
  -1.379260e+06   3.372924e+05
  -1.420558e+06  -1.146267e+06
  -5.904696e+05  -2.008703e+06
   6.586695e+05  -1.523635e+06
   1.360617e+06   6.249657e+03
   8.535947e+05   1.366718e+06
  -4.264678e+05   1.477211e+06
  -1.241061e+06   4.123466e+05
  -8.543773e+05  -7.594595e+05
   1.483069e+05  -1.146386e+06
   5.855875e+05  -8.209254e+05
   9.547385e+04  -4.320214e+05
  -4.635298e+05  -3.533481e+05
  -6.590845e+04  -4.054066e+05
   1.223212e+06  -2.174249e+05
   2.194187e+06   3.603393e+05
   1.711832e+06   1.106690e+06
  -5.477680e+04   1.526321e+06
  -1.699869e+06   1.207877e+06
  -1.944441e+06   2.830851e+05
  -8.749526e+05  -5.385016e+05
   2.851579e+05  -6.083951e+05
   5.447997e+05  -2.795237e+04
   3.468997e+04   4.571028e+05
  -4.650921e+05   2.785031e+05
  -5.129657e+05  -3.624891e+05
  -2.828480e+05  -7.659987e+05
  -1.144177e+05  -5.101746e+05
  -1.419390e+05   9.194036e+04
  -2.833684e+05   3.013771e+05
  -2.890772e+05  -2.471837e+05
   1.417062e+05  -1.042954e+06
   9.540440e+05  -1.133423e+06
   1.462306e+06  -1.925679e+05
   9.212413e+05   9.719910e+05
  -4.417815e+05   1.222131e+06
  -1.346279e+06   3.715481e+05
  -7.824739e+05  -6.022600e+05
   7.474774e+05  -6.840000e+05
   1.675389e+06   1.087571e+05
   1.044635e+06   9.151213e+05
  -5.261810e+05   1.032157e+06
  -1.579955e+06   4.853954e+05
  -1.289843e+06  -2.117400e+05
  -1.343761e+05  -5.394284e+05
   6.891905e+05  -2.769560e+05
   4.125846e+05   3.182012e+05
  -6.125034e+05   5.662453e+05
  -1.260233e+06  -6.816197e+04
  -7.359515e+05  -1.246676e+06
   5.987105e+05  -1.821338e+06
   1.562974e+06  -9.626487e+05
   1.338937e+06   7.904199e+05
   2.264952e+05   1.895859e+06
  -7.783785e+05   1.364516e+06
  -9.757583e+05  -1.973540e+05
  -4.460581e+05  -1.262467e+06
   2.475449e+05  -1.014408e+06
   6.004898e+05  -8.160080e+04
   4.815299e+05   3.931894e+05
   1.583224e+05   1.374127e+05
   5.681782e+04  -9.515249e+04
   3.201154e+05   3.273318e+05
   5.527649e+05   1.029361e+06
   1.865286e+05   1.136223e+06
  -7.796588e+05   4.142181e+05
  -1.562993e+06  -4.857489e+05
  -1.341140e+06  -8.791633e+05
  -1.961341e+05  -7.442128e+05
   8.850441e+05  -4.540693e+05
   1.035214e+06  -1.920770e+05
   3.973897e+05   6.805384e+04
  -1.459035e+05   2.434488e+05
  -5.804940e+04   2.031787e+05
   2.588016e+05   8.152449e+04
   6.489019e+04   1.408002e+05
  -6.747370e+05   2.697139e+05
  -1.116506e+06   4.706326e+03
  -5.041039e+05  -7.410548e+05
   8.599660e+05  -1.279021e+06
   1.819565e+06  -8.380502e+05
   1.539769e+06   4.329078e+05
   3.185805e+05   1.488335e+06
  -8.094691e+05   1.478484e+06
  -1.112920e+06   6.023402e+05
  -6.972605e+05  -2.235809e+05
  -1.583191e+05  -3.815436e+05
   5.179486e+04  -9.115426e+04
  -9.287092e+04  -1.621556e+03
  -3.090505e+05  -3.947437e+05
  -2.600688e+05  -8.554084e+05
   1.774187e+05  -7.313071e+05
   7.224885e+05   9.940927e+04
   8.182549e+05   9.844065e+05
   1.695504e+05   1.102399e+06
  -7.825444e+05   3.049844e+05
  -1.123631e+06  -7.255704e+05
  -4.056949e+05  -1.157561e+06
   7.462387e+05  -7.536651e+05
   1.206539e+06   5.622405e+04
   5.889346e+05   6.661170e+05
  -3.006301e+05   7.524822e+05
  -4.236332e+05   4.004343e+05
   2.370797e+05  -7.511068e+03
   6.834927e+05  -5.650748e+04
   1.693973e+05   3.318987e+05
  -8.680009e+05   7.297767e+05
  -1.353296e+06   5.686485e+05
  -8.387173e+05  -2.028088e+05
   8.849879e+04  -9.374873e+05
   6.006491e+05  -9.275848e+05
   4.806809e+05  -1.960408e+05
   8.085933e+04   4.986954e+05
  -2.438606e+05   4.829757e+05
  -3.779130e+05  -1.251429e+05
  -2.837515e+05  -6.095207e+05
   4.459927e+04  -4.798238e+05
   4.189924e+05   2.974320e+04
   5.177836e+05   3.100225e+05
   2.581229e+05   1.150685e+05
  -5.012569e+04  -1.810278e+05
  -8.484548e+04  -8.737937e+04
   5.697128e+04   3.625563e+05
   5.513196e+03   6.204660e+05
  -3.236333e+05   2.882249e+05
  -5.328057e+05  -3.672043e+05
  -2.262549e+05  -6.868678e+05
   4.163458e+05  -3.567458e+05
   7.319391e+05   2.690611e+05
   2.956078e+05   5.960054e+05
  -5.420620e+05   4.013738e+05
  -9.581478e+05  -5.346595e+04
  -5.250070e+05  -3.932467e+05
   3.072492e+05  -4.521280e+05
   6.858232e+05  -2.793587e+05
   2.884861e+05  -2.655987e+04
  -3.385700e+05   1.047319e+05
  -4.258476e+05  -2.755848e+04
   1.463344e+05  -2.966997e+05
   7.443705e+05  -3.081486e+05
