
 $NMID
 id='ANONYMOUS ', fmtdat='(2E16.6)'
 volume=1.0
 tramp=1.0
 $END
   5.800021e+07   1.334442e+05
   3.449097e+07   3.643395e+07
  -8.203623e+06   3.928765e+07
  -2.852485e+07   1.446574e+07
  -1.661755e+07  -7.745131e+06
   3.682011e+06  -9.499321e+06
   9.954351e+06   1.624711e+06
   2.494321e+06   1.004046e+07
  -6.538114e+06   9.204178e+06
  -9.829825e+06   1.759524e+06
  -7.072693e+06  -6.310505e+06
  -8.381008e+05  -8.664379e+06
   4.031727e+06  -2.848763e+06
   2.645095e+06   5.333479e+06
  -3.861892e+06   6.436424e+06
  -7.981222e+06  -1.516244e+06
  -4.410266e+06  -1.043364e+07
   3.963142e+06  -1.198923e+07
   1.036337e+07  -6.021902e+06
   1.112647e+07   2.057470e+06
   6.925283e+06   7.714573e+06
   7.624816e+05   9.064273e+06
  -3.191597e+06   6.357728e+06
  -2.244992e+06   2.617219e+06
   9.677912e+05   1.833856e+06
   4.191952e+05   4.001256e+06
  -5.205383e+06   4.526585e+06
  -9.651307e+06   7.156988e+05
  -7.205643e+06  -4.066159e+06
  -4.638419e+05  -5.184769e+06
   3.583599e+06  -2.799536e+06
   2.555255e+06  -2.615580e+05
  -2.955650e+05   8.183721e+05
  -1.989011e+06   6.228692e+05
  -2.206853e+06  -1.163800e+06
  -9.196198e+05  -3.827473e+06
   1.739450e+06  -4.003849e+06
   3.462747e+06  -3.293704e+04
   1.933783e+06   3.754051e+06
  -8.216758e+05   2.183232e+06
  -5.132920e+05  -2.304808e+06
   2.407706e+06  -2.256337e+06
   2.424430e+06   3.292658e+06
  -2.652761e+06   6.243108e+06
  -7.295380e+06   9.349759e+05
  -5.260574e+06  -7.210355e+06
   2.068021e+06  -8.775250e+06
   7.620883e+06  -2.459172e+06
   6.961797e+06   4.519639e+06
   1.749122e+06   6.039994e+06
  -3.500373e+06   2.631348e+06
  -5.176364e+06  -1.612657e+06
  -2.305715e+06  -3.522868e+06
   2.521669e+06  -2.167808e+06
   4.581139e+06   1.007008e+06
   1.921872e+06   2.801027e+06
  -1.768975e+06   1.380725e+06
  -1.698471e+06  -1.042611e+06
   1.434132e+06  -8.265269e+05
   2.466796e+06   1.968961e+06
  -8.425110e+05   3.601501e+06
  -4.897003e+06   1.858185e+06
  -5.405081e+06  -1.531605e+06
  -2.291886e+06  -4.114082e+06
   1.783658e+06  -5.334431e+06
   4.934085e+06  -4.929600e+06
   6.209221e+06  -1.852542e+06
   4.707846e+06   3.119115e+06
   1.020471e+06   6.199210e+06
  -1.915890e+06   4.742043e+06
  -1.811424e+06   1.083395e+06
  -5.579728e+04  -3.929364e+05
   2.499906e+05   9.688991e+05
  -1.430983e+06   1.921976e+06
  -2.777555e+06   4.340628e+05
  -2.108360e+06  -1.762210e+06
  -1.647508e+05  -2.073717e+06
   1.430805e+06  -2.656626e+05
   1.650779e+06   1.948228e+06
   7.060272e+04   2.877753e+06
  -2.715902e+06   1.726963e+06
  -4.529317e+06  -1.093571e+06
  -3.332500e+06  -3.771514e+06
   7.237897e+02  -4.339019e+06
   2.344241e+06  -2.806156e+06
   2.316328e+06  -1.135240e+06
   1.857188e+06  -6.307557e+05
   2.912040e+06  -4.403449e+05
   4.299333e+06   7.632532e+05
   3.447530e+06   2.727650e+06
   1.453260e+05   4.064646e+06
  -3.115970e+06   3.869411e+06
  -4.071779e+06   2.169513e+06
  -2.647598e+06  -3.310645e+05
  -3.656126e+05  -2.191878e+06
   1.020130e+06  -1.957151e+06
   5.679830e+05   7.992865e+03
  -1.044768e+06   1.315521e+06
  -1.897740e+06   4.125751e+05
  -9.499340e+05  -1.200615e+06
   4.792288e+05  -1.104349e+06
   3.800641e+05   3.827409e+05
  -1.105168e+06   6.137805e+05
  -1.813718e+06  -1.417586e+06
  -4.997967e+05  -3.518926e+06
   1.726348e+06  -3.269509e+06
   3.126675e+06  -9.208866e+05
   3.161491e+06   1.501687e+06
   2.143926e+06   2.665142e+06
   4.355310e+05   2.505032e+06
  -1.189827e+06   1.445978e+06
  -1.540571e+06   2.540854e+05
  -4.859216e+05  -4.196900e+04
   3.553418e+05   7.421363e+05
  -4.233031e+05   1.343635e+06
  -1.918938e+06   5.779550e+05
  -2.025683e+06  -9.046275e+05
  -3.641180e+05  -1.422750e+06
   1.164124e+06  -5.564315e+05
   8.495535e+05   4.467784e+05
  -8.515660e+05   4.641944e+05
  -2.102458e+06  -3.635189e+05
  -1.648538e+06  -1.322365e+06
   2.700208e+05  -1.887499e+06
   2.256617e+06  -1.601206e+06
   2.725442e+06  -2.703947e+05
   1.208895e+06   1.263385e+06
  -9.192170e+05   1.516316e+06
  -1.577097e+06   1.973285e+05
  -2.203787e+05  -1.089218e+06
   1.504414e+06  -7.414438e+05
   1.695717e+06   7.832064e+05
   3.051125e+05   1.631474e+06
  -1.099765e+06   9.305359e+05
  -1.227664e+06  -3.456632e+05
  -2.115177e+05  -7.822569e+05
   8.079864e+05  -4.786750e+04
   7.422721e+05   1.046026e+06
  -5.539379e+05   1.419864e+06
  -1.981447e+06   5.607982e+05
  -2.026555e+06  -1.022470e+06
  -3.892000e+05  -2.056216e+06
   1.430716e+06  -1.629737e+06
   1.710064e+06  -1.995629e+05
   4.835174e+05   8.633741e+05
  -6.556351e+05   7.859164e+05
  -6.056409e+05   8.242545e+04
   1.287835e+05  -3.180837e+05
   4.504558e+05  -1.736853e+05
   6.276548e+04   4.644642e+04
  -4.671500e+05  -1.300570e+05
  -4.902591e+05  -7.017557e+05
   2.309697e+05  -1.176920e+06
   1.372521e+06  -8.801989e+05
   2.058341e+06   4.062155e+05
   1.458498e+06   1.916375e+06
  -2.004754e+05   2.383570e+06
  -1.579088e+06   1.374019e+06
  -1.636416e+06  -1.352842e+05
  -8.103213e+05  -8.487066e+05
  -3.106848e+05  -5.751658e+05
  -5.107763e+05  -1.784289e+05
  -6.589718e+05  -3.264087e+05
  -9.576205e+04  -7.812413e+05
   8.730863e+05  -8.834881e+05
   1.416349e+06  -3.051990e+05
   1.008668e+06   6.963814e+05
  -2.561716e+05   1.403472e+06
  -1.686812e+06   1.040772e+06
  -2.204605e+06  -4.721341e+05
  -1.106314e+06  -2.071361e+06
   1.018321e+06  -2.337311e+06
   2.525610e+06  -1.002588e+06
   2.301495e+06   6.733281e+05
   8.996286e+05   1.311996e+06
  -2.204062e+05   8.886550e+05
  -3.471322e+05   4.703121e+05
  -2.001736e+04   7.552433e+05
  -7.266462e+04   1.326813e+06
  -6.670490e+05   1.298980e+06
  -1.293014e+06   3.277546e+05
  -1.334855e+06  -1.055586e+06
  -5.654335e+05  -1.864266e+06
   5.999264e+05  -1.422242e+06
   1.263822e+06   1.720387e+03
   7.964160e+05   1.276929e+06
  -4.047944e+05   1.378729e+06
  -1.171704e+06   3.706009e+05
  -8.014468e+05  -7.328046e+05
   1.529711e+05  -1.084747e+06
   5.671102e+05  -7.631366e+05
   9.698524e+04  -3.912071e+05
  -4.390170e+05  -3.198215e+05
  -6.748736e+04  -3.743936e+05
   1.146441e+06  -2.063486e+05
   2.057658e+06   3.273190e+05
   1.600215e+06   1.028497e+06
  -5.848059e+04   1.433303e+06
  -1.594432e+06   1.140250e+06
  -1.814653e+06   2.632209e+05
  -8.107352e+05  -5.180974e+05
   2.707860e+05  -5.783991e+05
   5.126459e+05  -2.006933e+04
   4.193179e+04   4.389305e+05
  -4.235956e+05   2.666335e+05
  -4.825650e+05  -3.333561e+05
  -2.855753e+05  -7.064507e+05
  -1.259039e+05  -4.732623e+05
  -1.291257e+05   7.491881e+04
  -2.481715e+05   2.683140e+05
  -2.674294e+05  -2.298110e+05
   1.160776e+05  -9.658958e+05
   8.808882e+05  -1.064471e+06
   1.379641e+06  -2.000249e+05
   8.839525e+05   8.979598e+05
  -4.029673e+05   1.156183e+06
  -1.262038e+06   3.712700e+05
  -7.351154e+05  -5.493545e+05
   6.949833e+05  -6.378118e+05
   1.551219e+06   9.919695e+04
   9.548252e+05   8.479258e+05
  -4.987768e+05   9.486789e+05
  -1.460633e+06   4.379361e+05
  -1.184881e+06  -2.004633e+05
  -1.197873e+05  -4.963131e+05
   6.408206e+05  -2.538410e+05
   3.912791e+05   2.987107e+05
  -5.577849e+05   5.397095e+05
  -1.174647e+06  -4.127409e+04
  -7.096694e+05  -1.147708e+06
   5.245458e+05  -1.705458e+06
   1.437224e+06  -9.192131e+05
   1.251850e+06   7.176335e+05
   2.278471e+05   1.755985e+06
  -7.119676e+05   1.264486e+06
  -9.042676e+05  -1.866555e+05
  -4.123820e+05  -1.170399e+06
   2.365155e+05  -9.352363e+05
   5.612944e+05  -7.391577e+04
   4.396823e+05   3.586315e+05
   1.364393e+05   1.221454e+05
   5.644596e+04  -8.491088e+04
   3.164827e+05   3.104800e+05
   5.275403e+05   9.556543e+05
   1.676681e+05   1.050567e+06
  -7.372906e+05   3.873089e+05
  -1.452965e+06  -4.385098e+05
  -1.238761e+06  -8.055664e+05
  -1.861499e+05  -6.924941e+05
   8.066160e+05  -4.306425e+05
   9.553072e+05  -1.822013e+05
   3.793578e+05   6.762130e+04
  -1.289606e+05   2.287745e+05
  -6.598441e+04   1.815166e+05
   2.265413e+05   6.479521e+04
   6.741309e+04   1.296253e+05
  -6.087890e+05   2.630205e+05
  -1.039629e+06   1.887438e+04
  -4.970518e+05  -6.876350e+05
   7.736997e+05  -1.206226e+06
   1.693979e+06  -8.062137e+05
   1.454005e+06   3.803734e+05
   3.160627e+05   1.377968e+06
  -7.427137e+05   1.386549e+06
  -1.029537e+06   5.804912e+05
  -6.484563e+05  -1.927993e+05
  -1.571940e+05  -3.537138e+05
   3.486190e+04  -9.459686e+04
  -9.065479e+04  -1.089784e+04
  -2.838625e+05  -3.681645e+05
  -2.438498e+05  -7.924660e+05
   1.550620e+05  -6.847941e+05
   6.701455e+05   7.533560e+04
   7.794260e+05   8.977448e+05
   1.844399e+05   1.025434e+06
  -7.163607e+05   3.055414e+05
  -1.057024e+06  -6.505590e+05
  -3.980580e+05  -1.073213e+06
   6.843210e+05  -7.187448e+05
   1.129410e+06   3.635732e+04
   5.618209e+05   6.233820e+05
  -2.734997e+05   7.153973e+05
  -4.015734e+05   3.790201e+05
   2.077865e+05  -1.492064e+04
   6.315451e+05  -6.166415e+04
   1.651400e+05   3.095216e+05
  -7.995248e+05   6.853115e+05
  -1.262870e+06   5.319853e+05
  -7.940259e+05  -1.908047e+05
   7.191606e+04  -8.775738e+05
   5.604827e+05  -8.731084e+05
   4.580832e+05  -1.958105e+05
   8.731300e+04   4.578106e+05
  -2.196460e+05   4.585825e+05
  -3.524245e+05  -1.009878e+05
  -2.719325e+05  -5.633649e+05
   3.388089e+04  -4.571991e+05
   3.905775e+05   1.827126e+04
   4.882444e+05   2.910934e+05
   2.409446e+05   1.115163e+05
  -5.388230e+04  -1.770964e+05
  -7.910462e+04  -9.908563e+04
   7.313202e+04   3.297868e+05
   3.380692e+04   5.905469e+05
  -2.915306e+05   2.928172e+05
  -5.152563e+05  -3.226969e+05
  -2.382806e+05  -6.353215e+05
   3.776528e+05  -3.421401e+05
   6.915125e+05   2.349663e+05
   2.874115e+05   5.465553e+05
  -5.032631e+05   3.805329e+05
  -8.985748e+05  -3.451937e+04
  -4.958328e+05  -3.598627e+05
   2.812187e+05  -4.324145e+05
   6.382915e+05  -2.776962e+05
   2.771638e+05  -2.924324e+04
  -3.012906e+05   1.110359e+05
  -3.918035e+05  -7.726445e+03
   1.219882e+05  -2.701294e+05
   6.715249e+05  -2.958578e+05
