
 $NMID
 id='ANONYMOUS ', fmtdat='(2E16.6)'
 volume=1.0
 tramp=1.0
 $END
   4.796722e+07  -9.350023e+05
   2.967543e+07   2.861099e+07
  -5.233619e+06   3.243804e+07
  -2.305174e+07   1.351706e+07
  -1.441605e+07  -5.096149e+06
   2.365429e+06  -8.060380e+06
   8.500683e+06   4.648000e+05
   2.913181e+06   8.230152e+06
  -4.894610e+06   8.465700e+06
  -8.249148e+06   2.186779e+06
  -6.204839e+06  -5.238156e+06
  -8.633806e+05  -7.527754e+06
   3.451948e+06  -2.389318e+06
   2.449523e+06   4.875876e+06
  -3.067674e+06   5.969446e+06
  -6.834832e+06  -8.487624e+05
  -4.126332e+06  -8.678523e+06
   2.943640e+06  -1.026282e+07
   8.554182e+06  -5.253945e+06
   9.254995e+06   1.643997e+06
   5.642635e+06   6.294269e+06
   6.406815e+05   7.199941e+06
  -2.205932e+06   5.034771e+06
  -1.148045e+06   2.429981e+06
   1.239716e+06   2.204135e+06
   1.756712e+05   3.908195e+06
  -4.921044e+06   3.906150e+06
  -8.591533e+06   4.182583e+05
  -6.163354e+06  -3.597859e+06
  -8.114043e+04  -4.386094e+06
   3.428457e+06  -2.142419e+06
   2.155928e+06   2.171985e+05
  -8.295466e+05   1.045716e+06
  -2.356013e+06   4.053261e+05
  -2.023095e+06  -1.515851e+06
  -4.778468e+05  -3.627924e+06
   1.609380e+06  -3.300279e+06
   2.639150e+06   2.193444e+05
   1.325247e+06   3.096464e+06
  -6.481632e+05   1.424577e+06
  -2.037787e+05  -2.375699e+06
   2.175407e+06  -2.160682e+06
   2.242725e+06   2.660426e+06
  -1.786437e+06   5.312579e+06
  -5.722907e+06   1.064901e+06
  -4.460905e+06  -5.732407e+06
   1.385931e+06  -7.278441e+06
   6.314089e+06  -2.211991e+06
   6.226991e+06   3.718294e+06
   1.872175e+06   5.280242e+06
  -2.983114e+06   2.565991e+06
  -4.777115e+06  -1.129403e+06
  -2.354635e+06  -2.981774e+06
   1.971634e+06  -2.013029e+06
   3.956735e+06   6.394297e+05
   1.802879e+06   2.275489e+06
  -1.438430e+06   1.229763e+06
  -1.612054e+06  -8.496815e+05
   1.003835e+06  -9.300963e+05
   2.204823e+06   1.247100e+06
  -2.367894e+05   2.829483e+06
  -3.735180e+06   1.783633e+06
  -4.572757e+06  -9.026443e+05
  -2.142272e+06  -3.310220e+06
   1.524846e+06  -4.632729e+06
   4.446733e+06  -4.321378e+06
   5.465440e+06  -1.557958e+06
   3.998464e+06   2.775916e+06
   8.779066e+05   5.447280e+06
  -1.482757e+06   4.302521e+06
  -1.458107e+06   1.277576e+06
  -2.520705e+05  -3.178357e+04
  -2.116577e+05   9.318332e+05
  -1.620946e+06   1.514416e+06
  -2.591506e+06   5.943128e+04
  -1.802239e+06  -1.895432e+06
   7.385242e+04  -2.037155e+06
   1.546683e+06  -1.785296e+05
   1.614634e+06   1.966762e+06
   4.813499e+03   2.711815e+06
  -2.511539e+06   1.470766e+06
  -3.975234e+06  -1.086689e+06
  -2.830014e+06  -3.291660e+06
   1.532285e+03  -3.652280e+06
   1.909322e+06  -2.361556e+06
   1.871626e+06  -1.053506e+06
   1.589435e+06  -7.090482e+05
   2.659695e+06  -5.459444e+05
   3.982791e+06   5.793224e+05
   3.247271e+06   2.453290e+06
   1.985594e+05   3.791979e+06
  -2.906534e+06   3.638211e+06
  -3.844952e+06   1.968083e+06
  -2.435054e+06  -4.207269e+05
  -2.066728e+05  -2.078063e+06
   1.045644e+06  -1.762353e+06
   5.116775e+05   5.132543e+04
  -1.005928e+06   1.211112e+06
  -1.733058e+06   3.886887e+05
  -8.321747e+05  -1.082877e+06
   4.857979e+05  -1.039034e+06
   4.495352e+05   3.449643e+05
  -8.997830e+05   7.368317e+05
  -1.735144e+06  -9.860292e+05
  -8.022142e+05  -3.089916e+06
   1.214207e+06  -3.248789e+06
   2.810156e+06  -1.268720e+06
   3.168150e+06   1.166977e+06
   2.260704e+06   2.538757e+06
   4.933349e+05   2.463638e+06
  -1.147446e+06   1.380053e+06
  -1.471641e+06   2.180416e+05
  -4.574086e+05  -3.534788e+04
   3.453445e+05   6.893267e+05
  -3.442840e+05   1.230462e+06
  -1.723022e+06   5.643030e+05
  -1.882300e+06  -7.589045e+05
  -3.960766e+05  -1.282806e+06
   1.068691e+06  -5.578700e+05
   8.566702e+05   4.054563e+05
  -7.615904e+05   5.376232e+05
  -2.063005e+06  -2.128586e+05
  -1.701794e+06  -1.231980e+06
   1.693566e+05  -1.875144e+06
   2.122968e+06  -1.602603e+06
   2.575476e+06  -3.059121e+05
   1.145307e+06   1.139892e+06
  -8.170786e+05   1.382940e+06
  -1.414944e+06   1.948416e+05
  -1.884760e+05  -9.830101e+05
   1.389324e+06  -7.012919e+05
   1.609040e+06   6.857758e+05
   3.631841e+05   1.526094e+06
  -9.787190e+05   9.490991e+05
  -1.180371e+06  -2.401439e+05
  -2.631401e+05  -7.124446e+05
   7.234737e+05  -6.855174e+04
   6.932819e+05   9.616303e+05
  -5.189946e+05   1.325489e+06
  -1.857027e+06   5.251153e+05
  -1.900396e+06  -9.481282e+05
  -3.874600e+05  -1.916007e+06
   1.302835e+06  -1.546792e+06
   1.596257e+06  -2.306811e+05
   4.897461e+05   7.944195e+05
  -5.942885e+05   7.627981e+05
  -6.010637e+05   7.897411e+04
   9.358965e+04  -3.617044e+05
   4.738303e+05  -2.260853e+05
   1.548990e+05   6.705556e+04
  -3.975265e+05  -2.912566e+04
  -5.035640e+05  -5.882987e+05
   1.539137e+05  -1.100745e+06
   1.262676e+06  -8.577091e+05
   1.938979e+06   3.492496e+05
   1.388436e+06   1.780954e+06
  -1.653748e+05   2.257435e+06
  -1.483082e+06   1.354656e+06
  -1.590617e+06  -7.835038e+04
  -8.374715e+05  -8.383029e+05
  -3.118190e+05  -6.436781e+05
  -4.233376e+05  -2.221456e+05
  -5.606259e+05  -2.707903e+05
  -9.247890e+04  -6.908291e+05
   7.921669e+05  -8.547794e+05
   1.345935e+06  -3.369880e+05
   1.004721e+06   6.608760e+05
  -1.988141e+05   1.381958e+06
  -1.586536e+06   1.037747e+06
  -2.104822e+06  -4.112487e+05
  -1.097913e+06  -1.930191e+06
   8.824532e+05  -2.212306e+06
   2.332109e+06  -1.011410e+06
   2.205073e+06   5.559647e+05
   9.385663e+05   1.229604e+06
  -1.617886e+05   9.081286e+05
  -3.730402e+05   5.031037e+05
  -9.450459e+04   6.969324e+05
  -9.189922e+04   1.194818e+06
  -5.971362e+05   1.192141e+06
  -1.186488e+06   3.111142e+05
  -1.254528e+06  -9.853272e+05
  -5.436636e+05  -1.753262e+06
   5.588695e+05  -1.345077e+06
   1.196996e+06  -2.159524e+04
   7.802852e+05   1.170871e+06
  -3.260888e+05   1.302067e+06
  -1.056687e+06   4.135329e+05
  -7.628744e+05  -6.070980e+05
   7.798350e+04  -9.859343e+05
   4.619607e+05  -7.390617e+05
   6.302635e+04  -3.982176e+05
  -4.030953e+05  -3.105986e+05
  -5.849202e+04  -3.573992e+05
   1.055803e+06  -2.161219e+05
   1.910468e+06   2.717751e+05
   1.518757e+06   9.302222e+05
   1.963763e+03   1.323230e+06
  -1.441770e+06   1.080035e+06
  -1.692006e+06   2.970696e+05
  -7.884458e+05  -4.271913e+05
   2.257943e+05  -5.240233e+05
   4.700878e+05  -4.723597e+04
   2.965079e+04   3.793594e+05
  -4.135320e+05   2.437035e+05
  -4.509486e+05  -3.105301e+05
  -2.338330e+05  -6.712793e+05
  -8.468670e+04  -4.443021e+05
  -1.280745e+05   9.906166e+04
  -2.653766e+05   2.867180e+05
  -2.619860e+05  -2.103379e+05
   1.222090e+05  -9.231727e+05
   8.180535e+05  -1.003023e+06
   1.248427e+06  -1.774975e+05
   7.929048e+05   8.360709e+05
  -3.668100e+05   1.054938e+06
  -1.155432e+06   3.235684e+05
  -6.898016e+05  -5.243620e+05
   6.399008e+05  -6.165945e+05
   1.483962e+06   5.844607e+04
   9.635246e+05   7.852423e+05
  -4.250233e+05   9.369928e+05
  -1.390473e+06   4.831039e+05
  -1.159814e+06  -1.514961e+05
  -1.379043e+05  -4.790110e+05
   5.993496e+05  -2.654540e+05
   3.596725e+05   2.643556e+05
  -5.394061e+05   4.917847e+05
  -1.101724e+06  -6.061055e+04
  -6.388589e+05  -1.090395e+06
   5.262948e+05  -1.593149e+06
   1.369569e+06  -8.468849e+05
   1.183353e+06   6.858505e+05
   2.193916e+05   1.667669e+06
  -6.682601e+05   1.222388e+06
  -8.669599e+05  -1.455084e+05
  -4.256359e+05  -1.103743e+06
   1.847713e+05  -9.097684e+05
   5.216716e+05  -8.958962e+04
   4.433070e+05   3.449222e+05
   1.571897e+05   1.265215e+05
   4.290715e+04  -9.064187e+04
   2.629906e+05   2.683083e+05
   4.910254e+05   8.911715e+05
   1.990590e+05   1.003166e+06
  -6.568634e+05   3.816099e+05
  -1.383795e+06  -4.077123e+05
  -1.210042e+06  -7.581198e+05
  -1.851019e+05  -6.478518e+05
   7.888922e+05  -4.060548e+05
   9.148627e+05  -1.877765e+05
   3.372433e+05   4.244424e+04
  -1.315878e+05   2.130341e+05
  -2.980835e+04   1.923151e+05
   2.481365e+05   8.318919e+04
   5.007629e+04   1.229875e+05
  -6.113394e+05   2.331576e+05
  -9.767235e+05   1.067368e+04
  -4.199839e+05  -6.368470e+05
   7.593700e+05  -1.116648e+06
   1.571470e+06  -7.421405e+05
   1.328199e+06   3.715911e+05
   2.867696e+05   1.305673e+06
  -6.878529e+05   1.300361e+06
  -9.678876e+05   5.262063e+05
  -6.157731e+05  -2.011763e+05
  -1.338780e+05  -3.314827e+05
   6.104585e+04  -6.528446e+04
  -7.678060e+04   1.498419e+04
  -2.863792e+05  -3.381907e+05
  -2.460265e+05  -7.491846e+05
   1.516542e+05  -6.385625e+05
   6.371791e+05   9.460458e+04
   7.136671e+05   8.676982e+05
   1.373008e+05   9.601098e+05
  -6.932637e+05   2.537990e+05
  -9.838921e+05  -6.431151e+05
  -3.542165e+05  -1.008728e+06
   6.485138e+05  -6.531471e+05
   1.048367e+06   4.185508e+04
   5.138013e+05   5.631228e+05
  -2.522543e+05   6.449904e+05
  -3.504625e+05   3.536372e+05
   2.252294e+05   8.674999e+02
   6.036133e+05  -5.259998e+04
   1.460665e+05   2.850878e+05
  -7.548246e+05   6.515795e+05
  -1.168214e+06   5.286107e+05
  -7.217921e+05  -1.525249e+05
   6.901939e+04  -8.159417e+05
   5.007800e+05  -8.146523e+05
   3.995979e+05  -1.660649e+05
   6.488557e+04   4.429650e+05
  -2.113735e+05   4.156100e+05
  -3.314244e+05  -1.227517e+05
  -2.520322e+05  -5.323618e+05
   3.685072e+04  -4.056851e+05
   3.661138e+05   2.930458e+04
   4.531208e+05   2.547404e+05
   2.289021e+05   8.816348e+04
  -3.922634e+04  -1.441613e+05
  -7.891778e+04  -4.897245e+04
   2.880044e+04   3.248573e+05
  -1.941960e+04   5.213201e+05
  -2.873306e+05   2.240330e+05
  -4.458386e+05  -3.338329e+05
  -1.748556e+05  -5.988448e+05
   3.692952e+05  -3.072248e+05
   6.317489e+05   2.389317e+05
   2.550971e+05   5.256749e+05
  -4.665503e+05   3.552186e+05
  -8.299727e+05  -4.442384e+04
  -4.590113e+05  -3.399784e+05
   2.636737e+05  -3.868041e+05
   5.923772e+05  -2.364063e+05
   2.393252e+05  -2.508601e+04
  -3.124736e+05   7.867197e+04
  -3.782891e+05  -4.022294e+04
   1.424538e+05  -2.705433e+05
   6.749050e+05  -2.725106e+05
