
 $NMID
 id='ANONYMOUS ', fmtdat='(2E16.6)'
 volume=1.0
 tramp=1.0
 $END
  -3.113202e+07   1.450862e+05
  -2.022220e+07  -1.627816e+07
   1.395020e+06  -2.031094e+07
   1.415867e+07  -1.139601e+07
   1.063332e+07   5.576996e+05
  -1.842106e+05   5.510477e+06
  -6.073994e+06   1.591234e+06
  -3.664520e+06  -5.192504e+06
   2.189206e+06  -7.439480e+06
   5.712907e+06  -2.900702e+06
   4.665571e+06   3.831696e+06
   5.786638e+05   5.936558e+06
  -2.738290e+06   1.427252e+06
  -2.076275e+06  -4.592464e+06
   1.936420e+06  -5.447514e+06
   4.963514e+06  -1.413906e+05
   3.423424e+06   5.985554e+06
  -1.635657e+06   7.379978e+06
  -5.838973e+06   3.583587e+06
  -6.052752e+06  -1.547712e+06
  -2.983957e+06  -4.277196e+06
   1.214156e+05  -3.912606e+06
   6.330665e+05  -2.415116e+06
  -1.107919e+06  -2.090914e+06
  -2.021598e+06  -3.342404e+06
   5.089280e+05  -4.263352e+06
   5.163599e+06  -2.783390e+06
   7.364171e+06   6.877730e+05
   4.380353e+06   3.392531e+06
  -1.080475e+06   3.201644e+06
  -3.717532e+06   7.694966e+05
  -1.600067e+06  -1.491949e+06
   2.164412e+06  -1.771953e+06
   3.563837e+06   5.688053e+04
   1.877981e+06   2.624103e+06
  -6.315888e+05   3.740067e+06
  -1.755901e+06   2.042185e+06
  -1.130025e+06  -1.060839e+06
   1.184740e+05  -2.146596e+06
   5.158900e+05   1.820191e+05
  -5.488098e+05   2.915245e+06
  -2.019647e+06   2.114360e+06
  -1.921428e+06  -1.668619e+06
   3.762423e+05  -3.669625e+06
   2.884196e+06  -1.037643e+06
   2.765437e+06   3.389717e+06
  -5.094714e+05   4.642760e+06
  -4.269101e+06   1.497756e+06
  -5.102059e+06  -2.710212e+06
  -2.093081e+06  -4.278294e+06
   2.289928e+06  -2.564588e+06
   4.371776e+06   4.014342e+05
   2.582097e+06   2.204800e+06
  -1.067448e+06   1.759178e+06
  -2.961343e+06  -1.251180e+05
  -1.597025e+06  -1.452111e+06
   9.400082e+05  -9.383362e+05
   1.563924e+06   5.899172e+05
  -1.641874e+05   1.181900e+06
  -1.727747e+06   1.238869e+05
  -8.913609e+05  -1.319210e+06
   1.636159e+06  -1.521097e+06
   3.127164e+06  -1.235276e+05
   1.831344e+06   2.000671e+06
  -1.409351e+06   3.538904e+06
  -4.166986e+06   3.263285e+06
  -4.585120e+06   7.748688e+05
  -2.745754e+06  -2.613538e+06
  -3.516324e+05  -4.496075e+06
   9.060794e+05  -3.736640e+06
   8.473275e+05  -1.781280e+06
   6.700128e+05  -8.199065e+05
   1.337709e+06  -1.045501e+06
   2.396355e+06  -7.586594e+05
   2.576870e+06   9.140455e+05
   1.296701e+06   2.568827e+06
  -7.090506e+05   2.262715e+06
  -2.040469e+06  -3.181129e+04
  -1.681854e+06  -2.333030e+06
   2.676870e+05  -2.702252e+06
   2.470253e+06  -9.559511e+05
   3.191523e+06   1.446210e+06
   1.856054e+06   2.808321e+06
  -2.459771e+05   2.558417e+06
  -1.319321e+06   1.513341e+06
  -1.146877e+06   8.656788e+05
  -1.195220e+06   8.836321e+05
  -2.433713e+06   7.281956e+05
  -3.733715e+06  -4.223179e+05
  -3.088391e+06  -2.292840e+06
  -1.718405e+05  -3.667172e+06
   2.974642e+06  -3.456506e+06
   3.936098e+06  -1.597220e+06
   2.271147e+06   8.028995e+05
  -2.219418e+05   2.127527e+06
  -1.337219e+06   1.516676e+06
  -4.555997e+05  -1.863107e+05
   1.110692e+06  -1.091176e+06
   1.602771e+06  -2.966575e+05
   6.139943e+05   1.005602e+06
  -6.136183e+05   1.010564e+06
  -6.510172e+05  -3.089812e+05
   5.524200e+05  -1.052169e+06
   1.678641e+06   1.981204e+05
   1.425320e+06   2.489816e+06
  -3.125934e+05   3.503061e+06
  -2.439010e+06   2.086888e+06
  -3.506496e+06  -6.583340e+05
  -2.721221e+06  -2.641484e+06
  -6.012531e+05  -2.702523e+06
   1.260185e+06  -1.365703e+06
   1.521852e+06  -1.021350e+05
   4.499110e+05   4.526312e+04
  -3.356947e+05  -6.736193e+05
   2.704738e+05  -1.109116e+06
   1.524156e+06  -5.151376e+05
   1.752011e+06   6.149104e+05
   4.531245e+05   1.140678e+06
  -1.011898e+06   5.822726e+05
  -9.669114e+05  -3.937204e+05
   6.620961e+05  -7.380752e+05
   2.214527e+06  -2.906856e+04
   1.993853e+06   1.236766e+06
  -2.618635e+04   2.073464e+06
  -2.152372e+06   1.723953e+06
  -2.577248e+06   3.146231e+05
  -1.090690e+06  -1.057683e+06
   7.615917e+05  -1.214479e+06
   1.237379e+06  -1.381476e+05
   8.777077e+04   8.820402e+05
  -1.340987e+06   6.349673e+05
  -1.583660e+06  -6.232824e+05
  -4.741656e+05  -1.489421e+06
   8.605819e+05  -1.063324e+06
   1.202489e+06   7.895849e+04
   3.796851e+05   6.478845e+05
  -6.257468e+05   8.638844e+04
  -6.269682e+05  -9.282816e+05
   5.686530e+05  -1.262503e+06
   1.842481e+06  -4.293653e+05
   1.818638e+06   9.894355e+05
   3.457724e+05   1.862092e+06
  -1.249092e+06   1.495270e+06
  -1.548995e+06   2.583545e+05
  -5.292834e+05  -7.576448e+05
   5.632563e+05  -7.800884e+05
   6.741486e+05  -5.930117e+04
  -3.034211e+04   5.020689e+05
  -5.901483e+05   3.651705e+05
  -3.893640e+05  -1.131350e+05
   2.718514e+05  -1.745782e+05
   5.622848e+05   4.197646e+05
  -4.678938e+04   1.053667e+06
  -1.210640e+06   8.590599e+05
  -1.901083e+06  -3.504401e+05
  -1.328772e+06  -1.765347e+06
   2.047803e+05  -2.255736e+06
   1.508824e+06  -1.423048e+06
   1.683968e+06   1.989650e+04
   9.801909e+05   9.492215e+05
   3.451280e+05   8.963768e+05
   2.785071e+05   3.807287e+05
   3.909260e+05   2.141117e+05
   5.925460e+04   5.781329e+05
  -7.444165e+05   8.620112e+05
  -1.368538e+06   3.982383e+05
  -1.101077e+06  -7.008304e+05
   1.431611e+05  -1.499593e+06
   1.602218e+06  -1.098556e+06
   2.131112e+06   4.138531e+05
   1.135313e+06   1.901229e+06
  -7.839246e+05   2.166526e+06
  -2.230511e+06   1.054142e+06
  -2.237755e+06  -4.517543e+05
  -1.096680e+06  -1.229272e+06
   7.646637e+04  -1.058130e+06
   4.936989e+05  -6.367965e+05
   3.115867e+05  -6.646610e+05
   2.110849e+05  -1.050182e+06
   5.743588e+05  -1.072848e+06
   1.112734e+06  -2.559151e+05
   1.191246e+06   1.011006e+06
   4.874454e+05   1.753340e+06
  -5.977038e+05   1.320506e+06
  -1.199499e+06   2.586560e+04
  -7.893224e+05  -1.112237e+06
   2.458796e+05  -1.274732e+06
   9.399992e+05  -5.118978e+05
   7.341959e+05   4.314265e+05
   3.392924e+04   8.749351e+05
  -3.111552e+05   7.489217e+05
  -6.073493e+03   4.593701e+05
   3.619332e+05   3.499555e+05
   3.082136e+04   3.690241e+05
  -9.933141e+05   2.165040e+05
  -1.807586e+06  -2.693504e+05
  -1.485439e+06  -8.932774e+05
  -7.770657e+04  -1.236575e+06
   1.329491e+06  -1.010892e+06
   1.639600e+06  -3.359709e+05
   8.124107e+05   3.060257e+05
  -1.791780e+05   4.536245e+05
  -4.318577e+05   9.291808e+04
   1.710374e+04  -2.955684e+05
   4.569370e+05  -2.073232e+05
   4.235479e+05   3.197042e+05
   1.173215e+05   6.955922e+05
  -1.868483e+04   4.461711e+05
   1.419231e+05  -1.631189e+05
   3.469042e+05  -3.609861e+05
   2.743127e+05   2.029764e+05
  -1.904798e+05   9.442942e+05
  -8.264026e+05   9.572066e+05
  -1.122644e+06   8.576795e+04
  -6.505685e+05  -8.466204e+05
   3.848410e+05  -9.440597e+05
   1.082534e+06  -2.002319e+05
   6.550819e+05   5.673490e+05
  -6.227519e+05   6.186354e+05
  -1.517430e+06  -3.443720e+04
  -1.074045e+06  -7.769407e+05
   3.459668e+05  -1.007724e+06
   1.422891e+06  -5.917500e+05
   1.242908e+06   1.030139e+05
   1.785051e+05   5.046158e+05
  -5.909995e+05   2.999827e+05
  -3.202965e+05  -2.381482e+05
   5.933901e+05  -4.256106e+05
   1.081499e+06   1.626196e+05
   5.143125e+05   1.136705e+06
  -6.728583e+05   1.528550e+06
  -1.436346e+06   7.349993e+05
  -1.154053e+06  -7.554084e+05
  -1.574784e+05  -1.694641e+06
   7.052291e+05  -1.257647e+06
   8.846167e+05   1.061132e+05
   4.638725e+05   1.109566e+06
  -1.259020e+05   9.574065e+05
  -5.005660e+05   1.132795e+05
  -4.964043e+05  -3.738930e+05
  -2.220229e+05  -1.555578e+05
  -1.978892e+04   1.121022e+05
  -1.591691e+05  -2.246871e+05
  -4.312460e+05  -8.840496e+05
  -2.552023e+05  -1.029191e+06
   5.734289e+05  -3.836138e+05
   1.389329e+06   4.497969e+05
   1.270675e+06   7.959189e+05
   1.778537e+05   6.376998e+05
  -8.705132e+05   3.733672e+05
  -9.487861e+05   1.874914e+05
  -2.797969e+05  -8.556192e+03
   1.649420e+05  -2.009140e+05
  -4.433980e+04  -2.356820e+05
  -3.307388e+05  -1.415131e+05
  -1.177517e+04  -1.286092e+05
   7.109402e+05  -1.749312e+05
   9.634975e+05   5.038439e+04
   2.687661e+05   6.313795e+05
  -8.798216e+05   1.030487e+06
  -1.534227e+06   6.197372e+05
  -1.201163e+06  -4.663652e+05
  -2.010613e+05  -1.327182e+06
   7.114946e+05  -1.242451e+06
   9.813751e+05  -4.283161e+05
   6.168521e+05   2.734224e+05
   8.324965e+04   3.327743e+05
  -1.361226e+05   8.776404e+03
   5.151909e+04  -7.153652e+04
   3.137319e+05   3.236987e+05
   2.509266e+05   7.573629e+05
  -1.933843e+05   6.113761e+05
  -6.458346e+05  -1.786158e+05
  -6.225822e+05  -9.488308e+05
  -3.752947e+03  -9.495881e+05
   7.490416e+05  -1.410329e+05
   9.229514e+05   7.567549e+05
   2.554988e+05   1.013474e+06
  -6.851126e+05   5.610806e+05
  -1.000690e+06  -1.089638e+05
  -4.427892e+05  -5.247681e+05
   2.702709e+05  -5.568962e+05
   2.959070e+05  -3.221433e+05
  -2.974338e+05  -4.221802e+04
  -6.226774e+05   1.357930e+04
  -1.079596e+05  -2.747909e+05
   7.800487e+05  -6.273177e+05
   1.124518e+06  -5.355472e+05
   6.402860e+05   1.212346e+05
  -1.094619e+05   7.797056e+05
  -4.674582e+05   7.616550e+05
  -3.287147e+05   9.679232e+04
  -4.382905e+03  -4.733025e+05
   2.414762e+05  -3.634386e+05
   3.262985e+05   2.036758e+05
   2.164718e+05   5.435487e+05
  -7.068019e+04   3.403957e+05
  -3.591891e+05  -7.502967e+04
  -4.179767e+05  -2.262771e+05
  -2.248245e+05  -5.605273e+04
   6.225586e+02   9.137369e+04
   7.933625e+04  -5.676818e+04
   8.111751e+04  -3.645598e+05
   1.730679e+05  -4.392206e+05
   3.343207e+05  -8.525673e+04
   3.357934e+05   4.299410e+05
   2.604015e+04   6.104719e+05
  -4.151173e+05   2.537251e+05
  -5.706515e+05  -3.108869e+05
  -1.933147e+05  -5.612748e+05
   4.603373e+05  -3.222894e+05
   7.825087e+05   1.125128e+05
   4.204235e+05   3.610501e+05
  -2.789189e+05   3.214806e+05
  -5.801507e+05   1.452108e+05
  -1.856621e+05   4.606607e+03
   3.873869e+05  -5.753557e+03
   4.010962e+05   1.353747e+05
  -2.176079e+05   3.056289e+05
  -7.851484e+05   2.322063e+05
