
 $NMID
 id='ANONYMOUS ', fmtdat='(2E16.6)'
 volume=1.0
 tramp=1.0
 $END
  -3.414208e+07  -2.159531e+04
  -2.175858e+07  -1.846477e+07
   2.140845e+06  -2.234458e+07
   1.570700e+07  -1.180394e+07
   1.130598e+07   1.230635e+06
  -5.204613e+05   5.937723e+06
  -6.500608e+06   1.315125e+06
  -3.599744e+06  -5.702354e+06
   2.612456e+06  -7.704416e+06
   6.169510e+06  -2.833972e+06
   4.959869e+06   4.132358e+06
   6.087370e+05   6.293114e+06
  -2.913268e+06   1.578461e+06
  -2.174624e+06  -4.744647e+06
   2.136891e+06  -5.628767e+06
   5.313464e+06   1.547391e+04
   3.558043e+06   6.496671e+06
  -1.891259e+06   7.920380e+06
  -6.366401e+06   3.851807e+06
  -6.625887e+06  -1.647414e+06
  -3.379205e+06  -4.693878e+06
   7.843884e+04  -4.459131e+06
   9.029519e+05  -2.793179e+06
  -8.322259e+05  -2.142128e+06
  -1.993729e+06  -3.254280e+06
   4.173549e+05  -4.333236e+06
   5.273848e+06  -3.011738e+06
   7.726669e+06   5.707140e+05
   4.722497e+06   3.529031e+06
  -9.711398e+05   3.458073e+06
  -3.793280e+06   9.792729e+05
  -1.737866e+06  -1.367241e+06
   2.022903e+06  -1.745946e+06
   3.497592e+06  -3.158531e+04
   1.967978e+06   2.538196e+06
  -4.898370e+05   3.835775e+06
  -1.797825e+06   2.264439e+06
  -1.374712e+06  -1.000076e+06
  -5.568128e+04  -2.351568e+06
   5.767624e+05  -2.577266e+04
  -4.473661e+05   2.928790e+06
  -2.086781e+06   2.171990e+06
  -1.993547e+06  -1.843764e+06
   5.999581e+05  -3.950517e+06
   3.331442e+06  -1.016118e+06
   3.018048e+06   3.812829e+06
  -6.828432e+05   5.090967e+06
  -4.656813e+06   1.596336e+06
  -5.360161e+06  -2.924672e+06
  -2.101316e+06  -4.507999e+06
   2.433697e+06  -2.616077e+06
   4.517416e+06   5.097838e+05
   2.601864e+06   2.352091e+06
  -1.215800e+06   1.817663e+06
  -3.154585e+06  -2.120775e+05
  -1.648098e+06  -1.597287e+06
   1.033449e+06  -9.903200e+05
   1.603095e+06   6.372698e+05
  -2.740174e+05   1.159932e+06
  -1.805942e+06  -6.300506e+04
  -7.344225e+05  -1.529166e+06
   1.958701e+06  -1.554901e+06
   3.375472e+06   3.287684e+04
   1.895247e+06   2.226510e+06
  -1.473477e+06   3.770659e+06
  -4.319417e+06   3.485085e+06
  -4.826825e+06   8.888348e+05
  -2.980123e+06  -2.717524e+06
  -4.192851e+05  -4.740224e+06
   1.009193e+06  -3.892002e+06
   9.356896e+05  -1.746946e+06
   6.122049e+05  -7.362152e+05
   1.216533e+06  -1.080013e+06
   2.365088e+06  -8.960334e+05
   2.661249e+06   8.034630e+05
   1.411377e+06   2.548990e+06
  -6.344603e+05   2.299729e+06
  -2.027645e+06   7.003355e+03
  -1.723065e+06  -2.336926e+06
   2.344301e+05  -2.773788e+06
   2.543522e+06  -1.050052e+06
   3.381728e+06   1.443180e+06
   2.025868e+06   2.955742e+06
  -2.357489e+05   2.770804e+06
  -1.443155e+06   1.654144e+06
  -1.273203e+06   9.002390e+05
  -1.272088e+06   8.764107e+05
  -2.518492e+06   7.209668e+05
  -3.855316e+06  -4.525065e+05
  -3.184873e+06  -2.367981e+06
  -1.825384e+05  -3.772838e+06
   3.035988e+06  -3.570225e+06
   4.023617e+06  -1.692826e+06
   2.355820e+06   7.712685e+05
  -1.664292e+05   2.180604e+06
  -1.332792e+06   1.592926e+06
  -4.762177e+05  -1.735730e+05
   1.124592e+06  -1.136652e+06
   1.659801e+06  -3.152302e+05
   6.572695e+05   1.043327e+06
  -6.106286e+05   1.041089e+06
  -6.391085e+05  -3.172293e+05
   6.053335e+05  -1.029490e+06
   1.712520e+06   3.073487e+05
   1.368949e+06   2.616409e+06
  -4.305704e+05   3.536985e+06
  -2.528958e+06   2.024746e+06
  -3.537437e+06  -7.301008e+05
  -2.731377e+06  -2.678493e+06
  -6.099541e+05  -2.732997e+06
   1.273634e+06  -1.404750e+06
   1.553640e+06  -1.233658e+05
   4.618790e+05   4.436637e+04
  -3.455361e+05  -6.918652e+05
   2.879865e+05  -1.151023e+06
   1.587815e+06  -5.321147e+05
   1.809369e+06   6.493828e+05
   4.545625e+05   1.185361e+06
  -1.043145e+06   5.927208e+05
  -9.756904e+05  -4.021755e+05
   6.872651e+05  -7.286324e+05
   2.243890e+06  -3.399121e+03
   2.005142e+06   1.257976e+06
  -3.935949e+04   2.094647e+06
  -2.195799e+06   1.753063e+06
  -2.638464e+06   3.247807e+05
  -1.123960e+06  -1.093480e+06
   7.889091e+05  -1.265964e+06
   1.291514e+06  -1.471931e+05
   1.022442e+05   9.185229e+05
  -1.380337e+06   6.598265e+05
  -1.624780e+06  -6.451241e+05
  -4.718614e+05  -1.527359e+06
   8.936105e+05  -1.072260e+06
   1.225331e+06   1.007444e+05
   3.723009e+05   6.695210e+05
  -6.541273e+05   8.471614e+04
  -6.518696e+05  -9.562508e+05
   5.754911e+05  -1.303754e+06
   1.890644e+06  -4.550506e+05
   1.875940e+06   1.006877e+06
   3.613168e+05   1.914617e+06
  -1.285218e+06   1.538915e+06
  -1.591444e+06   2.621274e+05
  -5.366288e+05  -7.791776e+05
   5.798579e+05  -7.963871e+05
   6.807397e+05  -6.518140e+04
  -3.676354e+04   4.946115e+05
  -5.863087e+05   3.583541e+05
  -3.686472e+05  -1.051962e+05
   2.914642e+05  -1.500650e+05
   5.660047e+05   4.504657e+05
  -6.129106e+04   1.083870e+06
  -1.245698e+06   8.808482e+05
  -1.952969e+06  -3.565761e+05
  -1.371423e+06  -1.809360e+06
   2.010491e+05  -2.311501e+06
   1.538352e+06  -1.450880e+06
   1.710943e+06   2.389330e+04
   9.881230e+05   9.528379e+05
   3.550649e+05   8.826494e+05
   3.083613e+05   3.707080e+05
   4.227766e+05   2.293824e+05
   6.438053e+04   6.079015e+05
  -7.671625e+05   8.825694e+05
  -1.397119e+06   4.026830e+05
  -1.117107e+06  -7.087758e+05
   1.493535e+05  -1.519582e+06
   1.636244e+06  -1.120109e+06
   2.180100e+06   4.197378e+05
   1.160106e+06   1.948955e+06
  -8.139461e+05   2.224619e+06
  -2.295915e+06   1.075300e+06
  -2.286178e+06  -4.728716e+05
  -1.103607e+06  -1.254529e+06
   8.554849e+04  -1.062060e+06
   4.859871e+05  -6.371466e+05
   2.894437e+05  -6.895004e+05
   2.011640e+05  -1.097494e+06
   5.918684e+05  -1.115258e+06
   1.150213e+06  -2.698372e+05
   1.230552e+06   1.031411e+06
   5.093622e+05   1.796072e+06
  -6.054915e+05   1.357305e+06
  -1.228098e+06   2.760150e+04
  -8.077654e+05  -1.145837e+06
   2.613104e+05  -1.308194e+06
   9.760405e+05  -5.102505e+05
   7.533858e+05   4.650737e+05
   1.892595e+04   9.091114e+05
  -3.378803e+05   7.635055e+05
  -1.219113e+04   4.611287e+05
   3.776148e+05   3.531633e+05
   3.624663e+04   3.768325e+05
  -1.025497e+06   2.222445e+05
  -1.865811e+06  -2.751780e+05
  -1.526672e+06  -9.183261e+05
  -6.951976e+04  -1.276917e+06
   1.376719e+06  -1.044733e+06
   1.685158e+06  -3.402440e+05
   8.270670e+05   3.282984e+05
  -1.903748e+05   4.736222e+05
  -4.465532e+05   8.900234e+04
   1.202449e+04  -3.148834e+05
   4.622147e+05  -2.187918e+05
   4.381403e+05   3.258845e+05
   1.375744e+05   7.108882e+05
  -4.371547e+03   4.585092e+05
   1.420504e+05  -1.589327e+05
   3.424953e+05  -3.617348e+05
   2.797724e+05   2.082692e+05
  -1.838108e+05   9.659999e+05
  -8.447377e+05   9.882625e+05
  -1.168640e+06   9.989835e+04
  -6.872568e+05  -8.672477e+05
   3.922163e+05  -9.829734e+05
   1.120508e+06  -2.222952e+05
   6.772898e+05   5.747765e+05
  -6.390949e+05   6.339772e+05
  -1.549166e+06  -3.554116e+04
  -1.086103e+06  -7.932091e+05
   3.621982e+05  -1.021650e+06
   1.450075e+06  -5.940983e+05
   1.261029e+06   1.087351e+05
   1.785139e+05   5.123672e+05
  -6.054225e+05   3.032334e+05
  -3.332855e+05  -2.477824e+05
   6.010118e+05  -4.467825e+05
   1.112509e+06   1.514493e+05
   5.462290e+05   1.159340e+06
  -6.679844e+05   1.577878e+06
  -1.462770e+06   7.713555e+05
  -1.188283e+06  -7.629007e+05
  -1.728078e+05  -1.732740e+06
   7.146888e+05  -1.284993e+06
   9.031161e+05   1.123782e+05
   4.716962e+05   1.134298e+06
  -1.347510e+05   9.733210e+05
  -5.150682e+05   1.131904e+05
  -5.022851e+05  -3.773793e+05
  -2.192809e+05  -1.539666e+05
  -2.287248e+04   1.114763e+05
  -1.767571e+05  -2.376653e+05
  -4.509996e+05  -9.068104e+05
  -2.556683e+05  -1.049160e+06
   5.980726e+05  -3.920110e+05
   1.423564e+06   4.527380e+05
   1.295010e+06   8.070231e+05
   1.839850e+05   6.543735e+05
  -8.804072e+05   3.896195e+05
  -9.668403e+05   1.941116e+05
  -2.938398e+05  -1.393283e+04
   1.642771e+05  -2.082041e+05
  -3.645277e+04  -2.340793e+05
  -3.287658e+05  -1.350875e+05
  -1.759677e+04  -1.316836e+05
   7.153439e+05  -1.899437e+05
   9.897915e+05   4.207450e+04
   2.967566e+05   6.496340e+05
  -8.846211e+05   1.070570e+06
  -1.577601e+06   6.531008e+05
  -1.249905e+06  -4.650701e+05
  -2.200327e+05  -1.357537e+06
   7.245997e+05  -1.281962e+06
   1.004387e+06  -4.538037e+05
   6.333630e+05   2.692649e+05
   9.270186e+04   3.414705e+05
  -1.301685e+05   1.822113e+04
   5.512984e+04  -6.520762e+04
   3.178523e+05   3.325905e+05
   2.575842e+05   7.741687e+05
  -1.919919e+05   6.308939e+05
  -6.620332e+05  -1.704174e+05
  -6.528684e+05  -9.614006e+05
  -2.327900e+04  -9.762838e+05
   7.612774e+05  -1.618991e+05
   9.566842e+05   7.592074e+05
   2.767782e+05   1.038656e+06
  -6.974266e+05   5.889085e+05
  -1.032765e+06  -1.017398e+05
  -4.633593e+05  -5.432969e+05
   2.750570e+05  -5.831696e+05
   3.106361e+05  -3.337467e+05
  -2.955187e+05  -3.585667e+04
  -6.358111e+05   2.053895e+04
  -1.160335e+05  -2.833321e+05
   7.949470e+05  -6.474163e+05
   1.156759e+06  -5.484942e+05
   6.665339e+05   1.288700e+05
  -1.060401e+05   8.043602e+05
  -4.830683e+05   7.874489e+05
  -3.473897e+05   1.078863e+05
  -1.400369e+04  -4.816403e+05
   2.435446e+05  -3.802558e+05
   3.365998e+05   1.971327e+05
   2.275888e+05   5.554572e+05
  -6.837790e+04   3.582365e+05
  -3.697198e+05  -7.018628e+04
  -4.327265e+05  -2.356138e+05
  -2.303467e+05  -6.151064e+04
   5.130070e+03   1.014675e+05
   7.928791e+04  -4.383279e+04
   6.684532e+04  -3.699760e+05
   1.570295e+05  -4.639551e+05
   3.382435e+05  -1.075760e+05
   3.612403e+05   4.286016e+05
   4.811940e+04   6.261747e+05
  -4.194388e+05   2.685977e+05
  -5.945259e+05  -3.087648e+05
  -2.079066e+05  -5.707788e+05
   4.724074e+05  -3.351898e+05
   8.092777e+05   1.055735e+05
   4.367704e+05   3.669433e+05
  -2.842323e+05   3.388479e+05
  -5.971929e+05   1.618222e+05
  -1.977982e+05   6.880596e+03
   3.877840e+05  -1.768901e+04
   4.095059e+05   1.246780e+05
  -2.115664e+05   3.098415e+05
  -7.894342e+05   2.463937e+05
