
 $NMID
 id='ANONYMOUS ', fmtdat='(2E16.6)'
 volume=1.0
 tramp=1.0
 $END
   2.942978e+07   1.131943e+05
   1.923624e+07   1.500581e+07
  -9.984367e+05   1.903526e+07
  -1.326895e+07   1.125226e+07
  -1.031405e+07  -5.940609e+02
  -8.244375e+04  -5.263088e+06
   5.863769e+06  -1.869730e+06
   3.808677e+06   4.893588e+06
  -1.898424e+06   7.427027e+06
  -5.488084e+06   3.023885e+06
  -4.524308e+06  -3.733879e+06
  -5.224140e+05  -5.832763e+06
   2.698099e+06  -1.309111e+06
   2.040941e+06   4.649992e+06
  -1.845660e+06   5.469054e+06
  -4.802892e+06   2.547272e+05
  -3.363808e+06  -5.748343e+06
   1.523082e+06  -7.119605e+06
   5.596336e+06  -3.397124e+06
   5.724116e+06   1.591879e+06
   2.658403e+06   4.097518e+06
  -2.461391e+05   3.538403e+06
  -4.422224e+05   2.100662e+06
   1.426973e+06   2.089246e+06
   2.151197e+06   3.570604e+06
  -6.322963e+05   4.390382e+06
  -5.308172e+06   2.658116e+06
  -7.332615e+06  -8.874349e+05
  -4.202761e+06  -3.449604e+06
   1.275318e+06  -3.094311e+06
   3.830544e+06  -5.777726e+05
   1.546870e+06   1.701906e+06
  -2.395596e+06   1.893925e+06
  -3.795393e+06  -1.374801e+05
  -1.882016e+06  -2.832601e+06
   8.111101e+05  -3.822461e+06
   1.817871e+06  -1.901422e+06
   9.404575e+05   1.200225e+06
  -3.278997e+05   2.056932e+06
  -5.071594e+05  -4.067699e+05
   6.754739e+05  -3.041364e+06
   2.046676e+06  -2.138671e+06
   1.905449e+06   1.573904e+06
  -2.098101e+05   3.512822e+06
  -2.557394e+06   1.038710e+06
  -2.569679e+06  -3.149051e+06
   4.233619e+05  -4.369491e+06
   4.079242e+06  -1.407771e+06
   5.032254e+06   2.649389e+06
   2.142011e+06   4.232819e+06
  -2.250876e+06   2.601301e+06
  -4.396677e+06  -3.310031e+05
  -2.650897e+06  -2.151960e+06
   9.725833e+05  -1.751135e+06
   2.880128e+06   7.220336e+04
   1.591308e+06   1.374171e+06
  -8.943924e+05   9.108411e+05
  -1.583473e+06  -5.729624e+05
   5.870955e+04  -1.236649e+06
   1.695054e+06  -3.042014e+05
   1.054284e+06   1.142056e+06
  -1.388984e+06   1.505433e+06
  -2.989770e+06   2.504737e+05
  -1.813945e+06  -1.868937e+06
   1.436933e+06  -3.450754e+06
   4.223190e+06  -3.161944e+06
   4.555980e+06  -6.614510e+05
   2.614984e+06   2.653971e+06
   2.653987e+05   4.453070e+06
  -8.619867e+05   3.725511e+06
  -7.877182e+05   1.879626e+06
  -7.428223e+05   9.491190e+05
  -1.521590e+06   1.075327e+06
  -2.551697e+06   6.588320e+05
  -2.619677e+06  -1.076576e+06
  -1.239937e+06  -2.715431e+06
   8.199261e+05  -2.332483e+06
   2.145852e+06   7.114528e+04
   1.711230e+06   2.434981e+06
  -3.228989e+05   2.750434e+06
  -2.515813e+06   8.919193e+05
  -3.138269e+06  -1.537717e+06
  -1.745325e+06  -2.804385e+06
   2.959421e+05  -2.456764e+06
   1.271094e+06  -1.420465e+06
   1.074015e+06  -8.513418e+05
   1.168448e+06  -9.185993e+05
   2.452719e+06  -7.551968e+05
   3.768812e+06   4.267504e+05
   3.114504e+06   2.329121e+06
   1.539005e+05   3.720521e+06
  -3.056892e+06   3.483217e+06
  -4.030626e+06   1.558295e+06
  -2.287748e+06  -8.810012e+05
   2.947949e+05  -2.173397e+06
   1.409210e+06  -1.505255e+06
   4.552200e+05   2.105355e+05
  -1.151369e+06   1.089857e+06
  -1.616456e+06   2.816324e+05
  -5.906882e+05  -1.016931e+06
   6.474220e+05  -1.022225e+06
   6.888069e+05   3.134164e+05
  -5.210201e+05   1.111983e+06
  -1.701768e+06  -1.032430e+05
  -1.525027e+06  -2.462137e+06
   2.125443e+05  -3.602112e+06
   2.444484e+06  -2.225978e+06
   3.615701e+06   6.179488e+05
   2.822865e+06   2.718055e+06
   6.145420e+05   2.788998e+06
  -1.305755e+06   1.383748e+06
  -1.557795e+06   8.118064e+04
  -4.571089e+05  -4.949417e+04
   3.373300e+05   6.859216e+05
  -2.711626e+05   1.112177e+06
  -1.528432e+06   5.105372e+05
  -1.764057e+06  -6.156070e+05
  -4.634167e+05  -1.144894e+06
   1.026342e+06  -5.911860e+05
   9.980504e+05   4.047128e+05
  -6.651325e+05   7.762744e+05
  -2.277562e+06   5.176627e+04
  -2.065476e+06  -1.270564e+06
   1.723336e+04  -2.139633e+06
   2.205401e+06  -1.762762e+06
   2.627622e+06  -3.094382e+05
   1.098621e+06   1.071573e+06
  -7.743010e+05   1.210624e+06
  -1.237058e+06   1.269492e+05
  -7.120704e+04  -8.853243e+05
   1.362897e+06  -6.312792e+05
   1.606979e+06   6.342880e+05
   4.908510e+05   1.514697e+06
  -8.658974e+05   1.094468e+06
  -1.227548e+06  -6.457952e+04
  -3.991121e+05  -6.531330e+05
   6.250979e+05  -8.705112e+04
   6.253914e+05   9.448433e+05
  -5.925365e+05   1.275453e+06
  -1.877803e+06   4.156792e+05
  -1.837350e+06  -1.022610e+06
  -3.376925e+05  -1.891685e+06
   1.272534e+06  -1.510479e+06
   1.572833e+06  -2.595623e+05
   5.406919e+05   7.693119e+05
  -5.735581e+05   7.941466e+05
  -6.969050e+05   5.421768e+04
   2.514222e+04  -5.306082e+05
   6.192175e+05  -3.880315e+05
   4.281080e+05   1.236847e+05
  -2.610047e+05   2.044943e+05
  -5.792324e+05  -4.075336e+05
   3.801969e+04  -1.067274e+06
   1.230727e+06  -8.699763e+05
   1.930490e+06   3.662896e+05
   1.337563e+06   1.803087e+06
  -2.246732e+05   2.297241e+06
  -1.547557e+06   1.452026e+06
  -1.728313e+06  -2.027400e+04
  -1.013573e+06  -9.866329e+05
  -3.520116e+05  -9.489889e+05
  -2.625143e+05  -4.106374e+05
  -3.745691e+05  -2.123611e+05
  -5.340648e+04  -5.742586e+05
   7.560490e+05  -8.761143e+05
   1.399656e+06  -4.079199e+05
   1.132050e+06   7.246802e+05
  -1.452877e+05   1.543510e+06
  -1.640075e+06   1.120275e+06
  -2.173298e+06  -4.321471e+05
  -1.152847e+06  -1.938888e+06
   7.959108e+05  -2.197741e+06
   2.264133e+06  -1.069230e+06
   2.282362e+06   4.569265e+05
   1.132885e+06   1.257720e+06
  -7.146242e+04   1.098061e+06
  -5.223795e+05   6.645803e+05
  -3.499461e+05   6.714016e+05
  -2.361318e+05   1.049498e+06
  -5.872346e+05   1.074301e+06
  -1.125068e+06   2.480079e+05
  -1.200449e+06  -1.039311e+06
  -4.807035e+05  -1.788899e+06
   6.205991e+05  -1.339316e+06
   1.222691e+06  -2.112427e+04
   8.001782e+05   1.129234e+06
  -2.458242e+05   1.294043e+06
  -9.445744e+05   5.303638e+05
  -7.422583e+05  -4.194593e+05
  -4.549287e+04  -8.767832e+05
   3.003744e+05  -7.630008e+05
   7.372755e+02  -4.762368e+05
  -3.616823e+05  -3.635301e+05
  -2.604000e+04  -3.777505e+05
   1.004798e+06  -2.160694e+05
   1.826873e+06   2.826267e+05
   1.504930e+06   9.123433e+05
   8.341379e+04   1.248824e+06
  -1.344464e+06   1.014456e+06
  -1.665204e+06   3.397217e+05
  -8.295547e+05  -2.994513e+05
   1.784311e+05  -4.519468e+05
   4.353737e+05  -9.881620e+04
  -2.495699e+04   2.898064e+05
  -4.722649e+05   2.042546e+05
  -4.263847e+05  -3.288921e+05
  -1.006855e+05  -7.125049e+05
   3.501340e+04  -4.547258e+05
  -1.472470e+05   1.742119e+05
  -3.662613e+05   3.762042e+05
  -2.804166e+05  -2.071935e+05
   2.076364e+05  -9.642885e+05
   8.478264e+05  -9.654446e+05
   1.127605e+06  -6.983377e+04
   6.398650e+05   8.671800e+05
  -3.990058e+05   9.453143e+05
  -1.094201e+06   1.824328e+05
  -6.601630e+05  -5.869183e+05
   6.351345e+05  -6.277058e+05
   1.550502e+06   3.899425e+04
   1.105605e+06   7.956298e+05
  -3.466438e+05   1.034731e+06
  -1.457040e+06   6.108404e+05
  -1.277171e+06  -1.043738e+05
  -1.849308e+05  -5.184784e+05
   6.025386e+05  -3.074538e+05
   3.199409e+05   2.407181e+05
  -6.139368e+05   4.219783e+05
  -1.098511e+06  -1.845452e+05
  -5.019499e+05  -1.166874e+06
   7.124626e+05  -1.545605e+06
   1.475911e+06  -7.271132e+05
   1.168378e+06   7.844502e+05
   1.441677e+05   1.731058e+06
  -7.294926e+05   1.282862e+06
  -9.032816e+05  -1.070373e+05
  -4.725356e+05  -1.133625e+06
   1.250120e+05  -9.814004e+05
   5.078400e+05  -1.162255e+05
   5.111547e+05   3.872804e+05
   2.341422e+05   1.635136e+05
   1.760054e+04  -1.169888e+05
   1.472351e+05   2.238409e+05
   4.271967e+05   9.018765e+05
   2.626257e+05   1.053391e+06
  -5.749504e+05   3.884464e+05
  -1.414229e+06  -4.705369e+05
  -1.299087e+06  -8.220977e+05
  -1.772683e+05  -6.492775e+05
   8.996716e+05  -3.719319e+05
   9.722034e+05  -1.865076e+05
   2.773975e+05   5.471282e+03
  -1.734640e+05   2.022715e+05
   5.400277e+04   2.461750e+05
   3.474052e+05   1.536373e+05
   6.262664e+03   1.318972e+05
  -7.385829e+05   1.670602e+05
  -9.797502e+05  -6.409787e+04
  -2.506308e+05  -6.438385e+05
   9.174690e+05  -1.034251e+06
   1.561202e+06  -6.078439e+05
   1.204686e+06   4.935067e+05
   1.871245e+05   1.356135e+06
  -7.340143e+05   1.254911e+06
  -1.003817e+06   4.187031e+05
  -6.274017e+05  -2.912297e+05
  -7.646858e+04  -3.396751e+05
   1.487877e+05  -7.120107e+02
  -4.948434e+04   8.023475e+04
  -3.218200e+05  -3.294179e+05
  -2.527134e+05  -7.740403e+05
   2.055713e+05  -6.183821e+05
   6.583606e+05   1.963573e+05
   6.176261e+05   9.806083e+05
  -1.856561e+04   9.661199e+05
  -7.713075e+05   1.250252e+05
  -9.286397e+05  -7.906422e+05
  -2.423370e+05  -1.034480e+06
   7.056099e+05  -5.561491e+05
   1.012756e+06   1.247265e+05
   4.392285e+05   5.316838e+05
  -2.804304e+05   5.544120e+05
  -2.957772e+05   3.226519e+05
   3.124932e+05   4.995882e+04
   6.370921e+05  -5.676668e+03
   1.036266e+05   2.791150e+05
  -8.011688e+05   6.322485e+05
  -1.142528e+06   5.413060e+05
  -6.409526e+05  -1.223404e+05
   1.206265e+05  -7.890862e+05
   4.754420e+05  -7.668027e+05
   3.258937e+05  -8.785062e+04
  -5.871506e+03   4.863198e+05
  -2.517710e+05   3.622047e+05
  -3.307994e+05  -2.198915e+05
  -2.132432e+05  -5.563578e+05
   7.812496e+04  -3.377673e+05
   3.646885e+05   8.427061e+04
   4.201305e+05   2.287253e+05
   2.282877e+05   5.387637e+04
   4.942600e+03  -8.603856e+04
  -8.121247e+04   7.160827e+04
  -9.910557e+04   3.763415e+05
  -1.989382e+05   4.356676e+05
  -3.472712e+05   6.670605e+04
  -3.253547e+05  -4.524760e+05
  -3.739595e+03  -6.236494e+05
   4.302897e+05  -2.493988e+05
   5.718016e+05   3.290746e+05
   1.860487e+05   5.775718e+05
  -4.697497e+05   3.218257e+05
  -7.904362e+05  -1.274407e+05
  -4.215075e+05  -3.726900e+05
   2.877408e+05  -3.174987e+05
   5.901448e+05  -1.330120e+05
   1.820000e+05  -1.110762e+03
  -4.047381e+05  -5.784445e+03
  -4.110427e+05  -1.525857e+05
   2.332594e+05  -3.150329e+05
   8.158494e+05  -2.274301e+05
