
 $NMID
 id='ANONYMOUS ', fmtdat='(2E16.6)'
 volume=1.0
 tramp=1.0
 $END
   5.960879e+07  -3.544673e+05
   3.592659e+07   3.766135e+07
  -8.320163e+06   4.084021e+07
  -2.969219e+07   1.484275e+07
  -1.734022e+07  -8.384318e+06
   3.942907e+06  -9.936876e+06
   1.043117e+07   1.932376e+06
   2.417651e+06   1.056929e+07
  -7.054386e+06   9.385111e+06
  -1.024831e+07   1.632343e+06
  -7.174438e+06  -6.467334e+06
  -7.794164e+05  -8.764760e+06
   4.042964e+06  -2.905125e+06
   2.501722e+06   5.343650e+06
  -4.144028e+06   6.446368e+06
  -8.242682e+06  -1.663714e+06
  -4.467795e+06  -1.075043e+07
   4.116650e+06  -1.230073e+07
   1.059543e+07  -6.210643e+06
   1.138776e+07   1.972609e+06
   7.246152e+06   7.765726e+06
   1.025060e+06   9.347396e+06
  -3.229097e+06   6.782122e+06
  -2.604671e+06   2.883699e+06
   5.947349e+05   1.783755e+06
   3.158326e+05   3.800121e+06
  -5.091849e+06   4.400983e+06
  -9.556957e+06   6.967061e+05
  -7.248457e+06  -4.041116e+06
  -6.151407e+05  -5.131709e+06
   3.386661e+06  -2.787894e+06
   2.420330e+06  -4.395164e+05
  -2.263332e+05   4.818766e+05
  -1.725844e+06   4.284265e+05
  -1.983833e+06  -1.033127e+06
  -9.166231e+05  -3.615537e+06
   1.648747e+06  -4.048080e+06
   3.514943e+06  -2.598860e+05
   2.128226e+06   3.698787e+06
  -6.697554e+05   2.387680e+06
  -4.541732e+05  -2.092830e+06
   2.472228e+06  -2.163262e+06
   2.462039e+06   3.439074e+06
  -2.818738e+06   6.517150e+06
  -7.656535e+06   1.079527e+06
  -5.527278e+06  -7.407610e+06
   2.103901e+06  -9.107900e+06
   7.808106e+06  -2.556364e+06
   7.015249e+06   4.699335e+06
   1.613742e+06   6.203176e+06
  -3.654177e+06   2.564201e+06
  -5.210220e+06  -1.835053e+06
  -2.218112e+06  -3.709896e+06
   2.669549e+06  -2.213228e+06
   4.705508e+06   1.095929e+06
   1.940422e+06   2.927724e+06
  -1.829568e+06   1.412328e+06
  -1.679123e+06  -1.124644e+06
   1.613696e+06  -8.471514e+05
   2.636144e+06   2.173849e+06
  -9.138762e+05   3.920696e+06
  -5.179168e+06   2.004037e+06
  -5.643949e+06  -1.651630e+06
  -2.348752e+06  -4.293020e+06
   1.807413e+06  -5.373528e+06
   4.925470e+06  -4.876985e+06
   6.201950e+06  -1.847073e+06
   4.738179e+06   3.083585e+06
   9.974514e+05   6.210423e+06
  -2.068263e+06   4.771273e+06
  -1.993086e+06   1.011695e+06
  -1.011125e+05  -5.836471e+05
   3.681290e+05   7.783566e+05
  -1.248863e+06   1.841183e+06
  -2.609116e+06   4.760911e+05
  -1.987028e+06  -1.635525e+06
  -1.471690e+05  -1.918203e+06
   1.312112e+06  -1.647309e+05
   1.486691e+06   1.935657e+06
   4.104852e+03   2.797486e+06
  -2.668901e+06   1.684258e+06
  -4.486667e+06  -1.073079e+06
  -3.364116e+06  -3.766416e+06
  -4.000848e+04  -4.404899e+06
   2.375997e+06  -2.896056e+06
   2.406316e+06  -1.170245e+06
   1.939538e+06  -5.848998e+05
   2.947403e+06  -3.315758e+05
   4.268867e+06   8.981990e+05
   3.342842e+06   2.815769e+06
   1.433815e+04   4.024643e+06
  -3.175738e+06   3.713394e+06
  -4.021600e+06   2.028224e+06
  -2.562861e+06  -3.422488e+05
  -3.362510e+05  -2.100706e+06
   9.965223e+05  -1.882410e+06
   5.471434e+05   1.331195e+03
  -1.045234e+06   1.259387e+06
  -1.891622e+06   3.677620e+05
  -9.351439e+05  -1.198047e+06
   4.910467e+05  -1.053965e+06
   3.348020e+05   4.289430e+05
  -1.214164e+06   5.676989e+05
  -1.862742e+06  -1.577708e+06
  -3.553940e+05  -3.671901e+06
   2.000821e+06  -3.252560e+06
   3.295031e+06  -7.198313e+05
   3.081717e+06   1.726425e+06
   1.924878e+06   2.758372e+06
   2.826903e+05   2.462938e+06
  -1.205927e+06   1.364871e+06
  -1.501120e+06   2.026714e+05
  -4.762993e+05  -5.688944e+04
   3.260913e+05   7.458787e+05
  -4.610036e+05   1.338153e+06
  -1.936017e+06   5.347003e+05
  -2.003439e+06  -9.708600e+05
  -3.168137e+05  -1.446827e+06
   1.181800e+06  -5.091850e+05
   8.058860e+05   4.917709e+05
  -9.021908e+05   4.110896e+05
  -2.071632e+06  -4.961437e+05
  -1.529371e+06  -1.407766e+06
   3.885637e+05  -1.840679e+06
   2.296725e+06  -1.469808e+06
   2.695620e+06  -1.624168e+05
   1.163666e+06   1.294455e+06
  -9.460289e+05   1.493271e+06
  -1.579776e+06   1.700713e+05
  -2.064375e+05  -1.082148e+06
   1.507850e+06  -6.914022e+05
   1.654461e+06   8.414560e+05
   2.271258e+05   1.641318e+06
  -1.154636e+06   8.752343e+05
  -1.217658e+06  -4.158424e+05
  -1.700788e+05  -8.072908e+05
   8.170232e+05  -2.940115e+04
   7.086927e+05   1.053945e+06
  -5.811607e+05   1.381422e+06
  -1.961008e+06   4.962425e+05
  -1.964881e+06  -1.064060e+06
  -3.210516e+05  -2.042178e+06
   1.470979e+06  -1.567652e+06
   1.703109e+06  -1.347118e+05
   4.424398e+05   8.808435e+05
  -6.837409e+05   7.515030e+05
  -5.859134e+05   4.950133e+04
   1.700818e+05  -2.976985e+05
   4.541843e+05  -1.158931e+05
   1.778258e+04   7.679064e+04
  -5.052946e+05  -1.569582e+05
  -4.737350e+05  -7.436590e+05
   2.799772e+05  -1.174213e+06
   1.392645e+06  -8.240990e+05
   2.018275e+06   4.704966e+05
   1.377082e+06   1.935255e+06
  -2.800623e+05   2.334415e+06
  -1.613168e+06   1.279589e+06
  -1.600907e+06  -2.177709e+05
  -7.268039e+05  -8.704793e+05
  -2.403612e+05  -5.435176e+05
  -4.946169e+05  -1.476073e+05
  -6.721860e+05  -3.283785e+05
  -8.829922e+04  -7.849673e+05
   9.004539e+05  -8.440172e+05
   1.411767e+06  -2.359280e+05
   9.468920e+05   7.309715e+05
  -3.303632e+05   1.363035e+06
  -1.706670e+06   9.512052e+05
  -2.149666e+06  -5.503239e+05
  -1.011468e+06  -2.091994e+06
   1.098536e+06  -2.286961e+06
   2.547710e+06  -9.023816e+05
   2.252817e+06   7.705322e+05
   8.125177e+05   1.350422e+06
  -2.866416e+05   8.569884e+05
  -3.612450e+05   4.110255e+05
  -9.222809e+03   7.147621e+05
  -8.041102e+04   1.308190e+06
  -6.907701e+05   1.276508e+06
  -1.288848e+06   2.944650e+05
  -1.281354e+06  -1.075913e+06
  -4.960650e+05  -1.848894e+06
   6.343851e+05  -1.376428e+06
   1.245346e+06   5.003695e+04
   7.446099e+05   1.298197e+06
  -4.584613e+05   1.359685e+06
  -1.201443e+06   3.241280e+05
  -7.938639e+05  -7.745358e+05
   1.912774e+05  -1.097426e+06
   6.121064e+05  -7.525466e+05
   1.286205e+05  -3.810201e+05
  -4.207682e+05  -3.185450e+05
  -5.524007e+04  -3.649384e+05
   1.146465e+06  -1.703907e+05
   2.030988e+06   3.830810e+05
   1.548988e+06   1.073257e+06
  -1.093061e+05   1.435229e+06
  -1.619902e+06   1.092097e+06
  -1.811587e+06   1.935125e+05
  -7.944192e+05  -5.633396e+05
   2.845064e+05  -5.778288e+05
   5.186816e+05   4.138873e+02
   4.541443e+04   4.393026e+05
  -4.143822e+05   2.454770e+05
  -4.654632e+05  -3.404742e+05
  -2.692718e+05  -6.842115e+05
  -1.221146e+05  -4.543280e+05
  -1.375895e+05   5.690640e+04
  -2.532897e+05   2.311143e+05
  -2.545055e+05  -2.389303e+05
   1.423879e+05  -9.331056e+05
   8.986172e+05  -1.021999e+06
   1.371806e+06  -1.800452e+05
   8.579829e+05   8.934093e+05
  -4.197191e+05   1.138367e+06
  -1.248863e+06   3.493859e+05
  -7.021977e+05  -5.562502e+05
   7.111882e+05  -6.045673e+05
   1.522513e+06   1.644614e+05
   8.928924e+05   8.891361e+05
  -5.498334e+05   9.170205e+05
  -1.466790e+06   3.549601e+05
  -1.154259e+06  -2.620778e+05
  -8.916062e+04  -4.956945e+05
   6.475112e+05  -2.220584e+05
   3.846340e+05   3.068904e+05
  -5.508320e+05   5.128468e+05
  -1.142803e+06  -6.536544e+04
  -6.684201e+05  -1.130250e+06
   5.472960e+05  -1.647317e+06
   1.421850e+06  -8.586752e+05
   1.199779e+06   7.380433e+05
   1.643403e+05   1.724010e+06
  -7.481035e+05   1.207581e+06
  -8.871525e+05  -2.264075e+05
  -3.557840e+05  -1.173299e+06
   2.844516e+05  -9.143683e+05
   5.627432e+05  -5.165934e+04
   4.070177e+05   3.734815e+05
   1.152400e+05   1.311640e+05
   6.579895e+04  -8.175700e+04
   3.232534e+05   3.081429e+05
   4.943954e+05   9.527662e+05
   1.130172e+05   1.045866e+06
  -7.540413e+05   3.667800e+05
  -1.407254e+06  -4.804447e+05
  -1.174677e+06  -8.432551e+05
  -1.603333e+05  -6.894013e+05
   7.925859e+05  -3.863402e+05
   9.423829e+05  -1.385896e+05
   3.854085e+05   7.694838e+04
  -1.285050e+05   2.170881e+05
  -9.014983e+04   1.811102e+05
   1.988025e+05   7.610984e+04
   6.681219e+04   1.233647e+05
  -5.847501e+05   2.299001e+05
  -1.017270e+06  -8.531433e+03
  -4.884300e+05  -6.729209e+05
   7.747406e+05  -1.153737e+06
   1.685131e+06  -7.558825e+05
   1.422841e+06   3.940428e+05
   2.699689e+05   1.352151e+06
  -7.703400e+05   1.343414e+06
  -1.018201e+06   5.466955e+05
  -6.201298e+05  -2.029167e+05
  -1.494548e+05  -3.461735e+05
   1.726942e+04  -8.894466e+04
  -1.017123e+05  -1.893470e+04
  -2.639610e+05  -3.797882e+05
  -2.086417e+05  -7.892756e+05
   1.675689e+05  -6.665169e+05
   6.428375e+05   8.748666e+04
   7.357033e+05   8.864486e+05
   1.658485e+05   9.975600e+05
  -6.905628e+05   2.829962e+05
  -1.008463e+06  -6.528931e+05
  -3.667171e+05  -1.055612e+06
   6.805846e+05  -6.910448e+05
   1.107980e+06   5.987377e+04
   5.473661e+05   6.297628e+05
  -2.793238e+05   7.054733e+05
  -4.133010e+05   3.719712e+05
   1.873321e+05  -2.029024e+03
   6.152041e+05  -4.034688e+04
   1.587053e+05   3.065877e+05
  -8.053126e+05   6.450081e+05
  -1.271657e+06   4.826966e+05
  -7.926042e+05  -2.095919e+05
   9.157017e+04  -8.609711e+05
   5.814499e+05  -8.525978e+05
   4.586091e+05  -1.977922e+05
   7.359907e+04   4.398828e+05
  -2.204787e+05   4.469003e+05
  -3.313865e+05  -9.914662e+04
  -2.506397e+05  -5.576730e+05
   3.483978e+04  -4.539173e+05
   3.779045e+05   2.435292e+04
   4.800144e+05   3.038476e+05
   2.388392e+05   1.231839e+05
  -6.082446e+04  -1.786208e+05
  -9.082165e+04  -1.171148e+05
   7.061913e+04   3.040472e+05
   4.818016e+04   5.715122e+05
  -2.688510e+05   2.917678e+05
  -4.974804e+05  -3.047168e+05
  -2.324038e+05  -6.093683e+05
   3.691278e+05  -3.240531e+05
   6.705591e+05   2.363226e+05
   2.667851e+05   5.337550e+05
  -5.056467e+05   3.621995e+05
  -8.804772e+05  -4.937715e+04
  -4.776710e+05  -3.635829e+05
   2.804694e+05  -4.232155e+05
   6.265969e+05  -2.658350e+05
   2.791826e+05  -3.009556e+04
  -2.777804e+05   9.766298e+04
  -3.670662e+05  -1.102915e+04
   1.240828e+05  -2.442125e+05
   6.489400e+05  -2.552554e+05
