
 $NMID
 id='ANONYMOUS ', fmtdat='(2E16.6)'
 volume=1.0
 tramp=1.0
 $END
   4.346057e+07  -4.105374e+05
   2.692861e+07   2.551792e+07
  -4.442810e+06   2.914678e+07
  -2.074906e+07   1.276329e+07
  -1.333824e+07  -3.995009e+06
   1.847281e+06  -7.347822e+06
   7.830210e+06  -1.110648e+04
   3.038956e+06   7.426971e+06
  -4.226444e+06   8.130739e+06
  -7.571129e+06   2.308815e+06
  -5.751047e+06  -4.893185e+06
  -7.418616e+05  -7.093233e+06
   3.270242e+06  -2.110574e+06
   2.317342e+06   4.798781e+06
  -2.797053e+06   5.791949e+06
  -6.318133e+06  -6.327962e+05
  -3.875084e+06  -7.975430e+06
   2.658001e+06  -9.461411e+06
   7.855042e+06  -4.750508e+06
   8.386781e+06   1.672213e+06
   4.896510e+06   5.790720e+06
   3.911243e+05   6.332423e+06
  -1.829050e+06   4.321829e+06
  -5.743260e+05   2.316439e+06
   1.432970e+06   2.491980e+06
  -1.862404e+04   3.990414e+06
  -4.990820e+06   3.579702e+06
  -8.251056e+06   8.300027e+04
  -5.661152e+06  -3.570718e+06
   2.473237e+05  -4.069546e+06
   3.507941e+06  -1.763568e+06
   2.009420e+06   5.592142e+05
  -1.172517e+06   1.231756e+06
  -2.663104e+06   2.796004e+05
  -1.976855e+06  -1.805359e+06
  -1.741178e+05  -3.650232e+06
   1.662240e+06  -2.956603e+06
   2.242571e+06   4.551997e+05
   9.279060e+05   2.853343e+06
  -6.268077e+05   1.001196e+06
  -2.475718e+02  -2.511052e+06
   2.137766e+06  -2.129952e+06
   2.133285e+06   2.407059e+06
  -1.450913e+06   4.853629e+06
  -4.975656e+06   1.011653e+06
  -3.967688e+06  -5.138343e+06
   1.203959e+06  -6.561925e+06
   5.778679e+06  -1.978980e+06
   5.891553e+06   3.481042e+06
   1.891839e+06   5.010677e+06
  -2.805834e+06   2.537838e+06
  -4.645642e+06  -9.629212e+05
  -2.385729e+06  -2.779787e+06
   1.742452e+06  -1.924500e+06
   3.679116e+06   5.293644e+05
   1.726904e+06   2.063917e+06
  -1.312391e+06   1.139658e+06
  -1.587675e+06  -7.876196e+05
   7.873658e+05  -9.816764e+05
   2.060217e+06   9.026528e+05
   3.260035e+04   2.422695e+06
  -3.190712e+06   1.680528e+06
  -4.173628e+06  -6.639301e+05
  -2.031843e+06  -2.972196e+06
   1.516607e+06  -4.326328e+06
   4.383872e+06  -4.010888e+06
   5.229929e+06  -1.320307e+06
   3.646989e+06   2.749132e+06
   7.082969e+05   5.188586e+06
  -1.351626e+06   4.130317e+06
  -1.297850e+06   1.392638e+06
  -3.535804e+05   1.895935e+05
  -5.052223e+05   9.633702e+05
  -1.826880e+06   1.310448e+06
  -2.583982e+06  -2.047025e+05
  -1.659313e+06  -2.073660e+06
   2.464932e+05  -2.090423e+06
   1.670217e+06  -1.181038e+05
   1.617973e+06   2.061680e+06
  -7.888156e+04   2.700578e+06
  -2.501348e+06   1.320068e+06
  -3.755137e+06  -1.198394e+06
  -2.550447e+06  -3.173181e+06
   8.725061e+04  -3.357991e+06
   1.765454e+06  -2.122370e+06
   1.683672e+06  -9.890530e+05
   1.484517e+06  -7.421996e+05
   2.593750e+06  -5.772634e+05
   3.900972e+06   5.568781e+05
   3.182247e+06   2.419272e+06
   1.721499e+05   3.747311e+06
  -2.932040e+06   3.564900e+06
  -3.865783e+06   1.847422e+06
  -2.383589e+06  -5.304291e+05
  -8.543219e+04  -2.086393e+06
   1.126613e+06  -1.688596e+06
   4.953399e+05   8.905142e+04
  -1.036057e+06   1.171205e+06
  -1.695355e+06   3.539770e+05
  -7.668196e+05  -1.064147e+06
   5.223902e+05  -1.025531e+06
   4.977241e+05   3.362080e+05
  -8.095023e+05   8.092917e+05
  -1.705993e+06  -7.884282e+05
  -9.421595e+05  -2.924924e+06
   9.917583e+05  -3.292087e+06
   2.706286e+06  -1.459743e+06
   3.235709e+06   1.044760e+06
   2.359575e+06   2.564259e+06
   5.088404e+05   2.518102e+06
  -1.178856e+06   1.366524e+06
  -1.480638e+06   1.806200e+05
  -4.535660e+05  -3.991564e+04
   3.380673e+05   6.846619e+05
  -3.308770e+05   1.192714e+06
  -1.668647e+06   5.399709e+05
  -1.837218e+06  -7.291730e+05
  -4.018139e+05  -1.243191e+06
   1.053246e+06  -5.562334e+05
   8.799414e+05   4.052012e+05
  -7.352754e+05   5.835927e+05
  -2.092912e+06  -1.589006e+05
  -1.765244e+06  -1.235724e+06
   1.399606e+05  -1.918149e+06
   2.130076e+06  -1.618046e+06
   2.567918e+06  -2.946244e+05
   1.120916e+06   1.120275e+06
  -8.074359e+05   1.330035e+06
  -1.365079e+06   1.715675e+05
  -1.562547e+05  -9.548490e+05
   1.375724e+06  -6.744971e+05
   1.592925e+06   6.752754e+05
   3.826322e+05   1.512255e+06
  -9.489174e+05   9.694501e+05
  -1.179673e+06  -2.037274e+05
  -2.879606e+05  -6.940979e+05
   6.964797e+05  -6.870142e+04
   6.691410e+05   9.537560e+05
  -5.367977e+05   1.302706e+06
  -1.849943e+06   4.897179e+05
  -1.868307e+06  -9.649633e+05
  -3.658072e+05  -1.897308e+06
   1.291963e+06  -1.521278e+06
   1.579007e+06  -2.289263e+05
   4.937194e+05   7.841798e+05
  -5.880165e+05   7.611798e+05
  -6.181130e+05   7.066562e+04
   7.840859e+04  -3.961196e+05
   5.029422e+05  -2.594113e+05
   2.148499e+05   7.859137e+04
  -3.627522e+05   2.132297e+04
  -5.136162e+05  -5.447739e+05
   1.309967e+05  -1.083629e+06
   1.248855e+06  -8.489804e+05
   1.920791e+06   3.576505e+05
   1.359658e+06   1.777481e+06
  -1.856522e+05   2.248220e+06
  -1.490436e+06   1.360306e+06
  -1.608122e+06  -7.013669e+04
  -8.675795e+05  -8.668998e+05
  -3.173601e+05  -7.074289e+05
  -3.843376e+05  -2.646576e+05
  -5.136451e+05  -2.585972e+05
  -8.013810e+04  -6.599829e+05
   7.808265e+05  -8.498676e+05
   1.348330e+06  -3.456817e+05
   1.023308e+06   6.728811e+05
  -1.895348e+05   1.406238e+06
  -1.589570e+06   1.042530e+06
  -2.102277e+06  -4.202292e+05
  -1.094317e+06  -1.921028e+06
   8.648311e+05  -2.188081e+06
   2.302347e+06  -1.007157e+06
   2.202385e+06   5.376356e+05
   9.698545e+05   1.228892e+06
  -1.429972e+05   9.422516e+05
  -4.045000e+05   5.344091e+05
  -1.533820e+05   6.866262e+05
  -1.285019e+05   1.153391e+06
  -5.953323e+05   1.154212e+06
  -1.165002e+06   2.898170e+05
  -1.229168e+06  -9.946669e+05
  -5.188605e+05  -1.749849e+06
   5.734285e+05  -1.331405e+06
   1.193468e+06  -1.681162e+04
   7.739626e+05   1.155384e+06
  -3.106913e+05   1.288496e+06
  -1.024558e+06   4.317475e+05
  -7.492067e+05  -5.636132e+05
   5.413868e+04  -9.531220e+05
   4.251562e+05  -7.361580e+05
   4.988242e+04  -4.118966e+05
  -3.898445e+05  -3.215530e+05
  -4.965912e+04  -3.594670e+05
   1.037000e+06  -2.103020e+05
   1.876042e+06   2.795524e+05
   1.500261e+06   9.248056e+05
   1.466723e+04   1.296091e+06
  -1.413314e+06   1.051147e+06
  -1.673752e+06   2.976274e+05
  -7.892151e+05  -3.983264e+05
   2.157777e+05  -5.028587e+05
   4.586460e+05  -5.643614e+04
   1.556445e+04   3.567739e+05
  -4.242972e+05   2.317189e+05
  -4.408293e+05  -3.139013e+05
  -2.001119e+05  -6.765534e+05
  -5.580069e+04  -4.439367e+05
  -1.313370e+05   1.146348e+05
  -2.864642e+05   3.038851e+05
  -2.634154e+05  -2.088602e+05
   1.433815e+05  -9.250917e+05
   8.222396e+05  -9.840459e+05
   1.213087e+06  -1.470707e+05
   7.497743e+05   8.400948e+05
  -3.755199e+05   1.021147e+06
  -1.134601e+06   2.851265e+05
  -6.761071e+05  -5.368349e+05
   6.360666e+05  -6.117919e+05
   1.486772e+06   5.893986e+04
   9.846405e+05   7.843806e+05
  -4.073435e+05   9.494262e+05
  -1.395632e+06   5.027606e+05
  -1.176052e+06  -1.437130e+05
  -1.456243e+05  -4.843553e+05
   5.962336e+05  -2.704249e+05
   3.469449e+05   2.586280e+05
  -5.539360e+05   4.707435e+05
  -1.092724e+06  -9.185377e+04
  -5.996652e+05  -1.101850e+06
   5.697166e+05  -1.568896e+06
   1.386110e+06  -8.089254e+05
   1.168553e+06   7.068647e+05
   1.949595e+05   1.669784e+06
  -6.809618e+05   1.223975e+06
  -8.675461e+05  -1.389386e+05
  -4.286955e+05  -1.103182e+06
   1.732290e+05  -9.176640e+05
   5.148091e+05  -9.279507e+04
   4.538004e+05   3.530543e+05
   1.727116e+05   1.340640e+05
   3.719513e+04  -9.548969e+04
   2.340583e+05   2.578247e+05
   4.696751e+05   8.887074e+05
   2.079821e+05   1.006957e+06
  -6.349734e+05   3.773135e+05
  -1.378420e+06  -4.235702e+05
  -1.217730e+06  -7.705828e+05
  -1.795066e+05  -6.438263e+05
   8.089475e+05  -3.927869e+05
   9.211448e+05  -1.828168e+05
   3.210211e+05   3.540642e+04
  -1.406995e+05   2.086191e+05
  -1.146702e+04   2.022813e+05
   2.682382e+05   9.871829e+04
   3.956087e+04   1.244149e+05
  -6.359590e+05   2.149019e+05
  -9.701300e+05  -9.685670e+03
  -3.767505e+05  -6.356976e+05
   7.930681e+05  -1.087392e+06
   1.560241e+06  -7.005606e+05
   1.289493e+06   4.012272e+05
   2.577114e+05   1.308136e+06
  -6.977940e+05   1.277735e+06
  -9.707376e+05   4.947705e+05
  -6.131875e+05  -2.218715e+05
  -1.188897e+05  -3.314858e+05
   8.055673e+04  -5.058459e+04
  -6.991909e+04   2.895447e+04
  -2.907096e+05  -3.345537e+05
  -2.428481e+05  -7.497857e+05
   1.649685e+05  -6.287495e+05
   6.369765e+05   1.187978e+05
   6.839368e+05   8.890805e+05
   9.801707e+04   9.550740e+05
  -7.066290e+05   2.209188e+05
  -9.620875e+05  -6.747520e+05
  -3.229247e+05  -1.008330e+06
   6.589545e+05  -6.243104e+05
   1.032460e+06   6.400095e+04
   4.910156e+05   5.540012e+05
  -2.593359e+05   6.190507e+05
  -3.370886e+05   3.424714e+05
   2.429922e+05   1.223451e+04
   6.067110e+05  -3.965665e+04
   1.344216e+05   2.822461e+05
  -7.617410e+05   6.395272e+05
  -1.155328e+06   5.227748e+05
  -6.975105e+05  -1.476807e+05
   8.312163e+04  -8.035380e+05
   4.945032e+05  -7.956744e+05
   3.810556e+05  -1.456265e+05
   4.718975e+04   4.496371e+05
  -2.204518e+05   3.998837e+05
  -3.286155e+05  -1.445831e+05
  -2.395481e+05  -5.346258e+05
   4.751643e+04  -3.874716e+05
   3.630396e+05   4.266231e+04
   4.411878e+05   2.488228e+05
   2.265021e+05   8.072831e+04
  -2.834524e+04  -1.304720e+05
  -7.814572e+04  -2.213015e+04
  -8.253639e+02   3.343544e+05
  -6.140021e+04   4.988753e+05
  -2.998428e+05   1.865286e+05
  -4.148291e+05  -3.596979e+05
  -1.333712e+05  -6.009987e+05
   3.813226e+05  -2.908491e+05
   6.129744e+05   2.596740e+05
   2.360190e+05   5.343183e+05
  -4.650852e+05   3.432964e+05
  -8.148820e+05  -6.578015e+04
  -4.459485e+05  -3.464620e+05
   2.686923e+05  -3.674986e+05
   5.885465e+05  -2.093626e+05
   2.249085e+05  -1.844245e+04
  -3.311376e+05   5.848673e+04
  -3.828782e+05  -6.614767e+04
   1.623439e+05  -2.781129e+05
   7.021033e+05  -2.583771e+05
