
 $NMID
 id='ANONYMOUS ', fmtdat='(2E16.6)'
 volume=1.0
 tramp=1.0
 $END
   2.619267e+07  -8.422025e+05
   1.734586e+07   1.335367e+07
  -8.049471e+05   1.716520e+07
  -1.170108e+07   9.791944e+06
  -8.912377e+06  -3.568928e+05
   8.628477e+04  -4.628330e+06
   5.047333e+06  -1.386863e+06
   3.117084e+06   4.293370e+06
  -1.721943e+06   6.216798e+06
  -4.725737e+06   2.500694e+06
  -3.983176e+06  -3.095181e+06
  -6.233497e+05  -4.930633e+06
   2.242552e+06  -1.270928e+06
   1.821911e+06   3.745899e+06
  -1.513292e+06   4.551021e+06
  -4.151286e+06   1.966396e+05
  -2.981137e+06  -4.947482e+06
   1.225750e+06  -6.219911e+06
   4.824056e+06  -3.143631e+06
   5.130306e+06   1.141930e+06
   2.642738e+06   3.522306e+06
   1.589616e+04   3.331417e+06
  -5.114400e+05   2.092128e+06
   8.914239e+05   1.720507e+06
   1.711760e+06   2.684372e+06
  -3.105445e+05   3.515519e+06
  -4.190168e+06   2.438124e+06
  -6.122227e+06  -3.731606e+05
  -3.740052e+06  -2.702860e+06
   7.809927e+05  -2.692945e+06
   3.032531e+06  -7.543564e+05
   1.363013e+06   1.154421e+06
  -1.708051e+06   1.481304e+06
  -2.903692e+06   4.080355e+04
  -1.611092e+06  -2.090755e+06
   4.030974e+05  -3.095657e+06
   1.396577e+06  -1.764530e+06
   1.001097e+06   8.184644e+05
  -3.861568e+03   1.797602e+06
  -4.296344e+05  -8.993132e+04
   3.689939e+05  -2.398468e+06
   1.626827e+06  -1.789852e+06
   1.633677e+06   1.363458e+06
  -2.714992e+05   3.086743e+06
  -2.443324e+06   9.235189e+05
  -2.408282e+06  -2.805104e+06
   3.449956e+05  -3.922155e+06
   3.551456e+06  -1.351098e+06
   4.302104e+06   2.156863e+06
   1.812970e+06   3.516333e+06
  -1.854035e+06   2.166030e+06
  -3.628244e+06  -2.582692e+05
  -2.174652e+06  -1.785804e+06
   8.652700e+05  -1.482713e+06
   2.474709e+06   5.135823e+04
   1.358326e+06   1.184819e+06
  -7.671046e+05   8.028275e+05
  -1.304567e+06  -4.590921e+05
   1.340906e+05  -9.708327e+05
   1.438406e+06  -9.963514e+04
   7.323596e+05   1.114757e+06
  -1.380561e+06   1.300916e+06
  -2.624362e+06   1.408143e+05
  -1.566525e+06  -1.651360e+06
   1.089541e+06  -2.985941e+06
   3.377017e+06  -2.816586e+06
   3.793694e+06  -7.634653e+05
   2.361104e+06   2.100625e+06
   4.057521e+05   3.730658e+06
  -6.824022e+05   3.122354e+06
  -6.804069e+05   1.476713e+06
  -5.263117e+05   6.665814e+05
  -1.049901e+06   8.851933e+05
  -1.936532e+06   6.961688e+05
  -2.142765e+06  -6.708220e+05
  -1.137654e+06  -2.069022e+06
   5.168565e+05  -1.871970e+06
   1.666552e+06  -2.264743e+04
   1.433544e+06   1.876322e+06
  -1.540572e+05   2.233675e+06
  -2.016767e+06   8.573569e+05
  -2.687501e+06  -1.111895e+06
  -1.623415e+06  -2.290390e+06
   1.378417e+05  -2.150261e+06
   1.073243e+06  -1.305462e+06
   9.510091e+05  -7.470351e+05
   9.808432e+05  -7.501243e+05
   2.000548e+06  -6.466595e+05
   3.098352e+06   2.745563e+05
   2.602594e+06   1.831513e+06
   2.203156e+05   3.025873e+06
  -2.379315e+06   2.920281e+06
  -3.210167e+06   1.412892e+06
  -1.894473e+06  -6.011909e+05
   1.247172e+05  -1.756791e+06
   1.059993e+06  -1.286906e+06
   3.799870e+05   1.384625e+05
  -8.889085e+05   9.261867e+05
  -1.317966e+06   2.822150e+05
  -5.345863e+05  -8.170099e+05
   4.786795e+05  -8.463340e+05
   5.354905e+05   2.419381e+05
  -4.446778e+05   8.689499e+05
  -1.391138e+06  -1.534204e+05
  -1.210244e+06  -2.043974e+06
   2.114708e+05  -2.890502e+06
   1.981204e+06  -1.749035e+06
   2.898691e+06   4.847953e+05
   2.287823e+06   2.119163e+06
   5.497875e+05   2.210044e+06
  -1.007443e+06   1.154406e+06
  -1.251740e+06   1.208731e+05
  -3.726118e+05  -2.701519e+04
   2.910113e+05   5.486956e+05
  -2.017991e+05   9.236327e+05
  -1.251602e+06   4.586447e+05
  -1.461368e+06  -4.734940e+05
  -3.961891e+05  -9.339575e+05
   8.229563e+05  -4.995021e+05
   8.006055e+05   3.049930e+05
  -5.354637e+05   6.155526e+05
  -1.822340e+06   6.153140e+04
  -1.661501e+06  -9.792007e+05
  -1.696472e+04  -1.705106e+06
   1.738570e+06  -1.463854e+06
   2.119359e+06  -3.143933e+05
   9.243026e+05   8.510052e+05
  -6.031444e+05   1.022983e+06
  -1.022436e+06   1.428513e+05
  -9.428832e+04  -7.276994e+05
   1.093556e+06  -5.538337e+05
   1.319942e+06   4.821245e+05
   4.195099e+05   1.219057e+06
  -6.902451e+05   8.914764e+05
  -9.919647e+05  -4.428151e+04
  -3.227401e+05  -5.271340e+05
   5.169703e+05  -8.233166e+04
   5.375253e+05   7.544186e+05
  -4.422844e+05   1.055111e+06
  -1.511950e+06   3.952459e+05
  -1.523738e+06  -7.769363e+05
  -3.260157e+05  -1.530464e+06
   1.000019e+06  -1.261813e+06
   1.273448e+06  -2.460345e+05
   4.515762e+05   6.136618e+05
  -4.482977e+05   6.540474e+05
  -5.512705e+05   6.384475e+04
   1.770455e+04  -4.094347e+05
   4.759192e+05  -3.078759e+05
   3.153297e+05   8.471770e+04
  -2.260927e+05   1.431934e+05
  -4.717103e+05  -3.409423e+05
   2.021615e+04  -8.729038e+05
   9.832980e+05  -7.345037e+05
   1.577625e+06   2.494172e+05
   1.135668e+06   1.429433e+06
  -1.197320e+05   1.865799e+06
  -1.213658e+06   1.204159e+06
  -1.387036e+06   1.778988e+04
  -8.249902e+05  -7.585055e+05
  -3.034419e+05  -7.240276e+05
  -2.430930e+05  -3.033224e+05
  -3.330276e+05  -1.708906e+05
  -6.228276e+04  -4.805467e+05
   5.983866e+05  -7.277258e+05
   1.121571e+06  -3.554703e+05
   9.211451e+05   5.547905e+05
  -8.870455e+04   1.237604e+06
  -1.299459e+06   9.384520e+05
  -1.766869e+06  -2.968779e+05
  -9.753867e+05  -1.545981e+06
   6.047244e+05  -1.805481e+06
   1.821488e+06  -9.152992e+05
   1.854668e+06   3.287008e+05
   9.256223e+05   9.907397e+05
  -4.344236e+04   8.695694e+05
  -3.898365e+05   5.315646e+05
  -2.357722e+05   5.563038e+05
  -1.478644e+05   8.759594e+05
  -4.518877e+05   9.014135e+05
  -9.151960e+05   2.365208e+05
  -1.006416e+06  -8.081763e+05
  -4.411110e+05  -1.436350e+06
   4.638828e+05  -1.102894e+06
   9.888242e+05  -4.642122e+04
   6.742087e+05   9.030381e+05
  -1.787192e+05   1.057770e+06
  -7.686112e+05   4.386130e+05
  -6.156465e+05  -3.466729e+05
  -4.238612e+04  -7.249127e+05
   2.462130e+05  -6.238090e+05
  -2.979830e+03  -3.768296e+05
  -3.079291e+05  -2.800149e+05
  -3.433364e+04  -3.038966e+05
   8.176572e+05  -1.996409e+05
   1.501300e+06   1.846042e+05
   1.245670e+06   7.072693e+05
   8.708340e+04   1.021452e+06
  -1.079837e+06   8.642129e+05
  -1.347327e+06   3.104546e+05
  -6.755297e+05  -2.394357e+05
   1.400920e+05  -3.805659e+05
   3.557768e+05  -8.414939e+04
  -6.141061e+03   2.477015e+05
  -3.712067e+05   1.826800e+05
  -3.576073e+05  -2.544379e+05
  -1.160634e+05  -5.711313e+05
   2.164306e+03  -3.687824e+05
  -1.132129e+05   1.355670e+05
  -2.759407e+05   3.026287e+05
  -2.303995e+05  -1.626467e+05
   1.350944e+05  -7.833259e+05
   6.621994e+05  -8.089776e+05
   9.297340e+05  -9.697119e+04
   5.598480e+05   6.852205e+05
  -2.974664e+05   7.912801e+05
  -8.922394e+05   1.924045e+05
  -5.541417e+05  -4.528696e+05
   5.013621e+05  -5.237691e+05
   1.251863e+06  -3.177992e+03
   8.990543e+05   6.184487e+05
  -2.667371e+05   8.364472e+05
  -1.160330e+06   5.148016e+05
  -1.024812e+06  -6.024796e+04
  -1.566010e+05  -4.115963e+05
   4.814364e+05  -2.586588e+05
   2.704445e+05   1.908230e+05
  -4.790456e+05   3.661308e+05
  -8.968533e+05  -1.078573e+05
  -4.530328e+05  -9.258501e+05
   5.177154e+05  -1.278435e+06
   1.167608e+06  -6.413802e+05
   9.697672e+05   5.963601e+05
   1.683748e+05   1.394388e+06
  -5.538445e+05   1.051724e+06
  -7.315363e+05  -7.023591e+04
  -4.048457e+05  -9.055495e+05
   8.579384e+04  -7.907128e+05
   4.114405e+05  -1.029341e+05
   4.156135e+05   2.969126e+05
   1.840958e+05   1.223878e+05
   1.462381e+04  -9.204475e+04
   1.396556e+05   1.840228e+05
   3.766809e+05   7.207686e+05
   2.304544e+05   8.425785e+05
  -4.680378e+05   3.282933e+05
  -1.155946e+06  -3.401024e+05
  -1.063409e+06  -6.282590e+05
  -1.605305e+05  -5.229787e+05
   7.076199e+05  -3.281448e+05
   7.777838e+05  -1.749606e+05
   2.331080e+05   2.592568e+03
  -1.305555e+05   1.698469e+05
   3.915218e+04   1.917652e+05
   2.730857e+05   1.075120e+05
   1.368681e+04   1.059204e+05
  -5.796551e+05   1.618374e+05
  -7.968260e+05  -1.910281e+04
  -2.406243e+05  -5.160980e+05
   7.000802e+05  -8.725617e+05
   1.254721e+06  -5.482674e+05
   1.006159e+06   3.563937e+05
   1.972758e+05   1.090546e+06
  -5.602988e+05   1.042616e+06
  -8.007928e+05   3.777693e+05
  -5.150213e+05  -2.100948e+05
  -7.744919e+04  -2.730464e+05
   1.096689e+05  -1.241953e+04
  -4.174757e+04   5.795894e+04
  -2.646411e+05  -2.609709e+05
  -2.227999e+05  -6.193150e+05
   1.452616e+05  -5.095870e+05
   5.365935e+05   1.307197e+05
   5.373590e+05   7.670968e+05
   2.808135e+04   7.843074e+05
  -6.134288e+05   1.366007e+05
  -7.803214e+05  -6.009322e+05
  -2.359819e+05  -8.311288e+05
   5.525172e+05  -4.810729e+05
   8.301366e+05   6.650280e+04
   3.788996e+05   4.254454e+05
  -2.110534e+05   4.685606e+05
  -2.395420e+05   2.729008e+05
   2.439170e+05   2.663300e+04
   5.130870e+05  -2.588958e+04
   9.630270e+04   2.250426e+05
  -6.295604e+05   5.351788e+05
  -9.181644e+05   4.653301e+05
  -5.338160e+05  -8.791092e+04
   7.242173e+04  -6.471994e+05
   3.710338e+05  -6.402663e+05
   2.721284e+05  -8.913074e+04
   1.601982e+04   3.896279e+05
  -1.906923e+05   3.071086e+05
  -2.741259e+05  -1.581978e+05
  -1.915101e+05  -4.437008e+05
   5.012440e+04  -2.849402e+05
   2.984051e+05   5.263868e+04
   3.508772e+05   1.790282e+05
   1.867620e+05   4.266941e+04
  -3.633201e+03  -7.747765e+04
  -6.383478e+04   4.463947e+04
  -5.501478e+04   3.015055e+05
  -1.281504e+05   3.697291e+05
  -2.728678e+05   8.275804e+04
  -2.906504e+05  -3.445417e+05
  -3.996534e+04  -5.033816e+05
   3.357271e+05  -2.203376e+05
   4.800553e+05   2.420737e+05
   1.738145e+05   4.580488e+05
  -3.734448e+05   2.768980e+05
  -6.501357e+05  -7.397507e+04
  -3.560732e+05  -2.884057e+05
   2.230220e+05  -2.736360e+05
   4.764188e+05  -1.354515e+05
   1.551719e+05  -8.349974e+03
  -3.169993e+05   1.589964e+04
  -3.333274e+05  -9.957554e+04
   1.701685e+05  -2.557597e+05
   6.390359e+05  -2.101595e+05
