
 $NMID
 id='ANONYMOUS ', fmtdat='(2E16.6)'
 volume=1.0
 tramp=1.0
 $END
   5.860887e+07   4.781452e+05
   3.464395e+07   3.708494e+07
  -8.559594e+06   3.969296e+07
  -2.896300e+07   1.440568e+07
  -1.675598e+07  -7.997325e+06
   3.808078e+06  -9.591557e+06
   1.006356e+07   1.742815e+06
   2.429832e+06   1.018660e+07
  -6.704452e+06   9.239148e+06
  -9.956600e+06   1.687092e+06
  -7.093586e+06  -6.421398e+06
  -7.812769e+05  -8.744211e+06
   4.083144e+06  -2.852000e+06
   2.616955e+06   5.385531e+06
  -3.960730e+06   6.452932e+06
  -8.054777e+06  -1.600206e+06
  -4.374561e+06  -1.057334e+07
   4.093281e+06  -1.208086e+07
   1.050744e+07  -6.013981e+06
   1.122507e+07   2.140341e+06
   6.961358e+06   7.827957e+06
   7.334777e+05   9.173529e+06
  -3.270459e+06   6.431250e+06
  -2.327167e+06   2.642702e+06
   9.208813e+05   1.836201e+06
   3.914736e+05   4.005773e+06
  -5.253116e+06   4.515909e+06
  -9.713700e+06   6.627940e+05
  -7.239483e+06  -4.138024e+06
  -4.554033e+05  -5.224773e+06
   3.603870e+06  -2.803899e+06
   2.565621e+06  -2.726278e+05
  -2.851297e+05   7.860779e+05
  -1.971579e+06   5.997294e+05
  -2.192728e+06  -1.166057e+06
  -9.063832e+05  -3.837316e+06
   1.769014e+06  -4.029024e+06
   3.500803e+06  -3.524163e+04
   1.948633e+06   3.792540e+06
  -8.290417e+05   2.221446e+06
  -5.018035e+05  -2.298368e+06
   2.443709e+06  -2.244634e+06
   2.422310e+06   3.349428e+06
  -2.735761e+06   6.298489e+06
  -7.398060e+06   9.039771e+05
  -5.279360e+06  -7.322974e+06
   2.148905e+06  -8.861323e+06
   7.713537e+06  -2.435950e+06
   6.984439e+06   4.615928e+06
   1.704402e+06   6.108545e+06
  -3.557477e+06   2.617299e+06
  -5.201663e+06  -1.682189e+06
  -2.285823e+06  -3.582559e+06
   2.571435e+06  -2.170964e+06
   4.620626e+06   1.055261e+06
   1.918215e+06   2.849028e+06
  -1.797781e+06   1.382981e+06
  -1.700526e+06  -1.069559e+06
   1.470212e+06  -8.222666e+05
   2.486944e+06   2.025716e+06
  -8.862703e+05   3.657109e+06
  -4.979081e+06   1.850742e+06
  -5.458323e+06  -1.596311e+06
  -2.284261e+06  -4.179685e+06
   1.833784e+06  -5.364409e+06
   4.997697e+06  -4.927111e+06
   6.263671e+06  -1.826109e+06
   4.726052e+06   3.167461e+06
   9.860231e+05   6.250708e+06
  -1.977908e+06   4.763645e+06
  -1.851148e+06   1.066512e+06
  -5.461264e+04  -4.203417e+05
   2.648935e+05   9.575893e+05
  -1.428889e+06   1.922401e+06
  -2.781356e+06   4.300163e+05
  -2.102486e+06  -1.769688e+06
  -1.558269e+05  -2.071741e+06
   1.426555e+06  -2.511164e+05
   1.632738e+06   1.966241e+06
   4.823068e+04   2.888104e+06
  -2.739502e+06   1.719229e+06
  -4.550558e+06  -1.125970e+06
  -3.336363e+06  -3.819601e+06
   2.518029e+04  -4.378579e+06
   2.384741e+06  -2.820566e+06
   2.351244e+06  -1.129891e+06
   1.882357e+06  -6.158448e+05
   2.936080e+06  -4.118803e+05
   4.317325e+06   8.099978e+05
   3.440306e+06   2.775586e+06
   1.073591e+05   4.085970e+06
  -3.164307e+06   3.857703e+06
  -4.104465e+06   2.144795e+06
  -2.654711e+06  -3.486119e+05
  -3.540837e+05  -2.198565e+06
   1.035003e+06  -1.957354e+06
   5.704343e+05   9.915133e+03
  -1.058485e+06   1.312415e+06
  -1.912191e+06   3.995007e+05
  -9.482422e+05  -1.214414e+06
   4.893173e+05  -1.104080e+06
   3.745115e+05   3.911655e+05
  -1.127297e+06   6.033699e+05
  -1.818699e+06  -1.457730e+06
  -4.609102e+05  -3.560208e+06
   1.789618e+06  -3.272753e+06
   3.168226e+06  -8.804777e+05
   3.159284e+06   1.555827e+06
   2.114950e+06   2.702348e+06
   4.066806e+05   2.516486e+06
  -1.207027e+06   1.438950e+06
  -1.547421e+06   2.414034e+05
  -4.877302e+05  -4.687044e+04
   3.500639e+05   7.490466e+05
  -4.383230e+05   1.348961e+06
  -1.936748e+06   5.652515e+05
  -2.030598e+06  -9.300540e+05
  -3.526757e+05  -1.436664e+06
   1.176055e+06  -5.480579e+05
   8.468525e+05   4.583176e+05
  -8.640359e+05   4.544453e+05
  -2.107288e+06  -3.931796e+05
  -1.635916e+06  -1.348033e+06
   2.956568e+05  -1.890402e+06
   2.283325e+06  -1.582514e+06
   2.740213e+06  -2.439846e+05
   1.203946e+06   1.282285e+06
  -9.374451e+05   1.518367e+06
  -1.589347e+06   1.860606e+05
  -2.142404e+05  -1.097184e+06
   1.518510e+06  -7.319377e+05
   1.696820e+06   8.045071e+05
   2.884116e+05   1.644064e+06
  -1.117909e+06   9.230318e+05
  -1.231502e+06  -3.629352e+05
  -2.034774e+05  -7.907486e+05
   8.138839e+05  -4.132739e+04
   7.368645e+05   1.057257e+06
  -5.682984e+05   1.420801e+06
  -1.994306e+06   5.455971e+05
  -2.026154e+06  -1.045135e+06
  -3.718995e+05  -2.069636e+06
   1.453836e+06  -1.624368e+06
   1.721197e+06  -1.832935e+05
   4.769744e+05   8.735312e+05
  -6.671247e+05   7.831977e+05
  -6.075361e+05   7.654370e+04
   1.351964e+05  -3.158441e+05
   4.530185e+05  -1.655938e+05
   5.687088e+04   4.894723e+04
  -4.728808e+05  -1.383563e+05
  -4.858373e+05  -7.140450e+05
   2.456410e+05  -1.181743e+06
   1.388267e+06  -8.705664e+05
   2.063683e+06   4.281569e+05
   1.446843e+06   1.938768e+06
  -2.245466e+05   2.391381e+06
  -1.600194e+06   1.362345e+06
  -1.641012e+06  -1.548905e+05
  -8.008213e+05  -8.603240e+05
  -3.021499e+05  -5.761470e+05
  -5.120020e+05  -1.792496e+05
  -6.625520e+05  -3.334350e+05
  -9.014016e+04  -7.873235e+05
   8.869477e+05  -8.785692e+05
   1.425540e+06  -2.902717e+05
   1.002987e+06   7.100038e+05
  -2.742925e+05   1.404866e+06
  -1.704815e+06   1.026456e+06
  -2.208504e+06  -4.966771e+05
  -1.089818e+06  -2.092326e+06
   1.047517e+06  -2.339260e+06
   2.549153e+06  -9.819676e+05
   2.305370e+06   7.019223e+05
   8.871327e+05   1.328771e+06
  -2.339534e+05   8.882858e+05
  -3.525933e+05   4.645160e+05
  -2.283937e+04   7.561752e+05
  -8.206492e+04   1.333295e+06
  -6.819724e+05   1.300651e+06
  -1.302701e+06   3.182494e+05
  -1.330969e+06  -1.072208e+06
  -5.503146e+05  -1.877255e+06
   6.156600e+05  -1.422395e+06
   1.269253e+06   1.444962e+04
   7.876014e+05   1.291672e+06
  -4.216544e+05   1.382171e+06
  -1.184056e+06   3.599363e+05
  -8.002934e+05  -7.471728e+05
   1.653853e+05  -1.091497e+06
   5.803212e+05  -7.624185e+05
   1.032433e+05  -3.914707e+05
  -4.378893e+05  -3.243793e+05
  -6.428111e+04  -3.760611e+05
   1.154658e+06  -1.963369e+05
   2.065122e+06   3.482706e+05
   1.597810e+06   1.049288e+06
  -7.346584e+04   1.441478e+06
  -1.614037e+06   1.131908e+06
  -1.826685e+06   2.460431e+05
  -8.101219e+05  -5.311519e+05
   2.778291e+05  -5.801151e+05
   5.163686e+05  -1.452199e+04
   3.951518e+04   4.423175e+05
  -4.269451e+05   2.635929e+05
  -4.816893e+05  -3.392512e+05
  -2.815599e+05  -7.104827e+05
  -1.236595e+05  -4.752649e+05
  -1.309884e+05   7.240961e+04
  -2.511502e+05   2.643926e+05
  -2.658670e+05  -2.337211e+05
   1.253506e+05  -9.673785e+05
   8.945233e+05  -1.060771e+06
   1.388682e+06  -1.903274e+05
   8.812615e+05   9.086625e+05
  -4.145933e+05   1.158956e+06
  -1.271057e+06   3.634002e+05
  -7.328413e+05  -5.579039e+05
   7.048273e+05  -6.336975e+05
   1.556561e+06   1.162529e+05
   9.482527e+05   8.628112e+05
  -5.130123e+05   9.472960e+05
  -1.472071e+06   4.224896e+05
  -1.186902e+06  -2.152763e+05
  -1.141854e+05  -4.996608e+05
   6.467078e+05  -2.479573e+05
   3.910809e+05   3.038811e+05
  -5.636639e+05   5.370134e+05
  -1.178360e+06  -5.100028e+04
  -7.030000e+05  -1.157309e+06
   5.403628e+05  -1.706935e+06
   1.450035e+06  -9.099890e+05
   1.249706e+06   7.316959e+05
   2.119254e+05   1.764579e+06
  -7.275438e+05   1.261582e+06
  -9.064004e+05  -1.975710e+05
  -4.015287e+05  -1.179914e+06
   2.486343e+05  -9.366443e+05
   5.650786e+05  -6.839456e+04
   4.365546e+05   3.646574e+05
   1.342089e+05   1.242510e+05
   5.826963e+04  -8.461416e+04
   3.172611e+05   3.145210e+05
   5.214481e+05   9.644697e+05
   1.564355e+05   1.057007e+06
  -7.459939e+05   3.825700e+05
  -1.454186e+06  -4.543183e+05
  -1.234324e+06  -8.215723e+05
  -1.801947e+05  -6.974403e+05
   8.124765e+05  -4.239382e+05
   9.605907e+05  -1.729177e+05
   3.818175e+05   7.168621e+04
  -1.310511e+05   2.283113e+05
  -7.010466e+04   1.817469e+05
   2.245057e+05   6.722947e+04
   6.706066e+04   1.302073e+05
  -6.113812e+05   2.578652e+05
  -1.043752e+06   9.838511e+03
  -4.952251e+05  -6.938049e+05
   7.858023e+05  -1.203775e+06
   1.708586e+06  -7.954106e+05
   1.457662e+06   3.932936e+05
   3.048731e+05   1.385592e+06
  -7.587055e+05   1.385784e+06
  -1.038280e+06   5.742839e+05
  -6.483314e+05  -1.987562e+05
  -1.552665e+05  -3.561074e+05
   3.379625e+04  -9.478900e+04
  -9.211734e+04  -1.263662e+04
  -2.810168e+05  -3.732003e+05
  -2.367493e+05  -7.981957e+05
   1.614361e+05  -6.861886e+05
   6.710442e+05   8.085785e+04
   7.744992e+05   9.067466e+05
   1.776069e+05   1.030262e+06
  -7.200650e+05   3.011137e+05
  -1.054773e+06  -6.610929e+05
  -3.907645e+05  -1.080526e+06
   6.926675e+05  -7.162207e+05
   1.133946e+06   4.602828e+04
   5.597669e+05   6.315366e+05
  -2.804154e+05   7.171350e+05
  -4.077177e+05   3.778912e+05
   2.069551e+05  -1.273947e+04
   6.340124e+05  -5.604538e+04
   1.635656e+05   3.122406e+05
  -8.090920e+05   6.803498e+05
  -1.274588e+06   5.219589e+05
  -7.974693e+05  -1.992212e+05
   7.985189e+04  -8.808262e+05
   5.716805e+05  -8.726356e+05
   4.625145e+05  -1.942199e+05
   8.383357e+04   4.593318e+05
  -2.239990e+05   4.589430e+05
  -3.520058e+05  -1.033830e+05
  -2.679519e+05  -5.678723e+05
   3.718264e+04  -4.596445e+05
   3.916426e+05   2.132603e+04
   4.884430e+05   2.973737e+05
   2.413352e+05   1.149970e+05
  -5.372793e+04  -1.789187e+05
  -7.975537e+04  -1.023297e+05
   7.172688e+04   3.298204e+05
   3.194483e+04   5.930881e+05
  -2.931262e+05   2.931976e+05
  -5.151233e+05  -3.260884e+05
  -2.355821e+05  -6.383853e+05
   3.811891e+05  -3.402422e+05
   6.923712e+05   2.408229e+05
   2.838594e+05   5.503439e+05
  -5.089660e+05   3.777865e+05
  -9.021380e+05  -4.183800e+04
  -4.948124e+05  -3.655245e+05
   2.856822e+05  -4.325053e+05
   6.429506e+05  -2.743557e+05
   2.794379e+05  -2.761832e+04
  -3.013754e+05   1.089611e+05
  -3.918155e+05  -1.017222e+04
   1.242283e+05  -2.684742e+05
   6.748005e+05  -2.897706e+05
