
 $NMID
 id='ANONYMOUS ', fmtdat='(2E16.6)'
 volume=1.0
 tramp=1.0
 $END
   1.791567e+07  -5.837850e+04
   1.198224e+07   8.089621e+06
   1.936798e+05   1.117391e+07
  -7.485811e+06   7.784530e+06
  -6.487981e+06   1.119640e+06
  -5.753789e+05  -3.187013e+06
   3.588726e+06  -1.868578e+06
   2.944454e+06   2.753025e+06
  -6.049035e+05   5.108539e+06
  -3.314023e+06   2.413824e+06
  -3.030388e+06  -2.321434e+06
  -4.582701e+05  -3.888707e+06
   1.801932e+06  -8.161398e+05
   1.553699e+06   3.248617e+06
  -9.330203e+05   3.864494e+06
  -3.040830e+06   4.731261e+05
  -2.376269e+06  -3.522514e+06
   7.095040e+05  -4.561540e+06
   3.449907e+06  -2.198736e+06
   3.544404e+06   1.068935e+06
   1.441445e+06   2.578463e+06
  -3.524938e+05   1.936471e+06
  -4.327732e+04   9.339067e+05
   1.549183e+06   1.289467e+06
   1.894098e+06   2.700394e+06
  -4.221102e+05   3.300791e+06
  -3.843167e+06   1.896639e+06
  -5.135808e+06  -6.576825e+05
  -2.792366e+06  -2.382146e+06
   1.100097e+06  -2.095153e+06
   2.869535e+06  -2.895657e+05
   1.124190e+06   1.458605e+06
  -1.902080e+06   1.662690e+06
  -3.014961e+06  -2.054622e+03
  -1.483686e+06  -2.211002e+06
   6.679043e+05  -2.865516e+06
   1.331765e+06  -1.192446e+06
   4.552051e+05   1.071861e+06
  -4.983232e+05   1.371631e+06
  -4.269569e+05  -6.071431e+05
   5.072007e+05  -2.366872e+06
   1.373720e+06  -1.604095e+06
   1.324654e+06   8.831464e+05
   1.857128e+05   2.151788e+06
  -1.238926e+06   7.096415e+05
  -1.522755e+06  -1.787505e+06
   9.071600e+04  -2.602626e+06
   2.518024e+06  -9.281086e+05
   3.461606e+06   1.581982e+06
   1.700910e+06   2.771443e+06
  -1.393936e+06   1.930377e+06
  -3.076453e+06   4.771728e+04
  -2.005292e+06  -1.292820e+06
   4.686886e+05  -1.208347e+06
   1.860279e+06  -1.103257e+05
   1.120929e+06   7.786261e+05
  -5.263428e+05   6.088377e+05
  -1.143930e+06  -3.069247e+05
  -1.831153e+05  -9.090685e+05
   1.056243e+06  -5.367168e+05
   9.633000e+05   4.313270e+05
  -5.375636e+05   9.908571e+05
  -1.814327e+06   4.314181e+05
  -1.257270e+06  -1.035217e+06
   9.405549e+05  -2.320980e+06
   2.931164e+06  -2.212406e+06
   3.128149e+06  -4.445004e+05
   1.725927e+06   1.848592e+06
   2.030018e+05   3.041792e+06
  -3.977347e+05   2.584524e+06
  -3.551931e+05   1.462222e+06
  -5.489436e+05   9.048188e+05
  -1.284679e+06   9.065666e+05
  -2.013083e+06   4.502100e+05
  -1.974287e+06  -8.823098e+05
  -9.221315e+05  -2.078322e+06
   6.277134e+05  -1.790287e+06
   1.663691e+06  -5.030604e+03
   1.354874e+06   1.770571e+06
  -1.903315e+05   2.010806e+06
  -1.802050e+06   6.292834e+05
  -2.182356e+06  -1.107132e+06
  -1.144323e+06  -1.911115e+06
   2.241009e+05  -1.576913e+06
   7.866957e+05  -8.749853e+05
   6.077705e+05  -5.839966e+05
   7.243747e+05  -7.241431e+05
   1.692890e+06  -6.611756e+05
   2.683746e+06   1.524277e+05
   2.296990e+06   1.547036e+06
   2.340851e+05   2.661185e+06
  -2.107521e+06   2.595468e+06
  -2.894007e+06   1.201025e+06
  -1.670016e+06  -6.396329e+05
   2.196803e+05  -1.611629e+06
   1.034929e+06  -1.102423e+06
   3.312016e+05   1.658755e+05
  -8.202237e+05   8.098224e+05
  -1.136496e+06   2.370104e+05
  -4.158467e+05  -7.083236e+05
   4.586563e+05  -7.621082e+05
   5.483241e+05   1.858649e+05
  -2.526557e+05   8.709797e+05
  -1.187728e+06   1.431037e+05
  -1.290557e+06  -1.576437e+06
  -1.696855e+05  -2.623518e+06
   1.575917e+06  -1.846632e+06
   2.682718e+06   1.985130e+05
   2.237100e+06   1.864070e+06
   5.773791e+05   2.038385e+06
  -9.179178e+05   1.049941e+06
  -1.138919e+06   9.360656e+04
  -3.312268e+05  -2.162760e+04
   2.658593e+05   4.812620e+05
  -1.468287e+05   7.861690e+05
  -1.049029e+06   4.050820e+05
  -1.264835e+06  -3.586999e+05
  -3.810881e+05  -7.799439e+05
   7.086261e+05  -4.664974e+05
   7.580135e+05   2.498419e+05
  -4.243047e+05   6.215663e+05
  -1.665361e+06   1.750210e+05
  -1.598845e+06  -8.326034e+05
  -1.022806e+05  -1.581793e+06
   1.532120e+06  -1.380010e+06
   1.889063e+06  -3.201037e+05
   8.181649e+05   7.211977e+05
  -5.128258e+05   8.666202e+05
  -8.565565e+05   1.167154e+05
  -5.821880e+04  -6.217690e+05
   9.562230e+05  -4.898001e+05
   1.176925e+06   3.895385e+05
   4.300809e+05   1.065297e+06
  -5.578896e+05   8.402258e+05
  -8.871627e+05   3.081911e+04
  -3.324824e+05  -4.397328e+05
   4.286620e+05  -8.444247e+04
   4.714172e+05   6.573938e+05
  -3.957102e+05   9.334618e+05
  -1.344684e+06   3.481747e+05
  -1.350974e+06  -6.855837e+05
  -3.013650e+05  -1.346922e+06
   8.574119e+05  -1.125241e+06
   1.117168e+06  -2.477019e+05
   4.247942e+05   5.276246e+05
  -3.793133e+05   5.968463e+05
  -5.176164e+05   6.334705e+04
  -1.972582e+04  -4.103156e+05
   4.513995e+05  -3.361974e+05
   3.636167e+05   7.304176e+04
  -1.469908e+05   1.930231e+05
  -4.381011e+05  -2.371683e+05
  -3.055953e+04  -7.590725e+05
   8.482620e+05  -6.715554e+05
   1.401863e+06   1.973731e+05
   1.019542e+06   1.255468e+06
  -8.784137e+04   1.670887e+06
  -1.069055e+06   1.120721e+06
  -1.266836e+06   6.355373e+04
  -8.022959e+05  -6.929326e+05
  -3.068045e+05  -7.230484e+05
  -1.825660e+05  -3.259665e+05
  -2.418749e+05  -1.362386e+05
  -4.772352e+04  -3.921865e+05
   5.051962e+05  -6.603478e+05
   9.995159e+05  -3.590057e+05
   8.662882e+05   4.870368e+05
  -3.289011e+04   1.142934e+06
  -1.146338e+06   8.823972e+05
  -1.592879e+06  -2.336476e+05
  -9.097936e+05  -1.353340e+06
   4.787960e+05  -1.604503e+06
   1.576635e+06  -8.588001e+05
   1.668985e+06   2.258906e+05
   8.964033e+05   8.617065e+05
   1.172161e+04   8.231495e+05
  -3.722447e+05   5.318075e+05
  -2.741555e+05   5.013516e+05
  -1.635071e+05   7.436329e+05
  -3.867713e+05   7.729741e+05
  -7.923354e+05   2.054007e+05
  -8.939563e+05  -7.164815e+05
  -4.006492e+05  -1.279012e+06
   4.096101e+05  -9.877013e+05
   8.838410e+05  -6.017583e+04
   6.185220e+05   7.757210e+05
  -1.163021e+05   9.356362e+05
  -6.361735e+05   4.321566e+05
  -5.383209e+05  -2.425494e+05
  -8.204793e+04  -6.051374e+05
   1.589990e+05  -5.579037e+05
  -3.078365e+04  -3.542017e+05
  -2.681754e+05  -2.596085e+05
  -2.744464e+04  -2.758404e+05
   7.063240e+05  -1.897932e+05
   1.310660e+06   1.427014e+05
   1.112912e+06   5.997478e+05
   1.166045e+05   8.794121e+05
  -9.163671e+05   7.631338e+05
  -1.179791e+06   3.110648e+05
  -6.101317e+05  -1.612916e+05
   1.065179e+05  -3.170441e+05
   3.015917e+05  -9.465531e+04
  -2.067705e+04   1.956814e+05
  -3.444623e+05   1.593533e+05
  -3.150931e+05  -2.255144e+05
  -7.614230e+04  -5.217024e+05
   2.966961e+04  -3.350759e+05
  -1.001419e+05   1.448490e+05
  -2.645130e+05   3.038904e+05
  -2.125539e+05  -1.377376e+05
   1.281790e+05  -7.122599e+05
   5.821942e+05  -7.200120e+05
   7.918767e+05  -6.707910e+04
   4.658605e+05   6.126118e+05
  -2.631036e+05   6.765678e+05
  -7.756030e+05   1.433053e+05
  -4.935029e+05  -4.108729e+05
   4.331750e+05  -4.764824e+05
   1.128402e+06  -3.396532e+04
   8.501285e+05   5.290074e+05
  -1.943612e+05   7.715461e+05
  -1.033462e+06   5.175439e+05
  -9.420160e+05  -1.606666e+04
  -1.617096e+05  -3.716696e+05
   4.215103e+05  -2.505898e+05
   2.309565e+05   1.590999e+05
  -4.426656e+05   3.163755e+05
  -8.015948e+05  -1.153762e+05
  -3.820173e+05  -8.407035e+05
   4.919797e+05  -1.136958e+06
   1.059604e+06  -5.594446e+05
   8.704069e+05   5.405362e+05
   1.553348e+05   1.254891e+06
  -4.872634e+05   9.627817e+05
  -6.589391e+05  -3.618977e+04
  -3.905036e+05  -8.023515e+05
   4.117029e+04  -7.212667e+05
   3.578473e+05  -1.061614e+05
   3.955908e+05   2.651911e+05
   1.895343e+05   1.128202e+05
   2.916968e+03  -8.851293e+04
   9.173370e+04   1.524380e+05
   3.290622e+05   6.381075e+05
   2.402590e+05   7.551135e+05
  -3.849797e+05   2.983133e+05
  -1.042697e+06  -2.976177e+05
  -9.829777e+05  -5.527051e+05
  -1.496859e+05  -4.614750e+05
   6.551153e+05  -2.984288e+05
   7.032393e+05  -1.713304e+05
   1.877736e+05  -1.030109e+04
  -1.254084e+05   1.515499e+05
   6.476214e+04   1.815086e+05
   2.759970e+05   1.066894e+05
   1.834586e+03   9.803075e+04
  -5.507671e+05   1.401300e+05
  -7.109506e+05  -2.396902e+04
  -1.737965e+05  -4.622318e+05
   6.543450e+05  -7.690244e+05
   1.105156e+06  -4.695365e+05
   8.676866e+05   3.382254e+05
   1.678801e+05   9.821740e+05
  -4.930095e+05   9.234319e+05
  -7.179913e+05   3.198862e+05
  -4.676804e+05  -2.025333e+05
  -5.741101e+04  -2.454433e+05
   1.251881e+05   2.152109e+03
  -2.531920e+04   7.006082e+04
  -2.494665e+05  -2.225493e+05
  -2.119560e+05  -5.521607e+05
   1.360446e+05  -4.510106e+05
   4.886822e+05   1.348480e+05
   4.672411e+05   7.073330e+05
  -5.981486e+03   7.031820e+05
  -5.695278e+05   9.797532e+04
  -6.928453e+05  -5.639239e+05
  -1.928692e+05  -7.447605e+05
   5.017283e+05  -4.107415e+05
   7.303423e+05   6.935188e+04
   3.208381e+05   3.641757e+05
  -1.903979e+05   3.941744e+05
  -1.927628e+05   2.352480e+05
   2.441272e+05   2.997597e+04
   4.661223e+05  -2.005150e+04
   7.688608e+04   1.977491e+05
  -5.628117e+05   4.823277e+05
  -7.977310e+05   4.320547e+05
  -4.501832e+05  -6.273279e+04
   6.857570e+04  -5.695265e+05
   3.119014e+05  -5.595523e+05
   2.213564e+05  -5.821303e+04
   2.449271e+03   3.607008e+05
  -1.774050e+05   2.618732e+05
  -2.497114e+05  -1.636051e+05
  -1.675988e+05  -3.985185e+05
   5.403384e+04  -2.354724e+05
   2.674142e+05   5.731966e+04
   3.037505e+05   1.461377e+05
   1.647975e+05   2.447179e+04
   1.057642e+04  -5.351106e+04
  -5.155652e+04   7.597688e+04
  -7.846227e+04   2.885909e+05
  -1.627075e+05   3.125482e+05
  -2.643366e+05   3.493533e+04
  -2.337292e+05  -3.397132e+05
   4.234758e+03  -4.598280e+05
   3.137946e+05  -1.871411e+05
   4.162999e+05   2.345762e+05
   1.445103e+05   4.209123e+05
  -3.283634e+05   2.427725e+05
  -5.697312e+05  -7.950564e+04
  -3.114341e+05  -2.603137e+05
   2.026337e+05  -2.275204e+05
   4.235941e+05  -9.856123e+04
   1.216984e+05  -8.662190e+02
  -3.112071e+05  -9.669623e+02
  -3.115521e+05  -1.136772e+05
   1.709165e+05  -2.466045e+05
   6.057901e+05  -1.906189e+05
