
 $NMID
 id='ANONYMOUS ', fmtdat='(2E16.6)'
 volume=1.0
 tramp=1.0
 $END
  -4.921625e+07  -1.736958e+05
  -3.029484e+07  -2.905020e+07
   5.207875e+06  -3.291285e+07
   2.364287e+07  -1.445741e+07
   1.523757e+07   4.449628e+06
  -2.059559e+06   8.352112e+06
  -8.963562e+06   8.866918e+04
  -3.525424e+06  -8.473275e+06
   4.835434e+06  -9.370174e+06
   8.672664e+06  -2.656296e+06
   6.503081e+06   5.677222e+06
   7.239732e+05   8.151347e+06
  -3.780997e+06   2.322683e+06
  -2.580064e+06  -5.622859e+06
   3.272803e+06  -6.684025e+06
   7.214868e+06   7.422231e+05
   4.349448e+06   9.136156e+06
  -3.125048e+06   1.075817e+07
  -8.993201e+06   5.285119e+06
  -9.470164e+06  -2.058033e+06
  -5.393015e+06  -6.630533e+06
  -3.169967e+05  -7.087877e+06
   2.031049e+06  -4.798109e+06
   5.020495e+05  -2.705501e+06
  -1.675444e+06  -3.062360e+06
   1.740751e+05  -4.683680e+06
   5.908131e+06  -3.971980e+06
   9.509826e+06   1.528937e+05
   6.380316e+06   4.237333e+06
  -4.592541e+05   4.619089e+06
  -4.137703e+06   1.855535e+06
  -2.261497e+06  -8.035433e+05
   1.533645e+06  -1.458472e+06
   3.222149e+06  -2.065538e+05
   2.239014e+06   2.251069e+06
   2.286630e+04   4.259239e+06
  -1.993625e+06   3.300995e+06
  -2.455014e+06  -6.286019e+05
  -9.087255e+05  -3.238397e+06
   7.109686e+05  -1.009855e+06
  -1.314682e+05   2.971027e+06
  -2.526697e+06   2.443947e+06
  -2.432106e+06  -2.758531e+06
   1.633399e+06  -5.515687e+06
   5.570648e+06  -1.130331e+06
   4.416996e+06   5.836788e+06
  -1.411073e+06   7.414808e+06
  -6.590243e+06   2.165622e+06
  -6.727882e+06  -4.074359e+06
  -2.147330e+06  -5.805490e+06
   3.266695e+06  -2.921055e+06
   5.385318e+06   1.145420e+06
   2.766582e+06   3.229521e+06
  -1.987126e+06   2.206413e+06
  -4.205685e+06  -6.279386e+05
  -1.971767e+06  -2.367071e+06
   1.505463e+06  -1.287023e+06
   1.839634e+06   9.280699e+05
  -8.668745e+05   1.170204e+06
  -2.370245e+06  -9.606380e+05
  -1.215099e+05  -2.712310e+06
   3.562930e+06  -1.913050e+06
   4.748287e+06   7.391059e+05
   2.308884e+06   3.387394e+06
  -1.830103e+06   4.925095e+06
  -5.159883e+06   4.503983e+06
  -6.042584e+06   1.379001e+06
  -4.091934e+06  -3.249328e+06
  -6.897799e+05  -5.979885e+06
   1.600207e+06  -4.757158e+06
   1.497722e+06  -1.659092e+06
   4.717534e+05  -2.859145e+05
   7.172375e+05  -1.105280e+06
   2.220277e+06  -1.409256e+06
   2.996338e+06   3.827691e+05
   1.837026e+06   2.511034e+06
  -3.945064e+05   2.447301e+06
  -1.996632e+06   7.489650e+04
  -1.848056e+06  -2.478200e+06
   1.729406e+05  -3.148619e+06
   2.937059e+06  -1.444124e+06
   4.284227e+06   1.496657e+06
   2.833644e+06   3.697655e+06
  -1.734041e+05   3.816068e+06
  -2.036020e+06   2.375969e+06
  -1.916849e+06   1.117267e+06
  -1.716620e+06   8.605503e+05
  -3.025461e+06   6.426415e+05
  -4.527310e+06  -7.115701e+05
  -3.657582e+06  -2.874769e+06
  -1.241090e+05  -4.370885e+06
   3.502799e+06  -4.087925e+06
   4.557464e+06  -2.043432e+06
   2.752431e+06   7.014989e+05
   1.609371e+04   2.436806e+06
  -1.374030e+06   1.921956e+06
  -5.693601e+05  -1.258801e+05
   1.242491e+06  -1.334414e+06
   1.974841e+06  -3.726617e+05
   8.553920e+05   1.248223e+06
  -6.430809e+05   1.182775e+06
  -5.943162e+05  -4.036128e+05
   9.361932e+05  -9.651376e+05
   1.987068e+06   8.819020e+05
   1.110346e+06   3.393312e+06
  -1.147312e+06   3.867566e+06
  -3.173383e+06   1.733648e+06
  -3.801074e+06  -1.246268e+06
  -2.745987e+06  -3.063406e+06
  -5.486146e+05  -2.977621e+06
   1.416004e+06  -1.569401e+06
   1.736635e+06  -1.689194e+05
   5.283577e+05   5.675919e+04
  -3.804496e+05  -8.054930e+05
   4.020648e+05  -1.377236e+06
   1.941831e+06  -5.959181e+05
   2.122753e+06   8.741249e+05
   4.520030e+05   1.449067e+06
  -1.237606e+06   6.318174e+05
  -1.030661e+06  -4.926274e+05
   8.657203e+05  -6.875915e+05
   2.461392e+06   2.088513e+05
   2.064872e+06   1.486291e+06
  -1.932629e+05   2.260054e+06
  -2.527643e+06   1.858070e+06
  -3.007503e+06   2.923671e+05
  -1.283421e+06  -1.323631e+06
   9.626972e+05  -1.523156e+06
   1.581302e+06  -1.704537e+05
   1.554751e+05   1.107902e+06
  -1.615962e+06   7.547642e+05
  -1.846607e+06  -8.156322e+05
  -4.271395e+05  -1.773914e+06
   1.120072e+06  -1.126369e+06
   1.379611e+06   2.477449e+05
   3.343524e+05   8.133349e+05
  -8.066739e+05   6.953781e+04
  -7.569716e+05  -1.124050e+06
   6.575045e+05  -1.504715e+06
   2.168947e+06  -5.257599e+05
   2.155312e+06   1.168418e+06
   3.856881e+05   2.219100e+06
  -1.535195e+06   1.747582e+06
  -1.846197e+06   2.385426e+05
  -5.652472e+05  -9.239721e+05
   7.003313e+05  -8.797308e+05
   7.303446e+05  -6.666318e+04
  -9.646259e+04   4.756817e+05
  -6.065791e+05   3.037217e+05
  -2.705499e+05  -1.049139e+05
   4.164128e+05  -3.886204e+04
   5.977035e+05   6.325325e+05
  -1.644201e+05   1.261329e+06
  -1.472092e+06   9.676877e+05
  -2.233927e+06  -4.567794e+05
  -1.547288e+06  -2.102658e+06
   2.667639e+05  -2.622773e+06
   1.773479e+06  -1.565076e+06
   1.887752e+06   1.112828e+05
   1.007343e+06   1.043962e+06
   3.547254e+05   8.574622e+05
   4.272513e+05   3.292544e+05
   5.802184e+05   3.042656e+05
   7.914542e+04   7.617836e+05
  -9.256149e+05   9.787628e+05
  -1.586078e+06   3.816586e+05
  -1.190359e+06  -8.128553e+05
   2.473309e+05  -1.651560e+06
   1.881673e+06  -1.191185e+06
   2.450699e+06   5.349650e+05
   1.243555e+06   2.265558e+06
  -1.045573e+06   2.537053e+06
  -2.702749e+06   1.135710e+06
  -2.567896e+06  -6.644368e+05
  -1.122997e+06  -1.459055e+06
   1.813140e+05  -1.113871e+06
   4.974667e+05  -6.264712e+05
   2.129982e+05  -7.922262e+05
   1.822675e+05  -1.329592e+06
   7.150969e+05  -1.325998e+06
   1.359569e+06  -3.110293e+05
   1.409728e+06   1.188904e+06
   5.652313e+05   2.054655e+06
  -7.006615e+05   1.541227e+06
  -1.395479e+06  -4.496088e+03
  -8.827714e+05  -1.360884e+06
   3.815516e+05  -1.498447e+06
   1.197226e+06  -4.949323e+05
   8.646617e+05   6.571317e+05
  -7.029605e+04   1.104549e+06
  -4.980987e+05   8.553887e+05
  -6.259656e+04   4.871400e+05
   4.444176e+05   3.866787e+05
   4.786342e+04   4.216713e+05
  -1.210410e+06   2.257161e+05
  -2.177219e+06  -3.630243e+05
  -1.731966e+06  -1.107523e+06
   7.439530e+02  -1.508395e+06
   1.661528e+06  -1.195144e+06
   1.958071e+06  -3.180975e+05
   9.187065e+05   4.708730e+05
  -2.568161e+05   5.775671e+05
  -5.344629e+05   6.153119e+04
  -8.084046e+03  -4.085541e+05
   5.039812e+05  -2.578632e+05
   5.060041e+05   3.762389e+05
   2.086421e+05   7.948446e+05
   4.641408e+04   5.181904e+05
   1.583340e+05  -1.369923e+05
   3.500255e+05  -3.546801e+05
   3.048661e+05   2.490097e+05
  -1.932931e+05   1.078873e+06
  -9.810286e+05   1.128761e+06
  -1.407269e+06   1.408316e+05
  -8.455420e+05  -9.954831e+05
   4.594010e+05  -1.175015e+06
   1.322708e+06  -2.998100e+05
   7.750843e+05   6.446229e+05
  -7.543578e+05   7.024492e+05
  -1.739936e+06  -9.779116e+04
  -1.145110e+06  -9.382132e+05
   4.894970e+05  -1.109312e+06
   1.646455e+06  -5.684575e+05
   1.380167e+06   1.891330e+05
   1.635560e+05   5.722100e+05
  -7.022466e+05   3.071919e+05
  -3.969961e+05  -3.061917e+05
   6.608299e+05  -5.316007e+05
   1.271367e+06   1.389090e+05
   6.657143e+05   1.302001e+06
  -7.104841e+05   1.813061e+06
  -1.640654e+06   9.052228e+05
  -1.347112e+06  -8.560316e+05
  -1.872826e+05  -1.956805e+06
   8.250722e+05  -1.419063e+06
   1.013437e+06   1.768348e+05
   4.818384e+05   1.299346e+06
  -2.166854e+05   1.074485e+06
  -6.020397e+05   1.005062e+05
  -5.275241e+05  -4.256339e+05
  -2.046046e+05  -1.641672e+05
  -4.368267e+04   1.132746e+05
  -2.593901e+05  -3.000834e+05
  -5.252227e+05  -1.046474e+06
  -2.271448e+05  -1.184593e+06
   7.420868e+05  -4.297010e+05
   1.601976e+06   5.273511e+05
   1.412280e+06   9.302448e+05
   1.960927e+05   7.550296e+05
  -9.604691e+05   4.378435e+05
  -1.083448e+06   1.940835e+05
  -3.697264e+05  -4.371296e+04
   1.716057e+05  -2.391577e+05
   1.145633e+04  -2.416176e+05
  -3.180739e+05  -1.278808e+05
  -4.000926e+04  -1.460137e+05
   7.558432e+05  -2.307849e+05
   1.131199e+06   3.667459e+04
   4.132493e+05   7.472914e+05
  -9.587842e+05   1.244227e+06
  -1.832026e+06   7.759988e+05
  -1.485129e+06  -5.018136e+05
  -2.659307e+05  -1.534480e+06
   8.428326e+05  -1.473107e+06
   1.144049e+06  -5.489274e+05
   7.108122e+05   2.786425e+05
   1.274001e+05   3.890076e+05
  -1.011202e+05   5.076973e+04
   8.102098e+04  -3.816329e+04
   3.357170e+05   3.961216e+05
   2.687357e+05   8.821164e+05
  -2.090838e+05   7.281099e+05
  -7.412163e+05  -1.599165e+05
  -7.710290e+05  -1.058953e+06
  -8.267994e+04  -1.114690e+06
   8.334389e+05  -2.320969e+05
   1.102692e+06   8.177793e+05
   3.473995e+05   1.183626e+06
  -7.845971e+05   7.068148e+05
  -1.199592e+06  -1.013433e+05
  -5.565813e+05  -6.526050e+05
   3.157944e+05  -7.095977e+05
   3.952930e+05  -3.914290e+05
  -2.896829e+05  -2.451816e+04
  -7.109098e+05   2.989334e+04
  -1.479429e+05  -3.309312e+05
   9.052629e+05  -7.290347e+05
   1.357009e+06  -5.887293e+05
   8.051293e+05   1.824425e+05
  -1.167254e+05   9.332343e+05
  -5.901364e+05   9.154349e+05
  -4.403920e+05   1.572507e+05
  -3.969789e+04  -5.281390e+05
   2.676657e+05  -4.573746e+05
   3.790677e+05   1.831744e+05
   2.654544e+05   6.300990e+05
  -6.540331e+04   4.451231e+05
  -4.218934e+05  -6.144832e+04
  -5.077663e+05  -2.965298e+05
  -2.632822e+05  -9.592038e+04
   2.784817e+04   1.474040e+05
   9.291990e+04   1.760373e+04
   1.884204e+04  -3.923627e+05
   9.478410e+04  -5.711921e+05
   3.560064e+05  -1.979920e+05
   4.653277e+05   4.357753e+05
   1.294217e+05   7.033814e+05
  -4.548799e+05   3.262235e+05
  -7.039805e+05  -3.216159e+05
  -2.584266e+05  -6.314482e+05
   5.493813e+05  -3.887084e+05
   9.452753e+05   9.905535e+04
   5.100653e+05   4.152959e+05
  -3.217469e+05   4.175918e+05
  -6.892576e+05   2.243179e+05
  -2.578274e+05   1.604130e+04
   3.938132e+05  -5.332741e+04
   4.464350e+05   9.448372e+04
  -2.031227e+05   3.235485e+05
  -8.353765e+05   2.816988e+05
