
 $NMID
 id='ANONYMOUS ', fmtdat='(2E16.6)'
 volume=1.0
 tramp=1.0
 $END
   2.090029e+06  -1.058142e+06
   1.494134e+06   1.503973e+06
  -3.266126e+05   1.774349e+06
  -1.047390e+06   1.184278e+05
  -2.960693e+05  -9.011171e+05
   4.185682e+05  -3.048745e+05
   1.965013e+05   5.107561e+05
  -3.256113e+05   3.631159e+05
  -4.014383e+05  -1.980497e+05
  -2.041518e+05  -2.590750e+05
  -1.495020e+05   2.617536e+04
  -1.648090e+05   4.063817e+04
  -5.967537e+04  -2.081433e+05
   2.826238e+04  -3.131291e+05
  -4.860961e+04  -2.161757e+05
  -1.376153e+05  -1.504831e+05
  -8.324072e+04  -1.887280e+05
   4.005705e+04  -2.597602e+05
   1.846231e+05  -3.242542e+05
   4.195324e+05  -2.562866e+05
   5.903099e+05   1.093394e+05
   3.404687e+05   5.620588e+05
  -2.766128e+05   5.512780e+05
  -6.367933e+05  -4.429184e+04
  -3.220894e+05  -5.725239e+05
   2.866373e+05  -4.184788e+05
   5.219397e+05   1.727661e+05
   2.380048e+05   4.953269e+05
  -2.050737e+05   3.104301e+05
  -4.662725e+05  -6.964846e+04
  -3.948432e+05  -3.645073e+05
   2.871948e+04  -4.873165e+05
   5.324470e+05  -3.125448e+05
   5.947058e+05   1.654399e+05
   7.842328e+04   5.251615e+05
  -4.030137e+05   3.206151e+05
  -2.296609e+05  -2.064484e+05
   3.163742e+05  -3.499123e+05
   4.456157e+05   6.454985e+04
   3.108000e+04   4.496209e+05
  -2.805626e+05   3.663628e+05
  -1.483107e+05   1.087256e+05
  -1.167734e+04   9.728128e+04
  -2.492183e+05   1.916109e+05
  -5.145647e+05   3.323894e+04
  -3.435389e+05  -2.837801e+05
   6.234059e+04  -3.727112e+05
   1.796509e+05  -1.891627e+05
  -2.007351e+04  -4.759049e+04
  -1.222979e+05  -8.912508e+04
   3.351122e+04  -1.393213e+05
   2.006021e+05  -7.844963e+04
   2.011228e+05   7.165726e+02
   1.234796e+05   2.907355e+04
   5.261767e+04   5.609178e+04
  -2.466079e+04   7.706773e+04
  -3.928534e+04   3.253156e+04
   8.949665e+04   3.706957e+03
   1.937199e+05   1.363194e+05
   2.020413e+04   3.323836e+05
  -3.132753e+05   3.059026e+05
  -4.000485e+05   2.335469e+04
  -1.641296e+05  -1.986962e+05
  -4.009869e+03  -1.578625e+05
  -1.575639e+05  -4.943037e+04
  -3.160628e+05  -1.116713e+05
  -1.404699e+05  -2.448432e+05
   1.729395e+05  -2.249558e+05
   2.086255e+05  -1.026739e+05
  -8.788086e+03  -1.046667e+05
  -7.647444e+04  -2.408202e+05
   1.588306e+05  -2.831970e+05
   4.142176e+05  -1.068646e+05
   4.126795e+05   1.696840e+05
   1.923941e+05   3.711122e+05
  -6.812093e+04   4.030933e+05
  -2.562181e+05   2.291928e+05
  -2.871156e+05  -8.421460e+04
  -1.103814e+05  -3.000457e+05
   1.392966e+05  -2.009601e+05
   2.010583e+05   1.079377e+05
   1.449918e+04   2.739493e+05
  -1.756588e+05   1.340370e+05
  -1.481291e+05  -9.628572e+04
   1.437800e+04  -1.442895e+05
   8.662742e+04  -1.805113e+04
   2.184091e+03   8.437509e+04
  -1.325518e+05   5.628817e+04
  -2.046798e+05  -5.992512e+04
  -1.473645e+05  -1.866911e+05
   6.029225e+04  -2.462222e+05
   3.052114e+05  -1.614430e+05
   3.547406e+05   4.459553e+04
   1.205959e+05   2.038909e+05
  -1.660134e+05   1.771863e+05
  -2.084514e+05   3.128411e+04
  -1.857956e+04  -5.865176e+04
   1.324353e+05  -3.288253e+04
   9.282202e+04   3.245777e+04
  -3.054797e+04   6.990281e+04
  -9.793989e+04   5.998212e+04
  -9.592914e+04  -2.132213e+04
  -3.778638e+04  -1.460818e+05
   9.290508e+04  -1.627918e+05
   2.170564e+05   4.168698e+04
   1.585622e+05   3.079410e+05
  -1.061146e+05   3.235540e+05
  -3.319293e+05   3.038923e+04
  -2.822607e+05  -2.642211e+05
  -3.125423e+04  -2.746679e+05
   1.484997e+05  -7.914597e+04
   1.315818e+05   4.839611e+04
   3.122459e+04   1.394260e+04
  -1.060912e+04  -5.252040e+04
   2.250156e+04  -4.516044e+04
   7.190947e+04   4.641853e+03
   8.371457e+04   4.116902e+04
   2.644160e+04   5.490001e+04
  -7.075800e+04   3.134278e+04
  -9.460625e+04  -4.137205e+04
   3.271536e+04  -9.503371e+04
   2.025329e+05  -3.034367e+04
   2.056069e+05   1.234715e+05
   3.484301e+03   2.051043e+05
  -1.972706e+05   1.247477e+05
  -1.994640e+05  -1.882946e+04
  -4.755806e+04  -7.772619e+04
   6.688435e+04  -3.241397e+04
   4.949624e+04   2.949931e+04
  -3.733603e+04   4.300761e+04
  -1.003314e+05   5.887397e+03
  -1.002427e+05  -5.839509e+04
  -3.829299e+04  -1.083477e+05
   4.979879e+04  -9.277780e+04
   9.169315e+04  -1.607306e+04
   4.668135e+04   3.599951e+04
  -2.248016e+04  -1.679528e+03
  -1.280268e+04  -7.329404e+04
   7.913906e+04  -6.939397e+04
   1.440526e+05   2.535792e+04
   9.871891e+04   1.185142e+05
  -1.844107e+04   1.325411e+05
  -1.066592e+05   7.602229e+04
  -1.078360e+05  -1.092728e+03
  -3.626097e+04  -5.560825e+04
   4.739819e+04  -5.270091e+04
   7.128778e+04   1.116209e+04
   8.200194e+03   7.308786e+04
  -7.890353e+04   5.604456e+04
  -9.008422e+04  -2.311223e+04
  -1.346630e+04  -5.986948e+04
   4.739297e+04  -4.243838e+03
   5.577434e+03   6.403644e+04
  -9.224311e+04   4.296514e+04
  -1.269071e+05  -6.044718e+04
  -5.318168e+04  -1.528642e+05
   6.502922e+04  -1.663164e+05
   1.436362e+05  -9.927603e+04
   1.497612e+05   1.354289e+04
   9.697367e+04   1.149008e+05
   2.398178e+04   1.393921e+05
  -2.085217e+04   7.804083e+04
  -2.012322e+04   1.116531e+04
  -1.642351e+04   1.544660e+04
  -5.820593e+04   5.297979e+04
  -1.147177e+05   2.282952e+04
  -9.691019e+04  -8.056280e+04
   1.988535e+04  -1.403393e+05
   1.426131e+05  -7.115649e+04
   1.600790e+05   6.836234e+04
   6.160767e+04   1.543707e+05
  -7.152483e+04   1.353174e+05
  -1.584206e+05   4.979796e+04
  -1.670059e+05  -4.476627e+04
  -1.027591e+05  -1.083900e+05
  -1.195131e+03  -1.161715e+05
   7.748958e+04  -7.685095e+04
   9.285623e+04  -4.014794e+04
   6.829560e+04  -3.937120e+04
   5.807120e+04  -3.875892e+04
   6.968954e+04   1.606963e+04
   5.576534e+04   1.046963e+05
  -8.684100e+03   1.413753e+05
  -7.861556e+04   8.311770e+04
  -9.120013e+04  -1.776908e+04
  -4.125996e+04  -8.172588e+04
   2.002390e+04  -8.282930e+04
   4.694436e+04  -4.585985e+04
   3.681791e+04  -5.691213e+02
   1.474331e+04   3.499117e+04
   3.516452e+03   5.063952e+04
   7.728679e+03   4.945907e+04
   1.105454e+04   4.374580e+04
  -1.114095e+04   3.188577e+04
  -6.198144e+04  -2.040256e+03
  -1.040959e+05  -5.297378e+04
  -8.667793e+04  -8.389509e+04
  -2.635964e+03  -7.005811e+04
   8.926329e+04  -3.252536e+04
   1.145429e+05  -5.997995e+03
   5.976371e+04   4.748534e+03
  -1.039843e+04   1.155929e+04
  -2.314967e+04   1.080737e+04
   2.029067e+04  -7.290137e+02
   5.004942e+04   1.091863e+03
   1.924838e+04   3.430314e+04
  -3.348596e+04   6.293679e+04
  -3.636020e+04   3.565867e+04
   1.594449e+04  -2.696700e+04
   5.247608e+04  -4.224059e+04
   2.026584e+04   1.788876e+04
  -4.831122e+04   7.460718e+04
  -8.188603e+04   4.572624e+04
  -5.454147e+04  -3.962357e+04
   3.094164e+03  -8.045686e+04
   5.220130e+04  -3.542957e+04
   6.800215e+04   3.762635e+04
   3.106458e+04   6.601451e+04
  -5.300070e+04   3.590918e+04
  -1.218506e+05  -2.197917e+04
  -9.623360e+04  -7.279265e+04
   2.133587e+04  -8.690973e+04
   1.237521e+05  -4.901783e+04
   1.126448e+05   1.500181e+04
   1.583106e+04   4.702162e+04
  -4.679772e+04   2.120488e+04
  -9.056567e+03  -1.732954e+04
   6.750827e+04  -5.264896e+03
   7.508984e+04   5.830347e+04
  -1.303633e+04   1.089646e+05
  -1.169893e+05   8.897273e+04
  -1.404597e+05   2.083853e+03
  -6.723003e+04  -9.571554e+04
   3.340223e+04  -1.384135e+05
   8.394620e+04  -9.228953e+04
   6.857754e+04   1.264030e+04
   2.577282e+04   9.230630e+04
  -9.716906e+03   8.123758e+04
  -3.361493e+04   5.649364e+03
  -4.535882e+04  -4.338271e+04
  -3.160708e+04  -2.198873e+04
   3.064248e+03   1.329260e+04
   2.011627e+04  -1.013846e+04
  -1.162986e+03  -7.321467e+04
  -1.656835e+04  -8.759689e+04
   2.776262e+04  -1.781653e+04
   9.888202e+04   6.894405e+04
   9.838660e+04   9.073258e+04
   1.949403e+02   4.850408e+04
  -9.405129e+04   5.881474e+03
  -8.353553e+04  -1.826020e+03
  -5.119078e+03   2.336803e+03
   2.490089e+04  -9.667471e+03
  -1.960087e+04  -2.850791e+04
  -4.527671e+04  -3.020309e+04
   1.133685e+04  -1.209735e+04
   8.384024e+04   1.265701e+04
   6.923943e+04   3.687925e+04
  -3.070563e+04   5.356423e+04
  -1.174172e+05   4.175895e+04
  -1.186226e+05  -1.302143e+04
  -5.053431e+04  -8.330248e+04
   3.011595e+04  -1.105655e+05
   8.241655e+04  -6.624976e+04
   8.664850e+04   1.038214e+04
   4.328446e+04   5.030211e+04
  -1.284252e+04   2.777794e+04
  -3.123820e+04  -1.517032e+04
  -2.604156e+03  -1.890347e+04
   2.489261e+04   2.546377e+04
   7.133470e+03   6.337288e+04
  -3.668751e+04   3.622468e+04
  -4.931860e+04  -4.663635e+04
  -7.843636e+03  -1.052559e+05
   5.160556e+04  -7.120422e+04
   7.558519e+04   3.106924e+04
   4.232928e+04   1.040191e+05
  -2.431628e+04   8.375264e+04
  -7.264248e+04   6.721807e+03
  -6.205920e+04  -4.416502e+04
  -4.741930e+03  -3.840218e+04
   3.642180e+04  -1.431709e+04
   1.408675e+04  -9.743873e+03
  -4.142490e+04  -1.785859e+04
  -5.281626e+04  -1.971488e+04
   6.886289e+03  -2.054539e+04
   7.665214e+04  -2.768983e+04
   8.221233e+04  -2.171552e+04
   2.397034e+04   1.354187e+04
  -3.311900e+04   4.793404e+04
  -4.060795e+04   3.454996e+04
  -9.038195e+03  -1.801767e+04
   2.325529e+04  -4.479437e+04
   3.338605e+04  -9.959903e+03
   2.117396e+04   4.239215e+04
  -2.325719e+03   4.824784e+04
  -2.137448e+04   7.807859e+03
  -2.473921e+04  -2.405931e+04
  -1.769433e+04  -1.744486e+04
  -1.424770e+04   2.607810e+02
  -1.270920e+04  -6.290899e+03
   5.062116e+03  -3.074660e+04
   4.063615e+04  -3.853245e+04
   6.266504e+04  -1.129310e+04
   4.161373e+04   3.506325e+04
  -9.394616e+03   6.555164e+04
  -4.762629e+04   5.222513e+04
  -4.870024e+04  -1.361530e+03
  -2.277197e+04  -5.339870e+04
   1.081924e+04  -5.610670e+04
   3.920039e+04  -7.441552e+03
   4.566426e+04   4.089268e+04
   1.556679e+04   4.073295e+04
  -3.180830e+04   2.401667e+03
  -4.464054e+04  -2.341936e+04
  -2.877637e+02  -9.284528e+03
   5.033108e+04   2.409730e+04
   3.560135e+04   4.178058e+04
  -4.080599e+04   2.985175e+04
  -9.286079e+04  -4.724829e+03
