
 $NMID
 id='ANONYMOUS ', fmtdat='(2E16.6)'
 volume=1.0
 tramp=1.0
 $END
  -1.187977e+07  -1.422328e+06
  -5.998240e+06  -8.406293e+06
   2.914206e+06  -7.838563e+06
   6.312223e+06  -2.050108e+06
   3.085711e+06   2.307188e+06
  -1.214394e+06   2.094897e+06
  -2.169365e+06  -5.168006e+05
  -3.354533e+05  -2.221913e+06
   1.588444e+06  -1.855601e+06
   2.147722e+06  -1.058715e+05
   1.345962e+06   1.652088e+06
  -1.523223e+05   1.985708e+06
  -1.143271e+06   5.119219e+05
  -6.236565e+05  -1.250607e+06
   8.618321e+05  -1.273310e+06
   1.545248e+06   5.259760e+05
   5.365723e+05   2.189290e+06
  -1.211246e+06   2.147684e+06
  -2.260979e+06   7.237417e+05
  -2.119766e+06  -8.613933e+05
  -1.104551e+06  -1.831833e+06
   2.051220e+05  -1.915674e+06
   9.973906e+05  -1.167932e+06
   6.806643e+05  -2.716601e+05
  -1.672277e+05  -1.557093e+05
  -1.513543e+05  -7.685062e+05
   1.069945e+06  -9.579397e+05
   2.080254e+06  -6.672363e+04
   1.545171e+06   1.083201e+06
   1.107539e+04   1.353831e+06
  -9.410536e+05   7.429984e+05
  -7.271455e+05   5.019719e+04
  -5.218778e+04  -2.623739e+05
   3.618577e+05  -1.812752e+05
   3.724780e+05   2.810556e+05
   1.108016e+04   8.271490e+05
  -5.625799e+05   7.205805e+05
  -7.991971e+05  -2.246970e+05
  -3.236239e+05  -9.554405e+05
   2.865118e+05  -4.851737e+05
   1.521941e+05   4.697314e+05
  -4.754565e+05   3.626471e+05
  -4.012980e+05  -7.871018e+05
   6.849774e+05  -1.223565e+06
   1.529805e+06   6.662419e+03
   9.568270e+05   1.590854e+06
  -5.608881e+05   1.713472e+06
  -1.562178e+06   3.589591e+05
  -1.298593e+06  -9.681663e+05
  -2.219163e+05  -1.186672e+06
   7.704454e+05  -4.718581e+05
   1.005319e+06   4.203419e+05
   3.267189e+05   8.408444e+05
  -6.785643e+05   4.870038e+05
  -1.006459e+06  -3.265183e+05
  -3.338607e+05  -7.506829e+05
   4.499019e+05  -3.341993e+05
   3.554837e+05   2.839063e+05
  -3.335818e+05   1.900424e+05
  -4.814638e+05  -4.886940e+05
   2.653453e+05  -7.758424e+05
   1.042580e+06  -2.518068e+05
   1.014227e+06   4.981532e+05
   3.093171e+05   8.829701e+05
  -4.810251e+05   9.475989e+05
  -1.043890e+06   8.012557e+05
  -1.237450e+06   2.165606e+05
  -8.600644e+05  -7.305276e+05
  -3.883171e+04  -1.276749e+06
   5.583239e+05  -8.703435e+05
   4.319324e+05  -5.083229e+04
  -5.917892e+04   2.106220e+05
  -1.733260e+05  -1.907982e+05
   2.257968e+05  -4.775364e+05
   5.931919e+05  -1.624527e+05
   4.960287e+05   3.671016e+05
   5.992956e+04   4.947303e+05
  -3.267559e+05   1.169572e+05
  -3.762745e+05  -3.951427e+05
   1.916616e+03  -6.187916e+05
   6.010538e+05  -3.410016e+05
   9.103742e+05   3.056477e+05
   5.666246e+05   8.496347e+05
  -1.429983e+05   8.667053e+05
  -5.582697e+05   4.530609e+05
  -4.738027e+05   9.826385e+04
  -3.359041e+05   4.517030e+04
  -5.144373e+05   4.438257e+04
  -7.568608e+05  -1.847083e+05
  -5.925920e+05  -5.469852e+05
   4.351082e+02  -7.624739e+05
   5.954064e+05  -7.023522e+05
   8.059542e+05  -3.868625e+05
   5.657808e+05   9.115021e+04
   8.594041e+04   4.687070e+05
  -2.626915e+05   4.168043e+05
  -1.836442e+05  -1.490944e+04
   2.106652e+05  -3.027711e+05
   4.352274e+05  -9.001439e+04
   2.129351e+05   2.913532e+05
  -1.355660e+05   2.903785e+05
  -1.338302e+05  -4.055031e+04
   1.700269e+05  -1.309621e+05
   2.946131e+05   2.425046e+05
   2.004452e+04   6.308840e+05
  -3.706503e+05   5.558149e+05
  -5.545127e+05   9.750747e+04
  -5.158416e+05  -3.347826e+05
  -3.494034e+05  -5.126643e+05
  -6.530472e+04  -4.569623e+05
   2.393561e+05  -2.476024e+05
   3.129240e+05  -1.801449e+04
   9.484514e+04   3.002341e+04
  -8.674331e+04  -1.436543e+05
   7.272021e+04  -2.783669e+05
   3.923741e+05  -1.241668e+05
   4.322225e+05   1.916237e+05
   1.019761e+05   3.238443e+05
  -2.271221e+05   1.715362e+05
  -2.126651e+05  -3.651182e+04
   8.322327e+04  -8.169754e+04
   3.364777e+05   3.432480e+04
   2.992253e+05   2.066507e+05
  -3.182560e+04   3.346486e+05
  -4.203661e+05   2.941616e+05
  -5.318706e+05   2.596399e+04
  -2.310919e+05  -2.828041e+05
   2.100061e+05  -3.132655e+05
   3.455889e+05  -2.074663e+04
   5.818700e+04   2.452267e+05
  -3.020012e+05   1.622570e+05
  -3.424116e+05  -1.581544e+05
  -6.120748e+04  -3.366672e+05
   2.260667e+05  -2.022699e+05
   2.685994e+05   5.801144e+04
   8.262458e+04   1.731003e+05
  -1.310169e+05   6.211613e+04
  -1.587495e+05  -1.471713e+05
   6.183085e+04  -2.488093e+05
   3.418872e+05  -1.119644e+05
   3.719279e+05   1.887950e+05
   6.402948e+04   3.942296e+05
  -2.958937e+05   3.051858e+05
  -3.569146e+05   1.130581e+04
  -1.122567e+05  -2.056026e+05
   1.322584e+05  -1.895698e+05
   1.571395e+05  -4.117041e+04
   3.808272e+04   6.340575e+04
  -4.147183e+04   7.160909e+04
  -2.272856e+04   4.530789e+04
   3.083105e+04   5.166240e+04
   3.827170e+04   1.096304e+05
  -5.556347e+04   1.723636e+05
  -2.347559e+05   1.307138e+05
  -3.554807e+05  -8.296547e+04
  -2.455288e+05  -3.541111e+05
   6.540005e+04  -4.421105e+05
   3.167627e+05  -2.479685e+05
   3.097188e+05   4.715730e+04
   1.413002e+05   1.897995e+05
   4.393893e+04   1.388492e+05
   7.233093e+04   5.485813e+04
   8.312235e+04   5.861172e+04
  -1.928075e+04   1.102924e+05
  -1.604384e+05   1.109093e+05
  -2.168280e+05   2.155852e+04
  -1.380511e+05  -1.209025e+05
   5.705811e+04  -2.207563e+05
   2.851036e+05  -1.575790e+05
   3.788862e+05   9.616280e+04
   1.965909e+05   3.709172e+05
  -1.809730e+05   4.159598e+05
  -4.603840e+05   1.745160e+05
  -4.286182e+05  -1.314217e+05
  -1.775704e+05  -2.507202e+05
   3.229329e+04  -1.757082e+05
   7.273020e+04  -9.816592e+04
   3.204919e+04  -1.442310e+05
   4.602154e+04  -2.395736e+05
   1.413101e+05  -2.262331e+05
   2.386833e+05  -4.404647e+04
   2.364183e+05   2.091269e+05
   9.080367e+04   3.527913e+05
  -1.238367e+05   2.655471e+05
  -2.389602e+05   1.979597e+03
  -1.441662e+05  -2.291090e+05
   7.281184e+04  -2.477362e+05
   1.992668e+05  -7.362375e+04
   1.305227e+05   1.138950e+05
  -2.233683e+04   1.770105e+05
  -8.161843e+04   1.352002e+05
  -1.165043e+04   8.541218e+04
   5.850523e+04   7.163753e+04
  -5.862597e+03   6.282726e+04
  -1.929614e+05   1.547967e+04
  -3.400057e+05  -7.967616e+04
  -2.767057e+05  -1.886344e+05
  -2.257877e+03  -2.437328e+05
   2.774950e+05  -1.882130e+05
   3.339704e+05  -4.469705e+04
   1.541251e+05   7.869548e+04
  -4.889725e+04   8.739515e+04
  -8.296282e+04   2.570870e+03
   2.216882e+04  -6.187079e+04
   1.006838e+05  -2.459230e+04
   7.430729e+04   7.941600e+04
   1.154335e+04   1.412117e+05
  -4.633703e+03   9.341878e+04
   2.340701e+04  -1.499680e+04
   4.601098e+04  -5.973953e+04
   2.815694e+04   2.558702e+04
  -4.438132e+04   1.552285e+05
  -1.521383e+05   1.660278e+05
  -2.097092e+05   9.648597e+03
  -1.199641e+05  -1.669857e+05
   8.558807e+04  -1.797574e+05
   2.175307e+05  -2.445791e+04
   1.182896e+05   1.207257e+05
  -1.352052e+05   1.057387e+05
  -2.885226e+05  -3.756108e+04
  -1.801949e+05  -1.635252e+05
   8.996820e+04  -1.743150e+05
   2.747038e+05  -8.231935e+04
   2.274313e+05   3.579894e+04
   2.662301e+04   9.634140e+04
  -1.174769e+05   5.409538e+04
  -6.688871e+04  -4.772913e+04
   1.120648e+05  -8.395983e+04
   2.117360e+05   3.339843e+04
   9.609591e+04   2.273579e+05
  -1.476552e+05   2.976262e+05
  -2.941416e+05   1.279776e+05
  -2.164568e+05  -1.665097e+05
  -5.005474e+03  -3.335674e+05
   1.531624e+05  -2.308960e+05
   1.646974e+05   3.359944e+04
   7.410998e+04   2.147856e+05
  -2.997894e+04   1.775684e+05
  -9.142198e+04   1.806927e+04
  -9.085578e+04  -6.972714e+04
  -4.400975e+04  -2.600342e+04
  -7.823202e+03   2.238321e+04
  -3.177060e+04  -4.874032e+04
  -7.754785e+04  -1.807318e+05
  -3.785726e+04  -2.046921e+05
   1.200444e+05  -6.621779e+04
   2.667803e+05   1.061348e+05
   2.338381e+05   1.693329e+05
   2.263214e+04   1.236707e+05
  -1.733487e+05   6.084914e+04
  -1.839514e+05   2.372266e+04
  -5.257109e+04  -9.467792e+03
   3.754434e+04  -4.116416e+04
   2.980940e+02  -4.256349e+04
  -5.918664e+04  -2.116122e+04
  -4.849462e+03  -1.953175e+04
   1.343045e+05  -2.951192e+04
   1.870643e+05   1.699376e+04
   4.896389e+04   1.300520e+05
  -1.840633e+05   1.966482e+05
  -3.117866e+05   1.018050e+05
  -2.315866e+05  -1.100573e+05
  -2.214541e+04  -2.606289e+05
   1.528614e+05  -2.290781e+05
   1.921316e+05  -7.280898e+04
   1.155491e+05   5.318901e+04
   1.644507e+04   6.227954e+04
  -2.347973e+04   4.405900e+03
   8.538340e+03  -1.001431e+04
   5.534791e+04   6.307113e+04
   4.414322e+04   1.472059e+05
  -4.013046e+04   1.219381e+05
  -1.270484e+05  -3.444436e+04
  -1.187719e+05  -1.921719e+05
   7.029218e+03  -1.924638e+05
   1.520621e+05  -2.357544e+04
   1.754792e+05   1.599722e+05
   3.722956e+04   2.033610e+05
  -1.422292e+05   1.012326e+05
  -1.930989e+05  -3.362751e+04
  -7.889753e+04  -1.063592e+05
   5.770646e+04  -1.044535e+05
   5.903827e+04  -6.041360e+04
  -5.716349e+04  -1.339069e+04
  -1.189155e+05  -5.571344e+03
  -1.580090e+04  -5.555329e+04
   1.602628e+05  -1.129725e+05
   2.263018e+05  -8.792492e+04
   1.235121e+05   3.653476e+04
  -3.273051e+04   1.533739e+05
  -1.039213e+05   1.408004e+05
  -6.781942e+04   1.164602e+04
   4.823908e+03  -9.312978e+04
   5.297855e+04  -6.730224e+04
   6.228842e+04   4.361156e+04
   3.506476e+04   1.088228e+05
  -2.012596e+04   6.700385e+04
  -7.120731e+04  -1.858656e+04
  -7.862285e+04  -5.157584e+04
  -4.151238e+04  -1.563573e+04
  -1.246565e+03   1.947678e+04
   1.258938e+04  -8.068889e+03
   1.687083e+04  -7.321731e+04
   4.018253e+04  -9.034814e+04
   7.118852e+04  -1.573362e+04
   6.466849e+04   9.106819e+04
  -9.855751e+02   1.236130e+05
  -8.461115e+04   4.512689e+04
  -1.084375e+05  -6.860370e+04
  -3.176325e+04  -1.112102e+05
   9.354511e+04  -5.572359e+04
   1.525032e+05   3.202965e+04
   7.855719e+04   7.631026e+04
  -6.059185e+04   6.153731e+04
  -1.198199e+05   2.206409e+04
  -3.902970e+04  -5.272818e+03
   7.805915e+04  -2.465952e+03
   8.158868e+04   2.924786e+04
  -4.316760e+04   6.059194e+04
  -1.561227e+05   4.041569e+04
