
 $NMID
 id='ANONYMOUS ', fmtdat='(2E16.6)'
 volume=1.0
 tramp=1.0
 $END
   5.954817e+07   4.963055e+05
   3.515414e+07   3.769646e+07
  -8.731668e+06   4.030935e+07
  -2.940707e+07   1.459505e+07
  -1.697970e+07  -8.139884e+06
   3.879931e+06  -9.723941e+06
   1.019630e+07   1.786693e+06
   2.446032e+06   1.033124e+07
  -6.802561e+06   9.353657e+06
  -1.009550e+07   1.700613e+06
  -7.202709e+06  -6.512870e+06
  -8.033909e+05  -8.871419e+06
   4.143223e+06  -2.902528e+06
   2.665863e+06   5.452041e+06
  -4.009980e+06   6.538237e+06
  -8.170555e+06  -1.628765e+06
  -4.439018e+06  -1.073190e+07
   4.155505e+06  -1.226407e+07
   1.067162e+07  -6.110781e+06
   1.140899e+07   2.170488e+06
   7.080170e+06   7.959072e+06
   7.411899e+05   9.332819e+06
  -3.339645e+06   6.533167e+06
  -2.376289e+06   2.660911e+06
   9.436340e+05   1.835766e+06
   4.200666e+05   4.059949e+06
  -5.316855e+06   4.603980e+06
  -9.860668e+06   6.981790e+05
  -7.359889e+06  -4.190771e+06
  -4.757649e+05  -5.314433e+06
   3.652919e+06  -2.867512e+06
   2.617445e+06  -2.912042e+05
  -2.632252e+05   8.043651e+05
  -1.986996e+06   6.329816e+05
  -2.239835e+06  -1.162881e+06
  -9.447983e+05  -3.894800e+06
   1.791246e+06  -4.101829e+06
   3.571366e+06  -3.897574e+04
   1.989632e+06   3.861457e+06
  -8.532507e+05   2.268112e+06
  -5.298489e+05  -2.329025e+06
   2.470150e+06  -2.279668e+06
   2.454899e+06   3.398547e+06
  -2.786498e+06   6.387533e+06
  -7.520652e+06   9.043104e+05
  -5.358942e+06  -7.445940e+06
   2.190811e+06  -8.999047e+06
   7.835326e+06  -2.473741e+06
   7.087537e+06   4.678059e+06
   1.730421e+06   6.189306e+06
  -3.601807e+06   2.652830e+06
  -5.268140e+06  -1.700288e+06
  -2.314224e+06  -3.625666e+06
   2.609394e+06  -2.197130e+06
   4.686194e+06   1.071942e+06
   1.943361e+06   2.889486e+06
  -1.824854e+06   1.402374e+06
  -1.722317e+06  -1.080889e+06
   1.492386e+06  -8.235185e+05
   2.512877e+06   2.064548e+06
  -9.172915e+05   3.708604e+06
  -5.062916e+06   1.866994e+06
  -5.536176e+06  -1.627988e+06
  -2.314179e+06  -4.243723e+06
   1.854532e+06  -5.449581e+06
   5.061647e+06  -5.014433e+06
   6.356901e+06  -1.867293e+06
   4.808080e+06   3.209653e+06
   1.012812e+06   6.343548e+06
  -2.000596e+06   4.829521e+06
  -1.871277e+06   1.073582e+06
  -4.172257e+04  -4.288026e+05
   2.842870e+05   9.816882e+05
  -1.442309e+06   1.968427e+06
  -2.827157e+06   4.540009e+05
  -2.147776e+06  -1.784264e+06
  -1.737211e+05  -2.102059e+06
   1.440500e+06  -2.664789e+05
   1.662606e+06   1.981165e+06
   6.057457e+04   2.927516e+06
  -2.775280e+06   1.754479e+06
  -4.624645e+06  -1.131412e+06
  -3.395816e+06  -3.874476e+06
   2.190243e+04  -4.449301e+06
   2.422748e+06  -2.866532e+06
   2.387912e+06  -1.145472e+06
   1.906837e+06  -6.231242e+05
   2.972781e+06  -4.214464e+05
   4.376016e+06   8.117843e+05
   3.492719e+06   2.804010e+06
   1.200199e+05   4.139397e+06
  -3.194344e+06   3.919451e+06
  -4.153440e+06   2.189943e+06
  -2.695535e+06  -3.425540e+05
  -3.704976e+05  -2.229756e+06
   1.041441e+06  -1.991299e+06
   5.793556e+05   7.442834e+03
  -1.068234e+06   1.334475e+06
  -1.937286e+06   4.095861e+05
  -9.651311e+05  -1.230068e+06
   4.908091e+05  -1.120749e+06
   3.772031e+05   3.932685e+05
  -1.140229e+06   6.064469e+05
  -1.837546e+06  -1.480658e+06
  -4.636235e+05  -3.603453e+06
   1.809221e+06  -3.306192e+06
   3.200213e+06  -8.879821e+05
   3.194649e+06   1.567199e+06
   2.146477e+06   2.723352e+06
   4.213152e+05   2.543338e+06
  -1.216794e+06   1.462652e+06
  -1.567023e+06   2.513097e+05
  -4.942349e+05  -4.579092e+04
   3.565115e+05   7.578110e+05
  -4.422744e+05   1.367703e+06
  -1.962317e+06   5.762036e+05
  -2.058477e+06  -9.389043e+05
  -3.587277e+05  -1.454349e+06
   1.189718e+06  -5.570012e+05
   8.571974e+05   4.608381e+05
  -8.729798e+05   4.594383e+05
  -2.131116e+06  -3.929610e+05
  -1.657660e+06  -1.356951e+06
   2.930522e+05  -1.911514e+06
   2.305816e+06  -1.608572e+06
   2.774036e+06  -2.554531e+05
   1.222654e+06   1.296210e+06
  -9.472349e+05   1.541465e+06
  -1.611302e+06   1.917493e+05
  -2.199791e+05  -1.112570e+06
   1.536867e+06  -7.457624e+05
   1.720138e+06   8.105988e+05
   2.952456e+05   1.662911e+06
  -1.129154e+06   9.351217e+05
  -1.245700e+06  -3.655127e+05
  -2.059194e+05  -7.993119e+05
   8.252481e+05  -4.244831e+04
   7.496515e+05   1.070149e+06
  -5.718206e+05   1.442129e+06
  -2.019674e+06   5.594280e+05
  -2.056615e+06  -1.052905e+06
  -3.827390e+05  -2.095917e+06
   1.468471e+06  -1.649324e+06
   1.742416e+06  -1.900955e+05
   4.845380e+05   8.827907e+05
  -6.733643e+05   7.942203e+05
  -6.141000e+05   8.020844e+04
   1.354939e+05  -3.179196e+05
   4.556525e+05  -1.686257e+05
   5.559994e+04   4.644970e+04
  -4.786929e+05  -1.422796e+05
  -4.919033e+05  -7.230051e+05
   2.468616e+05  -1.197146e+06
   1.404062e+06  -8.854901e+05
   2.091953e+06   4.277646e+05
   1.471834e+06   1.960035e+06
  -2.195352e+05   2.423028e+06
  -1.615140e+06   1.384109e+06
  -1.660537e+06  -1.512486e+05
  -8.134151e+05  -8.655593e+05
  -3.105742e+05  -5.789966e+05
  -5.228582e+05  -1.797677e+05
  -6.735781e+05  -3.384166e+05
  -9.300004e+04  -7.990500e+05
   8.960251e+05  -8.922298e+05
   1.442189e+06  -2.981984e+05
   1.017744e+06   7.144091e+05
  -2.726134e+05   1.421908e+06
  -1.722734e+06   1.044515e+06
  -2.238144e+06  -4.958989e+05
  -1.109318e+06  -2.115696e+06
   1.055570e+06  -2.371703e+06
   2.579387e+06  -1.000527e+06
   2.335193e+06   7.046583e+05
   9.005385e+05   1.341035e+06
  -2.334617e+05   8.974638e+05
  -3.525973e+05   4.713677e+05
  -1.853660e+04   7.688778e+05
  -7.924002e+04   1.353691e+06
  -6.883211e+05   1.320477e+06
  -1.319870e+06   3.260924e+05
  -1.352291e+06  -1.082235e+06
  -5.637415e+05  -1.900154e+06
   6.189811e+05  -1.443119e+06
   1.285362e+06   1.085397e+04
   8.007429e+05   1.306390e+06
  -4.241332e+05   1.400454e+06
  -1.198343e+06   3.655004e+05
  -8.110783e+05  -7.568205e+05
   1.668858e+05  -1.106008e+06
   5.872200e+05  -7.719860e+05
   1.033408e+05  -3.952653e+05
  -4.455928e+05  -3.271276e+05
  -6.685897e+04  -3.809115e+05
   1.169645e+06  -2.017570e+05
   2.093988e+06   3.475874e+05
   1.621442e+06   1.058687e+06
  -7.208997e+04   1.460334e+06
  -1.633479e+06   1.150819e+06
  -1.849370e+06   2.536269e+05
  -8.202620e+05  -5.367243e+05
   2.810194e+05  -5.887477e+05
   5.228829e+05  -1.529010e+04
   4.112596e+04   4.495119e+05
  -4.313337e+05   2.693853e+05
  -4.893928e+05  -3.421930e+05
  -2.892683e+05  -7.197295e+05
  -1.281063e+05  -4.821343e+05
  -1.314950e+05   7.315960e+04
  -2.517173e+05   2.685968e+05
  -2.699327e+05  -2.359578e+05
   1.227730e+05  -9.808800e+05
   9.032727e+05  -1.077900e+06
   1.408759e+06  -1.967091e+05
   8.973694e+05   9.191891e+05
  -4.174281e+05   1.176759e+06
  -1.288626e+06   3.727669e+05
  -7.449315e+05  -5.625688e+05
   7.120088e+05  -6.437670e+05
   1.576052e+06   1.127414e+05
   9.615457e+05   8.696315e+05
  -5.167465e+05   9.591508e+05
  -1.487822e+06   4.314592e+05
  -1.201071e+06  -2.139902e+05
  -1.169577e+05  -5.048604e+05
   6.538937e+05  -2.525098e+05
   3.971640e+05   3.074255e+05
  -5.693469e+05   5.471126e+05
  -1.195059e+06  -4.695993e+04
  -7.177361e+05  -1.170802e+06
   5.407856e+05  -1.732990e+06
   1.466126e+06  -9.284024e+05
   1.269142e+06   7.365262e+05
   2.212968e+05   1.786793e+06
  -7.319762e+05   1.279925e+06
  -9.178906e+05  -1.975969e+05
  -4.098608e+05  -1.193227e+06
   2.491898e+05  -9.480421e+05
   5.721396e+05  -7.041186e+04
   4.428885e+05   3.669860e+05
   1.357491e+05   1.242870e+05
   5.878526e+04  -8.528259e+04
   3.231396e+05   3.194087e+05
   5.317673e+05   9.759680e+05
   1.612268e+05   1.068943e+06
  -7.554194e+05   3.887039e+05
  -1.474552e+06  -4.549657e+05
  -1.252257e+06  -8.269802e+05
  -1.846576e+05  -7.060253e+05
   8.208085e+05  -4.333151e+05
   9.718660e+05  -1.785192e+05
   3.872946e+05   7.255699e+04
  -1.316848e+05   2.321655e+05
  -7.087209e+04   1.827974e+05
   2.271931e+05   6.566058e+04
   6.888518e+04   1.321073e+05
  -6.177807e+05   2.650374e+05
  -1.057967e+06   1.382314e+04
  -5.056579e+05  -7.030298e+05
   7.915112e+05  -1.224158e+06
   1.729889e+06  -8.120487e+05
   1.480345e+06   3.940302e+05
   3.144881e+05   1.403077e+06
  -7.644945e+05   1.406920e+06
  -1.050803e+06   5.863176e+05
  -6.581025e+05  -1.983450e+05
  -1.590255e+05  -3.608088e+05
   3.362471e+04  -9.777038e+04
  -9.300152e+04  -1.357406e+04
  -2.852144e+05  -3.769870e+05
  -2.422263e+05  -8.075033e+05
   1.611853e+05  -6.962834e+05
   6.807412e+05   7.862817e+04
   7.893464e+05   9.159303e+05
   1.847219e+05   1.044576e+06
  -7.289002e+05   3.093658e+05
  -1.072454e+06  -6.654431e+05
  -4.004984e+05  -1.094221e+06
   6.999004e+05  -7.292048e+05
   1.150033e+06   4.277588e+04
   5.693698e+05   6.392750e+05
  -2.826278e+05   7.285889e+05
  -4.129146e+05   3.837222e+05
   2.090665e+05  -1.501228e+04
   6.421610e+05  -5.949611e+04
   1.670290e+05   3.163198e+05
  -8.172544e+05   6.921608e+05
  -1.289738e+06   5.319335e+05
  -8.089843e+05  -2.006922e+05
   7.802746e+04  -8.932737e+05
   5.773572e+05  -8.858588e+05
   4.696169e+05  -1.982325e+05
   8.752539e+04   4.652470e+05
  -2.256518e+05   4.665788e+05
  -3.578677e+05  -1.025629e+05
  -2.737516e+05  -5.745659e+05
   3.655738e+04  -4.669210e+05
   3.973412e+05   1.984986e+04
   4.957207e+05   3.004632e+05
   2.444401e+05   1.161938e+05
  -5.484920e+04  -1.822229e+05
  -7.981085e+04  -1.048221e+05
   7.563155e+04   3.345832e+05
   3.529566e+04   6.035127e+05
  -2.969763e+05   3.003005e+05
  -5.253551e+05  -3.286601e+05
  -2.427353e+05  -6.474305e+05
   3.850201e+05  -3.470503e+05
   7.036591e+05   2.415076e+05
   2.904584e+05   5.567585e+05
  -5.147799e+05   3.845634e+05
  -9.152483e+05  -3.922959e+04
  -5.030300e+05  -3.688362e+05
   2.885656e+05  -4.399673e+05
   6.515491e+05  -2.809325e+05
   2.838798e+05  -2.848616e+04
  -3.047283e+05   1.131521e+05
  -3.976550e+05  -7.522332e+03
   1.235448e+05  -2.726905e+05
   6.814857e+05  -2.974160e+05
