
 $NMID
 id='ANONYMOUS ', fmtdat='(2E16.6)'
 volume=1.0
 tramp=1.0
 $END
   2.517540e+07   1.130647e+06
   1.600698e+07   1.287067e+07
  -1.077251e+06   1.593163e+07
  -1.133668e+07   9.701935e+06
  -8.893844e+06   3.556248e+05
  -2.133994e+05  -4.462396e+06
   5.056315e+06  -1.856330e+06
   3.469144e+06   4.145802e+06
  -1.509872e+06   6.634222e+06
  -4.758215e+06   2.752937e+06
  -3.913493e+06  -3.381576e+06
  -3.382199e+05  -5.223502e+06
   2.461518e+06  -1.039583e+06
   1.799189e+06   4.311910e+06
  -1.629527e+06   4.949366e+06
  -4.177136e+06   2.514780e+05
  -2.877761e+06  -5.041895e+06
   1.416091e+06  -6.171063e+06
   4.937811e+06  -2.783973e+06
   4.883652e+06   1.640546e+06
   2.009128e+06   3.673182e+06
  -4.909709e+05   2.888581e+06
  -3.310593e+05   1.540693e+06
   1.589765e+06   1.811453e+06
   2.121885e+06   3.446774e+06
  -6.932817e+05   4.147813e+06
  -5.027958e+06   2.293840e+06
  -6.689583e+06  -1.073616e+06
  -3.636028e+06  -3.282456e+06
   1.408810e+06  -2.757892e+06
   3.656736e+06  -3.407146e+05
   1.404786e+06   1.781438e+06
  -2.381684e+06   1.891558e+06
  -3.699779e+06  -1.644929e+05
  -1.754969e+06  -2.793183e+06
   9.196418e+05  -3.603808e+06
   1.772757e+06  -1.594999e+06
   7.030291e+05   1.293553e+06
  -5.473861e+05   1.844492e+06
  -5.184196e+05  -5.958035e+05
   7.245508e+05  -2.921162e+06
   1.897750e+06  -1.958852e+06
   1.674073e+06   1.359821e+06
  -1.069003e+05   2.987727e+06
  -2.015104e+06   8.227663e+05
  -2.044373e+06  -2.710669e+06
   4.224842e+05  -3.675978e+06
   3.563280e+06  -1.098829e+06
   4.465576e+06   2.413783e+06
   1.944890e+06   3.807019e+06
  -2.019179e+06   2.369442e+06
  -3.996868e+06  -2.621463e+05
  -2.442333e+06  -1.906387e+06
   8.092847e+05  -1.546674e+06
   2.522401e+06   6.373193e+04
   1.405361e+06   1.188791e+06
  -7.849704e+05   7.796337e+05
  -1.448528e+06  -5.118970e+05
  -5.569969e+04  -1.144640e+06
   1.456194e+06  -4.276869e+05
   1.052864e+06   8.244743e+05
  -1.039592e+06   1.265310e+06
  -2.547170e+06   2.834983e+05
  -1.575549e+06  -1.591577e+06
   1.389858e+06  -3.047448e+06
   3.952367e+06  -2.757073e+06
   4.154135e+06  -4.429336e+05
   2.239711e+06   2.514827e+06
   1.059523e+05   4.035343e+06
  -7.759681e+05   3.355129e+06
  -6.437976e+05   1.779465e+06
  -7.144901e+05   1.004803e+06
  -1.562395e+06   1.050367e+06
  -2.507532e+06   5.278691e+05
  -2.464267e+06  -1.146211e+06
  -1.094023e+06  -2.639604e+06
   8.518343e+05  -2.215737e+06
   2.065091e+06   8.879313e+04
   1.595043e+06   2.318598e+06
  -3.559655e+05   2.561735e+06
  -2.358956e+06   7.410648e+05
  -2.816281e+06  -1.530353e+06
  -1.453647e+06  -2.594746e+06
   3.700757e+05  -2.147316e+06
   1.149353e+06  -1.175119e+06
   9.170819e+05  -7.283296e+05
   1.033205e+06  -8.509482e+05
   2.246429e+06  -6.978195e+05
   3.458200e+06   4.135988e+05
   2.848202e+06   2.171309e+06
   1.071551e+05   3.441224e+06
  -2.880683e+06   3.191973e+06
  -3.781730e+06   1.373510e+06
  -2.112610e+06  -8.914483e+05
   3.433806e+05  -2.040549e+06
   1.367689e+06  -1.367523e+06
   4.191961e+05   2.190227e+05
  -1.096079e+06   9.922814e+05
  -1.489970e+06   2.318399e+05
  -5.091357e+05  -9.478108e+05
   6.266824e+05  -9.456345e+05
   6.617759e+05   2.834705e+05
  -4.340959e+05   1.055121e+06
  -1.539520e+06  -8.751381e+03
  -1.454057e+06  -2.193653e+06
   9.592376e+04  -3.338610e+06
   2.203752e+06  -2.140048e+06
   3.375769e+06   5.196184e+05
   2.665775e+06   2.538395e+06
   5.745135e+05   2.620936e+06
  -1.237732e+06   1.278475e+06
  -1.458408e+06   5.116249e+04
  -4.234625e+05  -5.081070e+04
   3.062263e+05   6.379491e+05
  -2.557203e+05   1.012005e+06
  -1.399485e+06   4.479607e+05
  -1.610481e+06  -5.716762e+05
  -4.228924e+05  -1.045774e+06
   9.494495e+05  -5.418945e+05
   9.376724e+05   3.775309e+05
  -6.024402e+05   7.382285e+05
  -2.125422e+06   6.922659e+04
  -1.947150e+06  -1.183536e+06
   4.771121e+03  -2.006752e+06
   2.059711e+06  -1.637927e+06
   2.442156e+06  -2.693793e+05
   1.001654e+06   9.946696e+05
  -7.278454e+05   1.094179e+06
  -1.128882e+06   9.384613e+04
  -4.207020e+04  -8.138039e+05
   1.266917e+06  -5.654665e+05
   1.481664e+06   5.938847e+05
   4.573847e+05   1.400735e+06
  -7.921308e+05   1.019630e+06
  -1.135455e+06  -4.743605e+04
  -3.778505e+05  -5.963294e+05
   5.681877e+05  -7.429835e+04
   5.640916e+05   8.808994e+05
  -5.688076e+05   1.174464e+06
  -1.749308e+06   3.594581e+05
  -1.690110e+06  -9.718875e+05
  -2.921240e+05  -1.753976e+06
   1.187929e+06  -1.384406e+06
   1.454983e+06  -2.310740e+05
   4.997208e+05   7.118892e+05
  -5.339183e+05   7.339883e+05
  -6.578061e+05   4.542075e+04
   1.347907e+04  -5.083933e+05
   5.875124e+05  -3.787559e+05
   4.291683e+05   1.144041e+05
  -2.192011e+05   2.094892e+05
  -5.358369e+05  -3.582701e+05
   3.091959e+04  -9.804823e+05
   1.142483e+06  -7.972361e+05
   1.785445e+06   3.558331e+05
   1.220822e+06   1.684679e+06
  -2.304413e+05   2.133122e+06
  -1.448116e+06   1.347045e+06
  -1.614402e+06  -1.987599e+04
  -9.570996e+05  -9.317954e+05
  -3.348381e+05  -9.149125e+05
  -2.287686e+05  -4.096382e+05
  -3.222142e+05  -1.995776e+05
  -3.674961e+04  -5.205225e+05
   7.017847e+05  -8.073449e+05
   1.303237e+06  -3.779293e+05
   1.060494e+06   6.821528e+05
  -1.337767e+05   1.445424e+06
  -1.530745e+06   1.037300e+06
  -2.018831e+06  -4.162195e+05
  -1.060244e+06  -1.803787e+06
   7.443553e+05  -2.025329e+06
   2.095583e+06  -9.778265e+05
   2.116110e+06   4.261453e+05
   1.063265e+06   1.169644e+06
  -5.714043e+04   1.035040e+06
  -4.999644e+05   6.356492e+05
  -3.591863e+05   6.257862e+05
  -2.482507e+05   9.591469e+05
  -5.551259e+05   9.770358e+05
  -1.039385e+06   2.119686e+05
  -1.100177e+06  -9.798379e+05
  -4.261520e+05  -1.667148e+06
   5.921323e+05  -1.237694e+06
   1.135817e+06  -1.131427e+04
   7.336520e+05   1.046638e+06
  -2.285005e+05   1.193142e+06
  -8.620070e+05   4.935287e+05
  -6.753901e+05  -3.734979e+05
  -4.573588e+04  -7.957115e+05
   2.647159e+05  -7.014985e+05
  -5.671397e+03  -4.477519e+05
  -3.296360e+05  -3.468838e+05
  -1.847326e+04  -3.536120e+05
   9.266307e+05  -1.909760e+05
   1.681292e+06   2.795057e+05
   1.385244e+06   8.548190e+05
   7.454253e+04   1.146206e+06
  -1.244397e+06   9.188810e+05
  -1.540556e+06   3.062036e+05
  -7.662999e+05  -2.676040e+05
   1.658498e+05  -4.074758e+05
   3.982496e+05  -9.295909e+04
  -3.460217e+04   2.600428e+05
  -4.469782e+05   1.833810e+05
  -3.904154e+05  -3.107231e+05
  -7.443524e+04  -6.702163e+05
   4.900100e+04  -4.264676e+05
  -1.371201e+05   1.695762e+05
  -3.503571e+05   3.596939e+05
  -2.604029e+05  -1.929677e+05
   2.075521e+05  -8.996352e+05
   7.973271e+05  -8.850905e+05
   1.035431e+06  -3.987097e+04
   5.702003e+05   8.171468e+05
  -3.842152e+05   8.615659e+05
  -1.013148e+06   1.427545e+05
  -6.061325e+05  -5.567169e+05
   5.920348e+05  -5.778938e+05
   1.442888e+06   4.292359e+04
   1.034862e+06   7.412353e+05
  -3.162925e+05   9.642681e+05
  -1.357226e+06   5.720390e+05
  -1.194025e+06  -9.653806e+04
  -1.742421e+05  -4.844671e+05
   5.593417e+05  -2.852197e+05
   2.892562e+05   2.241747e+05
  -5.828812e+05   3.811764e+05
  -1.020429e+06  -1.932731e+05
  -4.436131e+05  -1.098316e+06
   6.942501e+05  -1.427870e+06
   1.388970e+06  -6.529314e+05
   1.078404e+06   7.470191e+05
   1.145417e+05   1.614555e+06
  -6.900139e+05   1.192102e+06
  -8.387507e+05  -1.001536e+05
  -4.357873e+05  -1.055401e+06
   1.137435e+05  -9.142575e+05
   4.688505e+05  -1.064532e+05
   4.799054e+05   3.649439e+05
   2.257432e+05   1.546723e+05
   1.335875e+04  -1.102995e+05
   1.200406e+05   2.075939e+05
   3.822220e+05   8.421709e+05
   2.444770e+05   9.811979e+05
  -5.259892e+05   3.534233e+05
  -1.312344e+06  -4.523771e+05
  -1.209775e+06  -7.752228e+05
  -1.586163e+05  -6.032386e+05
   8.499469e+05  -3.380343e+05
   9.085636e+05  -1.675237e+05
   2.488409e+05   5.065184e+03
  -1.673177e+05   1.863565e+05
   5.965361e+04   2.315188e+05
   3.345102e+05   1.493235e+05
   2.063546e+02   1.248619e+05
  -7.022568e+05   1.464154e+05
  -9.102194e+05  -7.498814e+04
  -2.085051e+05  -6.051839e+05
   8.784488e+05  -9.476845e+05
   1.454439e+06  -5.359926e+05
   1.102763e+06   4.843024e+05
   1.538796e+05   1.266989e+06
  -6.961089e+05   1.153670e+06
  -9.409825e+05   3.696224e+05
  -5.836626e+05  -2.842211e+05
  -6.213523e+04  -3.182661e+05
   1.501076e+05   4.588629e+03
  -4.100459e+04   8.038025e+04
  -2.994128e+05  -3.053003e+05
  -2.300310e+05  -7.215490e+05
   2.018810e+05  -5.710083e+05
   6.145261e+05   1.975647e+05
   5.580813e+05   9.292578e+05
  -4.179228e+04   9.011406e+05
  -7.289124e+05   9.832757e+04
  -8.534723e+05  -7.579919e+05
  -2.051211e+05  -9.670519e+05
   6.677200e+05  -5.010802e+05
   9.362521e+05   1.336773e+05
   3.934272e+05   4.949317e+05
  -2.703334e+05   5.023268e+05
  -2.713502e+05   2.912608e+05
   3.007380e+05   5.099807e+04
   5.957213e+05   3.538238e+03
   8.893144e+04   2.601768e+05
  -7.528118e+05   5.792648e+05
  -1.059074e+06   4.935334e+05
  -5.826344e+05  -1.175513e+05
   1.243870e+05  -7.289174e+05
   4.449566e+05  -7.005269e+05
   2.970150e+05  -6.749421e+04
  -1.547846e+04   4.579192e+05
  -2.423930e+05   3.290980e+05
  -3.082386e+05  -2.171570e+05
  -1.899132e+05  -5.210895e+05
   8.197316e+04  -3.061234e+05
   3.390302e+05   8.703956e+04
   3.828459e+05   2.132361e+05
   2.097848e+05   4.773310e+04
   1.229852e+04  -7.468194e+04
  -7.170118e+04   7.946612e+04
  -1.072264e+05   3.583209e+05
  -2.109026e+05   3.988665e+05
  -3.346196e+05   4.356942e+04
  -2.886764e+05  -4.393179e+05
   1.961586e+04  -5.867117e+05
   4.094342e+05  -2.235117e+05
   5.237393e+05   3.214220e+05
   1.621446e+05   5.447895e+05
  -4.391129e+05   2.910143e+05
  -7.298259e+05  -1.347119e+05
  -3.846577e+05  -3.534235e+05
   2.741215e+05  -2.850167e+05
   5.511386e+05  -1.070682e+05
   1.629676e+05   5.080467e+03
  -3.883807e+05  -1.462039e+04
  -3.873834e+05  -1.559477e+05
   2.271146e+05  -2.984051e+05
   7.750496e+05  -2.046003e+05
