
 $NMID
 id='ANONYMOUS ', fmtdat='(2E16.6)'
 volume=1.0
 tramp=1.0
 $END
   5.698358e+07  -1.564061e+06
   3.538320e+07   3.483686e+07
  -6.696740e+06   3.913760e+07
  -2.796694e+07   1.532187e+07
  -1.703696e+07  -7.172132e+06
   3.311494e+06  -9.663389e+06
   1.014088e+07   1.286651e+06
   2.862933e+06   1.005028e+07
  -6.388449e+06   9.488366e+06
  -9.848705e+06   2.045409e+06
  -7.114287e+06  -6.111679e+06
  -9.306036e+05  -8.554054e+06
   3.889042e+06  -2.844354e+06
   2.578977e+06   5.309407e+06
  -3.831799e+06   6.532391e+06
  -8.021627e+06  -1.296281e+06
  -4.633066e+06  -1.025733e+07
   3.634002e+06  -1.198550e+07
   1.005528e+07  -6.196434e+06
   1.093774e+07   1.725959e+06
   6.977852e+06   7.295020e+06
   1.100956e+06   8.777196e+06
  -2.787857e+06   6.420653e+06
  -2.112306e+06   2.934629e+06
   7.905034e+05   2.046994e+06
   2.499343e+05   3.919585e+06
  -5.120308e+06   4.334281e+06
  -9.422923e+06   6.837289e+05
  -7.074918e+06  -3.893790e+06
  -5.025077e+05  -4.940645e+06
   3.426861e+06  -2.613927e+06
   2.320738e+06  -2.365525e+05
  -5.060041e+05   6.337723e+05
  -1.994065e+06   3.612996e+05
  -1.996387e+06  -1.244238e+06
  -7.697748e+05  -3.671814e+06
   1.614421e+06  -3.881985e+06
   3.243470e+06  -1.726492e+05
   1.944526e+06   3.500855e+06
  -5.882901e+05   2.102309e+06
  -3.403838e+05  -2.222343e+06
   2.434924e+06  -2.238364e+06
   2.514321e+06   3.231294e+06
  -2.416415e+06   6.343466e+06
  -7.155854e+06   1.273312e+06
  -5.429059e+06  -6.900093e+06
   1.742410e+06  -8.744044e+06
   7.439978e+06  -2.622834e+06
   6.991442e+06   4.407053e+06
   1.820401e+06   6.058547e+06
  -3.512623e+06   2.686234e+06
  -5.251166e+06  -1.599662e+06
  -2.386730e+06  -3.563060e+06
   2.470511e+06  -2.261300e+06
   4.597800e+06   8.964734e+05
   1.999084e+06   2.758831e+06
  -1.719305e+06   1.417145e+06
  -1.722341e+06  -1.051849e+06
   1.444753e+06  -9.554300e+05
   2.634696e+06   1.859057e+06
  -5.939796e+05   3.692285e+06
  -4.774040e+06   2.105005e+06
  -5.472251e+06  -1.333750e+06
  -2.419551e+06  -4.034984e+06
   1.694851e+06  -5.265491e+06
   4.838197e+06  -4.832176e+06
   6.070470e+06  -1.843687e+06
   4.612948e+06   2.991293e+06
   1.037340e+06   6.084209e+06
  -1.877887e+06   4.776871e+06
  -1.882804e+06   1.181577e+06
  -2.140620e+05  -4.160937e+05
   1.504510e+05   7.937033e+05
  -1.385329e+06   1.726960e+06
  -2.626088e+06   3.321028e+05
  -1.938986e+06  -1.756330e+06
  -5.457406e+04  -1.986699e+06
   1.430237e+06  -1.467966e+05
   1.560840e+06   2.011921e+06
   5.094876e+03   2.836786e+06
  -2.662614e+06   1.657847e+06
  -4.411036e+06  -1.067176e+06
  -3.293219e+06  -3.647681e+06
  -8.806163e+04  -4.241903e+06
   2.224120e+06  -2.816757e+06
   2.267716e+06  -1.203870e+06
   1.877442e+06  -6.728339e+05
   2.940597e+06  -4.357396e+05
   4.302102e+06   7.919298e+05
   3.419530e+06   2.757824e+06
   9.111487e+04   4.060293e+06
  -3.163159e+06   3.795665e+06
  -4.059336e+06   2.062242e+06
  -2.572204e+06  -3.735857e+05
  -2.941849e+05  -2.132745e+06
   1.032462e+06  -1.879054e+06
   5.432296e+05   1.633227e+04
  -1.055537e+06   1.274159e+06
  -1.884826e+06   3.955108e+05
  -9.301158e+05  -1.178603e+06
   5.020292e+05  -1.074587e+06
   3.910523e+05   4.209862e+05
  -1.149801e+06   6.698619e+05
  -1.917216e+06  -1.397903e+06
  -5.712355e+05  -3.601224e+06
   1.778673e+06  -3.405786e+06
   3.261494e+06  -9.729741e+05
   3.241295e+06   1.588186e+06
   2.107091e+06   2.789238e+06
   3.571501e+05   2.547107e+06
  -1.221435e+06   1.406533e+06
  -1.530691e+06   2.116204e+05
  -4.837351e+05  -5.017741e+04
   3.444664e+05   7.467956e+05
  -4.235878e+05   1.342854e+06
  -1.912064e+06   5.742895e+05
  -2.028295e+06  -9.122749e+05
  -3.659879e+05  -1.432311e+06
   1.175988e+06  -5.470833e+05
   8.505866e+05   4.798116e+05
  -8.882084e+05   4.768243e+05
  -2.146524e+06  -4.134229e+05
  -1.642005e+06  -1.402175e+06
   3.291857e+05  -1.919513e+06
   2.309804e+06  -1.564153e+06
   2.735018e+06  -2.216488e+05
   1.198130e+06   1.273021e+06
  -9.165374e+05   1.501258e+06
  -1.563143e+06   1.954312e+05
  -2.122028e+05  -1.072023e+06
   1.505669e+06  -7.194855e+05
   1.692464e+06   8.068692e+05
   2.885014e+05   1.655166e+06
  -1.129945e+06   9.379366e+05
  -1.250836e+06  -3.625346e+05
  -2.152089e+05  -8.024821e+05
   8.068202e+05  -5.063200e+04
   7.257874e+05   1.047422e+06
  -5.725014e+05   1.399333e+06
  -1.976894e+06   5.224672e+05
  -1.998746e+06  -1.049016e+06
  -3.590464e+05  -2.055579e+06
   1.450224e+06  -1.611762e+06
   1.717678e+06  -1.783581e+05
   4.770600e+05   8.775727e+05
  -6.714933e+05   7.812431e+05
  -6.087167e+05   5.862812e+04
   1.541081e+05  -3.342904e+05
   4.834159e+05  -1.542955e+05
   6.746594e+04   8.887464e+04
  -4.918599e+05  -1.065904e+05
  -5.090941e+05  -7.117036e+05
   2.388607e+05  -1.188992e+06
   1.387258e+06  -8.648317e+05
   2.050807e+06   4.377965e+05
   1.424529e+06   1.934140e+06
  -2.458398e+05   2.376015e+06
  -1.618548e+06   1.346653e+06
  -1.650850e+06  -1.772205e+05
  -7.856841e+05  -8.943879e+05
  -2.607176e+05  -6.014544e+05
  -4.736038e+05  -1.730315e+05
  -6.533905e+05  -3.074919e+05
  -9.824786e+04  -7.719501e+05
   8.887214e+05  -8.767869e+05
   1.434826e+06  -2.793207e+05
   9.958020e+05   7.338033e+05
  -2.983749e+05   1.416163e+06
  -1.718479e+06   1.012001e+06
  -2.199439e+06  -5.171720e+05
  -1.076894e+06  -2.098141e+06
   1.048539e+06  -2.335057e+06
   2.547795e+06  -9.772025e+05
   2.310972e+06   7.151759e+05
   8.859871e+05   1.355845e+06
  -2.566506e+05   9.082930e+05
  -3.850059e+05   4.522108e+05
  -4.075453e+04   7.180180e+05
  -7.966698e+04   1.299081e+06
  -6.703111e+05   1.285350e+06
  -1.287065e+06   3.137593e+05
  -1.309381e+06  -1.071922e+06
  -5.291159e+05  -1.867272e+06
   6.244542e+05  -1.405160e+06
   1.266010e+06   2.471339e+04
   7.843760e+05   1.290860e+06
  -4.210967e+05   1.384603e+06
  -1.189260e+06   3.746851e+05
  -8.163925e+05  -7.333550e+05
   1.480766e+05  -1.095286e+06
   5.745316e+05  -7.791381e+05
   1.109844e+05  -4.028079e+05
  -4.248197e+05  -3.236626e+05
  -5.719700e+04  -3.721500e+05
   1.147955e+06  -1.960556e+05
   2.048454e+06   3.479341e+05
   1.587497e+06   1.050997e+06
  -6.584078e+04   1.441288e+06
  -1.598965e+06   1.127175e+06
  -1.824850e+06   2.415698e+05
  -8.236258e+05  -5.303245e+05
   2.673014e+05  -5.777798e+05
   5.189252e+05  -1.969649e+04
   4.508137e+04   4.277176e+05
  -4.254988e+05   2.500123e+05
  -4.740069e+05  -3.385500e+05
  -2.623614e+05  -6.946650e+05
  -1.112282e+05  -4.591649e+05
  -1.420185e+05   7.400901e+04
  -2.701871e+05   2.548547e+05
  -2.653294e+05  -2.365551e+05
   1.412341e+05  -9.547381e+05
   8.940626e+05  -1.045544e+06
   1.362353e+06  -1.906338e+05
   8.586832e+05   8.921119e+05
  -4.071423e+05   1.140783e+06
  -1.245665e+06   3.537007e+05
  -7.168989e+05  -5.600715e+05
   7.067071e+05  -6.288778e+05
   1.557070e+06   1.315972e+05
   9.482184e+05   8.839608e+05
  -5.236992e+05   9.577907e+05
  -1.489986e+06   4.128201e+05
  -1.195312e+06  -2.330821e+05
  -1.090404e+05  -5.071942e+05
   6.513138e+05  -2.458940e+05
   3.883540e+05   2.980884e+05
  -5.603431e+05   5.174808e+05
  -1.157202e+06  -6.511510e+04
  -6.748732e+05  -1.143971e+06
   5.538233e+05  -1.670009e+06
   1.440927e+06  -8.767691e+05
   1.227126e+06   7.403230e+05
   1.882619e+05   1.753462e+06
  -7.436321e+05   1.248934e+06
  -9.093865e+05  -2.039041e+05
  -3.928553e+05  -1.185788e+06
   2.581635e+05  -9.443856e+05
   5.658992e+05  -6.865073e+04
   4.319337e+05   3.773842e+05
   1.333291e+05   1.370681e+05
   6.024697e+04  -8.904522e+04
   3.124092e+05   2.969374e+05
   5.085610e+05   9.560115e+05
   1.477995e+05   1.065521e+06
  -7.406465e+05   3.882474e+05
  -1.440045e+06  -4.686585e+05
  -1.222816e+06  -8.410812e+05
  -1.750385e+05  -6.948647e+05
   8.146591e+05  -4.011763e+05
   9.615804e+05  -1.594819e+05
   3.808219e+05   6.317378e+04
  -1.331752e+05   2.205292e+05
  -7.223200e+04   1.952526e+05
   2.207396e+05   8.592195e+04
   6.198711e+04   1.249720e+05
  -6.103686e+05   2.325072e+05
  -1.030290e+06  -1.274835e+03
  -4.773307e+05  -6.721877e+05
   7.891660e+05  -1.168764e+06
   1.688181e+06  -7.754988e+05
   1.425812e+06   3.917065e+05
   2.829507e+05   1.372364e+06
  -7.605048e+05   1.367376e+06
  -1.025842e+06   5.545894e+05
  -6.338163e+05  -2.090963e+05
  -1.478186e+05  -3.486628e+05
   3.162631e+04  -7.844289e+04
  -9.841183e+04  -5.143019e+03
  -2.814548e+05  -3.773738e+05
  -2.287060e+05  -7.990114e+05
   1.655359e+05  -6.743004e+05
   6.561729e+05   9.379923e+04
   7.454371e+05   9.025202e+05
   1.601224e+05   1.007332e+06
  -7.073492e+05   2.772370e+05
  -1.024207e+06  -6.669554e+05
  -3.725801e+05  -1.065651e+06
   6.850686e+05  -6.958064e+05
   1.116200e+06   5.289247e+04
   5.533495e+05   6.203416e+05
  -2.732997e+05   7.031644e+05
  -4.005282e+05   3.793191e+05
   2.056661e+05   3.111855e+03
   6.280382e+05  -4.488377e+04
   1.592036e+05   3.059992e+05
  -8.102936e+05   6.660403e+05
  -1.272538e+06   5.172919e+05
  -7.919107e+05  -1.901876e+05
   8.426047e+04  -8.685115e+05
   5.662885e+05  -8.663554e+05
   4.466575e+05  -1.953907e+05
   7.062690e+04   4.517003e+05
  -2.213583e+05   4.471444e+05
  -3.373738e+05  -1.113175e+05
  -2.581312e+05  -5.637137e+05
   3.341075e+04  -4.477620e+05
   3.827592e+05   2.686105e+04
   4.861773e+05   2.928365e+05
   2.442458e+05   1.134889e+05
  -5.719650e+04  -1.688665e+05
  -9.482478e+04  -9.460087e+04
   5.436958e+04   3.156783e+05
   2.779765e+04   5.618018e+05
  -2.770372e+05   2.721299e+05
  -4.878258e+05  -3.198270e+05
  -2.165365e+05  -6.165294e+05
   3.781139e+05  -3.250470e+05
   6.726538e+05   2.418586e+05
   2.683972e+05   5.442531e+05
  -5.049412e+05   3.709525e+05
  -8.850015e+05  -4.695594e+04
  -4.841720e+05  -3.641093e+05
   2.794905e+05  -4.215306e+05
   6.283258e+05  -2.632047e+05
   2.715525e+05  -3.190282e+04
  -2.959508e+05   8.918364e+04
  -3.777654e+05  -2.406244e+04
   1.371143e+05  -2.578797e+05
   6.773560e+05  -2.635627e+05
