
 $NMID
 id='ANONYMOUS ', fmtdat='(2E16.6)'
 volume=1.0
 tramp=1.0
 $END
   5.833690e+07   8.803960e+05
   3.410012e+07   3.709699e+07
  -8.834806e+06   3.933495e+07
  -2.879222e+07   1.408177e+07
  -1.647226e+07  -8.020536e+06
   3.858355e+06  -9.447261e+06
   9.915996e+06   1.789862e+06
   2.331519e+06   1.007476e+07
  -6.653248e+06   9.095484e+06
  -9.849342e+06   1.618224e+06
  -7.025109e+06  -6.411574e+06
  -7.568954e+05  -8.699599e+06
   4.090314e+06  -2.823449e+06
   2.629777e+06   5.359408e+06
  -3.914064e+06   6.390136e+06
  -7.968694e+06  -1.623764e+06
  -4.294879e+06  -1.051055e+07
   4.116751e+06  -1.197139e+07
   1.047778e+07  -5.922026e+06
   1.116898e+07   2.201209e+06
   6.879019e+06   7.864042e+06
   6.296502e+05   9.155098e+06
  -3.340285e+06   6.334127e+06
  -2.308779e+06   2.517717e+06
   9.984767e+05   1.769527e+06
   4.477500e+05   4.018257e+06
  -5.246191e+06   4.553501e+06
  -9.716261e+06   6.761076e+05
  -7.221470e+06  -4.154246e+06
  -4.260679e+05  -5.257886e+06
   3.641302e+06  -2.833064e+06
   2.621091e+06  -2.595720e+05
  -2.363683e+05   8.586393e+05
  -1.978218e+06   6.818502e+05
  -2.248158e+06  -1.142232e+06
  -9.407678e+05  -3.861001e+06
   1.789436e+06  -4.025226e+06
   3.523050e+06   1.844064e+04
   1.916606e+06   3.834308e+06
  -8.943082e+05   2.210364e+06
  -5.507207e+05  -2.321910e+06
   2.409971e+06  -2.245142e+06
   2.380735e+06   3.328058e+06
  -2.758141e+06   6.211782e+06
  -7.353313e+06   8.079837e+05
  -5.188551e+06  -7.332263e+06
   2.202499e+06  -8.787316e+06
   7.689807e+06  -2.380895e+06
   6.933304e+06   4.589413e+06
   1.694310e+06   6.046306e+06
  -3.515796e+06   2.594003e+06
  -5.146310e+06  -1.650905e+06
  -2.255962e+06  -3.529144e+06
   2.558522e+06  -2.127847e+06
   4.576305e+06   1.068403e+06
   1.881461e+06   2.830020e+06
  -1.796177e+06   1.362307e+06
  -1.684088e+06  -1.053481e+06
   1.445624e+06  -7.834163e+05
   2.415604e+06   2.023097e+06
  -9.366931e+05   3.586223e+06
  -4.952240e+06   1.769547e+06
  -5.384163e+06  -1.619222e+06
  -2.235845e+06  -4.152224e+06
   1.831743e+06  -5.342575e+06
   4.977614e+06  -4.928717e+06
   6.251899e+06  -1.825560e+06
   4.718528e+06   3.173741e+06
   9.835786e+05   6.232858e+06
  -1.955776e+06   4.718368e+06
  -1.800758e+06   1.038388e+06
  -5.229435e+03  -3.964423e+05
   2.829018e+05   1.014711e+06
  -1.445143e+06   1.971671e+06
  -2.817808e+06   4.537791e+05
  -2.144349e+06  -1.769413e+06
  -1.844296e+05  -2.094093e+06
   1.429107e+06  -2.883818e+05
   1.660725e+06   1.938210e+06
   7.192857e+04   2.886266e+06
  -2.737401e+06   1.731107e+06
  -4.553967e+06  -1.121424e+06
  -3.324400e+06  -3.819874e+06
   4.541940e+04  -4.365804e+06
   2.390640e+06  -2.792820e+06
   2.335807e+06  -1.104684e+06
   1.855038e+06  -6.080854e+05
   2.905022e+06  -4.251325e+05
   4.291047e+06   7.775435e+05
   3.436943e+06   2.735267e+06
   1.379346e+05   4.062883e+06
  -3.119396e+06   3.869179e+06
  -4.080709e+06   2.175223e+06
  -2.663589e+06  -3.325026e+05
  -3.744797e+05  -2.206975e+06
   1.025841e+06  -1.970071e+06
   5.749340e+05   1.030251e+04
  -1.048796e+06   1.320871e+06
  -1.904388e+06   4.053665e+05
  -9.485248e+05  -1.212728e+06
   4.811572e+05  -1.108363e+06
   3.753140e+05   3.770345e+05
  -1.099938e+06   5.925278e+05
  -1.780673e+06  -1.436215e+06
  -4.578240e+05  -3.501474e+06
   1.736668e+06  -3.219700e+06
   3.096517e+06  -8.831007e+05
   3.124985e+06   1.498741e+06
   2.131271e+06   2.640646e+06
   4.406040e+05   2.491326e+06
  -1.186508e+06   1.447352e+06
  -1.541612e+06   2.562837e+05
  -4.851508e+05  -4.279487e+04
   3.542839e+05   7.430133e+05
  -4.310325e+05   1.342470e+06
  -1.924879e+06   5.685066e+05
  -2.020260e+06  -9.156817e+05
  -3.543449e+05  -1.424649e+06
   1.166021e+06  -5.531121e+05
   8.477859e+05   4.436955e+05
  -8.436532e+05   4.569684e+05
  -2.086552e+06  -3.614395e+05
  -1.640180e+06  -1.308864e+06
   2.653296e+05  -1.874861e+06
   2.248989e+06  -1.596158e+06
   2.721377e+06  -2.671332e+05
   1.203157e+06   1.267712e+06
  -9.287674e+05   1.514971e+06
  -1.582171e+06   1.883718e+05
  -2.167167e+05  -1.095831e+06
   1.508029e+06  -7.390440e+05
   1.691354e+06   7.868577e+05
   2.985975e+05   1.626832e+06
  -1.098644e+06   9.210682e+05
  -1.219947e+06  -3.502498e+05
  -2.052264e+05  -7.803761e+05
   8.102372e+05  -4.470754e+04
   7.431553e+05   1.048461e+06
  -5.540134e+05   1.422521e+06
  -1.983243e+06   5.618910e+05
  -2.027079e+06  -1.024324e+06
  -3.859114e+05  -2.056743e+06
   1.433769e+06  -1.625020e+06
   1.707855e+06  -1.939860e+05
   4.788126e+05   8.634899e+05
  -6.570510e+05   7.833458e+05
  -6.056781e+05   8.425219e+04
   1.237655e+05  -3.140108e+05
   4.422794e+05  -1.767293e+05
   6.096031e+04   3.538663e+04
  -4.594265e+05  -1.385631e+05
  -4.809361e+05  -7.006026e+05
   2.343282e+05  -1.170911e+06
   1.370927e+06  -8.764146e+05
   2.055770e+06   4.074297e+05
   1.456111e+06   1.916550e+06
  -2.010656e+05   2.381074e+06
  -1.574645e+06   1.369870e+06
  -1.629019e+06  -1.342708e+05
  -8.085008e+05  -8.399404e+05
  -3.178563e+05  -5.672366e+05
  -5.186863e+05  -1.799779e+05
  -6.591984e+05  -3.330281e+05
  -9.213699e+04  -7.824064e+05
   8.713758e+05  -8.789543e+05
   1.409648e+06  -3.045301e+05
   1.005717e+06   6.892981e+05
  -2.519752e+05   1.395454e+06
  -1.680646e+06   1.038117e+06
  -2.200215e+06  -4.706316e+05
  -1.102130e+06  -2.067992e+06
   1.021677e+06  -2.331011e+06
   2.523159e+06  -9.950382e+05
   2.293116e+06   6.750666e+05
   8.939102e+05   1.305038e+06
  -2.169132e+05   8.808976e+05
  -3.392297e+05   4.710082e+05
  -1.706278e+04   7.627723e+05
  -7.647870e+04   1.332078e+06
  -6.719708e+05   1.298096e+06
  -1.294924e+06   3.248203e+05
  -1.334517e+06  -1.056683e+06
  -5.646300e+05  -1.864076e+06
   6.002297e+05  -1.421874e+06
   1.262171e+06   2.491380e+03
   7.924235e+05   1.276530e+06
  -4.076973e+05   1.374198e+06
  -1.169185e+06   3.632415e+05
  -7.942293e+05  -7.366467e+05
   1.594896e+05  -1.081322e+06
   5.693989e+05  -7.563768e+05
   9.635694e+04  -3.873754e+05
  -4.400114e+05  -3.197267e+05
  -6.825231e+04  -3.739973e+05
   1.145432e+06  -2.033025e+05
   2.055873e+06   3.309602e+05
   1.596732e+06   1.029486e+06
  -6.339615e+04   1.430633e+06
  -1.597325e+06   1.135444e+06
  -1.812038e+06   2.589505e+05
  -8.047397e+05  -5.196668e+05
   2.739368e+05  -5.770737e+05
   5.108597e+05  -1.756735e+04
   3.961368e+04   4.408635e+05
  -4.231007e+05   2.674479e+05
  -4.819108e+05  -3.338237e+05
  -2.875347e+05  -7.084542e+05
  -1.273762e+05  -4.758997e+05
  -1.261436e+05   7.379715e+04
  -2.434209e+05   2.694797e+05
  -2.666121e+05  -2.282659e+05
   1.134787e+05  -9.655782e+05
   8.806161e+05  -1.063968e+06
   1.382896e+06  -1.974504e+05
   8.854469e+05   9.011239e+05
  -4.059796e+05   1.156917e+06
  -1.265428e+06   3.700399e+05
  -7.354625e+05  -5.490718e+05
   6.944334e+05  -6.354699e+05
   1.546779e+06   9.948949e+04
   9.500144e+05   8.433729e+05
  -4.976298e+05   9.424314e+05
  -1.454019e+06   4.351806e+05
  -1.179534e+06  -1.989338e+05
  -1.193441e+05  -4.937497e+05
   6.392018e+05  -2.522014e+05
   3.907204e+05   3.003975e+05
  -5.582631e+05   5.419014e+05
  -1.176670e+06  -4.039942e+04
  -7.118940e+05  -1.149452e+06
   5.240161e+05  -1.708305e+06
   1.437696e+06  -9.209375e+05
   1.251907e+06   7.168909e+05
   2.282827e+05   1.754512e+06
  -7.096705e+05   1.262328e+06
  -9.010228e+05  -1.870082e+05
  -4.106112e+05  -1.167351e+06
   2.361238e+05  -9.310171e+05
   5.601246e+05  -7.265679e+04
   4.388670e+05   3.559822e+05
   1.360077e+05   1.195096e+05
   5.631551e+04  -8.354915e+04
   3.165391e+05   3.143165e+05
   5.270638e+05   9.566118e+05
   1.663634e+05   1.046889e+06
  -7.380034e+05   3.835740e+05
  -1.451519e+06  -4.378124e+05
  -1.236187e+06  -8.023642e+05
  -1.852909e+05  -6.917411e+05
   8.048910e+05  -4.325354e+05
   9.531505e+05  -1.824171e+05
   3.786799e+05   7.014421e+04
  -1.287905e+05   2.295304e+05
  -6.616954e+04   1.778403e+05
   2.265257e+05   6.090845e+04
   6.843950e+04   1.305298e+05
  -6.077568e+05   2.666408e+05
  -1.040246e+06   1.911014e+04
  -4.986547e+05  -6.916719e+05
   7.736153e+05  -1.209255e+06
   1.696284e+06  -8.050454e+05
   1.456732e+06   3.827437e+05
   3.170563e+05   1.378071e+06
  -7.434858e+05   1.385725e+06
  -1.030882e+06   5.814762e+05
  -6.496837e+05  -1.912389e+05
  -1.579855e+05  -3.548186e+05
   3.513126e+04  -9.797145e+04
  -8.917925e+04  -1.279260e+04
  -2.823145e+05  -3.671128e+05
  -2.433182e+05  -7.911687e+05
   1.553117e+05  -6.856767e+05
   6.717161e+05   7.367097e+04
   7.820400e+05   8.982135e+05
   1.856766e+05   1.028374e+06
  -7.179130e+05   3.084590e+05
  -1.059583e+06  -6.499248e+05
  -3.987767e+05  -1.074647e+06
   6.857314e+05  -7.200534e+05
   1.130540e+06   3.705673e+04
   5.608685e+05   6.255677e+05
  -2.757040e+05   7.164532e+05
  -4.032063e+05   3.773078e+05
   2.071841e+05  -1.771213e+04
   6.312963e+05  -6.259842e+04
   1.650876e+05   3.104179e+05
  -7.989345e+05   6.849499e+05
  -1.261812e+06   5.288550e+05
  -7.931920e+05  -1.941420e+05
   7.274940e+04  -8.780581e+05
   5.623834e+05  -8.713040e+05
   4.608889e+05  -1.943587e+05
   8.896948e+04   4.583469e+05
  -2.205349e+05   4.595979e+05
  -3.543271e+05  -9.962173e+04
  -2.721777e+05  -5.634673e+05
   3.546176e+04  -4.587192e+05
   3.914981e+05   1.784521e+04
   4.870730e+05   2.925947e+05
   2.395295e+05   1.122350e+05
  -5.283598e+04  -1.790734e+05
  -7.564729e+04  -1.009965e+05
   7.613484e+04   3.319480e+05
   3.376971e+04   5.959155e+05
  -2.946232e+05   2.962246e+05
  -5.192597e+05  -3.240598e+05
  -2.407045e+05  -6.387698e+05
   3.779770e+05  -3.437849e+05
   6.936139e+05   2.354523e+05
   2.889445e+05   5.470165e+05
  -5.037575e+05   3.800739e+05
  -9.001149e+05  -3.512807e+04
  -4.962154e+05  -3.603811e+05
   2.827998e+05  -4.332788e+05
   6.405278e+05  -2.781624e+05
   2.783393e+05  -2.767630e+04
  -3.018055e+05   1.143686e+05
  -3.937048e+05  -5.525048e+03
   1.195023e+05  -2.713209e+05
   6.698159e+05  -2.991139e+05
