
 $NMID
 id='ANONYMOUS ', fmtdat='(2E16.6)'
 volume=1.0
 tramp=1.0
 $END
   6.013095e+07   9.103754e+05
   3.549051e+07   3.785053e+07
  -8.666259e+06   4.054107e+07
  -2.965199e+07   1.506455e+07
  -1.735853e+07  -7.820901e+06
   3.726731e+06  -9.860421e+06
   1.040405e+07   1.519016e+06
   2.738760e+06   1.043368e+07
  -6.756197e+06   9.771890e+06
  -1.028195e+07   1.929920e+06
  -7.351442e+06  -6.700347e+06
  -7.579820e+05  -9.155295e+06
   4.289640e+06  -2.882046e+06
   2.739582e+06   5.784990e+06
  -4.088078e+06   6.868615e+06
  -8.344417e+06  -1.567277e+06
  -4.557770e+06  -1.093275e+07
   4.218949e+06  -1.249647e+07
   1.086431e+07  -6.142747e+06
   1.151469e+07   2.342094e+06
   6.981600e+06   8.105947e+06
   6.058038e+05   9.286033e+06
  -3.255467e+06   6.430398e+06
  -2.079947e+06   2.783150e+06
   1.149812e+06   2.218131e+06
   2.743325e+05   4.412741e+06
  -5.756279e+06   4.649874e+06
  -1.028067e+07   4.616631e+05
  -7.470554e+06  -4.468387e+06
  -2.416972e+05  -5.424983e+06
   3.972016e+06  -2.750302e+06
   2.670527e+06  -3.148346e+04
  -5.759742e+05   9.973198e+05
  -2.379062e+06   5.535818e+05
  -2.345704e+06  -1.490559e+06
  -7.499978e+05  -4.183812e+06
   1.960258e+06  -4.108784e+06
   3.493028e+06   1.429427e+05
   1.808477e+06   3.927498e+06
  -8.825089e+05   2.083050e+06
  -3.869331e+05  -2.600234e+06
   2.623756e+06  -2.413916e+06
   2.546161e+06   3.438628e+06
  -2.707735e+06   6.482252e+06
  -7.451220e+06   9.421554e+05
  -5.350233e+06  -7.487453e+06
   2.189821e+06  -9.064501e+06
   7.958154e+06  -2.465399e+06
   7.323406e+06   4.825867e+06
   1.867230e+06   6.422531e+06
  -3.723721e+06   2.820715e+06
  -5.545738e+06  -1.695550e+06
  -2.507627e+06  -3.731723e+06
   2.611968e+06  -2.288819e+06
   4.800715e+06   1.058349e+06
   2.024924e+06   2.927419e+06
  -1.852802e+06   1.431708e+06
  -1.827603e+06  -1.112114e+06
   1.427301e+06  -9.329111e+05
   2.588091e+06   1.930667e+06
  -7.516920e+05   3.654180e+06
  -4.982255e+06   1.930523e+06
  -5.616900e+06  -1.546009e+06
  -2.395679e+06  -4.274908e+06
   1.983487e+06  -5.587290e+06
   5.376680e+06  -5.110010e+06
   6.617652e+06  -1.799669e+06
   4.859177e+06   3.417076e+06
   9.407365e+05   6.585470e+06
  -2.043958e+06   5.039259e+06
  -1.885138e+06   1.248742e+06
  -1.390295e+05  -2.837258e+05
   5.892020e+04   1.063825e+06
  -1.711077e+06   1.928201e+06
  -3.013339e+06   2.618286e+05
  -2.171625e+06  -2.059084e+06
  -3.564999e+04  -2.290128e+06
   1.644234e+06  -2.258688e+05
   1.775400e+06   2.207849e+06
  -1.185015e+04   3.126610e+06
  -2.965698e+06   1.750153e+06
  -4.769912e+06  -1.308020e+06
  -3.406450e+06  -4.054152e+06
   9.256705e+04  -4.525580e+06
   2.476805e+06  -2.877579e+06
   2.406882e+06  -1.177634e+06
   1.962435e+06  -6.949300e+05
   3.136758e+06  -4.719598e+05
   4.624358e+06   8.614272e+05
   3.685484e+06   2.986665e+06
   9.673297e+04   4.401616e+06
  -3.454922e+06   4.132049e+06
  -4.472128e+06   2.235765e+06
  -2.842147e+06  -4.629555e+05
  -2.906789e+05  -2.393149e+06
   1.185811e+06  -2.068056e+06
   6.062827e+05   3.960583e+04
  -1.172151e+06   1.393815e+06
  -2.046256e+06   4.072742e+05
  -9.789701e+05  -1.303346e+06
   5.589271e+05  -1.188046e+06
   4.436133e+05   4.176964e+05
  -1.153749e+06   7.112200e+05
  -1.952108e+06  -1.429212e+06
  -6.098233e+05  -3.737432e+06
   1.769605e+06  -3.587501e+06
   3.359267e+06  -1.105052e+06
   3.483368e+06   1.593715e+06
   2.373844e+06   2.953560e+06
   4.540388e+05   2.774588e+06
  -1.334718e+06   1.552185e+06
  -1.687045e+06   2.335164e+05
  -5.266362e+05  -5.422821e+04
   3.744190e+05   8.094699e+05
  -4.652434e+05   1.435118e+06
  -2.060184e+06   5.950638e+05
  -2.169511e+06  -9.860679e+05
  -3.875835e+05  -1.528488e+06
   1.264437e+06  -5.935645e+05
   9.370766e+05   4.973020e+05
  -9.180018e+05   5.289188e+05
  -2.311349e+06  -3.850661e+05
  -1.825524e+06  -1.466478e+06
   2.980362e+05  -2.085905e+06
   2.484370e+06  -1.730516e+06
   2.969182e+06  -2.567401e+05
   1.288524e+06   1.376520e+06
  -1.009797e+06   1.607518e+06
  -1.686604e+06   1.844087e+05
  -2.077716e+05  -1.169034e+06
   1.637806e+06  -7.740061e+05
   1.829752e+06   8.649085e+05
   3.285782e+05   1.773976e+06
  -1.190183e+06   1.018022e+06
  -1.336283e+06  -3.654400e+05
  -2.401696e+05  -8.438759e+05
   8.625477e+05  -4.467817e+04
   7.810784e+05   1.141878e+06
  -6.309870e+05   1.524894e+06
  -2.159843e+06   5.649597e+05
  -2.175087e+06  -1.147600e+06
  -3.873133e+05  -2.232461e+06
   1.569640e+06  -1.744091e+06
   1.855204e+06  -1.981771e+05
   5.211263e+05   9.400298e+05
  -7.190856e+05   8.489573e+05
  -6.724949e+05   7.679174e+04
   1.352515e+05  -3.693745e+05
   5.144967e+05  -2.053674e+05
   1.080574e+05   6.230610e+04
  -4.868058e+05  -1.110648e+05
  -5.355666e+05  -7.417057e+05
   2.488750e+05  -1.270080e+06
   1.496688e+06  -9.386868e+05
   2.226713e+06   4.712050e+05
   1.548904e+06   2.102228e+06
  -2.590835e+05   2.589399e+06
  -1.742796e+06   1.483891e+06
  -1.795369e+06  -1.613953e+05
  -8.932090e+05  -9.560185e+05
  -3.327175e+05  -6.749130e+05
  -5.258745e+05  -2.275980e+05
  -6.830882e+05  -3.526830e+05
  -8.841417e+04  -8.312075e+05
   9.542979e+05  -9.504759e+05
   1.549980e+06  -3.221069e+05
   1.103769e+06   7.803112e+05
  -2.905021e+05   1.544469e+06
  -1.853496e+06   1.118483e+06
  -2.396141e+06  -5.460258e+05
  -1.180712e+06  -2.264547e+06
   1.123457e+06  -2.521160e+06
   2.744526e+06  -1.063185e+06
   2.501008e+06   7.475019e+05
   9.876473e+05   1.441892e+06
  -2.392559e+05   9.908685e+05
  -4.070820e+05   5.287187e+05
  -7.028351e+04   8.131506e+05
  -1.172508e+05   1.415625e+06
  -7.388609e+05   1.382926e+06
  -1.397737e+06   3.292242e+05
  -1.425634e+06  -1.171204e+06
  -5.785733e+05  -2.035507e+06
   6.794980e+05  -1.533848e+06
   1.375291e+06   1.923427e+04
   8.503500e+05   1.390328e+06
  -4.457126e+05   1.490191e+06
  -1.260610e+06   4.049677e+05
  -8.583436e+05  -7.775438e+05
   1.610590e+05  -1.159679e+06
   6.015322e+05  -8.254969e+05
   1.017940e+05  -4.355604e+05
  -4.653703e+05  -3.606847e+05
  -6.305640e+04  -4.100256e+05
   1.239224e+06  -2.088262e+05
   2.215782e+06   3.840027e+05
   1.720653e+06   1.134937e+06
  -6.989821e+04   1.544028e+06
  -1.730373e+06   1.206733e+06
  -1.969095e+06   2.678066e+05
  -8.801142e+05  -5.542287e+05
   2.939000e+05  -6.135344e+05
   5.518073e+05  -2.292835e+04
   3.207961e+04   4.629354e+05
  -4.718700e+05   2.771834e+05
  -5.153318e+05  -3.708649e+05
  -2.798735e+05  -7.756071e+05
  -1.120600e+05  -5.158256e+05
  -1.447267e+05   9.073218e+04
  -2.889744e+05   3.003966e+05
  -2.898493e+05  -2.527645e+05
   1.523934e+05  -1.052076e+06
   9.745416e+05  -1.137214e+06
   1.480656e+06  -1.831036e+05
   9.236705e+05   9.898017e+05
  -4.568723e+05   1.232360e+06
  -1.364110e+06   3.650102e+05
  -7.852958e+05  -6.153112e+05
   7.622094e+05  -6.844804e+05
   1.692279e+06   1.262787e+05
   1.046078e+06   9.359117e+05
  -5.431349e+05   1.038218e+06
  -1.602175e+06   4.741965e+05
  -1.301242e+06  -2.274833e+05
  -1.300390e+05  -5.465822e+05
   6.996663e+05  -2.731136e+05
   4.147497e+05   3.255103e+05
  -6.232477e+05   5.669174e+05
  -1.272568e+06  -7.938423e+04
  -7.332394e+05  -1.265441e+06
   6.200207e+05  -1.834859e+06
   1.587141e+06  -9.590737e+05
   1.345692e+06   8.104781e+05
   2.115915e+05   1.917607e+06
  -7.995104e+05   1.371189e+06
  -9.845922e+05  -2.093004e+05
  -4.384886e+05  -1.280596e+06
   2.609088e+05  -1.023014e+06
   6.082301e+05  -7.673688e+04
   4.821512e+05   4.021112e+05
   1.577081e+05   1.406306e+05
   5.879599e+04  -9.558781e+04
   3.221220e+05   3.334913e+05
   5.498158e+05   1.045256e+06
   1.769293e+05   1.150452e+06
  -7.930079e+05   4.120650e+05
  -1.574871e+06  -5.052707e+05
  -1.346299e+06  -9.013851e+05
  -1.914305e+05  -7.541625e+05
   8.976172e+05  -4.503110e+05
   1.047809e+06  -1.841084e+05
   4.020343e+05   7.242257e+04
  -1.492679e+05   2.445457e+05
  -6.185625e+04   2.049610e+05
   2.593395e+05   8.488451e+04
   6.468044e+04   1.425399e+05
  -6.828714e+05   2.660934e+05
  -1.128247e+06  -4.915378e+03
  -5.044312e+05  -7.525405e+05
   8.791090e+05  -1.284706e+06
   1.846489e+06  -8.317655e+05
   1.553016e+06   4.498243e+05
   3.088451e+05   1.506408e+06
  -8.313467e+05   1.487338e+06
  -1.129604e+06   5.994319e+05
  -7.020518e+05  -2.317153e+05
  -1.570347e+05  -3.867067e+05
   5.181784e+04  -9.166436e+04
  -9.466500e+04  -2.962644e+03
  -3.084809e+05  -4.023439e+05
  -2.546889e+05  -8.670652e+05
   1.854981e+05  -7.375007e+05
   7.285215e+05   1.063728e+05
   8.181918e+05   1.000988e+06
   1.626824e+05   1.114852e+06
  -7.922074e+05   3.017575e+05
  -1.128660e+06  -7.420981e+05
  -4.003179e+05  -1.172961e+06
   7.601471e+05  -7.555637e+05
   1.219034e+06   6.696647e+04
   5.902266e+05   6.786994e+05
  -3.099713e+05   7.586912e+05
  -4.323695e+05   4.016398e+05
   2.384742e+05  -5.216987e+03
   6.908414e+05  -5.098410e+04
   1.686538e+05   3.368648e+05
  -8.837426e+05   7.295559e+05
  -1.373870e+06   5.623539e+05
  -8.471272e+05  -2.125500e+05
   9.748136e+04  -9.468606e+05
   6.158061e+05  -9.328870e+05
   4.879550e+05  -1.950967e+05
   7.749250e+04   5.039450e+05
  -2.502186e+05   4.862596e+05
  -3.801608e+05  -1.290383e+05
  -2.814058e+05  -6.183328e+05
   4.861380e+04  -4.850721e+05
   4.229173e+05   3.340413e+04
   5.211341e+05   3.182805e+05
   2.601634e+05   1.190903e+05
  -4.989428e+04  -1.837477e+05
  -8.587647e+04  -9.039296e+04
   5.513289e+04   3.655587e+05
   2.298451e+03   6.268388e+05
  -3.280466e+05   2.895339e+05
  -5.355671e+05  -3.740613e+05
  -2.239104e+05  -6.949596e+05
   4.231816e+05  -3.569155e+05
   7.374114e+05   2.774568e+05
   2.936159e+05   6.042590e+05
  -5.514849e+05   4.010605e+05
  -9.679680e+05  -6.183093e+04
  -5.272535e+05  -4.018491e+05
   3.140675e+05  -4.547665e+05
   6.952022e+05  -2.771158e+05
   2.923101e+05  -2.485355e+04
  -3.416731e+05   1.028744e+05
  -4.290680e+05  -3.093620e+04
   1.501287e+05  -2.974378e+05
   7.536434e+05  -3.039654e+05
