
 $NMID
 id='ANONYMOUS ', fmtdat='(2E16.6)'
 volume=1.0
 tramp=1.0
 $END
  -4.180081e+07  -9.113695e+05
  -2.553121e+07  -2.424812e+07
   4.230942e+06  -2.752121e+07
   1.984252e+07  -1.277358e+07
   1.313301e+07   3.011009e+06
  -1.400946e+06   7.075277e+06
  -7.678652e+06   6.022670e+05
  -3.446764e+06  -7.086316e+06
   3.793146e+06  -8.459770e+06
   7.424768e+06  -2.642353e+06
   5.678859e+06   5.000920e+06
   5.800442e+05   7.263287e+06
  -3.403387e+06   1.913912e+06
  -2.356223e+06  -5.233820e+06
   2.754677e+06  -6.133446e+06
   6.245031e+06   4.681713e+05
   3.837479e+06   7.880949e+06
  -2.658047e+06   9.309692e+06
  -7.783090e+06   4.447596e+06
  -8.056561e+06  -2.016176e+06
  -4.289518e+06  -5.795990e+06
   3.420880e+04  -5.807552e+06
   1.575554e+06  -3.729449e+06
  -1.639547e+05  -2.351178e+06
  -1.882440e+06  -3.165653e+06
   3.088028e+05  -4.562741e+06
   5.682401e+06  -3.488341e+06
   8.697468e+06   4.549309e+05
   5.544323e+06   3.992844e+06
  -7.899520e+05   4.091585e+06
  -4.047601e+06   1.408165e+06
  -2.049609e+06  -1.131817e+06
   1.779581e+06  -1.661166e+06
   3.408548e+06  -1.477840e+05
   2.147680e+06   2.432830e+06
  -2.560061e+05   4.114034e+06
  -1.966858e+06   2.786566e+06
  -1.941568e+06  -8.907948e+05
  -4.252348e+05  -2.859041e+06
   7.092517e+05  -4.986961e+05
  -2.894576e+05   2.999369e+06
  -2.330207e+06   2.306013e+06
  -2.176347e+06  -2.326396e+06
   1.191686e+06  -4.687684e+06
   4.456676e+06  -9.536328e+05
   3.615309e+06   4.910983e+06
  -1.170762e+06   6.227945e+06
  -5.672725e+06   1.785002e+06
  -6.016658e+06  -3.578207e+06
  -2.079919e+06  -5.178221e+06
   2.871506e+06  -2.747072e+06
   4.945667e+06   8.609429e+05
   2.662042e+06   2.801929e+06
  -1.619244e+06   1.980751e+06
  -3.671034e+06  -4.697600e+05
  -1.780038e+06  -2.000632e+06
   1.287298e+06  -1.118505e+06
   1.718034e+06   7.931996e+05
  -5.607733e+05   1.139734e+06
  -2.041677e+06  -5.285293e+05
  -3.750535e+05  -2.077819e+06
   2.774844e+06  -1.650853e+06
   4.032420e+06   4.500177e+05
   2.050826e+06   2.831984e+06
  -1.719743e+06   4.353037e+06
  -4.821798e+06   3.979205e+06
  -5.493413e+06   1.078291e+06
  -3.527584e+06  -3.061388e+06
  -4.957274e+05  -5.405347e+06
   1.345656e+06  -4.318211e+06
   1.206133e+06  -1.690281e+06
   5.193019e+05  -5.359904e+05
   9.834923e+05  -1.138737e+06
   2.346592e+06  -1.172117e+06
   2.879448e+06   6.176900e+05
   1.644255e+06   2.576404e+06
  -5.240306e+05   2.411103e+06
  -2.036086e+06   4.991494e+04
  -1.800628e+06  -2.429296e+06
   2.194462e+05  -2.987760e+06
   2.780310e+06  -1.237197e+06
   3.856188e+06   1.526844e+06
   2.403809e+06   3.388680e+06
  -2.625744e+05   3.311653e+06
  -1.784960e+06   1.990207e+06
  -1.609411e+06   9.793067e+05
  -1.496743e+06   8.541931e+05
  -2.782255e+06   6.674639e+05
  -4.205576e+06  -6.107708e+05
  -3.423310e+06  -2.655441e+06
  -1.326307e+05  -4.096327e+06
   3.311866e+06  -3.839200e+06
   4.338259e+06  -1.861874e+06
   2.579027e+06   7.604953e+05
  -8.690986e+04   2.338460e+06
  -1.380065e+06   1.771206e+06
  -5.295962e+05  -1.557257e+05
   1.200774e+06  -1.240638e+06
   1.831277e+06  -3.329593e+05
   7.512306e+05   1.162782e+06
  -6.367549e+05   1.120321e+06
  -6.188656e+05  -3.568693e+05
   7.641966e+05  -9.892950e+05
   1.827538e+06   6.009801e+05
   1.217459e+06   2.998598e+06
  -7.907773e+05   3.688900e+06
  -2.841251e+06   1.871944e+06
  -3.670842e+06  -9.914659e+05
  -2.751394e+06  -2.882407e+06
  -5.811468e+05  -2.872562e+06
   1.360389e+06  -1.494646e+06
   1.660287e+06  -1.413721e+05
   4.982007e+05   5.314434e+04
  -3.612817e+05  -7.546654e+05
   3.561258e+05  -1.266018e+06
   1.777312e+06  -5.520703e+05
   1.967577e+06   7.776221e+05
   4.456925e+05   1.322875e+06
  -1.147766e+06   6.089399e+05
  -1.007306e+06  -4.497829e+05
   7.757252e+05  -7.067716e+05
   2.358210e+06   1.053627e+05
   2.044005e+06   1.377578e+06
  -1.171724e+05   2.185939e+06
  -2.378593e+06   1.808705e+06
  -2.840461e+06   2.991663e+05
  -1.202308e+06  -1.221670e+06
   8.922978e+05  -1.395493e+06
   1.445855e+06  -1.468298e+05
   1.207670e+05   1.022345e+06
  -1.511723e+06   7.028110e+05
  -1.740160e+06  -7.420092e+05
  -4.450868e+05  -1.657380e+06
   1.011560e+06  -1.098084e+06
   1.303181e+06   1.781468e+05
   3.508524e+05   7.418378e+05
  -7.332786e+05   7.065303e+04
  -7.020860e+05  -1.051513e+06
   6.290087e+05  -1.411155e+06
   2.047338e+06  -4.833610e+05
   2.023829e+06   1.105838e+06
   3.648480e+05   2.081592e+06
  -1.426552e+06   1.644676e+06
  -1.728354e+06   2.434775e+05
  -5.497107e+05  -8.566603e+05
   6.460985e+05  -8.391467e+05
   7.110424e+05  -6.611162e+04
  -6.330647e+04   4.862735e+05
  -5.970464e+05   3.358887e+05
  -3.246556e+05  -9.860942e+04
   3.478222e+05  -9.047977e+04
   5.772653e+05   5.436026e+05
  -1.193065e+05   1.174742e+06
  -1.370368e+06   9.221863e+05
  -2.103908e+06  -4.192054e+05
  -1.458846e+06  -1.975733e+06
   2.457009e+05  -2.482259e+06
   1.669341e+06  -1.511765e+06
   1.808291e+06   7.112579e+04
   1.005225e+06   1.003767e+06
   3.636140e+05   8.775442e+05
   3.734961e+05   3.605439e+05
   4.997964e+05   2.766281e+05
   6.476512e+04   6.897282e+05
  -8.547001e+05   9.311229e+05
  -1.500179e+06   3.897337e+05
  -1.159980e+06  -7.669339e+05
   2.011226e+05  -1.593216e+06
   1.772112e+06  -1.156399e+06
   2.327531e+06   4.887653e+05
   1.199431e+06   2.122946e+06
  -9.459630e+05   2.386821e+06
  -2.516045e+06   1.098227e+06
  -2.435245e+06  -5.797131e+05
  -1.115664e+06  -1.363162e+06
   1.321385e+05  -1.091796e+06
   4.930829e+05  -6.393279e+05
   2.588003e+05  -7.523195e+05
   2.043368e+05  -1.223301e+06
   6.666801e+05  -1.223285e+06
   1.264966e+06  -2.837214e+05
   1.323840e+06   1.124736e+06
   5.321266e+05   1.941044e+06
  -6.640869e+05   1.456393e+06
  -1.319352e+06   6.376502e+03
  -8.428890e+05  -1.263350e+06
   3.294437e+05  -1.406926e+06
   1.090292e+06  -4.973876e+05
   8.044446e+05   5.673997e+05
  -3.334820e+04   1.007407e+06
  -4.221518e+05   8.067012e+05
  -3.666726e+04   4.750414e+05
   4.132053e+05   3.757588e+05
   4.091422e+04   4.030456e+05
  -1.125037e+06   2.183275e+05
  -2.031305e+06  -3.332957e+05
  -1.633073e+06  -1.026595e+06
  -2.607267e+04  -1.397310e+06
   1.534449e+06  -1.115353e+06
   1.831703e+06  -3.219687e+05
   8.718339e+05   4.035553e+05
  -2.294369e+05   5.254147e+05
  -4.916529e+05   7.259380e+04
   7.054005e+03  -3.650874e+05
   4.887050e+05  -2.392909e+05
   4.736497e+05   3.561772e+05
   1.711445e+05   7.628192e+05
   1.842659e+04   4.953808e+05
   1.493448e+05  -1.493206e+05
   3.476089e+05  -3.626442e+05
   2.929503e+05   2.308155e+05
  -1.936644e+05   1.030683e+06
  -9.246088e+05   1.060970e+06
  -1.298714e+06   1.100426e+05
  -7.663857e+05  -9.457251e+05
   4.372588e+05  -1.083465e+06
   1.234186e+06  -2.537811e+05
   7.294423e+05   6.179708e+05
  -7.033456e+05   6.687160e+05
  -1.653380e+06  -7.221320e+04
  -1.119291e+06  -8.710055e+05
   4.293035e+05  -1.067583e+06
   1.555829e+06  -5.805719e+05
   1.326581e+06   1.515720e+05
   1.711610e+05   5.448045e+05
  -6.574946e+05   3.042707e+05
  -3.647717e+05  -2.814449e+05
   6.396910e+05  -4.910520e+05
   1.202203e+06   1.525363e+05
   6.053448e+05   1.245664e+06
  -7.038963e+05   1.707926e+06
  -1.569211e+06   8.386976e+05
  -1.274429e+06  -8.210868e+05
  -1.742068e+05  -1.859075e+06
   7.788452e+05  -1.358642e+06
   9.619580e+05   1.483715e+05
   4.751371e+05   1.224519e+06
  -1.786364e+05   1.027276e+06
  -5.612061e+05   1.045093e+05
  -5.178395e+05  -4.041441e+05
  -2.141629e+05  -1.585469e+05
  -3.288300e+04   1.121622e+05
  -2.157160e+05  -2.750954e+05
  -4.862546e+05  -9.866750e+05
  -2.397561e+05  -1.122420e+06
   6.749621e+05  -4.072801e+05
   1.521412e+06   4.991953e+05
   1.360084e+06   8.771892e+05
   1.878381e+05   7.098736e+05
  -9.295021e+05   4.154070e+05
  -1.032282e+06   1.924022e+05
  -3.318561e+05  -3.234437e+04
   1.705545e+05  -2.255384e+05
  -1.391750e+04  -2.367473e+05
  -3.277260e+05  -1.308242e+05
  -2.828497e+04  -1.413577e+05
   7.438954e+05  -2.120554e+05
   1.068891e+06   4.495313e+04
   3.528441e+05   7.099493e+05
  -9.361908e+05   1.164544e+06
  -1.722323e+06   7.094073e+05
  -1.376384e+06  -4.976131e+05
  -2.387074e+05  -1.459105e+06
   7.964586e+05  -1.382970e+06
   1.086603e+06  -4.996892e+05
   6.777847e+05   2.788747e+05
   1.088300e+05   3.698593e+05
  -1.192944e+05   3.672769e+04
   6.627171e+04  -5.116046e+04
   3.268606e+05   3.666647e+05
   2.616658e+05   8.339678e+05
  -2.058965e+05   6.840898e+05
  -7.084404e+05  -1.693405e+05
  -7.144935e+05  -1.023250e+06
  -4.758132e+04  -1.057035e+06
   8.077331e+05  -1.962338e+05
   1.036564e+06   8.006231e+05
   3.088302e+05   1.122910e+06
  -7.519530e+05   6.494019e+05
  -1.124643e+06  -1.091074e+05
  -5.084636e+05  -6.060830e+05
   3.034498e+05  -6.490133e+05
   3.573519e+05  -3.608609e+05
  -2.964199e+05  -2.901183e+04
  -6.791492e+05   2.306340e+04
  -1.308202e+05  -3.109174e+05
   8.590813e+05  -6.896353e+05
   1.266007e+06  -5.651840e+05
   7.376796e+05   1.625344e+05
  -1.173129e+05   8.747849e+05
  -5.450693e+05   8.525669e+05
  -3.989482e+05   1.284170e+05
  -2.568413e+04  -5.106121e+05
   2.611208e+05  -4.210391e+05
   3.623347e+05   1.935672e+05
   2.457296e+05   5.987796e+05
  -7.175994e+04   4.046092e+05
  -3.996216e+05  -6.844440e+04
  -4.705431e+05  -2.707169e+05
  -2.466608e+05  -8.009266e+04
   1.369086e+04   1.263471e+05
   8.249999e+04  -1.368220e+04
   4.393967e+04  -3.878862e+05
   1.331861e+05  -5.255372e+05
   3.556318e+05  -1.530525e+05
   4.169032e+05   4.415075e+05
   8.589139e+04   6.750303e+05
  -4.434263e+05   2.987815e+05
  -6.541747e+05  -3.226741e+05
  -2.330141e+05  -6.083391e+05
   5.166478e+05  -3.615053e+05
   8.843604e+05   1.089005e+05
   4.751497e+05   3.970437e+05
  -3.090080e+05   3.793084e+05
  -6.513013e+05   1.904059e+05
  -2.295986e+05   8.341913e+03
   3.966916e+05  -3.650693e+04
   4.339700e+05   1.118007e+05
  -2.090544e+05   3.209453e+05
  -8.207172e+05   2.663303e+05
