
 $NMID
 id='ANONYMOUS ', fmtdat='(2E16.6)'
 volume=1.0
 tramp=1.0
 $END
   3.079386e+07   8.098731e+05
   1.915394e+07   1.729306e+07
  -2.559460e+06   2.014680e+07
  -1.450413e+07   1.013795e+07
  -1.011118e+07  -1.526716e+06
   6.977280e+05  -5.327435e+06
   5.887460e+06  -9.162478e+05
   3.013212e+06   5.258596e+06
  -2.618831e+06   6.793332e+06
  -5.627268e+06   2.322802e+06
  -4.326299e+06  -3.831715e+06
  -3.767820e+05  -5.628673e+06
   2.638646e+06  -1.340822e+06
   1.802202e+06   4.274201e+06
  -2.083599e+06   4.949677e+06
  -4.770893e+06  -1.788075e+05
  -3.016041e+06  -5.927572e+06
   1.903075e+06  -7.059185e+06
   5.805910e+06  -3.312597e+06
   5.920815e+06   1.611949e+06
   2.965479e+06   4.289949e+06
  -1.432319e+05   4.046270e+06
  -9.100982e+05   2.539422e+06
   6.111020e+05   1.935174e+06
   1.652939e+06   2.897177e+06
  -4.614235e+05   3.812538e+06
  -4.738600e+06   2.564165e+06
  -6.862190e+06  -6.725500e+05
  -4.140080e+06  -3.254216e+06
   9.198719e+05  -3.067575e+06
   3.375699e+06  -8.009491e+05
   1.513745e+06   1.218307e+06
  -1.798987e+06   1.460952e+06
  -3.052671e+06  -5.513245e+04
  -1.669883e+06  -2.253288e+06
   4.985904e+05  -3.361467e+06
   1.633550e+06  -1.991693e+06
   1.228298e+06   8.857486e+05
   3.546222e+04   2.106178e+06
  -5.081499e+05   6.220180e+04
   4.509660e+05  -2.559010e+06
   1.907336e+06  -1.870837e+06
   1.727365e+06   1.717163e+06
  -6.791727e+05   3.545979e+06
  -3.074890e+06   8.265461e+05
  -2.642123e+06  -3.530743e+06
   7.553362e+05  -4.588896e+06
   4.233183e+06  -1.327307e+06
   4.714750e+06   2.760583e+06
   1.739227e+06   4.081833e+06
  -2.249230e+06   2.251828e+06
  -4.001828e+06  -5.967119e+05
  -2.229648e+06  -2.176138e+06
   1.161363e+06  -1.581931e+06
   2.821835e+06   2.911212e+05
   1.418604e+06   1.485491e+06
  -9.623105e+05   8.575433e+05
  -1.401511e+06  -6.180210e+05
   3.092870e+05  -1.012882e+06
   1.619590e+06   1.529628e+05
   5.729616e+05   1.433654e+06
  -1.848182e+06   1.345050e+06
  -3.039832e+06  -1.452050e+05
  -1.636150e+06  -2.062169e+06
   1.396331e+06  -3.335593e+06
   3.912113e+06  -3.009772e+06
   4.318337e+06  -6.936231e+05
   2.609053e+06   2.479864e+06
   2.682684e+05   4.232469e+06
  -1.011894e+06   3.435135e+06
  -8.924453e+05   1.503276e+06
  -5.441583e+05   6.048902e+05
  -1.064629e+06   9.191789e+05
  -2.090031e+06   7.565965e+05
  -2.333666e+06  -7.487976e+05
  -1.194669e+06  -2.270921e+06
   6.062419e+05  -2.007922e+06
   1.779275e+06   4.668590e+04
   1.457206e+06   2.105513e+06
  -2.746978e+05   2.447662e+06
  -2.278715e+06   8.777394e+05
  -2.978465e+06  -1.350470e+06
  -1.749670e+06  -2.678166e+06
   2.662663e+05  -2.479407e+06
   1.332923e+06  -1.457667e+06
   1.170758e+06  -7.749559e+05
   1.161978e+06  -7.402787e+05
   2.257683e+06  -5.692171e+05
   3.411510e+06   5.030930e+05
   2.764250e+06   2.182687e+06
   6.461807e+04   3.349525e+06
  -2.777502e+06   3.088447e+06
  -3.600629e+06   1.404776e+06
  -2.067647e+06  -7.331305e+05
   1.921820e+05  -1.922637e+06
   1.211905e+06  -1.378543e+06
   4.171542e+05   1.652203e+05
  -1.024342e+06   9.798566e+05
  -1.483120e+06   2.352677e+05
  -5.595685e+05  -9.444621e+05
   5.678851e+05  -9.030065e+05
   5.518237e+05   3.046730e+05
  -5.802113e+05   8.886485e+05
  -1.518685e+06  -3.445585e+05
  -1.126513e+06  -2.377105e+06
   5.073635e+05  -3.116182e+06
   2.309489e+06  -1.700581e+06
   3.102164e+06   7.569628e+05
   2.329861e+06   2.440626e+06
   4.632770e+05   2.427494e+06
  -1.159089e+06   1.209603e+06
  -1.374637e+06   7.120936e+04
  -4.067975e+05  -5.110946e+04
   2.879867e+05   6.236278e+05
  -2.888850e+05   1.017459e+06
  -1.428469e+06   4.309567e+05
  -1.590107e+06  -6.303552e+05
  -3.667386e+05  -1.069542e+06
   9.459424e+05  -4.961918e+05
   8.520662e+05   3.866526e+05
  -6.333576e+05   6.250110e+05
  -1.985991e+06  -6.315599e+04
  -1.734242e+06  -1.168651e+06
   9.590800e+04  -1.849000e+06
   1.990468e+06  -1.490349e+06
   2.343957e+06  -2.168343e+05
   9.667431e+05   1.000873e+06
  -7.344509e+05   1.105083e+06
  -1.152993e+06   9.704825e+04
  -6.850957e+04  -8.201913e+05
   1.242633e+06  -5.497588e+05
   1.422841e+06   6.177649e+05
   3.719252e+05   1.367614e+06
  -8.267146e+05   9.214272e+05
  -1.083290e+06  -1.301866e+05
  -3.063492e+05  -6.086620e+05
   5.888450e+05  -5.886752e+04
   5.579265e+05   8.663508e+05
  -5.407833e+05   1.144350e+06
  -1.686993e+06   3.589184e+05
  -1.638199e+06  -9.384644e+05
  -2.712490e+05  -1.706544e+06
   1.180345e+06  -1.330042e+06
   1.416781e+06  -1.875850e+05
   4.508404e+05   7.070638e+05
  -5.383779e+05   6.889460e+05
  -6.030379e+05   3.726485e+04
   4.963860e+04  -4.359565e+05
   5.279187e+05  -2.981372e+05
   3.175809e+05   1.038453e+05
  -2.671718e+05   1.219501e+05
  -4.901412e+05  -4.176996e+05
   8.356291e+04  -9.605801e+05
   1.126594e+06  -7.493600e+05
   1.721672e+06   3.649631e+05
   1.170057e+06   1.637176e+06
  -2.368766e+05   2.040236e+06
  -1.399581e+06   1.240645e+06
  -1.510363e+06  -6.917424e+04
  -8.420295e+05  -8.659756e+05
  -2.862651e+05  -7.806322e+05
  -2.665746e+05  -3.277043e+05
  -3.757904e+05  -2.127354e+05
  -4.557632e+04  -5.421680e+05
   7.013204e+05  -7.621432e+05
   1.245786e+06  -3.205475e+05
   9.676773e+05   6.533320e+05
  -1.726787e+05   1.337617e+06
  -1.476508e+06   9.487409e+05
  -1.918679e+06  -4.270724e+05
  -9.762252e+05  -1.757627e+06
   7.815847e+05  -1.952305e+06
   2.065378e+06  -8.920964e+05
   2.011802e+06   4.830114e+05
   9.381195e+05   1.141957e+06
  -1.087355e+05   9.338475e+05
  -4.441570e+05   5.449810e+05
  -2.658962e+05   6.009634e+05
  -2.005982e+05   9.695644e+05
  -5.523925e+05   9.761647e+05
  -1.027281e+06   2.117858e+05
  -1.064486e+06  -9.435490e+05
  -4.060028e+05  -1.602891e+06
   5.701828e+05  -1.186286e+06
   1.088581e+06   8.152815e+03
   6.861118e+05   1.038234e+06
  -2.680915e+05   1.153781e+06
  -8.835554e+05   4.246186e+05
  -6.590705e+05  -4.372236e+05
   9.031300e+03  -8.114067e+05
   3.248898e+05  -6.697118e+05
   2.635021e+04  -4.065391e+05
  -3.258910e+05  -3.194072e+05
  -2.371863e+04  -3.329908e+05
   9.153018e+05  -1.718131e+05
   1.648528e+06   2.892238e+05
   1.330057e+06   8.533208e+05
   2.720100e+04   1.137713e+06
  -1.249255e+06   8.941441e+05
  -1.503647e+06   2.563805e+05
  -7.250601e+05  -3.176117e+05
   1.810664e+05  -4.178031e+05
   3.996973e+05  -6.643064e+04
  -1.508850e+04   2.797529e+05
  -4.115590e+05   1.815597e+05
  -3.795642e+05  -2.985396e+05
  -1.071626e+05  -6.288670e+05
   1.209113e+04  -4.034098e+05
  -1.300210e+05   1.345087e+05
  -3.108783e+05   3.078951e+05
  -2.430886e+05  -1.909707e+05
   1.840540e+05  -8.482319e+05
   7.715719e+05  -8.558132e+05
   1.040464e+06  -6.537490e+04
   5.916680e+05   7.819690e+05
  -3.694064e+05   8.640814e+05
  -9.975650e+05   1.741487e+05
  -5.848385e+05  -5.237154e+05
   5.825593e+05  -5.445758e+05
   1.369003e+06   7.314855e+04
   9.366895e+05   7.323565e+05
  -3.510703e+05   8.935235e+05
  -1.299621e+06   4.836150e+05
  -1.111352e+06  -1.322992e+05
  -1.426674e+05  -4.580835e+05
   5.452204e+05  -2.515354e+05
   2.909484e+05   2.285935e+05
  -5.404206e+05   3.817111e+05
  -9.799116e+05  -1.586562e+05
  -4.572476e+05  -1.036204e+06
   6.254044e+05  -1.378543e+06
   1.309681e+06  -6.473147e+05
   1.031226e+06   7.028004e+05
   1.096287e+05   1.535501e+06
  -6.651865e+05   1.116597e+06
  -7.967155e+05  -1.246489e+05
  -3.867673e+05  -1.017007e+06
   1.477877e+05  -8.580531e+05
   4.605210e+05  -8.678153e+04
   4.325154e+05   3.472570e+05
   1.871745e+05   1.426191e+05
   2.465136e+04  -9.762320e+04
   1.553697e+05   2.144229e+05
   3.780124e+05   8.135788e+05
   1.960140e+05   9.357940e+05
  -5.429883e+05   3.332016e+05
  -1.247069e+06  -4.363903e+05
  -1.122100e+06  -7.478753e+05
  -1.465576e+05  -5.840750e+05
   7.853484e+05  -3.213601e+05
   8.595172e+05  -1.460303e+05
   2.626693e+05   1.982372e+04
  -1.494285e+05   1.795098e+05
   2.236381e+04   2.078798e+05
   2.833883e+05   1.276485e+05
   1.388677e+04   1.161436e+05
  -6.330202e+05   1.497994e+05
  -8.744424e+05  -6.024923e+04
  -2.518089e+05  -5.795808e+05
   8.044030e+05  -9.251933e+05
   1.412070e+06  -5.426285e+05
   1.096918e+06   4.374789e+05
   1.624022e+05   1.204480e+06
  -6.722192e+05   1.117841e+06
  -8.981190e+05   3.794661e+05
  -5.523270e+05  -2.519216e+05
  -7.538800e+04  -3.036886e+05
   1.115523e+05  -1.336218e+04
  -5.272822e+04   5.477194e+04
  -2.722017e+05  -3.038773e+05
  -2.076440e+05  -6.921270e+05
   1.843759e+05  -5.538598e+05
   5.797003e+05   1.651581e+05
   5.545927e+05   8.631165e+05
   3.888008e+02   8.622166e+05
  -6.734089e+05   1.264097e+05
  -8.267213e+05  -6.911974e+05
  -2.216872e+05  -9.240506e+05
   6.290081e+05  -5.058929e+05
   9.118957e+05   1.130431e+05
   3.999461e+05   4.927943e+05
  -2.557612e+05   5.123360e+05
  -2.852210e+05   2.901234e+05
   2.566382e+05   3.950736e+04
   5.616368e+05  -2.894416e+03
   9.710597e+04   2.532117e+05
  -7.189933e+05   5.527485e+05
  -1.040098e+06   4.561859e+05
  -5.904652e+05  -1.307090e+05
   1.124564e+05  -7.096556e+05
   4.480762e+05  -6.872752e+05
   3.113142e+05  -9.086801e+04
   1.510515e+03   4.240268e+05
  -2.229628e+05   3.315733e+05
  -2.910635e+05  -1.799425e+05
  -1.881599e+05  -4.962956e+05
   6.697236e+04  -3.170320e+05
   3.246434e+05   6.986941e+04
   3.789175e+05   2.201315e+05
   2.031557e+05   6.155075e+04
  -4.660602e+03  -9.113249e+04
  -7.380323e+04   3.265823e+04
  -6.553211e+04   3.216639e+05
  -1.432558e+05   4.060952e+05
  -2.970927e+05   9.058610e+04
  -3.105221e+05  -3.824877e+05
  -3.177418e+04  -5.515212e+05
   3.751789e+05  -2.278585e+05
   5.189127e+05   2.844625e+05
   1.708436e+05   5.078022e+05
  -4.262925e+05   2.859244e+05
  -7.138868e+05  -1.106966e+05
  -3.780899e+05  -3.344756e+05
   2.583534e+05  -2.946901e+05
   5.311724e+05  -1.313927e+05
   1.767088e+05  -2.936118e+03
  -3.392737e+05   6.499095e+03
  -3.561075e+05  -1.180532e+05
   1.934093e+05  -2.656705e+05
   7.000920e+05  -1.964468e+05
