
 $NMID
 id='ANONYMOUS ', fmtdat='(2E16.6)'
 volume=1.0
 tramp=1.0
 $END
   6.048801e+07  -1.552702e+06
   3.717004e+07   3.671754e+07
  -7.160566e+06   4.114277e+07
  -2.923301e+07   1.622352e+07
  -1.770470e+07  -7.287689e+06
   3.410412e+06  -1.004977e+07
   1.049265e+07   1.194490e+06
   3.092206e+06   1.038331e+07
  -6.440377e+06   1.000416e+07
  -1.023947e+07   2.287402e+06
  -7.632704e+06  -6.415680e+06
  -1.134386e+06  -9.122620e+06
   4.171520e+06  -3.078199e+06
   2.967469e+06   5.635251e+06
  -3.831544e+06   6.995696e+06
  -8.426441e+06  -1.269024e+06
  -4.991084e+06  -1.078773e+07
   3.745656e+06  -1.269948e+07
   1.065816e+07  -6.609056e+06
   1.166929e+07   1.863098e+06
   7.381125e+06   7.856482e+06
   1.011756e+06   9.347826e+06
  -3.050548e+06   6.637172e+06
  -2.066509e+06   2.855913e+06
   1.189461e+06   2.089886e+06
   4.869778e+05   4.342547e+06
  -5.502724e+06   4.898743e+06
  -1.023149e+07   9.301661e+05
  -7.674780e+06  -4.137133e+06
  -5.184401e+05  -5.428140e+06
   3.810185e+06  -2.957866e+06
   2.675177e+06  -2.054434e+05
  -4.591559e+05   9.750703e+05
  -2.271585e+06   6.706754e+05
  -2.393140e+06  -1.323599e+06
  -9.707216e+05  -4.109763e+06
   1.769472e+06  -4.215767e+06
   3.546331e+06  -4.190862e+04
   2.025021e+06   3.869234e+06
  -7.989906e+05   2.183365e+06
  -5.288758e+05  -2.532899e+06
   2.509556e+06  -2.499772e+06
   2.677062e+06   3.355723e+06
  -2.495947e+06   6.615439e+06
  -7.492118e+06   1.232754e+06
  -5.689170e+06  -7.325683e+06
   1.851576e+06  -9.205280e+06
   7.891864e+06  -2.799392e+06
   7.507883e+06   4.538289e+06
   2.096965e+06   6.338884e+06
  -3.610910e+06   2.944243e+06
  -5.582694e+06  -1.493730e+06
  -2.622233e+06  -3.635618e+06
   2.542624e+06  -2.385268e+06
   4.850125e+06   8.823196e+05
   2.134160e+06   2.861478e+06
  -1.804029e+06   1.507974e+06
  -1.857689e+06  -1.041375e+06
   1.419869e+06  -9.676637e+05
   2.665218e+06   1.880308e+06
  -6.578505e+05   3.728102e+06
  -4.967784e+06   2.125188e+06
  -5.701253e+06  -1.359766e+06
  -2.560900e+06  -4.206859e+06
   1.746049e+06  -5.672400e+06
   5.135283e+06  -5.334973e+06
   6.529865e+06  -2.090756e+06
   5.017495e+06   3.198375e+06
   1.224984e+06   6.536178e+06
  -1.851689e+06   5.103650e+06
  -1.848218e+06   1.286072e+06
  -1.260823e+05  -3.195969e+05
   1.607552e+05   1.047041e+06
  -1.577244e+06   2.020197e+06
  -2.976590e+06   4.325352e+05
  -2.262139e+06  -1.917175e+06
  -1.617092e+05  -2.256275e+06
   1.594087e+06  -3.020764e+05
   1.845191e+06   2.095935e+06
   1.291977e+05   3.098659e+06
  -2.869864e+06   1.880834e+06
  -4.819754e+06  -1.084726e+06
  -3.589143e+06  -3.904792e+06
  -1.029593e+05  -4.544563e+06
   2.369082e+06  -2.994582e+06
   2.374835e+06  -1.272934e+06
   1.936284e+06  -7.582159e+05
   3.099794e+06  -5.847658e+05
   4.628705e+06   6.745378e+05
   3.780016e+06   2.817940e+06
   2.754012e+05   4.362981e+06
  -3.251750e+06   4.242891e+06
  -4.335310e+06   2.415555e+06
  -2.843376e+06  -3.236576e+05
  -4.074609e+05  -2.356932e+06
   1.075974e+06  -2.109980e+06
   6.053545e+05   7.695360e+03
  -1.099370e+06   1.434689e+06
  -2.017559e+06   4.910006e+05
  -1.033935e+06  -1.255842e+06
   4.989295e+05  -1.201237e+06
   4.458016e+05   3.974305e+05
  -1.131900e+06   7.343160e+05
  -1.993613e+06  -1.378087e+06
  -7.220333e+05  -3.708277e+06
   1.654603e+06  -3.610973e+06
   3.301321e+06  -1.187365e+06
   3.496789e+06   1.463852e+06
   2.447203e+06   2.823654e+06
   5.568587e+05   2.717478e+06
  -1.253408e+06   1.592593e+06
  -1.659279e+06   3.058089e+05
  -5.242939e+05  -3.188225e+04
   4.042002e+05   7.875518e+05
  -4.067679e+05   1.446791e+06
  -2.027266e+06   6.752717e+05
  -2.195778e+06  -8.966664e+05
  -4.426967e+05  -1.505866e+06
   1.231501e+06  -6.379058e+05
   9.426817e+05   4.551323e+05
  -8.928730e+05   5.505321e+05
  -2.296985e+06  -3.002511e+05
  -1.852517e+06  -1.378089e+06
   2.179509e+05  -2.067819e+06
   2.389238e+06  -1.808622e+06
   2.930824e+06  -3.741688e+05
   1.334956e+06   1.315806e+06
  -9.383521e+05   1.642120e+06
  -1.672720e+06   2.537324e+05
  -2.583342e+05  -1.155106e+06
   1.593723e+06  -8.365290e+05
   1.848891e+06   7.859805e+05
   3.914977e+05   1.745815e+06
  -1.143834e+06   1.050556e+06
  -1.337202e+06  -3.163028e+05
  -2.659225e+05  -8.294890e+05
   8.577587e+05  -7.817736e+04
   8.234823e+05   1.101339e+06
  -5.607314e+05   1.539534e+06
  -2.117569e+06   6.521948e+05
  -2.205526e+06  -1.046638e+06
  -4.762473e+05  -2.198711e+06
   1.487148e+06  -1.793955e+06
   1.832223e+06  -2.699507e+05
   5.521999e+05   9.120020e+05
  -6.795655e+05   8.692003e+05
  -6.592979e+05   1.044469e+05
   1.221182e+05  -3.639670e+05
   4.950555e+05  -2.171811e+05
   9.735461e+04   5.459202e+04
  -4.930245e+05  -1.011437e+05
  -5.572742e+05  -7.217804e+05
   2.007477e+05  -1.270550e+06
   1.447318e+06  -9.903790e+05
   2.226891e+06   3.765389e+05
   1.622655e+06   2.020633e+06
  -1.496778e+05   2.575737e+06
  -1.664886e+06   1.537024e+06
  -1.780087e+06  -9.008732e+04
  -9.162125e+05  -9.048610e+05
  -3.555141e+05  -6.418098e+05
  -5.379532e+05  -1.960298e+05
  -6.997798e+05  -3.248789e+05
  -1.228534e+05  -8.257532e+05
   9.093072e+05  -9.797601e+05
   1.521086e+06  -3.787076e+05
   1.120011e+06   7.260200e+05
  -2.279478e+05   1.535484e+06
  -1.789857e+06   1.179919e+06
  -2.394395e+06  -4.436322e+05
  -1.259397e+06  -2.196920e+06
   1.015979e+06  -2.545297e+06
   2.680963e+06  -1.162041e+06
   2.505981e+06   6.445744e+05
   1.028516e+06   1.388161e+06
  -2.011373e+05   9.832940e+05
  -3.753400e+05   5.334031e+05
  -2.534503e+04   8.103434e+05
  -5.274204e+04   1.414827e+06
  -6.772492e+05   1.406106e+06
  -1.375220e+06   3.855629e+05
  -1.463062e+06  -1.101189e+06
  -6.585656e+05  -1.993037e+06
   6.089733e+05  -1.548329e+06
   1.363034e+06  -3.645260e+04
   8.981589e+05   1.345888e+06
  -3.853879e+05   1.495596e+06
  -1.238358e+06   4.469432e+05
  -8.830682e+05  -7.447053e+05
   1.185638e+05  -1.160991e+06
   5.703238e+05  -8.414153e+05
   8.609787e+04  -4.323241e+05
  -4.778158e+05  -3.364318e+05
  -8.053978e+04  -4.030411e+05
   1.222397e+06  -2.569743e+05
   2.215923e+06   2.908735e+05
   1.752189e+06   1.056542e+06
  -1.075161e+04   1.536815e+06
  -1.671207e+06   1.269002e+06
  -1.942466e+06   3.429719e+05
  -8.929055e+05  -5.196839e+05
   2.688132e+05  -6.233097e+05
   5.476402e+05  -4.262942e+04
   5.287095e+04   4.617300e+05
  -4.539849e+05   2.956496e+05
  -5.269610e+05  -3.460625e+05
  -3.147966e+05  -7.558598e+05
  -1.373199e+05  -5.064778e+05
  -1.388811e+05   9.240416e+04
  -2.697193e+05   3.055051e+05
  -2.967116e+05  -2.390021e+05
   1.047260e+05  -1.047345e+06
   9.189247e+05  -1.168439e+06
   1.466034e+06  -2.460312e+05
   9.625721e+05   9.427086e+05
  -4.018445e+05   1.245131e+06
  -1.340487e+06   4.232183e+05
  -8.047246e+05  -5.755120e+05
   7.282189e+05  -7.088063e+05
   1.679727e+06   5.774653e+04
   1.068379e+06   8.850370e+05
  -5.000220e+05   1.046671e+06
  -1.566088e+06   5.290119e+05
  -1.293834e+06  -1.750572e+05
  -1.488717e+05  -5.347920e+05
   6.824300e+05  -2.970840e+05
   4.260796e+05   3.070720e+05
  -5.916834e+05   5.903857e+05
  -1.265031e+06  -2.176016e+04
  -7.842098e+05  -1.221589e+06
   5.322696e+05  -1.846326e+06
   1.530034e+06  -1.020316e+06
   1.367519e+06   7.447473e+05
   2.905719e+05   1.889702e+06
  -7.344715e+05   1.388913e+06
  -9.828570e+05  -1.694822e+05
  -4.842672e+05  -1.250456e+06
   2.200277e+05  -1.021419e+06
   6.004859e+05  -9.939880e+04
   4.911783e+05   3.772165e+05
   1.585724e+05   1.313200e+05
   5.555651e+04  -9.592125e+04
   3.379919e+05   3.197224e+05
   5.901277e+05   1.013619e+06
   2.189756e+05   1.131058e+06
  -7.732356e+05   4.401199e+05
  -1.580327e+06  -4.345121e+05
  -1.367058e+06  -8.363241e+05
  -2.205565e+05  -7.398664e+05
   8.667161e+05  -4.842639e+05
   1.028740e+06  -2.248918e+05
   4.041584e+05   5.729861e+04
  -1.362311e+05   2.489746e+05
  -5.680036e+04   2.031799e+05
   2.560955e+05   7.042094e+04
   7.186408e+04   1.383328e+05
  -6.605389e+05   2.944372e+05
  -1.118627e+06   4.402557e+04
  -5.380960e+05  -7.255143e+05
   8.126106e+05  -1.312928e+06
   1.797561e+06  -9.051328e+05
   1.563431e+06   3.778778e+05
   3.714935e+05   1.478737e+06
  -7.621139e+05   1.510122e+06
  -1.094128e+06   6.447165e+05
  -7.048858e+05  -1.973093e+05
  -1.738838e+05  -3.767091e+05
   4.375759e+04  -9.595566e+04
  -9.514738e+04  -2.090341e+03
  -3.204393e+05  -3.867920e+05
  -2.871869e+05  -8.481753e+05
   1.517247e+05  -7.395737e+05
   7.256490e+05   7.144705e+04
   8.559411e+05   9.543121e+05
   2.133016e+05   1.098517e+06
  -7.697693e+05   3.369940e+05
  -1.151466e+06  -6.835337e+05
  -4.492572e+05  -1.145607e+06
   7.205984e+05  -7.841345e+05
   1.212884e+06   1.349231e+04
   6.158563e+05   6.505088e+05
  -2.754859e+05   7.687631e+05
  -4.149314e+05   4.169723e+05
   2.322960e+05  -1.708166e+04
   6.813411e+05  -8.056250e+04
   1.827005e+05   3.274552e+05
  -8.445999e+05   7.598168e+05
  -1.340470e+06   6.123242e+05
  -8.520151e+05  -1.779717e+05
   5.613212e+04  -9.438711e+05
   5.740388e+05  -9.518140e+05
   4.792652e+05  -2.165727e+05
   1.003867e+05   4.945627e+05
  -2.266574e+05   4.946008e+05
  -3.821891e+05  -1.081960e+05
  -3.056924e+05  -6.005864e+05
   2.681471e+04  -4.859477e+05
   4.207214e+05   1.357136e+04
   5.309431e+05   2.957124e+05
   2.627200e+05   1.091174e+05
  -5.882615e+04  -1.828120e+05
  -8.857978e+04  -9.159806e+04
   7.522807e+04   3.579534e+05
   3.561226e+04   6.253501e+05
  -3.109507e+05   3.074279e+05
  -5.515743e+05  -3.439592e+05
  -2.577681e+05  -6.789413e+05
   4.024170e+05  -3.735680e+05
   7.450184e+05   2.412851e+05
   3.186207e+05   5.849045e+05
  -5.304246e+05   4.213565e+05
  -9.639571e+05  -1.852677e+04
  -5.406327e+05  -3.756604e+05
   2.919782e+05  -4.666615e+05
   6.782041e+05  -3.074391e+05
   2.913933e+05  -3.746730e+04
  -3.304706e+05   1.196621e+05
  -4.252207e+05  -8.254804e+03
   1.326927e+05  -2.989878e+05
   7.285370e+05  -3.338942e+05
