
 $NMID
 id='ANONYMOUS ', fmtdat='(2E16.6)'
 volume=1.0
 tramp=1.0
 $END
  -2.907749e+07  -1.187472e+06
  -1.803210e+07  -1.586001e+07
   2.117398e+06  -1.869044e+07
   1.341691e+07  -1.007899e+07
   9.717572e+06   7.282522e+05
  -3.015512e+05   4.997534e+06
  -5.562676e+06   1.335518e+06
  -3.238152e+06  -4.822708e+06
   2.146671e+06  -6.808218e+06
   5.321222e+06  -2.548770e+06
   4.245805e+06   3.703431e+06
   4.001122e+05   5.571724e+06
  -2.609251e+06   1.256692e+06
  -1.859134e+06  -4.358709e+06
   1.905527e+06  -5.037975e+06
   4.598687e+06   6.166865e+03
   3.009491e+06   5.681126e+06
  -1.753976e+06   6.841459e+06
  -5.595554e+06   3.159330e+06
  -5.639495e+06  -1.690002e+06
  -2.614928e+06  -4.171094e+06
   3.427888e+05  -3.662954e+06
   7.172057e+05  -2.138885e+06
  -1.066378e+06  -1.881117e+06
  -1.944768e+06  -3.188545e+06
   5.451192e+05  -4.069656e+06
   4.985232e+06  -2.536826e+06
   6.966937e+06   8.439214e+05
   4.027476e+06   3.336586e+06
  -1.148146e+06   3.014891e+06
  -3.579876e+06   6.417688e+05
  -1.527955e+06  -1.488828e+06
   2.065554e+06  -1.723617e+06
   3.421122e+06   5.001834e+04
   1.808382e+06   2.532848e+06
  -6.455387e+05   3.587489e+06
  -1.742669e+06   1.898428e+06
  -1.061710e+06  -1.097507e+06
   2.204133e+05  -2.068699e+06
   5.635618e+05   2.253292e+05
  -5.501194e+05   2.799651e+06
  -1.939904e+06   1.966864e+06
  -1.734936e+06  -1.587912e+06
   4.609514e+05  -3.344181e+06
   2.674664e+06  -7.887225e+05
   2.396695e+06   3.278193e+06
  -6.741583e+05   4.274407e+06
  -4.050649e+06   1.228439e+06
  -4.704553e+06  -2.675020e+06
  -1.872122e+06  -4.040427e+06
   2.177468e+06  -2.353316e+06
   4.074162e+06   4.411490e+05
   2.381987e+06   2.074946e+06
  -1.007459e+06   1.581265e+06
  -2.732735e+06  -1.943916e+05
  -1.441631e+06  -1.366962e+06
   8.955363e+05  -8.300829e+05
   1.450450e+06   5.677960e+05
  -1.329988e+05   1.065380e+06
  -1.542535e+06   1.030210e+05
  -7.669532e+05  -1.152709e+06
   1.533071e+06  -1.294407e+06
   2.872873e+06  -2.663853e+04
   1.632656e+06   1.902412e+06
  -1.433878e+06   3.307291e+06
  -4.037283e+06   3.004018e+06
  -4.372917e+06   6.126940e+05
  -2.529469e+06  -2.569279e+06
  -2.177105e+05  -4.260534e+06
   9.125705e+05  -3.480303e+06
   7.770219e+05  -1.664553e+06
   6.127481e+05  -8.228372e+05
   1.310666e+06  -1.036562e+06
   2.341959e+06  -6.995817e+05
   2.472448e+06   9.311559e+05
   1.207840e+06   2.486347e+06
  -7.043351e+05   2.158990e+06
  -1.943097e+06  -4.157797e+04
  -1.571689e+06  -2.229601e+06
   2.961137e+05  -2.558715e+06
   2.369785e+06  -8.543398e+05
   2.998300e+06   1.457028e+06
   1.674995e+06   2.718010e+06
  -3.241781e+05   2.406385e+06
  -1.298095e+06   1.370442e+06
  -1.092750e+06   7.683678e+05
  -1.128370e+06   8.056776e+05
  -2.301807e+06   6.458787e+05
  -3.517406e+06  -4.635551e+05
  -2.880951e+06  -2.218175e+06
  -1.027418e+05  -3.470623e+06
   2.876700e+06  -3.228226e+06
   3.766222e+06  -1.453365e+06
   2.148256e+06   8.058469e+05
  -2.479827e+05   2.028607e+06
  -1.298295e+06   1.422778e+06
  -4.260217e+05  -1.859409e+05
   1.073306e+06  -1.012820e+06
   1.513418e+06  -2.466828e+05
   5.536512e+05   9.633680e+05
  -5.924559e+05   9.443969e+05
  -6.043405e+05  -2.916328e+05
   5.166171e+05  -9.687780e+05
   1.540348e+06   2.048705e+05
   1.294154e+06   2.331501e+06
  -3.107912e+05   3.265769e+06
  -2.286105e+06   1.938495e+06
  -3.292123e+06  -6.396957e+05
  -2.555773e+06  -2.512100e+06
  -5.465893e+05  -2.564753e+06
   1.213779e+06  -1.282594e+06
   1.446494e+06  -7.876575e+04
   4.252503e+05   4.739540e+04
  -3.038232e+05  -6.414872e+05
   2.788406e+05  -1.034676e+06
   1.444156e+06  -4.498270e+05
   1.630373e+06   6.094335e+05
   4.006685e+05   1.071722e+06
  -9.608331e+05   5.243195e+05
  -9.024334e+05  -3.847416e+05
   6.326375e+05  -6.850217e+05
   2.089384e+06  -2.870116e+03
   1.873429e+06   1.187065e+06
  -4.368308e+04   1.957610e+06
  -2.055072e+06   1.602954e+06
  -2.439576e+06   2.626048e+05
  -1.009890e+06  -1.012721e+06
   7.426118e+05  -1.127703e+06
   1.166594e+06  -1.030467e+05
   6.034025e+04   8.344051e+05
  -1.278050e+06   5.736734e+05
  -1.481279e+06  -6.117691e+05
  -4.260213e+05  -1.404364e+06
   8.176370e+05  -9.845714e+05
   1.121720e+06   8.844078e+04
   3.427797e+05   6.059882e+05
  -5.917062e+05   5.967931e+04
  -5.723899e+05  -8.964902e+05
   5.671037e+05  -1.188729e+06
   1.758153e+06  -3.743221e+05
   1.707090e+06   9.693882e+05
   2.962408e+05   1.766927e+06
  -1.202525e+06   1.391717e+06
  -1.462266e+06   2.226263e+05
  -4.858376e+05  -7.155555e+05
   5.408241e+05  -7.226940e+05
   6.351899e+05  -4.771385e+04
  -3.404970e+04   4.715251e+05
  -5.618743e+05   3.406468e+05
  -3.714493e+05  -1.057960e+05
   2.523758e+05  -1.594805e+05
   5.224820e+05   4.023641e+05
  -6.031691e+04   9.945619e+05
  -1.160250e+06   7.949575e+05
  -1.795978e+06  -3.620462e+05
  -1.231487e+06  -1.694089e+06
   2.250262e+05  -2.133831e+06
   1.442258e+06  -1.327684e+06
   1.590566e+06   3.449795e+04
   9.241904e+05   9.021843e+05
   3.314650e+05   8.521049e+05
   2.679949e+05   3.739462e+05
   3.647785e+05   2.187976e+05
   4.374719e+04   5.527562e+05
  -7.170625e+05   8.080117e+05
  -1.303663e+06   3.621544e+05
  -1.041266e+06  -6.763367e+05
   1.492987e+05  -1.420343e+06
   1.532937e+06  -1.021114e+06
   2.014394e+06   4.215273e+05
   1.045151e+06   1.814680e+06
  -7.765269e+05   2.032918e+06
  -2.122700e+06   9.594831e+05
  -2.104287e+06  -4.562754e+05
  -1.020711e+06  -1.168593e+06
   7.831998e+04  -9.958986e+05
   4.694175e+05  -6.036999e+05
   3.072002e+05  -6.368684e+05
   2.226998e+05  -9.963911e+05
   5.645229e+05  -1.004837e+06
   1.059015e+06  -2.218451e+05
   1.113774e+06   9.773011e+05
   4.355799e+05   1.668905e+06
  -5.859676e+05   1.242192e+06
  -1.134330e+06   6.445911e+03
  -7.268364e+05  -1.063474e+06
   2.524233e+05  -1.197741e+06
   8.909053e+05  -4.638250e+05
   6.785740e+05   4.207678e+05
   1.297569e+04   8.221671e+05
  -3.052709e+05   6.950715e+05
  -8.388229e+03   4.304077e+05
   3.418587e+05   3.386815e+05
   2.595760e+04   3.526525e+05
  -9.446458e+05   1.884854e+05
  -1.709433e+06  -2.867371e+05
  -1.391383e+06  -8.694330e+05
  -4.893587e+04  -1.167236e+06
   1.277822e+06  -9.306750e+05
   1.553205e+06  -2.911167e+05
   7.561606e+05   3.001035e+05
  -1.803382e+05   4.247107e+05
  -4.079536e+05   7.981419e+04
   2.330691e+04  -2.836611e+05
   4.361654e+05  -1.947434e+05
   3.981438e+05   3.087872e+05
   1.051742e+05   6.669482e+05
  -2.262344e+04   4.280277e+05
   1.330828e+05  -1.540724e+05
   3.303764e+05  -3.414381e+05
   2.585665e+05   1.977679e+05
  -1.919987e+05   8.984454e+05
  -8.011651e+05   8.964504e+05
  -1.072890e+06   5.733821e+04
  -6.061787e+05  -8.204414e+05
   3.847423e+05  -8.908682e+05
   1.036239e+06  -1.715488e+05
   6.157757e+05   5.475288e+05
  -5.974660e+05   5.765300e+05
  -1.434420e+06  -5.052933e+04
  -1.005656e+06  -7.433941e+05
   3.369944e+05  -9.447347e+05
   1.348436e+06  -5.423383e+05
   1.171863e+06   1.101829e+05
   1.631373e+05   4.774337e+05
  -5.613810e+05   2.741283e+05
  -2.976437e+05  -2.331100e+05
   5.720794e+05  -3.979616e+05
   1.027823e+06   1.701859e+05
   4.746540e+05   1.090490e+06
  -6.603582e+05   1.447000e+06
  -1.375393e+06   6.815231e+05
  -1.086706e+06  -7.312612e+05
  -1.287409e+05  -1.609582e+06
   6.820713e+05  -1.182929e+06
   8.335371e+05   1.120695e+05
   4.234533e+05   1.054752e+06
  -1.311416e+05   9.003357e+05
  -4.748974e+05   9.799458e+04
  -4.656594e+05  -3.578872e+05
  -2.084330e+05  -1.462913e+05
  -1.886354e+04   1.038591e+05
  -1.457582e+05  -2.221329e+05
  -3.956962e+05  -8.463233e+05
  -2.279246e+05  -9.731730e+05
   5.487600e+05  -3.495672e+05
   1.311067e+06   4.438554e+05
   1.193433e+06   7.665207e+05
   1.592806e+05   6.070319e+05
  -8.300924e+05   3.473267e+05
  -9.004005e+05   1.665449e+05
  -2.635642e+05  -1.592462e+04
   1.587648e+05  -1.898263e+05
  -4.112878e+04  -2.185485e+05
  -3.139225e+05  -1.334024e+05
  -9.702799e+03  -1.250075e+05
   6.783444e+05  -1.626211e+05
   9.153471e+05   6.168468e+04
   2.470167e+05   6.110470e+05
  -8.508670e+05   9.715503e+05
  -1.468784e+06   5.645004e+05
  -1.138247e+06  -4.646680e+05
  -1.745768e+05  -1.264309e+06
   6.944541e+05  -1.168828e+06
   9.416360e+05  -3.937806e+05
   5.848198e+05   2.671551e+05
   7.439989e+04   3.198556e+05
  -1.319146e+05   1.176883e+04
   4.666882e+04  -6.474984e+04
   2.911115e+05   3.095962e+05
   2.267155e+05   7.201093e+05
  -1.932838e+05   5.783731e+05
  -6.136602e+05  -1.771371e+05
  -5.816738e+05  -9.114063e+05
   8.718242e+03  -9.069049e+05
   7.169512e+05  -1.279429e+05
   8.708909e+05   7.311791e+05
   2.295281e+05   9.689351e+05
  -6.616297e+05   5.252889e+05
  -9.508178e+05  -1.193007e+05
  -4.102779e+05  -5.083894e+05
   2.694840e+05  -5.258746e+05
   2.878097e+05  -2.972992e+05
  -2.826237e+05  -3.839339e+04
  -5.921277e+05   6.061616e+03
  -9.845843e+04  -2.642458e+05
   7.481355e+05  -5.847954e+05
   1.071837e+06  -4.883396e+05
   6.034337e+05   1.290656e+05
  -1.160445e+05   7.393194e+05
  -4.567369e+05   7.130976e+05
  -3.179622e+05   8.371108e+04
  -5.221892e+02  -4.514839e+05
   2.364982e+05  -3.435008e+05
   3.113510e+05   1.963875e+05
   1.986201e+05   5.196181e+05
  -7.525122e+04   3.242937e+05
  -3.417956e+05  -7.580220e+04
  -3.910432e+05  -2.225133e+05
  -2.100957e+05  -5.675199e+04
  -3.606969e+03   8.971331e+04
   6.917674e+04  -5.118225e+04
   7.782931e+04  -3.502372e+05
   1.728436e+05  -4.240833e+05
   3.255693e+05  -8.103731e+04
   3.194798e+05   4.170546e+05
   1.910421e+04   5.874152e+05
  -3.992123e+05   2.381517e+05
  -5.413895e+05  -3.050626e+05
  -1.783286e+05  -5.375380e+05
   4.425079e+05  -2.988170e+05
   7.441245e+05   1.194929e+05
   3.947183e+05   3.497238e+05
  -2.723104e+05   3.021275e+05
  -5.567818e+05   1.298705e+05
  -1.777088e+05  -1.023830e+03
   3.700330e+05  -5.526644e+03
   3.831023e+05   1.308567e+05
  -2.069601e+05   2.902164e+05
  -7.471537e+05   2.162691e+05
