
 $NMID
 id='ANONYMOUS ', fmtdat='(2E16.6)'
 volume=1.0
 tramp=1.0
 $END
  -3.348082e+07  -7.548421e+03
  -2.099390e+07  -1.755158e+07
   1.948746e+06  -2.137929e+07
   1.473432e+07  -1.173517e+07
   1.067978e+07   6.021491e+05
  -2.873750e+05   5.575717e+06
  -6.060940e+06   1.626963e+06
  -3.712554e+06  -5.214611e+06
   2.053515e+06  -7.583097e+06
   5.787355e+06  -3.027494e+06
   5.012483e+06   3.961574e+06
   8.062237e+05   6.271426e+06
  -2.928357e+06   1.622720e+06
  -2.463205e+06  -4.719427e+06
   1.773655e+06  -5.689397e+06
   5.127489e+06  -1.807936e+05
   3.651911e+06   6.243871e+06
  -1.656789e+06   7.782142e+06
  -6.212704e+06   3.857594e+06
  -6.576870e+06  -1.642347e+06
  -3.268443e+06  -4.732281e+06
   2.773762e+05  -4.368662e+06
   9.418252e+05  -2.474153e+06
  -1.145108e+06  -1.798004e+06
  -2.473991e+06  -3.177187e+06
   1.436135e+05  -4.569504e+06
   5.345413e+06  -3.363993e+06
   7.959045e+06   3.194391e+05
   4.870032e+06   3.500212e+06
  -1.018907e+06   3.642243e+06
  -4.011510e+06   1.170399e+06
  -1.984788e+06  -1.463021e+06
   1.964560e+06  -2.156044e+06
   3.728566e+06  -3.892002e+05
   2.311295e+06   2.565495e+06
  -3.195364e+05   4.095554e+06
  -1.855584e+06   2.339489e+06
  -1.447373e+06  -1.198078e+06
   3.584080e+04  -2.502637e+06
   7.879295e+05   9.009825e+04
  -2.511724e+05   3.162761e+06
  -1.972653e+06   2.332069e+06
  -1.996714e+06  -1.702565e+06
   4.431022e+05  -3.742180e+06
   3.090060e+06  -8.832802e+05
   2.880821e+06   3.709839e+06
  -6.259212e+05   4.898746e+06
  -4.561461e+06   1.612184e+06
  -5.435668e+06  -2.682988e+06
  -2.334437e+06  -4.339889e+06
   2.246201e+06  -2.738861e+06
   4.509167e+06   2.068536e+05
   2.725632e+06   2.124097e+06
  -1.075857e+06   1.790049e+06
  -3.076582e+06  -9.384311e+04
  -1.657724e+06  -1.473786e+06
   9.850859e+05  -9.864992e+05
   1.637411e+06   5.265492e+05
  -9.839848e+04   1.110231e+06
  -1.622848e+06   1.098417e+05
  -7.460495e+05  -1.232156e+06
   1.748607e+06  -1.417967e+06
   3.183891e+06  -9.189965e+04
   1.883511e+06   2.070303e+06
  -1.379313e+06   3.835691e+06
  -4.281273e+06   3.719751e+06
  -4.888503e+06   1.051292e+06
  -3.094031e+06  -2.719544e+06
  -5.775958e+05  -4.791425e+06
   7.902822e+05  -3.909713e+06
   7.141394e+05  -1.805342e+06
   4.941275e+05  -9.211300e+05
   1.247687e+06  -1.344892e+06
   2.519130e+06  -1.113423e+06
   2.897305e+06   7.248888e+05
   1.656877e+06   2.629427e+06
  -5.177990e+05   2.491010e+06
  -2.137923e+06   1.897723e+05
  -1.968201e+06  -2.290238e+06
   7.733294e+04  -2.879128e+06
   2.587305e+06  -1.192275e+06
   3.525745e+06   1.377008e+06
   2.118216e+06   2.962782e+06
  -2.175197e+05   2.778772e+06
  -1.419493e+06   1.633855e+06
  -1.198534e+06   8.931717e+05
  -1.180402e+06   9.436013e+05
  -2.476323e+06   8.925084e+05
  -3.920719e+06  -2.185015e+05
  -3.373859e+06  -2.205391e+06
  -4.232032e+05  -3.828155e+06
   2.883699e+06  -3.840753e+06
   4.044846e+06  -1.979124e+06
   2.490404e+06   6.822598e+05
  -5.301721e+04   2.295978e+06
  -1.309034e+06   1.730538e+06
  -5.096681e+05  -1.654510e+05
   1.096024e+06  -1.238496e+06
   1.672656e+06  -4.068469e+05
   7.106418e+05   1.042413e+06
  -5.687107e+05   1.115840e+06
  -6.858552e+05  -2.527322e+05
   4.779879e+05  -1.072569e+06
   1.660179e+06   1.381869e+05
   1.547780e+06   2.442183e+06
  -8.919903e+04   3.538511e+06
  -2.301993e+06   2.257194e+06
  -3.617882e+06  -4.157914e+05
  -3.019169e+06  -2.493500e+06
  -8.480587e+05  -2.751618e+06
   1.214466e+06  -1.532378e+06
   1.594753e+06  -2.275101e+05
   4.741485e+05   1.574306e+04
  -3.961578e+05  -6.827656e+05
   2.263693e+05  -1.173697e+06
   1.573595e+06  -6.190141e+05
   1.858725e+06   5.462528e+05
   5.281769e+05   1.159452e+06
  -1.017690e+06   6.690679e+05
  -1.030997e+06  -3.304520e+05
   6.173661e+05  -7.954884e+05
   2.270604e+06  -1.968616e+05
   2.156537e+06   1.109320e+06
   1.401045e+05   2.137489e+06
  -2.107281e+06   1.950851e+06
  -2.667335e+06   5.104798e+05
  -1.203792e+06  -1.039348e+06
   7.370058e+05  -1.322097e+06
   1.299208e+06  -2.082520e+05
   1.435742e+05   9.349555e+05
  -1.368416e+06   7.538850e+05
  -1.690101e+06  -5.467099e+05
  -5.882621e+05  -1.508161e+06
   8.146160e+05  -1.147437e+06
   1.237203e+06   4.545352e+03
   4.252818e+05   6.379849e+05
  -6.525639e+05   1.195512e+05
  -7.209469e+05  -9.380075e+05
   5.109169e+05  -1.371310e+06
   1.909342e+06  -5.830421e+05
   1.980329e+06   9.139395e+05
   4.874384e+05   1.929062e+06
  -1.208771e+06   1.644553e+06
  -1.596931e+06   3.703937e+05
  -5.972170e+05  -7.504385e+05
   5.337504e+05  -8.483765e+05
   6.990138e+05  -1.191750e+05
   1.920063e+04   5.120506e+05
  -5.665216e+05   4.330197e+05
  -4.101459e+05  -5.601207e+04
   2.494947e+05  -1.749997e+05
   5.915100e+05   3.980345e+05
   1.503233e+04   1.091639e+06
  -1.205614e+06   9.769128e+05
  -2.013124e+06  -2.356456e+05
  -1.514634e+06  -1.758428e+06
   5.172826e+04  -2.375573e+06
   1.463570e+06  -1.592598e+06
   1.746199e+06  -1.086967e+05
   1.098077e+06   8.949354e+05
   4.571615e+05   8.923094e+05
   3.479653e+05   3.886968e+05
   4.254978e+05   2.218225e+05
   9.049191e+04   6.098704e+05
  -7.162989e+05   9.469208e+05
  -1.390920e+06   5.149878e+05
  -1.201298e+06  -6.366011e+05
   2.810411e+04  -1.562558e+06
   1.585551e+06  -1.261513e+06
   2.254606e+06   2.762512e+05
   1.315107e+06   1.901799e+06
  -6.768159e+05   2.307809e+06
  -2.254575e+06   1.242897e+06
  -2.352748e+06  -3.144073e+05
  -1.223538e+06  -1.184246e+06
  -1.118153e+04  -1.090532e+06
   4.452500e+05  -7.095046e+05
   2.707510e+05  -7.479193e+05
   1.593411e+05  -1.135813e+06
   5.413646e+05  -1.164336e+06
   1.155562e+06  -3.390355e+05
   1.322851e+06   9.786805e+05
   6.364918e+05   1.804399e+06
  -5.320307e+05   1.428160e+06
  -1.250448e+06   1.119285e+05
  -8.948487e+05  -1.107870e+06
   1.745754e+05  -1.339344e+06
   9.385710e+05  -5.799247e+05
   7.752162e+05   4.120859e+05
   7.628401e+04   9.023694e+05
  -2.790085e+05   7.833601e+05
   3.120087e+04   4.688704e+05
   4.106499e+05   3.426016e+05
   6.203674e+04   3.860474e+05
  -1.025173e+06   2.887022e+05
  -1.912607e+06  -1.662665e+05
  -1.611978e+06  -8.339687e+05
  -1.528965e+05  -1.281058e+06
   1.332634e+06  -1.139057e+06
   1.686198e+06  -4.577056e+05
   8.523745e+05   2.657809e+05
  -1.669064e+05   4.841669e+05
  -4.403059e+05   1.201700e+05
   5.090745e+03  -3.204567e+05
   4.641862e+05  -2.567171e+05
   4.675202e+05   3.065306e+05
   1.819846e+05   7.318937e+05
   1.827934e+04   4.808960e+05
   1.268888e+05  -1.789001e+05
   3.221331e+05  -4.090090e+05
   3.001504e+05   1.907593e+05
  -1.241164e+05   1.008019e+06
  -8.005646e+05   1.063059e+06
  -1.186345e+06   1.583831e+05
  -7.495734e+05  -8.563647e+05
   3.484768e+05  -1.022260e+06
   1.136850e+06  -2.835750e+05
   7.321341e+05   5.478799e+05
  -6.068136e+05   6.877855e+05
  -1.581631e+06   7.524347e+04
  -1.169488e+06  -7.202813e+05
   2.842868e+05  -1.062199e+06
   1.427218e+06  -7.174453e+05
   1.294137e+06   1.070743e+04
   2.234051e+05   5.073986e+05
  -5.919392e+05   3.520949e+05
  -3.502633e+05  -2.330304e+05
   5.954317e+05  -4.978921e+05
   1.156052e+06   8.989374e+04
   6.312606e+05   1.164633e+06
  -5.942430e+05   1.667289e+06
  -1.458631e+06   8.848799e+05
  -1.269613e+06  -7.066005e+05
  -2.921101e+05  -1.764955e+06
   6.400886e+05  -1.366344e+06
   9.251217e+05   4.773816e+04
   5.620263e+05   1.120406e+06
  -6.052045e+04   9.984922e+05
  -5.130227e+05   1.498812e+05
  -5.459779e+05  -3.465513e+05
  -2.430973e+05  -1.365760e+05
  -1.122909e+04   1.140332e+05
  -1.824379e+05  -2.397582e+05
  -5.155914e+05  -9.010430e+05
  -3.396628e+05  -1.047710e+06
   5.761971e+05  -4.300797e+05
   1.488018e+06   3.678449e+05
   1.385023e+06   7.305450e+05
   2.302832e+05   6.547904e+05
  -8.820066e+05   4.645457e+05
  -9.755454e+05   2.678300e+05
  -2.916199e+05   1.448744e+03
   1.576948e+05  -2.265034e+05
  -6.459655e+04  -2.304270e+05
  -3.586696e+05  -1.099241e+05
  -2.459575e+04  -1.384422e+05
   7.320401e+05  -2.499941e+05
   1.018815e+06  -1.763614e+04
   3.336151e+05   6.607075e+05
  -8.500819e+05   1.159625e+06
  -1.576541e+06   7.583621e+05
  -1.307432e+06  -4.129278e+05
  -3.122224e+05  -1.381765e+06
   6.608999e+05  -1.354739e+06
   1.006718e+06  -5.247577e+05
   6.734011e+05   2.373518e+05
   1.138245e+05   3.484426e+05
  -1.447389e+05   3.218181e+04
   4.266389e+04  -7.178763e+04
   3.472449e+05   3.130024e+05
   3.166828e+05   7.721872e+05
  -1.599041e+05   6.594504e+05
  -6.979884e+05  -1.347568e+05
  -7.336062e+05  -9.542100e+05
  -7.761241e+04  -1.009732e+06
   7.839403e+05  -2.143526e+05
   1.036161e+06   7.261869e+05
   3.452252e+05   1.052980e+06
  -6.856103e+05   6.448724e+05
  -1.064510e+06  -4.500439e+04
  -4.989069e+05  -5.282485e+05
   2.532810e+05  -6.084870e+05
   2.936472e+05  -3.521678e+05
  -3.147333e+05  -1.090905e+04
  -6.533585e+05   6.335810e+04
  -1.331763e+05  -2.848822e+05
   7.717743e+05  -7.152858e+05
   1.137905e+06  -6.329780e+05
   6.778110e+05   9.371149e+04
  -6.138771e+04   8.294421e+05
  -4.429577e+05   8.272707e+05
  -3.496494e+05   1.191376e+05
  -4.578426e+04  -5.001583e+05
   2.314320e+05  -4.037491e+05
   3.662262e+05   1.854248e+05
   2.682715e+05   5.562838e+05
  -5.627971e+04   3.687710e+05
  -3.868844e+05  -5.111603e+04
  -4.508196e+05  -2.129279e+05
  -2.347198e+05  -4.493484e+04
   2.400606e+03   1.036005e+05
   6.478610e+04  -5.882859e+04
   4.717778e+04  -3.987300e+05
   1.514742e+05  -4.960629e+05
   3.586830e+05  -1.270459e+05
   4.003104e+05   4.340903e+05
   8.078898e+04   6.546634e+05
  -4.198611e+05   3.036750e+05
  -6.311375e+05  -2.879514e+05
  -2.501466e+05  -5.785179e+05
   4.625283e+05  -3.704375e+05
   8.369832e+05   6.418422e+04
   4.697459e+05   3.510668e+05
  -2.762294e+05   3.613343e+05
  -6.083012e+05   1.964811e+05
  -1.992915e+05   1.207882e+04
   4.095088e+05  -4.760053e+04
   4.397145e+05   1.044077e+05
  -1.965992e+05   3.425328e+05
  -8.023818e+05   3.151721e+05
