
 $NMID
 id='ANONYMOUS ', fmtdat='(2E16.6)'
 volume=1.0
 tramp=1.0
 $END
   5.919287e+07   2.318546e+06
   3.374247e+07   3.824229e+07
  -9.751436e+06   3.959721e+07
  -2.941505e+07   1.380948e+07
  -1.656518e+07  -8.263335e+06
   4.005463e+06  -9.484270e+06
   1.000537e+07   1.871056e+06
   2.273703e+06   1.020952e+07
  -6.821607e+06   9.204245e+06
  -1.001868e+07   1.546660e+06
  -7.049967e+06  -6.685600e+06
  -6.038009e+05  -8.935479e+06
   4.258451e+06  -2.782394e+06
   2.625303e+06   5.595985e+06
  -4.071643e+06   6.517350e+06
  -8.073199e+06  -1.765414e+06
  -4.180967e+06  -1.078098e+07
   4.424846e+06  -1.211035e+07
   1.080320e+07  -5.787342e+06
   1.130885e+07   2.539983e+06
   6.748349e+06   8.184207e+06
   3.575834e+05   9.263280e+06
  -3.498447e+06   6.262051e+06
  -2.238818e+06   2.497389e+06
   1.119796e+06   1.946060e+06
   3.533847e+05   4.245573e+06
  -5.584466e+06   4.569046e+06
  -1.004663e+07   4.295987e+05
  -7.293567e+06  -4.456376e+06
  -2.341954e+05  -5.403396e+06
   3.893183e+06  -2.782956e+06
   2.717791e+06  -1.014169e+05
  -3.613707e+05   9.986717e+05
  -2.200071e+06   6.748928e+05
  -2.350812e+06  -1.335096e+06
  -8.277035e+05  -4.087602e+06
   1.974746e+06  -4.060538e+06
   3.558183e+06   1.907310e+05
   1.781596e+06   3.974410e+06
  -9.977081e+05   2.133980e+06
  -4.855932e+05  -2.500496e+06
   2.531340e+06  -2.296408e+06
   2.376539e+06   3.414970e+06
  -2.874292e+06   6.232796e+06
  -7.402320e+06   6.502143e+05
  -5.068999e+06  -7.538328e+06
   2.416297e+06  -8.844039e+06
   7.871916e+06  -2.240674e+06
   7.019462e+06   4.817936e+06
   1.670526e+06   6.222020e+06
  -3.631652e+06   2.633881e+06
  -5.278412e+06  -1.733174e+06
  -2.305139e+06  -3.627594e+06
   2.609786e+06  -2.132977e+06
   4.641866e+06   1.153065e+06
   1.882240e+06   2.899517e+06
  -1.846805e+06   1.352498e+06
  -1.729105e+06  -1.095071e+06
   1.425064e+06  -7.944212e+05
   2.400919e+06   2.022213e+06
  -9.613829e+05   3.541961e+06
  -4.991379e+06   1.684829e+06
  -5.420565e+06  -1.708589e+06
  -2.202993e+06  -4.244031e+06
   2.009424e+06  -5.436118e+06
   5.266782e+06  -4.957748e+06
   6.483358e+06  -1.712157e+06
   4.749288e+06   3.397755e+06
   8.600169e+05   6.436406e+06
  -2.065452e+06   4.821901e+06
  -1.820101e+06   1.090938e+06
  -1.934245e+04  -3.176236e+05
   1.730293e+05   1.103350e+06
  -1.629310e+06   1.981427e+06
  -2.967552e+06   3.390498e+05
  -2.181156e+06  -1.950963e+06
  -1.117626e+05  -2.223696e+06
   1.543771e+06  -2.769396e+05
   1.720681e+06   2.072921e+06
   1.021668e+04   3.014937e+06
  -2.887032e+06   1.716190e+06
  -4.666669e+06  -1.289987e+06
  -3.304720e+06  -4.012090e+06
   1.650565e+05  -4.454264e+06
   2.502199e+06  -2.779513e+06
   2.389175e+06  -1.078726e+06
   1.900496e+06  -6.114108e+05
   3.006493e+06  -4.105701e+05
   4.431972e+06   8.660894e+05
   3.522517e+06   2.890117e+06
   7.895389e+04   4.224144e+06
  -3.318471e+06   3.970961e+06
  -4.303216e+06   2.176248e+06
  -2.766519e+06  -4.237209e+05
  -3.205338e+05  -2.321475e+06
   1.130003e+06  -2.025329e+06
   5.970529e+05   3.045384e+04
  -1.122996e+06   1.352339e+06
  -1.978174e+06   3.848097e+05
  -9.491646e+05  -1.274040e+06
   5.262461e+05  -1.149638e+06
   4.015606e+05   3.859510e+05
  -1.110290e+06   6.187808e+05
  -1.802760e+06  -1.449504e+06
  -4.672265e+05  -3.579091e+06
   1.761425e+06  -3.326995e+06
   3.179314e+06  -9.423392e+05
   3.253307e+06   1.548288e+06
   2.231427e+06   2.778347e+06
   4.410566e+05   2.622029e+06
  -1.268936e+06   1.493934e+06
  -1.619069e+06   2.366534e+05
  -5.052272e+05  -5.226130e+04
   3.567685e+05   7.769559e+05
  -4.641318e+05   1.377343e+06
  -1.994440e+06   5.543436e+05
  -2.074040e+06  -9.706806e+05
  -3.513545e+05  -1.471163e+06
   1.213308e+06  -5.591817e+05
   8.841827e+05   4.681670e+05
  -8.706610e+05   4.768988e+05
  -2.174593e+06  -3.811486e+05
  -1.716560e+06  -1.379052e+06
   2.841630e+05  -1.963242e+06
   2.364906e+06  -1.642987e+06
   2.839246e+06  -2.412429e+05
   1.228934e+06   1.330775e+06
  -9.875959e+05   1.547725e+06
  -1.635359e+06   1.645096e+05
  -1.983720e+05  -1.136760e+06
   1.577708e+06  -7.405892e+05
   1.746101e+06   8.375751e+05
   2.984018e+05   1.691103e+06
  -1.141036e+06   9.512409e+05
  -1.261731e+06  -3.645659e+05
  -2.121565e+05  -8.035629e+05
   8.326817e+05  -3.172707e+04
   7.491326e+05   1.101751e+06
  -6.058681e+05   1.467848e+06
  -2.075895e+06   5.456284e+05
  -2.090240e+06  -1.103273e+06
  -3.670793e+05  -2.144398e+06
   1.512983e+06  -1.666522e+06
   1.776870e+06  -1.805576e+05
   4.904629e+05   8.999130e+05
  -6.902177e+05   8.069131e+05
  -6.380789e+05   8.094657e+04
   1.235722e+05  -3.341672e+05
   4.690306e+05  -1.925600e+05
   8.476112e+04   3.495434e+04
  -4.598106e+05  -1.372769e+05
  -4.910100e+05  -7.210973e+05
   2.539599e+05  -1.209568e+06
   1.437412e+06  -8.912214e+05
   2.132721e+06   4.565526e+05
   1.483127e+06   2.019100e+06
  -2.473779e+05   2.479789e+06
  -1.660347e+06   1.412777e+06
  -1.702993e+06  -1.541524e+05
  -8.490126e+05  -8.926461e+05
  -3.359432e+05  -6.189681e+05
  -5.301283e+05  -2.156919e+05
  -6.641169e+05  -3.581963e+05
  -7.687649e+04  -8.086553e+05
   9.178543e+05  -9.029143e+05
   1.475262e+06  -3.021015e+05
   1.048753e+06   7.355525e+05
  -2.749926e+05   1.460626e+06
  -1.767266e+06   1.062863e+06
  -2.288642e+06  -5.226685e+05
  -1.120391e+06  -2.166768e+06
   1.090882e+06  -2.405731e+06
   2.632193e+06  -1.000650e+06
   2.378997e+06   7.251094e+05
   9.277373e+05   1.366665e+06
  -2.252409e+05   9.257137e+05
  -3.669404e+05   5.028086e+05
  -5.028915e+04   7.994257e+05
  -1.149952e+05   1.377882e+06
  -7.208334e+05   1.331177e+06
  -1.349022e+06   3.120688e+05
  -1.370316e+06  -1.124907e+06
  -5.562455e+05  -1.952334e+06
   6.501595e+05  -1.471873e+06
   1.314715e+06   2.023359e+04
   8.056720e+05   1.335554e+06
  -4.381076e+05   1.420375e+06
  -1.208781e+06   3.663359e+05
  -8.075323e+05  -7.639102e+05
   1.757043e+05  -1.109837e+06
   5.898174e+05  -7.748170e+05
   9.803370e+04  -4.057323e+05
  -4.519126e+05  -3.453666e+05
  -6.339168e+04  -3.934967e+05
   1.191363e+06  -1.927161e+05
   2.128246e+06   3.791318e+05
   1.644213e+06   1.093953e+06
  -8.340042e+04   1.478318e+06
  -1.673053e+06   1.148897e+06
  -1.885240e+06   2.455105e+05
  -8.283510e+05  -5.405991e+05
   2.923648e+05  -5.890929e+05
   5.274696e+05  -1.358389e+04
   2.726624e+04   4.548078e+05
  -4.507137e+05   2.716934e+05
  -4.958034e+05  -3.568747e+05
  -2.798557e+05  -7.499143e+05
  -1.165215e+05  -5.022406e+05
  -1.316889e+05   8.166623e+04
  -2.625358e+05   2.868895e+05
  -2.750023e+05  -2.417120e+05
   1.387756e+05  -1.009829e+06
   9.365736e+05  -1.091446e+06
   1.436138e+06  -1.711434e+05
   8.965933e+05   9.590568e+05
  -4.463332e+05   1.190145e+06
  -1.322670e+06   3.528178e+05
  -7.573040e+05  -5.883913e+05
   7.313083e+05  -6.520180e+05
   1.613111e+06   1.222942e+05
   9.880733e+05   8.876760e+05
  -5.221838e+05   9.787241e+05
  -1.520463e+06   4.439918e+05
  -1.232141e+06  -2.166128e+05
  -1.220479e+05  -5.169761e+05
   6.673082e+05  -2.563621e+05
   3.977608e+05   3.176963e+05
  -5.973354e+05   5.523847e+05
  -1.227717e+06  -6.952803e+04
  -7.155518e+05  -1.217532e+06
   5.869230e+05  -1.772912e+06
   1.522484e+06  -9.316964e+05
   1.294828e+06   7.727610e+05
   2.081881e+05   1.837082e+06
  -7.598118e+05   1.310269e+06
  -9.363263e+05  -2.036148e+05
  -4.146592e+05  -1.221445e+06
   2.522528e+05  -9.684731e+05
   5.817409e+05  -6.857306e+04
   4.580918e+05   3.778210e+05
   1.470219e+05   1.263209e+05
   5.669687e+04  -8.732588e+04
   3.137599e+05   3.324516e+05
   5.296320e+05   1.006212e+06
   1.647300e+05   1.093214e+06
  -7.666973e+05   3.857359e+05
  -1.508718e+06  -4.807232e+05
  -1.284008e+06  -8.549391e+05
  -1.819508e+05  -7.231101e+05
   8.541315e+05  -4.397147e+05
   9.991644e+05  -1.777398e+05
   3.869401e+05   7.794747e+04
  -1.409521e+05   2.377472e+05
  -6.272126e+04   1.854368e+05
   2.451111e+05   6.881783e+04
   6.580627e+04   1.391554e+05
  -6.489943e+05   2.677734e+05
  -1.085580e+06  -1.430837e+03
  -4.953950e+05  -7.339361e+05
   8.383852e+05  -1.246209e+06
   1.781140e+06  -8.016282e+05
   1.505004e+06   4.341233e+05
   3.035036e+05   1.446486e+06
  -7.997020e+05   1.428997e+06
  -1.088260e+06   5.823520e+05
  -6.772841e+05  -2.155169e+05
  -1.546322e+05  -3.742741e+05
   4.741837e+04  -9.945012e+04
  -8.804462e+04  -1.050373e+04
  -2.906851e+05  -3.841888e+05
  -2.427713e+05  -8.283697e+05
   1.766892e+05  -7.113142e+05
   7.030663e+05   9.389316e+04
   7.969592e+05   9.585240e+05
   1.659888e+05   1.079001e+06
  -7.625023e+05   3.031527e+05
  -1.094151e+06  -7.056292e+05
  -3.911923e+05  -1.130407e+06
   7.324278e+05  -7.335811e+05
   1.176125e+06   6.330545e+04
   5.670781e+05   6.596039e+05
  -3.032860e+05   7.351380e+05
  -4.218962e+05   3.818770e+05
   2.248135e+05  -1.484130e+04
   6.623453e+05  -5.324887e+04
   1.636050e+05   3.266589e+05
  -8.458255e+05   7.011456e+05
  -1.318226e+06   5.317132e+05
  -8.149717e+05  -2.143451e+05
   9.369566e+04  -9.124049e+05
   5.978592e+05  -8.936107e+05
   4.796353e+05  -1.864316e+05
   8.184780e+04   4.844241e+05
  -2.415667e+05   4.722988e+05
  -3.709056e+05  -1.166535e+05
  -2.727127e+05  -5.937379e+05
   4.952656e+04  -4.729839e+05
   4.090512e+05   2.872908e+04
   4.989037e+05   3.107876e+05
   2.462890e+05   1.176233e+05
  -4.659681e+04  -1.841401e+05
  -7.284674e+04  -9.655470e+04
   6.613835e+04   3.554230e+05
   8.906760e+03   6.205848e+05
  -3.216410e+05   2.937341e+05
  -5.305049e+05  -3.588108e+05
  -2.284115e+05  -6.766982e+05
   4.054516e+05  -3.498653e+05
   7.169327e+05   2.647275e+05
   2.890036e+05   5.802379e+05
  -5.313731e+05   3.854793e+05
  -9.360800e+05  -5.797182e+04
  -5.092567e+05  -3.863174e+05
   3.051358e+05  -4.420743e+05
   6.742859e+05  -2.717773e+05
   2.864670e+05  -2.071033e+04
  -3.261012e+05   1.113690e+05
  -4.163928e+05  -1.911679e+04
   1.337860e+05  -2.874579e+05
   7.141935e+05  -3.031387e+05
