
 $NMID
 id='ANONYMOUS ', fmtdat='(2E16.6)'
 volume=1.0
 tramp=1.0
 $END
   2.484411e+07  -6.913867e+05
   1.713607e+07   1.096152e+07
   6.933702e+05   1.572742e+07
  -1.040967e+07   1.111360e+07
  -9.233381e+06   1.611249e+06
  -8.616035e+05  -4.539370e+06
   5.103880e+06  -2.637082e+06
   4.175392e+06   3.903934e+06
  -8.743792e+05   7.190727e+06
  -4.665598e+06   3.410412e+06
  -4.237501e+06  -3.180896e+06
  -6.633489e+05  -5.375548e+06
   2.457190e+06  -1.147047e+06
   2.119986e+06   4.490588e+06
  -1.323057e+06   5.385417e+06
  -4.270847e+06   6.983258e+05
  -3.375455e+06  -4.883560e+06
   9.071922e+05  -6.379683e+06
   4.732823e+06  -3.140477e+06
   4.912403e+06   1.363947e+06
   2.079627e+06   3.464046e+06
  -3.417507e+05   2.659140e+06
   4.556753e+04   1.389789e+06
   2.120306e+06   1.916895e+06
   2.516488e+06   3.783845e+06
  -6.386556e+05   4.515574e+06
  -5.274343e+06   2.565654e+06
  -7.038843e+06  -9.056113e+05
  -3.849977e+06  -3.239292e+06
   1.477954e+06  -2.830732e+06
   3.895565e+06  -3.590225e+05
   1.474147e+06   1.990690e+06
  -2.673853e+06   2.198161e+06
  -4.130383e+06  -9.925259e+04
  -1.965531e+06  -3.056513e+06
   9.566126e+05  -3.892089e+06
   1.790880e+06  -1.632402e+06
   5.851026e+05   1.403774e+06
  -6.467235e+05   1.823448e+06
  -5.023961e+05  -8.240110e+05
   7.524340e+05  -3.219777e+06
   1.917352e+06  -2.205223e+06
   1.869936e+06   1.229436e+06
   2.982620e+05   3.058339e+06
  -1.742813e+06   1.105711e+06
  -2.210560e+06  -2.423615e+06
   3.537826e+04  -3.658920e+06
   3.471134e+06  -1.356557e+06
   4.819323e+06   2.182791e+06
   2.360462e+06   3.869330e+06
  -1.956327e+06   2.682055e+06
  -4.288994e+06   3.931371e+04
  -2.789138e+06  -1.829845e+06
   6.581299e+05  -1.709881e+06
   2.604571e+06  -1.731891e+05
   1.580614e+06   1.086748e+06
  -7.245326e+05   8.612121e+05
  -1.589104e+06  -4.387743e+05
  -2.212364e+05  -1.297709e+06
   1.538307e+06  -7.395718e+05
   1.390641e+06   6.774694e+05
  -7.599854e+05   1.468359e+06
  -2.574728e+06   6.353856e+05
  -1.790635e+06  -1.441748e+06
   1.275975e+06  -3.207769e+06
   4.026732e+06  -3.039360e+06
   4.294121e+06  -6.229789e+05
   2.377651e+06   2.514529e+06
   2.920184e+05   4.185099e+06
  -5.600676e+05   3.597552e+06
  -5.402184e+05   2.040935e+06
  -8.091669e+05   1.214236e+06
  -1.782383e+06   1.177691e+06
  -2.741722e+06   5.626479e+05
  -2.666247e+06  -1.235705e+06
  -1.216529e+06  -2.851432e+06
   8.964986e+05  -2.430426e+06
   2.282949e+06   3.797961e+04
   1.828767e+06   2.463362e+06
  -2.866966e+05   2.760858e+06
  -2.471572e+06   8.515689e+05
  -2.987783e+06  -1.515662e+06
  -1.587335e+06  -2.609796e+06
   2.736544e+05  -2.171726e+06
   1.060594e+06  -1.234543e+06
   8.437806e+05  -8.362378e+05
   1.021993e+06  -1.008671e+06
   2.357633e+06  -9.004104e+05
   3.714153e+06   2.349334e+05
   3.160990e+06   2.160291e+06
   2.944810e+05   3.677894e+06
  -2.935206e+06   3.554528e+06
  -3.993222e+06   1.618838e+06
  -2.280095e+06  -8.940379e+05
   3.235875e+05  -2.200903e+06
   1.429102e+06  -1.496241e+06
   4.489218e+05   2.295044e+05
  -1.136562e+06   1.103271e+06
  -1.569123e+06   3.195619e+05
  -5.706086e+05  -9.734346e+05
   6.409787e+05  -1.040259e+06
   7.548736e+05   2.742888e+05
  -3.791099e+05   1.214175e+06
  -1.681972e+06   1.781072e+05
  -1.786126e+06  -2.230320e+06
  -1.793126e+05  -3.668238e+06
   2.244797e+06  -2.540993e+06
   3.724779e+06   3.308678e+05
   3.055741e+06   2.626063e+06
   7.575131e+05   2.826038e+06
  -1.279891e+06   1.432294e+06
  -1.567876e+06   1.126525e+05
  -4.567093e+05  -3.379680e+04
   3.616431e+05   6.677837e+05
  -2.077284e+05   1.088451e+06
  -1.453271e+06   5.558795e+05
  -1.750271e+06  -5.067949e+05
  -5.225921e+05  -1.086176e+06
   9.864605e+05  -6.374824e+05
   1.043153e+06   3.606579e+05
  -6.050414e+05   8.560278e+05
  -2.312975e+06   2.100322e+05
  -2.194267e+06  -1.185550e+06
  -1.091847e+05  -2.191285e+06
   2.139942e+06  -1.883003e+06
   2.613449e+06  -4.168838e+05
   1.124906e+06   1.004765e+06
  -7.117266e+05   1.194199e+06
  -1.183104e+06   1.591994e+05
  -7.806582e+04  -8.552392e+05
   1.324108e+06  -6.667224e+05
   1.623504e+06   5.527861e+05
   5.807412e+05   1.482716e+06
  -7.882588e+05   1.157910e+06
  -1.233441e+06   2.836774e+04
  -4.555912e+05  -6.180231e+05
   5.947897e+05  -1.156665e+05
   6.445236e+05   9.110572e+05
  -5.552769e+05   1.281895e+06
  -1.856944e+06   4.645357e+05
  -1.855224e+06  -9.602507e+05
  -4.013879e+05  -1.862452e+06
   1.196860e+06  -1.545718e+06
   1.547869e+06  -3.294172e+05
   5.811697e+05   7.365505e+05
  -5.328451e+05   8.206263e+05
  -7.140623e+05   7.715318e+04
  -1.426722e+04  -5.688701e+05
   6.337941e+05  -4.513191e+05
   4.969028e+05   1.170103e+05
  -2.167863e+05   2.691721e+05
  -6.097934e+05  -3.376907e+05
  -3.358872e+04  -1.054426e+06
   1.180850e+06  -9.187577e+05
   1.933607e+06   2.892445e+05
   1.392627e+06   1.744452e+06
  -1.430270e+05   2.304372e+06
  -1.494407e+06   1.531694e+06
  -1.752478e+06   6.583406e+04
  -1.092058e+06  -9.737679e+05
  -4.012212e+05  -1.002142e+06
  -2.410989e+05  -4.440189e+05
  -3.364732e+05  -1.833555e+05
  -6.660791e+04  -5.415318e+05
   7.071960e+05  -9.075658e+05
   1.387959e+06  -4.808869e+05
   1.187078e+06   6.885632e+05
  -6.691626e+04   1.579745e+06
  -1.597688e+06   1.202096e+06
  -2.196310e+06  -3.450659e+05
  -1.239621e+06  -1.883116e+06
   6.810091e+05  -2.214767e+06
   2.191684e+06  -1.169828e+06
   2.306798e+06   3.365655e+05
   1.225207e+06   1.209783e+06
  -2.921486e+03   1.139923e+06
  -5.267781e+05   7.223460e+05
  -3.818174e+05   6.781634e+05
  -2.274308e+05   1.020051e+06
  -5.386021e+05   1.064489e+06
  -1.094794e+06   2.773077e+05
  -1.224306e+06  -9.979235e+05
  -5.368200e+05  -1.768807e+06
   5.771984e+05  -1.356851e+06
   1.221566e+06  -7.123573e+04
   8.467503e+05   1.080400e+06
  -1.723137e+05   1.294801e+06
  -8.901643e+05   5.933796e+05
  -7.492142e+05  -3.421318e+05
  -1.098940e+05  -8.432948e+05
   2.287224e+05  -7.757995e+05
  -3.429209e+04  -4.918897e+05
  -3.652902e+05  -3.596908e+05
  -3.389511e+04  -3.798223e+05
   9.784901e+05  -2.558590e+05
   1.809108e+06   2.093235e+05
   1.531101e+06   8.416390e+05
   1.530707e+05   1.220511e+06
  -1.273095e+06   1.047926e+06
  -1.635785e+06   4.162424e+05
  -8.462987e+05  -2.330341e+05
   1.481786e+05  -4.393418e+05
   4.203519e+05  -1.282473e+05
  -2.657593e+04   2.683343e+05
  -4.756378e+05   2.136445e+05
  -4.319296e+05  -3.141667e+05
  -9.800350e+04  -7.154633e+05
   4.463927e+04  -4.571722e+05
  -1.432982e+05   1.974804e+05
  -3.723408e+05   4.114716e+05
  -2.919692e+05  -1.937134e+05
   1.869406e+05  -9.783453e+05
   8.111926e+05  -9.865807e+05
   1.090940e+06  -8.918415e+04
   6.358978e+05   8.449958e+05
  -3.666256e+05   9.308788e+05
  -1.067460e+06   1.922980e+05
  -6.742290e+05  -5.718606e+05
   6.047722e+05  -6.531217e+05
   1.559689e+06  -3.008527e+04
   1.166505e+06   7.474066e+05
  -2.828274e+05   1.066281e+06
  -1.439214e+06   6.985067e+05
  -1.302430e+06  -3.922112e+04
  -2.167788e+05  -5.172278e+05
   5.872145e+05  -3.406072e+05
   3.184782e+05   2.210283e+05
  -6.117552e+05   4.289072e+05
  -1.100548e+06  -1.680899e+05
  -5.151586e+05  -1.159466e+06
   6.900329e+05  -1.556845e+06
   1.464580e+06  -7.561598e+05
   1.191644e+06   7.559652e+05
   1.970654e+05   1.731744e+06
  -6.871139e+05   1.321003e+06
  -9.113303e+05  -5.991896e+04
  -5.280426e+05  -1.115076e+06
   6.928097e+04  -9.980567e+05
   4.969489e+05  -1.427205e+05
   5.409042e+05   3.738745e+05
   2.582591e+05   1.613051e+05
   6.464438e+03  -1.231719e+05
   1.277093e+05   2.069163e+05
   4.468365e+05   8.826590e+05
   3.200264e+05   1.048574e+06
  -5.364049e+05   4.110155e+05
  -1.433873e+06  -4.247451e+05
  -1.347773e+06  -7.790143e+05
  -2.011683e+05  -6.390023e+05
   9.063521e+05  -3.996521e+05
   9.731423e+05  -2.255999e+05
   2.616228e+05  -1.431982e+04
  -1.743115e+05   2.060671e+05
   8.424732e+04   2.548582e+05
   3.761341e+05   1.546271e+05
   1.273118e+03   1.334453e+05
  -7.587245e+05   1.817396e+05
  -9.785654e+05  -4.134880e+04
  -2.354270e+05  -6.331438e+05
   9.085280e+05  -1.048063e+06
   1.526642e+06  -6.366702e+05
   1.190127e+06   4.714522e+05
   2.184742e+05   1.354147e+06
  -6.899915e+05   1.268028e+06
  -9.907839e+05   4.323944e+05
  -6.395664e+05  -2.853430e+05
  -7.639081e+04  -3.371789e+05
   1.694080e+05   7.903790e+03
  -3.892677e+04   9.720476e+04
  -3.420569e+05  -3.121301e+05
  -2.849460e+05  -7.655137e+05
   1.921449e+05  -6.191857e+05
   6.688162e+05   1.924261e+05
   6.326024e+05   9.777886e+05
  -1.593189e+04   9.644373e+05
  -7.817206e+05   1.259208e+05
  -9.441872e+05  -7.839633e+05
  -2.570749e+05  -1.026102e+06
   6.934272e+05  -5.595303e+05
   1.004732e+06   1.025105e+05
   4.407580e+05   5.039538e+05
  -2.636156e+05   5.416680e+05
  -2.682055e+05   3.253068e+05
   3.340757e+05   4.788679e+04
   6.418727e+05  -2.089071e+04
   1.043920e+05   2.722950e+05
  -7.822086e+05   6.575816e+05
  -1.108098e+06   5.882197e+05
  -6.231135e+05  -8.879332e+04
   1.001009e+05  -7.838913e+05
   4.357825e+05  -7.707135e+05
   3.036015e+05  -8.157507e+04
  -2.403052e+03   4.948871e+05
  -2.456108e+05   3.582305e+05
  -3.386893e+05  -2.283133e+05
  -2.259133e+05  -5.507052e+05
   7.419989e+04  -3.233295e+05
   3.663154e+05   8.197233e+04
   4.192564e+05   2.043242e+05
   2.288968e+05   3.604410e+04
   1.235853e+04  -7.227420e+04
  -7.747726e+04   1.033348e+05
  -1.132395e+05   3.916876e+05
  -2.234570e+05   4.224949e+05
  -3.581945e+05   4.356161e+04
  -3.144058e+05  -4.659447e+05
   1.127417e+04  -6.274437e+05
   4.327760e+05  -2.524459e+05
   5.687226e+05   3.258140e+05
   1.927328e+05   5.798125e+05
  -4.550942e+05   3.315030e+05
  -7.827435e+05  -1.144070e+05
  -4.259124e+05  -3.615164e+05
   2.794637e+05  -3.113067e+05
   5.818403e+05  -1.318750e+05
   1.675048e+05  -2.432780e+03
  -4.254976e+05  -8.584183e+03
  -4.238087e+05  -1.614554e+05
   2.404223e+05  -3.342527e+05
   8.361850e+05  -2.500570e+05
