
 $NMID
 id='ANONYMOUS ', fmtdat='(2E16.6)'
 volume=1.0
 tramp=1.0
 $END
  -3.300929e+07   1.558730e+06
  -2.095770e+07  -1.898384e+07
   2.902296e+06  -2.233602e+07
   1.548844e+07  -9.844644e+06
   9.996159e+06   3.066499e+06
  -1.402649e+06   5.564028e+06
  -5.827117e+06  -5.594701e+04
  -2.237741e+06  -5.548268e+06
   3.103338e+06  -5.976730e+06
   5.606199e+06  -1.741003e+06
   4.412559e+06   3.483020e+06
   7.732413e+05   5.207953e+06
  -2.352947e+06   1.720459e+06
  -1.842708e+06  -3.355711e+06
   1.946824e+06  -4.235105e+06
   4.723565e+06   4.049186e+05
   3.052978e+06   5.886158e+06
  -1.791539e+06   7.145337e+06
  -5.791999e+06   3.800685e+06
  -6.418508e+06  -9.692485e+05
  -3.983162e+06  -4.249631e+06
  -5.364058e+05  -4.925125e+06
   1.409047e+06  -3.447578e+06
   6.454331e+05  -1.663688e+06
  -1.006008e+06  -1.541895e+06
  -2.199429e+05  -2.780746e+06
   3.390275e+06  -2.852468e+06
   6.010946e+06  -4.651739e+05
   4.358633e+06   2.390722e+06
   1.016837e+05   3.064264e+06
  -2.400759e+06   1.556383e+06
  -1.535453e+06  -1.611373e+05
   5.902177e+05  -8.310542e+05
   1.712321e+06  -3.704267e+05
   1.495342e+06   1.058615e+06
   4.000093e+05   2.575474e+06
  -1.076403e+06   2.319657e+06
  -1.821528e+06  -1.558767e+05
  -9.335217e+05  -2.139254e+06
   4.547848e+05  -9.472082e+05
   1.967591e+05   1.711335e+06
  -1.460993e+06   1.578892e+06
  -1.614042e+06  -1.770664e+06
   1.085359e+06  -3.677777e+06
   3.871569e+06  -8.352547e+05
   3.166295e+06   3.848006e+06
  -7.977939e+05   5.021812e+06
  -4.308687e+06   1.653146e+06
  -4.413614e+06  -2.420188e+06
  -1.454977e+06  -3.609498e+06
   1.992107e+06  -1.873750e+06
   3.355693e+06   6.324258e+05
   1.732899e+06   1.986431e+06
  -1.294597e+06   1.436489e+06
  -2.743671e+06  -3.388120e+05
  -1.302794e+06  -1.516433e+06
   9.619865e+05  -8.800066e+05
   1.149491e+06   5.396329e+05
  -6.344425e+05   6.701255e+05
  -1.526996e+06  -7.657931e+05
   7.759957e+04  -1.898271e+06
   2.490956e+06  -1.293105e+06
   3.151138e+06   4.960146e+05
   1.554278e+06   2.217061e+06
  -9.616357e+05   3.254532e+06
  -3.018927e+06   3.119473e+06
  -3.783959e+06   1.199417e+06
  -2.836864e+06  -1.863601e+06
  -7.294582e+05  -3.780392e+06
   9.058685e+05  -3.029913e+06
   9.457713e+05  -9.470875e+05
   1.715475e+05  -3.557902e+04
   1.677504e+05  -7.004438e+05
   1.152267e+06  -1.103223e+06
   1.849727e+06  -7.536583e+04
   1.321756e+06   1.324475e+06
  -1.279544e+04   1.463705e+06
  -1.110550e+06   1.764775e+05
  -1.207931e+06  -1.349937e+06
  -7.178264e+04  -1.915287e+06
   1.736550e+06  -1.085729e+06
   2.805672e+06   6.848484e+05
   2.032811e+06   2.239011e+06
   6.533666e+04   2.529243e+06
  -1.271931e+06   1.664536e+06
  -1.259342e+06   7.680868e+05
  -1.075085e+06   5.426527e+05
  -1.840378e+06   4.647812e+05
  -2.804754e+06  -2.895011e+05
  -2.346700e+06  -1.627316e+06
  -2.477348e+05  -2.657891e+06
   1.945494e+06  -2.640881e+06
   2.661889e+06  -1.485838e+06
   1.729739e+06   2.451222e+05
   1.897787e+05   1.470695e+06
  -7.030297e+05   1.268733e+06
  -3.626072e+05  -2.849728e+04
   6.800112e+05  -8.796439e+05
   1.204576e+06  -3.169336e+05
   6.056587e+05   7.400199e+05
  -3.172396e+05   7.475140e+05
  -3.339315e+05  -2.222059e+05
   5.871489e+05  -5.486659e+05
   1.224949e+06   6.098016e+05
   6.662565e+05   2.106128e+06
  -7.107701e+05   2.307014e+06
  -1.899603e+06   1.001501e+06
  -2.264259e+06  -6.944587e+05
  -1.689731e+06  -1.710066e+06
  -4.322609e+05  -1.726304e+06
   7.716474e+05  -1.008099e+06
   1.034534e+06  -1.937646e+05
   3.228376e+05   1.179429e+04
  -2.624787e+05  -4.744394e+05
   2.061891e+05  -8.685015e+05
   1.188367e+06  -4.401212e+05
   1.336839e+06   4.756633e+05
   3.147881e+05   8.827736e+05
  -7.323544e+05   4.232492e+05
  -6.190771e+05  -2.565214e+05
   5.102230e+05  -4.069199e+05
   1.457989e+06   7.361314e+04
   1.247177e+06   8.082358e+05
  -5.146403e+04   1.329163e+06
  -1.444051e+06   1.197053e+06
  -1.802952e+06   2.923602e+05
  -8.349212e+05  -7.658691e+05
   5.362680e+05  -9.882443e+05
   9.835176e+05  -1.714573e+05
   1.542866e+05   6.845014e+05
  -9.566217e+05   5.302847e+05
  -1.149549e+06  -4.327847e+05
  -3.045829e+05  -1.058072e+06
   6.519436e+05  -6.982301e+05
   8.337336e+05   1.263736e+05
   2.091668e+05   4.871891e+05
  -5.025433e+05   6.730354e+04
  -5.125361e+05  -6.569938e+05
   3.301153e+05  -9.471155e+05
   1.293631e+06  -4.201248e+05
   1.363239e+06   6.149671e+05
   3.262297e+05   1.335628e+06
  -8.698667e+05   1.123338e+06
  -1.113293e+06   2.096793e+05
  -3.686531e+05  -5.414719e+05
   3.937010e+05  -5.539850e+05
   4.241468e+05  -7.448516e+04
  -4.863989e+04   2.616446e+05
  -3.280358e+05   1.824839e+05
  -1.225848e+05  -3.804359e+04
   2.694559e+05   3.249777e+03
   3.698219e+05   3.900158e+05
  -7.216520e+04   7.742757e+05
  -8.608679e+05   6.398971e+05
  -1.373451e+06  -1.892302e+05
  -1.027126e+06  -1.213103e+06
   5.086986e+04  -1.594583e+06
   1.002361e+06  -1.001125e+06
   1.123946e+06   2.430643e+03
   6.237540e+05   5.654237e+05
   2.475167e+05   4.534738e+05
   3.030178e+05   1.547408e+05
   3.937892e+05   1.763961e+05
   8.114740e+04   4.796564e+05
  -5.296936e+05   6.243398e+05
  -9.365810e+05   2.807999e+05
  -7.324122e+05  -4.340769e+05
   9.280897e+04  -9.821570e+05
   1.084665e+06  -7.808417e+05
   1.494859e+06   2.260832e+05
   8.308489e+05   1.323420e+06
  -5.523577e+05   1.578324e+06
  -1.605476e+06   7.800117e+05
  -1.566620e+06  -3.201838e+05
  -7.038199e+05  -8.327027e+05
   7.880246e+04  -6.478313e+05
   2.488293e+05  -3.744279e+05
   5.600705e+04  -4.981955e+05
   3.839394e+04  -8.407796e+05
   3.871876e+05  -8.508983e+05
   8.241257e+05  -2.497337e+05
   9.101903e+05   6.590031e+05
   4.323340e+05   1.219263e+06
  -3.556572e+05   9.632263e+05
  -8.416796e+05   5.100366e+04
  -5.826043e+05  -7.980209e+05
   1.881064e+05  -9.224952e+05
   7.234842e+05  -3.232467e+05
   5.486232e+05   3.978872e+05
  -2.399087e+04   6.881900e+05
  -2.964315e+05   5.298869e+05
  -2.830194e+04   2.830125e+05
   2.924064e+05   2.094024e+05
   5.106003e+04   2.511093e+05
  -7.339418e+05   1.818266e+05
  -1.348234e+06  -1.372149e+05
  -1.094040e+06  -6.088504e+05
  -4.138889e+04  -9.253074e+05
   9.797662e+05  -7.967651e+05
   1.178472e+06  -2.595135e+05
   5.650169e+05   2.713448e+05
  -1.433523e+05   3.711790e+05
  -3.264789e+05   4.809780e+04
  -2.786755e+04  -2.639007e+05
   2.865415e+05  -1.836185e+05
   3.257245e+05   2.061915e+05
   1.804163e+05   4.698083e+05
   6.853790e+04   3.132003e+05
   8.590073e+04  -7.670774e+04
   1.796027e+05  -2.152316e+05
   1.911135e+05   1.396269e+05
  -6.071493e+04   6.563541e+05
  -5.476195e+05   7.286568e+05
  -8.707861e+05   1.545731e+05
  -5.772557e+05  -5.693897e+05
   2.307112e+05  -7.492196e+05
   8.040043e+05  -2.548526e+05
   5.008657e+05   3.512472e+05
  -4.311238e+05   4.525881e+05
  -1.046754e+06   5.129358e+03
  -7.059270e+05  -5.203030e+05
   2.657434e+05  -6.727773e+05
   9.623395e+05  -3.869651e+05
   8.228321e+05   6.760561e+04
   1.137673e+05   3.328901e+05
  -4.125318e+05   2.058293e+05
  -2.585343e+05  -1.754129e+05
   3.691993e+05  -3.609250e+05
   7.792494e+05   1.476330e+04
   4.781539e+05   7.538939e+05
  -3.309369e+05   1.138346e+06
  -9.445900e+05   6.340232e+05
  -8.539711e+05  -4.511266e+05
  -2.022920e+05  -1.169954e+06
   4.343673e+05  -8.827045e+05
   6.140575e+05   7.440185e+04
   3.341887e+05   7.632255e+05
  -9.912716e+04   6.460539e+05
  -3.629305e+05   7.894993e+04
  -3.253163e+05  -2.292453e+05
  -1.179248e+05  -8.372449e+04
  -2.589193e+04   6.527271e+04
  -1.874416e+05  -1.821838e+05
  -3.693532e+05  -6.139509e+05
  -1.730421e+05  -6.994632e+05
   4.473304e+05  -2.857606e+05
   9.873944e+05   2.472929e+05
   8.777641e+05   4.972797e+05
   1.489880e+05   4.501966e+05
  -5.474229e+05   3.102728e+05
  -6.396579e+05   1.603769e+05
  -2.352159e+05  -2.005977e+04
   8.798651e+04  -1.542715e+05
   1.085249e+04  -1.358804e+05
  -1.822776e+05  -5.123401e+04
  -3.745557e+04  -8.645516e+04
   4.291636e+05  -1.827500e+05
   6.882654e+05  -3.363892e+04
   3.080302e+05   4.398246e+05
  -5.086719e+05   8.083080e+05
  -1.085767e+06   5.628694e+05
  -9.431996e+05  -2.295709e+05
  -2.377544e+05  -9.136900e+05
   4.480080e+05  -9.338889e+05
   6.689045e+05  -3.954453e+05
   4.415000e+05   1.262593e+05
   1.019931e+05   2.308484e+05
  -4.581630e+04   4.757580e+04
   5.089550e+04  -1.447338e+04
   2.123368e+05   2.280869e+05
   1.958618e+05   5.201217e+05
  -9.028043e+04   4.539482e+05
  -4.540183e+05  -5.090628e+04
  -5.265792e+05  -5.954196e+05
  -1.193093e+05  -6.749787e+05
   4.858985e+05  -1.961404e+05
   7.122829e+05   4.297833e+05
   2.753357e+05   7.023763e+05
  -4.411213e+05   4.761785e+05
  -7.389847e+05  -2.417006e+03
  -3.742785e+05  -3.814660e+05
   1.616409e+05  -4.582758e+05
   2.347672e+05  -2.563935e+05
  -1.627339e+05   6.493189e+03
  -4.251582e+05   5.393170e+04
  -1.094054e+05  -1.969486e+05
   5.135390e+05  -4.807322e+05
   8.043299e+05  -4.058131e+05
   5.081695e+05   8.688425e+04
  -2.700589e+04   5.759027e+05
  -3.282849e+05   5.850315e+05
  -2.753100e+05   1.238302e+05
  -5.721765e+04  -3.128141e+05
   1.391357e+05  -2.974775e+05
   2.390258e+05   8.003287e+04
   1.920631e+05   3.686307e+05
  -1.715232e+04   2.848439e+05
  -2.595477e+05  -1.183136e+04
  -3.241610e+05  -1.655991e+05
  -1.626099e+05  -5.399349e+04
   2.875013e+04   9.920012e+04
   5.394778e+04   2.768187e+04
  -2.649779e+04  -2.325950e+05
   6.934437e+03  -3.684617e+05
   2.015053e+05  -1.617800e+05
   3.218773e+05   2.288451e+05
   1.350131e+05   4.210124e+05
  -2.541973e+05   2.263028e+05
  -4.512397e+05  -1.541004e+05
  -1.936340e+05  -3.656221e+05
   3.184450e+05  -2.623272e+05
   5.853954e+05   1.076359e+04
   3.321416e+05   2.275813e+05
  -1.765638e+05   2.777621e+05
  -4.119497e+05   1.798387e+05
  -1.660107e+05   2.238393e+04
   2.227902e+05  -6.377415e+04
   2.711025e+05   2.035752e+04
  -9.432184e+04   1.982620e+05
  -4.726005e+05   2.133755e+05
