
 $NMID
 id='ANONYMOUS ', fmtdat='(2E16.6)'
 volume=1.0
 tramp=1.0
 $END
  -1.726225e+07  -2.649187e+05
  -1.091277e+07  -9.356619e+06
   1.115529e+06  -1.122840e+07
   7.936845e+06  -5.998702e+06
   5.751968e+06   5.180315e+05
  -2.007216e+05   2.962337e+06
  -3.266865e+06   7.066819e+05
  -1.848855e+06  -2.858981e+06
   1.296203e+06  -3.929701e+06
   3.120157e+06  -1.464774e+06
   2.509992e+06   2.103693e+06
   3.015475e+05   3.205495e+06
  -1.469460e+06   7.818627e+05
  -1.078834e+06  -2.449514e+06
   1.105950e+06  -2.889166e+06
   2.707536e+06   4.692481e+03
   1.806885e+06   3.324181e+06
  -9.774642e+05   4.052087e+06
  -3.261992e+06   1.952849e+06
  -3.366762e+06  -8.758965e+05
  -1.669832e+06  -2.403985e+06
   8.191013e+04  -2.225009e+06
   4.256308e+05  -1.370786e+06
  -5.117845e+05  -1.120628e+06
  -1.056469e+06  -1.760916e+06
   2.697073e+05  -2.276116e+06
   2.780402e+06  -1.498132e+06
   3.976048e+06   3.791721e+05
   2.371143e+06   1.841487e+06
  -5.580512e+05   1.729787e+06
  -1.970555e+06   4.280970e+05
  -8.656468e+05  -7.627639e+05
   1.107466e+06  -9.201504e+05
   1.867613e+06   1.077077e+04
   1.031626e+06   1.363229e+06
  -2.830939e+05   2.007832e+06
  -9.419457e+05   1.148823e+06
  -6.656780e+05  -5.389001e+05
   2.791816e+04  -1.187201e+06
   2.997742e+05   4.481183e+04
  -2.727064e+05   1.546083e+06
  -1.098133e+06   1.127172e+06
  -1.018304e+06  -9.290960e+05
   2.940873e+05  -1.990157e+06
   1.648448e+06  -4.982777e+05
   1.481049e+06   1.935611e+06
  -3.757856e+05   2.562755e+06
  -2.378811e+06   7.728317e+05
  -2.739115e+06  -1.532357e+06
  -1.077476e+06  -2.331533e+06
   1.252228e+06  -1.346937e+06
   2.332311e+06   2.622971e+05
   1.359267e+06   1.196262e+06
  -5.927064e+05   9.148497e+05
  -1.592905e+06  -1.069347e+05
  -8.426149e+05  -7.923018e+05
   5.171001e+05  -4.872524e+05
   8.249934e+05   3.225414e+05
  -1.129255e+05   5.954212e+05
  -9.098249e+05   5.052553e+03
  -4.017664e+05  -7.326596e+05
   9.622908e+05  -7.791320e+05
   1.712796e+06  -6.025046e+00
   9.685485e+05   1.129623e+06
  -7.861473e+05   1.939392e+06
  -2.271645e+06   1.780388e+06
  -2.506264e+06   4.199501e+05
  -1.509015e+06  -1.431303e+06
  -1.856370e+05  -2.446821e+06
   5.152131e+05  -2.010136e+06
   4.657482e+05  -9.364674e+05
   3.374577e+05  -4.289224e+05
   6.904811e+05  -5.714307e+05
   1.277016e+06  -4.248774e+05
   1.386037e+06   4.740750e+05
   7.028526e+05   1.358624e+06
  -3.620267e+05   1.196469e+06
  -1.065715e+06  -1.625858e+04
  -8.833555e+05  -1.234759e+06
   1.435685e+05  -1.439811e+06
   1.327661e+06  -5.171493e+05
   1.734150e+06   7.804458e+05
   1.017317e+06   1.538009e+06
  -1.411902e+05   1.414617e+06
  -7.446273e+05   8.362964e+05
  -6.503642e+05   4.641543e+05
  -6.601317e+05   4.592500e+05
  -1.316707e+06   3.671855e+05
  -2.009931e+06  -2.552450e+05
  -1.650557e+06  -1.251093e+06
  -7.288913e+04  -1.969394e+06
   1.611986e+06  -1.845163e+06
   2.114651e+06  -8.536377e+05
   1.217173e+06   4.248511e+05
  -1.131208e+05   1.136655e+06
  -7.062464e+05   8.154681e+05
  -2.370518e+05  -9.432928e+04
   5.956998e+05  -5.768763e+05
   8.546764e+05  -1.498160e+05
   3.260397e+05   5.395343e+05
  -3.206971e+05   5.299177e+05
  -3.269263e+05  -1.687890e+05
   3.134604e+05  -5.343505e+05
   8.855483e+05   1.547918e+05
   7.171776e+05   1.355587e+06
  -2.130028e+05   1.848309e+06
  -1.318083e+06   1.069223e+06
  -1.857791e+06  -3.788122e+05
  -1.432116e+06  -1.412010e+06
  -3.098233e+05  -1.438805e+06
   6.757603e+05  -7.307758e+05
   8.126220e+05  -5.703276e+04
   2.409281e+05   2.314301e+04
  -1.727505e+05  -3.621012e+05
   1.577407e+05  -5.908597e+05
   8.227099e+05  -2.620914e+05
   9.280845e+05   3.439805e+05
   2.259379e+05   6.079774e+05
  -5.436611e+05   2.931764e+05
  -5.009350e+05  -2.199018e+05
   3.692696e+05  -3.791976e+05
   1.180398e+06   9.952694e+03
   1.047990e+06   6.720085e+05
  -3.022050e+04   1.099656e+06
  -1.157683e+06   9.063790e+05
  -1.377713e+06   1.573249e+05
  -5.779367e+05  -5.699355e+05
   4.147446e+05  -6.474329e+05
   6.644827e+05  -6.817175e+04
   4.185490e+04   4.726118e+05
  -7.212772e+05   3.304176e+05
  -8.396505e+05  -3.436222e+05
  -2.395391e+05  -7.935159e+05
   4.649672e+05  -5.522965e+05
   6.318356e+05   5.558551e+04
   1.868949e+05   3.435821e+05
  -3.408600e+05   3.083170e+04
  -3.279425e+05  -5.103484e+05
   3.178118e+05  -6.777799e+05
   9.956063e+05  -2.210252e+05
   9.728934e+05   5.408250e+05
   1.761508e+05   1.000415e+06
  -6.762839e+05   7.942035e+05
  -8.265415e+05   1.316626e+05
  -2.738682e+05  -4.018126e+05
   3.043613e+05  -4.063631e+05
   3.512530e+05  -2.758038e+04
  -2.757348e+04   2.589686e+05
  -3.150609e+05   1.822030e+05
  -1.961211e+05  -6.281027e+04
   1.557461e+05  -8.294536e+04
   2.992832e+05   2.379202e+05
  -3.602985e+04   5.702838e+05
  -6.589901e+05   4.559246e+05
  -1.021442e+06  -1.990260e+05
  -7.069214e+05  -9.557166e+05
   1.168603e+05  -1.208044e+06
   8.096767e+05  -7.523107e+05
   8.954224e+05   1.707284e+04
   5.180394e+05   5.007598e+05
   1.873776e+05   4.656855e+05
   1.609713e+05   1.995995e+05
   2.196737e+05   1.248114e+05
   3.173374e+04   3.215434e+05
  -4.067650e+05   4.635878e+05
  -7.401345e+05   2.074926e+05
  -5.895351e+05  -3.797561e+05
   8.415260e+04  -8.017179e+05
   8.668752e+05  -5.813255e+05
   1.142107e+06   2.325425e+05
   5.953495e+05   1.026860e+06
  -4.392296e+05   1.157120e+06
  -1.204876e+06   5.484340e+05
  -1.191095e+06  -2.574398e+05
  -5.717144e+05  -6.590505e+05
   4.794749e+04  -5.555879e+05
   2.579371e+05  -3.339466e+05
   1.578834e+05  -3.609189e+05
   1.129672e+05  -5.718586e+05
   3.153997e+05  -5.780698e+05
   6.022499e+05  -1.334794e+05
   6.371368e+05   5.469080e+05
   2.553961e+05   9.421200e+05
  -3.246951e+05   7.054553e+05
  -6.413065e+05   6.485562e+03
  -4.145342e+05  -6.035152e+05
   1.436862e+05  -6.812208e+05
   5.112538e+05  -2.602358e+05
   3.894945e+05   2.471748e+05
   4.010580e+03   4.739529e+05
  -1.808075e+05   3.952554e+05
  -7.460979e+03   2.397238e+05
   1.982194e+05   1.874659e+05
   1.846658e+04   1.993504e+05
  -5.391375e+05   1.115157e+05
  -9.771139e+05  -1.555072e+05
  -7.934470e+05  -4.900397e+05
  -2.646935e+04  -6.672226e+05
   7.274209e+05  -5.365879e+05
   8.813821e+05  -1.678628e+05
   4.280353e+05   1.756516e+05
  -1.029878e+05   2.465749e+05
  -2.340424e+05   4.420910e+04
   6.924092e+03  -1.665100e+05
   2.420935e+05  -1.152414e+05
   2.289638e+05   1.715901e+05
   7.083725e+04   3.743684e+05
  -3.789706e+03   2.410659e+05
   7.475276e+04  -8.394733e+04
   1.822244e+05  -1.886392e+05
   1.478298e+05   1.133138e+05
  -1.010888e+05   5.093772e+05
  -4.511906e+05   5.142734e+05
  -6.167865e+05   4.318968e+04
  -3.563320e+05  -4.611098e+05
   2.127116e+05  -5.138083e+05
   5.904190e+05  -1.106251e+05
   3.531037e+05   3.041338e+05
  -3.369739e+05   3.290554e+05
  -8.103694e+05  -2.451730e+04
  -5.651844e+05  -4.186744e+05
   1.930464e+05  -5.325967e+05
   7.603873e+05  -3.046100e+05
   6.587826e+05   6.236340e+04
   9.097143e+04   2.682939e+05
  -3.176465e+05   1.543631e+05
  -1.717668e+05  -1.327666e+05
   3.185859e+05  -2.312138e+05
   5.829712e+05   8.577002e+04
   2.808866e+05   6.113072e+05
  -3.572993e+05   8.247887e+05
  -7.699697e+05   3.986130e+05
  -6.195345e+05  -4.041828e+05
  -8.357262e+04  -9.081571e+05
   3.792552e+05  -6.695962e+05
   4.716089e+05   6.340551e+04
   2.406843e+05   5.958490e+05
  -7.627923e+04   5.073200e+05
  -2.707423e+05   5.523215e+04
  -2.606983e+05  -1.997617e+05
  -1.131689e+05  -8.075084e+04
  -1.193464e+04   5.732455e+04
  -9.108320e+04  -1.276596e+05
  -2.312153e+05  -4.775166e+05
  -1.280852e+05  -5.482445e+05
   3.153582e+05  -2.002723e+05
   7.429122e+05   2.432492e+05
   6.737869e+05   4.272039e+05
   9.323858e+04   3.440133e+05
  -4.623629e+05   2.016882e+05
  -5.067564e+05   9.739543e+04
  -1.539365e+05  -9.983639e+03
   8.632029e+04  -1.084542e+05
  -1.870594e+04  -1.210655e+05
  -1.718053e+05  -7.132036e+04
  -8.387827e+03  -7.051249e+04
   3.760371e+05  -9.792399e+04
   5.189382e+05   2.734966e+04
   1.530984e+05   3.442370e+05
  -4.685221e+05   5.582631e+05
  -8.310517e+05   3.342511e+05
  -6.547686e+05  -2.507285e+05
  -1.097365e+05  -7.129581e+05
   3.869267e+05  -6.686236e+05
   5.303721e+05  -2.333874e+05
   3.315259e+05   1.443251e+05
   4.666566e+04   1.806541e+05
  -6.888496e+04   1.060069e+04
   2.861114e+04  -3.293368e+04
   1.640004e+05   1.757582e+05
   1.300803e+05   4.064104e+05
  -1.043964e+05   3.293993e+05
  -3.465049e+05  -9.242145e+04
  -3.381795e+05  -5.071165e+05
  -8.188846e+03  -5.127890e+05
   4.001339e+05  -8.280006e+04
   4.991536e+05   4.017046e+05
   1.408326e+05   5.465035e+05
  -3.692136e+05   3.064205e+05
  -5.418784e+05  -5.881504e+04
  -2.396458e+05  -2.889149e+05
   1.489842e+05  -3.051873e+05
   1.659717e+05  -1.718237e+05
  -1.544958e+05  -1.786184e+04
  -3.337050e+05   8.407170e+03
  -5.975650e+04  -1.497533e+05
   4.192764e+05  -3.353542e+05
   6.082178e+05  -2.801728e+05
   3.483442e+05   7.240186e+04
  -5.961650e+04   4.211830e+05
  -2.579262e+05   4.096090e+05
  -1.844667e+05   5.439264e+04
  -6.307887e+03  -2.528708e+05
   1.299772e+05  -1.991017e+05
   1.767944e+05   1.039165e+05
   1.169394e+05   2.923512e+05
  -3.834816e+04   1.884569e+05
  -1.938322e+05  -3.821328e+04
  -2.249537e+05  -1.263078e+05
  -1.197470e+05  -3.362254e+04
   1.499470e+03   5.442853e+04
   3.980553e+04  -2.138215e+04
   3.497372e+04  -1.946548e+05
   8.415268e+04  -2.454787e+05
   1.792777e+05  -5.702693e+04
   1.897696e+05   2.267920e+05
   2.398968e+04   3.303889e+05
  -2.213163e+05   1.399560e+05
  -3.116699e+05  -1.648971e+05
  -1.072384e+05  -3.006404e+05
   2.497114e+05  -1.733434e+05
   4.247130e+05   5.953744e+04
   2.273818e+05   1.946654e+05
  -1.513429e+05   1.766548e+05
  -3.147012e+05   8.241497e+04
  -1.043358e+05   2.229246e+03
   2.031272e+05  -9.081865e+03
   2.146540e+05   6.575915e+04
  -1.108281e+05   1.616358e+05
  -4.135318e+05   1.271566e+05
