
 $NMID
 id='ANONYMOUS ', fmtdat='(2E16.6)'
 volume=1.0
 tramp=1.0
 $END
   4.922246e+07   1.606443e+04
   3.028710e+07   2.942569e+07
  -5.455324e+06   3.313521e+07
  -2.386132e+07   1.410463e+07
  -1.514787e+07  -4.925480e+06
   2.278032e+06  -8.365468e+06
   8.948058e+06   2.271830e+05
   3.256512e+06   8.562913e+06
  -5.057308e+06   9.101531e+06
  -8.669710e+06   2.415920e+06
  -6.395073e+06  -5.622404e+06
  -6.954896e+05  -7.982807e+06
   3.692641e+06  -2.331974e+06
   2.457087e+06   5.405312e+06
  -3.331649e+06   6.436836e+06
  -7.159386e+06  -8.640474e+05
  -4.231163e+06  -9.103897e+06
   3.181308e+06  -1.066132e+07
   8.948749e+06  -5.263282e+06
   9.452701e+06   1.966448e+06
   5.510644e+06   6.567808e+06
   4.458565e+05   7.195227e+06
  -2.122680e+06   4.974093e+06
  -8.212486e+05   2.693965e+06
   1.409053e+06   2.793881e+06
  -1.298295e+05   4.379371e+06
  -5.590712e+06   3.868236e+06
  -9.185039e+06  -4.751492e+04
  -6.288246e+06  -4.069542e+06
   2.790040e+05  -4.520908e+06
   3.868050e+06  -1.908815e+06
   2.179728e+06   5.860320e+05
  -1.306764e+06   1.220760e+06
  -2.877673e+06   1.872410e+05
  -2.089123e+06  -2.001200e+06
  -1.318101e+05  -3.998763e+06
   1.868875e+06  -3.295512e+06
   2.518230e+06   4.520850e+05
   1.069975e+06   3.178893e+06
  -6.519890e+05   1.189339e+06
   6.705300e+04  -2.721663e+06
   2.451315e+06  -2.309505e+06
   2.363859e+06   2.782983e+06
  -1.761662e+06   5.514380e+06
  -5.720579e+06   1.114866e+06
  -4.462602e+06  -5.881360e+06
   1.460270e+06  -7.448602e+06
   6.564009e+06  -2.160866e+06
   6.552623e+06   4.056642e+06
   1.981760e+06   5.698450e+06
  -3.239444e+06   2.767162e+06
  -5.194011e+06  -1.239496e+06
  -2.590553e+06  -3.222337e+06
   2.036095e+06  -2.144889e+06
   4.155306e+06   6.834247e+05
   1.907922e+06   2.385126e+06
  -1.508100e+06   1.267053e+06
  -1.755859e+06  -9.386887e+05
   9.669626e+05  -1.095982e+06
   2.359767e+06   1.121230e+06
  -2.539846e+04   2.837729e+06
  -3.704330e+06   1.890199e+06
  -4.752659e+06  -8.539037e+05
  -2.248956e+06  -3.426190e+06
   1.774376e+06  -4.827383e+06
   4.962535e+06  -4.390897e+06
   5.864200e+06  -1.388960e+06
   4.043817e+06   3.116810e+06
   6.993890e+05   5.815984e+06
  -1.638137e+06   4.609646e+06
  -1.548221e+06   1.510221e+06
  -4.206426e+05   1.298231e+05
  -5.358101e+05   9.890322e+05
  -1.990011e+06   1.399210e+06
  -2.815420e+06  -2.557606e+05
  -1.770485e+06  -2.294456e+06
   3.177974e+05  -2.269843e+06
   1.821842e+06  -6.324668e+04
   1.709110e+06   2.327048e+06
  -1.590409e+05   2.985684e+06
  -2.798350e+06   1.417663e+06
  -4.160462e+06  -1.391991e+06
  -2.812534e+06  -3.585393e+06
   1.341589e+05  -3.778173e+06
   2.019302e+06  -2.380651e+06
   1.934067e+06  -1.093700e+06
   1.705313e+06  -7.881295e+05
   2.924033e+06  -5.597541e+05
   4.340541e+06   7.405019e+05
   3.476698e+06   2.792516e+06
   7.858036e+04   4.176660e+06
  -3.360888e+06   3.874787e+06
  -4.332250e+06   1.944863e+06
  -2.621600e+06  -6.365436e+05
  -4.902107e+04  -2.296733e+06
   1.277633e+06  -1.839146e+06
   5.438143e+05   1.044657e+05
  -1.177293e+06   1.269722e+06
  -1.898435e+06   3.508317e+05
  -8.343541e+05  -1.200491e+06
   6.051234e+05  -1.118057e+06
   5.331009e+05   4.023468e+05
  -9.618728e+05   8.741836e+05
  -1.915521e+06  -9.724037e+05
  -9.497696e+05  -3.347983e+06
   1.272271e+06  -3.660749e+06
   3.119117e+06  -1.509256e+06
   3.571020e+06   1.311886e+06
   2.509153e+06   2.945035e+06
   4.658559e+05   2.807904e+06
  -1.347460e+06   1.475902e+06
  -1.642840e+06   1.568607e+05
  -5.028065e+05  -5.805395e+04
   3.550951e+05   7.723403e+05
  -4.039890e+05   1.325817e+06
  -1.880804e+06   5.596456e+05
  -2.033617e+06  -8.709636e+05
  -4.108957e+05  -1.405830e+06
   1.193163e+06  -5.860040e+05
   9.595575e+05   4.852136e+05
  -8.522173e+05   6.190448e+05
  -2.325615e+06  -2.655805e+05
  -1.905864e+06  -1.445634e+06
   2.358370e+05  -2.124174e+06
   2.424723e+06  -1.721639e+06
   2.864395e+06  -2.441296e+05
   1.217283e+06   1.283177e+06
  -9.346791e+05   1.464778e+06
  -1.529910e+06   1.592081e+05
  -1.538493e+05  -1.066802e+06
   1.550223e+06  -7.116732e+05
   1.753649e+06   8.041494e+05
   3.723283e+05   1.701262e+06
  -1.098673e+06   1.046910e+06
  -1.312017e+06  -2.746374e+05
  -2.946375e+05  -7.905713e+05
   7.827913e+05  -5.806574e+04
   7.185125e+05   1.080130e+06
  -6.326242e+05   1.431674e+06
  -2.067969e+06   4.908236e+05
  -2.048098e+06  -1.126302e+06
  -3.506184e+05  -2.121681e+06
   1.485507e+06  -1.655117e+06
   1.766731e+06  -2.045092e+05
   5.232886e+05   8.917567e+05
  -6.808157e+05   8.278591e+05
  -6.842748e+05   5.590078e+04
   1.108154e+05  -4.332803e+05
   5.682373e+05  -2.582762e+05
   2.207842e+05   1.040243e+05
  -4.216324e+05   7.226027e+03
  -5.589352e+05  -6.346314e+05
   1.840754e+05  -1.208593e+06
   1.418589e+06  -9.061089e+05
   2.125680e+06   4.574535e+05
   1.458234e+06   2.017445e+06
  -2.765860e+05   2.491187e+06
  -1.702813e+06   1.458910e+06
  -1.783217e+06  -1.379881e+05
  -9.226755e+05  -9.929578e+05
  -3.148355e+05  -7.842917e+05
  -4.184393e+05  -2.901466e+05
  -5.750629e+05  -2.982731e+05
  -7.555494e+04  -7.407652e+05
   8.984360e+05  -9.216322e+05
   1.511916e+06  -3.361574e+05
   1.108330e+06   7.838260e+05
  -2.653338e+05   1.553430e+06
  -1.802919e+06   1.103396e+06
  -2.321749e+06  -5.361649e+05
  -1.153941e+06  -2.174295e+06
   1.034996e+06  -2.412127e+06
   2.599696e+06  -1.048280e+06
   2.434513e+06   6.761838e+05
   1.029681e+06   1.405648e+06
  -2.019749e+05   1.038925e+06
  -4.671755e+05   5.672199e+05
  -1.788466e+05   7.487131e+05
  -1.657973e+05   1.279785e+06
  -6.940026e+05   1.271687e+06
  -1.305587e+06   2.915481e+05
  -1.336462e+06  -1.140563e+06
  -5.234766e+05  -1.958925e+06
   6.769039e+05  -1.460845e+06
   1.327297e+06   2.016130e+04
   8.256640e+05   1.313033e+06
  -3.899507e+05   1.428022e+06
  -1.164499e+06   4.475430e+05
  -8.254718e+05  -6.589615e+05
   9.132498e+04  -1.069815e+06
   5.052656e+05  -8.119784e+05
   7.511483e+04  -4.558452e+05
  -4.232094e+05  -3.656643e+05
  -4.453465e+04  -3.990889e+05
   1.163025e+06  -2.035862e+05
   2.082267e+06   3.659905e+05
   1.641677e+06   1.076710e+06
  -2.515802e+04   1.450020e+06
  -1.607572e+06   1.132637e+06
  -1.875122e+06   2.774605e+05
  -8.694829e+05  -4.762396e+05
   2.549794e+05  -5.583936e+05
   5.161840e+05  -4.740431e+04
   1.279326e+04   3.993129e+05
  -4.748066e+05   2.436459e+05
  -4.809547e+05  -3.612082e+05
  -2.058402e+05  -7.510517e+05
  -5.337303e+04  -4.897561e+05
  -1.522860e+05   1.188944e+05
  -3.275889e+05   3.201409e+05
  -2.857673e+05  -2.417242e+05
   1.865312e+05  -1.018950e+06
   9.428705e+05  -1.069464e+06
   1.355406e+06  -1.360734e+05
   8.137359e+05   9.499763e+05
  -4.435378e+05   1.128235e+06
  -1.268016e+06   2.910547e+05
  -7.339335e+05  -6.143404e+05
   7.278532e+05  -6.603495e+05
   1.650210e+06   1.165612e+05
   1.063520e+06   9.099461e+05
  -4.915456e+05   1.042466e+06
  -1.571511e+06   5.061119e+05
  -1.300593e+06  -2.047413e+05
  -1.426527e+05  -5.438153e+05
   6.737758e+05  -2.798972e+05
   3.808967e+05   2.980708e+05
  -6.244579e+05   5.062714e+05
  -1.207492e+06  -1.305980e+05
  -6.355690e+05  -1.235048e+06
   6.723431e+05  -1.721536e+06
   1.557313e+06  -8.572389e+05
   1.274164e+06   8.180326e+05
   1.649037e+05   1.857688e+06
  -7.962285e+05   1.334721e+06
  -9.609766e+05  -1.855438e+05
  -4.385311e+05  -1.241814e+06
   2.279326e+05  -1.014932e+06
   5.776748e+05  -8.633812e+04
   4.885850e+05   4.082640e+05
   1.825307e+05   1.563793e+05
   4.683952e+04  -1.049677e+05
   2.599385e+05   2.911280e+05
   4.971419e+05   1.000301e+06
   1.942334e+05   1.127549e+06
  -7.227620e+05   4.032176e+05
  -1.516092e+06  -5.132427e+05
  -1.323432e+06  -8.969352e+05
  -1.797140e+05  -7.216582e+05
   9.056423e+05  -4.080756e+05
   1.027946e+06  -1.717512e+05
   3.606860e+05   4.858381e+04
  -1.606373e+05   2.262927e+05
  -2.567658e+04   2.259663e+05
   2.873296e+05   1.194722e+05
   4.180085e+04   1.372505e+05
  -7.052653e+05   2.163931e+05
  -1.075625e+06  -3.795590e+04
  -4.070081e+05  -7.111658e+05
   9.054192e+05  -1.181660e+06
   1.752624e+06  -7.372080e+05
   1.422576e+06   4.756486e+05
   2.479333e+05   1.456754e+06
  -8.125244e+05   1.399823e+06
  -1.089147e+06   5.234295e+05
  -6.706169e+05  -2.624410e+05
  -1.242205e+05  -3.695856e+05
   8.403165e+04  -5.283867e+04
  -8.303092e+04   2.810720e+04
  -3.116037e+05  -3.835096e+05
  -2.450728e+05  -8.411004e+05
   1.999029e+05  -6.929286e+05
   6.993469e+05   1.483712e+05
   7.324170e+05   1.001067e+06
   8.614873e+04   1.058410e+06
  -7.835973e+05   2.261424e+05
  -1.045139e+06  -7.715608e+05
  -3.316982e+05  -1.125840e+06
   7.457647e+05  -6.759461e+05
   1.144762e+06   9.820021e+04
   5.339186e+05   6.300758e+05
  -3.026167e+05   6.837384e+05
  -3.871379e+05   3.744407e+05
   2.635293e+05   2.292379e+04
   6.725957e+05  -2.568884e+04
   1.429843e+05   3.166567e+05
  -8.647052e+05   6.863688e+05
  -1.303931e+06   5.457729e+05
  -7.767792e+05  -1.841221e+05
   1.141573e+05  -8.904375e+05
   5.744287e+05  -8.732336e+05
   4.285939e+05  -1.571681e+05
   3.973343e+04   4.964795e+05
  -2.535387e+05   4.387309e+05
  -3.566690e+05  -1.665428e+05
  -2.504366e+05  -5.995319e+05
   6.000520e+04  -4.310458e+05
   4.001695e+05   5.622119e+04
   4.858564e+05   2.905621e+05
   2.510913e+05   9.861716e+04
  -3.222127e+04  -1.468613e+05
  -9.167948e+04  -3.303013e+04
  -7.662023e+03   3.636667e+05
  -7.147675e+04   5.490847e+05
  -3.294253e+05   2.029402e+05
  -4.506141e+05  -4.020954e+05
  -1.365523e+05  -6.639215e+05
   4.279029e+05  -3.115885e+05
   6.726410e+05   3.012112e+05
   2.467023e+05   5.963404e+05
  -5.266823e+05   3.687731e+05
  -9.027801e+05  -9.311788e+04
  -4.855918e+05  -3.963133e+05
   3.062552e+05  -4.026888e+05
   6.568821e+05  -2.194711e+05
   2.525202e+05  -1.720413e+04
  -3.619841e+05   5.446684e+04
  -4.172164e+05  -8.177490e+04
   1.870871e+05  -2.980213e+05
   7.805441e+05  -2.610338e+05
