
 $NMID
 id='ANONYMOUS ', fmtdat='(2E16.6)'
 volume=1.0
 tramp=1.0
 $END
   3.520751e+07  -3.026732e+05
   2.210015e+07   1.949318e+07
  -2.697565e+06   2.311631e+07
  -1.617420e+07   1.145053e+07
  -1.111297e+07  -1.904258e+06
   8.684995e+05  -5.950952e+06
   6.406216e+06  -8.864792e+05
   3.223782e+06   5.780989e+06
  -2.803401e+06   7.331271e+06
  -6.140614e+06   2.554857e+06
  -4.978929e+06  -4.062804e+06
  -7.271608e+05  -6.177255e+06
   2.856142e+06  -1.710484e+06
   2.219511e+06   4.435308e+06
  -2.083710e+06   5.357710e+06
  -5.279245e+06  -1.492941e+05
  -3.513548e+06  -6.524665e+06
   1.934745e+06  -7.949717e+06
   6.444551e+06  -3.975962e+06
   6.855383e+06   1.518041e+06
   3.715826e+06   4.805734e+06
   4.974527e+04   4.846906e+06
  -1.196756e+06   3.075350e+06
   3.745263e+05   1.936770e+06
   1.848899e+06   2.717989e+06
  -1.164245e+05   4.014312e+06
  -4.838276e+06   3.188752e+06
  -7.514606e+06  -1.549335e+05
  -4.844399e+06  -3.281463e+06
   6.341209e+05  -3.538218e+06
   3.515124e+06  -1.302979e+06
   1.827081e+06   9.999329e+05
  -1.539397e+06   1.602687e+06
  -3.043068e+06   2.753819e+05
  -1.987799e+06  -2.098427e+06
   1.227463e+05  -3.619995e+06
   1.641730e+06  -2.418733e+06
   1.647832e+06   7.966271e+05
   3.592940e+05   2.445906e+06
  -6.383475e+05   3.519180e+05
   1.611272e+05  -2.671921e+06
   1.918323e+06  -2.085993e+06
   1.927636e+06   1.874184e+06
  -8.053709e+05   3.959227e+06
  -3.641368e+06   9.128228e+05
  -3.146185e+06  -4.014482e+06
   7.922636e+05  -5.247231e+06
   4.736527e+06  -1.664051e+06
   5.255426e+06   2.830213e+06
   1.994804e+06   4.333068e+06
  -2.333053e+06   2.474973e+06
  -4.272337e+06  -5.120085e+05
  -2.410908e+06  -2.262464e+06
   1.272506e+06  -1.735566e+06
   3.119286e+06   2.577759e+05
   1.583467e+06   1.614492e+06
  -1.047661e+06   9.857287e+05
  -1.509547e+06  -6.025283e+05
   3.772019e+05  -9.991090e+05
   1.715223e+06   3.019450e+05
   4.329676e+05   1.650644e+06
  -2.210984e+06   1.457955e+06
  -3.386788e+06  -2.067789e+05
  -1.830141e+06  -2.297005e+06
   1.342389e+06  -3.769432e+06
   4.035446e+06  -3.568249e+06
   4.687546e+06  -1.078291e+06
   3.095913e+06   2.541375e+06
   5.839107e+05   4.621335e+06
  -9.719544e+05   3.742647e+06
  -9.202568e+05   1.527724e+06
  -4.277148e+05   5.557958e+05
  -8.767529e+05   1.071852e+06
  -2.062948e+06   1.087110e+06
  -2.552468e+06  -4.833870e+05
  -1.518491e+06  -2.227645e+06
   3.910513e+05  -2.146576e+06
   1.802029e+06  -1.275822e+05
   1.675325e+06   2.055019e+06
  -8.751093e+04   2.607206e+06
  -2.374350e+06   1.150137e+06
  -3.365774e+06  -1.216410e+06
  -2.142481e+06  -2.840606e+06
   1.446282e+05  -2.818595e+06
   1.455880e+06  -1.723807e+06
   1.314580e+06  -8.789801e+05
   1.231904e+06  -8.000827e+05
   2.364970e+06  -6.959800e+05
   3.650253e+06   3.571105e+05
   3.060417e+06   2.158479e+06
   2.750206e+05   3.539208e+06
  -2.726636e+06   3.453456e+06
  -3.704044e+06   1.768873e+06
  -2.268344e+06  -5.852051e+05
   7.178814e+03  -2.048062e+06
   1.151543e+06  -1.584708e+06
   4.656921e+05   1.243100e+05
  -1.001773e+06   1.119515e+06
  -1.568443e+06   3.521862e+05
  -6.812903e+05  -9.796334e+05
   5.159160e+05  -9.987556e+05
   5.624961e+05   2.758764e+05
  -5.901151e+05   8.976450e+05
  -1.579761e+06  -3.981669e+05
  -1.198067e+06  -2.491502e+06
   4.693255e+05  -3.217614e+06
   2.337002e+06  -1.779357e+06
   3.228567e+06   6.665982e+05
   2.535744e+06   2.379253e+06
   6.350574e+05   2.479181e+06
  -1.126694e+06   1.353901e+06
  -1.440675e+06   1.840310e+05
  -4.338765e+05  -2.666552e+04
   3.424706e+05   6.390744e+05
  -2.569461e+05   1.101688e+06
  -1.507312e+06   5.406209e+05
  -1.723870e+06  -5.896660e+05
  -4.385307e+05  -1.117620e+06
   9.662406e+05  -5.735859e+05
   8.980794e+05   3.453961e+05
  -6.315724e+05   6.541477e+05
  -2.051391e+06   2.454107e+04
  -1.847257e+06  -1.102800e+06
  -2.490380e+03  -1.908433e+06
   1.987203e+06  -1.673343e+06
   2.450407e+06  -3.750083e+05
   1.085494e+06   1.006817e+06
  -7.190214e+05   1.233040e+06
  -1.237697e+06   1.762471e+05
  -1.359739e+05  -8.780987e+05
   1.281342e+06  -6.644107e+05
   1.534948e+06   5.697971e+05
   4.587913e+05   1.412841e+06
  -8.212383e+05   9.962589e+05
  -1.133022e+06  -9.078948e+04
  -3.392204e+05  -6.209654e+05
   6.263639e+05  -8.850959e+04
   6.458990e+05   8.838112e+05
  -4.938869e+05   1.246840e+06
  -1.758116e+06   4.952703e+05
  -1.795684e+06  -8.823713e+05
  -3.960996e+05  -1.787948e+06
   1.168440e+06  -1.478574e+06
   1.484459e+06  -2.813280e+05
   5.123365e+05   7.166198e+05
  -5.237668e+05   7.534833e+05
  -6.189757e+05   8.688531e+04
   2.700388e+04  -4.313471e+05
   5.074891e+05  -3.280356e+05
   3.022399e+05   6.807970e+04
  -2.834534e+05   1.019261e+05
  -5.212393e+05  -4.351845e+05
   5.033284e+04  -1.017182e+06
   1.147590e+06  -8.537260e+05
   1.839009e+06   2.795903e+05
   1.340687e+06   1.655039e+06
  -1.150449e+05   2.163394e+06
  -1.385549e+06   1.383605e+06
  -1.574834e+06   1.845699e+04
  -9.250649e+05  -8.319081e+05
  -3.612520e+05  -7.611591e+05
  -3.344004e+05  -3.123019e+05
  -4.320293e+05  -2.214677e+05
  -7.858125e+04  -5.894027e+05
   6.999789e+05  -8.412409e+05
   1.284725e+06  -4.037117e+05
   1.044767e+06   6.174205e+05
  -1.023017e+05   1.395646e+06
  -1.488939e+06   1.079174e+06
  -2.039945e+06  -3.288228e+05
  -1.127448e+06  -1.789260e+06
   7.188560e+05  -2.101816e+06
   2.129291e+06  -1.053554e+06
   2.133686e+06   3.963239e+05
   1.032622e+06   1.131623e+06
  -6.007010e+04   9.588652e+05
  -4.050622e+05   5.868014e+05
  -2.088666e+05   6.677394e+05
  -1.399000e+05   1.063509e+06
  -5.308774e+05   1.079267e+06
  -1.082380e+06   2.913091e+05
  -1.190183e+06  -9.253206e+05
  -5.363613e+05  -1.663308e+06
   5.201537e+05  -1.289328e+06
   1.143740e+06  -5.921493e+04
   7.806637e+05   1.057318e+06
  -2.244680e+05   1.228924e+06
  -9.146455e+05   4.779119e+05
  -7.130478e+05  -4.491590e+05
  -1.543348e+04  -8.642124e+05
   3.235099e+05  -7.123542e+05
   6.975890e+03  -4.153890e+05
  -3.722568e+05  -3.128434e+05
  -5.052999e+04  -3.494811e+05
   9.627145e+05  -2.330108e+05
   1.768345e+06   2.098073e+05
   1.454339e+06   8.227741e+05
   8.112959e+04   1.202661e+06
  -1.280492e+06   1.021244e+06
  -1.570581e+06   3.540860e+05
  -7.698700e+05  -3.061857e+05
   1.769485e+05  -4.589352e+05
   4.194890e+05  -8.456897e+04
   3.155713e+03   3.130328e+05
  -4.178365e+05   2.264520e+05
  -4.236980e+05  -2.909996e+05
  -1.728030e+05  -6.597189e+05
  -2.958861e+04  -4.321925e+05
  -1.222523e+05   1.401036e+05
  -2.895989e+05   3.359114e+05
  -2.641182e+05  -1.874752e+05
   1.297144e+05  -9.052567e+05
   7.608535e+05  -9.549411e+05
   1.116816e+06  -1.382208e+05
   6.942578e+05   7.942687e+05
  -3.399539e+05   9.508093e+05
  -1.059233e+06   2.599834e+05
  -6.567397e+05  -5.100625e+05
   5.815622e+05  -6.079299e+05
   1.437869e+06  -7.047221e+03
   1.012585e+06   7.057668e+05
  -3.216493e+05   9.450489e+05
  -1.324067e+06   5.744015e+05
  -1.160123e+06  -7.194309e+04
  -1.738664e+05  -4.657748e+05
   5.561606e+05  -2.923304e+05
   3.243333e+05   2.289300e+05
  -5.403657e+05   4.492560e+05
  -1.050612e+06  -9.068724e+04
  -5.689707e+05  -1.062502e+06
   5.524312e+05  -1.510041e+06
   1.334397e+06  -7.859004e+05
   1.138673e+06   6.655779e+05
   2.233853e+05   1.608559e+06
  -6.214439e+05   1.213030e+06
  -8.399808e+05  -8.661972e+04
  -4.641997e+05  -1.041687e+06
   1.080945e+05  -8.991228e+05
   4.803583e+05  -1.141578e+05
   4.696654e+05   3.296173e+05
   1.971052e+05   1.285878e+05
   2.181632e+04  -9.916914e+04
   1.902578e+05   2.303930e+05
   4.575790e+05   8.372951e+05
   2.576893e+05   9.633291e+05
  -5.634367e+05   3.779251e+05
  -1.341087e+06  -3.736612e+05
  -1.219870e+06  -7.059101e+05
  -1.908848e+05  -6.075144e+05
   7.952802e+05  -3.984354e+05
   8.894263e+05  -2.097333e+05
   2.843756e+05   1.429455e+04
  -1.412128e+05   2.027441e+05
   2.774408e+04   2.050511e+05
   2.965601e+05   1.012164e+05
   2.802383e+04   1.230613e+05
  -6.445848e+05   2.135536e+05
  -9.297849e+05   4.192831e+01
  -3.250296e+05  -6.057972e+05
   7.748998e+05  -1.046111e+06
   1.466223e+06  -6.760127e+05
   1.208660e+06   3.857041e+05
   2.614226e+05   1.259592e+06
  -6.379089e+05   1.228581e+06
  -9.259583e+05   4.716016e+05
  -6.014127e+05  -2.188866e+05
  -1.062010e+05  -3.180382e+05
   1.084970e+05  -3.553789e+04
  -5.200039e+04   4.979833e+04
  -2.995343e+05  -3.029252e+05
  -2.612105e+05  -7.129093e+05
   1.543552e+05  -6.011186e+05
   6.243752e+05   1.231805e+05
   6.578188e+05   8.663274e+05
   7.533617e+04   9.181993e+05
  -6.995157e+05   1.975615e+05
  -9.310183e+05  -6.612845e+05
  -3.072400e+05  -9.645923e+05
   6.309336e+05  -5.889561e+05
   9.787554e+05   5.477560e+04
   4.597665e+05   5.048201e+05
  -2.407973e+05   5.701214e+05
  -2.928618e+05   3.236440e+05
   2.640349e+05   1.339792e+04
   5.904059e+05  -4.569397e+04
   1.233245e+05   2.648623e+05
  -7.193099e+05   6.320566e+05
  -1.071867e+06   5.403852e+05
  -6.400917e+05  -1.116786e+05
   6.997336e+04  -7.622685e+05
   4.376740e+05  -7.569400e+05
   3.384870e+05  -1.209138e+05
   4.014406e+04   4.455367e+05
  -2.129047e+05   3.733582e+05
  -3.242873e+05  -1.583880e+05
  -2.354609e+05  -5.110751e+05
   5.003534e+04  -3.507240e+05
   3.502989e+05   4.624991e+04
   4.158443e+05   2.150067e+05
   2.158368e+05   5.756004e+04
  -1.287475e+04  -1.069277e+05
  -6.762497e+04   2.185342e+04
  -2.801527e+04   3.441112e+05
  -1.064521e+05   4.608332e+05
  -3.095344e+05   1.399126e+05
  -3.755418e+05  -3.754709e+05
  -9.286661e+04  -5.873106e+05
   3.769655e+05  -2.751510e+05
   5.787760e+05   2.597439e+05
   2.239608e+05   5.222586e+05
  -4.339985e+05   3.321338e+05
  -7.704325e+05  -6.438634e+04
  -4.263302e+05  -3.275771e+05
   2.556138e+05  -3.377900e+05
   5.591511e+05  -1.853636e+05
   1.960141e+05  -1.354790e+04
  -3.495111e+05   4.552179e+04
  -3.852686e+05  -8.460551e+04
   1.718683e+05  -2.913441e+05
   7.090369e+05  -2.651636e+05
