
 $NMID
 id='ANONYMOUS ', fmtdat='(2E16.6)'
 volume=1.0
 tramp=1.0
 $END
   5.431592e+07   7.305172e+05
   3.222107e+07   3.387094e+07
  -7.538118e+06   3.655218e+07
  -2.664683e+07   1.393603e+07
  -1.580964e+07  -6.736599e+06
   3.193641e+06  -8.934544e+06
   9.433075e+06   1.147141e+06
   2.676968e+06   9.380857e+06
  -5.956143e+06   9.025925e+06
  -9.302790e+06   1.922353e+06
  -6.729817e+06  -6.067689e+06
  -7.263366e+05  -8.374388e+06
   3.915065e+06  -2.614357e+06
   2.551764e+06   5.348038e+06
  -3.654482e+06   6.366494e+06
  -7.587540e+06  -1.323404e+06
  -4.219170e+06  -9.896618e+06
   3.753627e+06  -1.137215e+07
   9.835087e+06  -5.595979e+06
   1.042229e+07   2.138723e+06
   6.262802e+06   7.334950e+06
   5.101189e+05   8.319580e+06
  -2.853954e+06   5.729512e+06
  -1.687227e+06   2.559627e+06
   1.175625e+06   2.182502e+06
   2.086484e+05   4.158971e+06
  -5.378726e+06   4.251848e+06
  -9.466511e+06   3.637453e+05
  -6.807155e+06  -4.113775e+06
  -1.305926e+05  -4.941407e+06
   3.725935e+06  -2.448060e+06
   2.441165e+06   9.223765e+04
  -6.677217e+05   1.021925e+06
  -2.351585e+06   4.903745e+05
  -2.195310e+06  -1.501648e+06
  -6.082319e+05  -3.928254e+06
   1.834220e+06  -3.717331e+06
   3.110394e+06   2.140158e+05
   1.550627e+06   3.564370e+06
  -8.100465e+05   1.775183e+06
  -2.992139e+05  -2.488487e+06
   2.420340e+06  -2.261518e+06
   2.355840e+06   3.089345e+06
  -2.349762e+06   5.874814e+06
  -6.641651e+06   8.951758e+05
  -4.832009e+06  -6.716612e+06
   1.920848e+06  -8.177550e+06
   7.197786e+06  -2.250318e+06
   6.730337e+06   4.363102e+06
   1.794212e+06   5.873702e+06
  -3.382663e+06   2.649288e+06
  -5.135731e+06  -1.473677e+06
  -2.384804e+06  -3.382636e+06
   2.322936e+06  -2.119321e+06
   4.374178e+06   9.083472e+05
   1.882871e+06   2.630804e+06
  -1.665283e+06   1.312383e+06
  -1.706199e+06  -9.973688e+05
   1.230057e+06  -8.990393e+05
   2.363024e+06   1.640109e+06
  -5.687387e+05   3.239344e+06
  -4.413281e+06   1.783509e+06
  -5.088142e+06  -1.312181e+06
  -2.216417e+06  -3.838723e+06
   1.819283e+06  -5.109155e+06
   4.972505e+06  -4.684308e+06
   6.080642e+06  -1.624575e+06
   4.419345e+06   3.156302e+06
   8.521208e+05   6.045190e+06
  -1.820828e+06   4.652687e+06
  -1.684587e+06   1.229367e+06
  -1.740084e+05  -1.673737e+05
  -6.242819e+04   1.011704e+06
  -1.674945e+06   1.730897e+06
  -2.814922e+06   1.557662e+05
  -1.989382e+06  -1.984247e+06
   1.782963e+04  -2.165671e+06
   1.586031e+06  -2.032549e+05
   1.680129e+06   2.086940e+06
  -2.081808e+04   2.918826e+06
  -2.756787e+06   1.595588e+06
  -4.378720e+06  -1.238566e+06
  -3.094797e+06  -3.721958e+06
   9.626816e+04  -4.110613e+06
   2.240922e+06  -2.604665e+06
   2.165746e+06  -1.086567e+06
   1.785138e+06  -6.744895e+05
   2.899328e+06  -4.743371e+05
   4.292683e+06   7.652947e+05
   3.437923e+06   2.752302e+06
   1.103739e+05   4.094066e+06
  -3.211180e+06   3.855783e+06
  -4.174658e+06   2.072649e+06
  -2.640744e+06  -4.571049e+05
  -2.398110e+05  -2.239947e+06
   1.126970e+06  -1.914314e+06
   5.607986e+05   4.599413e+04
  -1.096550e+06   1.294774e+06
  -1.892369e+06   3.825398e+05
  -8.979108e+05  -1.202524e+06
   5.257043e+05  -1.110527e+06
   4.360044e+05   3.793019e+05
  -1.031140e+06   6.992358e+05
  -1.814458e+06  -1.239162e+06
  -6.511111e+05  -3.414755e+06
   1.531780e+06  -3.377809e+06
   3.082321e+06  -1.134787e+06
   3.293458e+06   1.411040e+06
   2.283623e+06   2.751123e+06
   4.528104e+05   2.612150e+06
  -1.250079e+06   1.456039e+06
  -1.580367e+06   2.161560e+05
  -4.917397e+05  -4.849634e+04
   3.524872e+05   7.508207e+05
  -4.185494e+05   1.326978e+06
  -1.896802e+06   5.600360e+05
  -2.014104e+06  -8.916180e+05
  -3.764713e+05  -1.405989e+06
   1.167483e+06  -5.623663e+05
   8.866410e+05   4.550194e+05
  -8.417453e+05   5.166499e+05
  -2.172185e+06  -3.211352e+05
  -1.741925e+06  -1.356656e+06
   2.498846e+05  -1.967632e+06
   2.310822e+06  -1.641786e+06
   2.769796e+06  -2.577833e+05
   1.204592e+06   1.268220e+06
  -9.276065e+05   1.487457e+06
  -1.553874e+06   1.752409e+05
  -1.894890e+05  -1.078543e+06
   1.518252e+06  -7.238347e+05
   1.708688e+06   7.894100e+05
   3.291258e+05   1.647751e+06
  -1.089565e+06   9.680565e+05
  -1.248866e+06  -3.144573e+05
  -2.412714e+05  -7.758889e+05
   7.919367e+05  -4.595668e+04
   7.253698e+05   1.058050e+06
  -5.876489e+05   1.418516e+06
  -2.011667e+06   5.271104e+05
  -2.027204e+06  -1.064617e+06
  -3.688633e+05  -2.075664e+06
   1.449399e+06  -1.630728e+06
   1.725019e+06  -1.992146e+05
   4.966900e+05   8.685156e+05
  -6.610629e+05   7.974807e+05
  -6.338109e+05   7.525437e+04
   1.163617e+05  -3.577388e+05
   4.892575e+05  -2.088280e+05
   1.251856e+05   6.035070e+04
  -4.405959e+05  -8.177946e+04
  -5.082272e+05  -6.723077e+05
   2.157010e+05  -1.181148e+06
   1.387194e+06  -8.831720e+05
   2.076684e+06   4.290905e+05
   1.450116e+06   1.953057e+06
  -2.318034e+05   2.418782e+06
  -1.620255e+06   1.402699e+06
  -1.686447e+06  -1.330623e+05
  -8.566765e+05  -8.978419e+05
  -3.217301e+05  -6.554125e+05
  -4.787757e+05  -2.289947e+05
  -6.204779e+05  -3.224451e+05
  -8.129734e+04  -7.648859e+05
   8.819938e+05  -8.928522e+05
   1.448178e+06  -3.145421e+05
   1.045329e+06   7.274259e+05
  -2.567754e+05   1.455779e+06
  -1.726146e+06   1.059815e+06
  -2.242298e+06  -4.976016e+05
  -1.117295e+06  -2.103548e+06
   1.025125e+06  -2.352357e+06
   2.544076e+06  -1.010268e+06
   2.340374e+06   6.721125e+05
   9.467798e+05   1.337905e+06
  -2.066889e+05   9.409338e+05
  -3.883007e+05   5.116142e+05
  -8.482583e+04   7.588553e+05
  -1.162099e+05   1.308216e+06
  -6.810637e+05   1.281881e+06
  -1.295562e+06   3.080563e+05
  -1.330502e+06  -1.088880e+06
  -5.450880e+05  -1.897210e+06
   6.300613e+05  -1.433024e+06
   1.283450e+06   9.901159e+03
   8.010632e+05   1.286410e+06
  -3.996831e+05   1.389041e+06
  -1.160286e+06   3.934803e+05
  -7.995024e+05  -7.028766e+05
   1.339087e+05  -1.069668e+06
   5.407203e+05  -7.721931e+05
   8.535495e+04  -4.126774e+05
  -4.327951e+05  -3.394899e+05
  -5.810246e+04  -3.845668e+05
   1.149394e+06  -2.004458e+05
   2.059459e+06   3.485072e+05
   1.607735e+06   1.046789e+06
  -5.048696e+04   1.430562e+06
  -1.597576e+06   1.126143e+06
  -1.829916e+06   2.641544e+05
  -8.248684e+05  -4.989402e+05
   2.673127e+05  -5.660418e+05
   5.102737e+05  -2.853142e+04
   2.604812e+04   4.244330e+05
  -4.446014e+05   2.587528e+05
  -4.807660e+05  -3.449240e+05
  -2.536727e+05  -7.274973e+05
  -9.657131e+04  -4.829631e+05
  -1.353637e+05   9.256549e+04
  -2.757961e+05   2.907202e+05
  -2.726992e+05  -2.343436e+05
   1.444072e+05  -9.866400e+05
   9.058853e+05  -1.061374e+06
   1.369318e+06  -1.660672e+05
   8.522358e+05   9.228592e+05
  -4.239566e+05   1.141198e+06
  -1.266003e+06   3.335596e+05
  -7.336121e+05  -5.754276e+05
   7.060088e+05  -6.432021e+05
   1.583825e+06   1.054825e+05
   9.933256e+05   8.653911e+05
  -4.918883e+05   9.785058e+05
  -1.494729e+06   4.634571e+05
  -1.223838e+06  -1.988028e+05
  -1.291033e+05  -5.114694e+05
   6.498520e+05  -2.621675e+05
   3.839425e+05   2.993337e+05
  -5.855886e+05   5.261605e+05
  -1.187713e+06  -7.852901e+04
  -6.787805e+05  -1.184333e+06
   5.854831e+05  -1.711953e+06
   1.485506e+06  -8.934010e+05
   1.258944e+06   7.571138e+05
   2.019850e+05   1.793032e+06
  -7.421906e+05   1.288807e+06
  -9.213470e+05  -1.856150e+05
  -4.202329e+05  -1.192886e+06
   2.309994e+05  -9.599952e+05
   5.645375e+05  -7.673041e+04
   4.581806e+05   3.748377e+05
   1.552242e+05   1.321375e+05
   5.137454e+04  -9.144120e+04
   2.905180e+05   3.068498e+05
   5.123947e+05   9.729037e+05
   1.779942e+05   1.074407e+06
  -7.289625e+05   3.875516e+05
  -1.474199e+06  -4.673391e+05
  -1.268786e+06  -8.369344e+05
  -1.817420e+05  -7.021221e+05
   8.448344e+05  -4.233860e+05
   9.807097e+05  -1.781230e+05
   3.689649e+05   6.299663e+04
  -1.416310e+05   2.285270e+05
  -4.784679e+04   1.950049e+05
   2.522386e+05   8.258579e+04
   5.690540e+04   1.340046e+05
  -6.477240e+05   2.476472e+05
  -1.052787e+06  -5.310754e+03
  -4.587028e+05  -7.020219e+05
   8.279870e+05  -1.197111e+06
   1.717441e+06  -7.727162e+05
   1.440495e+06   4.240228e+05
   2.877387e+05   1.408482e+06
  -7.717633e+05   1.387072e+06
  -1.054562e+06   5.552689e+05
  -6.578933e+05  -2.203008e+05
  -1.431015e+05  -3.611630e+05
   5.696067e+04  -8.119015e+04
  -8.463604e+04   3.227949e+03
  -2.926231e+05  -3.718431e+05
  -2.429589e+05  -8.085497e+05
   1.740227e+05  -6.870859e+05
   6.828963e+05   1.041002e+05
   7.609546e+05   9.400925e+05
   1.436262e+05   1.041119e+06
  -7.458621e+05   2.751603e+05
  -1.053338e+06  -6.997489e+05
  -3.696676e+05  -1.095171e+06
   7.111927e+05  -7.003339e+05
   1.134483e+06   6.406430e+04
   5.461537e+05   6.276894e+05
  -2.890031e+05   7.007141e+05
  -3.961711e+05   3.726115e+05
   2.312119e+05  -3.257372e+03
   6.474413e+05  -4.748209e+04
   1.550030e+05   3.132559e+05
  -8.240742e+05   6.837080e+05
  -1.274532e+06   5.322528e+05
  -7.826445e+05  -1.920582e+05
   9.079054e+04  -8.813039e+05
   5.672612e+05  -8.678639e+05
   4.483257e+05  -1.759890e+05
   6.926051e+04   4.744438e+05
  -2.352148e+05   4.503270e+05
  -3.566598e+05  -1.270980e+05
  -2.624655e+05  -5.775551e+05
   4.763662e+04  -4.467956e+05
   3.950938e+05   3.384088e+04
   4.838750e+05   2.918953e+05
   2.424610e+05   1.064216e+05
  -4.239841e+04  -1.663770e+05
  -7.859756e+04  -7.267952e+04
   4.258947e+04   3.472873e+05
  -1.234052e+04   5.794410e+05
  -3.123669e+05   2.582999e+05
  -4.922114e+05  -3.586074e+05
  -1.972300e+05  -6.516874e+05
   3.990295e+05  -3.306827e+05
   6.847772e+05   2.638832e+05
   2.714422e+05   5.674709e+05
  -5.126316e+05   3.736992e+05
  -9.001527e+05  -6.066217e+04
  -4.906381e+05  -3.752154e+05
   2.935489e+05  -4.195592e+05
   6.478778e+05  -2.525937e+05
   2.674922e+05  -2.162416e+04
  -3.276380e+05   9.166202e+04
  -4.049444e+05  -3.608396e+04
   1.457160e+05  -2.836122e+05
   7.142383e+05  -2.857625e+05
