
 $NMID
 id='ANONYMOUS ', fmtdat='(2E16.6)'
 volume=1.0
 tramp=1.0
 $END
  -3.112542e+07  -1.457860e+06
  -1.924586e+07  -1.677460e+07
   2.176300e+06  -1.984338e+07
   1.424849e+07  -1.097486e+07
   1.044409e+07   5.069202e+05
  -2.141166e+05   5.364827e+06
  -5.991140e+06   1.640865e+06
  -3.649246e+06  -5.122590e+06
   2.165730e+06  -7.486979e+06
   5.716535e+06  -2.880066e+06
   4.614688e+06   4.038025e+06
   4.169524e+05   6.105582e+06
  -2.889003e+06   1.331024e+06
  -2.088986e+06  -4.839066e+06
   2.002726e+06  -5.569671e+06
   4.955858e+06  -6.506913e+04
   3.277559e+06   6.104688e+06
  -1.865840e+06   7.361166e+06
  -6.025238e+06   3.352500e+06
  -6.029965e+06  -1.907063e+06
  -2.689596e+06  -4.524719e+06
   4.847986e+05  -3.848039e+06
   7.309303e+05  -2.154519e+06
  -1.345704e+06  -1.997096e+06
  -2.266696e+06  -3.578605e+06
   6.049056e+05  -4.564955e+06
   5.557077e+06  -2.796415e+06
   7.697983e+06   9.789023e+05
   4.386685e+06   3.712628e+06
  -1.363542e+06   3.328049e+06
  -4.044816e+06   6.685675e+05
  -1.714027e+06  -1.747121e+06
   2.361166e+06  -2.021375e+06
   3.899102e+06   3.566264e+04
   2.028954e+06   2.889797e+06
  -7.873748e+05   4.023303e+06
  -1.970455e+06   2.023228e+06
  -1.097674e+06  -1.320913e+06
   3.548043e+05  -2.273119e+06
   6.530747e+05   3.629378e+05
  -6.289660e+05   3.171142e+06
  -2.125720e+06   2.191491e+06
  -1.898474e+06  -1.693654e+06
   4.113289e+05  -3.581353e+06
   2.761649e+06  -8.453677e+05
   2.531986e+06   3.484243e+06
  -6.890616e+05   4.548167e+06
  -4.352291e+06   1.313619e+06
  -5.152999e+06  -2.873500e+06
  -2.112805e+06  -4.395064e+06
   2.355674e+06  -2.624198e+06
   4.493862e+06   4.124454e+05
   2.660180e+06   2.239325e+06
  -1.063209e+06   1.744028e+06
  -2.971514e+06  -1.790394e+05
  -1.583452e+06  -1.470305e+06
   9.671870e+05  -9.106863e+05
   1.613669e+06   6.082762e+05
  -7.819056e+04   1.198623e+06
  -1.661467e+06   2.155234e+05
  -9.195090e+05  -1.154912e+06
   1.544717e+06  -1.396651e+06
   3.065268e+06  -9.609561e+04
   1.778110e+06   2.011053e+06
  -1.579679e+06   3.593966e+06
  -4.457254e+06   3.276030e+06
  -4.799166e+06   6.374076e+05
  -2.732260e+06  -2.847390e+06
  -2.131067e+05  -4.674818e+06
   9.646816e+05  -3.820017e+06
   8.027463e+05  -1.868893e+06
   6.845544e+05  -9.747026e+05
   1.515776e+06  -1.188921e+06
   2.659432e+06  -7.660623e+05
   2.775835e+06   1.076027e+06
   1.346956e+06   2.813724e+06
  -8.055828e+05   2.443485e+06
  -2.207899e+06  -3.025624e+04
  -1.785409e+06  -2.493569e+06
   3.275799e+05  -2.857343e+06
   2.638126e+06  -9.333790e+05
   3.294852e+06   1.638141e+06
   1.798202e+06   2.992472e+06
  -3.850986e+05   2.598950e+06
  -1.405298e+06   1.452679e+06
  -1.155226e+06   8.274875e+05
  -1.210355e+06   9.068490e+05
  -2.526723e+06   7.482070e+05
  -3.884612e+06  -4.743805e+05
  -3.201687e+06  -2.428041e+06
  -1.422854e+05  -3.844885e+06
   3.171521e+06  -3.599044e+06
   4.185374e+06  -1.621720e+06
   2.394272e+06   9.096729e+05
  -2.864495e+05   2.272056e+06
  -1.462870e+06   1.582819e+06
  -4.816239e+05  -2.163111e+05
   1.194369e+06  -1.134589e+06
   1.679865e+06  -2.809952e+05
   6.102947e+05   1.069881e+06
  -6.659785e+05   1.063866e+06
  -6.978158e+05  -3.101952e+05
   5.296665e+05  -1.104727e+06
   1.695320e+06   1.481922e+05
   1.494284e+06   2.519314e+06
  -2.449040e+05   3.633328e+06
  -2.477595e+06   2.227019e+06
  -3.674042e+06  -6.398930e+05
  -2.894543e+06  -2.768771e+06
  -6.421546e+05  -2.859231e+06
   1.345986e+06  -1.434028e+06
   1.613776e+06  -8.957522e+04
   4.725143e+05   5.202993e+04
  -3.455069e+05  -7.094046e+05
   2.945880e+05  -1.145538e+06
   1.589361e+06  -5.097692e+05
   1.811947e+06   6.545520e+05
   4.619969e+05   1.182702e+06
  -1.059794e+06   6.016482e+05
  -1.022280e+06  -4.113207e+05
   6.765245e+05  -7.824892e+05
   2.323719e+06  -4.974686e+04
   2.115346e+06   1.291846e+06
  -1.296275e+04   2.186972e+06
  -2.267464e+06   1.810496e+06
  -2.709813e+06   3.135847e+05
  -1.126803e+06  -1.114929e+06
   8.163421e+05  -1.249658e+06
   1.287809e+06  -1.170762e+05
   6.797299e+04   9.250495e+05
  -1.413934e+06   6.471101e+05
  -1.652016e+06  -6.619996e+05
  -4.955748e+05  -1.555770e+06
   8.910545e+05  -1.112713e+06
   1.251949e+06   7.410374e+04
   4.000972e+05   6.675819e+05
  -6.474155e+05   7.955769e+04
  -6.427528e+05  -9.825888e+05
   6.170236e+05  -1.320586e+06
   1.945795e+06  -4.273988e+05
   1.899456e+06   1.063297e+06
   3.418643e+05   1.957198e+06
  -1.321753e+06   1.553174e+06
  -1.622374e+06   2.598181e+05
  -5.515297e+05  -7.926026e+05
   5.928672e+05  -8.144136e+05
   7.168996e+05  -6.110085e+04
  -1.903510e+04   5.359020e+05
  -6.236217e+05   4.016826e+05
  -4.346222e+05  -1.083290e+05
   2.593728e+05  -1.917054e+05
   5.809649e+05   4.244444e+05
  -4.989588e+04   1.094532e+06
  -1.273536e+06   8.905396e+05
  -1.992087e+06  -3.849214e+05
  -1.377054e+06  -1.867940e+06
   2.349150e+05  -2.372063e+06
   1.592558e+06  -1.493524e+06
   1.773952e+06   1.954477e+04
   1.046165e+06   1.003630e+06
   3.797757e+05   9.660526e+05
   2.887293e+05   4.287649e+05
   3.887828e+05   2.358036e+05
   4.641720e+04   6.001573e+05
  -7.833527e+05   8.981996e+05
  -1.439073e+06   4.168703e+05
  -1.165305e+06  -7.408430e+05
   1.463762e+05  -1.582502e+06
   1.688764e+06  -1.150604e+06
   2.239792e+06   4.482587e+05
   1.180943e+06   2.000501e+06
  -8.334541e+05   2.259131e+06
  -2.338388e+06   1.088110e+06
  -2.343326e+06  -4.778937e+05
  -1.158962e+06  -1.286997e+06
   6.782588e+04  -1.119139e+06
   5.244254e+05  -6.881239e+05
   3.555215e+05  -7.102838e+05
   2.519683e+05  -1.097590e+06
   6.182596e+05  -1.110135e+06
   1.168408e+06  -2.499920e+05
   1.240676e+06   1.078317e+06
   4.944476e+05   1.850431e+06
  -6.431122e+05   1.384106e+06
  -1.260560e+06   1.920141e+04
  -8.178136e+05  -1.168154e+06
   2.618888e+05  -1.328932e+06
   9.725636e+05  -5.314859e+05
   7.519794e+05   4.440998e+05
   3.140434e+04   9.003367e+05
  -3.171872e+05   7.738764e+05
   6.660905e+02   4.839719e+05
   3.772853e+05   3.773221e+05
   2.821084e+04   3.914715e+05
  -1.039595e+06   2.157864e+05
  -1.888019e+06  -3.037024e+05
  -1.548739e+06  -9.484499e+05
  -7.313141e+04  -1.285885e+06
   1.399182e+06  -1.037484e+06
   1.717287e+06  -3.410472e+05
   8.442281e+05   3.139210e+05
  -1.926187e+05   4.651410e+05
  -4.473215e+05   9.598176e+04
   3.090658e+04  -3.063392e+05
   4.885294e+05  -2.148757e+05
   4.411106e+05   3.418526e+05
   1.094654e+05   7.433586e+05
  -3.236525e+04   4.770807e+05
   1.465981e+05  -1.777316e+05
   3.691913e+05  -3.904333e+05
   2.876985e+05   2.138462e+05
  -2.116438e+05   9.988156e+05
  -8.799494e+05   9.966060e+05
  -1.176057e+06   6.349394e+04
  -6.651757e+05  -9.067218e+05
   4.216227e+05  -9.804551e+05
   1.142012e+06  -1.854602e+05
   6.846594e+05   6.076189e+05
  -6.569671e+05   6.446897e+05
  -1.595790e+06  -4.178236e+04
  -1.133237e+06  -8.145061e+05
   3.575052e+05  -1.057189e+06
   1.494035e+06  -6.248450e+05
   1.309578e+06   1.058397e+05
   1.899158e+05   5.307866e+05
  -6.196753e+05   3.136321e+05
  -3.290415e+05  -2.532308e+05
   6.370416e+05  -4.410818e+05
   1.141602e+06   1.898337e+05
   5.243901e+05   1.212466e+06
  -7.367766e+05   1.607172e+06
  -1.529761e+06   7.571401e+05
  -1.210305e+06  -8.107731e+05
  -1.499993e+05  -1.789493e+06
   7.506382e+05  -1.323057e+06
   9.275162e+05   1.126159e+05
   4.837644e+05   1.166920e+06
  -1.298216e+05   1.005129e+06
  -5.230784e+05   1.160223e+05
  -5.263418e+05  -3.950284e+05
  -2.405808e+05  -1.626796e+05
  -1.766751e+04   1.178333e+05
  -1.524356e+05  -2.413919e+05
  -4.407618e+05  -9.361445e+05
  -2.682947e+05  -1.081334e+06
   5.972929e+05  -3.926734e+05
   1.460766e+06   4.859482e+05
   1.338532e+06   8.441103e+05
   1.809888e+05   6.710922e+05
  -9.277382e+05   3.897208e+05
  -1.001664e+06   1.930579e+05
  -2.859259e+05  -1.230858e+04
   1.787997e+05  -2.114599e+05
  -5.542894e+04  -2.462094e+05
  -3.590116e+05  -1.500716e+05
  -8.260166e+03  -1.388929e+05
   7.624337e+05  -1.812585e+05
   1.015825e+06   6.656738e+04
   2.633438e+05   6.769106e+05
  -9.500212e+05   1.078212e+06
  -1.622905e+06   6.260691e+05
  -1.254657e+06  -5.175118e+05
  -1.956572e+05  -1.405035e+06
   7.633159e+05  -1.297223e+06
   1.043487e+06  -4.350951e+05
   6.522068e+05   2.984762e+05
   8.043891e+04   3.545047e+05
  -1.546988e+05   8.892026e+03
   4.780279e+04  -7.814464e+04
   3.288567e+05   3.389005e+05
   2.594225e+05   7.981038e+05
  -2.136699e+05   6.418460e+05
  -6.849155e+05  -1.995443e+05
  -6.454196e+05  -1.016382e+06
   1.613297e+04  -1.007526e+06
   8.023304e+05  -1.367607e+05
   9.679135e+05   8.172682e+05
   2.525120e+05   1.075158e+06
  -7.346932e+05   5.791192e+05
  -1.051767e+06  -1.316433e+05
  -4.519366e+05  -5.566897e+05
   2.966915e+05  -5.765349e+05
   3.106678e+05  -3.291372e+05
  -3.223585e+05  -4.455495e+04
  -6.594153e+05   7.758232e+03
  -1.071565e+05  -2.916107e+05
   8.284693e+05  -6.535098e+05
   1.180886e+06  -5.521117e+05
   6.619021e+05   1.354083e+05
  -1.271699e+05   8.184309e+05
  -4.976740e+05   7.895540e+05
  -3.449835e+05   8.730648e+04
   1.974282e+03  -5.050931e+05
   2.632931e+05  -3.777662e+05
   3.474406e+05   2.243366e+05
   2.212374e+05   5.766303e+05
  -8.502105e+04   3.537907e+05
  -3.799196e+05  -8.621722e+04
  -4.321067e+05  -2.408397e+05
  -2.329592e+05  -5.777787e+04
  -7.813461e+03   9.413835e+04
   7.542965e+04  -6.907079e+04
   9.499057e+04  -3.949955e+05
   2.058988e+05  -4.648368e+05
   3.673478e+05  -7.794889e+04
   3.471622e+05   4.719341e+05
   1.003601e+04   6.546408e+05
  -4.465934e+05   2.623556e+05
  -5.975215e+05  -3.423344e+05
  -1.962446e+05  -5.994855e+05
   4.880910e+05  -3.318990e+05
   8.225246e+05   1.339050e+05
   4.373419e+05   3.874312e+05
  -3.019865e+05   3.309523e+05
  -6.167713e+05   1.389964e+05
  -1.917191e+05  -2.607757e+03
   4.199492e+05  -2.384435e+03
   4.302248e+05   1.522084e+05
  -2.351180e+05   3.288913e+05
  -8.402991e+05   2.434621e+05
