
 $NMID
 id='ANONYMOUS ', fmtdat='(2E16.6)'
 volume=1.0
 tramp=1.0
 $END
   4.092201e+07  -1.659444e+06
   2.677560e+07   2.235658e+07
  -2.400129e+06   2.750143e+07
  -1.903555e+07   1.379620e+07
  -1.341739e+07  -2.373323e+06
   9.895778e+05  -7.222483e+06
   7.740769e+06  -9.783590e+05
   3.821247e+06   6.973261e+06
  -3.465890e+06   8.640358e+06
  -7.313689e+06   2.982050e+06
  -5.815136e+06  -4.641470e+06
  -8.724815e+05  -7.087611e+06
   3.207321e+06  -2.031589e+06
   2.445331e+06   5.026854e+06
  -2.530206e+06   6.164164e+06
  -6.231117e+06  -1.605210e+05
  -4.172907e+06  -7.584975e+06
   2.155167e+06  -9.302931e+06
   7.386430e+06  -4.773026e+06
   7.949851e+06   1.501797e+06
   4.531115e+06   5.332515e+06
   4.229794e+05   5.633516e+06
  -1.221251e+06   3.872533e+06
   1.949657e+05   2.537184e+06
   1.750668e+06   3.118266e+06
  -2.480239e+05   4.372456e+06
  -5.351507e+06   3.494168e+06
  -8.392672e+06  -1.358731e+05
  -5.539123e+06  -3.608004e+06
   5.424864e+05  -3.910742e+06
   3.771665e+06  -1.451458e+06
   1.898046e+06   9.828355e+05
  -1.761293e+06   1.501529e+06
  -3.256687e+06   8.060208e+04
  -2.019189e+06  -2.315772e+06
   1.835742e+05  -3.909588e+06
   1.745916e+06  -2.755858e+06
   1.849967e+06   6.693377e+05
   5.905163e+05   2.646113e+06
  -5.128681e+05   5.360055e+05
   2.763011e+05  -2.842148e+06
   2.230847e+06  -2.303921e+06
   2.278828e+06   2.213314e+06
  -9.174010e+05   4.767095e+06
  -4.362466e+06   1.314651e+06
  -3.887679e+06  -4.569611e+06
   7.571336e+05  -6.216709e+06
   5.446815e+06  -2.068307e+06
   6.050435e+06   3.272452e+06
   2.223121e+06   5.049319e+06
  -2.761743e+06   2.808858e+06
  -4.925521e+06  -7.165962e+05
  -2.731443e+06  -2.729680e+06
   1.528279e+06  -2.075671e+06
   3.664960e+06   2.872925e+05
   1.872826e+06   1.915863e+06
  -1.208671e+06   1.180278e+06
  -1.724326e+06  -7.417495e+05
   5.604868e+05  -1.215640e+06
   2.158591e+06   4.419997e+05
   5.579947e+05   2.162305e+06
  -2.673370e+06   1.888518e+06
  -4.070947e+06  -2.296179e+05
  -2.192290e+06  -2.712202e+06
   1.492762e+06  -4.298428e+06
   4.530110e+06  -4.001143e+06
   5.267827e+06  -1.245845e+06
   3.525718e+06   2.796246e+06
   6.837554e+05   5.224291e+06
  -1.189816e+06   4.309268e+06
  -1.218308e+06   1.728125e+06
  -5.899810e+05   4.686832e+05
  -9.350739e+05   9.978309e+05
  -2.169639e+06   1.109644e+06
  -2.711443e+06  -5.334729e+05
  -1.587095e+06  -2.418454e+06
   4.796767e+05  -2.293396e+06
   1.956686e+06  -4.053523e+04
   1.763835e+06   2.337809e+06
  -1.537807e+05   2.891771e+06
  -2.636441e+06   1.269736e+06
  -3.761285e+06  -1.334352e+06
  -2.466932e+06  -3.169428e+06
   8.222489e+04  -3.224647e+06
   1.627727e+06  -2.043624e+06
   1.544760e+06  -1.058273e+06
   1.468577e+06  -8.955260e+05
   2.721151e+06  -7.191290e+05
   4.127632e+06   4.997871e+05
   3.400901e+06   2.516022e+06
   2.143742e+05   3.989293e+06
  -3.141054e+06   3.793687e+06
  -4.157635e+06   1.885886e+06
  -2.492558e+06  -6.723741e+05
   4.096280e+04  -2.236172e+06
   1.285999e+06  -1.728128e+06
   5.099898e+05   1.314403e+05
  -1.131865e+06   1.224108e+06
  -1.773468e+06   3.773924e+05
  -7.686833e+05  -1.098457e+06
   5.942085e+05  -1.097172e+06
   6.137518e+05   3.530880e+05
  -7.602781e+05   1.011785e+06
  -1.873047e+06  -5.536013e+05
  -1.294540e+06  -2.974533e+06
   7.444468e+05  -3.704219e+06
   2.828985e+06  -1.903300e+06
   3.646479e+06   9.483945e+05
   2.716353e+06   2.812905e+06
   5.893673e+05   2.799372e+06
  -1.299175e+06   1.468405e+06
  -1.605853e+06   1.624809e+05
  -4.870104e+05  -4.308883e+04
   3.687434e+05   7.270984e+05
  -3.098679e+05   1.250023e+06
  -1.719136e+06   5.944013e+05
  -1.952123e+06  -7.076929e+05
  -4.783404e+05  -1.289586e+06
   1.107093e+06  -6.243146e+05
   9.904285e+05   4.263315e+05
  -7.615370e+05   7.070448e+05
  -2.319721e+06  -8.012387e+04
  -2.010985e+06  -1.335727e+06
   9.762729e+04  -2.144235e+06
   2.298869e+06  -1.800576e+06
   2.766438e+06  -3.417992e+05
   1.205772e+06   1.166159e+06
  -8.272900e+05   1.386949e+06
  -1.405358e+06   1.905158e+05
  -1.509687e+05  -9.853059e+05
   1.453590e+06  -7.200958e+05
   1.718101e+06   6.889108e+05
   4.686497e+05   1.620994e+06
  -9.787745e+05   1.102983e+06
  -1.292234e+06  -1.510753e+05
  -3.654555e+05  -7.286006e+05
   7.114794e+05  -9.419560e+04
   7.051445e+05   1.001238e+06
  -5.793189e+05   1.377916e+06
  -1.974205e+06   5.083558e+05
  -1.987450e+06  -1.032807e+06
  -3.987884e+05  -2.018981e+06
   1.357312e+06  -1.636040e+06
   1.686995e+06  -2.737208e+05
   5.586225e+05   8.307683e+05
  -6.147119e+05   8.355558e+05
  -6.901112e+05   7.350841e+04
   6.474065e+04  -4.773367e+05
   5.852113e+05  -3.241575e+05
   3.089661e+05   1.114977e+05
  -3.585298e+05   1.015472e+05
  -5.856031e+05  -5.289121e+05
   9.460327e+04  -1.156766e+06
   1.320295e+06  -9.253772e+05
   2.056574e+06   3.691615e+05
   1.457071e+06   1.894466e+06
  -1.966346e+05   2.420606e+06
  -1.608865e+06   1.500514e+06
  -1.770699e+06  -4.860854e+04
  -9.858742e+05  -9.773739e+05
  -3.435811e+05  -8.533129e+05
  -3.542043e+05  -3.307007e+05
  -4.967314e+05  -2.450498e+05
  -8.342553e+04  -6.683386e+05
   8.205746e+05  -9.243818e+05
   1.460831e+06  -3.986763e+05
   1.135616e+06   7.394041e+05
  -1.837569e+05   1.559548e+06
  -1.713299e+06   1.152380e+06
  -2.274985e+06  -4.401720e+05
  -1.207934e+06  -2.051363e+06
   8.757928e+05  -2.351941e+06
   2.437721e+06  -1.124231e+06
   2.394744e+06   5.262060e+05
   1.111364e+06   1.325342e+06
  -1.249692e+05   1.074542e+06
  -4.825872e+05   6.189862e+05
  -2.353599e+05   7.164454e+05
  -1.633641e+05   1.185330e+06
  -6.171620e+05   1.207253e+06
  -1.223066e+06   3.061407e+05
  -1.307713e+06  -1.066981e+06
  -5.528732e+05  -1.877172e+06
   6.190185e+05  -1.427748e+06
   1.286059e+06  -2.970377e+04
   8.492949e+05   1.217221e+06
  -2.940176e+05   1.384994e+06
  -1.063599e+06   5.151031e+05
  -8.106416e+05  -5.365067e+05
   4.533506e+03  -9.932351e+05
   3.981175e+05  -8.079276e+05
   3.311885e+04  -4.696414e+05
  -4.047394e+05  -3.562500e+05
  -4.446390e+04  -3.896918e+05
   1.093085e+06  -2.368835e+05
   1.984918e+06   2.813511e+05
   1.612390e+06   9.691524e+05
   5.842327e+04   1.367746e+06
  -1.469074e+06   1.124093e+06
  -1.783777e+06   3.511849e+05
  -8.687419e+05  -3.799127e+05
   2.081103e+05  -5.202839e+05
   4.823277e+05  -8.246564e+04
   5.996016e+03   3.520708e+05
  -4.705651e+05   2.372932e+05
  -4.672247e+05  -3.376110e+05
  -1.766324e+05  -7.306808e+05
  -2.591920e+04  -4.732663e+05
  -1.495943e+05   1.462709e+05
  -3.391585e+05   3.508377e+05
  -2.879744e+05  -2.214172e+05
   1.750712e+05  -1.000262e+06
   8.784324e+05  -1.047099e+06
   1.253467e+06  -1.399742e+05
   7.607947e+05   8.952580e+05
  -3.975585e+05   1.060920e+06
  -1.187050e+06   2.742226e+05
  -7.174261e+05  -5.874153e+05
   6.749698e+05  -6.655630e+05
   1.615955e+06   4.589710e+04
   1.106834e+06   8.410329e+05
  -4.074937e+05   1.055693e+06
  -1.517398e+06   5.893855e+05
  -1.300381e+06  -1.329113e+05
  -1.739310e+05  -5.320260e+05
   6.385520e+05  -3.091366e+05
   3.627082e+05   2.636100e+05
  -6.086320e+05   4.840236e+05
  -1.164506e+06  -1.263634e+05
  -6.065674e+05  -1.192363e+06
   6.517856e+05  -1.663322e+06
   1.505918e+06  -8.377894e+05
   1.250197e+06   7.767959e+05
   1.985012e+05   1.804319e+06
  -7.398587e+05   1.334554e+06
  -9.438742e+05  -1.298153e+05
  -4.835263e+05  -1.188873e+06
   1.603236e+05  -1.009590e+06
   5.466860e+05  -1.133794e+05
   5.090245e+05   3.897844e+05
   2.092356e+05   1.565486e+05
   3.195826e+04  -1.124521e+05
   2.183414e+05   2.544602e+05
   4.914867e+05   9.478658e+05
   2.513353e+05   1.095502e+06
  -6.506096e+05   4.164538e+05
  -1.488126e+06  -4.613994e+05
  -1.337822e+06  -8.378509e+05
  -1.957699e+05  -6.881211e+05
   8.968550e+05  -4.130099e+05
   1.003226e+06  -2.019447e+05
   3.267436e+05   2.057307e+04
  -1.615422e+05   2.200332e+05
   1.383918e+04   2.379430e+05
   3.163958e+05   1.296786e+05
   2.898810e+04   1.332819e+05
  -7.166088e+05   2.096409e+05
  -1.036768e+06  -2.458601e+04
  -3.556084e+05  -6.720609e+05
   8.855535e+05  -1.139823e+06
   1.655521e+06  -7.236647e+05
   1.340801e+06   4.508135e+05
   2.548806e+05   1.410697e+06
  -7.477805e+05   1.358824e+06
  -1.041514e+06   5.033874e+05
  -6.583852e+05  -2.606815e+05
  -1.118466e+05  -3.535885e+05
   1.108065e+05  -3.045212e+04
  -6.871289e+04   5.357613e+04
  -3.262194e+05  -3.540684e+05
  -2.687862e+05  -8.085534e+05
   1.862792e+05  -6.663173e+05
   6.856188e+05   1.538666e+05
   7.062617e+05   9.771399e+05
   6.483494e+04   1.017479e+06
  -7.742161e+05   1.994942e+05
  -1.013587e+06  -7.580134e+05
  -3.190912e+05  -1.080529e+06
   7.139005e+05  -6.418368e+05
   1.091574e+06   8.337871e+04
   5.087539e+05   5.751730e+05
  -2.767070e+05   6.352032e+05
  -3.384829e+05   3.625282e+05
   2.864961e+05   3.033295e+04
   6.581814e+05  -3.182551e+04
   1.333647e+05   2.974039e+05
  -8.236677e+05   6.845645e+05
  -1.224835e+06   5.767142e+05
  -7.242798e+05  -1.382422e+05
   9.634534e+04  -8.510013e+05
   5.118136e+05  -8.431207e+05
   3.799719e+05  -1.378088e+05
   3.047736e+04   4.921395e+05
  -2.429588e+05   4.117054e+05
  -3.491482e+05  -1.827526e+05
  -2.484495e+05  -5.763946e+05
   5.739049e+04  -3.921193e+05
   3.865853e+05   5.952887e+04
   4.657579e+05   2.524401e+05
   2.447647e+05   7.334280e+04
  -2.004906e+04  -1.189638e+05
  -8.980478e+04   1.547317e+04
  -4.054228e+04   3.691977e+05
  -1.144942e+05   5.001485e+05
  -3.319122e+05   1.500774e+05
  -4.045276e+05  -4.140447e+05
  -9.309356e+04  -6.432221e+05
   4.226926e+05  -2.942282e+05
   6.361758e+05   2.984426e+05
   2.337450e+05   5.836475e+05
  -4.944372e+05   3.614445e+05
  -8.573799e+05  -8.724261e+04
  -4.678146e+05  -3.755478e+05
   2.888737e+05  -3.732917e+05
   6.233993e+05  -1.973608e+05
   2.216523e+05  -1.673563e+04
  -3.799489e+05   3.530133e+04
  -4.166640e+05  -1.041646e+05
   2.018677e+05  -3.099764e+05
   7.926638e+05  -2.635269e+05
