
 $NMID
 id='ANONYMOUS ', fmtdat='(2E16.6)'
 volume=1.0
 tramp=1.0
 $END
  -1.724151e+07  -9.589426e+05
  -1.135435e+07  -7.824635e+06
  -1.197518e+05  -1.056976e+07
   7.380807e+06  -7.748469e+06
   6.595690e+06  -1.437363e+06
   7.249518e+05   3.132904e+06
  -3.664522e+06   2.059626e+06
  -3.108193e+06  -2.751872e+06
   6.018238e+05  -5.335628e+06
   3.384915e+06  -2.507617e+06
   2.941711e+06   2.475521e+06
   2.537131e+05   3.997042e+06
  -1.876194e+06   6.556580e+05
  -1.431437e+06  -3.543592e+06
   1.083871e+06  -4.045524e+06
   3.076940e+06  -4.716648e+05
   2.297643e+06   3.591659e+06
  -8.300906e+05   4.536134e+06
  -3.490074e+06   2.003211e+06
  -3.370837e+06  -1.305372e+06
  -1.102093e+06  -2.590428e+06
   5.576378e+05  -1.657407e+06
  -1.158660e+05  -6.888271e+05
  -1.887775e+06  -1.447279e+06
  -1.988412e+06  -3.165610e+06
   7.272015e+05  -3.578141e+06
   4.275971e+06  -1.686746e+06
   5.335862e+06   1.130907e+06
   2.644536e+06   2.684215e+06
  -1.446315e+06   2.028103e+06
  -3.131323e+06  -3.469645e+04
  -1.046398e+06  -1.793038e+06
   2.312636e+06  -1.765413e+06
   3.394941e+06   2.310545e+05
   1.458964e+06   2.591164e+06
  -1.002849e+06   3.051711e+06
  -1.501311e+06   1.058623e+06
  -2.353622e+05  -1.266749e+06
   7.879436e+05  -1.319746e+06
   4.026442e+05   8.760482e+05
  -7.737816e+05   2.585589e+06
  -1.549938e+06   1.650953e+06
  -1.340258e+06  -8.969755e+05
  -2.564602e+05  -2.130281e+06
   1.027232e+06  -7.020527e+05
   1.339513e+06   1.720919e+06
  -1.302706e+05   2.484289e+06
  -2.515923e+06   7.801260e+05
  -3.510096e+06  -1.773883e+06
  -1.710615e+06  -2.960594e+06
   1.522146e+06  -2.001357e+06
   3.267258e+06   2.922986e+04
   2.118582e+06   1.399972e+06
  -4.554923e+05   1.234873e+06
  -1.881266e+06   7.994854e+04
  -1.135943e+06  -7.892360e+05
   5.374658e+05  -5.837627e+05
   1.205262e+06   3.598561e+05
   2.475921e+05   1.015804e+06
  -1.109176e+06   6.875951e+05
  -1.151536e+06  -3.330620e+05
   3.783697e+05  -1.011944e+06
   1.806042e+06  -4.990715e+05
   1.267323e+06   1.022222e+06
  -1.118442e+06   2.321732e+06
  -3.239749e+06   2.102884e+06
  -3.285865e+06   2.196186e+05
  -1.608138e+06  -2.059730e+06
   5.766227e+03  -3.167236e+06
   4.916691e+05  -2.694079e+06
   3.826421e+05  -1.624216e+06
   6.927843e+05  -1.056386e+06
   1.577548e+06  -9.214828e+05
   2.293438e+06  -2.763434e+05
   2.074606e+06   1.184657e+06
   8.094180e+05   2.372228e+06
  -8.576953e+05   1.914478e+06
  -1.849887e+06  -1.200359e+05
  -1.363133e+06  -2.028614e+06
   3.518419e+05  -2.150255e+06
   1.967606e+06  -5.128234e+05
   2.191826e+06   1.353026e+06
   1.012777e+06   2.056196e+06
  -3.495934e+05   1.551718e+06
  -8.172564e+05   8.022643e+05
  -5.970495e+05   5.812797e+05
  -7.746541e+05   7.665601e+05
  -1.837837e+06   6.429366e+05
  -2.859107e+06  -2.924337e+05
  -2.374474e+06  -1.774651e+06
  -1.015136e+05  -2.867722e+06
   2.425396e+06  -2.660553e+06
   3.195405e+06  -1.089010e+06
   1.739617e+06   8.285371e+05
  -3.809222e+05   1.727562e+06
  -1.208485e+06   1.095757e+06
  -3.350764e+05  -2.148395e+05
   9.431476e+05  -8.084805e+05
   1.218354e+06  -1.773370e+05
   3.784003e+05   7.744738e+05
  -5.518730e+05   7.849915e+05
  -6.007989e+05  -2.316713e+05
   2.845427e+05  -9.621196e+05
   1.287022e+06  -1.790659e+05
   1.382408e+06   1.702977e+06
   1.455036e+05   2.871801e+06
  -1.760701e+06   2.004960e+06
  -2.925725e+06  -2.996513e+05
  -2.364719e+06  -2.145935e+06
  -5.219208e+05  -2.259194e+06
   1.060257e+06  -1.080087e+06
   1.236593e+06  -2.463521e+04
   3.541076e+05   4.162315e+04
  -2.568537e+05  -5.325153e+05
   1.953514e+05  -8.237634e+05
   1.129096e+06  -3.698953e+05
   1.324177e+06   4.413827e+05
   3.693802e+05   8.429981e+05
  -7.855120e+05   4.607889e+05
  -8.139106e+05  -3.161379e+05
   4.866283e+05  -6.728111e+05
   1.829129e+06  -1.224575e+05
   1.713562e+06   9.914862e+05
   3.700728e+04   1.736950e+06
  -1.733617e+06   1.416660e+06
  -2.053200e+06   2.409397e+05
  -8.335631e+05  -8.110336e+05
   5.935187e+05  -8.827385e+05
   9.053955e+05  -7.064586e+04
   1.345859e+04   6.595510e+05
  -1.052498e+06   4.642770e+05
  -1.242236e+06  -4.791056e+05
  -4.154438e+05  -1.166784e+06
   6.347722e+05  -8.853950e+05
   9.585809e+05  -2.370712e+02
   3.433561e+05   4.850005e+05
  -4.589763e+05   6.580287e+04
  -4.638543e+05  -7.359037e+05
   4.876419e+05  -9.797528e+05
   1.470508e+06  -2.890726e+05
   1.409517e+06   8.202226e+05
   2.446722e+05   1.462364e+06
  -9.797522e+05   1.158377e+06
  -1.209753e+06   2.081709e+05
  -4.299743e+05  -5.861907e+05
   4.398250e+05  -6.209133e+05
   5.679489e+05  -3.345928e+04
   7.124069e+02   4.618259e+05
  -5.238930e+05   3.518384e+05
  -4.163314e+05  -1.091325e+05
   1.581645e+05  -2.276192e+05
   4.707685e+05   2.606906e+05
   5.223098e+03   8.181114e+05
  -9.471361e+05   6.799515e+05
  -1.498377e+06  -2.904444e+05
  -1.024120e+06  -1.409044e+06
   1.912500e+05  -1.796281e+06
   1.217289e+06  -1.156425e+06
   1.379813e+06  -5.439467e+03
   8.425522e+05   8.029032e+05
   2.939045e+05   8.237771e+05
   1.625784e+05   3.778658e+05
   2.365180e+05   1.526961e+05
   2.953148e+04   4.139376e+05
  -5.749032e+05   6.887426e+05
  -1.103275e+06   3.422607e+05
  -9.221473e+05  -5.777913e+05
   9.136461e+04  -1.247361e+06
   1.288938e+06  -8.979636e+05
   1.710090e+06   3.403337e+05
   9.107080e+05   1.508392e+06
  -5.952600e+05   1.700158e+06
  -1.737471e+06   8.438454e+05
  -1.791158e+06  -3.250488e+05
  -9.358161e+05  -9.798425e+05
   2.485256e+04  -9.055736e+05
   4.453301e+05  -5.670888e+05
   3.471930e+05  -5.202267e+05
   2.293387e+05  -7.754573e+05
   4.561736e+05  -7.986986e+05
   8.571628e+05  -1.719026e+05
   9.170109e+05   8.247450e+05
   3.544966e+05   1.401195e+06
  -5.010417e+05   1.038959e+06
  -9.568221e+05   1.535950e+04
  -6.251734e+05  -8.652149e+05
   1.686515e+05  -1.000277e+06
   6.985602e+05  -4.421372e+05
   5.659112e+05   2.725070e+05
   6.791040e+04   6.465473e+05
  -1.869086e+05   5.953776e+05
   1.895806e+04   3.902202e+05
   2.711486e+05   2.979964e+05
   1.244272e+04   3.003014e+05
  -7.660229e+05   1.674266e+05
  -1.396277e+06  -2.245197e+05
  -1.164472e+06  -7.047300e+05
  -8.494138e+04  -9.472399e+05
   1.018893e+06  -7.660145e+05
   1.284135e+06  -2.741237e+05
   6.522523e+05   1.956565e+05
  -1.267028e+05   3.293694e+05
  -3.271002e+05   9.096554e+04
   3.581946e+04  -2.005909e+05
   3.830900e+05  -1.493572e+05
   3.245502e+05   2.602276e+05
   4.194871e+04   5.676521e+05
  -6.099112e+04   3.585699e+05
   1.179048e+05  -1.579888e+05
   3.122930e+05  -3.207649e+05
   2.251289e+05   1.602339e+05
  -1.837990e+05   7.645208e+05
  -6.692441e+05   7.412945e+05
  -8.457886e+05   2.080846e+04
  -4.547478e+05  -6.866594e+05
   3.219300e+05  -7.043170e+05
   8.358877e+05  -1.005025e+05
   5.058687e+05   4.739495e+05
  -4.911959e+05   4.905817e+05
  -1.222330e+06  -2.268608e+04
  -8.996908e+05  -6.172238e+05
   2.440580e+05  -8.298201e+05
   1.147517e+06  -5.125341e+05
   1.024425e+06   6.510981e+04
   1.577591e+05   4.128543e+05
  -4.681732e+05   2.501449e+05
  -2.363010e+05  -1.819190e+05
   5.003565e+05  -3.095477e+05
   8.553628e+05   1.792881e+05
   3.524206e+05   9.313981e+05
  -6.073046e+05   1.190849e+06
  -1.178695e+06   5.330339e+05
  -9.050938e+05  -6.371140e+05
  -9.223859e+04  -1.363659e+06
   5.824172e+05  -1.014779e+06
   7.111025e+05   7.151708e+04
   3.807913e+05   8.882637e+05
  -7.934429e+04   7.814569e+05
  -3.906318e+05   9.725435e+04
  -4.171618e+05  -3.117973e+05
  -2.041240e+05  -1.361613e+05
  -5.871508e+03   9.742354e+04
  -8.062802e+04  -1.642070e+05
  -3.135029e+05  -7.050357e+05
  -2.223650e+05  -8.306235e+05
   4.234131e+05  -3.013989e+05
   1.108003e+06   3.826730e+05
   1.035301e+06   6.546059e+05
   1.357088e+05   5.049866e+05
  -7.305371e+05   2.818171e+05
  -7.713320e+05   1.457131e+05
  -1.978972e+05   4.894827e+03
   1.466225e+05  -1.546280e+05
  -6.705547e+04  -2.042718e+05
  -2.997016e+05  -1.373493e+05
   7.275361e+03  -1.065540e+05
   6.113084e+05  -1.140454e+05
   7.637177e+05   7.123238e+04
   1.470106e+05   5.060159e+05
  -7.591438e+05   7.832839e+05
  -1.212719e+06   4.337255e+05
  -9.036133e+05  -4.203908e+05
  -1.183888e+05  -1.069767e+06
   5.844136e+05  -9.631990e+05
   7.927434e+05  -2.958203e+05
   4.929359e+05   2.517364e+05
   4.328649e+04   2.679264e+05
  -1.419091e+05  -1.558259e+04
   2.937170e+04  -8.012815e+04
   2.597444e+05   2.529105e+05
   1.982101e+05   6.084440e+05
  -1.759463e+05   4.756588e+05
  -5.196158e+05  -1.813032e+05
  -4.546262e+05  -7.958954e+05
   5.855380e+04  -7.553248e+05
   6.237415e+05  -6.230479e+04
   7.086932e+05   6.568564e+05
   1.572350e+05   8.131668e+05
  -5.663091e+05   4.059759e+05
  -7.786455e+05  -1.211292e+05
  -3.195557e+05  -4.062191e+05
   2.281311e+05  -4.060890e+05
   2.156176e+05  -2.405435e+05
  -2.681004e+05  -5.035401e+04
  -5.054246e+05  -7.944277e+03
  -6.854908e+04  -2.160562e+05
   6.357994e+05  -4.864333e+05
   8.799759e+05  -4.230767e+05
   4.743527e+05   8.842333e+04
  -1.089406e+05   6.062987e+05
  -3.633145e+05   5.814725e+05
  -2.342085e+05   4.473766e+04
   2.342446e+04  -3.914005e+05
   2.080636e+05  -2.673218e+05
   2.589036e+05   1.979893e+05
   1.552203e+05   4.397534e+05
  -7.380127e+04   2.442060e+05
  -2.839821e+05  -8.101994e+04
  -3.163340e+05  -1.711744e+05
  -1.763435e+05  -3.220100e+04
  -1.759082e+04   5.157781e+04
   6.105006e+04  -8.945992e+04
   1.118294e+05  -3.095184e+05
   2.068209e+05  -3.182081e+05
   2.899146e+05  -8.931063e+03
   2.213959e+05   3.873509e+05
  -4.459435e+04   4.950890e+05
  -3.526181e+05   1.788344e+05
  -4.293447e+05  -2.822660e+05
  -1.262622e+05  -4.648164e+05
   3.666082e+05  -2.406754e+05
   6.047243e+05   1.233274e+05
   3.174722e+05   2.995888e+05
  -2.318601e+05   2.275223e+05
  -4.599019e+05   7.402584e+04
  -1.256312e+05  -7.049626e+03
   3.420556e+05   2.648041e+04
   3.306713e+05   1.494684e+05
  -2.058336e+05   2.589601e+05
  -6.741593e+05   1.667917e+05
