
 $NMID
 id='ANONYMOUS ', fmtdat='(2E16.6)'
 volume=1.0
 tramp=1.0
 $END
   2.627371e+07  -4.727793e+04
   1.705167e+07   1.327161e+07
  -8.899649e+05   1.686010e+07
  -1.162000e+07   9.990597e+06
  -8.988571e+06   7.831336e+04
  -9.067751e+04  -4.597459e+06
   5.082135e+06  -1.694847e+06
   3.374246e+06   4.229868e+06
  -1.547111e+06   6.526920e+06
  -4.773309e+06   2.716994e+06
  -4.068570e+06  -3.256726e+06
  -5.637207e+05  -5.176723e+06
   2.397989e+06  -1.216453e+06
   1.927855e+06   4.075220e+06
  -1.515753e+06   4.850214e+06
  -4.224777e+06   2.711348e+05
  -3.035206e+06  -5.053319e+06
   1.282486e+06  -6.323251e+06
   4.957518e+06  -3.071292e+06
   5.143311e+06   1.380084e+06
   2.416389e+06   3.683015e+06
  -2.427851e+05   3.207767e+06
  -4.574766e+05   1.839346e+06
   1.279116e+06   1.722534e+06
   2.037944e+06   3.054216e+06
  -4.153991e+05   3.924636e+06
  -4.664434e+06   2.521723e+06
  -6.570707e+06  -6.178320e+05
  -3.827174e+06  -3.009229e+06
   1.075533e+06  -2.833780e+06
   3.424044e+06  -6.457960e+05
   1.473526e+06   1.469400e+06
  -2.021436e+06   1.786651e+06
  -3.365522e+06   3.754321e+04
  -1.789876e+06  -2.446605e+06
   5.938087e+05  -3.447832e+06
   1.604656e+06  -1.753875e+06
   9.176630e+05   1.086220e+06
  -2.536479e+05   1.898340e+06
  -5.260630e+05  -3.317178e+05
   4.826223e+05  -2.733021e+06
   1.755307e+06  -1.942932e+06
   1.693481e+06   1.364516e+06
  -1.712731e+05   3.076571e+06
  -2.268957e+06   8.759385e+05
  -2.286695e+06  -2.810978e+06
   3.701468e+05  -3.873599e+06
   3.623111e+06  -1.284615e+06
   4.498112e+06   2.261911e+06
   1.969154e+06   3.688579e+06
  -1.927615e+06   2.335889e+06
  -3.874457e+06  -1.960776e+05
  -2.371112e+06  -1.830735e+06
   8.327003e+05  -1.543165e+06
   2.541357e+06   3.003579e+04
   1.415627e+06   1.189786e+06
  -7.834881e+05   8.142048e+05
  -1.407010e+06  -4.679871e+05
   1.744145e+04  -1.058955e+06
   1.441818e+06  -2.805453e+05
   8.902487e+05   9.538816e+05
  -1.222884e+06   1.289020e+06
  -2.614326e+06   2.338196e+05
  -1.607598e+06  -1.631585e+06
   1.221342e+06  -3.101190e+06
   3.694895e+06  -2.915653e+06
   4.054535e+06  -6.851909e+05
   2.395489e+06   2.327998e+06
   3.261822e+05   3.964998e+06
  -6.892068e+05   3.303628e+06
  -6.322107e+05   1.654246e+06
  -5.919489e+05   8.667400e+05
  -1.298348e+06   1.037096e+06
  -2.260082e+06   6.935542e+05
  -2.386489e+06  -8.687534e+05
  -1.205292e+06  -2.380019e+06
   6.438914e+05  -2.108973e+06
   1.902734e+06  -1.899812e+04
   1.595259e+06   2.099523e+06
  -2.064940e+05   2.453249e+06
  -2.222142e+06   8.633359e+05
  -2.842888e+06  -1.300689e+06
  -1.614046e+06  -2.477788e+06
   2.349028e+05  -2.204797e+06
   1.126585e+06  -1.278380e+06
   9.430662e+05  -7.559628e+05
   1.006093e+06  -8.269604e+05
   2.144342e+06  -7.245773e+05
   3.342624e+06   2.853018e+05
   2.815194e+06   1.982752e+06
   2.343633e+05   3.289735e+06
  -2.614497e+06   3.170932e+06
  -3.536510e+06   1.498249e+06
  -2.065667e+06  -7.179691e+05
   1.934210e+05  -1.947501e+06
   1.211324e+06  -1.385481e+06
   4.146818e+05   1.741038e+05
  -9.918456e+05   1.001684e+06
  -1.427430e+06   2.899229e+05
  -5.503421e+05  -8.929073e+05
   5.438641e+05  -9.278415e+05
   6.140965e+05   2.503375e+05
  -4.215193e+05   9.802775e+05
  -1.477158e+06  -5.600857e+04
  -1.385556e+06  -2.118136e+06
   8.897847e+04  -3.153240e+06
   2.072548e+06  -2.012073e+06
   3.191343e+06   4.392430e+05
   2.571155e+06   2.306785e+06
   6.291308e+05   2.443142e+06
  -1.116159e+06   1.265017e+06
  -1.380017e+06   1.183800e+05
  -4.063003e+05  -3.131354e+04
   3.168892e+05   5.979884e+05
  -2.148117e+05   9.898346e+05
  -1.342303e+06   4.865855e+05
  -1.573405e+06  -5.026125e+05
  -4.353843e+05  -9.993048e+05
   8.911038e+05  -5.488324e+05
   8.922110e+05   3.259639e+05
  -5.600443e+05   6.985308e+05
  -2.001764e+06   1.118858e+05
  -1.858987e+06  -1.055054e+06
  -5.019420e+04  -1.885124e+06
   1.897014e+06  -1.620178e+06
   2.315660e+06  -3.464641e+05
   9.989997e+05   9.207392e+05
  -6.588656e+05   1.092265e+06
  -1.095290e+06   1.401788e+05
  -8.472278e+04  -7.864458e+05
   1.191406e+06  -5.950594e+05
   1.436975e+06   5.183629e+05
   4.734246e+05   1.322346e+06
  -7.324568e+05   9.861116e+05
  -1.080956e+06  -2.408509e+04
  -3.672302e+05  -5.627013e+05
   5.508789e+05  -9.009540e+04
   5.787002e+05   8.215692e+05
  -4.908989e+05   1.147357e+06
  -1.653713e+06   4.201497e+05
  -1.656330e+06  -8.566488e+05
  -3.494186e+05  -1.666482e+06
   1.086675e+06  -1.369971e+06
   1.383743e+06  -2.710000e+05
   4.977746e+05   6.643966e+05
  -4.849829e+05   7.169791e+05
  -6.148728e+05   7.054471e+04
   2.641627e+03  -4.657107e+05
   5.299584e+05  -3.633253e+05
   3.810745e+05   8.754095e+04
  -2.185916e+05   1.804847e+05
  -5.161382e+05  -3.442792e+05
   7.410099e+03  -9.414874e+05
   1.065351e+06  -8.014963e+05
   1.718457e+06   2.722276e+05
   1.233223e+06   1.560764e+06
  -1.348169e+05   2.040155e+06
  -1.325838e+06   1.327632e+06
  -1.526108e+06   3.295766e+04
  -9.268159e+05  -8.377414e+05
  -3.475412e+05  -8.254814e+05
  -2.517662e+05  -3.600304e+05
  -3.369585e+05  -1.851295e+05
  -5.888313e+04  -5.093194e+05
   6.450258e+05  -7.939497e+05
   1.224279e+06  -3.996387e+05
   1.021956e+06   6.055496e+05
  -8.186001e+04   1.365869e+06
  -1.417363e+06   1.036249e+06
  -1.934377e+06  -3.211770e+05
  -1.071847e+06  -1.682208e+06
   6.463772e+05  -1.962793e+06
   1.972903e+06  -1.003893e+06
   2.027156e+06   3.410041e+05
   1.035125e+06   1.074904e+06
  -2.777941e+04   9.681308e+05
  -4.368862e+05   6.056727e+05
  -2.897230e+05   6.128515e+05
  -1.843025e+05   9.415830e+05
  -4.949045e+05   9.671685e+05
  -9.915792e+05   2.481963e+05
  -1.092548e+06  -8.885005e+05
  -4.754243e+05  -1.571558e+06
   5.124930e+05  -1.203884e+06
   1.080861e+06  -5.256982e+04
   7.366183e+05   9.771851e+05
  -1.837517e+05   1.148657e+06
  -8.183514e+05   4.893894e+05
  -6.614348e+05  -3.538351e+05
  -5.862519e+04  -7.711742e+05
   2.460310e+05  -6.770322e+05
  -1.434638e+04  -4.182829e+05
  -3.321268e+05  -3.128490e+05
  -3.426369e+04  -3.344851e+05
   8.837065e+05  -2.163589e+05
   1.625135e+06   2.037877e+05
   1.355471e+06   7.673156e+05
   1.038795e+05   1.100402e+06
  -1.165505e+06   9.308670e+05
  -1.462790e+06   3.440113e+05
  -7.369287e+05  -2.424251e+05
   1.487956e+05  -4.037014e+05
   3.810341e+05  -9.734259e+04
  -1.694104e+04   2.600297e+05
  -4.131601e+05   1.959995e+05
  -3.870415e+05  -2.801988e+05
  -1.111700e+05  -6.320571e+05
   1.707955e+04  -4.074657e+05
  -1.226922e+05   1.579861e+05
  -3.096165e+05   3.453467e+05
  -2.533111e+05  -1.751862e+05
   1.554172e+05  -8.613662e+05
   7.251603e+05  -8.783803e+05
   1.000872e+06  -8.885593e+04
   5.921579e+05   7.551887e+05
  -3.311867e+05   8.493810e+05
  -9.689000e+05   1.901321e+05
  -6.024445e+05  -5.018972e+05
   5.446651e+05  -5.721687e+05
   1.371416e+06  -9.457312e+03
   9.984504e+05   6.689051e+05
  -2.761277e+05   9.209274e+05
  -1.267304e+06   5.807097e+05
  -1.129790e+06  -5.421070e+04
  -1.785027e+05  -4.516030e+05
   5.232186e+05  -2.879048e+05
   2.890829e+05   2.060165e+05
  -5.335200e+05   3.932706e+05
  -9.813267e+05  -1.324955e+05
  -4.797108e+05  -1.022963e+06
   5.884468e+05  -1.393842e+06
   1.289390e+06  -6.881605e+05
   1.058548e+06   6.620464e+05
   1.772625e+05   1.529672e+06
  -6.080110e+05   1.156192e+06
  -8.002470e+05  -6.946958e+04
  -4.491591e+05  -9.881862e+05
   8.221226e+04  -8.686754e+05
   4.453286e+05  -1.156984e+05
   4.634522e+05   3.259580e+05
   2.120677e+05   1.351650e+05
   1.172496e+04  -1.027866e+05
   1.358910e+05   1.987274e+05
   4.032967e+05   7.885801e+05
   2.618788e+05   9.220257e+05
  -4.988100e+05   3.561070e+05
  -1.265812e+06  -3.764281e+05
  -1.172836e+06  -6.884307e+05
  -1.744425e+05  -5.699254e+05
   7.860089e+05  -3.576593e+05
   8.545373e+05  -1.932750e+05
   2.448572e+05  -6.449438e+01
  -1.479567e+05   1.852640e+05
   5.547642e+04   2.127468e+05
   3.129789e+05   1.222350e+05
   9.857380e+03   1.180087e+05
  -6.499859e+05   1.729858e+05
  -8.711846e+05  -2.942930e+04
  -2.411095e+05  -5.689221e+05
   7.851520e+05  -9.463192e+05
   1.369815e+06  -5.808549e+05
   1.084814e+06   4.073634e+05
   2.049483e+05   1.197831e+06
  -6.167675e+05   1.132141e+06
  -8.803292e+05   3.998796e+05
  -5.660352e+05  -2.393946e+05
  -7.768697e+04  -3.004400e+05
   1.330298e+05  -8.490754e+03
  -3.954267e+04   7.063569e+04
  -2.928861e+05  -2.815792e+05
  -2.452450e+05  -6.774728e+05
   1.653696e+05  -5.547746e+05
   5.911918e+05   1.541438e+05
   5.779299e+05   8.531936e+05
   1.146500e+04   8.608160e+05
  -6.828563e+05   1.355782e+05
  -8.488045e+05  -6.749216e+05
  -2.443713e+05  -9.124755e+05
   6.122020e+05  -5.141247e+05
   9.027301e+05   8.349853e+04
   4.025397e+05   4.615938e+05
  -2.361648e+05   5.000081e+05
  -2.546794e+05   2.917458e+05
   2.786844e+05   3.209850e+04
   5.648407e+05  -2.388045e+04
   9.942519e+04   2.457527e+05
  -6.919840e+05   5.828167e+05
  -9.960326e+05   5.086016e+05
  -5.701106e+05  -9.422397e+04
   8.589386e+04  -7.035158e+05
   4.019812e+05  -6.907870e+05
   2.895748e+05  -8.464691e+04
   1.022133e+04   4.325232e+05
  -2.145066e+05   3.292550e+05
  -3.021169e+05  -1.846321e+05
  -2.049193e+05  -4.876273e+05
   6.205160e+04  -3.031438e+05
   3.269207e+05   6.420295e+04
   3.772571e+05   1.925091e+05
   2.021842e+05   4.190156e+04
   3.700514e+03  -7.846499e+04
  -6.552128e+04   6.435105e+04
  -7.432551e+04   3.397176e+05
  -1.654813e+05   3.982149e+05
  -3.105143e+05   7.220588e+04
  -3.056083e+05  -3.946667e+05
  -2.280876e+04  -5.575964e+05
   3.754219e+05  -2.350553e+05
   5.186421e+05   2.769649e+05
   1.827594e+05   5.079314e+05
  -4.081050e+05   2.978368e+05
  -7.061640e+05  -9.202261e+04
  -3.845290e+05  -3.193846e+05
   2.482731e+05  -2.902471e+05
   5.222967e+05  -1.345851e+05
   1.624677e+05  -4.061168e+03
  -3.603135e+05   1.002550e+04
  -3.714930e+05  -1.215422e+05
   1.953034e+05  -2.878172e+05
   7.158075e+05  -2.287737e+05
