
 $NMID
 id='ANONYMOUS ', fmtdat='(2E16.6)'
 volume=1.0
 tramp=1.0
 $END
   5.437389e+07   1.287659e+06
   3.215989e+07   3.418776e+07
  -7.749917e+06   3.663929e+07
  -2.697077e+07   1.389393e+07
  -1.602762e+07  -6.845800e+06
   3.244190e+06  -9.026521e+06
   9.608962e+06   1.184646e+06
   2.693635e+06   9.547114e+06
  -6.146706e+06   9.160440e+06
  -9.464897e+06   1.885654e+06
  -6.680110e+06  -6.217237e+06
  -5.635230e+05  -8.452590e+06
   3.968871e+06  -2.530183e+06
   2.426213e+06   5.502664e+06
  -3.834635e+06   6.434332e+06
  -7.665428e+06  -1.399124e+06
  -4.145518e+06  -1.002417e+07
   3.902559e+06  -1.140891e+07
   9.926819e+06  -5.496386e+06
   1.038127e+07   2.271666e+06
   6.147969e+06   7.367397e+06
   4.528776e+05   8.255490e+06
  -2.810465e+06   5.716701e+06
  -1.646917e+06   2.701830e+06
   1.092412e+06   2.386910e+06
   1.384230e+04   4.221543e+06
  -5.558331e+06   4.083312e+06
  -9.520349e+06   8.978744e+04
  -6.722536e+06  -4.278505e+06
   1.315312e+04  -4.893092e+06
   3.802171e+06  -2.272739e+06
   2.361906e+06   2.096328e+05
  -8.475752e+05   9.643250e+05
  -2.450083e+06   3.072771e+05
  -2.096626e+06  -1.653181e+06
  -4.187297e+05  -3.945444e+06
   1.904151e+06  -3.645225e+06
   3.012166e+06   2.566818e+05
   1.451454e+06   3.524717e+06
  -7.567444e+05   1.702305e+06
  -1.411379e+05  -2.524132e+06
   2.528866e+06  -2.238528e+06
   2.357248e+06   3.148411e+06
  -2.385393e+06   5.931292e+06
  -6.642026e+06   9.097883e+05
  -4.792900e+06  -6.750447e+06
   1.975515e+06  -8.199483e+06
   7.247254e+06  -2.177366e+06
   6.739656e+06   4.527460e+06
   1.729182e+06   6.010509e+06
  -3.499085e+06   2.644483e+06
  -5.224087e+06  -1.599478e+06
  -2.390731e+06  -3.501185e+06
   2.373577e+06  -2.137483e+06
   4.415882e+06   9.686611e+05
   1.881074e+06   2.684928e+06
  -1.695243e+06   1.304660e+06
  -1.724005e+06  -1.056631e+06
   1.258537e+06  -9.548308e+05
   2.433940e+06   1.638293e+06
  -5.097923e+05   3.287489e+06
  -4.422011e+06   1.820110e+06
  -5.141928e+06  -1.336173e+06
  -2.217258e+06  -3.888985e+06
   1.929980e+06  -5.098498e+06
   5.125611e+06  -4.578534e+06
   6.145243e+06  -1.483007e+06
   4.346513e+06   3.258665e+06
   7.139259e+05   6.099655e+06
  -1.933318e+06   4.696027e+06
  -1.759050e+06   1.271223e+06
  -2.557216e+05  -1.597675e+05
  -1.670851e+05   9.548496e+05
  -1.754073e+06   1.613545e+06
  -2.805914e+06   1.351252e+04
  -1.886404e+06  -2.091755e+06
   1.439863e+05  -2.175623e+06
   1.639633e+06  -1.054107e+05
   1.623025e+06   2.212249e+06
  -1.323557e+05   2.957209e+06
  -2.824563e+06   1.511409e+06
  -4.355077e+06  -1.367689e+06
  -3.016467e+06  -3.795692e+06
   1.630129e+05  -4.108087e+06
   2.271275e+06  -2.579680e+06
   2.186856e+06  -1.082257e+06
   1.832439e+06  -6.709132e+05
   2.974249e+06  -4.193213e+05
   4.353078e+06   8.897404e+05
   3.422313e+06   2.896890e+06
  -1.099871e+04   4.172242e+06
  -3.390531e+06   3.816348e+06
  -4.303803e+06   1.952021e+06
  -2.641738e+06  -5.627899e+05
  -1.432302e+05  -2.264895e+06
   1.211535e+06  -1.879537e+06
   5.576473e+05   7.096798e+04
  -1.159500e+06   1.271563e+06
  -1.930566e+06   3.319252e+05
  -8.696275e+05  -1.236926e+06
   5.804765e+05  -1.104373e+06
   4.485142e+05   4.164786e+05
  -1.079918e+06   7.263281e+05
  -1.869938e+06  -1.272858e+06
  -6.361901e+05  -3.517768e+06
   1.639496e+06  -3.479804e+06
   3.221717e+06  -1.133936e+06
   3.371692e+06   1.541374e+06
   2.259401e+06   2.920775e+06
   3.662408e+05   2.701656e+06
  -1.327221e+06   1.435742e+06
  -1.613075e+06   1.584281e+05
  -4.984371e+05  -6.560105e+04
   3.363558e+05   7.767706e+05
  -4.572094e+05   1.340317e+06
  -1.939929e+06   5.222526e+05
  -2.030598e+06  -9.586645e+05
  -3.515599e+05  -1.445253e+06
   1.210760e+06  -5.425356e+05
   8.995322e+05   5.021148e+05
  -8.846914e+05   5.217290e+05
  -2.234466e+06  -3.933550e+05
  -1.751651e+06  -1.462634e+06
   3.246419e+05  -2.022838e+06
   2.422046e+06  -1.606069e+06
   2.835429e+06  -1.735642e+05
   1.190484e+06   1.324895e+06
  -9.798378e+05   1.482221e+06
  -1.577227e+06   1.375719e+05
  -1.596405e+05  -1.094487e+06
   1.566057e+06  -6.895680e+05
   1.721869e+06   8.560991e+05
   2.910148e+05   1.699273e+06
  -1.146481e+06   9.681122e+05
  -1.278788e+06  -3.550060e+05
  -2.323061e+05  -8.067368e+05
   8.073217e+05  -3.117133e+04
   7.070953e+05   1.096475e+06
  -6.423047e+05   1.422904e+06
  -2.061961e+06   4.702398e+05
  -2.027188e+06  -1.147449e+06
  -3.112560e+05  -2.123962e+06
   1.525001e+06  -1.618177e+06
   1.765988e+06  -1.516260e+05
   4.827962e+05   9.045413e+05
  -7.014654e+05   7.961504e+05
  -6.531854e+05   4.847586e+04
   1.370648e+05  -3.762788e+05
   5.242182e+05  -1.981049e+05
   1.373631e+05   8.609694e+04
  -4.542447e+05  -7.486799e+04
  -5.136382e+05  -6.955674e+05
   2.469362e+05  -1.203368e+06
   1.440035e+06  -8.614095e+05
   2.103099e+06   5.008242e+05
   1.415146e+06   2.033528e+06
  -3.164392e+05   2.457205e+06
  -1.705345e+06   1.380701e+06
  -1.726020e+06  -1.941783e+05
  -8.438541e+05  -9.609996e+05
  -2.885762e+05  -6.957778e+05
  -4.600777e+05  -2.462343e+05
  -6.175284e+05  -3.314117e+05
  -6.611683e+04  -7.728377e+05
   9.248722e+05  -8.866637e+05
   1.492510e+06  -2.775687e+05
   1.045754e+06   7.838294e+05
  -3.133910e+05   1.487778e+06
  -1.799833e+06   1.029204e+06
  -2.273351e+06  -5.809518e+05
  -1.077647e+06  -2.183628e+06
   1.111974e+06  -2.373201e+06
   2.626119e+06  -9.599690e+05
   2.376791e+06   7.577972e+05
   9.321677e+05   1.408444e+06
  -2.481649e+05   9.690834e+05
  -4.301935e+05   5.077509e+05
  -1.209618e+05   7.523780e+05
  -1.561578e+05   1.313074e+06
  -7.254201e+05   1.280863e+06
  -1.323232e+06   2.753650e+05
  -1.317004e+06  -1.150314e+06
  -4.920213e+05  -1.949117e+06
   6.894553e+05  -1.437647e+06
   1.310223e+06   5.132604e+04
   7.816233e+05   1.335867e+06
  -4.455685e+05   1.409555e+06
  -1.197891e+06   3.795580e+05
  -8.059756e+05  -7.301565e+05
   1.552752e+05  -1.089843e+06
   5.685206e+05  -7.837045e+05
   1.022412e+05  -4.265976e+05
  -4.248906e+05  -3.587330e+05
  -4.459480e+04  -3.922009e+05
   1.175122e+06  -1.730410e+05
   2.084213e+06   4.124039e+05
   1.608250e+06   1.114591e+06
  -8.559790e+04   1.459706e+06
  -1.654091e+06   1.103374e+06
  -1.876060e+06   2.172205e+05
  -8.371977e+05  -5.307116e+05
   2.822583e+05  -5.686718e+05
   5.229470e+05  -1.866736e+04
   1.720624e+04   4.245429e+05
  -4.610546e+05   2.434881e+05
  -4.766578e+05  -3.654998e+05
  -2.264801e+05  -7.417229e+05
  -7.671109e+04  -4.872792e+05
  -1.468571e+05   9.268615e+04
  -3.014199e+05   2.858638e+05
  -2.724638e+05  -2.475651e+05
   1.838393e+05  -9.973141e+05
   9.543686e+05  -1.051152e+06
   1.387461e+06  -1.314850e+05
   8.310664e+05   9.573689e+05
  -4.606768e+05   1.142897e+06
  -1.287598e+06   2.987404e+05
  -7.242600e+05  -6.101082e+05
   7.400242e+05  -6.349582e+05
   1.616216e+06   1.598519e+05
   9.927367e+05   9.232895e+05
  -5.343393e+05   9.930528e+05
  -1.550683e+06   4.285894e+05
  -1.251230e+06  -2.460552e+05
  -1.155736e+05  -5.309119e+05
   6.740878e+05  -2.494397e+05
   3.823008e+05   3.130605e+05
  -6.119998e+05   5.099629e+05
  -1.199808e+06  -1.223910e+05
  -6.434910e+05  -1.222470e+06
   6.554891e+05  -1.711757e+06
   1.538738e+06  -8.515127e+05
   1.252398e+06   8.144981e+05
   1.425444e+05   1.832071e+06
  -8.036663e+05   1.290006e+06
  -9.384464e+05  -2.180153e+05
  -3.924291e+05  -1.234147e+06
   2.669176e+05  -9.801196e+05
   5.793274e+05  -6.364581e+04
   4.563469e+05   4.033125e+05
   1.556457e+05   1.471217e+05
   5.592592e+04  -9.481222e+04
   2.842855e+05   3.110692e+05
   4.886934e+05   1.003755e+06
   1.481013e+05   1.108390e+06
  -7.515755e+05   3.792405e+05
  -1.485860e+06  -5.271476e+05
  -1.268002e+06  -9.019758e+05
  -1.634230e+05  -7.208671e+05
   8.774649e+05  -3.959606e+05
   1.008260e+06  -1.474230e+05
   3.738987e+05   6.917107e+04
  -1.528947e+05   2.249852e+05
  -5.446627e+04   2.061156e+05
   2.547808e+05   1.026606e+05
   5.129591e+04   1.356612e+05
  -6.696649e+05   2.201777e+05
  -1.068165e+06  -4.154870e+04
  -4.371549e+05  -7.178262e+05
   8.830049e+05  -1.179574e+06
   1.764514e+06  -7.292925e+05
   1.440553e+06   4.735327e+05
   2.415858e+05   1.440194e+06
  -8.281962e+05   1.385146e+06
  -1.086175e+06   5.260654e+05
  -6.582824e+05  -2.500555e+05
  -1.315482e+05  -3.689199e+05
   6.029928e+04  -7.140405e+04
  -8.975880e+04   6.082135e+03
  -2.895966e+05  -3.902359e+05
  -2.216913e+05  -8.338303e+05
   1.998099e+05  -6.905305e+05
   6.870092e+05   1.337820e+05
   7.340895e+05   9.807770e+05
   1.061087e+05   1.054969e+06
  -7.635723e+05   2.453804e+05
  -1.038980e+06  -7.492808e+05
  -3.358325e+05  -1.121091e+06
   7.423306e+05  -6.832194e+05
   1.146956e+06   1.015176e+05
   5.363772e+05   6.495949e+05
  -3.107570e+05   6.991096e+05
  -4.103390e+05   3.704809e+05
   2.365667e+05   1.273656e+04
   6.598308e+05  -2.384818e+04
   1.467521e+05   3.206601e+05
  -8.621717e+05   6.675790e+05
  -1.315553e+06   5.063181e+05
  -7.902389e+05  -2.122845e+05
   1.202409e+05  -8.907039e+05
   6.001231e+05  -8.670090e+05
   4.529283e+05  -1.671916e+05
   4.929434e+04   4.828596e+05
  -2.516794e+05   4.462720e+05
  -3.525608e+05  -1.454076e+05
  -2.462368e+05  -5.952962e+05
   5.932820e+04  -4.476033e+05
   3.977318e+05   4.932389e+04
   4.847074e+05   3.087038e+05
   2.464414e+05   1.141244e+05
  -4.019647e+04  -1.647422e+05
  -8.693241e+04  -7.050233e+04
   2.244557e+04   3.486596e+05
  -3.321582e+04   5.728351e+05
  -3.178873e+05   2.413061e+05
  -4.759831e+05  -3.779281e+05
  -1.705865e+05  -6.591764e+05
   4.158210e+05  -3.175394e+05
   6.804699e+05   2.901547e+05
   2.521329e+05   5.844798e+05
  -5.318057e+05   3.634794e+05
  -9.078964e+05  -9.067138e+04
  -4.845145e+05  -3.965265e+05
   3.083237e+05  -4.135281e+05
   6.606582e+05  -2.325658e+05
   2.686515e+05  -1.680480e+04
  -3.355067e+05   7.228910e+04
  -4.052373e+05  -5.744379e+04
   1.652637e+05  -2.803746e+05
   7.410058e+05  -2.568273e+05
