
 $NMID
 id='ANONYMOUS ', fmtdat='(2E16.6)'
 volume=1.0
 tramp=1.0
 $END
   1.626981e+07  -6.293601e+06
   1.300178e+07   8.354832e+06
   1.637790e+05   1.272755e+07
  -7.787108e+06   5.296323e+06
  -5.078133e+06  -2.964240e+06
   1.329863e+06  -3.831239e+06
   3.451832e+06   3.212751e+05
   1.051626e+06   3.224253e+06
  -1.790311e+06   2.776782e+06
  -2.909311e+06   6.632177e+05
  -2.413451e+06  -1.398248e+06
  -6.944720e+05  -2.322414e+06
   1.182547e+06  -1.325528e+06
   1.346812e+06   7.560837e+05
  -5.048433e+05   1.506399e+06
  -2.129372e+06  -1.219918e+05
  -1.572843e+06  -2.320114e+06
   4.716117e+05  -2.951824e+06
   2.217121e+06  -1.973015e+06
   2.999465e+06  -3.636829e+05
   2.772855e+06   1.469328e+06
   1.232205e+06   2.910954e+06
  -9.930083e+05   2.620189e+06
  -1.877858e+06   5.491376e+05
  -5.528569e+05  -9.843411e+05
   9.421255e+05  -1.324367e+05
   3.013096e+05   1.698928e+06
  -1.712040e+06   1.796248e+06
  -2.507735e+06  -6.062056e+04
  -1.376708e+06  -1.722815e+06
   1.123283e+05  -1.901747e+06
   8.269308e+05  -1.209387e+06
   1.014663e+06  -3.842472e+05
   8.087331e+05   4.192259e+05
  -1.047410e+04   6.708403e+05
  -6.846259e+05  -1.578108e+05
  -2.549952e+04  -1.111120e+06
   1.371606e+06  -6.050031e+05
   1.505932e+06   9.546364e+05
   9.904994e+04   1.426263e+06
  -7.467170e+05   3.124139e+05
   8.168853e+04  -2.789912e+05
   7.681160e+05   9.321920e+05
  -5.182692e+05   2.085460e+06
  -2.493550e+06   9.468242e+05
  -2.499023e+06  -1.581914e+06
  -3.296572e+05  -2.696998e+06
   1.652317e+06  -1.512319e+06
   1.746256e+06   2.682180e+05
   5.094853e+05   9.959021e+05
  -6.614503e+05   6.139299e+05
  -9.735646e+05  -2.353304e+05
  -2.788561e+05  -9.823171e+05
   9.319174e+05  -9.700966e+05
   1.482139e+06   2.948704e+04
   6.688781e+05   1.010961e+06
  -4.909692e+05   7.536535e+05
  -4.007962e+05  -2.580782e+05
   7.159840e+05  -3.171769e+05
   9.855635e+05   8.991547e+05
  -3.110375e+05   1.717255e+06
  -1.652992e+06   9.636399e+05
  -1.601410e+06  -4.175060e+05
  -7.140716e+05  -1.054352e+06
  -1.852621e+05  -1.069513e+06
   9.164263e+04  -1.178615e+06
   7.694363e+05  -1.050642e+06
   1.344223e+06  -6.035603e+04
   8.162762e+05   1.056355e+06
  -3.920472e+05   9.260726e+05
  -7.454209e+05  -3.012453e+05
   1.761516e+05  -9.824307e+05
   1.086334e+06  -2.774737e+05
   8.630948e+05   8.335770e+05
  -9.236301e+04   1.108437e+06
  -7.256431e+05   5.423097e+05
  -6.467541e+05  -1.019542e+05
  -1.491095e+05  -3.650037e+05
   3.485717e+05  -1.927409e+05
   4.312390e+05   3.174646e+05
  -1.393805e+05   7.504498e+05
  -9.494481e+05   5.138341e+05
  -1.134764e+06  -3.630475e+05
  -4.448013e+05  -1.031806e+06
   3.636547e+05  -8.674668e+05
   5.506751e+05  -2.726059e+05
   3.070571e+05  -5.324149e+03
   2.303318e+05  -1.418641e+05
   3.934113e+05  -2.132151e+05
   4.683599e+05  -8.354814e+03
   3.760780e+05   3.016699e+05
   2.384811e+05   5.694978e+05
  -9.550960e+03   6.876614e+05
  -3.912520e+05   4.449852e+05
  -5.408582e+05  -1.176312e+05
  -1.867841e+05  -4.464533e+05
   2.401971e+05  -1.325385e+05
   1.309118e+05   3.763482e+05
  -3.299458e+05   3.436458e+05
  -4.252461e+05  -1.394945e+05
  -6.616826e+04  -3.263858e+05
   9.825161e+04  -4.658557e+04
  -1.798515e+05   5.792120e+04
  -3.200506e+05  -3.192130e+05
   7.232730e+04  -5.916720e+05
   5.104677e+05  -2.603270e+05
   4.238552e+05   2.548463e+05
   5.134780e+04   3.104245e+05
  -4.290645e+04   2.760057e+04
   1.105492e+05  -4.470521e+04
   9.427762e+04   1.301283e+05
  -8.042481e+04   1.545658e+05
  -5.014743e+04  -3.246309e+03
   1.547754e+05   2.283384e+04
   1.106158e+05   2.741314e+05
  -2.446918e+05   3.402532e+05
  -4.545331e+05   4.189480e+04
  -2.557041e+05  -2.825122e+05
   5.904258e+04  -3.171862e+05
   1.542699e+05  -1.607493e+05
   8.793227e+04  -2.208505e+04
   3.775378e+04   7.906833e+04
  -1.398543e+04   1.283754e+05
  -8.436198e+04   6.003073e+03
  -2.156626e+04  -2.189549e+05
   1.938734e+05  -2.180185e+05
   2.667502e+05   1.105134e+05
   6.556473e+03   3.745979e+05
  -2.996172e+05   2.071276e+05
  -2.538106e+05  -1.826704e+05
   7.638471e+04  -3.043508e+05
   2.694349e+05  -6.434279e+04
   1.359080e+05   1.886615e+05
  -1.121999e+05   1.938031e+05
  -2.223688e+05   2.508600e+04
  -1.485177e+05  -1.449737e+05
   3.949964e+04  -2.217699e+05
   2.300170e+05  -1.346390e+05
   2.517563e+05   1.098722e+05
   2.684742e+04   2.965536e+05
  -2.378680e+05   1.846999e+05
  -2.388248e+05  -1.309333e+05
   1.737388e+04  -2.831485e+05
   2.142508e+05  -1.140034e+05
   1.625724e+05   1.400987e+05
   2.647161e+03   2.162868e+05
  -8.450404e+04   1.371141e+05
  -1.162996e+05   4.579186e+04
  -1.509844e+05  -3.554311e+04
  -1.274987e+05  -1.231304e+05
  -1.957683e+04  -1.420949e+05
   4.560697e+04  -6.403798e+04
  -3.289751e+03  -2.174946e+04
  -2.284339e+04  -1.021508e+05
   1.068573e+05  -1.603998e+05
   2.388301e+05  -3.898454e+04
   1.723490e+05   1.470328e+05
  -1.276720e+04   1.687635e+05
  -7.824179e+04   4.222527e+04
  -2.212767e+03  -1.489617e+04
   2.687944e+04   5.841020e+04
  -4.685883e+04   1.039481e+05
  -8.013458e+04   4.277288e+04
  -2.092216e+04  -1.411965e+04
   6.302026e+02  -1.906334e+03
  -6.301426e+04  -1.128064e+04
  -7.184452e+04  -7.335429e+04
   3.034591e+04  -5.766912e+04
   6.944299e+04   8.208277e+04
  -7.302013e+04   1.551812e+05
  -2.184101e+05   2.984557e+03
  -1.383297e+05  -2.250057e+05
   9.010779e+04  -2.628338e+05
   1.966547e+05  -1.016018e+05
   1.098466e+05   3.216468e+04
   1.674866e+04   2.233452e+04
   5.309279e+04  -1.634893e+04
   1.377415e+05   3.441750e+04
   1.415168e+05   1.316341e+05
   5.272987e+04   1.773969e+05
  -7.152860e+04   1.483041e+05
  -1.813106e+05   6.458615e+04
  -2.106029e+05  -5.473049e+04
  -1.025407e+05  -1.486596e+05
   7.828429e+04  -1.264072e+05
   1.622292e+05   9.330898e+03
   7.338675e+04   1.251608e+05
  -6.985664e+04   1.066422e+05
  -1.158146e+05  -9.225759e+03
  -6.226745e+04  -9.943468e+04
  -9.747151e+03  -9.913166e+04
  -5.304849e+03  -3.672987e+04
  -1.558663e+04   2.039756e+04
  -5.508901e+03   1.150529e+04
   3.438583e+04  -7.182398e+04
   1.025326e+05  -1.430517e+05
   1.612269e+05  -8.527164e+04
   1.363561e+05   9.036231e+04
   1.294200e+04   2.164429e+05
  -1.055349e+05   1.664347e+05
  -1.096521e+05   1.861267e+04
  -2.664749e+04  -5.801018e+04
   2.724040e+04  -2.534602e+04
   8.857034e+03   1.758082e+04
  -2.595613e+04   1.020617e+04
  -3.828544e+04  -8.588436e+03
  -4.538923e+04  -7.757008e+03
  -4.418566e+04  -1.198042e+04
  -2.964224e+03  -2.208511e+04
   4.877764e+04   2.452168e+03
   2.829664e+04   4.481520e+04
  -5.967903e+04   1.923586e+04
  -9.144381e+04  -8.515447e+04
  -1.859164e+02  -1.439557e+05
   1.053668e+05  -6.137425e+04
   8.797902e+04   7.787974e+04
  -1.856551e+04   1.138197e+05
  -6.314383e+04   2.223741e+04
   5.310957e+03  -7.338331e+04
   8.445220e+04  -7.504182e+04
   7.827021e+04  -4.090417e+03
   9.289463e+03   6.831293e+04
  -4.824474e+04   9.695429e+04
  -6.233713e+04   6.331137e+04
  -3.720944e+04  -1.787173e+04
   1.659016e+04  -7.433364e+04
   6.254066e+04  -3.257808e+04
   4.255034e+04   7.241562e+04
  -4.865792e+04   1.098053e+05
  -1.272835e+05   1.508440e+04
  -1.052993e+05  -1.153996e+05
   5.617046e+03  -1.401772e+05
   1.079591e+05  -4.151347e+04
   1.208556e+05   7.235188e+04
   4.453977e+04   1.039408e+05
  -5.613094e+04   5.226137e+04
  -1.048041e+05  -2.185215e+04
  -6.934829e+04  -6.366650e+04
   6.971921e+03  -5.652557e+04
   4.504065e+04  -2.393167e+04
   2.285387e+04  -6.787607e+03
   4.687798e+03  -1.822742e+04
   4.738460e+04  -2.529330e+04
   1.072912e+05   5.857603e+03
   9.151615e+04   5.946943e+04
  -1.111931e+04   8.981753e+04
  -1.075717e+05   7.749677e+04
  -1.156529e+05   3.723626e+04
  -5.200744e+04  -1.440697e+04
   1.109171e+04  -6.131213e+04
   3.287900e+04  -7.150818e+04
   2.214825e+04  -2.815969e+04
   2.681185e+03   2.528003e+04
  -6.676385e+03   2.522221e+04
   2.912812e+03  -1.729477e+04
   1.731198e+04  -2.051927e+04
   5.273559e+03   4.352073e+04
  -3.952294e+04   8.741520e+04
  -7.536030e+04   2.223458e+04
  -5.529404e+04  -1.073138e+05
   1.527402e+04  -1.660937e+05
   8.387178e+04  -9.339783e+04
   1.056060e+05   3.448311e+04
   7.527816e+04   1.081358e+05
   1.783125e+04   9.811173e+04
  -3.008693e+04   4.997598e+04
  -3.952527e+04   1.289416e+04
  -1.731643e+04   2.534561e+03
  -8.643353e+03   8.197790e+03
  -4.309353e+04   7.442861e+03
  -8.256369e+04  -1.573936e+04
  -5.846713e+04  -4.924555e+04
   3.273026e+04  -5.795510e+04
   1.071520e+05  -2.307232e+04
   8.684854e+04   3.175492e+04
  -9.191796e+03   6.217634e+04
  -8.996677e+04   4.292530e+04
  -9.121826e+04  -1.570055e+04
  -2.699248e+04  -7.438507e+04
   4.357509e+04  -8.496228e+04
   7.413675e+04  -3.015626e+04
   5.892450e+04   4.356531e+04
   2.603673e+04   6.033607e+04
   9.406196e+03   5.835309e+03
   1.711010e+04  -4.100371e+04
   2.551446e+04  -2.197830e+03
   9.698191e+03   9.044741e+04
  -2.611662e+04   1.264365e+05
  -5.600085e+04   5.605583e+04
  -6.114999e+04  -4.817159e+04
  -4.046654e+04  -8.580733e+04
  -3.927594e+03  -4.385730e+04
   2.744336e+04   1.154875e+04
   2.588525e+04   2.862377e+04
  -1.331979e+04   1.405268e+04
  -5.002804e+04  -4.621500e+03
  -3.655170e+04  -1.792360e+04
   1.800442e+04  -2.663614e+04
   5.027255e+04  -2.516142e+04
   2.344591e+04  -1.107905e+04
  -2.210922e+04   3.424415e+03
  -2.359038e+04   5.883981e+03
   1.887242e+04   2.347987e+03
   4.482132e+04   8.343526e+03
   1.638426e+04   2.319609e+04
  -3.384779e+04   2.569933e+04
  -4.726847e+04   8.697734e+02
  -9.749009e+03  -3.435395e+04
   3.717354e+04  -4.144054e+04
   4.550318e+04  -2.256213e+03
   8.825597e+03   5.233044e+04
  -3.605651e+04   6.698273e+04
  -4.837425e+04   2.167455e+04
  -2.336143e+04  -4.088455e+04
   6.692928e+03  -5.916747e+04
   1.100790e+04  -2.144114e+04
  -6.488725e+03   2.261005e+04
  -1.805451e+04   2.111314e+04
  -7.622652e+03  -2.159580e+04
   1.703971e+04  -5.324668e+04
