
 $NMID
 id='ANONYMOUS ', fmtdat='(2E16.6)'
 volume=1.0
 tramp=1.0
 $END
  -2.920792e+06  -1.788807e+06
  -1.189660e+06  -2.060344e+06
   7.740250e+05  -1.609241e+06
   1.705610e+06  -8.997776e+05
   1.216264e+06  -4.228450e+04
   7.639576e+03   5.462499e+05
  -7.518490e+05   2.750073e+05
  -4.760330e+05  -6.177029e+05
   3.418098e+05  -1.017477e+06
   7.498695e+05  -3.163107e+05
   3.851895e+05   7.019907e+05
  -2.461926e+05   8.330760e+05
  -4.524794e+05  -3.642011e+04
  -8.322823e+04  -8.703713e+05
   4.370138e+05  -7.737893e+05
   5.836313e+05   8.396535e+04
   1.763892e+05   8.153080e+05
  -4.763515e+05   7.652541e+05
  -8.045445e+05   6.331205e+04
  -4.999688e+05  -5.860868e+05
   1.109549e+05  -6.183346e+05
   3.639963e+05  -1.879626e+05
   1.604604e+04   2.433245e+04
  -4.368507e+05  -3.450990e+05
  -3.275848e+05  -8.531013e+05
   3.970108e+05  -7.891921e+05
   1.094671e+06  -7.134587e+04
   1.088806e+06   6.607800e+05
   3.320341e+05   7.980249e+05
  -5.367563e+05   3.429549e+05
  -7.519840e+05  -2.518476e+05
  -1.386324e+05  -5.422146e+05
   6.639948e+05  -3.339793e+05
   8.160216e+05   2.397316e+05
   1.945168e+05   7.249062e+05
  -4.607954e+05   6.583204e+05
  -4.445519e+05   8.386742e+04
   7.431731e+04  -3.873501e+05
   3.567862e+05  -2.428833e+05
   7.977581e+04   3.050628e+05
  -3.471620e+05   5.785945e+05
  -4.348977e+05   2.663388e+05
  -1.976505e+05  -2.383102e+05
   4.576440e+04  -3.607614e+05
   1.233350e+05  -7.527203e+03
   3.718070e+04   3.908028e+05
  -2.094014e+05   3.796572e+05
  -5.192870e+05  -7.485357e+04
  -5.845312e+05  -5.824431e+05
  -1.848591e+05  -6.992279e+05
   4.212409e+05  -3.333704e+05
   6.808664e+05   1.749270e+05
   3.748687e+05   3.915045e+05
  -1.371091e+05   2.091907e+05
  -3.572842e+05  -9.741488e+04
  -1.704717e+05  -2.088748e+05
   1.377553e+05  -6.948678e+04
   2.367904e+05   1.401854e+05
   4.561015e+04   2.294797e+05
  -2.218942e+05   1.433524e+05
  -2.494700e+05  -3.114095e+04
   4.285713e+04  -1.252377e+05
   3.239899e+05  -1.197509e+04
   1.638501e+05   2.437508e+05
  -4.139689e+05   3.867894e+05
  -8.612607e+05   2.085997e+05
  -7.195216e+05  -2.149201e+05
  -1.637717e+05  -5.825233e+05
   2.466174e+05  -6.695025e+05
   2.580296e+05  -5.216628e+05
   1.359757e+05  -3.436750e+05
   2.123491e+05  -2.477418e+05
   4.580294e+05  -1.497858e+05
   5.867107e+05   8.948263e+04
   4.187293e+05   4.353744e+05
   3.426642e+04   6.245155e+05
  -3.293635e+05   4.061956e+05
  -4.361944e+05  -1.311022e+05
  -1.979976e+05  -5.480121e+05
   2.197566e+05  -4.649215e+05
   4.810508e+05   3.038818e+04
   3.764762e+05   4.731146e+05
   3.668438e+04   5.214711e+05
  -2.166710e+05   2.740507e+05
  -2.246516e+05   6.638306e+04
  -1.349487e+05   6.037749e+04
  -1.910379e+05   1.204429e+05
  -4.276220e+05   3.615873e+04
  -5.979501e+05  -2.336686e+05
  -4.075214e+05  -5.306979e+05
   1.525052e+05  -6.359922e+05
   7.040599e+05  -4.384765e+05
   7.892597e+05  -3.542840e+04
   3.406213e+05   3.117989e+05
  -2.072275e+05   3.766713e+05
  -3.564604e+05   1.682341e+05
  -6.408933e+04  -7.620189e+04
   2.659879e+05  -1.213442e+05
   2.778290e+05   4.083327e+04
   2.520805e+04   1.974775e+05
  -1.769044e+05   1.453997e+05
  -1.302095e+05  -7.823493e+04
   9.152149e+04  -2.031917e+05
   2.688913e+05  -4.038591e+03
   2.197921e+05   4.088666e+05
  -8.329195e+04   6.313811e+05
  -4.648139e+05   3.713849e+05
  -6.326333e+05  -2.037065e+05
  -4.238836e+05  -6.078114e+05
   5.414133e+03  -5.409667e+05
   3.056320e+05  -1.789450e+05
   2.822000e+05   7.274616e+04
   7.608152e+04   3.130180e+04
  -2.491056e+04  -1.326896e+05
   9.139204e+04  -1.629675e+05
   2.636239e+05  -7.288585e+03
   2.574346e+05   1.724968e+05
   3.179014e+04   2.004754e+05
  -1.975691e+05   5.669084e+04
  -1.681070e+05  -1.132285e+05
   1.350443e+05  -1.277431e+05
   4.124464e+05   6.321429e+04
   3.365731e+05   3.119778e+05
  -8.072813e+04   3.931206e+05
  -4.659781e+05   2.187963e+05
  -4.697149e+05  -6.777034e+04
  -1.318184e+05  -2.271410e+05
   1.863304e+05  -1.507610e+05
   1.981460e+05   4.616295e+04
  -4.380465e+04   1.453289e+05
  -2.604279e+05   3.633009e+04
  -2.444118e+05  -1.771588e+05
  -2.815701e+04  -2.785824e+05
   1.837062e+05  -1.619715e+05
   2.096810e+05   4.712725e+04
   5.266251e+04   1.213264e+05
  -9.935920e+04  -1.349622e+04
  -5.506980e+04  -1.897086e+05
   1.697114e+05  -1.860231e+05
   3.445031e+05   2.825998e+04
   2.607225e+05   2.696499e+05
  -3.607811e+04   3.371948e+05
  -2.848161e+05   1.946979e+05
  -2.779494e+05  -2.561012e+04
  -6.227095e+04  -1.530055e+05
   1.320646e+05  -1.125099e+05
   1.330725e+05   2.439574e+04
  -1.846412e+04   1.078623e+05
  -1.380579e+05   5.841601e+04
  -9.963774e+04  -4.329772e+04
   3.490009e+04  -4.751124e+04
   8.603780e+04   7.472134e+04
  -4.327718e+04   1.751594e+05
  -2.470226e+05   9.259430e+04
  -3.124733e+05  -1.543119e+05
  -1.396186e+05  -3.737768e+05
   1.511997e+05  -3.879723e+05
   3.379597e+05  -1.887093e+05
   3.095670e+05   7.488682e+04
   1.500553e+05   2.300875e+05
   2.547981e+04   2.130343e+05
   1.031118e+04   1.064998e+05
   3.198039e+04   4.987576e+04
  -2.380227e+04   8.794593e+04
  -1.655200e+05   1.166465e+05
  -2.633924e+05   1.375102e+04
  -1.755531e+05  -1.818522e+05
   8.787248e+04  -2.749441e+05
   3.373681e+05  -1.257708e+05
   3.598266e+05   1.761055e+05
   1.136438e+05   3.852595e+05
  -2.284035e+05   3.359601e+05
  -4.281795e+05   8.341041e+04
  -3.765094e+05  -1.715041e+05
  -1.581214e+05  -2.679134e+05
   4.989387e+04  -2.048738e+05
   1.348149e+05  -1.102354e+05
   1.206759e+05  -9.960435e+04
   1.078486e+05  -1.541178e+05
   1.509638e+05  -1.428470e+05
   1.978693e+05   1.795819e+04
   1.517347e+05   2.404788e+05
  -7.447184e+03   3.333258e+05
  -1.754467e+05   2.005714e+05
  -2.130554e+05  -5.276991e+04
  -8.610499e+04  -2.251854e+05
   9.300833e+04  -2.077685e+05
   1.715132e+05  -5.855089e+04
   1.022353e+05   8.499328e+04
  -2.043000e+04   1.376585e+05
  -6.788389e+04   1.168161e+05
  -1.387682e+04   8.940606e+04
   4.106032e+04   8.567393e+04
  -1.648774e+04   6.865515e+04
  -1.760426e+05  -1.046640e+04
  -2.899319e+05  -1.356491e+05
  -2.132031e+05  -2.240364e+05
   3.548585e+04  -2.076731e+05
   2.668765e+05  -1.021077e+05
   2.968455e+05   1.467665e+04
   1.307349e+05   7.442577e+04
  -4.717293e+04   6.002759e+04
  -7.427670e+04   2.074733e+03
   2.536434e+04  -3.899377e+04
   9.760613e+04  -9.408920e+03
   5.513987e+04   7.852816e+04
  -3.046931e+04   1.333264e+05
  -4.064896e+04   7.919637e+04
   3.431147e+04  -3.187202e+04
   9.028261e+04  -5.915720e+04
   4.039750e+04   4.781150e+04
  -8.943077e+04   1.613224e+05
  -1.938021e+05   1.219255e+05
  -1.839057e+05  -5.459523e+04
  -5.213224e+04  -1.839405e+05
   1.174939e+05  -1.310963e+05
   1.907766e+05   3.669796e+04
   8.324901e+04   1.386507e+05
  -1.370444e+05   7.909368e+04
  -2.707202e+05  -7.535909e+04
  -1.686322e+05  -1.863869e+05
   9.681254e+04  -1.708917e+05
   2.832162e+05  -5.253987e+04
   2.263283e+05   6.990057e+04
   1.357362e+04   1.010590e+05
  -1.170368e+05   2.949475e+04
  -3.863130e+04  -5.391573e+04
   1.342057e+05  -3.683224e+04
   1.808664e+05   9.679244e+04
   1.719414e+04   2.337520e+05
  -2.156534e+05   2.287262e+05
  -3.002219e+05   4.379475e+04
  -1.632493e+05  -1.999227e+05
   6.330904e+04  -3.112015e+05
   1.903851e+05  -1.934507e+05
   1.530988e+05   5.524961e+04
   3.405790e+04   2.185194e+05
  -5.895959e+04   1.693414e+05
  -9.025130e+04  -8.473374e+02
  -7.788764e+04  -9.376365e+04
  -4.185414e+04  -4.188008e+04
  -5.129189e+03   2.182469e+04
  -8.365833e+02  -4.180608e+04
  -2.406871e+04  -1.762897e+05
  -4.109622e+03  -1.971320e+05
   1.068640e+05  -3.928061e+04
   2.245169e+05   1.528327e+05
   1.952477e+05   2.068486e+05
  -6.854861e+02   1.195623e+05
  -1.843678e+05   1.966913e+04
  -1.815327e+05  -1.247072e+04
  -3.975854e+04  -1.049435e+04
   4.402158e+04  -2.596342e+04
  -8.254865e+03  -4.949396e+04
  -6.475769e+04  -4.894042e+04
   9.937706e+03  -2.454549e+04
   1.496877e+05   1.131116e+04
   1.661009e+05   6.494991e+04
  -6.316823e+03   1.251690e+05
  -2.243120e+05   1.273232e+05
  -2.961288e+05   1.596809e+04
  -1.708723e+05  -1.561958e+05
   4.156612e+04  -2.479611e+05
   1.897701e+05  -1.760791e+05
   1.968991e+05  -1.326241e+04
   9.651805e+04   8.906869e+04
  -9.139689e+03   6.346928e+04
  -3.653903e+04  -1.283097e+04
   8.048330e+03  -1.848590e+04
   4.368472e+04   6.972100e+04
   8.459063e+03   1.468595e+05
  -7.034417e+04   9.474631e+04
  -1.074926e+05  -7.546962e+04
  -5.087182e+04  -2.108073e+05
   6.577980e+04  -1.674808e+05
   1.486636e+05   2.796152e+04
   1.180940e+05   1.960887e+05
  -1.898134e+04   1.928636e+05
  -1.545391e+05   5.214270e+04
  -1.646296e+05  -7.837906e+04
  -4.141556e+04  -1.088658e+05
   7.832045e+04  -7.186036e+04
   5.976623e+04  -3.706160e+04
  -6.189757e+04  -2.732538e+04
  -1.137948e+05  -3.345491e+04
   1.862795e+02  -5.251994e+04
   1.719798e+05  -6.946476e+04
   2.173912e+05  -4.062953e+04
   9.421584e+04   4.845431e+04
  -6.357744e+04   1.270865e+05
  -1.147338e+05   1.032141e+05
  -5.257573e+04  -1.020442e+04
   3.101283e+04  -8.897295e+04
   6.532782e+04  -4.476939e+04
   4.780707e+04   6.410779e+04
   6.580676e+03   1.084046e+05
  -3.481790e+04   4.699691e+04
  -5.915223e+04  -3.765913e+04
  -5.706108e+04  -5.614177e+04
  -3.594598e+04  -1.588610e+04
  -1.080082e+04   8.504459e+03
   1.561170e+04  -2.234092e+04
   4.828254e+04  -6.765131e+04
   7.614918e+04  -5.824060e+04
   7.179811e+04   2.181597e+04
   2.267360e+04   1.079544e+05
  -4.753492e+04   1.123322e+05
  -9.305664e+04   1.700358e+04
  -7.705070e+04  -9.407988e+04
   2.093747e+03  -1.144378e+05
   9.616148e+04  -2.946772e+04
   1.260315e+05   6.860421e+04
   5.100666e+04   8.763274e+04
  -6.777737e+04   3.337923e+04
  -1.084524e+05  -1.652126e+04
  -2.497989e+04  -1.189018e+04
   8.084146e+04   2.802484e+04
   6.871793e+04   5.754619e+04
  -6.423646e+04   4.956511e+04
  -1.669520e+05  -1.944762e+03
