
 $NMID
 id='ANONYMOUS ', fmtdat='(2E16.6)'
 volume=1.0
 tramp=1.0
 $END
   2.782468e+07  -1.163625e+06
   1.890722e+07   1.341654e+07
  -1.176061e+05   1.811891e+07
  -1.215868e+07   1.121671e+07
  -9.834059e+06   3.776745e+05
  -2.829434e+05  -5.014754e+06
   5.522765e+06  -1.984155e+06
   3.800979e+06   4.524511e+06
  -1.549807e+06   7.120647e+06
  -5.105974e+06   3.070515e+06
  -4.418779e+06  -3.353489e+06
  -7.098662e+05  -5.484029e+06
   2.485999e+06  -1.337867e+06
   2.077461e+06   4.313699e+06
  -1.563479e+06   5.239708e+06
  -4.549952e+06   4.241002e+05
  -3.411089e+06  -5.313386e+06
   1.159262e+06  -6.802380e+06
   5.149091e+06  -3.443878e+06
   5.465907e+06   1.255306e+06
   2.690724e+06   3.736020e+06
  -4.998152e+04   3.345690e+06
  -3.058833e+05   2.039648e+06
   1.407054e+06   1.971649e+06
   2.114659e+06   3.308503e+06
  -4.610993e+05   4.144144e+06
  -4.897428e+06   2.674704e+06
  -6.925583e+06  -5.752716e+05
  -4.083981e+06  -3.085089e+06
   1.075702e+06  -2.939719e+06
   3.564299e+06  -6.659232e+05
   1.489076e+06   1.538428e+06
  -2.206618e+06   1.830586e+06
  -3.567106e+06  -3.142762e+04
  -1.842650e+06  -2.601732e+06
   6.397290e+05  -3.605972e+06
   1.627073e+06  -1.853774e+06
   9.150951e+05   1.066737e+06
  -2.178202e+05   1.925386e+06
  -4.595737e+05  -3.564440e+05
   5.476724e+05  -2.870966e+06
   1.861940e+06  -2.084658e+06
   1.867469e+06   1.422313e+06
  -6.183498e+04   3.355449e+06
  -2.393048e+06   1.116885e+06
  -2.577939e+06  -2.866802e+06
   2.134304e+05  -4.165040e+06
   3.798508e+06  -1.500857e+06
   4.854618e+06   2.322170e+06
   2.172175e+06   3.933037e+06
  -2.043654e+06   2.537243e+06
  -4.172273e+06  -1.691170e+05
  -2.581320e+06  -1.953265e+06
   8.614075e+05  -1.700167e+06
   2.732779e+06  -3.966072e+04
   1.560620e+06   1.245102e+06
  -8.114513e+05   8.978928e+05
  -1.516084e+06  -4.905859e+05
   2.605531e+04  -1.182743e+06
   1.618155e+06  -3.423240e+05
   1.053718e+06   1.073909e+06
  -1.268161e+06   1.506509e+06
  -2.839080e+06   3.542410e+05
  -1.797265e+06  -1.705406e+06
   1.224053e+06  -3.307308e+06
   3.861810e+06  -3.126392e+06
   4.263616e+06  -7.897719e+05
   2.559412e+06   2.395195e+06
   4.129471e+05   4.184351e+06
  -6.863535e+05   3.554017e+06
  -6.959944e+05   1.806664e+06
  -6.847396e+05   9.059557e+05
  -1.397068e+06   1.039325e+06
  -2.366288e+06   6.903613e+05
  -2.484779e+06  -9.271100e+05
  -1.243796e+06  -2.507512e+06
   7.008313e+05  -2.210893e+06
   2.018535e+06   8.467164e+03
   1.682293e+06   2.241272e+06
  -2.161274e+05   2.597804e+06
  -2.333672e+06   9.237597e+05
  -3.004316e+06  -1.332999e+06
  -1.749101e+06  -2.571746e+06
   1.779371e+05  -2.326488e+06
   1.139429e+06  -1.395947e+06
   9.856536e+05  -8.524486e+05
   1.078247e+06  -9.102041e+05
   2.293729e+06  -7.932067e+05
   3.571659e+06   2.790155e+05
   3.014349e+06   2.095220e+06
   2.652912e+05   3.503274e+06
  -2.768237e+06   3.380528e+06
  -3.743104e+06   1.596767e+06
  -2.177851e+06  -7.531612e+05
   2.081650e+05  -2.049599e+06
   1.274550e+06  -1.458908e+06
   4.331380e+05   1.824912e+05
  -1.048382e+06   1.062278e+06
  -1.513899e+06   3.193351e+05
  -5.914522e+05  -9.361799e+05
   5.770143e+05  -9.813852e+05
   6.587796e+05   2.783643e+05
  -4.646644e+05   1.070096e+06
  -1.624127e+06  -4.698053e+04
  -1.524406e+06  -2.289097e+06
   9.656867e+04  -3.419642e+06
   2.252895e+06  -2.179105e+06
   3.437001e+06   4.776949e+05
   2.742909e+06   2.482053e+06
   6.622134e+05   2.611086e+06
  -1.186418e+06   1.343811e+06
  -1.463462e+06   1.254113e+05
  -4.323119e+05  -3.195728e+04
   3.399839e+05   6.360610e+05
  -2.187143e+05   1.059308e+06
  -1.425131e+06   5.336744e+05
  -1.686065e+06  -5.231233e+05
  -4.752290e+05  -1.066738e+06
   9.501075e+05  -5.904986e+05
   9.533883e+05   3.527608e+05
  -6.075038e+05   7.540756e+05
  -2.150169e+06   1.163669e+05
  -1.986042e+06  -1.138730e+06
  -4.650647e+04  -2.019843e+06
   2.026052e+06  -1.730452e+06
   2.467780e+06  -3.746368e+05
   1.071459e+06   9.749190e+05
  -6.887970e+05   1.167740e+06
  -1.162036e+06   1.624799e+05
  -9.744763e+04  -8.309939e+05
   1.264107e+06  -6.394178e+05
   1.536475e+06   5.472487e+05
   5.105814e+05   1.415014e+06
  -7.848851e+05   1.060797e+06
  -1.162433e+06  -2.369391e+04
  -3.972683e+05  -6.059868e+05
   5.878606e+05  -1.035127e+05
   6.206536e+05   8.702955e+05
  -5.170064e+05   1.220926e+06
  -1.755772e+06   4.521377e+05
  -1.764394e+06  -9.043346e+05
  -3.794310e+05  -1.772408e+06
   1.151358e+06  -1.465646e+06
   1.475394e+06  -2.951299e+05
   5.343423e+05   7.092161e+05
  -5.163861e+05   7.672066e+05
  -6.545021e+05   7.150323e+04
   1.038740e+04  -5.017726e+05
   5.740313e+05  -3.823035e+05
   4.054558e+05   1.077731e+05
  -2.445524e+05   2.027096e+05
  -5.623362e+05  -3.680034e+05
   1.607809e+03  -1.010079e+06
   1.133272e+06  -8.603946e+05
   1.832099e+06   2.835341e+05
   1.318878e+06   1.656717e+06
  -1.389419e+05   2.172280e+06
  -1.414441e+06   1.417002e+06
  -1.630782e+06   3.331651e+04
  -9.837246e+05  -9.003310e+05
  -3.565791e+05  -8.827055e+05
  -2.581773e+05  -3.749249e+05
  -3.621647e+05  -1.852159e+05
  -7.120850e+04  -5.397728e+05
   6.854425e+05  -8.510898e+05
   1.308001e+06  -4.283318e+05
   1.089169e+06   6.490948e+05
  -9.073575e+04   1.460517e+06
  -1.512158e+06   1.107674e+06
  -2.062734e+06  -3.392174e+05
  -1.148679e+06  -1.792717e+06
   6.807047e+05  -2.099709e+06
   2.102525e+06  -1.081512e+06
   2.168321e+06   3.600151e+05
   1.106924e+06   1.153302e+06
  -3.627389e+04   1.038439e+06
  -4.735430e+05   6.398716e+05
  -3.067687e+05   6.398507e+05
  -1.857869e+05   9.953929e+05
  -5.174154e+05   1.032636e+06
  -1.052266e+06   2.712273e+05
  -1.164566e+06  -9.405621e+05
  -5.100868e+05  -1.670376e+06
   5.421218e+05  -1.281749e+06
   1.152271e+06  -5.841760e+04
   7.912991e+05   1.040032e+06
  -1.908327e+05   1.229712e+06
  -8.766235e+05   5.317053e+05
  -7.169424e+05  -3.725413e+05
  -7.220696e+04  -8.282772e+05
   2.602765e+05  -7.319803e+05
  -1.271685e+04  -4.498194e+05
  -3.520084e+05  -3.301681e+05
  -3.650841e+04  -3.546972e+05
   9.409660e+05  -2.368656e+05
   1.732224e+06   2.065406e+05
   1.448823e+06   8.122196e+05
   1.193958e+05   1.177035e+06
  -1.234928e+06   1.001779e+06
  -1.560470e+06   3.737408e+05
  -7.939678e+05  -2.574278e+05
   1.527713e+05  -4.331968e+05
   4.085709e+05  -1.074672e+05
  -1.224528e+04   2.735652e+05
  -4.376884e+05   2.068644e+05
  -4.123923e+05  -2.959221e+05
  -1.177514e+05  -6.659805e+05
   1.800413e+04  -4.276664e+05
  -1.345414e+05   1.682642e+05
  -3.345168e+05   3.641921e+05
  -2.711751e+05  -1.867854e+05
   1.651771e+05  -9.143120e+05
   7.679011e+05  -9.373562e+05
   1.060000e+06  -1.047719e+05
   6.314992e+05   7.943971e+05
  -3.438883e+05   9.043178e+05
  -1.023826e+06   2.089720e+05
  -6.403440e+05  -5.314772e+05
   5.791177e+05  -6.122729e+05
   1.463408e+06  -1.145237e+04
   1.067083e+06   7.175310e+05
  -2.960541e+05   9.877743e+05
  -1.356525e+06   6.206680e+05
  -1.207999e+06  -6.006383e+04
  -1.899606e+05  -4.836952e+05
   5.591965e+05  -3.088640e+05
   3.100749e+05   2.162498e+05
  -5.638318e+05   4.166071e+05
  -1.039625e+06  -1.382049e+05
  -5.100164e+05  -1.081456e+06
   6.205729e+05  -1.477183e+06
   1.365791e+06  -7.315769e+05
   1.125151e+06   7.015890e+05
   1.905299e+05   1.626100e+06
  -6.477264e+05   1.231636e+06
  -8.557831e+05  -7.298071e+04
  -4.810248e+05  -1.054706e+06
   8.825286e+04  -9.302435e+05
   4.758364e+05  -1.259361e+05
   4.932602e+05   3.499422e+05
   2.248921e+05   1.479666e+05
   1.349978e+04  -1.111837e+05
   1.475091e+05   2.045289e+05
   4.318346e+05   8.356517e+05
   2.799773e+05   9.859051e+05
  -5.304276e+05   3.861554e+05
  -1.347379e+06  -3.987763e+05
  -1.249668e+06  -7.350667e+05
  -1.879558e+05  -6.064962e+05
   8.352653e+05  -3.776483e+05
   9.105349e+05  -2.058925e+05
   2.628233e+05  -4.602540e+03
  -1.566784e+05   1.955569e+05
   5.731508e+04   2.316489e+05
   3.306739e+05   1.352331e+05
   1.022765e+04   1.233620e+05
  -6.892384e+05   1.791888e+05
  -9.246364e+05  -2.878369e+04
  -2.577980e+05  -5.960068e+05
   8.297469e+05  -1.002216e+06
   1.450473e+06  -6.240798e+05
   1.150332e+06   4.239082e+05
   2.194516e+05   1.270801e+06
  -6.510244e+05   1.206351e+06
  -9.311148e+05   4.269230e+05
  -5.992793e+05  -2.543070e+05
  -8.315829e+04  -3.168148e+05
   1.385893e+05  -4.188910e+03
  -4.547854e+04   7.737397e+04
  -3.139836e+05  -3.011089e+05
  -2.625330e+05  -7.219103e+05
   1.734616e+05  -5.888665e+05
   6.251547e+05   1.639735e+05
   6.122370e+05   9.026298e+05
   1.413822e+04   9.087747e+05
  -7.205448e+05   1.418406e+05
  -8.985989e+05  -7.140679e+05
  -2.617692e+05  -9.656096e+05
   6.455308e+05  -5.465466e+05
   9.577690e+05   8.412029e+04
   4.322489e+05   4.862068e+05
  -2.449190e+05   5.318490e+05
  -2.684161e+05   3.149355e+05
   2.948474e+05   3.844478e+04
   5.995754e+05  -2.537494e+04
   1.070150e+05   2.591575e+05
  -7.347298e+05   6.210911e+05
  -1.060583e+06   5.473729e+05
  -6.094051e+05  -9.358142e+04
   8.775559e+04  -7.472066e+05
   4.231426e+05  -7.390862e+05
   3.035180e+05  -9.510287e+04
   9.617655e+03   4.572417e+05
  -2.246283e+05   3.491999e+05
  -3.171880e+05  -1.962080e+05
  -2.186612e+05  -5.170082e+05
   6.137926e+04  -3.206714e+05
   3.456016e+05   6.747581e+04
   4.041910e+05   2.018303e+05
   2.176492e+05   4.370604e+04
   5.717936e+02  -8.083015e+04
  -7.652845e+04   6.936266e+04
  -8.164156e+04   3.553961e+05
  -1.710361e+05   4.143870e+05
  -3.220820e+05   7.382040e+04
  -3.197916e+05  -4.133736e+05
  -2.400779e+04  -5.846929e+05
   3.963860e+05  -2.481590e+05
   5.484469e+05   2.904205e+05
   1.933589e+05   5.371597e+05
  -4.320894e+05   3.186545e+05
  -7.482046e+05  -9.371054e+04
  -4.090277e+05  -3.371213e+05
   2.597918e+05  -3.085725e+05
   5.503842e+05  -1.449349e+05
   1.714852e+05  -8.071948e+03
  -3.797641e+05   6.242675e+03
  -3.902191e+05  -1.307202e+05
   2.102147e+05  -3.025871e+05
   7.604593e+05  -2.381763e+05
