
 $NMID
 id='ANONYMOUS ', fmtdat='(2E16.6)'
 volume=1.0
 tramp=1.0
 $END
  -3.614788e+07   2.716197e+05
  -2.284311e+07  -1.989567e+07
   2.605493e+06  -2.375784e+07
   1.664466e+07  -1.197283e+07
   1.159759e+07   1.802520e+06
  -8.043002e+05   6.173630e+06
  -6.680323e+06   1.023170e+06
  -3.439090e+06  -5.985788e+06
   2.875939e+06  -7.697867e+06
   6.381212e+06  -2.715577e+06
   5.143075e+06   4.223162e+06
   7.134539e+05   6.416979e+06
  -2.961498e+06   1.730582e+06
  -2.262562e+06  -4.671707e+06
   2.191134e+06  -5.614729e+06
   5.483494e+06   1.228588e+05
   3.650022e+06   6.752866e+06
  -1.991773e+06   8.227857e+06
  -6.646222e+06   4.088931e+06
  -7.029829e+06  -1.593497e+06
  -3.763348e+06  -4.926550e+06
  -3.967182e+04  -4.906388e+06
   1.142473e+06  -3.125913e+06
  -4.999677e+05  -2.090257e+06
  -1.920428e+06  -2.970738e+06
   2.240432e+05  -4.225012e+06
   5.118750e+06  -3.224041e+06
   7.811358e+06   2.899368e+05
   4.964409e+06   3.457631e+06
  -7.443595e+05   3.617459e+06
  -3.693360e+06   1.240535e+06
  -1.842845e+06  -1.130168e+06
   1.734355e+06  -1.667290e+06
   3.259226e+06  -1.904857e+05
   2.027140e+06   2.290238e+06
  -2.381310e+05   3.784044e+06
  -1.731965e+06   2.454064e+06
  -1.619413e+06  -8.617875e+05
  -2.947817e+05  -2.487430e+06
   6.246486e+05  -2.794133e+05
  -2.612038e+05   2.818665e+06
  -2.038325e+06   2.172730e+06
  -2.014540e+06  -1.936119e+06
   7.803603e+05  -4.108169e+06
   3.693306e+06  -9.893050e+05
   3.231990e+06   4.096644e+06
  -7.856127e+05   5.397335e+06
  -4.880371e+06   1.706476e+06
  -5.462649e+06  -2.966069e+06
  -2.081474e+06  -4.541602e+06
   2.451918e+06  -2.592993e+06
   4.489041e+06   5.462610e+05
   2.541950e+06   2.377564e+06
  -1.306069e+06   1.819892e+06
  -3.239992e+06  -2.579891e+05
  -1.656855e+06  -1.669311e+06
   1.080714e+06  -1.020610e+06
   1.585109e+06   6.387586e+05
  -3.723603e+05   1.082356e+06
  -1.813417e+06  -2.543032e+05
  -5.353006e+05  -1.693166e+06
   2.227983e+06  -1.549150e+06
   3.514322e+06   1.676207e+05
   1.916219e+06   2.364192e+06
  -1.426980e+06   3.896397e+06
  -4.252313e+06   3.655192e+06
  -4.881294e+06   1.055630e+06
  -3.163408e+06  -2.673438e+06
  -5.517686e+05  -4.807499e+06
   1.025845e+06  -3.913158e+06
   9.697703e+05  -1.641119e+06
   5.039145e+05  -6.149157e+05
   1.001998e+06  -1.092036e+06
   2.207977e+06  -1.054005e+06
   2.652783e+06   5.958902e+05
   1.522113e+06   2.387581e+06
  -4.811005e+05   2.248069e+06
  -1.918711e+06   8.435652e+04
  -1.728642e+06  -2.207323e+06
   1.416375e+05  -2.734920e+06
   2.498217e+06  -1.152239e+06
   3.475140e+06   1.323032e+06
   2.179392e+06   2.966117e+06
  -1.720706e+05   2.900432e+06
  -1.500546e+06   1.767188e+06
  -1.352073e+06   9.187695e+05
  -1.291957e+06   8.465018e+05
  -2.492895e+06   7.168548e+05
  -3.830126e+06  -4.100780e+05
  -3.189491e+06  -2.301004e+06
  -2.436977e+05  -3.722756e+06
   2.916361e+06  -3.587781e+06
   3.918184e+06  -1.790126e+06
   2.360356e+06   6.624554e+05
  -5.971341e+04   2.146500e+06
  -1.241849e+06   1.631225e+06
  -4.809651e+05  -1.427086e+05
   1.072116e+06  -1.155132e+06
   1.645744e+06  -3.478962e+05
   6.940306e+05   1.029854e+06
  -5.622244e+05   1.038433e+06
  -5.992904e+05  -3.021372e+05
   6.242363e+05  -9.629624e+05
   1.676855e+06   3.978464e+05
   1.277676e+06   2.625072e+06
  -4.965432e+05   3.419965e+06
  -2.487744e+06   1.895934e+06
  -3.422864e+06  -7.273484e+05
  -2.659671e+06  -2.557302e+06
  -6.343273e+05  -2.634633e+06
   1.210049e+06  -1.406636e+06
   1.518534e+06  -1.670339e+05
   4.557272e+05   3.401266e+04
  -3.515199e+05  -6.763918e+05
   2.784531e+05  -1.151680e+06
   1.582110e+06  -5.512377e+05
   1.803296e+06   6.329224e+05
   4.528794e+05   1.175983e+06
  -1.022727e+06   5.926825e+05
  -9.463245e+05  -3.789211e+05
   6.750670e+05  -6.935431e+05
   2.175551e+06  -6.163118e+03
   1.945377e+06   1.194984e+06
  -2.141701e+04   2.024009e+06
  -2.119947e+06   1.740458e+06
  -2.585122e+06   3.621927e+05
  -1.128433e+06  -1.068404e+06
   7.658533e+05  -1.280638e+06
   1.293948e+06  -1.707107e+05
   1.283679e+05   9.177803e+05
  -1.353542e+06   6.795735e+05
  -1.608370e+06  -6.167058e+05
  -4.705954e+05  -1.494458e+06
   8.748356e+05  -1.046609e+06
   1.196726e+06   1.032163e+05
   3.560200e+05   6.578402e+05
  -6.563133e+05   8.755340e+04
  -6.651824e+05  -9.364470e+05
   5.384518e+05  -1.301625e+06
   1.854862e+06  -4.927740e+05
   1.873285e+06   9.534875e+05
   3.920641e+05   1.883784e+06
  -1.245757e+06   1.539565e+06
  -1.564537e+06   2.790550e+05
  -5.324387e+05  -7.600486e+05
   5.604542e+05  -7.873780e+05
   6.556528e+05  -7.965959e+04
  -3.559953e+04   4.629077e+05
  -5.493050e+05   3.421737e+05
  -3.283242e+05  -8.531181e+04
   2.994479e+05  -1.180248e+05
   5.512728e+05   4.582390e+05
  -5.971814e+04   1.071333e+06
  -1.217466e+06   8.851912e+05
  -1.930810e+06  -3.183484e+05
  -1.386682e+06  -1.758423e+06
   1.522564e+05  -2.275111e+06
   1.480590e+06  -1.440928e+06
   1.664824e+06   1.167673e+03
   9.673096e+05   8.978108e+05
   3.650719e+05   8.201634e+05
   3.361767e+05   3.375274e+05
   4.449650e+05   2.314785e+05
   7.652503e+04   6.152423e+05
  -7.461321e+05   8.785976e+05
  -1.361639e+06   4.106908e+05
  -1.096299e+06  -6.691183e+05
   1.268200e+05  -1.476336e+06
   1.585238e+06  -1.119267e+06
   2.145107e+06   3.747213e+05
   1.165611e+06   1.898936e+06
  -7.791652e+05   2.203716e+06
  -2.252187e+06   1.085461e+06
  -2.245698e+06  -4.416483e+05
  -1.080055e+06  -1.209734e+06
   7.598739e+04  -1.018873e+06
   4.443770e+05  -6.159715e+05
   2.392286e+05  -6.925626e+05
   1.637249e+05  -1.107068e+06
   5.689848e+05  -1.123639e+06
   1.138226e+06  -2.912863e+05
   1.236651e+06   9.899438e+05
   5.392958e+05   1.756993e+06
  -5.664532e+05   1.348076e+06
  -1.205247e+06   4.689429e+04
  -8.096839e+05  -1.121139e+06
   2.481298e+05  -1.291723e+06
   9.662917e+05  -4.990431e+05
   7.481564e+05   4.728607e+05
   1.333303e+04   9.076413e+05
  -3.429400e+05   7.503430e+05
  -1.174382e+04   4.418770e+05
   3.847481e+05   3.352504e+05
   4.691585e+04   3.686005e+05
  -1.013781e+06   2.342559e+05
  -1.854220e+06  -2.417983e+05
  -1.519588e+06  -8.832747e+05
  -7.522945e+04  -1.265174e+06
   1.354573e+06  -1.057546e+06
   1.656817e+06  -3.549598e+05
   8.109413e+05   3.273543e+05
  -1.881965e+05   4.786167e+05
  -4.422142e+05   8.680152e+04
   7.286370e+02  -3.241868e+05
   4.440241e+05  -2.299621e+05
   4.406472e+05   3.116647e+05
   1.666930e+05   6.949422e+05
   2.012638e+04   4.526667e+05
   1.331038e+05  -1.488450e+05
   3.158213e+05  -3.513197e+05
   2.766854e+05   2.011506e+05
  -1.527663e+05   9.509551e+05
  -8.134447e+05   9.928805e+05
  -1.169255e+06   1.292800e+05
  -7.129528e+05  -8.424144e+05
   3.686719e+05  -9.905941e+05
   1.111815e+06  -2.553743e+05
   6.817691e+05   5.470609e+05
  -6.196689e+05   6.329089e+05
  -1.516434e+06  -1.154768e+04
  -1.062563e+06  -7.593734e+05
   3.493123e+05  -9.965698e+05
   1.406550e+06  -5.916009e+05
   1.226123e+06   9.126441e+04
   1.781106e+05   4.951839e+05
  -5.900843e+05   3.021792e+05
  -3.370856e+05  -2.431069e+05
   5.760074e+05  -4.609166e+05
   1.101195e+06   1.142879e+05
   5.772331e+05   1.125322e+06
  -6.075338e+05   1.575243e+06
  -1.415802e+06   8.021359e+05
  -1.186609e+06  -7.187257e+05
  -2.097859e+05  -1.696325e+06
   6.734688e+05  -1.269640e+06
   8.852831e+05   1.010525e+05
   4.764663e+05   1.104495e+06
  -1.244288e+05   9.492859e+05
  -5.070264e+05   1.154279e+05
  -4.919181e+05  -3.563854e+05
  -2.081683e+05  -1.413330e+05
  -2.372100e+04   1.057920e+05
  -1.932484e+05  -2.401576e+05
  -4.676880e+05  -8.857712e+05
  -2.603664e+05  -1.020575e+06
   5.942604e+05  -3.926979e+05
   1.406124e+06   4.137368e+05
   1.276907e+06   7.632491e+05
   1.927633e+05   6.415798e+05
  -8.458803e+05   4.049843e+05
  -9.410277e+05   2.079114e+05
  -2.973494e+05  -1.560744e+04
   1.526962e+05  -2.100119e+05
  -2.899588e+04  -2.204664e+05
  -3.134198e+05  -1.158185e+05
  -2.575970e+04  -1.292683e+05
   6.849827e+05  -2.105420e+05
   9.766888e+05   1.520963e+04
   3.267103e+05   6.378285e+05
  -8.336158e+05   1.083425e+06
  -1.547723e+06   6.869900e+05
  -1.258558e+06  -4.235862e+05
  -2.534710e+05  -1.328518e+06
   6.878531e+05  -1.281559e+06
   9.793941e+05  -4.788689e+05
   6.284020e+05   2.422686e+05
   1.049503e+05   3.350440e+05
  -1.169207e+05   3.108580e+04
   5.574570e+04  -5.524108e+04
   3.130606e+05   3.230787e+05
   2.653721e+05   7.547461e+05
  -1.720218e+05   6.283135e+05
  -6.538627e+05  -1.426025e+05
  -6.741410e+05  -9.225811e+05
  -6.059541e+04  -9.635744e+05
   7.388301e+05  -1.914480e+05
   9.652208e+05   7.127662e+05
   3.054996e+05   1.017307e+06
  -6.715508e+05   6.060862e+05
  -1.025657e+06  -7.288869e+04
  -4.748472e+05  -5.339485e+05
   2.597564e+05  -5.922359e+05
   3.092291e+05  -3.367343e+05
  -2.802570e+05  -2.163976e+04
  -6.221803e+05   3.771804e+04
  -1.247067e+05  -2.789943e+05
   7.664818e+05  -6.539159e+05
   1.133916e+06  -5.560751e+05
   6.692948e+05   1.224140e+05
  -8.494759e+04   7.987482e+05
  -4.679310e+05   7.894119e+05
  -3.526344e+05   1.213019e+05
  -3.245696e+04  -4.694960e+05
   2.292563e+05  -3.868695e+05
   3.368492e+05   1.749867e+05
   2.389783e+05   5.408817e+05
  -5.728168e+04   3.644617e+05
  -3.666046e+05  -5.549218e+04
  -4.339925e+05  -2.296149e+05
  -2.271723e+05  -6.180383e+04
   1.164897e+04   1.090972e+05
   7.443196e+04  -2.731124e+04
   4.066779e+04  -3.608748e+05
   1.236208e+05  -4.754917e+05
   3.262861e+05  -1.349992e+05
   3.822724e+05   4.021103e+05
   8.220383e+04   6.161251e+05
  -4.014224e+05   2.807420e+05
  -6.009315e+05  -2.831685e+05
  -2.247498e+05  -5.530020e+05
   4.602515e+05  -3.424218e+05
   8.061378e+05   8.024620e+04
   4.419881e+05   3.506465e+05
  -2.726495e+05   3.485601e+05
  -5.881046e+05   1.834609e+05
  -2.033381e+05   1.211761e+04
   3.702969e+05  -3.751627e+04
   4.029900e+05   9.960783e+04
  -1.895826e+05   3.040816e+05
  -7.544628e+05   2.645925e+05
