
 $NMID
 id='ANONYMOUS ', fmtdat='(2E16.6)'
 volume=1.0
 tramp=1.0
 $END
   2.428210e+07   1.215216e+05
   1.595922e+07   1.219771e+07
  -6.644315e+05   1.564683e+07
  -1.089452e+07   9.484222e+06
  -8.607129e+06   2.047676e+05
  -1.471411e+05  -4.366638e+06
   4.907791e+06  -1.675483e+06
   3.277479e+06   4.049650e+06
  -1.515722e+06   6.291057e+06
  -4.570583e+06   2.601261e+06
  -3.767534e+06  -3.128639e+06
  -4.069412e+05  -4.891966e+06
   2.273058e+06  -1.049064e+06
   1.709658e+06   3.970560e+06
  -1.532522e+06   4.644081e+06
  -4.007206e+06   2.638358e+05
  -2.832769e+06  -4.766530e+06
   1.227382e+06  -5.919302e+06
   4.621404e+06  -2.808552e+06
   4.707167e+06   1.346742e+06
   2.130278e+06   3.382388e+06
  -2.444062e+05   2.846636e+06
  -2.960721e+05   1.658531e+06
   1.328545e+06   1.762067e+06
   1.872241e+06   3.099068e+06
  -5.750170e+05   3.762069e+06
  -4.543472e+06   2.209166e+06
  -6.195556e+06  -8.227720e+05
  -3.488405e+06  -2.945909e+06
   1.162616e+06  -2.582689e+06
   3.294600e+06  -4.133804e+05
   1.290723e+06   1.523842e+06
  -2.116150e+06   1.646890e+06
  -3.293059e+06  -1.479062e+05
  -1.582296e+06  -2.465278e+06
   7.579596e+05  -3.248003e+06
   1.552932e+06  -1.545501e+06
   7.144625e+05   1.067418e+06
  -3.572359e+05   1.704900e+06
  -4.224164e+05  -4.255440e+05
   6.176156e+05  -2.617806e+06
   1.736686e+06  -1.819459e+06
   1.604983e+06   1.298372e+06
  -1.137373e+05   2.924030e+06
  -2.047450e+06   8.905409e+05
  -2.116799e+06  -2.574707e+06
   3.124036e+05  -3.607621e+06
   3.380911e+06  -1.171619e+06
   4.241986e+06   2.212396e+06
   1.836566e+06   3.564316e+06
  -1.893279e+06   2.215175e+06
  -3.732131e+06  -2.553421e+05
  -2.260997e+06  -1.802823e+06
   8.007445e+05  -1.477227e+06
   2.411898e+06   4.703955e+04
   1.337344e+06   1.139925e+06
  -7.482490e+05   7.614353e+05
  -1.345490e+06  -4.833398e+05
   2.017958e+04  -1.069940e+06
   1.428854e+06  -3.187757e+05
   9.515467e+05   9.126237e+05
  -1.086880e+06   1.278030e+06
  -2.480121e+06   2.637583e+05
  -1.532273e+06  -1.529233e+06
   1.214166e+06  -2.883507e+06
   3.578517e+06  -2.638338e+06
   3.834643e+06  -5.249639e+05
   2.163849e+06   2.250974e+06
   1.953738e+05   3.745250e+06
  -7.118222e+05   3.142914e+06
  -6.418264e+05   1.619739e+06
  -6.480957e+05   8.449389e+05
  -1.347166e+06   9.217943e+05
  -2.213434e+06   5.269781e+05
  -2.234034e+06  -9.665523e+05
  -1.028366e+06  -2.352269e+06
   7.384377e+05  -1.999845e+06
   1.858101e+06   7.803392e+04
   1.458390e+06   2.101745e+06
  -2.956810e+05   2.345349e+06
  -2.145172e+06   7.306287e+05
  -2.633363e+06  -1.330980e+06
  -1.436004e+06  -2.364141e+06
   2.637529e+05  -2.036320e+06
   1.050011e+06  -1.167581e+06
   8.756992e+05  -7.173318e+05
   9.757452e+05  -7.930939e+05
   2.081186e+06  -6.542497e+05
   3.201520e+06   3.548707e+05
   2.646371e+06   1.977965e+06
   1.280926e+05   3.167147e+06
  -2.610791e+06   2.960325e+06
  -3.441129e+06   1.306214e+06
  -1.941008e+06  -7.748886e+05
   2.762269e+05  -1.856028e+06
   1.220221e+06  -1.266323e+06
   3.859771e+05   1.916575e+05
  -9.914704e+05   9.236533e+05
  -1.376306e+06   2.307950e+05
  -4.904657e+05  -8.674292e+05
   5.661718e+05  -8.686201e+05
   6.011116e+05   2.717678e+05
  -4.326107e+05   9.689158e+05
  -1.456818e+06  -4.942929e+04
  -1.332797e+06  -2.074246e+06
   1.427049e+05  -3.087624e+06
   2.071304e+06  -1.937848e+06
   3.098263e+06   5.056149e+05
   2.424326e+06   2.326181e+06
   5.259281e+05   2.390341e+06
  -1.118736e+06   1.176487e+06
  -1.329133e+06   6.003213e+04
  -3.880752e+05  -4.383656e+04
   2.874141e+05   5.863983e+05
  -2.295201e+05   9.454335e+05
  -1.297476e+06   4.322941e+05
  -1.500345e+06  -5.234520e+05
  -3.952604e+05  -9.756786e+05
   8.791765e+05  -5.067943e+05
   8.616007e+05   3.489856e+05
  -5.626697e+05   6.773952e+05
  -1.953241e+06   5.760266e+04
  -1.777577e+06  -1.086256e+06
   9.336246e+03  -1.836757e+06
   1.884880e+06  -1.508088e+06
   2.241399e+06  -2.605239e+05
   9.318216e+05   9.126716e+05
  -6.608616e+05   1.023632e+06
  -1.047597e+06   1.023572e+05
  -5.404045e+04  -7.526607e+05
   1.163028e+06  -5.345364e+05
   1.370227e+06   5.414201e+05
   4.210203e+05   1.293416e+06
  -7.379846e+05   9.388937e+05
  -1.051531e+06  -5.154192e+04
  -3.452437e+05  -5.597402e+05
   5.326507e+05  -7.867349e+04
   5.346937e+05   8.046047e+05
  -5.055218e+05   1.087442e+06
  -1.600826e+06   3.518601e+05
  -1.563258e+06  -8.742093e+05
  -2.847045e+05  -1.611304e+06
   1.084799e+06  -1.284278e+06
   1.339601e+06  -2.186763e+05
   4.603801e+05   6.584572e+05
  -4.921427e+05   6.789419e+05
  -6.010611e+05   4.183642e+04
   1.858858e+04  -4.643619e+05
   5.366712e+05  -3.403380e+05
   3.796820e+05   1.090890e+05
  -2.152646e+05   1.879492e+05
  -4.981502e+05  -3.364372e+05
   2.465901e+04  -9.071958e+05
   1.045215e+06  -7.428192e+05
   1.644040e+06   3.113968e+05
   1.137340e+06   1.536020e+06
  -1.953417e+05   1.957571e+06
  -1.323130e+06   1.239129e+06
  -1.477964e+06  -1.742726e+04
  -8.671154e+05  -8.488622e+05
  -2.963567e+05  -8.214425e+05
  -2.136330e+05  -3.552784e+05
  -3.114174e+05  -1.743445e+05
  -4.631431e+04  -4.808892e+05
   6.394410e+05  -7.465097e+05
   1.192047e+06  -3.523646e+05
   9.687360e+05   6.175907e+05
  -1.205509e+05   1.320843e+06
  -1.397716e+06   9.587728e+05
  -1.853866e+06  -3.680860e+05
  -9.855026e+05  -1.652952e+06
   6.737754e+05  -1.873850e+06
   1.927189e+06  -9.144142e+05
   1.949260e+06   3.868860e+05
   9.729440e+05   1.076128e+06
  -5.955648e+04   9.453610e+05
  -4.536895e+05   5.714438e+05
  -3.094781e+05   5.673704e+05
  -2.064871e+05   8.852651e+05
  -4.989146e+05   9.095412e+05
  -9.550477e+05   2.088885e+05
  -1.019473e+06  -8.875237e+05
  -4.059121e+05  -1.525326e+06
   5.321808e+05  -1.140213e+06
   1.043779e+06  -1.736883e+04
   6.836726e+05   9.608902e+05
  -2.058521e+05   1.103507e+06
  -8.017244e+05   4.590589e+05
  -6.345617e+05  -3.481357e+05
  -4.640214e+04  -7.439366e+05
   2.488216e+05  -6.542841e+05
  -3.816623e+02  -4.104664e+05
  -3.046562e+05  -3.104024e+05
  -2.065448e+04  -3.210391e+05
   8.523956e+05  -1.852805e+05
   1.551481e+06   2.384112e+05
   1.282128e+06   7.756569e+05
   7.681641e+04   1.062771e+06
  -1.139755e+06   8.635977e+05
  -1.418675e+06   2.914039e+05
  -7.112810e+05  -2.504552e+05
   1.482189e+05  -3.823350e+05
   3.697939e+05  -8.737671e+04
  -2.220240e+04   2.402881e+05
  -4.034855e+05   1.696601e+05
  -3.606015e+05  -2.803872e+05
  -7.816631e+04  -6.052679e+05
   3.597763e+04  -3.852321e+05
  -1.269776e+05   1.513981e+05
  -3.177460e+05   3.237384e+05
  -2.404335e+05  -1.745846e+05
   1.797382e+05  -8.206293e+05
   7.211514e+05  -8.212025e+05
   9.523296e+05  -5.874071e+04
   5.377963e+05   7.361654e+05
  -3.384384e+05   7.994814e+05
  -9.255751e+05   1.502228e+05
  -5.591588e+05  -5.019321e+05
   5.407374e+05  -5.347227e+05
   1.323306e+06   3.383487e+04
   9.476759e+05   6.804350e+05
  -2.931544e+05   8.867729e+05
  -1.246164e+06   5.248782e+05
  -1.094226e+06  -8.874527e+04
  -1.589616e+05  -4.444598e+05
   5.146982e+05  -2.640054e+05
   2.717733e+05   2.033700e+05
  -5.249272e+05   3.552275e+05
  -9.333405e+05  -1.626551e+05
  -4.196558e+05  -9.946403e+05
   6.147158e+05  -1.310002e+06
   1.259336e+06  -6.108385e+05
   9.917078e+05   6.725601e+05
   1.175219e+05   1.475257e+06
  -6.253739e+05   1.093878e+06
  -7.718381e+05  -8.988242e+04
  -4.044547e+05  -9.678783e+05
   1.048007e+05  -8.411789e+05
   4.326022e+05  -1.012724e+05
   4.381406e+05   3.332538e+05
   2.026646e+05   1.430067e+05
   1.464776e+04  -1.013789e+05
   1.211401e+05   1.859116e+05
   3.606391e+05   7.674883e+05
   2.253610e+05   9.014305e+05
  -4.861445e+05   3.331135e+05
  -1.204468e+06  -4.046132e+05
  -1.109128e+06  -7.052058e+05
  -1.507355e+05  -5.525496e+05
   7.704894e+05  -3.124228e+05
   8.306164e+05  -1.575821e+05
   2.341309e+05   1.343299e+03
  -1.498020e+05   1.706203e+05
   4.858560e+04   2.138416e+05
   2.993678e+05   1.361553e+05
   3.632440e+03   1.117507e+05
  -6.334280e+05   1.365491e+05
  -8.331393e+05  -5.792866e+04
  -2.053802e+05  -5.447394e+05
   7.871341e+05  -8.733294e+05
   1.326031e+06  -5.115755e+05
   1.017103e+06   4.230800e+05
   1.535671e+05   1.154877e+06
  -6.257817e+05   1.065700e+06
  -8.538899e+05   3.511963e+05
  -5.331814e+05  -2.521916e+05
  -6.269206e+04  -2.884306e+05
   1.293349e+05   4.320948e+03
  -4.228982e+04   7.217309e+04
  -2.762795e+05  -2.808766e+05
  -2.153851e+05  -6.609296e+05
   1.772738e+05  -5.249767e+05
   5.598710e+05   1.724967e+05
   5.190841e+05   8.386718e+05
  -2.355626e+04   8.196907e+05
  -6.577881e+05   9.837012e+04
  -7.847452e+05  -6.792366e+05
  -2.004447e+05  -8.795402e+05
   6.012109e+05  -4.676910e+05
   8.588850e+05   1.090367e+05
   3.716546e+05   4.493592e+05
  -2.376523e+05   4.674830e+05
  -2.486085e+05   2.751225e+05
   2.688288e+05   4.714071e+04
   5.429095e+05  -2.000198e+03
   8.638156e+04   2.362467e+05
  -6.841252e+05   5.365002e+05
  -9.722193e+05   4.623458e+05
  -5.427032e+05  -1.008119e+05
   1.046471e+05  -6.695513e+05
   4.024909e+05  -6.513886e+05
   2.719757e+05  -7.289707e+04
  -9.448320e+03   4.144566e+05
  -2.149137e+05   3.049041e+05
  -2.792619e+05  -1.918648e+05
  -1.792335e+05  -4.739918e+05
   6.682682e+04  -2.833899e+05
   3.092546e+05   7.441581e+04
   3.568968e+05   1.928078e+05
   1.951581e+05   4.421537e+04
   4.845472e+03  -6.946890e+04
  -7.221000e+04   6.673407e+04
  -9.181442e+04   3.199586e+05
  -1.760355e+05   3.625693e+05
  -2.948384e+05   4.770641e+04
  -2.683807e+05  -3.881732e+05
   5.628687e+03  -5.281368e+05
   3.679077e+05  -2.081763e+05
   4.819247e+05   2.829890e+05
   1.540329e+05   4.926406e+05
  -3.993001e+05   2.725225e+05
  -6.693424e+05  -1.114266e+05
  -3.564699e+05  -3.180826e+05
   2.446231e+05  -2.665435e+05
   5.001032e+05  -1.082767e+05
   1.515473e+05  -1.035507e+03
  -3.473595e+05  -1.124823e+04
  -3.490240e+05  -1.363411e+05
   2.042515e+05  -2.683820e+05
   7.006871e+05  -1.881138e+05
