
 $NMID
 id='ANONYMOUS ', fmtdat='(2E16.6)'
 volume=1.0
 tramp=1.0
 $END
   1.586488e+07   5.028975e+05
   1.047626e+07   7.511931e+06
  -6.758219e+04   9.948653e+06
  -6.896423e+06   6.761162e+06
  -5.887529e+06   8.637769e+05
  -4.698035e+05  -2.814440e+06
   3.245601e+06  -1.530495e+06
   2.523663e+06   2.546038e+06
  -7.268923e+05   4.514367e+06
  -3.025933e+06   2.042856e+06
  -2.593813e+06  -2.122441e+06
  -2.877483e+05  -3.419535e+06
   1.561238e+06  -6.455982e+05
   1.193097e+06   2.927887e+06
  -1.004231e+06   3.397911e+06
  -2.742394e+06   3.247291e+05
  -2.023726e+06  -3.226792e+06
   7.540529e+05  -4.083424e+06
   3.129349e+06  -1.901158e+06
   3.121707e+06   1.016919e+06
   1.218986e+06   2.291673e+06
  -3.227727e+05   1.674639e+06
   7.272566e+03   8.508230e+05
   1.376349e+06   1.288647e+06
   1.558381e+06   2.554956e+06
  -5.608888e+05   2.927005e+06
  -3.512426e+06   1.479752e+06
  -4.501564e+06  -8.295105e+05
  -2.336266e+06  -2.196700e+06
   1.069755e+06  -1.729197e+06
   2.516454e+06  -6.289531e+04
   8.722520e+05   1.358789e+06
  -1.808989e+06   1.360483e+06
  -2.695346e+06  -1.700785e+05
  -1.224556e+06  -2.032611e+06
   6.993723e+05  -2.500209e+06
   1.191780e+06  -1.010821e+06
   3.201437e+05   9.211297e+05
  -5.005073e+05   1.143219e+06
  -3.183098e+05  -5.768258e+05
   5.854309e+05  -2.080583e+06
   1.305519e+06  -1.381104e+06
   1.154821e+06   8.203493e+05
   9.674403e+04   1.930772e+06
  -1.118167e+06   6.186353e+05
  -1.288341e+06  -1.628877e+06
   1.734121e+05  -2.321450e+06
   2.277329e+06  -7.324581e+05
   3.025644e+06   1.566609e+06
   1.407056e+06   2.558516e+06
  -1.321353e+06   1.661803e+06
  -2.749407e+06  -8.862193e+04
  -1.752874e+06  -1.217955e+06
   4.357419e+05  -1.037784e+06
   1.638680e+06  -3.468108e+04
   9.696406e+05   7.021645e+05
  -4.761953e+05   5.002781e+05
  -9.987158e+05  -3.129204e+05
  -1.283968e+05  -8.132473e+05
   9.708582e+05  -4.491849e+05
   8.613678e+05   4.184003e+05
  -5.107136e+05   8.858400e+05
  -1.652321e+06   3.421517e+05
  -1.104392e+06  -9.683410e+05
   9.225967e+05  -2.047069e+06
   2.705989e+06  -1.866285e+06
   2.807033e+06  -2.753312e+05
   1.461657e+06   1.705820e+06
   6.710828e+04   2.707651e+06
  -4.406032e+05   2.299303e+06
  -3.715811e+05   1.325425e+06
  -5.517613e+05   8.117068e+05
  -1.221659e+06   7.435181e+05
  -1.831923e+06   2.752256e+05
  -1.704468e+06  -9.060489e+05
  -6.962315e+05  -1.895389e+06
   6.584029e+05  -1.542881e+06
   1.473021e+06   9.697852e+04
   1.105042e+06   1.645517e+06
  -2.685123e+05   1.770307e+06
  -1.622334e+06   4.690081e+05
  -1.884693e+06  -1.075228e+06
  -9.455368e+05  -1.734586e+06
   2.436288e+05  -1.390932e+06
   7.207194e+05  -7.651001e+05
   5.663156e+05  -5.215600e+05
   6.898007e+05  -6.291131e+05
   1.557892e+06  -5.147908e+05
   2.407899e+06   2.627651e+05
   1.991388e+06   1.493072e+06
   8.118011e+04   2.394395e+06
  -2.015163e+06   2.222616e+06
  -2.640156e+06   9.340861e+05
  -1.445332e+06  -6.490343e+05
   2.814759e+05  -1.416692e+06
   9.636739e+05  -9.219566e+05
   2.689317e+05   1.621899e+05
  -7.718200e+05   6.696369e+05
  -1.010548e+06   1.508392e+05
  -3.280280e+05  -6.394576e+05
   4.383775e+05  -6.377033e+05
   4.652435e+05   2.032219e+05
  -2.821569e+05   7.620525e+05
  -1.083273e+06   5.823942e+04
  -1.090939e+06  -1.487123e+06
  -2.548668e+04  -2.370432e+06
   1.514643e+06  -1.587846e+06
   2.408578e+06   3.033234e+05
   1.917963e+06   1.778729e+06
   4.164188e+05   1.855924e+06
  -8.702332e+05   8.987240e+05
  -1.017590e+06   3.340655e+04
  -2.942419e+05  -3.072754e+04
   2.085251e+05   4.435629e+05
  -1.736981e+05   6.905709e+05
  -9.528520e+05   3.053930e+05
  -1.101629e+06  -3.813308e+05
  -2.922464e+05  -7.047202e+05
   6.570758e+05  -3.647139e+05
   6.526333e+05   2.747929e+05
  -4.311014e+05   5.361070e+05
  -1.513887e+06   6.273563e+04
  -1.390243e+06  -8.371556e+05
  -5.600753e+03  -1.425302e+06
   1.442390e+06  -1.158201e+06
   1.701902e+06  -1.961808e+05
   6.944194e+05   6.763379e+05
  -4.943451e+05   7.430191e+05
  -7.610693e+05   6.478714e+04
  -1.643885e+04  -5.500536e+05
   8.764780e+05  -3.841915e+05
   1.027750e+06   4.064482e+05
   3.288366e+05   9.683008e+05
  -5.383931e+05   7.161510e+05
  -7.863900e+05  -2.063261e+04
  -2.637326e+05  -4.050420e+05
   3.943004e+05  -4.088127e+04
   3.846856e+05   6.249547e+05
  -4.116141e+05   8.205825e+05
  -1.228859e+06   2.424218e+05
  -1.176888e+06  -6.828230e+05
  -2.035885e+05  -1.219076e+06
   8.182274e+05  -9.637408e+05
   1.003676e+06  -1.707772e+05
   3.473527e+05   4.836421e+05
  -3.683441e+05   5.043573e+05
  -4.557031e+05   2.347436e+04
   1.918326e+04  -3.674620e+05
   4.318569e+05  -2.679570e+05
   3.184200e+05   9.742462e+04
  -1.560364e+05   1.718009e+05
  -3.935307e+05  -2.403670e+05
   8.191715e+03  -6.932504e+05
   7.990004e+05  -5.667998e+05
   1.252538e+06   2.459607e+05
   8.560722e+05   1.176755e+06
  -1.565582e+05   1.492098e+06
  -1.008774e+06   9.505592e+05
  -1.135874e+06  -2.678103e+03
  -6.842814e+05  -6.530033e+05
  -2.405230e+05  -6.537140e+05
  -1.529693e+05  -2.944920e+05
  -2.206045e+05  -1.345303e+05
  -3.271958e+04  -3.625792e+05
   4.862717e+05  -5.790154e+05
   9.246071e+05  -2.795520e+05
   7.628845e+05   4.817615e+05
  -8.532095e+04   1.031277e+06
  -1.078357e+06   7.408746e+05
  -1.422323e+06  -2.879690e+05
  -7.482552e+05  -1.262207e+06
   5.129821e+05  -1.417950e+06
   1.458803e+06  -6.918886e+05
   1.483154e+06   2.864805e+05
   7.554627e+05   8.161573e+05
  -3.439986e+04   7.346225e+05
  -3.580425e+05   4.536900e+05
  -2.627716e+05   4.337723e+05
  -1.752955e+05   6.598882e+05
  -3.813462e+05   6.770206e+05
  -7.207980e+05   1.482637e+05
  -7.673823e+05  -6.837506e+05
  -2.975591e+05  -1.164302e+06
   4.139103e+05  -8.635479e+05
   7.937942e+05  -8.244477e+03
   5.156174e+05   7.287262e+05
  -1.527863e+05   8.345923e+05
  -5.973478e+05   3.532993e+05
  -4.750803e+05  -2.510265e+05
  -4.091336e+04  -5.532225e+05
   1.775853e+05  -4.937082e+05
  -7.379353e+03  -3.154758e+05
  -2.327743e+05  -2.426137e+05
  -1.533125e+04  -2.498291e+05
   6.474528e+05  -1.400192e+05
   1.177690e+06   1.892848e+05
   9.717753e+05   5.944712e+05
   5.633031e+04   8.000825e+05
  -8.647013e+05   6.435842e+05
  -1.073797e+06   2.194680e+05
  -5.376835e+05  -1.807252e+05
   1.118730e+05  -2.840568e+05
   2.783012e+05  -6.963185e+04
  -2.044278e+04   1.792038e+05
  -3.106240e+05   1.312832e+05
  -2.745168e+05  -2.134573e+05
  -5.248427e+04  -4.679525e+05
   3.613516e+04  -2.968110e+05
  -9.723104e+04   1.239817e+05
  -2.521533e+05   2.557489e+05
  -1.888600e+05  -1.382396e+05
   1.447534e+05  -6.370139e+05
   5.605501e+05  -6.236040e+05
   7.246445e+05  -2.786053e+04
   3.979398e+05   5.716835e+05
  -2.668156e+05   6.018754e+05
  -7.060315e+05   1.009501e+05
  -4.256138e+05  -3.880399e+05
   4.107481e+05  -4.078610e+05
   1.012053e+06   2.249821e+04
   7.331583e+05   5.159113e+05
  -2.146187e+05   6.814170e+05
  -9.512411e+05   4.099924e+05
  -8.407899e+05  -6.321286e+04
  -1.245168e+05  -3.400956e+05
   3.909176e+05  -2.011099e+05
   2.005949e+05   1.562498e+05
  -4.099487e+05   2.651438e+05
  -7.134861e+05  -1.370721e+05
  -3.087869e+05  -7.681832e+05
   4.849696e+05  -9.977953e+05
   9.698949e+05  -4.580596e+05
   7.558604e+05   5.196611e+05
   8.473969e+04   1.129524e+06
  -4.801138e+05   8.381189e+05
  -5.891998e+05  -6.646816e+04
  -3.093586e+05  -7.392668e+05
   7.753599e+04  -6.430128e+05
   3.293591e+05  -7.583752e+04
   3.381924e+05   2.569324e+05
   1.589430e+05   1.100228e+05
   8.029885e+03  -7.743268e+04
   8.190573e+04   1.432538e+05
   2.676798e+05   5.873063e+05
   1.746117e+05   6.862970e+05
  -3.646958e+05   2.493366e+05
  -9.192825e+05  -3.133087e+05
  -8.508234e+05  -5.401861e+05
  -1.136625e+05  -4.221520e+05
   5.954541e+05  -2.385272e+05
   6.367484e+05  -1.200518e+05
   1.735979e+05   1.023358e+03
  -1.164586e+05   1.295714e+05
   4.518998e+04   1.636708e+05
   2.368785e+05   1.073159e+05
  -1.162846e+03   8.886065e+04
  -4.943403e+05   1.022514e+05
  -6.369097e+05  -5.213540e+04
  -1.437984e+05  -4.216694e+05
   6.141589e+05  -6.622556e+05
   1.014129e+06  -3.770397e+05
   7.697771e+05   3.362100e+05
   1.098680e+05   8.865494e+05
  -4.844167e+05   8.093066e+05
  -6.586224e+05   2.592395e+05
  -4.095451e+05  -2.004402e+05
  -4.244123e+04  -2.234164e+05
   1.071312e+05   4.991536e+03
  -2.867545e+04   5.827247e+04
  -2.114042e+05  -2.135364e+05
  -1.619969e+05  -5.053642e+05
   1.416788e+05  -3.983738e+05
   4.298581e+05   1.401433e+05
   3.891306e+05   6.502085e+05
  -3.013242e+04   6.285198e+05
  -5.095880e+05   6.737583e+04
  -5.968649e+05  -5.297334e+05
  -1.444894e+05  -6.753952e+05
   4.658964e+05  -3.507251e+05
   6.547324e+05   9.199066e+04
   2.757671e+05   3.447476e+05
  -1.883601e+05   3.508865e+05
  -1.886877e+05   2.038441e+05
   2.118731e+05   3.534208e+04
   4.178063e+05   1.362196e+03
   6.275845e+04   1.813774e+05
  -5.254656e+05   4.069327e+05
  -7.388123e+05   3.492179e+05
  -4.065481e+05  -7.865627e+04
   8.522807e+04  -5.090187e+05
   3.078291e+05  -4.910301e+05
   2.055867e+05  -4.772077e+04
  -1.072688e+04   3.207225e+05
  -1.687747e+05   2.301176e+05
  -2.157781e+05  -1.525770e+05
  -1.338205e+05  -3.641964e+05
   5.646478e+04  -2.128177e+05
   2.367674e+05   6.089713e+04
   2.679297e+05   1.469852e+05
   1.473092e+05   3.172661e+04
   8.946699e+03  -5.086230e+04
  -5.102271e+04   5.825098e+04
  -7.695753e+04   2.508154e+05
  -1.488830e+05   2.762429e+05
  -2.334265e+05   2.799861e+04
  -1.999463e+05  -3.074085e+05
   1.517072e+04  -4.095116e+05
   2.864768e+05  -1.563228e+05
   3.659193e+05   2.243940e+05
   1.135922e+05   3.814588e+05
  -3.063147e+05   2.046690e+05
  -5.097866e+05  -9.324012e+04
  -2.691790e+05  -2.463661e+05
   1.906373e+05  -1.984295e+05
   3.837731e+05  -7.459099e+04
   1.123227e+05   2.428661e+03
  -2.724895e+05  -1.212769e+04
  -2.705251e+05  -1.103598e+05
   1.602940e+05  -2.090695e+05
   5.437002e+05  -1.432399e+05
