
 $NMID
 id='ANONYMOUS ', fmtdat='(2E16.6)'
 volume=1.0
 tramp=1.0
 $END
   5.247771e+07  -1.262226e+06
   3.293967e+07   3.094525e+07
  -5.246207e+06   3.560140e+07
  -2.524854e+07   1.530050e+07
  -1.615705e+07  -5.262498e+06
   2.405831e+06  -8.965590e+06
   9.510246e+06   2.796514e+05
   3.454568e+06   9.103449e+06
  -5.333751e+06   9.594034e+06
  -9.165745e+06   2.589414e+06
  -6.866135e+06  -5.792982e+06
  -9.162136e+05  -8.357778e+06
   3.813079e+06  -2.584330e+06
   2.663733e+06   5.525576e+06
  -3.429690e+06   6.741166e+06
  -7.599019e+06  -8.447278e+05
  -4.632432e+06  -9.569950e+06
   3.177686e+06  -1.135673e+07
   9.376670e+06  -5.804714e+06
   1.011222e+07   1.800937e+06
   6.123304e+06   6.828870e+06
   7.377036e+05   7.750669e+06
  -2.229545e+06   5.482589e+06
  -1.061755e+06   2.859171e+06
   1.376761e+06   2.715465e+06
   2.000972e+04   4.434919e+06
  -5.611912e+06   4.194409e+06
  -9.543341e+06   2.693304e+05
  -6.736617e+06  -4.052803e+06
   4.415477e+04  -4.760844e+06
   3.870981e+06  -2.185150e+06
   2.287905e+06   3.977668e+05
  -1.170210e+06   1.160811e+06
  -2.790965e+06   2.751681e+05
  -2.172102e+06  -1.877453e+06
  -3.366861e+05  -4.061067e+06
   1.816261e+06  -3.559518e+06
   2.755534e+06   2.890481e+05
   1.345129e+06   3.327379e+06
  -6.328717e+05   1.427745e+06
  -5.983344e+04  -2.711042e+06
   2.489949e+06  -2.418541e+06
   2.529289e+06   2.925496e+06
  -1.848805e+06   5.909312e+06
  -6.187642e+06   1.300464e+06
  -4.927574e+06  -6.201836e+06
   1.421931e+06  -7.996644e+06
   6.924317e+06  -2.455590e+06
   6.943072e+06   4.143828e+06
   2.123359e+06   5.931717e+06
  -3.356201e+06   2.906336e+06
  -5.408579e+06  -1.260280e+06
  -2.698417e+06  -3.356366e+06
   2.154984e+06  -2.282232e+06
   4.401902e+06   6.715299e+05
   2.037647e+06   2.507787e+06
  -1.578942e+06   1.370103e+06
  -1.826942e+06  -9.623220e+05
   1.078934e+06  -1.126054e+06
   2.522619e+06   1.265286e+06
  -8.434256e+04   3.114178e+06
  -4.013280e+06   2.074350e+06
  -5.080999e+06  -8.889363e+05
  -2.427651e+06  -3.625122e+06
   1.727137e+06  -5.113353e+06
   5.022898e+06  -4.720560e+06
   6.077712e+06  -1.637893e+06
   4.354035e+06   3.119516e+06
   9.002992e+05   6.054054e+06
  -1.657783e+06   4.832714e+06
  -1.644163e+06   1.525107e+06
  -3.941391e+05   2.876095e+04
  -3.971145e+05   9.878267e+05
  -1.906643e+06   1.546126e+06
  -2.873540e+06  -9.438862e+04
  -1.903376e+06  -2.229648e+06
   2.135070e+05  -2.292849e+06
   1.802664e+06  -1.127310e+05
   1.777467e+06   2.312396e+06
  -7.771525e+04   3.059137e+06
  -2.838746e+06   1.565162e+06
  -4.376746e+06  -1.295494e+06
  -3.072544e+06  -3.665620e+06
   2.098763e+04  -4.002555e+06
   2.083240e+06  -2.589260e+06
   2.047236e+06  -1.191297e+06
   1.785038e+06  -8.239981e+05
   3.017986e+06  -6.072578e+05
   4.494910e+06   6.970917e+05
   3.634599e+06   2.817645e+06
   1.593429e+05   4.294143e+06
  -3.365079e+06   4.051092e+06
  -4.388184e+06   2.112404e+06
  -2.710838e+06  -5.572468e+05
  -1.414190e+05  -2.339152e+06
   1.237553e+06  -1.931570e+06
   5.636309e+05   8.034680e+04
  -1.169611e+06   1.334734e+06
  -1.954021e+06   4.063924e+05
  -9.041340e+05  -1.221300e+06
   5.849770e+05  -1.157717e+06
   5.300450e+05   4.114032e+05
  -1.018744e+06   8.815663e+05
  -2.002508e+06  -1.057337e+06
  -9.681418e+05  -3.499538e+06
   1.354140e+06  -3.760874e+06
   3.231166e+06  -1.509486e+06
   3.651672e+06   1.350269e+06
   2.565404e+06   2.971004e+06
   5.089679e+05   2.842916e+06
  -1.341281e+06   1.535811e+06
  -1.672780e+06   2.024888e+05
  -5.170497e+05  -4.942744e+04
   3.790383e+05   7.871954e+05
  -3.974753e+05   1.382276e+06
  -1.941284e+06   6.163933e+05
  -2.118401e+06  -8.722132e+05
  -4.416098e+05  -1.452378e+06
   1.220274e+06  -6.199137e+05
   9.792119e+05   4.840659e+05
  -8.783359e+05   6.272775e+05
  -2.374591e+06  -2.634425e+05
  -1.943390e+06  -1.453260e+06
   2.255848e+05  -2.160092e+06
   2.453872e+06  -1.791855e+06
   2.931618e+06  -2.992127e+05
   1.278293e+06   1.302963e+06
  -9.360063e+05   1.539252e+06
  -1.585886e+06   2.001402e+05
  -1.905137e+05  -1.101224e+06
   1.581172e+06  -7.656355e+05
   1.815897e+06   8.006815e+05
   3.986391e+05   1.743952e+06
  -1.124455e+06   1.080810e+06
  -1.350210e+06  -2.785545e+05
  -3.030558e+05  -8.154615e+05
   8.136028e+05  -7.322103e+04
   7.642933e+05   1.097152e+06
  -6.158832e+05   1.485256e+06
  -2.110835e+06   5.513412e+05
  -2.128092e+06  -1.111894e+06
  -4.026233e+05  -2.174259e+06
   1.499201e+06  -1.729716e+06
   1.813595e+06  -2.379639e+05
   5.478662e+05   9.102971e+05
  -6.875578e+05   8.591005e+05
  -6.913653e+05   7.022280e+04
   1.161828e+05  -4.304459e+05
   5.664669e+05  -2.558188e+05
   1.989871e+05   1.015711e+05
  -4.509663e+05  -7.389074e+03
  -5.800591e+05  -6.620338e+05
   1.794620e+05  -1.249600e+06
   1.444296e+06  -9.544076e+05
   2.191243e+06   4.306663e+05
   1.537485e+06   2.042905e+06
  -2.350886e+05   2.557605e+06
  -1.718021e+06   1.516319e+06
  -1.819944e+06  -1.191579e+05
  -9.435438e+05  -9.909862e+05
  -3.273568e+05  -7.684355e+05
  -4.483121e+05  -2.680178e+05
  -6.162039e+05  -2.990878e+05
  -9.662527e+04  -7.707311e+05
   9.104826e+05  -9.602771e+05
   1.541969e+06  -3.632102e+05
   1.137146e+06   7.808243e+05
  -2.536736e+05   1.583531e+06
  -1.827674e+06   1.154847e+06
  -2.385763e+06  -5.089751e+05
  -1.216926e+06  -2.212521e+06
   1.029516e+06  -2.497943e+06
   2.659319e+06  -1.116830e+06
   2.505218e+06   6.636716e+05
   1.060897e+06   1.425863e+06
  -2.020638e+05   1.051946e+06
  -4.569254e+05   5.710328e+05
  -1.433418e+05   7.701679e+05
  -1.303201e+05   1.329753e+06
  -6.894888e+05   1.330421e+06
  -1.340893e+06   3.297997e+05
  -1.396935e+06  -1.141274e+06
  -5.776507e+05  -1.997541e+06
   6.630481e+05  -1.511389e+06
   1.360596e+06  -2.041992e+03
   8.693649e+05   1.338589e+06
  -3.838064e+05   1.475375e+06
  -1.201743e+06   4.695540e+05
  -8.645379e+05  -6.815541e+05
   8.616274e+04  -1.113702e+06
   5.220200e+05  -8.429003e+05
   7.710624e+04  -4.623016e+05
  -4.443014e+05  -3.617774e+05
  -5.573009e+04  -4.062505e+05
   1.195948e+06  -2.302141e+05
   2.153007e+06   3.368498e+05
   1.706250e+06   1.078572e+06
  -7.745059e+03   1.498612e+06
  -1.639990e+06   1.199655e+06
  -1.924170e+06   3.135713e+05
  -8.990621e+05  -4.879912e+05
   2.557745e+05  -5.861875e+05
   5.337217e+05  -5.287638e+04
   2.736770e+04   4.181572e+05
  -4.764249e+05   2.614750e+05
  -5.023411e+05  -3.601650e+05
  -2.376343e+05  -7.608984e+05
  -7.568004e+04  -4.987515e+05
  -1.535724e+05   1.165030e+05
  -3.217430e+05   3.233232e+05
  -2.957655e+05  -2.437613e+05
   1.654630e+05  -1.043628e+06
   9.456268e+05  -1.118022e+06
   1.400094e+06  -1.768490e+05
   8.676165e+05   9.552544e+05
  -4.304212e+05   1.177130e+06
  -1.300831e+06   3.368282e+05
  -7.662924e+05  -6.109354e+05
   7.365525e+05  -6.896294e+05
   1.689820e+06   9.416137e+04
   1.092790e+06   9.172045e+05
  -4.964861e+05   1.070082e+06
  -1.600078e+06   5.325000e+05
  -1.327560e+06  -1.945567e+05
  -1.503342e+05  -5.526061e+05
   6.873915e+05  -2.947073e+05
   4.009223e+05   3.012025e+05
  -6.233227e+05   5.367582e+05
  -1.240308e+06  -9.999130e+04
  -6.871365e+05  -1.246652e+06
   6.400326e+05  -1.781090e+06
   1.570867e+06  -9.179990e+05
   1.322378e+06   8.071801e+05
   2.084328e+05   1.896631e+06
  -7.889692e+05   1.376948e+06
  -9.868458e+05  -1.784316e+05
  -4.665095e+05  -1.265156e+06
   2.238532e+05  -1.039697e+06
   5.935746e+05  -9.621477e+04
   5.009668e+05   4.074481e+05
   1.814602e+05   1.548889e+05
   4.939869e+04  -1.062886e+05
   2.849048e+05   2.970005e+05
   5.344064e+05   1.016216e+06
   2.115401e+05   1.150289e+06
  -7.438204e+05   4.273712e+05
  -1.561382e+06  -4.945526e+05
  -1.364080e+06  -8.927996e+05
  -1.979070e+05  -7.375667e+05
   9.105956e+05  -4.363907e+05
   1.046479e+06  -1.933885e+05
   3.781171e+05   4.640110e+04
  -1.564433e+05   2.355382e+05
  -3.217330e+04   2.283087e+05
   2.854825e+05   1.120324e+05
   4.977277e+04   1.384803e+05
  -7.058908e+05   2.391599e+05
  -1.103488e+06  -1.243302e+04
  -4.479294e+05  -7.193922e+05
   8.910861e+05  -1.234941e+06
   1.785449e+06  -8.017629e+05
   1.479757e+06   4.486414e+05
   2.895065e+05   1.484421e+06
  -8.042428e+05   1.455450e+06
  -1.103529e+06   5.670847e+05
  -6.903630e+05  -2.485411e+05
  -1.398834e+05  -3.754465e+05
   7.502191e+04  -6.092869e+04
  -8.878055e+04   2.396496e+04
  -3.231004e+05  -3.899006e+05
  -2.651861e+05  -8.569071e+05
   1.871781e+05  -7.161721e+05
   7.166794e+05   1.298716e+05
   7.775663e+05   1.001625e+06
   1.231111e+05   1.081896e+06
  -7.902132e+05   2.579509e+05
  -1.089764e+06  -7.576104e+05
  -3.714647e+05  -1.145551e+06
   7.462649e+05  -7.162012e+05
   1.179412e+06   7.155697e+04
   5.675972e+05   6.396103e+05
  -2.942269e+05   7.163330e+05
  -3.961588e+05   3.954707e+05
   2.609708e+05   1.537458e+04
   6.858277e+05  -4.242280e+04
   1.568832e+05   3.225148e+05
  -8.707310e+05   7.210415e+05
  -1.332295e+06   5.822647e+05
  -8.098118e+05  -1.772409e+05
   9.582276e+04  -9.181940e+05
   5.764068e+05  -9.121153e+05
   4.436572e+05  -1.783518e+05
   5.608256e+04   5.032931e+05
  -2.475019e+05   4.597771e+05
  -3.674616e+05  -1.546117e+05
  -2.712336e+05  -6.080336e+05
   4.856867e+04  -4.500192e+05
   4.110506e+05   4.497691e+04
   5.078655e+05   2.920218e+05
   2.602136e+05   1.004638e+05
  -4.130876e+04  -1.555347e+05
  -9.662318e+04  -4.497908e+04
   1.094028e+04   3.658844e+05
  -4.350991e+04   5.708158e+05
  -3.256435e+05   2.295157e+05
  -4.801958e+05  -3.904586e+05
  -1.692514e+05  -6.736912e+05
   4.265246e+05  -3.323642e+05
   7.005885e+05   2.870524e+05
   2.700174e+05   6.013590e+05
  -5.334376e+05   3.912806e+05
  -9.312650e+05  -7.047888e+04
  -5.088634e+05  -3.943824e+05
   3.036967e+05  -4.256510e+05
   6.690652e+05  -2.476617e+05
   2.645593e+05  -2.558818e+04
  -3.595907e+05   6.943333e+04
  -4.244036e+05  -6.552777e+04
   1.782032e+05  -3.030055e+05
   7.813737e+05  -2.838432e+05
