
 $NMID
 id='ANONYMOUS ', fmtdat='(2E16.6)'
 volume=1.0
 tramp=1.0
 $END
  -2.018398e+07  -5.781649e+05
  -1.337837e+07  -8.892430e+06
  -3.187776e+05  -1.233026e+07
   8.371166e+06  -9.114770e+06
   7.524410e+06  -1.752953e+06
   8.721496e+05   3.618620e+06
  -4.156200e+06   2.456886e+06
  -3.639251e+06  -3.087019e+06
   5.317746e+05  -6.149188e+06
   3.830940e+06  -2.975359e+06
   3.504961e+06   2.783072e+06
   4.397664e+05   4.635971e+06
  -2.176720e+06   8.521453e+05
  -1.820454e+06  -4.021077e+06
   1.093115e+06  -4.688012e+06
   3.532624e+06  -6.231814e+05
   2.755453e+06   4.087951e+06
  -8.427612e+05   5.266295e+06
  -4.006089e+06   2.419669e+06
  -3.982908e+06  -1.420434e+06
  -1.391762e+06  -3.015292e+06
   6.109595e+05  -2.010900e+06
  -7.560625e+04  -8.179581e+05
  -2.156998e+06  -1.543013e+06
  -2.410045e+06  -3.492963e+06
   6.511355e+05  -4.129803e+06
   4.832748e+06  -2.155199e+06
   6.216844e+06   1.049110e+06
   3.201427e+06   2.999827e+06
  -1.554413e+06   2.454814e+06
  -3.614558e+06   1.532418e+05
  -1.322686e+06  -1.984313e+06
   2.527939e+06  -2.133655e+06
   3.880311e+06   8.826764e+04
   1.796970e+06   2.893336e+06
  -1.006020e+06   3.563163e+06
  -1.704981e+06   1.303920e+06
  -3.784967e+05  -1.459103e+06
   8.263156e+05  -1.599771e+06
   5.278996e+05   9.505934e+05
  -7.471459e+05   2.995774e+06
  -1.707591e+06   1.953652e+06
  -1.570109e+06  -1.003003e+06
  -3.356248e+05  -2.449748e+06
   1.208946e+06  -8.106267e+05
   1.618454e+06   1.985710e+06
  -9.080626e+04   2.893396e+06
  -2.899168e+06   9.913597e+05
  -4.108534e+06  -1.911546e+06
  -2.069561e+06  -3.334508e+06
   1.675277e+06  -2.354348e+06
   3.748167e+06  -8.761751e+04
   2.472754e+06   1.538239e+06
  -4.996696e+05   1.443563e+06
  -2.178898e+06   1.497697e+05
  -1.335536e+06  -8.897331e+05
   6.086000e+05  -7.029926e+05
   1.400568e+06   3.698334e+05
   3.134935e+05   1.145533e+06
  -1.238811e+06   8.007096e+05
  -1.294684e+06  -3.548702e+05
   4.370243e+05  -1.154038e+06
   2.064011e+06  -6.026627e+05
   1.480757e+06   1.150795e+06
  -1.204496e+06   2.723007e+06
  -3.644574e+06   2.557626e+06
  -3.783937e+06   3.915616e+05
  -1.952966e+06  -2.315312e+06
  -1.228376e+05  -3.661492e+06
   4.762200e+05  -3.113811e+06
   3.834334e+05  -1.851409e+06
   7.289920e+05  -1.216195e+06
   1.734324e+06  -1.131560e+06
   2.601134e+06  -4.477960e+05
   2.442182e+06   1.238851e+06
   1.057747e+06   2.674813e+06
  -8.784995e+05   2.242236e+06
  -2.121437e+06  -3.848242e+04
  -1.661275e+06  -2.256209e+06
   3.015907e+05  -2.488416e+06
   2.243601e+06  -6.870509e+05
   2.594194e+06   1.460832e+06
   1.260400e+06   2.340890e+06
  -3.496685e+05   1.820539e+06
  -9.304339e+05   9.588574e+05
  -6.775932e+05   6.783142e+05
  -8.579311e+05   8.984814e+05
  -2.075149e+06   8.087952e+05
  -3.285240e+06  -2.171083e+05
  -2.794709e+06  -1.934531e+06
  -2.411264e+05  -3.281711e+06
   2.660229e+06  -3.156089e+06
   3.616523e+06  -1.395653e+06
   2.042457e+06   8.671966e+05
  -3.484058e+05   2.003291e+06
  -1.337852e+06   1.322102e+06
  -4.032427e+05  -2.283887e+05
   1.042876e+06  -9.765196e+05
   1.397073e+06  -2.613845e+05
   4.758550e+05   8.783204e+05
  -5.968991e+05   9.345399e+05
  -6.999323e+05  -2.320322e+05
   2.808646e+05  -1.106603e+06
   1.453750e+06  -2.510603e+05
   1.635833e+06   1.890458e+06
   2.776428e+05   3.264922e+06
  -1.923155e+06   2.350173e+06
  -3.347329e+06  -2.240930e+05
  -2.792745e+06  -2.347984e+06
  -6.973247e+05  -2.557825e+06
   1.166273e+06  -1.283550e+06
   1.418247e+06  -8.365017e+04
   4.085292e+05   3.375452e+04
  -3.199849e+05  -5.983206e+05
   1.875920e+05  -9.553444e+05
   1.282264e+06  -4.754126e+05
   1.542141e+06   4.499875e+05
   4.634427e+05   9.546922e+05
  -8.781121e+05   5.685782e+05
  -9.479237e+05  -3.184305e+05
   5.193920e+05  -7.852406e+05
   2.077471e+06  -2.213536e+05
   1.999638e+06   1.051919e+06
   1.210602e+05   1.980177e+06
  -1.919727e+06   1.697295e+06
  -2.342579e+06   3.658820e+05
  -9.925263e+05  -8.973000e+05
   6.451894e+05  -1.043178e+06
   1.041958e+06  -1.205406e+05
   4.838298e+04   7.604349e+05
  -1.186785e+06   5.820569e+05
  -1.446174e+06  -4.944467e+05
  -5.271760e+05  -1.319600e+06
   6.888789e+05  -1.042552e+06
   1.099105e+06  -4.279804e+04
   4.174153e+05   5.410050e+05
  -5.202179e+05   9.919307e+04
  -5.650678e+05  -8.175625e+05
   5.107667e+05  -1.141978e+06
   1.668687e+06  -3.978239e+05
   1.651212e+06   8.760993e+05
   3.450945e+05   1.665623e+06
  -1.073848e+06   1.371149e+06
  -1.380483e+06   2.902060e+05
  -5.210028e+05  -6.556231e+05
   4.756667e+05  -7.343800e+05
   6.512514e+05  -6.854734e+04
   2.799939e+04   5.244409e+05
  -5.756209e+05   4.277247e+05
  -4.778392e+05  -9.783043e+04
   1.662056e+05  -2.590300e+05
   5.422981e+05   2.789050e+05
   3.786172e+04   9.318143e+05
  -1.053580e+06   8.163329e+05
  -1.726326e+06  -2.674019e+05
  -1.233461e+06  -1.568525e+06
   1.408242e+05  -2.065900e+06
   1.343168e+06  -1.377382e+06
   1.578485e+06  -6.597070e+04
   9.993861e+05   8.817966e+05
   3.748253e+05   9.292989e+05
   2.051258e+05   4.271161e+05
   2.756503e+05   1.676939e+05
   4.705190e+04   4.722526e+05
  -6.293982e+05   8.083100e+05
  -1.243276e+06   4.355714e+05
  -1.075309e+06  -6.193589e+05
   5.067615e+04  -1.426062e+06
   1.432835e+06  -1.080400e+06
   1.969631e+06   3.146188e+05
   1.107750e+06   1.684913e+06
  -6.070558e+05   1.970434e+06
  -1.951716e+06   1.040561e+06
  -2.063629e+06  -2.938283e+05
  -1.113884e+06  -1.078618e+06
  -1.336867e+04  -1.035428e+06
   4.818193e+05  -6.695190e+05
   3.739062e+05  -6.148142e+05
   2.308540e+05  -9.014978e+05
   4.901013e+05  -9.352473e+05
   9.754734e+05  -2.335071e+05
   1.086994e+06   9.049258e+05
   4.680506e+05   1.589666e+06
  -5.279181e+05   1.212902e+06
  -1.094815e+06   6.065350e+04
  -7.529719e+05  -9.625561e+05
   1.498192e+05  -1.151272e+06
   7.787093e+05  -5.346473e+05
   6.562356e+05   2.879163e+05
   1.037498e+05   7.350516e+05
  -1.873738e+05   6.869055e+05
   3.989591e+04   4.454154e+05
   3.228238e+05   3.306981e+05
   2.619532e+04   3.432009e+05
  -8.690460e+05   2.224494e+05
  -1.606296e+06  -1.987514e+05
  -1.362503e+06  -7.559060e+05
  -1.381900e+05  -1.078447e+06
   1.133298e+06  -9.194484e+05
   1.457885e+06  -3.695899e+05
   7.536415e+05   1.945612e+05
  -1.321569e+05   3.812877e+05
  -3.693299e+05   1.172143e+05
   3.565611e+04  -2.319137e+05
   4.344423e+05  -1.873021e+05
   3.826790e+05   2.856625e+05
   7.162661e+04   6.509030e+05
  -5.479168e+04   4.155293e+05
   1.269939e+05  -1.853907e+05
   3.409115e+05  -3.817693e+05
   2.619985e+05   1.723531e+05
  -1.779682e+05   8.820440e+05
  -7.331170e+05   8.757782e+05
  -9.662925e+05   5.766422e+04
  -5.491448e+05  -7.682662e+05
   3.399432e+05  -8.193455e+05
   9.543156e+05  -1.486874e+05
   5.999647e+05   5.219780e+05
  -5.415487e+05   5.822659e+05
  -1.400079e+06   2.678520e+04
  -1.056184e+06  -6.658670e+05
   2.425659e+05  -9.587088e+05
   1.289400e+06  -6.368729e+05
   1.174514e+06   2.830007e+04
   1.992306e+05   4.650313e+05
  -5.241513e+05   3.072901e+05
  -2.781447e+05  -1.978686e+05
   5.600689e+05  -3.768660e+05
   9.885630e+05   1.683808e+05
   4.442857e+05   1.053377e+06
  -6.458550e+05   1.392317e+06
  -1.329431e+06   6.618091e+05
  -1.065070e+06  -6.918009e+05
  -1.643110e+05  -1.558876e+06
   6.225880e+05  -1.187707e+06
   8.161848e+05   5.049254e+04
   4.747464e+05   9.991208e+05
  -5.484184e+04   8.967306e+05
  -4.415054e+05   1.282537e+05
  -4.919260e+05  -3.373441e+05
  -2.409709e+05  -1.454336e+05
  -2.040407e+03   1.117997e+05
  -9.785173e+04  -1.859658e+05
  -3.892970e+05  -7.946410e+05
  -2.920202e+05  -9.406457e+05
   4.709479e+05  -3.620187e+05
   1.286178e+06   3.903287e+05
   1.214768e+06   7.036920e+05
   1.766098e+05   5.720843e+05
  -8.256050e+05   3.553709e+05
  -8.768513e+05   2.008139e+05
  -2.250021e+05   1.314466e+04
   1.619047e+05  -1.843383e+05
  -8.663890e+04  -2.299643e+05
  -3.504762e+05  -1.425308e+05
   3.830657e+03  -1.223755e+05
   6.963897e+05  -1.584580e+05
   8.782133e+05   4.880525e+04
   1.889419e+05   5.757423e+05
  -8.377642e+05   9.315406e+05
  -1.371700e+06   5.473843e+05
  -1.053393e+06  -4.456475e+05
  -1.813975e+05  -1.221321e+06
   6.284415e+05  -1.127444e+06
   8.961140e+05  -3.722533e+05
   5.762360e+05   2.668840e+05
   6.094039e+04   3.052809e+05
  -1.646226e+05  -1.069270e+04
   2.869549e+04  -9.286665e+04
   3.081713e+05   2.772469e+05
   2.539702e+05   6.874770e+05
  -1.810480e+05   5.529744e+05
  -6.044467e+05  -1.848905e+05
  -5.563498e+05  -8.936582e+05
   3.533789e+04  -8.701130e+05
   7.143130e+05  -9.876340e+04
   8.417470e+05   7.235513e+05
   2.143925e+05   9.261753e+05
  -6.328942e+05   4.890653e+05
  -8.972626e+05  -1.064392e+05
  -3.818624e+05  -4.518231e+05
   2.451105e+05  -4.739640e+05
   2.359694e+05  -2.834727e+05
  -3.107638e+05  -4.534737e+04
  -5.796718e+05   1.265316e+04
  -8.708484e+04  -2.450368e+05
   7.074803e+05  -5.847931e+05
   9.884847e+05  -5.217773e+05
   5.455415e+05   8.210406e+04
  -9.952912e+04   6.994650e+05
  -3.915284e+05   6.802153e+05
  -2.668909e+05   5.909214e+04
   9.926472e+03  -4.506351e+05
   2.280037e+05  -3.149953e+05
   3.065169e+05   2.164216e+05
   1.965931e+05   4.974914e+05
  -7.558321e+04   2.828110e+05
  -3.295646e+05  -8.095440e+04
  -3.687468e+05  -1.826878e+05
  -2.025755e+05  -2.909932e+04
  -1.927103e+04   6.002172e+04
   6.384436e+04  -1.060736e+05
   1.147540e+05  -3.618584e+05
   2.261371e+05  -3.757277e+05
   3.349353e+05  -2.245820e+04
   2.712333e+05   4.371024e+05
  -3.082273e+04   5.718976e+05
  -3.974439e+05   2.203544e+05
  -5.044941e+05  -3.064716e+05
  -1.647581e+05  -5.280898e+05
   4.097636e+05  -2.908566e+05
   6.984672e+05   1.165195e+05
   3.765400e+05   3.301351e+05
  -2.570242e+05   2.703472e+05
  -5.252125e+05   1.036960e+05
  -1.442326e+05  -4.087659e+03
   3.950167e+05   1.430904e+04
   3.874745e+05   1.571138e+05
  -2.242585e+05   3.074655e+05
  -7.664825e+05   2.222599e+05
