
 $NMID
 id='ANONYMOUS ', fmtdat='(2E16.6)'
 volume=1.0
 tramp=1.0
 $END
   2.234299e+07   2.439802e+06
   1.380821e+07   1.079055e+07
  -7.115803e+05   1.340620e+07
  -9.716269e+06   9.397343e+06
  -8.230540e+06   1.574911e+06
  -7.604244e+05  -3.933161e+06
   4.612658e+06  -2.517144e+06
   3.828088e+06   3.513715e+06
  -8.449193e+05   6.736174e+06
  -4.341327e+06   3.075795e+06
  -3.720603e+06  -3.327693e+06
  -2.124428e+05  -5.217284e+06
   2.515803e+06  -8.094575e+05
   1.851069e+06   4.617038e+06
  -1.434009e+06   5.161709e+06
  -3.911002e+06   4.758885e+05
  -2.771617e+06  -4.700344e+06
   1.298401e+06  -5.766883e+06
   4.646759e+06  -2.376008e+06
   4.349898e+06   1.938725e+06
   1.269451e+06   3.550481e+06
  -9.654702e+05   2.199490e+06
  -4.508710e+04   7.800727e+05
   2.405913e+06   1.712997e+06
   2.642726e+06   4.036602e+06
  -9.163842e+05   4.672681e+06
  -5.607753e+06   2.199653e+06
  -6.986382e+06  -1.546571e+06
  -3.420854e+06  -3.603811e+06
   1.946131e+06  -2.723373e+06
   4.152968e+06   6.825578e+03
   1.452802e+06   2.354010e+06
  -2.939162e+06   2.381375e+06
  -4.426910e+06  -2.177267e+05
  -1.959089e+06  -3.377328e+06
   1.306612e+06  -4.038189e+06
   2.047495e+06  -1.376929e+06
   3.710844e+05   1.757307e+06
  -1.085706e+06   1.816536e+06
  -6.337469e+05  -1.143212e+06
   9.649559e+05  -3.398180e+06
   2.010901e+06  -2.119722e+06
   1.667742e+06   1.188676e+06
   2.215735e+05   2.658371e+06
  -1.326467e+06   7.104227e+05
  -1.568687e+06  -2.338152e+06
   3.482168e+05  -3.143187e+06
   3.298078e+06  -8.630026e+05
   4.465399e+06   2.370271e+06
   2.140133e+06   3.813715e+06
  -1.972129e+06   2.544902e+06
  -4.180354e+06  -6.640896e+04
  -2.689816e+06  -1.807785e+06
   6.098529e+05  -1.550637e+06
   2.407480e+06  -3.777276e+04
   1.421125e+06   1.046124e+06
  -7.153177e+05   7.307049e+05
  -1.547887e+06  -4.713128e+05
  -3.413407e+05  -1.265363e+06
   1.345346e+06  -8.607972e+05
   1.394297e+06   3.547052e+05
  -5.027376e+05   1.163540e+06
  -2.263994e+06   5.403755e+05
  -1.543699e+06  -1.345948e+06
   1.533332e+06  -2.987256e+06
   4.273426e+06  -2.686166e+06
   4.305504e+06  -2.104851e+05
   2.062258e+06   2.758719e+06
  -8.280282e+04   4.138598e+06
  -6.856696e+05   3.448059e+06
  -4.709292e+05   2.056157e+06
  -8.441691e+05   1.386969e+06
  -2.031835e+06   1.261825e+06
  -3.013401e+06   4.091302e+05
  -2.748683e+06  -1.531528e+06
  -1.096665e+06  -3.104742e+06
   1.091854e+06  -2.526613e+06
   2.411302e+06   1.157369e+05
   1.794121e+06   2.620510e+06
  -4.553352e+05   2.805195e+06
  -2.584486e+06   6.614359e+05
  -2.860650e+06  -1.810344e+06
  -1.270532e+06  -2.733992e+06
   5.365680e+05  -2.024302e+06
   1.121692e+06  -9.901079e+05
   7.872236e+05  -6.939188e+05
   9.891843e+05  -9.595181e+05
   2.361307e+06  -8.126489e+05
   3.681743e+06   3.997972e+05
   3.054864e+06   2.309629e+06
   1.199420e+05   3.709644e+06
  -3.151037e+06   3.440901e+06
  -4.161518e+06   1.410789e+06
  -2.280156e+06  -1.084579e+06
   4.888938e+05  -2.266322e+06
   1.584755e+06  -1.441566e+06
   4.485683e+05   2.797514e+05
  -1.226660e+06   1.056259e+06
  -1.585766e+06   2.247092e+05
  -4.881830e+05  -1.018684e+06
   7.158608e+05  -1.032166e+06
   7.794150e+05   2.798912e+05
  -3.398057e+05   1.222599e+06
  -1.605529e+06   2.341468e+05
  -1.744886e+06  -2.156084e+06
  -2.062478e+05  -3.652407e+06
   2.219650e+06  -2.566659e+06
   3.748035e+06   3.687799e+05
   3.064485e+06   2.748514e+06
   6.894663e+05   2.915634e+06
  -1.375460e+06   1.402648e+06
  -1.610462e+06   3.289521e+04
  -4.598745e+05  -5.602388e+04
   3.326709e+05   6.882765e+05
  -2.582344e+05   1.060609e+06
  -1.463003e+06   4.671879e+05
  -1.706308e+06  -5.772312e+05
  -4.740986e+05  -1.087488e+06
   1.010543e+06  -5.977999e+05
   1.054120e+06   3.947093e+05
  -6.090526e+05   8.603760e+05
  -2.343486e+06   1.700266e+05
  -2.215186e+06  -1.259746e+06
  -6.267908e+04  -2.235235e+06
   2.233712e+06  -1.833674e+06
   2.656881e+06  -3.105067e+05
   1.074295e+06   1.054989e+06
  -7.797249e+05   1.140161e+06
  -1.177542e+06   8.009567e+04
  -1.310467e+04  -8.608846e+05
   1.365128e+06  -5.991037e+05
   1.604023e+06   6.203251e+05
   5.374225e+05   1.502939e+06
  -8.121102e+05   1.140928e+06
  -1.231319e+06   5.716986e+03
  -4.453729e+05  -6.184365e+05
   5.868152e+05  -8.170309e+04
   5.956366e+05   9.506940e+05
  -6.328915e+05   1.265697e+06
  -1.904752e+06   3.705701e+05
  -1.823357e+06  -1.066720e+06
  -3.118204e+05  -1.894101e+06
   1.272028e+06  -1.494777e+06
   1.566016e+06  -2.658743e+05
   5.577307e+05   7.572272e+05
  -5.657494e+05   8.045804e+05
  -7.383415e+05   5.227608e+04
  -1.601199e+04  -5.910602e+05
   6.635680e+05  -4.646808e+05
   5.414592e+05   1.209306e+05
  -1.866102e+05   2.824568e+05
  -5.923439e+05  -3.327367e+05
  -8.732764e+02  -1.046858e+06
   1.224072e+06  -8.714786e+05
   1.934771e+06   3.804752e+05
   1.319681e+06   1.826774e+06
  -2.504922e+05   2.325992e+06
  -1.571728e+06   1.497557e+06
  -1.782182e+06   1.204882e+04
  -1.098717e+06  -1.032574e+06
  -3.976676e+05  -1.068360e+06
  -2.187488e+05  -5.027012e+05
  -2.970285e+05  -2.103080e+05
  -2.532696e+04  -5.354766e+05
   7.451124e+05  -8.826631e+05
   1.420529e+06  -4.389433e+05
   1.191084e+06   7.429895e+05
  -1.128853e+05   1.607063e+06
  -1.662113e+06   1.157660e+06
  -2.208883e+06  -4.409840e+05
  -1.173736e+06  -1.946652e+06
   7.724271e+05  -2.188556e+06
   2.242254e+06  -1.082439e+06
   2.308936e+06   4.179369e+05
   1.212076e+06   1.256176e+06
  -2.019744e+04   1.166620e+06
  -5.680135e+05   7.436246e+05
  -4.552201e+05   6.885407e+05
  -3.105171e+05   1.010189e+06
  -5.999205e+05   1.029368e+06
  -1.111862e+06   2.150445e+05
  -1.186045e+06  -1.072531e+06
  -4.565246e+05  -1.816417e+06
   6.509036e+05  -1.346016e+06
   1.236778e+06  -2.019584e+04
   8.032723e+05   1.116986e+06
  -2.196368e+05   1.286487e+06
  -8.936547e+05   5.637772e+05
  -7.166676e+05  -3.519045e+05
  -8.033937e+04  -8.248990e+05
   2.381494e+05  -7.576811e+05
  -3.024872e+04  -5.018271e+05
  -3.515043e+05  -3.906366e+05
  -1.469980e+04  -3.906158e+05
   9.892598e+05  -2.091044e+05
   1.801342e+06   3.013042e+05
   1.500474e+06   9.141048e+05
   1.042321e+05   1.216043e+06
  -1.320666e+06   9.787828e+05
  -1.656861e+06   3.503069e+05
  -8.344624e+05  -2.487533e+05
   1.691472e+05  -4.202404e+05
   4.184926e+05  -1.145964e+05
  -5.588809e+04   2.616867e+05
  -5.011892e+05   1.947389e+05
  -4.195319e+05  -3.406198e+05
  -5.183833e+04  -7.448917e+05
   8.172579e+04  -4.724166e+05
  -1.481587e+05   2.057861e+05
  -3.989993e+05   4.215314e+05
  -2.879613e+05  -2.060838e+05
   2.401350e+05  -9.923088e+05
   8.692635e+05  -9.550329e+05
   1.096083e+06  -1.261853e+04
   5.834897e+05   8.998252e+05
  -4.267236e+05   9.082985e+05
  -1.089207e+06   1.191466e+05
  -6.558936e+05  -6.180037e+05
   6.359477e+05  -6.321834e+05
   1.579780e+06   2.868826e+04
   1.163835e+06   7.908963e+05
  -3.100840e+05   1.067630e+06
  -1.476667e+06   6.656695e+05
  -1.322217e+06  -7.788369e+04
  -2.064895e+05  -5.313158e+05
   6.023469e+05  -3.234444e+05
   3.023826e+05   2.373275e+05
  -6.533921e+05   4.021654e+05
  -1.113184e+06  -2.367218e+05
  -4.551528e+05  -1.215947e+06
   7.961313e+05  -1.549613e+06
   1.536415e+06  -6.901892e+05
   1.174697e+06   8.299537e+05
   1.175064e+05   1.769767e+06
  -7.529925e+05   1.315211e+06
  -9.163714e+05  -9.117542e+04
  -4.923885e+05  -1.145716e+06
   9.770186e+04  -1.006157e+06
   5.019245e+05  -1.240594e+05
   5.425049e+05   3.996085e+05
   2.680532e+05   1.712297e+05
   5.384821e+03  -1.249574e+05
   9.762468e+04   2.196150e+05
   4.025460e+05   9.167654e+05
   2.905320e+05   1.070618e+06
  -5.454460e+05   3.825070e+05
  -1.436108e+06  -4.971286e+05
  -1.342562e+06  -8.440979e+05
  -1.733099e+05  -6.534444e+05
   9.502752e+05  -3.690170e+05
   9.984965e+05  -1.899645e+05
   2.513938e+05  -2.001795e+03
  -1.918588e+05   2.025945e+05
   9.167285e+04   2.595382e+05
   3.939330e+05   1.724162e+05
  -1.027149e+04   1.404224e+05
  -7.978297e+05   1.530148e+05
  -9.918054e+05  -9.572029e+04
  -1.847660e+05  -6.667996e+05
   9.931532e+05  -1.019584e+06
   1.577983e+06  -5.526687e+05
   1.172173e+06   5.583357e+05
   1.507134e+05   1.391176e+06
  -7.625544e+05   1.244487e+06
  -1.033499e+06   3.794118e+05
  -6.425442e+05  -3.278008e+05
  -5.428814e+04  -3.501857e+05
   1.900134e+05   1.578687e+04
  -3.263039e+04   1.029108e+05
  -3.348881e+05  -3.244517e+05
  -2.565464e+05  -7.863656e+05
   2.309838e+05  -6.175527e+05
   6.786754e+05   2.362077e+05
   5.913481e+05   1.039264e+06
  -8.105345e+04   9.876292e+05
  -8.177159e+05   8.143734e+04
  -9.234282e+05  -8.586969e+05
  -1.996998e+05  -1.060170e+06
   7.416400e+05  -5.244630e+05
   1.010666e+06   1.636815e+05
   4.071659e+05   5.302311e+05
  -3.031955e+05   5.233553e+05
  -2.796940e+05   3.052678e+05
   3.523577e+05   6.097422e+04
   6.571838e+05   1.076326e+04
   8.620647e+04   2.824195e+05
  -8.255767e+05   6.295654e+05
  -1.136658e+06   5.424420e+05
  -6.084130e+05  -1.210110e+05
   1.458782e+05  -7.863537e+05
   4.741933e+05  -7.470722e+05
   3.067169e+05  -4.943427e+04
  -3.015507e+04   5.120737e+05
  -2.747591e+05   3.462614e+05
  -3.411044e+05  -2.592595e+05
  -1.999332e+05  -5.721528e+05
   1.022536e+05  -3.166319e+05
   3.707910e+05   1.069901e+05
   4.055112e+05   2.239083e+05
   2.252044e+05   4.141636e+04
   2.829411e+04  -6.830902e+04
  -7.022433e+04   1.186415e+05
  -1.447838e+05   4.104390e+05
  -2.791582e+05   4.218132e+05
  -3.879919e+05   1.116081e+04
  -2.907200e+05  -5.132404e+05
   6.170455e+04  -6.529809e+05
   4.620398e+05  -2.329645e+05
   5.589326e+05   3.728506e+05
   1.636972e+05   6.073113e+05
  -4.769319e+05   3.090859e+05
  -7.860295e+05  -1.662460e+05
  -4.107795e+05  -3.916329e+05
   3.059996e+05  -2.934039e+05
   6.022286e+05  -9.159107e+04
   1.628522e+05   1.448118e+04
  -4.505050e+05  -3.022175e+04
  -4.362230e+05  -1.944027e+05
   2.655581e+05  -3.420129e+05
   8.785292e+05  -2.229927e+05
