
 $NMID
 id='ANONYMOUS ', fmtdat='(2E16.6)'
 volume=1.0
 tramp=1.0
 $END
  -5.334797e+07   2.423823e+06
  -3.412529e+07  -3.131880e+07
   4.939950e+06  -3.661179e+07
   2.571605e+07  -1.565208e+07
   1.650458e+07   5.624165e+06
  -2.533752e+06   9.214043e+06
  -9.710427e+06  -4.795784e+05
  -3.382493e+06  -9.343420e+06
   5.549890e+06  -9.580109e+06
   9.311101e+06  -2.522514e+06
   6.957460e+06   5.720635e+06
   1.026310e+06   8.294653e+06
  -3.727135e+06   2.696391e+06
  -2.633708e+06  -5.338677e+06
   3.473142e+06  -6.642650e+06
   7.701106e+06   8.708747e+05
   4.745312e+06   9.633132e+06
  -3.106384e+06   1.150934e+07
  -9.386318e+06   6.045116e+06
  -1.028705e+07  -1.544107e+06
  -6.481425e+06  -6.744896e+06
  -1.058477e+06  -7.976486e+06
   2.246694e+06  -5.837428e+06
   1.399975e+06  -2.965614e+06
  -1.098807e+06  -2.468489e+06
  -1.044001e+05  -4.151559e+06
   5.280871e+06  -4.198933e+06
   9.310255e+06  -5.193193e+05
   6.794105e+06   3.819268e+06
   2.362981e+05   4.701154e+06
  -3.576023e+06   2.312918e+06
  -2.205303e+06  -1.230888e+05
   9.433911e+05  -8.906341e+05
   2.437899e+06  -2.543778e+05
   2.031656e+06   1.604186e+06
   5.028807e+05   3.806680e+06
  -1.638855e+06   3.629266e+06
  -2.854639e+06  -2.849193e+04
  -1.607190e+06  -3.265970e+06
   5.211788e+05  -1.662972e+06
   1.458126e+05   2.457615e+06
  -2.422967e+06   2.338248e+06
  -2.551366e+06  -2.968929e+06
   1.922163e+06  -6.063820e+06
   6.447562e+06  -1.441189e+06
   5.185566e+06   6.264175e+06
  -1.353158e+06   8.208011e+06
  -6.970169e+06   2.614405e+06
  -6.932755e+06  -4.096459e+06
  -2.059362e+06  -5.897873e+06
   3.353732e+06  -2.835141e+06
   5.318105e+06   1.322546e+06
   2.601626e+06   3.384320e+06
  -2.216315e+06   2.297248e+06
  -4.440336e+06  -6.748001e+05
  -2.047839e+06  -2.544428e+06
   1.587002e+06  -1.399664e+06
   1.780636e+06   9.708052e+05
  -1.204433e+06   1.094529e+06
  -2.602161e+06  -1.428924e+06
   1.797606e+05  -3.337706e+06
   4.212671e+06  -2.178899e+06
   5.208622e+06   9.441739e+05
   2.472551e+06   3.698323e+06
  -1.614865e+06   5.111999e+06
  -4.813413e+06   4.732370e+06
  -5.945333e+06   1.760733e+06
  -4.410134e+06  -2.948319e+06
  -1.011976e+06  -5.951309e+06
   1.665306e+06  -4.782005e+06
   1.726790e+06  -1.417389e+06
   3.660542e+05   1.521095e+05
   1.943316e+05  -8.488924e+05
   1.646239e+06  -1.559485e+06
   2.695161e+06  -7.498713e+04
   1.865703e+06   1.992712e+06
  -1.141209e+05   2.118354e+06
  -1.630607e+06   1.066013e+05
  -1.665401e+06  -2.166334e+06
   3.261089e+04  -2.922274e+06
   2.702581e+06  -1.591637e+06
   4.316437e+06   1.136156e+06
   3.150851e+06   3.546450e+06
   9.128449e+04   4.022579e+06
  -2.052271e+06   2.675283e+06
  -2.085039e+06   1.224850e+06
  -1.799493e+06   7.850685e+05
  -2.954848e+06   5.605492e+05
  -4.373740e+06  -6.904513e+05
  -3.526416e+06  -2.733543e+06
  -1.569196e+05  -4.147705e+06
   3.218788e+06  -3.913193e+06
   4.180204e+06  -2.079374e+06
   2.606002e+06   4.625694e+05
   2.027154e+05   2.209400e+06
  -1.124747e+06   1.876522e+06
  -5.416471e+05  -5.039097e+04
   1.099986e+06  -1.293725e+06
   1.894997e+06  -4.117844e+05
   9.101490e+05   1.173691e+06
  -5.397709e+05   1.107252e+06
  -4.751365e+05  -4.168984e+05
   1.064433e+06  -8.135813e+05
   1.987476e+06   1.155751e+06
   8.551488e+05   3.515376e+06
  -1.486557e+06   3.630478e+06
  -3.232099e+06   1.325678e+06
  -3.483310e+06  -1.419424e+06
  -2.370931e+06  -2.875721e+06
  -4.469612e+05  -2.699186e+06
   1.271823e+06  -1.467820e+06
   1.591260e+06  -2.079149e+05
   4.975429e+05   4.629777e+04
  -3.652299e+05  -7.594103e+05
   3.895466e+05  -1.353976e+06
   1.898498e+06  -6.106690e+05
   2.066905e+06   8.589627e+05
   4.211786e+05   1.425476e+06
  -1.185557e+06   5.924492e+05
  -9.209795e+05  -4.772152e+05
   8.775294e+05  -5.722361e+05
   2.272031e+06   3.122328e+05
   1.812615e+06   1.421040e+06
  -2.610095e+05   2.050707e+06
  -2.365898e+06   1.693166e+06
  -2.818605e+06   2.794404e+05
  -1.241178e+06  -1.265607e+06
   9.007528e+05  -1.510828e+06
   1.551778e+06  -2.114768e+05
   2.055109e+05   1.069262e+06
  -1.525070e+06   7.472977e+05
  -1.752233e+06  -7.827269e+05
  -3.623359e+05  -1.691106e+06
   1.111751e+06  -1.024369e+06
   1.304263e+06   3.005478e+05
   2.733704e+05   8.036338e+05
  -8.003964e+05   7.189113e+04
  -7.457364e+05  -1.057563e+06
   5.824418e+05  -1.433551e+06
   2.025939e+06  -5.427654e+05
   2.054291e+06   1.060560e+06
   3.931967e+05   2.097179e+06
  -1.450559e+06   1.671987e+06
  -1.753820e+06   2.233102e+05
  -5.202218e+05  -8.850809e+05
   6.691977e+05  -8.231082e+05
   6.500779e+05  -6.435003e+04
  -1.338731e+05   3.928579e+05
  -5.343081e+05   2.115677e+05
  -1.462252e+05  -1.065949e+05
   4.701869e+05   3.531123e+04
   5.576052e+05   6.717348e+05
  -1.910612e+05   1.216656e+06
  -1.399818e+06   9.174425e+05
  -2.111786e+06  -4.161710e+05
  -1.484712e+06  -1.965680e+06
   2.246312e+05  -2.455286e+06
   1.654882e+06  -1.439731e+06
   1.736658e+06   1.353930e+05
   8.719001e+05   9.450058e+05
   2.895115e+05   6.971101e+05
   4.448328e+05   2.205863e+05
   6.255479e+05   2.871452e+05
   1.048415e+05   7.588152e+05
  -8.864532e+05   9.231540e+05
  -1.483536e+06   3.331238e+05
  -1.071565e+06  -7.530726e+05
   2.656276e+05  -1.504804e+06
   1.761054e+06  -1.093976e+06
   2.287193e+06   4.961454e+05
   1.159958e+06   2.137093e+06
  -1.009452e+06   2.413449e+06
  -2.579429e+06   1.066923e+06
  -2.407860e+06  -6.641908e+05
  -9.885724e+05  -1.383905e+06
   2.221269e+05  -9.900796e+05
   4.285217e+05  -5.157958e+05
   9.893579e+04  -7.304706e+05
   9.708085e+04  -1.295023e+06
   6.613643e+05  -1.299840e+06
   1.298699e+06  -3.288519e+05
   1.349446e+06   1.091138e+06
   5.605916e+05   1.917272e+06
  -6.321099e+05   1.452752e+06
  -1.307520e+06  -2.070195e+03
  -8.349894e+05  -1.299529e+06
   3.845061e+05  -1.427580e+06
   1.183567e+06  -4.393064e+05
   8.466900e+05   6.861130e+05
  -9.741644e+04   1.097647e+06
  -5.310091e+05   8.176765e+05
  -8.943811e+04   4.372941e+05
   4.308404e+05   3.389766e+05
   5.673421e+04   3.867163e+05
  -1.161190e+06   2.228395e+05
  -2.087061e+06  -3.220202e+05
  -1.645959e+06  -1.044813e+06
   1.829549e+04  -1.460908e+06
   1.594068e+06  -1.169295e+06
   1.862044e+06  -2.938041e+05
   8.671585e+05   4.941297e+05
  -2.505412e+05   5.785413e+05
  -5.230762e+05   4.418637e+04
  -3.948150e+04  -4.136569e+05
   4.483357e+05  -2.537927e+05
   4.863134e+05   3.437725e+05
   2.456768e+05   7.195687e+05
   8.980050e+04   4.720678e+05
   1.499190e+05  -9.937375e+04
   3.007883e+05  -2.911882e+05
   2.820653e+05   2.373015e+05
  -1.509073e+05   9.943849e+05
  -9.069422e+05   1.079939e+06
  -1.362094e+06   1.916125e+05
  -8.561873e+05  -9.084779e+05
   4.055594e+05  -1.148819e+06
   1.255489e+06  -3.476730e+05
   7.383620e+05   5.789437e+05
  -7.126850e+05   6.620549e+05
  -1.619780e+06  -1.008526e+05
  -1.029351e+06  -8.932075e+05
   4.985172e+05  -1.020428e+06
   1.540969e+06  -4.867551e+05
   1.264231e+06   2.043560e+05
   1.342861e+05   5.297631e+05
  -6.651981e+05   2.761451e+05
  -3.933933e+05  -2.923210e+05
   5.862200e+05  -5.224284e+05
   1.188409e+06   7.949816e+04
   6.764527e+05   1.182983e+06
  -5.887821e+05   1.711785e+06
  -1.492382e+06   8.940285e+05
  -1.269619e+06  -7.644608e+05
  -2.051870e+05  -1.814420e+06
   7.573370e+05  -1.312922e+06
   9.477266e+05   1.819422e+05
   4.383341e+05   1.218707e+06
  -2.312687e+05   9.944144e+05
  -5.761221e+05   8.834311e+04
  -4.691552e+05  -3.913180e+05
  -1.605413e+05  -1.486117e+05
  -5.327172e+04   9.984504e+04
  -2.945437e+05  -2.866721e+05
  -5.224197e+05  -9.750706e+05
  -1.889954e+05  -1.105324e+06
   7.307959e+05  -4.144870e+05
   1.495744e+06   4.717870e+05
   1.295755e+06   8.587004e+05
   1.905373e+05   7.106970e+05
  -8.595243e+05   4.175648e+05
  -1.000261e+06   1.812205e+05
  -3.758529e+05  -4.749902e+04
   1.441278e+05  -2.258872e+05
   4.753878e+04  -2.168275e+05
  -2.554732e+05  -1.037354e+05
  -5.387548e+04  -1.295934e+05
   6.573861e+05  -2.316944e+05
   1.058722e+06   2.747212e+03
   4.560528e+05   6.830075e+05
  -8.319886e+05   1.191911e+06
  -1.716075e+06   7.908385e+05
  -1.437256e+06  -4.090204e+05
  -2.886041e+05  -1.417726e+06
   7.681571e+05  -1.405741e+06
   1.052849e+06  -5.589403e+05
   6.578006e+05   2.277704e+05
   1.424395e+05   3.574687e+05
  -5.506457e+04   6.320757e+04
   9.376915e+04  -1.455753e+04
   3.058092e+05   3.799563e+05
   2.514808e+05   8.231024e+05
  -1.722683e+05   6.898299e+05
  -6.811896e+05  -1.121868e+05
  -7.556117e+05  -9.438126e+05
  -1.402704e+05  -1.032790e+06
   7.424362e+05  -2.622787e+05
   1.048691e+06   7.063103e+05
   3.716126e+05   1.094262e+06
  -7.060845e+05   7.004897e+05
  -1.137274e+06  -5.629031e+04
  -5.593080e+05  -6.179745e+05
   2.751903e+05  -7.021981e+05
   3.891672e+05  -3.885172e+05
  -2.351833e+05  -1.299832e+04
  -6.532427e+05   4.481401e+04
  -1.575261e+05  -3.095544e+05
   8.324024e+05  -6.936295e+05
   1.290084e+06  -5.584213e+05
   7.945587e+05   1.721073e+05
  -8.450590e+04   8.859465e+05
  -5.583340e+05   8.870791e+05
  -4.346254e+05   1.875806e+05
  -6.139929e+04  -4.743393e+05
   2.300113e+05  -4.485381e+05
   3.481834e+05   1.347505e+05
   2.648543e+05   5.806068e+05
  -3.720920e+04   4.416700e+05
  -3.930566e+05  -3.557902e+04
  -4.956666e+05  -2.844432e+05
  -2.528224e+05  -1.025546e+05
   4.982181e+04   1.562763e+05
   9.998083e+04   6.221057e+04
  -2.642465e+04  -3.370881e+05
   1.022880e+04  -5.525055e+05
   2.956254e+05  -2.412199e+05
   4.735411e+05   3.517673e+05
   1.867200e+05   6.356012e+05
  -3.989145e+05   3.248153e+05
  -6.786032e+05  -2.605406e+05
  -2.666568e+05  -5.680620e+05
   5.124481e+05  -3.811384e+05
   8.986564e+05   5.452264e+04
   4.935900e+05   3.738241e+05
  -2.856559e+05   4.189507e+05
  -6.395120e+05   2.535361e+05
  -2.624428e+05   3.133820e+04
   3.274670e+05  -7.367535e+04
   3.971648e+05   4.864430e+04
  -1.610634e+05   2.794283e+05
  -7.293511e+05   2.705970e+05
