
 $NMID
 id='ANONYMOUS ', fmtdat='(2E16.6)'
 volume=1.0
 tramp=1.0
 $END
   3.931926e+07   8.890638e+05
   2.387694e+07   2.241807e+07
  -3.813304e+06   2.557397e+07
  -1.828452e+07   1.222001e+07
  -1.220490e+07  -2.388804e+06
   1.138945e+06  -6.540589e+06
   7.088875e+06  -8.309295e+05
   3.421209e+06   6.465105e+06
  -3.260375e+06   8.066770e+06
  -6.867280e+06   2.683985e+06
  -5.447749e+06  -4.680844e+06
  -6.513432e+05  -6.935763e+06
   3.263577e+06  -1.830951e+06
   2.408725e+06   5.029556e+06
  -2.424941e+06   5.933897e+06
  -5.857421e+06  -3.072798e+05
  -3.727729e+06  -7.366390e+06
   2.387667e+06  -8.799381e+06
   7.320796e+06  -4.230830e+06
   7.620449e+06   1.936911e+06
   3.975610e+06   5.529486e+06
  -1.644085e+05   5.422719e+06
  -1.472758e+06   3.328233e+06
   4.153109e+05   2.080803e+06
   2.097899e+06   3.066044e+06
  -1.859947e+05   4.542831e+06
  -5.533965e+06   3.503323e+06
  -8.466907e+06  -3.551073e+05
  -5.355557e+06  -3.831028e+06
   8.356937e+05  -3.995482e+06
   4.032717e+06  -1.400223e+06
   2.082207e+06   1.195830e+06
  -1.745508e+06   1.845219e+06
  -3.461368e+06   3.067091e+05
  -2.244031e+06  -2.409811e+06
   2.060795e+05  -4.110468e+06
   1.933980e+06  -2.676594e+06
   1.847969e+06   9.963807e+05
   3.034841e+05   2.797657e+06
  -7.868247e+05   3.543451e+05
   2.104466e+05  -3.039398e+06
   2.184799e+06  -2.307942e+06
   2.090788e+06   2.131792e+06
  -1.009062e+06   4.351978e+06
  -4.060115e+06   8.541077e+05
  -3.351782e+06  -4.589561e+06
   1.061752e+06  -5.805688e+06
   5.342607e+06  -1.704185e+06
   5.803448e+06   3.287396e+06
   2.139389e+06   4.872197e+06
  -2.647277e+06   2.716925e+06
  -4.755690e+06  -6.441348e+05
  -2.644878e+06  -2.555722e+06
   1.453507e+06  -1.888613e+06
   3.463645e+06   3.702452e+05
   1.715908e+06   1.833543e+06
  -1.197183e+06   1.066327e+06
  -1.675026e+06  -6.979904e+05
   4.160502e+05  -1.086390e+06
   1.858522e+06   3.632294e+05
   4.169692e+05   1.791056e+06
  -2.482919e+06   1.514727e+06
  -3.735603e+06  -3.255384e+05
  -1.962792e+06  -2.598900e+06
   1.606051e+06  -4.191635e+06
   4.623872e+06  -3.919954e+06
   5.299191e+06  -1.093331e+06
   3.413069e+06   2.949364e+06
   5.393244e+05   5.205989e+06
  -1.161673e+06   4.156072e+06
  -1.025071e+06   1.684202e+06
  -4.587346e+05   6.485262e+05
  -1.013260e+06   1.240316e+06
  -2.377712e+06   1.211800e+06
  -2.901242e+06  -5.969000e+05
  -1.692728e+06  -2.557597e+06
   4.729308e+05  -2.436128e+06
   2.043914e+06  -1.330947e+05
   1.867914e+06   2.337577e+06
  -1.423711e+05   2.939133e+06
  -2.705461e+06   1.246580e+06
  -3.765111e+06  -1.454699e+06
  -2.328674e+06  -3.254837e+06
   2.532728e+05  -3.156009e+06
   1.685805e+06  -1.876501e+06
   1.484946e+06  -9.350181e+05
   1.381693e+06  -8.674458e+05
   2.655906e+06  -7.411625e+05
   4.085060e+06   4.620552e+05
   3.397187e+06   2.473564e+06
   2.513989e+05   3.979360e+06
  -3.122456e+06   3.839783e+06
  -4.204076e+06   1.930271e+06
  -2.552880e+06  -7.044606e+05
   4.349969e+04  -2.319612e+06
   1.332582e+06  -1.770868e+06
   5.261964e+05   1.519490e+05
  -1.149286e+06   1.245579e+06
  -1.769677e+06   3.649962e+05
  -7.438788e+05  -1.119084e+06
   5.987949e+05  -1.119125e+06
   6.303506e+05   3.101997e+05
  -6.581164e+05   9.913450e+05
  -1.736518e+06  -4.598961e+05
  -1.294980e+06  -2.781391e+06
   5.498049e+05  -3.574984e+06
   2.612000e+06  -1.962673e+06
   3.601377e+06   7.741105e+05
   2.824994e+06   2.692910e+06
   6.885006e+05   2.793945e+06
  -1.287922e+06   1.508639e+06
  -1.626593e+06   1.853613e+05
  -4.871114e+05  -3.695288e+04
   3.746555e+05   7.235056e+05
  -3.089455e+05   1.229397e+06
  -1.700770e+06   5.761386e+05
  -1.920357e+06  -6.916727e+05
  -4.708726e+05  -1.258377e+06
   1.093117e+06  -6.285724e+05
   1.006101e+06   3.971006e+05
  -7.091378e+05   7.257702e+05
  -2.297983e+06   8.227353e+03
  -2.064537e+06  -1.254169e+06
   1.467150e+04  -2.141747e+06
   2.252815e+06  -1.853991e+06
   2.758168e+06  -3.851493e+05
   1.200087e+06   1.148391e+06
  -8.324898e+05   1.369633e+06
  -1.392790e+06   1.710586e+05
  -1.337812e+05  -9.915195e+05
   1.451765e+06  -7.245550e+05
   1.713304e+06   6.631893e+05
   4.945871e+05   1.589321e+06
  -9.313711e+05   1.104186e+06
  -1.265814e+06  -1.157242e+05
  -3.710907e+05  -6.976659e+05
   7.034121e+05  -8.710843e+04
   7.110815e+05   1.004680e+06
  -5.761152e+05   1.395135e+06
  -1.986219e+06   5.289770e+05
  -2.004998e+06  -1.021615e+06
  -4.157879e+05  -2.015472e+06
   1.335926e+06  -1.640775e+06
   1.670014e+06  -2.921966e+05
   5.637837e+05   8.110324e+05
  -5.989760e+05   8.379992e+05
  -6.992219e+05   9.072999e+04
   2.976851e+04  -4.847114e+05
   5.715090e+05  -3.687256e+05
   3.448521e+05   7.206099e+04
  -3.091619e+05   1.090555e+05
  -5.733820e+05  -4.908188e+05
   7.116570e+04  -1.136676e+06
   1.300517e+06  -9.403982e+05
   2.061360e+06   3.423487e+05
   1.480401e+06   1.881025e+06
  -1.618109e+05   2.430207e+06
  -1.574709e+06   1.535998e+06
  -1.768528e+06   2.124716e+03
  -1.033392e+06  -9.442806e+05
  -4.049460e+05  -8.630786e+05
  -3.748824e+05  -3.639203e+05
  -4.770635e+05  -2.606097e+05
  -7.484994e+04  -6.623099e+05
   7.970721e+05  -9.328586e+05
   1.446579e+06  -4.370391e+05
   1.167775e+06   7.050867e+05
  -1.293325e+05   1.565854e+06
  -1.685928e+06   1.192442e+06
  -2.287426e+06  -3.980012e+05
  -1.240056e+06  -2.024735e+06
   8.385448e+05  -2.346298e+06
   2.404338e+06  -1.149117e+06
   2.387737e+06   4.736998e+05
   1.146020e+06   1.280384e+06
  -7.427605e+04   1.075521e+06
  -4.603884e+05   6.602581e+05
  -2.493439e+05   7.550840e+05
  -1.805492e+05   1.194960e+06
  -6.166522e+05   1.201755e+06
  -1.221242e+06   3.075262e+05
  -1.323489e+06  -1.059979e+06
  -5.772054e+05  -1.878810e+06
   6.050130e+05  -1.442035e+06
   1.285846e+06  -4.987733e+04
   8.594738e+05   1.198044e+06
  -2.699639e+05   1.373805e+06
  -1.028856e+06   5.206335e+05
  -7.872288e+05  -5.131885e+05
  -2.277695e+03  -9.649353e+05
   3.709830e+05  -7.899740e+05
   1.071265e+04  -4.654137e+05
  -4.143350e+05  -3.589930e+05
  -5.168002e+04  -3.944277e+05
   1.083699e+06  -2.453104e+05
   1.981606e+06   2.653284e+05
   1.619886e+06   9.462593e+05
   7.155437e+04   1.348106e+06
  -1.454330e+06   1.123164e+06
  -1.767380e+06   3.733082e+05
  -8.562356e+05  -3.524168e+05
   2.073900e+05  -5.099870e+05
   4.700473e+05  -8.818774e+04
  -5.047605e+03   3.518498e+05
  -4.747145e+05   2.490755e+05
  -4.714198e+05  -3.343067e+05
  -1.833053e+05  -7.483552e+05
  -2.515839e+04  -4.898887e+05
  -1.370563e+05   1.571901e+05
  -3.287118e+05   3.776630e+05
  -2.940122e+05  -2.135365e+05
   1.590321e+05  -1.017871e+06
   8.703802e+05  -1.061386e+06
   1.257986e+06  -1.328836e+05
   7.663736e+05   9.079221e+05
  -4.002568e+05   1.061989e+06
  -1.197100e+06   2.717052e+05
  -7.312619e+05  -5.846449e+05
   6.618533e+05  -6.737108e+05
   1.614940e+06   1.155241e+04
   1.128668e+06   8.033058e+05
  -3.711341e+05   1.055038e+06
  -1.492247e+06   6.289100e+05
  -1.301805e+06  -9.383346e+04
  -1.901490e+05  -5.247151e+05
   6.277280e+05  -3.205476e+05
   3.594514e+05   2.630401e+05
  -6.170628e+05   4.977939e+05
  -1.182526e+06  -1.197532e+05
  -6.232509e+05  -1.207480e+06
   6.477300e+05  -1.692671e+06
   1.515934e+06  -8.638136e+05
   1.271439e+06   7.667417e+05
   2.272302e+05   1.813056e+06
  -7.152303e+05   1.355543e+06
  -9.411812e+05  -1.082713e+05
  -5.071264e+05  -1.175710e+06
   1.317830e+05  -1.007201e+06
   5.400939e+05  -1.209228e+05
   5.248620e+05   3.756793e+05
   2.218037e+05   1.454645e+05
   2.481408e+04  -1.105719e+05
   2.069916e+05   2.647626e+05
   5.004721e+05   9.495131e+05
   2.772303e+05   1.084414e+06
  -6.370597e+05   4.132137e+05
  -1.502756e+06  -4.400190e+05
  -1.362471e+06  -8.093175e+05
  -2.050409e+05  -6.853325e+05
   9.018468e+05  -4.383799e+05
   1.002840e+06  -2.238285e+05
   3.169927e+05   2.177316e+04
  -1.626939e+05   2.266963e+05
   3.101209e+04   2.286789e+05
   3.353230e+05   1.159183e+05
   2.933237e+04   1.401873e+05
  -7.311152e+05   2.332214e+05
  -1.046628e+06  -1.510045e+04
  -3.534810e+05  -6.908775e+05
   8.911872e+05  -1.166854e+06
   1.661024e+06  -7.344210e+05
   1.353481e+06   4.573870e+05
   2.745351e+05   1.422400e+06
  -7.371588e+05   1.370741e+06
  -1.050994e+06   5.151218e+05
  -6.751915e+05  -2.558590e+05
  -1.139022e+05  -3.607714e+05
   1.257856e+05  -4.019802e+04
  -5.659724e+04   5.521857e+04
  -3.320244e+05  -3.434272e+05
  -2.834276e+05  -8.047425e+05
   1.839797e+05  -6.742138e+05
   7.029849e+05   1.486547e+05
   7.277825e+05   9.877453e+05
   6.843881e+04   1.037451e+06
  -7.939247e+05   2.117907e+05
  -1.039374e+06  -7.608013e+05
  -3.294705e+05  -1.091881e+06
   7.214693e+05  -6.521557e+05
   1.100417e+06   7.878653e+04
   5.065124e+05   5.758279e+05
  -2.824112e+05   6.361556e+05
  -3.340082e+05   3.567990e+05
   2.991366e+05   1.698119e+04
   6.656831e+05  -4.273398e+04
   1.336191e+05   3.005708e+05
  -8.187029e+05   7.000158e+05
  -1.211090e+06   5.898298e+05
  -7.148776e+05  -1.373607e+05
   9.186401e+04  -8.561937e+05
   5.041960e+05  -8.417729e+05
   3.833657e+05  -1.270522e+05
   3.863916e+04   5.038547e+05
  -2.470889e+05   4.165205e+05
  -3.648767e+05  -1.842652e+05
  -2.568227e+05  -5.791054e+05
   6.435836e+04  -3.934032e+05
   3.944348e+05   5.815303e+04
   4.623486e+05   2.484776e+05
   2.403524e+05   6.743525e+04
  -1.028543e+04  -1.208497e+05
  -7.237751e+04   2.538464e+04
  -3.694314e+04   3.909327e+05
  -1.320494e+05   5.204283e+05
  -3.557429e+05   1.519784e+05
  -4.180374e+05  -4.330589e+05
  -9.357804e+04  -6.668621e+05
   4.302830e+05  -3.043530e+05
   6.480043e+05   3.037768e+05
   2.442113e+05   5.928867e+05
  -4.935321e+05   3.659664e+05
  -8.662834e+05  -8.655880e+04
  -4.742598e+05  -3.760617e+05
   2.948215e+05  -3.751723e+05
   6.340681e+05  -1.979874e+05
   2.202209e+05  -9.971932e+03
  -3.973454e+05   4.752654e+04
  -4.355054e+05  -1.015267e+05
   1.973716e+05  -3.281833e+05
   8.038445e+05  -2.908627e+05
