
 $NMID
 id='ANONYMOUS ', fmtdat='(2E16.6)'
 volume=1.0
 tramp=1.0
 $END
   4.581990e+07  -2.096362e+06
   2.934803e+07   2.620039e+07
  -3.785599e+06   3.107278e+07
  -2.160433e+07   1.399294e+07
  -1.419468e+07  -4.058226e+06
   1.829036e+06  -7.844870e+06
   8.277000e+06  -8.218073e+04
   3.302002e+06   7.808374e+06
  -4.337088e+06   8.570260e+06
  -7.922758e+06   2.547662e+06
  -6.165482e+06  -4.928873e+06
  -1.002846e+06  -7.346801e+06
   3.315065e+06  -2.341567e+06
   2.516299e+06   4.846406e+06
  -2.803270e+06   6.051959e+06
  -6.661257e+06  -5.262070e+05
  -4.292619e+06  -8.262645e+06
   2.509854e+06  -1.001613e+07
   8.087535e+06  -5.274145e+06
   8.886728e+06   1.404160e+06
   5.444668e+06   5.880835e+06
   7.339731e+05   6.725150e+06
  -1.819645e+06   4.748345e+06
  -7.344803e+05   2.483847e+06
   1.401883e+06   2.422903e+06
   1.263751e+05   4.005222e+06
  -4.935680e+06   3.859076e+06
  -8.477182e+06   4.246784e+05
  -6.024232e+06  -3.461139e+06
   4.921603e+03  -4.221381e+06
   3.454906e+06  -1.997741e+06
   2.066963e+06   3.815573e+05
  -1.063571e+06   1.164798e+06
  -2.573319e+06   3.477652e+05
  -2.029061e+06  -1.681372e+06
  -3.636238e+05  -3.662389e+06
   1.565441e+06  -3.163553e+06
   2.408039e+06   2.779124e+05
   1.182227e+06   2.923333e+06
  -5.707864e+05   1.191976e+06
  -1.112049e+05  -2.478525e+06
   2.140421e+06  -2.228091e+06
   2.293531e+06   2.484744e+06
  -1.441312e+06   5.182266e+06
  -5.312686e+06   1.248432e+06
  -4.403709e+06  -5.303432e+06
   1.064066e+06  -6.991754e+06
   6.007745e+06  -2.289482e+06
   6.222387e+06   3.464133e+06
   2.056706e+06   5.161323e+06
  -2.864201e+06   2.673615e+06
  -4.816842e+06  -9.279729e+05
  -2.499121e+06  -2.857315e+06
   1.807084e+06  -2.056084e+06
   3.871549e+06   4.677257e+05
   1.854783e+06   2.132880e+06
  -1.347241e+06   1.236272e+06
  -1.648552e+06  -7.883307e+05
   8.681160e+05  -1.023497e+06
   2.212699e+06   9.853961e+05
   3.504802e+04   2.650206e+06
  -3.400863e+06   1.884402e+06
  -4.439120e+06  -6.261046e+05
  -2.213625e+06  -3.093095e+06
   1.416151e+06  -4.548463e+06
   4.359688e+06  -4.296148e+06
   5.350558e+06  -1.571386e+06
   3.902221e+06   2.685685e+06
   9.252331e+05   5.338556e+06
  -1.315571e+06   4.311003e+06
  -1.365288e+06   1.421386e+06
  -3.457382e+05   1.050130e+05
  -3.884658e+05   9.418930e+05
  -1.728892e+06   1.421409e+06
  -2.602667e+06  -5.502600e+04
  -1.761975e+06  -1.990747e+06
   1.499244e+05  -2.090162e+06
   1.643324e+06  -1.615442e+05
   1.675789e+06   2.029125e+06
   8.573815e+03   2.742776e+06
  -2.501961e+06   1.452605e+06
  -3.913192e+06  -1.071108e+06
  -2.780332e+06  -3.183368e+06
  -5.100369e+04  -3.516722e+06
   1.774601e+06  -2.303624e+06
   1.753803e+06  -1.089575e+06
   1.538042e+06  -7.873676e+05
   2.655475e+06  -6.384998e+05
   4.014034e+06   4.826963e+05
   3.316941e+06   2.399113e+06
   2.691159e+05   3.822350e+06
  -2.889696e+06   3.712555e+06
  -3.871344e+06   2.002740e+06
  -2.441321e+06  -4.425813e+05
  -1.744946e+05  -2.102455e+06
   1.071482e+06  -1.758490e+06
   5.070279e+05   6.438730e+04
  -1.013530e+06   1.224280e+06
  -1.727211e+06   4.130678e+05
  -8.289733e+05  -1.065431e+06
   4.950062e+05  -1.054494e+06
   4.966866e+05   3.413911e+05
  -8.497871e+05   8.250299e+05
  -1.788607e+06  -8.363672e+05
  -9.888499e+05  -3.035547e+06
   1.028559e+06  -3.382519e+06
   2.785992e+06  -1.484018e+06
   3.304346e+06   1.049278e+06
   2.414220e+06   2.562641e+06
   5.576826e+05   2.533048e+06
  -1.157311e+06   1.416017e+06
  -1.494440e+06   2.274676e+05
  -4.630798e+05  -2.893572e+04
   3.615774e+05   6.904432e+05
  -3.119944e+05   1.236294e+06
  -1.703734e+06   6.002078e+05
  -1.905085e+06  -7.090183e+05
  -4.375148e+05  -1.272142e+06
   1.065844e+06  -5.904994e+05
   8.953060e+05   3.971993e+05
  -7.516429e+05   5.956984e+05
  -2.128718e+06  -1.416576e+05
  -1.797938e+06  -1.227109e+06
   1.187049e+05  -1.942389e+06
   2.132754e+06  -1.684197e+06
   2.607881e+06  -3.585795e+05
   1.175351e+06   1.120599e+06
  -7.906496e+05   1.390970e+06
  -1.400879e+06   2.179900e+05
  -1.944105e+05  -9.746957e+05
   1.387382e+06  -7.267012e+05
   1.642178e+06   6.557111e+05
   4.153266e+05   1.538333e+06
  -9.590595e+05   1.002359e+06
  -1.209481e+06  -1.962825e+05
  -3.004640e+05  -7.103970e+05
   7.175354e+05  -8.793083e+04
   7.109904e+05   9.563740e+05
  -5.093150e+05   1.343095e+06
  -1.870170e+06   5.512000e+05
  -1.930962e+06  -9.323222e+05
  -4.223217e+05  -1.926968e+06
   1.283494e+06  -1.585675e+06
   1.607894e+06  -2.686736e+05
   5.183816e+05   7.919554e+05
  -5.846757e+05   7.881242e+05
  -6.200918e+05   8.554985e+04
   8.161578e+04  -3.940361e+05
   4.998904e+05  -2.584515e+05
   1.966107e+05   7.891901e+04
  -3.880015e+05   1.515606e+04
  -5.359234e+05  -5.608717e+05
   1.167782e+05  -1.114597e+06
   1.256826e+06  -8.950676e+05
   1.967525e+06   3.181343e+05
   1.431804e+06   1.777595e+06
  -1.330974e+05   2.292107e+06
  -1.485957e+06   1.412107e+06
  -1.632110e+06  -4.304336e+04
  -8.858400e+05  -8.570278e+05
  -3.273380e+05  -6.899922e+05
  -4.056173e+05  -2.402708e+05
  -5.471543e+05  -2.507370e+05
  -1.040667e+05  -6.796311e+05
   7.800725e+05  -8.843694e+05
   1.364751e+06  -3.765846e+05
   1.046845e+06   6.609301e+05
  -1.698331e+05   1.426877e+06
  -1.594877e+06   1.091958e+06
  -2.147575e+06  -3.797822e+05
  -1.156202e+06  -1.934626e+06
   8.375668e+05  -2.255745e+06
   2.332021e+06  -1.078363e+06
   2.255437e+06   5.074534e+05
   1.000886e+06   1.234389e+06
  -1.372196e+05   9.514083e+05
  -3.926983e+05   5.364514e+05
  -1.184034e+05   6.980119e+05
  -8.760233e+04   1.186870e+06
  -5.773286e+05   1.201155e+06
  -1.184514e+06   3.299696e+05
  -1.279672e+06  -9.795402e+05
  -5.742074e+05  -1.767599e+06
   5.484072e+05  -1.369847e+06
   1.214679e+06  -4.429199e+04
   8.160356e+05   1.164337e+06
  -2.931382e+05   1.324560e+06
  -1.047782e+06   4.581179e+05
  -7.848630e+05  -5.722000e+05
   3.974091e+04  -9.862470e+05
   4.305328e+05  -7.638166e+05
   4.885227e+04  -4.167360e+05
  -4.068842e+05  -3.131268e+05
  -6.111503e+04  -3.627312e+05
   1.056905e+06  -2.403461e+05
   1.926461e+06   2.376903e+05
   1.553437e+06   9.091445e+05
   4.086205e+04   1.330251e+06
  -1.422845e+06   1.113597e+06
  -1.703637e+06   3.399885e+05
  -8.148204e+05  -3.996707e+05
   2.099712e+05  -5.253571e+05
   4.709293e+05  -6.510099e+04
   3.154826e+04   3.691910e+05
  -4.211946e+05   2.476573e+05
  -4.583774e+05  -3.075363e+05
  -2.296499e+05  -6.777196e+05
  -7.688155e+04  -4.468405e+05
  -1.320165e+05   1.131561e+05
  -2.794822e+05   3.060723e+05
  -2.721237e+05  -2.076519e+05
   1.187659e+05  -9.407400e+05
   8.118976e+05  -1.025049e+06
   1.240402e+06  -1.911108e+05
   7.960511e+05   8.318730e+05
  -3.529858e+05   1.058312e+06
  -1.151130e+06   3.309532e+05
  -7.025938e+05  -5.255746e+05
   6.351406e+05  -6.380517e+05
   1.512789e+06   2.903498e+04
   1.010455e+06   7.805231e+05
  -4.027844e+05   9.721727e+05
  -1.410094e+06   5.327284e+05
  -1.194545e+06  -1.266384e+05
  -1.547154e+05  -4.887821e+05
   6.028230e+05  -2.861700e+05
   3.639366e+05   2.563745e+05
  -5.455741e+05   4.965201e+05
  -1.112988e+06  -5.774482e+04
  -6.463116e+05  -1.099101e+06
   5.274300e+05  -1.611512e+06
   1.382175e+06  -8.640110e+05
   1.206457e+06   6.849456e+05
   2.421326e+05   1.690799e+06
  -6.626897e+05   1.257300e+06
  -8.862390e+05  -1.257312e+05
  -4.582059e+05  -1.114080e+06
   1.624006e+05  -9.359091e+05
   5.248584e+05  -1.049206e+05
   4.641385e+05   3.480754e+05
   1.717509e+05   1.320433e+05
   3.862943e+04  -9.686679e+04
   2.557337e+05   2.575293e+05
   5.047537e+05   8.925054e+05
   2.288220e+05   1.019951e+06
  -6.457776e+05   4.016715e+05
  -1.411236e+06  -3.955015e+05
  -1.250575e+06  -7.549109e+05
  -1.987422e+05  -6.520575e+05
   8.055869e+05  -4.188655e+05
   9.303882e+05  -2.063049e+05
   3.343486e+05   2.978401e+04
  -1.348147e+05   2.156316e+05
  -1.560134e+04   2.047318e+05
   2.654505e+05   9.167847e+04
   4.661921e+04   1.238506e+05
  -6.309547e+05   2.355400e+05
  -9.870511e+05   1.891920e+04
  -4.129265e+05  -6.336288e+05
   7.677154e+05  -1.129427e+06
   1.571509e+06  -7.624338e+05
   1.330918e+06   3.650599e+05
   3.001080e+05   1.320802e+06
  -6.765192e+05   1.321779e+06
  -9.721080e+05   5.351033e+05
  -6.267848e+05  -2.048355e+05
  -1.335157e+05  -3.328164e+05
   7.167668e+04  -5.607510e+04
  -7.494049e+04   2.661693e+04
  -3.016582e+05  -3.362430e+05
  -2.638863e+05  -7.571684e+05
   1.484427e+05  -6.450972e+05
   6.474790e+05   9.849273e+04
   7.227484e+05   8.783944e+05
   1.350289e+05   9.663819e+05
  -7.050034e+05   2.500573e+05
  -9.969429e+05  -6.517057e+05
  -3.613921e+05  -1.015175e+06
   6.496724e+05  -6.583806e+05
   1.054832e+06   3.313335e+04
   5.209089e+05   5.537909e+05
  -2.448269e+05   6.440505e+05
  -3.393398e+05   3.614578e+05
   2.393308e+05   5.468439e+03
   6.135947e+05  -5.747723e+04
   1.474004e+05   2.838724e+05
  -7.574793e+05   6.702060e+05
  -1.168597e+06   5.599472e+05
  -7.224770e+05  -1.342647e+05
   6.086128e+04  -8.220619e+05
   4.863189e+05  -8.278196e+05
   3.888732e+05  -1.662310e+05
   6.314663e+04   4.516559e+05
  -2.104537e+05   4.161460e+05
  -3.355299e+05  -1.317011e+05
  -2.592770e+05  -5.364437e+05
   3.384433e+04  -4.006173e+05
   3.696477e+05   3.042040e+04
   4.593297e+05   2.445707e+05
   2.340196e+05   7.985680e+04
  -3.744693e+04  -1.358329e+05
  -8.381356e+04  -3.080557e+04
   1.596006e+04   3.327391e+05
  -3.338830e+04   5.116886e+05
  -2.915335e+05   2.084023e+05
  -4.377459e+05  -3.435318e+05
  -1.634801e+05  -6.023971e+05
   3.752287e+05  -3.084270e+05
   6.333708e+05   2.411442e+05
   2.573034e+05   5.329501e+05
  -4.649856e+05   3.636683e+05
  -8.332907e+05  -3.990478e+04
  -4.649994e+05  -3.390309e+05
   2.612691e+05  -3.860769e+05
   5.922896e+05  -2.359264e+05
   2.329430e+05  -2.785401e+04
  -3.260601e+05   7.149463e+04
  -3.857960e+05  -5.022891e+04
   1.529420e+05  -2.809033e+05
   6.969263e+05  -2.792449e+05
