
 $NMID
 id='ANONYMOUS ', fmtdat='(2E16.6)'
 volume=1.0
 tramp=1.0
 $END
   2.966482e+03   1.034381e+02
   1.783248e+03   1.435418e+03
  -1.807741e+01   1.921459e+03
  -1.260498e+03   1.000529e+03
  -8.073918e+02  -6.018355e+01
   6.562747e+01  -2.913047e+02
   5.133384e+02   7.164344e+01
   8.948966e+01   5.864612e+02
  -4.556440e+02   5.269907e+02
  -6.641195e+02  -1.424029e+01
  -3.772194e+02  -5.923259e+02
   1.519382e+02  -6.220676e+02
   3.855194e+02  -8.073900e+01
   1.927131e+02   5.077925e+02
  -2.510958e+02   5.505279e+02
  -4.354527e+02   1.946173e+01
  -2.146996e+02  -5.142384e+02
   1.558863e+02  -4.710580e+02
   4.455083e+02  -1.644558e+02
   3.381266e+02   2.060926e+02
   3.709060e+01   3.238321e+02
  -1.380184e+02   1.724924e+02
  -8.795083e+01   3.607552e+00
   2.113038e+02   4.433987e+01
   2.834892e+02   2.215932e+02
   2.333720e+01   3.714846e+02
  -4.764494e+02   1.992142e+02
  -5.936897e+02  -1.630949e+02
  -1.740238e+02  -4.450589e+02
   3.506514e+02  -2.449219e+02
   5.175341e+02   1.422251e+02
   1.483524e+02   3.730584e+02
  -2.592063e+02   3.607004e+02
  -4.309638e+02   5.750008e+01
  -2.864525e+02  -2.160617e+02
  -3.079165e+01  -3.580294e+02
   1.118618e+02  -1.404001e+02
   6.690941e+01   1.379807e+02
  -2.090387e+02   1.919867e+02
  -2.708687e+02  -1.621492e+02
  -5.418454e+01  -5.985860e+02
   2.690281e+02  -4.738823e+02
   3.978415e+02   5.347421e+01
   1.056529e+02   3.234112e+02
  -1.742392e+02   1.563659e+02
  -2.197809e+02  -2.668219e+02
   8.541321e+01  -3.585294e+02
   4.720827e+02  -1.090074e+02
   4.599985e+02   3.379859e+02
   9.055476e+01   4.754113e+02
  -3.563705e+02   2.135242e+02
  -5.206206e+02  -9.492918e+01
  -2.538213e+02  -3.088393e+02
   1.054284e+02  -2.197452e+02
   2.991349e+02  -4.852150e+01
   1.573830e+02   1.037697e+02
  -4.416793e+01   3.611088e+01
  -9.289083e+01  -6.465792e+01
   1.130630e+02  -1.106244e+02
   2.252513e+02   7.204350e+01
   1.339368e+02   2.623062e+02
  -1.392810e+02   2.284604e+02
  -3.207079e+02   5.883600e+01
  -2.406427e+02  -1.337313e+02
   4.808432e+01  -3.176586e+02
   2.645663e+02  -3.057805e+02
   3.485746e+02  -1.393713e+02
   2.092190e+02   1.752211e+02
   3.816338e+01   3.325249e+02
  -9.473929e+01   2.308508e+02
  -6.516310e+01   5.300844e+01
  -4.308455e-01   6.395944e+01
  -5.530093e+01   1.252663e+02
  -2.079774e+02   8.597721e+01
  -2.291762e+02  -9.587441e+01
  -1.169916e+02  -2.365906e+02
   1.157303e+02  -1.825319e+02
   2.263838e+02   2.961983e+01
   1.660502e+02   2.250544e+02
  -2.440235e+01   2.824719e+02
  -2.248549e+02   7.397454e+01
  -2.412520e+02  -1.836068e+02
  -1.303660e+02  -2.670429e+02
   7.525701e+01  -2.238117e+02
   1.635659e+02  -1.090707e+02
   1.153931e+02  -5.392635e+01
   9.853096e+01  -5.073728e+01
   1.998296e+02  -3.096477e+01
   3.151851e+02   7.452114e+01
   2.400587e+02   2.947697e+02
  -3.624773e+01   3.564694e+02
  -3.423414e+02   3.533323e+02
  -4.561937e+02   1.440401e+02
  -2.914597e+02  -1.304713e+02
  -4.871752e+00  -2.785246e+02
   1.265381e+02  -1.700118e+02
   6.738786e+01  -1.893787e+01
  -7.080120e+01   5.361252e+01
  -1.235038e+02  -6.017338e+01
   6.430915e+00  -1.652312e+02
   1.100941e+02  -5.514949e+01
   1.413493e+02   5.132760e+01
  -1.867834e+01   1.658345e+02
  -1.511566e+02   2.951405e+01
  -1.152679e+02  -2.080886e+02
   7.149051e+01  -3.039498e+02
   2.492264e+02  -1.803505e+02
   2.932719e+02   8.478508e+01
   2.535475e+02   2.300853e+02
  -7.999031e-01   2.312769e+02
  -1.292003e+02   1.106987e+02
  -1.423933e+02  -2.604074e+01
  -3.156376e+01  -2.530217e+01
   7.618035e+01   4.697347e+01
   4.184941e+01   8.633598e+01
  -1.027095e+02   1.044851e+02
  -1.224144e+02  -4.143662e+01
  -5.927051e+01  -5.819402e+01
   8.896732e+01   1.231799e+01
   6.597209e+01   7.797528e+01
  -9.552595e+01   1.125624e+02
  -2.836611e+02  -1.847932e+00
  -2.148194e+02  -1.860240e+02
   9.049487e-01  -2.538187e+02
   1.886662e+02  -1.829848e+02
   2.198554e+02  -5.074104e+01
   1.036817e+02   7.637901e+01
  -2.235941e+01   7.274507e+01
  -4.174074e+01  -9.247929e+00
   1.953829e+01  -7.745778e+01
   1.703853e+02  -2.263261e+01
   1.277333e+02   9.118850e+01
   5.018386e+01   1.621430e+02
  -9.505024e+01   1.401826e+02
  -1.065707e+02   1.214391e+01
  -5.693835e+01  -6.078253e+01
   1.368639e+01   8.500313e+00
   1.408119e+01   1.183333e+02
  -9.486825e+01   1.167853e+02
  -2.177576e+02  -6.452100e+00
  -1.471625e+02  -1.367178e+02
   1.796867e+01  -1.808215e+02
   1.177130e+02  -1.279059e+02
   1.665108e+02   5.760091e+00
   4.859147e+01   6.952260e+01
  -7.097260e+01   9.721865e+01
  -6.417584e+01   1.851694e+01
   8.295203e+00  -3.201530e+01
   4.335405e+01  -1.117056e+01
  -6.118451e-01   2.848715e+01
  -6.249834e+01   3.157398e+00
  -8.486090e+01  -8.520722e+01
  -5.520335e+00  -1.377371e+02
   1.426168e+02  -1.308164e+02
   1.968216e+02   1.751943e+01
   1.887988e+02   1.718523e+02
   3.342768e+01   2.224175e+02
  -1.082368e+02   1.713387e+02
  -1.260443e+02   4.107806e+01
  -7.033253e+01  -5.132767e+01
  -3.471852e+01  -1.707209e+01
  -3.416668e+01   9.445666e+00
  -9.334382e+01   2.204833e+01
  -4.649144e+01  -6.739813e+01
   4.056250e+01  -9.884529e+01
   1.270439e+02  -7.509802e+01
   9.932123e+01   2.641080e+01
  -6.717516e+00   1.362098e+02
  -1.613383e+02   8.117135e+01
  -2.227373e+02  -5.850862e+01
  -6.668732e+01  -1.947016e+02
   9.872848e+01  -2.233087e+02
   2.439695e+02  -6.423269e+01
   2.383822e+02   9.798214e+01
   6.796507e+01   1.950422e+02
  -4.614633e+01   1.158153e+02
  -8.551267e+01   6.458377e+01
  -8.336449e+01   5.218497e+01
  -5.738268e+01   9.930842e+01
  -5.423192e+01   7.109952e+01
  -1.137302e+02  -2.518029e+01
  -1.453210e+02  -1.348798e+02
  -1.814183e+01  -2.167658e+02
   1.152003e+02  -1.437526e+02
   1.791545e+02   2.745190e+01
   9.021080e+01   1.118784e+02
   4.147830e+00   1.298015e+02
  -8.001121e+01   4.636431e+01
  -4.743498e+01  -2.035884e+01
   1.935689e+01  -5.719706e+01
   3.067372e+01  -3.881261e+01
  -5.271793e+01  -3.842791e+01
  -7.273273e+01  -2.388060e+01
  -4.819475e+01  -5.028029e+01
   7.377113e+01  -7.575275e+01
   1.796374e+02   1.334138e+01
   1.378324e+02   7.116926e+01
   3.575275e+00   1.395974e+02
  -1.049549e+02   6.618031e+01
  -1.264380e+02  -2.930406e+01
  -3.166662e+01  -6.030606e+01
   7.655750e+01  -5.861008e+01
   7.328804e+01  -1.173213e+01
   1.789266e+00   7.257640e+01
  -5.788536e+01   4.309682e+01
  -5.497050e+01  -1.109561e+01
  -4.596352e+01  -5.275817e+01
  -2.164459e+01  -4.320478e+01
  -1.081590e+01  -2.976543e+01
  -4.282610e+01  -1.054584e+01
  -2.812467e+01  -5.818046e+01
   2.847829e+01  -1.441980e+02
   1.137520e+02  -1.193009e+02
   1.670667e+02  -1.276941e+01
   1.035170e+02   8.193694e+01
  -1.180517e+01   1.285522e+02
  -9.789693e+01   5.969158e+01
  -5.763268e+01  -2.815019e+01
   4.612597e+01  -5.500381e+01
   1.147937e+02   2.312018e+01
   6.730517e+01   1.115627e+02
  -7.586325e+01   8.518407e+01
  -1.468237e+02   1.502017e+01
  -1.214811e+02  -4.998427e+01
  -1.248956e+01  -8.843520e+01
   6.474712e+01  -4.638338e+01
   6.305731e+01   3.497900e+01
  -4.253761e+01   5.863019e+01
  -8.236795e+01  -2.712382e+01
  -3.406380e+01  -1.008226e+02
   7.968594e+01  -1.028269e+02
   1.571048e+02  -7.117135e+01
   7.408657e+01   6.462661e+01
  -3.673998e+00   1.522667e+02
  -8.915140e+01   1.028348e+02
  -6.561047e+01  -1.415601e+01
  -2.158635e+01  -1.006261e+02
   4.203840e+01  -6.401095e+01
   2.824396e+01  -7.932546e+00
   4.404104e+01  -1.974750e+01
   1.501806e+01   5.521878e+00
   8.572251e-01  -8.827985e+00
   3.147331e+01  -1.141133e+01
   3.285790e+01   9.335982e+01
   1.594651e+01   8.662486e+01
  -3.712460e+01   1.544105e+01
  -1.243554e+02  -4.012669e+01
  -1.089267e+02  -8.242562e+01
  -6.062278e+00  -7.691256e+01
   8.321030e+01  -2.863943e+01
   8.966578e+01   2.188468e+01
  -1.919220e+00   4.020031e+01
  -2.717523e+01   2.830735e+01
  -2.790667e-01  -8.842265e+00
   1.851905e+01   6.850470e-01
   7.979530e+00   7.159196e+00
  -4.073635e+01   4.366215e+00
  -8.841262e+01  -1.832327e+01
  -2.202210e+01  -6.283878e+01
   9.260435e+01  -7.780061e+01
   1.779563e+02  -2.210706e+01
   1.294797e+02   7.022264e+01
   5.449017e+01   1.846213e+02
  -7.137115e+01   1.428555e+02
  -9.986981e+01   5.745729e+01
  -8.764076e+01  -5.468962e+01
  -4.250600e+01  -6.823435e+01
  -2.969620e+00  -3.584556e+01
  -3.695311e+01  -2.416462e+01
  -3.371253e+01  -5.848668e+01
   4.875040e+00  -7.901263e+01
   2.067990e+01  -4.655734e+01
   6.626590e+01   1.917735e+01
   7.595495e+01   7.959745e+01
   4.017122e+01   1.037681e+02
  -8.664019e+01  -1.039337e+00
  -7.611095e+01  -5.404071e+01
  -3.383849e+01  -9.351532e+01
   5.884593e+01  -6.215418e+01
   9.224642e+01   4.660585e+01
   2.577194e+01   5.164930e+01
  -3.698975e+01   7.646363e+01
  -1.037179e+01   2.425969e+01
   2.019272e+01  -5.456614e+00
   3.706488e+01   9.065075e-01
   3.368513e+01   1.977878e+01
  -3.642514e+01   5.703372e+01
  -1.119330e+02   3.021598e+01
  -7.354194e+01  -3.587637e+00
  -1.605784e+01  -8.056753e+01
   4.609906e+01  -4.939563e+01
   2.843869e+01   1.894790e+01
  -1.240387e+01   5.853430e+01
  -1.474735e+01   3.457194e+01
  -3.501296e+01  -2.455921e+00
  -2.514612e+01  -5.714631e+01
  -2.281070e+00  -3.277388e+01
   3.212114e+01  -9.367330e+00
   4.670539e+01   2.774002e+01
  -6.431604e+00   2.152407e+01
  -2.151072e+01  -3.395886e+01
  -8.619485e+00  -1.487598e+01
   1.807689e+01   9.097535e+00
  -5.688392e+00   4.205933e+01
  -2.053417e+01   2.146761e+01
  -4.006766e+01  -3.580299e+01
  -6.599660e+00  -5.822225e+01
   4.000911e+01  -3.391555e+01
   7.706113e+01   1.122854e+01
   1.375699e+01   7.128040e+01
  -3.409373e+01   2.341046e+01
  -1.157528e+02  -6.498898e+00
  -4.178430e+01  -8.192088e+01
   3.500103e+01  -3.620462e+01
   8.082156e+01  -2.579990e+01
   1.825445e+01   9.836535e+00
  -7.705071e+00   1.504361e+01
  -5.679190e+01  -1.075451e+01
  -4.483027e+00  -2.023919e+01
   5.080025e+01  -4.047339e+01
