
 $NMID
 id='ANONYMOUS ', fmtdat='(2E16.6)'
 volume=1.0
 tramp=1.0
 $END
  -3.405430e+03   2.308575e+02
  -2.454498e+03  -1.565888e+03
   1.110131e+02  -2.260209e+03
   1.190491e+03  -1.275954e+03
   9.537177e+02   3.472222e+01
  -2.272109e+01   2.312524e+02
  -4.232236e+02  -8.433151e+01
  -5.793722e+01  -6.784104e+02
   5.060072e+02  -6.276819e+02
   6.775385e+02  -7.787527e+01
   4.858489e+02   5.749060e+02
   5.060961e+01   7.037772e+02
  -3.757442e+02   2.589936e+02
  -3.257684e+02  -4.460695e+02
   1.237310e+02  -5.786251e+02
   4.175993e+02  -5.839991e+01
   2.574063e+02   4.748655e+02
  -1.716173e+02   6.039893e+02
  -4.471441e+02   1.608068e+02
  -4.174277e+02  -2.177529e+02
  -1.021778e+02  -3.566940e+02
   1.739633e+02  -2.804488e+02
   1.421868e+02  -4.968563e+01
  -1.609627e+02  -1.712246e+01
  -3.066441e+02  -2.311338e+02
  -8.033443e+01  -3.634420e+02
   4.087191e+02  -2.457330e+02
   6.760998e+02  -1.790585e+01
   2.605721e+02   3.344801e+02
  -3.451832e+02   3.014857e+02
  -5.629433e+02  -9.222290e+01
  -2.097339e+02  -4.048101e+02
   3.197794e+02  -3.602602e+02
   4.872715e+02  -1.247694e+02
   3.248790e+02   1.825206e+02
   6.272316e+01   3.433226e+02
  -3.105942e+01   2.505200e+02
   3.081209e+00  -1.345700e+02
   2.108485e+02  -2.795018e+02
   2.378822e+02   8.475771e+01
   1.298371e+02   5.002149e+02
  -2.505909e+02   4.585399e+02
  -3.767759e+02  -3.435888e+01
  -1.572112e+02  -3.354566e+02
   1.725219e+02  -1.936694e+02
   2.133628e+02   2.352753e+02
  -1.101895e+02   3.769506e+02
  -4.174554e+02   7.465575e+01
  -4.753804e+02  -3.217963e+02
  -1.747782e+02  -4.894209e+02
   3.159620e+02  -2.714204e+02
   5.775422e+02   4.909420e+01
   3.426306e+02   2.513831e+02
  -7.133074e+01   2.198643e+02
  -3.061244e+02   4.584659e+01
  -1.830945e+02  -6.636365e+01
  -7.929184e+00  -4.824383e+01
   9.420541e+01   9.298800e+01
  -1.154713e+02   6.912210e+01
  -2.859486e+02  -6.683877e+01
  -1.301791e+02  -2.154214e+02
   1.664945e+02  -2.273707e+02
   2.943978e+02  -1.042141e+02
   2.544956e+02   1.160274e+02
  -2.716452e+01   3.210524e+02
  -2.474805e+02   3.410236e+02
  -3.577124e+02   1.388491e+02
  -2.723484e+02  -1.219014e+02
  -5.429393e+01  -3.355586e+02
   4.535117e+01  -3.150155e+02
   3.325817e+00  -1.620928e+02
   2.728261e+01  -8.377116e+01
   1.189165e+02  -1.441134e+02
   2.520045e+02  -9.380914e+01
   2.409042e+02   1.194618e+02
   1.342828e+02   2.610788e+02
  -9.066248e+01   2.034848e+02
  -1.839575e+02  -2.400926e+01
  -1.513200e+02  -2.560008e+02
   6.880749e+01  -2.585188e+02
   2.390912e+02  -7.078398e+01
   3.199470e+02   1.722109e+02
   1.733869e+02   2.516455e+02
  -7.352002e+01   2.503270e+02
  -1.770959e+02   1.123495e+02
  -1.542252e+02   4.842660e+01
  -1.612816e+02   5.704122e+01
  -2.596705e+02   4.889374e+01
  -4.196495e+02  -8.646210e+01
  -3.442112e+02  -2.946102e+02
   1.985255e+01  -4.446157e+02
   3.424625e+02  -3.389775e+02
   4.309718e+02  -1.479221e+02
   2.534601e+02   8.696983e+01
   9.433466e+00   2.396996e+02
  -9.887700e+01   1.985324e+02
  -3.903849e+01   3.780301e+01
   9.119474e+01  -3.748670e+01
   1.377949e+02   2.146684e+01
  -6.152088e+00   1.572402e+02
  -1.698489e+02   1.370732e+02
  -1.250895e+02  -5.553165e+01
   3.169277e+01  -1.331185e+02
   1.420268e+02  -2.483082e+01
   1.520767e+02   1.972439e+02
  -2.818242e+01   3.195452e+02
  -2.086475e+02   1.779376e+02
  -3.181725e+02  -8.533540e+01
  -2.457977e+02  -2.232699e+02
  -3.150078e+01  -2.566656e+02
   1.216325e+02  -1.141310e+02
   1.527736e+02  -3.520668e+01
   4.784842e+01   1.400415e+01
  -4.472709e+01  -6.595158e+01
   2.076109e+01  -9.355452e+01
   1.170977e+02  -5.027528e+01
   1.651400e+02   2.576784e+01
   4.729965e+01   9.406229e+01
  -7.703404e+01   2.079013e+00
  -5.280072e+01  -7.637557e+01
   1.063269e+02  -7.481993e+01
   2.782038e+02   1.565186e+01
   2.697175e+02   1.410074e+02
   2.851626e+01   2.623098e+02
  -1.929139e+02   2.881766e+02
  -2.764639e+02   1.461892e+02
  -1.289242e+02  -1.881127e+01
   6.678318e+00  -8.734346e+01
   7.120266e+01  -9.758209e+00
  -4.524771e+01   7.631512e+01
  -1.716776e+02   6.125136e+00
  -1.761061e+02  -1.109394e+02
  -4.610001e+01  -1.798822e+02
   6.045666e+01  -1.423154e+02
   1.300521e+02  -3.036999e+01
   6.466840e+01   2.294854e+01
  -3.207801e+01  -1.746692e+01
  -3.326701e+01  -8.685501e+01
   8.163174e+01  -1.057378e+02
   1.928640e+02  -1.360183e+01
   1.815962e+02   9.928996e+01
   2.501429e+01   1.990852e+02
  -1.268785e+02   1.585395e+02
  -1.523244e+02   1.152561e+01
  -4.955061e+01  -7.276482e+01
   6.230586e+01  -7.855152e+01
   5.905596e+01  -3.775970e+01
  -1.292348e+01   3.825158e+01
  -6.975869e+00   1.870905e+01
   8.134273e+00  -4.542833e+00
   7.372538e+01   1.114489e+01
   8.301544e+01   6.631587e+01
   4.860986e+00   1.551786e+02
  -1.328363e+02   1.443938e+02
  -1.941938e+02   6.309093e+00
  -1.916402e+02  -1.355463e+02
  -2.510286e+01  -1.836113e+02
   1.110602e+02  -1.353442e+02
   1.038416e+02  -2.038024e+01
   5.891411e+01   5.076420e+01
   2.382524e+01   2.058092e+01
   5.296302e+01  -9.359593e+00
   7.419372e+01  -3.126998e+01
   4.171663e+01   5.769063e+01
  -4.639313e+01   8.087776e+01
  -1.056674e+02   8.052668e+01
  -1.125435e+02  -1.513225e+01
   1.822303e+01  -1.149133e+02
   1.222443e+02  -7.492469e+01
   1.851608e+02   8.499200e+01
   8.279627e+01   1.723806e+02
  -1.152998e+02   2.071835e+02
  -2.365330e+02   8.476147e+01
  -2.332188e+02  -6.247251e+01
  -9.480751e+01  -1.479658e+02
   4.520503e+01  -1.151702e+02
   9.074195e+01  -7.174059e+01
   4.863588e+01  -6.010584e+01
   3.438147e+01  -1.108225e+02
   7.056428e+01  -7.039016e+01
   1.204052e+02  -1.219126e+01
   1.213244e+02   1.724918e+02
   8.705300e+00   1.877590e+02
  -9.360174e+01   1.454763e+02
  -1.595811e+02   2.836613e+01
  -1.243643e+02  -9.337654e+01
   1.176139e+01  -1.657971e+02
   4.839486e+01  -6.788157e+01
   4.851542e+01   1.603378e+01
  -1.473591e+01   5.273898e+01
  -7.329132e+00   5.684400e+01
   4.270491e+01  -1.264419e+01
   7.878274e+01  -3.219429e+00
   5.322154e+01   6.121110e+01
  -9.232513e+01   2.557334e+01
  -1.653955e+02   3.223169e+01
  -1.367785e+02  -4.861214e+01
  -2.406001e+00  -1.061931e+02
   1.057388e+02  -8.761574e+01
   1.616453e+02  -2.413263e+01
   6.678093e+01   5.617072e+01
  -5.428687e+01   4.999089e+01
  -7.054222e+01  -3.386612e+00
  -3.469689e+01  -7.512198e+01
   2.481507e+01  -5.756415e+01
   4.683666e+01  -3.237044e+01
   2.934429e+01   1.922638e+01
   5.247923e+01   5.156334e+01
   6.500698e+01  -4.171603e+00
   6.617758e+01   2.007836e+01
   7.729990e+01   2.666357e+01
  -4.040769e+00   1.610104e+02
  -9.023336e+01   1.733959e+02
  -1.512214e+02   4.346375e+01
  -1.310130e+02  -8.833891e+01
   1.592608e+01  -1.140269e+02
   7.989808e+01  -9.140028e+01
   2.547288e+01   2.824950e+00
  -5.832073e+01  -2.922159e+00
  -1.301244e+02  -3.000620e+01
  -7.031774e+01  -1.245715e+02
   6.203161e+01  -1.165377e+02
   1.684954e+02  -4.234570e+01
   1.610064e+02   4.171369e+01
   1.876338e+01   8.806302e+01
  -5.055828e+01   6.976387e+01
  -3.465876e+01   7.375132e+00
   4.639206e+01  -1.872005e+01
   9.555774e+01   3.640311e+01
   6.389083e+01   1.093282e+02
  -5.861941e+01   1.795929e+02
  -1.340306e+02   2.179373e+01
  -1.216738e+02  -6.136167e+01
  -3.529316e+01  -1.645297e+02
   5.394144e+01  -1.621324e+02
   8.858405e+01  -4.849135e+00
   3.902300e+01   1.094380e+02
  -4.953568e+01   1.119968e+02
  -8.281687e+01   2.902310e+01
  -4.849302e+01  -5.620963e+01
   9.118441e+00  -4.197628e+01
   2.124454e+01   2.354077e+01
  -3.154378e+01  -1.346009e+01
  -2.620613e+01  -5.331861e+01
  -4.235464e+01  -1.196993e+02
   2.704696e+01  -4.275376e+01
   1.330332e+02   7.863658e+00
   1.278418e+02   5.693611e+01
   4.170199e+01   9.308921e+01
  -7.554308e+01   3.631282e+01
  -1.030913e+02   8.340311e+00
  -2.935403e+01  -2.555317e+01
  -4.412832e-01  -1.136426e+01
   2.507824e+01  -3.864865e+01
  -7.253561e+00   2.710656e+00
   1.812205e+01   4.169995e+00
   5.247082e+01   9.571514e+00
   9.155793e+01   6.175479e+00
   3.379156e+01   5.437718e+01
  -8.060197e+01   8.940783e+01
  -1.654960e+02   5.234948e+01
  -1.197617e+02  -5.237463e+01
  -1.321034e+01  -1.554691e+02
   9.161697e+01  -1.342023e+02
   1.046329e+02  -5.759117e+01
   6.728488e+01   9.435575e-02
   1.224551e+01   2.117925e+01
  -2.086817e-03  -1.486621e+01
   1.249302e+00   1.008711e+01
   1.829844e+01   4.516733e+01
   3.658079e+01   7.225532e+01
  -7.497067e-01   4.890433e+01
  -8.747003e+01  -1.287656e+01
  -8.694736e+01  -1.048913e+02
  -6.337854e+00  -8.284921e+01
   5.380367e+01  -3.103858e+01
   9.554805e+01   5.173386e+01
   3.910082e+01   1.204736e+02
  -3.582549e+01   5.811508e+01
  -8.098581e+01  -8.708055e+00
  -5.526464e+01  -4.563772e+01
   3.361155e+01  -6.343064e+01
   7.944100e+00  -3.399975e+01
  -2.473795e+01   2.601234e+00
  -3.963534e+01   3.451791e+00
  -2.023225e+00  -2.011099e+01
   6.647161e+01  -5.439256e+01
   1.016232e+02  -2.932291e+01
   5.220026e+01  -1.796225e+01
   6.006726e+00   8.933816e+01
  -4.331529e+01   7.264561e+01
  -5.066312e+01   3.078797e+01
  -2.262260e+01  -4.066214e+01
  -2.702561e+00  -5.592144e+01
   3.105923e+01   2.097165e+01
   8.268044e+00   3.772452e+01
   1.280324e+01   4.396146e+01
  -5.267461e+01  -1.512183e+01
  -9.058753e+00  -3.692867e+00
  -1.321438e+01  -1.753944e+01
   1.200728e+01   4.081864e+01
   9.827609e+00   1.094919e+01
   1.684134e+01  -3.503316e+01
   7.848037e+00  -3.751948e+01
   2.552086e+01  -1.918983e+01
   1.213070e+01   1.595682e+01
  -7.956438e+00   4.991015e+01
  -3.822747e+01  -1.113261e+00
  -3.425603e+01  -1.800830e+01
  -2.767577e+01  -5.969533e+01
   4.870332e+01  -3.611684e+01
   8.612315e+01   7.102321e+00
   5.372807e+01   3.026914e+01
  -1.984771e+01   5.977020e+01
  -3.866640e+01   9.689827e+00
  -1.359056e+01   3.203932e+01
   3.676102e+01  -1.426314e-01
   4.904702e+01   1.969821e+01
  -7.113037e+00   4.022426e+00
  -6.131033e+01  -1.484385e+01
