
 $NMID
 id='ANONYMOUS ', fmtdat='(2E16.6)'
 volume=1.0
 tramp=1.0
 $END
  -2.350761e+03  -2.225399e+02
  -1.829825e+03  -9.485113e+02
  -3.608113e+02  -1.734039e+03
   8.312715e+02  -1.291806e+03
   1.017419e+03  -4.186066e+02
   1.961976e+02   1.483102e+02
  -2.755484e+02   4.245633e+01
  -1.011099e+02  -4.042316e+02
   3.135804e+02  -3.873846e+02
   5.544411e+02  -4.576559e+01
   4.413815e+02   3.978091e+02
   4.036516e+01   4.546082e+02
  -2.376007e+02   1.481924e+02
  -2.047128e+02  -3.246159e+02
   9.693671e+01  -4.620794e+02
   3.338609e+02  -1.112588e+02
   2.657787e+02   4.155309e+02
  -9.128335e+01   5.779344e+02
  -4.337840e+02   2.703216e+02
  -4.202464e+02  -1.371892e+02
  -1.312805e+02  -2.806073e+02
   1.009762e+02  -1.579335e+02
  -1.294751e+01  -5.795292e+01
  -1.856050e+02  -1.383519e+02
  -2.359271e+02  -3.108849e+02
   1.006561e+02  -3.034620e+02
   4.162878e+02  -4.384214e+01
   5.186537e+02   2.389879e+02
   1.187693e+02   3.231926e+02
  -3.102669e+02   1.296601e+02
  -4.337751e+02  -1.258235e+02
  -1.339452e+02  -3.178137e+02
   2.399136e+02  -2.726659e+02
   4.402821e+02  -8.020839e+01
   2.495067e+02   1.693906e+02
   3.290096e+01   2.707275e+02
   2.114694e+01   1.213566e+02
   7.994687e+01  -8.268087e+01
   2.048237e+02  -5.089549e+01
   1.420168e+02   1.720803e+02
  -7.343059e+01   4.151211e+02
  -1.894816e+02   3.419454e+02
  -2.782305e+02  -6.218127e+01
  -5.554150e+01  -2.623059e+02
   1.175968e+02  -1.316693e+02
   1.330515e+02   2.519539e+02
  -1.085847e+02   3.176146e+02
  -4.318608e+02   7.940195e+01
  -4.490379e+02  -2.619053e+02
  -1.162550e+02  -4.727121e+02
   2.815329e+02  -2.284536e+02
   4.244945e+02   7.319260e+01
   2.751436e+02   2.149744e+02
  -7.297933e+01   2.093507e+02
  -2.336464e+02   6.343323e+01
  -1.557779e+02  -2.263521e+00
  -2.443534e+01  -1.438399e+01
   4.719778e+01  -2.527563e+01
  -7.238989e+01   5.763145e+01
  -1.519086e+02   8.902798e-01
  -1.503933e+02  -1.264221e+02
   9.634060e+01  -2.429548e+02
   2.957661e+02  -1.211434e+02
   2.459684e+02   8.418580e+01
   2.777711e+01   3.623026e+02
  -3.096183e+02   3.320200e+02
  -3.745938e+02   9.638337e+01
  -2.007547e+02  -1.662341e+02
  -1.806697e+01  -3.004605e+02
   1.988589e+01  -2.416639e+02
  -7.160687e+00  -1.425608e+02
   2.769680e+01  -1.164358e+02
   9.921785e+01  -1.109082e+02
   2.219528e+02  -6.242536e+01
   2.378097e+02   1.174675e+02
   6.621955e+01   2.068012e+02
  -6.431861e+01   1.532976e+02
  -1.580977e+02  -3.049856e+01
  -1.261257e+02  -2.290152e+02
   5.808627e+01  -2.135672e+02
   2.165440e+02  -5.355902e+01
   2.575063e+02   1.538431e+02
   1.319654e+02   2.478781e+02
  -4.753379e+01   2.345779e+02
  -1.254777e+02   1.454635e+02
  -1.184692e+02   7.209489e+01
  -1.366903e+02   6.068304e+01
  -2.501295e+02   2.624384e+01
  -3.461747e+02  -5.332055e+01
  -2.715626e+02  -2.616409e+02
   1.096880e+01  -4.100244e+02
   3.438471e+02  -4.055250e+02
   4.578194e+02  -1.253832e+02
   2.543776e+02   1.043605e+02
   3.647114e+00   2.444423e+02
  -6.882371e+01   1.476614e+02
  -3.480766e+01   3.983581e+01
   8.443330e+01  -3.177316e+01
   1.120701e+02   2.014898e+01
  -1.351007e-01   1.150359e+02
  -9.921676e+01   4.237448e+01
  -5.988486e+01  -4.228885e+01
   1.769282e+01  -9.493532e+01
   1.259862e+02  -7.820545e+00
   1.270968e+02   2.249054e+02
  -3.063983e+01   2.886736e+02
  -2.000432e+02   1.895554e+02
  -3.303391e+02  -6.178332e+01
  -2.760525e+02  -2.644392e+02
  -3.230102e+01  -2.774806e+02
   1.321812e+02  -1.475221e+02
   1.316321e+02   1.035858e+01
   1.495061e+01  -6.937358e+00
  -4.943029e+01  -5.045092e+01
  -2.113896e+01  -9.347229e+01
   1.323426e+02  -6.784166e+01
   1.234541e+02   3.312781e+01
   4.173865e+01   4.110674e+01
  -9.937912e+01   1.225924e+01
  -2.299943e+01  -8.697115e+01
   1.361271e+02  -7.671159e+01
   2.909472e+02   1.938068e+01
   2.317053e+02   1.808258e+02
   2.322012e+00   2.682289e+02
  -1.734729e+02   2.292722e+02
  -2.438839e+02   5.130671e+01
  -1.009734e+02  -4.530512e+01
   1.909939e+01  -5.969919e+01
   3.185505e+01   1.613758e+01
  -5.426523e+01   6.059176e+01
  -1.266771e+02  -1.272936e+01
  -1.559476e+02  -8.661169e+01
  -8.892153e+01  -1.617755e+02
   5.817015e+01  -1.152650e+02
   9.226743e+01   1.716289e+01
   1.810758e+01   2.468381e+01
  -4.918374e+01  -5.840980e+01
  -5.039443e+00  -1.015106e+02
   9.883877e+01  -1.231011e+02
   1.884649e+02  -5.488563e+01
   1.551551e+02   9.768579e+01
  -1.944844e+00   1.894356e+02
  -1.301008e+02   1.406370e+02
  -1.446630e+02   2.082281e+01
  -5.150855e+01  -8.181098e+01
   7.281049e+01  -8.543364e+01
   5.963546e+01  -1.403870e+01
  -2.920567e+00   5.244567e+01
  -2.675597e+01   1.826502e+01
  -7.458070e+00  -2.087990e+01
   8.261147e+01  -1.206555e+01
   7.718933e+01   5.791995e+01
  -1.028494e+01   1.603996e+02
  -1.077048e+02   1.146766e+02
  -2.251657e+02   3.619067e+01
  -1.962688e+02  -1.321022e+02
  -3.304664e+01  -2.053293e+02
   8.204674e+01  -1.652511e+02
   1.244235e+02  -4.560062e+01
   9.752151e+01   9.194070e+00
   1.974110e+01   3.953284e+01
   5.298615e+01  -9.233382e+00
   9.478801e+01   1.311749e+01
   7.628716e+01   9.612373e+01
  -3.241598e+01   1.188700e+02
  -9.970121e+01   9.292249e+01
  -1.455614e+02  -6.268637e+01
  -1.633028e+01  -1.108662e+02
   1.710373e+02  -1.051436e+02
   1.972589e+02   9.031078e+01
   5.859829e+01   1.734935e+02
  -1.063799e+02   2.207954e+02
  -2.019926e+02   1.116066e+02
  -1.762410e+02  -6.850707e+01
  -7.976021e+01  -1.485620e+02
   3.583278e+01  -8.919064e+01
   5.688777e+01  -5.366993e+01
   5.666468e+01  -4.669152e+01
   7.719434e+01  -8.601728e+01
   7.366168e+01  -7.755205e+01
   1.081299e+02   4.423800e+01
   1.306301e+02   1.336849e+02
  -8.891954e+00   2.062312e+02
  -8.196863e+01   1.398085e+02
  -1.310222e+02  -1.508307e+01
  -1.249803e+02  -1.058338e+02
   3.671674e-01  -1.432760e+02
   4.852385e+01  -8.182933e+01
   6.172503e+01  -9.937234e+00
   4.778923e-01   7.001747e+01
  -1.030278e+01   2.118647e+01
   2.600380e+01   2.548153e+01
   6.467123e+01   2.180673e+01
   5.244666e+01   5.253944e+01
  -6.920165e+01   6.289301e+01
  -1.679411e+02  -2.774005e+00
  -1.278711e+02  -8.210618e+01
  -5.287425e+00  -1.160542e+02
   8.259135e+01  -7.597726e+01
   1.054664e+02  -6.180520e+00
   3.857342e+01   6.100409e+01
  -5.967961e+01   6.835117e+01
  -9.112128e+01  -3.452727e+00
  -1.423988e+01  -6.504519e+01
   2.167258e+01  -8.867671e+01
   5.987791e+01  -2.801945e+01
   4.259154e+01   6.249220e+01
   3.011828e+01   3.103417e+01
   5.380830e+01  -1.571846e+01
   2.741725e+01  -2.493327e+01
   8.187313e+01   7.039112e+01
  -1.576895e+01   1.585714e+02
  -1.124133e+02   1.273999e+02
  -1.645631e+02   2.256220e+01
  -1.362979e+02  -7.065445e+01
  -7.199792e+00  -1.171166e+02
   7.490844e+01  -6.043910e+01
   3.957011e+01   2.801594e+01
  -6.164087e+01   3.528182e+01
  -1.113479e+02  -1.301573e+01
  -6.719319e+01  -1.142639e+02
   7.610973e+01  -9.989427e+01
   1.543551e+02  -2.768979e+01
   1.362512e+02   5.079357e+01
   9.687651e-01   9.786576e+01
  -7.198796e+01   1.450373e+01
  -3.284147e+01  -2.515533e+01
   4.122005e+01  -2.201158e+01
   7.997775e+01   4.150058e+00
   3.305009e+01   8.312321e+01
  -7.152885e+01   1.119586e+02
  -1.688385e+02   8.994605e+01
  -1.073596e+02  -8.235858e+01
   9.564688e+00  -1.676863e+02
   9.972763e+01  -1.060134e+02
   1.008472e+02  -9.109793e-02
   4.424204e+01   1.114292e+02
  -2.174449e+01   9.408208e+01
  -2.401392e+01   3.355240e+00
  -3.216171e+01  -2.854031e+01
  -6.543677e+00  -2.201870e+01
  -2.010611e+01  -1.571535e+01
  -2.439351e+01  -6.773322e+00
  -5.596417e+01  -6.694946e+01
  -3.467599e+01  -9.932378e+01
   7.045451e+01  -3.256160e+01
   1.170873e+02   1.595088e+01
   9.422502e+01   8.088270e+01
   2.390582e+01   6.742931e+01
  -6.553189e+01   9.328155e+00
  -7.393362e+01   3.617969e+01
  -1.930470e+01  -4.390176e+00
   3.501609e+01  -4.283630e+01
   2.761216e+01  -7.601068e+00
   3.204366e+01   1.774433e+01
  -1.894645e+00   6.946830e+00
   1.956205e+01  -3.015565e+01
   6.090629e+01   3.457107e+01
   4.085895e+01   7.333778e+01
  -7.978546e+01   8.872038e+01
  -1.816739e+02   7.827606e+01
  -1.224684e+02  -3.652452e+01
  -6.200383e+01  -1.720472e+02
   8.691715e+01  -1.649217e+02
   1.279304e+02  -6.231929e+01
   9.383721e+01   1.735973e+01
   1.847756e+01   3.994967e+01
  -1.650302e+01   4.981217e+01
  -8.462649e+00   5.737931e+00
   1.301206e+01   3.401915e+01
   1.954023e+01   9.712932e+01
  -1.234341e+01   6.133604e+01
  -6.969576e+01  -3.853454e+00
  -9.706676e+01  -7.741793e+01
  -4.072587e+00  -1.170057e+02
   5.900271e+01  -6.948061e+01
   1.040193e+02   6.246647e+01
   5.775417e+01   1.266243e+02
  -5.900696e+01   7.310464e+01
  -8.805898e+01   1.479352e+01
  -2.720067e+01  -5.477429e+01
   2.689557e+01  -6.628895e+01
   4.506795e+01  -9.900054e+00
   8.331401e+00   3.162440e+01
  -6.503541e+01   2.186968e+01
  -1.377296e+01  -3.785557e+01
   7.822460e+01  -6.847044e+01
   9.151377e+01  -1.845870e+01
   5.871093e+01   4.661420e+01
  -1.578295e+01   4.429691e+01
  -6.367041e+01   5.138966e+01
  -5.574830e+01   4.618942e+00
  -3.759202e+00  -6.265859e+01
   3.868206e+01  -4.308496e+01
   6.252556e+01  -6.905087e+00
   6.979250e+00   3.578964e+01
   3.089312e+01   2.843316e+01
  -2.197497e+01  -5.993278e+00
  -9.411466e+00  -3.381111e+01
  -2.706085e+01  -1.965399e+01
   2.998658e+01   2.380365e+01
   1.715068e+01   1.690215e+01
  -1.127815e+01  -2.998829e+01
  -7.872057e+00  -5.865340e+01
   2.701627e+01  -1.738676e+01
   5.697935e+01   2.474880e+01
   1.719274e+01   9.422037e+01
  -3.690867e+01   2.390218e+01
  -6.839826e+01  -3.073988e+01
  -1.337745e+01  -4.633517e+01
   5.684008e+01  -5.708575e+01
   8.079538e+01   4.517818e+00
   4.619658e+01   6.630279e+01
  -2.191008e+01   2.114774e+01
  -7.464571e+01  -1.031628e+00
  -2.740485e+01   8.991417e+00
   3.321649e+01  -3.769864e+01
   3.927741e+01  -4.975053e+00
   5.013887e+00   2.653720e+01
  -5.193479e+01   2.492196e+01
