
 $NMID
 id='ANONYMOUS ', fmtdat='(2E16.6)'
 volume=1.0
 tramp=1.0
 $END
   4.393435e+03   1.472627e+01
   2.671399e+03   2.288703e+03
  -7.260929e+02   2.674769e+03
  -1.857084e+03   1.116967e+03
  -1.067870e+03  -5.474028e+02
   4.000166e+02  -6.079412e+02
   7.466138e+02   2.639175e+02
   1.788752e+01   1.008883e+03
  -6.525111e+02   7.344085e+02
  -8.937322e+02  -8.456625e+00
  -4.315455e+02  -7.569046e+02
   1.188924e+02  -8.135910e+02
   5.566851e+02  -1.211750e+02
   3.499613e+02   6.311125e+02
  -2.099032e+02   6.684151e+02
  -5.646098e+02   1.598889e+01
  -3.032142e+02  -6.339065e+02
   2.698036e+02  -6.200771e+02
   5.829216e+02  -1.375238e+02
   4.321167e+02   3.118519e+02
   9.528008e+00   4.625595e+02
  -2.914382e+02   2.435927e+02
  -1.568787e+02  -5.253033e+01
   2.220163e+02  -9.333458e+01
   4.407564e+02   1.714613e+02
   1.964737e+02   4.612291e+02
  -4.600555e+02   3.603996e+02
  -8.109194e+02  -1.809395e+01
  -3.500592e+02  -5.085282e+02
   3.982424e+02  -3.305496e+02
   6.693376e+02   7.868975e+01
   3.158881e+02   4.710504e+02
  -2.619575e+02   4.727770e+02
  -5.692581e+02   1.578049e+02
  -3.783103e+02  -2.250789e+02
  -5.658945e+01  -4.226445e+02
   1.552350e+02  -2.195110e+02
   1.188753e+02   2.252025e+02
  -2.183014e+02   3.445040e+02
  -3.678848e+02  -9.092163e+01
  -2.039599e+02  -6.409819e+02
   2.640156e+02  -5.710466e+02
   5.060329e+02   3.129144e+01
   2.305410e+02   4.902966e+02
  -2.709901e+02   2.986175e+02
  -3.211097e+02  -3.033704e+02
   6.504657e+01  -4.915136e+02
   4.903077e+02  -1.500099e+02
   5.693900e+02   3.600443e+02
   1.905028e+02   5.712067e+02
  -3.303157e+02   3.342048e+02
  -6.296802e+02  -7.666108e+01
  -4.023044e+02  -3.023398e+02
   1.384191e+02  -3.227237e+02
   3.851183e+02  -8.744650e+01
   2.464516e+02   1.443265e+02
  -1.024370e+02   7.621622e+01
  -1.405531e+02  -1.188172e+02
   1.477468e+02  -1.235910e+02
   3.352126e+02   5.905542e+01
   1.772618e+02   2.549129e+02
  -1.739617e+02   2.604749e+02
  -3.496844e+02   9.380788e+01
  -2.351283e+02  -1.187057e+02
   6.154604e+01  -3.021107e+02
   2.486143e+02  -3.355659e+02
   3.773920e+02  -2.004393e+02
   2.568655e+02   1.657792e+02
   6.271327e+01   4.156974e+02
  -1.218125e+02   3.354693e+02
  -7.602502e+01   1.293811e+02
  -3.546168e+01   1.801563e+01
  -8.127594e+01   9.408826e+01
  -2.294530e+02   1.144482e+02
  -2.699212e+02  -7.298884e+01
  -1.528845e+02  -2.478866e+02
   6.494965e+01  -2.674272e+02
   2.196086e+02   9.118389e+00
   1.618985e+02   2.492468e+02
  -2.719737e+01   2.608239e+02
  -2.696884e+02   7.129298e+01
  -3.444357e+02  -1.810853e+02
  -1.545157e+02  -3.371305e+02
   7.582224e+01  -2.667212e+02
   2.151865e+02  -1.081906e+02
   1.192578e+02  -5.815630e+01
   7.650085e+01  -5.002366e+01
   2.397747e+02  -4.557604e+01
   4.133837e+02   4.782581e+01
   3.489409e+02   2.717904e+02
   2.751317e+01   4.133786e+02
  -2.957753e+02   4.259380e+02
  -4.391986e+02   2.217193e+02
  -2.877532e+02  -8.443642e+01
  -4.750133e+01  -2.905852e+02
   1.294680e+02  -2.074100e+02
   8.381666e+01  -4.051227e+01
  -1.117259e+02   8.044041e+01
  -1.678299e+02  -1.964519e+01
  -4.633954e+01  -1.882280e+02
   1.461947e+02  -1.305233e+02
   1.473359e+02   9.404590e+01
  -1.471849e+01   1.558527e+02
  -1.519369e+02   8.015930e+01
  -1.754280e+02  -1.989791e+02
   6.507059e+00  -3.070367e+02
   2.253992e+02  -1.896989e+02
   3.730960e+02   3.958514e+01
   2.908976e+02   2.079641e+02
   9.182881e+01   2.586740e+02
  -1.012746e+02   1.619027e+02
  -1.888731e+02   5.104312e+01
  -6.510890e+01  -8.958626e+00
   5.346063e+01   3.158782e+01
   4.816448e+01   9.478152e+01
  -1.120365e+02   9.132354e+01
  -1.780977e+02   2.121319e+01
  -7.013856e+01  -7.661497e+01
   7.756202e+01  -2.207898e+01
   5.375359e+01   7.681034e+01
  -7.933000e+01   8.949337e+01
  -2.534436e+02   4.482730e+01
  -2.598695e+02  -1.091955e+02
  -9.064646e+01  -2.694420e+02
   1.626765e+02  -3.001605e+02
   2.776137e+02  -1.601248e+02
   1.465640e+02   7.227716e+01
  -2.000590e+01   1.206942e+02
  -1.081322e+02   1.446228e+01
   2.566776e+01  -1.027361e+02
   1.733816e+02  -5.007106e+01
   2.157288e+02   8.841022e+01
   8.491580e+01   2.210574e+02
  -8.191451e+01   1.661721e+02
  -1.139003e+02   2.777982e+01
  -6.952144e+01  -1.027194e+01
  -4.876862e+00  -1.220838e+01
   4.736543e+01   6.388321e+01
  -5.102498e+01   9.819785e+01
  -1.927418e+02   3.201941e+01
  -1.771148e+02  -7.465131e+01
  -4.667328e+01  -1.978515e+02
   1.475527e+02  -1.608135e+02
   2.133678e+02  -1.363502e+01
   6.759066e+01   1.044420e+02
  -8.336778e+01   7.494641e+01
  -8.104609e+01   4.344021e+01
  -7.878044e+00  -3.634895e+00
   1.903620e+01  -3.814334e+01
  -1.844500e+01   8.872793e+00
  -6.160223e+01   1.367580e+01
  -1.034906e+02  -6.743740e+01
  -1.350184e+00  -1.420761e+02
   1.272362e+02  -1.534078e+02
   2.297829e+02  -4.774792e+01
   2.004359e+02   1.540256e+02
   6.347990e+01   2.100489e+02
  -9.163130e+01   1.615789e+02
  -1.095957e+02   4.465269e+01
  -6.112518e+01  -5.490344e+01
  -4.530457e+01  -4.480069e+01
  -5.451849e+01   1.414957e+01
  -9.246285e+01   4.409854e+01
  -6.464738e+01  -3.902165e+01
   6.636035e+00  -6.216687e+01
   1.057826e+02  -7.007294e+01
   7.827150e+01   2.678306e+01
  -1.002680e+01   1.013092e+02
  -1.259720e+02   1.004131e+02
  -1.887623e+02  -5.306482e+01
  -6.304556e+01  -1.842025e+02
   1.155608e+02  -2.376927e+02
   2.732119e+02  -8.813640e+01
   2.409657e+02   1.064995e+02
   1.283627e+02   1.634888e+02
  -1.670845e+01   1.570401e+02
  -7.366415e+01   6.811586e+01
  -2.722168e+01   9.590850e+01
  -3.294997e+01   9.826896e+01
  -5.094438e+01   7.940123e+01
  -1.630677e+02  -1.078571e+01
  -1.458806e+02  -1.334874e+02
  -5.771891e+01  -2.084763e+02
   9.002983e+01  -1.680399e+02
   1.799836e+02  -2.750830e+01
   1.487019e+02   1.183994e+02
   1.684906e+01   1.384614e+02
  -5.177810e+01   6.797840e+01
  -8.638636e+01  -1.189782e+01
   1.366078e+01  -4.973246e+01
   2.140326e+01  -3.238579e+01
  -1.641385e+01  -3.349405e-01
  -6.183594e+01   7.223385e+00
  -5.782479e+01  -4.446345e+01
   6.460642e+01  -1.817304e+01
   1.275824e+02  -5.098363e+00
   1.373811e+02   2.716334e+01
   3.778386e+01   9.152129e+01
  -1.111693e+02   9.510660e+01
  -1.182503e+02   5.151815e+00
  -5.184894e+01  -4.995859e+01
   1.007409e+02  -4.777592e+01
   9.701528e+01   1.166784e+01
   3.387068e+01   7.934338e+01
  -5.737767e+01   5.566576e+01
  -3.721567e+01   5.105321e-02
  -4.872031e+01  -1.468775e+01
  -7.071093e+01  -6.005996e+01
  -6.501627e+01   1.821881e+01
  -5.202141e+01  -8.820823e-01
  -4.474642e+01  -8.279933e+01
   1.926817e+01  -1.704806e+02
   1.107731e+02  -1.314167e+02
   1.736702e+02  -4.868685e+01
   1.300673e+02   8.086804e+01
  -3.970256e+00   1.123778e+02
  -8.126519e+01   4.217476e+01
  -5.986903e+01  -1.253026e+01
   5.192860e+01   3.228258e+00
   1.322266e+02   4.156298e+01
   8.569479e+01   9.544011e+01
  -8.032211e+01   1.231998e+02
  -1.802757e+02   5.015389e+01
  -1.843219e+02  -5.288435e+01
  -5.295384e+01  -9.342563e+01
   4.098594e+01  -4.822132e+01
   4.032483e+01  -2.251947e+01
  -2.416627e+01   3.110719e+01
  -8.128952e+01  -1.224604e+01
  -6.356751e+01  -1.033633e+02
   8.372364e+01  -1.788438e+02
   1.760633e+02  -1.417386e+01
   1.301656e+02   9.708536e+01
  -5.894721e+00   2.011484e+02
  -8.348844e+01   1.404320e+02
  -9.474343e+01   2.974772e+01
  -7.277947e+01  -9.986992e+01
   1.790598e+01  -1.000179e+02
   4.433901e+01  -2.901940e+01
   5.016945e+01   2.943697e+01
   3.041398e+00   2.397307e+01
   4.611044e+00  -1.885504e+01
   5.984678e+00   6.024943e+00
   5.413472e+01   7.230706e+01
   3.627399e+01   1.174552e+02
  -5.327466e+01   2.983462e+01
  -1.424686e+02  -6.928981e+01
  -1.237307e+02  -6.077867e+01
  -2.430477e+01  -2.224765e+01
   5.435382e+01  -6.338960e+00
   7.041864e+01   4.472526e+00
   3.735169e+01  -7.410631e+00
  -3.295888e+01   1.465007e+01
  -1.467427e+01   1.667943e+01
   1.024202e+01   5.404038e+00
   3.523779e+00  -1.234390e+01
  -8.235241e+01   2.881025e+00
  -9.201446e+01  -1.835884e+01
  -1.663516e+01  -7.331719e+01
   1.063477e+02  -1.226062e+02
   1.615157e+02  -5.009592e+01
   1.211238e+02   4.764744e+01
   3.502618e+01   1.549454e+02
  -4.995577e+01   1.419600e+02
  -1.104743e+02   7.218980e+01
  -9.563114e+01  -8.397915e+00
  -3.467208e-01  -1.660240e+01
   3.452538e+01   1.660278e+01
  -1.168164e+00   2.776980e+00
  -3.000585e+01  -3.563051e+01
  -4.712899e+00  -8.203080e+01
   4.241593e+01  -6.645818e+01
   6.697692e+01   3.529403e+01
   5.963355e+01   7.802160e+01
  -2.843425e+00   8.508505e+01
  -9.552935e+01  -1.079940e+01
  -9.699525e+01  -7.492514e+01
  -4.858895e+01  -8.073779e+01
   6.107437e+01  -7.121096e+01
   9.004865e+01  -1.372812e+01
   2.879846e+01   6.098126e+01
  -1.949014e+01   6.823816e+01
  -2.878808e+01   5.087521e+01
   3.041597e+01   1.941990e+00
   6.728208e+01  -7.413602e+00
   8.723327e+00   2.380655e+01
  -6.408143e+01   5.612241e+01
  -1.041905e+02   5.240822e+01
  -4.132844e+01  -2.120553e+01
   1.465401e+01  -7.827584e+01
   5.932832e+01  -8.247925e+01
   4.624556e+01  -2.894183e+00
   3.186800e+00   2.799397e+01
  -1.140624e+00   4.995602e+01
  -3.099351e+01  -7.783189e+00
  -2.453286e+01  -6.482947e+01
  -1.527608e+00  -6.153668e+01
   4.011654e+01   2.641615e+01
   4.386657e+01   1.334377e+01
   4.842621e+01   1.251475e+01
  -1.135237e+00  -4.055319e+00
  -3.287071e+01   1.982560e+01
   1.021730e+01   4.296052e+01
  -1.308799e+01   2.974125e+01
  -1.609827e+01   1.912432e+00
  -5.003183e+01  -4.082719e+01
   1.857045e+01  -5.185858e+01
   4.071199e+01  -3.213346e+01
   4.413133e+01   4.148001e+01
   1.950619e+01   5.276455e+01
  -5.442524e+01   4.269880e+01
  -7.998408e+01  -1.591943e+01
  -4.823763e+01  -5.093537e+01
   9.987478e+00  -7.134038e+01
   3.797307e+01  -5.119011e+01
   1.712661e+00   4.631521e+00
  -2.675248e+01  -4.125987e-02
  -3.546579e+01  -1.917344e+01
   3.598133e+01  -3.244496e+01
   1.074927e+02  -5.125726e+00
