
 $NMID
 id='ANONYMOUS ', fmtdat='(2E16.6)'
 volume=1.0
 tramp=1.0
 $END
  -3.640947e+03   2.094656e+01
  -2.369167e+03  -1.766018e+03
   1.694141e+02  -2.354524e+03
   1.497157e+03  -1.002499e+03
   9.427152e+02   1.855183e+02
  -2.324839e+02   4.429218e+02
  -5.230386e+02  -1.927470e+02
  -9.040587e+01  -6.766662e+02
   4.771371e+02  -7.346719e+02
   7.296129e+02  -9.917327e+01
   3.796663e+02   5.981802e+02
  -7.694790e+01   7.032927e+02
  -4.067823e+02   1.427475e+02
  -2.374140e+02  -4.730969e+02
   2.024109e+02  -5.567350e+02
   4.169067e+02  -1.959387e+00
   2.765800e+02   4.882184e+02
  -1.391300e+02   5.398282e+02
  -3.959396e+02   1.537359e+02
  -3.358735e+02  -2.379864e+02
  -7.162400e+01  -3.567192e+02
   2.033458e+02  -1.881352e+02
   1.143500e+02   1.174853e+01
  -1.648051e+02   1.776801e+00
  -3.376586e+02  -1.726899e+02
  -7.377035e+01  -3.578038e+02
   4.011522e+02  -2.576907e+02
   6.052463e+02   7.126579e+01
   2.379888e+02   4.438124e+02
  -2.802601e+02   2.549521e+02
  -5.594514e+02  -1.292153e+02
  -1.595861e+02  -3.628918e+02
   2.882512e+02  -3.257615e+02
   4.833043e+02  -1.401877e+02
   2.935879e+02   1.828788e+02
   8.265459e+01   3.025667e+02
  -1.072054e+02   1.974877e+02
  -5.251662e+01  -1.279883e+02
   1.892084e+02  -2.400421e+02
   2.711644e+02   5.773816e+01
   1.467890e+02   5.231840e+02
  -2.212267e+02   4.676598e+02
  -3.890275e+02  -1.201429e+01
  -1.970810e+02  -3.997945e+02
   1.853435e+02  -2.283305e+02
   2.412044e+02   2.706300e+02
  -7.972693e+01   4.239392e+02
  -4.338878e+02   6.935425e+01
  -4.545444e+02  -3.955188e+02
  -1.218439e+02  -5.041535e+02
   2.795125e+02  -2.466808e+02
   5.450709e+02   1.034001e+02
   3.022512e+02   2.663110e+02
  -8.053425e+01   2.691860e+02
  -3.126029e+02   8.456890e+01
  -1.889633e+02  -8.026908e+01
   2.460854e+01  -1.972169e+01
   8.209791e+01   7.373609e+01
  -1.055094e+02   9.154969e+01
  -2.705940e+02  -6.927761e+01
  -1.072761e+02  -1.802632e+02
   1.542777e+02  -2.468641e+02
   3.250540e+02  -1.063240e+02
   2.070990e+02   1.023617e+02
  -5.857212e+01   2.689958e+02
  -2.198178e+02   3.109477e+02
  -3.353292e+02   1.645776e+02
  -2.419553e+02  -1.386763e+02
  -4.384695e+01  -3.911719e+02
   7.257511e+01  -2.945864e+02
   8.933951e+01  -1.329981e+02
   1.272305e+01  -3.374852e+01
   1.123487e+02  -1.048868e+02
   2.493516e+02  -5.908560e+01
   2.108824e+02   8.795898e+01
   1.356315e+02   2.345955e+02
  -5.699738e+01   2.033604e+02
  -1.727593e+02  -2.872137e+01
  -1.179123e+02  -1.831883e+02
  -6.108167e-01  -1.911046e+02
   2.305829e+02  -4.945822e+01
   2.645440e+02   1.540307e+02
   1.514305e+02   2.775665e+02
  -5.316509e+01   2.298089e+02
  -1.372001e+02   1.414419e+02
  -1.375213e+02   8.942149e+01
  -1.195534e+02   4.647440e+01
  -2.579319e+02   2.013244e+01
  -3.577262e+02  -1.147615e+02
  -2.787529e+02  -2.625886e+02
   2.600048e+01  -3.555211e+02
   3.256306e+02  -4.012177e+02
   4.223000e+02  -1.655192e+02
   2.399199e+02   7.889474e+01
   4.130741e+01   2.303146e+02
  -8.499956e+01   2.124583e+02
  -5.377815e+01   9.250826e+00
   8.281498e+01  -4.913464e+01
   1.556980e+02  -4.875488e+00
   1.068126e+01   1.477542e+02
  -1.459331e+02   1.477050e+02
  -1.094401e+02  -7.520945e+01
   3.269351e+01  -1.340829e+02
   1.292651e+02  -1.946231e+01
   1.501770e+02   2.238858e+02
  -1.833804e+01   2.625638e+02
  -1.906585e+02   1.535005e+02
  -3.338286e+02  -3.925318e+01
  -2.579287e+02  -2.212019e+02
  -9.268035e+01  -2.128952e+02
   1.132918e+02  -1.465377e+02
   1.624406e+02  -2.961557e+00
   4.571512e+01   1.053758e+01
  -6.493294e+01  -3.944953e+01
  -3.042036e+00  -1.101527e+02
   1.119929e+02  -5.191542e+01
   1.500378e+02   1.341930e+01
   5.257164e+01   6.966733e+01
  -5.055620e+01  -2.164291e+01
  -4.547887e+01  -8.549894e+01
   9.228591e+01  -9.382240e+01
   2.440734e+02  -4.774546e+00
   2.409394e+02   1.126961e+02
   4.902232e+01   2.495013e+02
  -1.991454e+02   2.585056e+02
  -2.789225e+02   9.835055e+01
  -1.253356e+02  -6.789697e+01
   2.903366e+01  -7.082527e+01
   8.562070e+01   1.303460e+01
  -3.216134e+01   9.105091e+01
  -1.594640e+02   5.897559e+01
  -1.865793e+02  -8.886671e+01
  -6.159032e+01  -1.785450e+02
   9.039330e+01  -1.273372e+02
   1.085490e+02  -2.007617e+01
   4.803021e+01   6.199504e+01
  -3.014571e+01  -2.176551e+01
  -2.719395e+01  -8.476420e+01
   7.013279e+01  -1.040444e+02
   1.626235e+02  -3.498853e+01
   1.313176e+02   1.317964e+02
   2.065618e+01   1.933023e+02
  -1.479366e+02   1.480794e+02
  -2.032094e+02   2.904525e+01
  -8.415430e+01  -1.277134e+02
   9.493331e+01  -8.687881e+01
   7.559224e+01  -3.448958e+01
   2.755651e+00   2.930819e+01
  -2.376701e+01  -9.850253e+00
   1.312840e+01   5.459493e+00
   8.459901e+01   1.587881e+01
   9.223026e+01   9.684881e+01
  -3.369697e+01   1.403691e+02
  -1.335015e+02   1.332117e+02
  -2.056199e+02   5.074497e+01
  -1.411891e+02  -1.454582e+02
  -5.978074e+01  -2.066802e+02
   8.437029e+01  -1.414711e+02
   9.051333e+01  -3.519145e+01
   7.277163e+01   4.781203e+01
   3.738266e+01   4.110359e+01
   5.729093e+01  -1.914956e+01
   9.258510e+01   1.889496e+01
   6.723350e+01   5.847726e+01
  -2.673744e+01   9.420214e+01
  -1.054614e+02   5.773488e+01
  -8.994458e+01  -2.889764e+01
   1.205223e+01  -8.916615e+01
   1.334398e+02  -8.861349e+01
   1.749962e+02   7.279468e+01
   5.572511e+01   1.744157e+02
  -1.218984e+02   2.107812e+02
  -2.231989e+02   7.897364e+01
  -1.753178e+02  -1.099473e+02
  -9.974989e+01  -1.476845e+02
   4.959458e+01  -1.098754e+02
   5.367774e+01  -6.074722e+01
   4.742750e+01  -9.182926e+01
   8.626579e+01  -7.825917e+01
   6.521360e+01  -5.181274e+01
   1.270937e+02  -1.310082e+01
   1.150728e+02   1.502764e+02
   3.635411e+01   1.837743e+02
  -9.633612e+01   1.403686e+02
  -1.471819e+02   3.590688e+01
  -1.428257e+02  -1.125393e+02
   2.991407e+01  -1.402254e+02
   6.635891e+01  -5.042121e+01
   4.180216e+01   2.781971e+01
  -2.701610e+01  -1.113623e+01
  -7.009457e+00   5.169743e+01
   1.797828e+01   4.760662e+00
   5.429960e+01   5.531832e+00
   3.958777e+01   2.471230e+01
  -9.368872e+01   1.569191e+01
  -1.230346e+02  -1.018181e+01
  -1.281922e+02  -3.565109e+01
   3.029268e+00  -8.539828e+01
   1.208678e+02  -5.724861e+01
   1.201744e+02  -1.151968e+01
   7.149099e+01   6.751177e+01
  -4.479788e+01   3.532102e+01
  -5.306757e+01  -5.943251e+00
  -2.167711e+00  -7.063490e+01
   5.605498e+01  -5.933844e+01
   4.185798e+01  -4.982627e-01
   4.562675e+01   3.524943e+01
   4.693892e+01   4.265560e+01
   3.888595e+01   3.310725e+01
   2.125083e+01   1.799437e+01
   5.249909e+01   6.813099e+01
  -3.481650e+00   1.070705e+02
  -9.549082e+01   1.111039e+02
  -1.619883e+02   1.210733e+01
  -1.252734e+02  -4.711074e+01
  -9.571079e+00  -1.171382e+02
   1.070003e+02  -6.901748e+01
   8.953762e+01   1.054020e+01
  -2.805560e+01   2.476873e+00
  -1.276206e+02  -4.867731e+00
  -9.611556e+01  -6.993576e+01
   8.142546e+01  -8.669319e+01
   1.590361e+02  -4.650425e+01
   1.494942e+02  -5.885102e-01
   5.770883e+01   9.623452e+01
  -5.577431e+01   6.989999e+01
  -5.508369e+01   5.573345e+00
   4.658311e+01  -2.705697e+01
   1.060336e+02   2.701063e+01
   4.277802e+01   8.169655e+01
  -6.176039e+01   1.508505e+02
  -1.397343e+02   6.032677e+01
  -1.028791e+02  -1.127628e+02
  -1.813794e+01  -1.906047e+02
   9.399734e+01  -1.255365e+02
   9.942611e+01  -1.435101e-01
   7.932810e+01   9.945664e+01
  -3.431300e+01   1.035690e+02
  -2.613309e+01   1.290051e+01
  -2.991451e+01  -3.308856e+01
  -1.247010e+01  -2.138208e+00
   1.818786e+00   1.395869e+01
  -2.385948e+01   7.309246e+00
  -5.834091e+01  -5.582375e+01
  -4.784375e+01  -1.004158e+02
   1.272983e+01  -2.589718e+01
   1.317354e+02   4.175644e+01
   1.029237e+02   7.624103e+01
   1.164457e+01   5.568027e+01
  -8.240517e+01   4.446966e+01
  -8.063897e+01  -8.427215e+00
  -1.987683e+01  -1.452557e+01
   1.999701e+01   3.495290e+00
   1.070250e+01  -1.531750e+00
  -1.900082e+01   3.540391e+01
   1.534603e+00  -1.698539e+01
   5.807549e+01   2.465094e+00
   9.390041e+01  -9.409545e+00
   2.371653e+01   6.442247e+01
  -1.053177e+02   1.011548e+02
  -1.507611e+02   8.234505e+01
  -1.440068e+02  -8.168258e+01
  -3.308052e+01  -1.644652e+02
   5.462171e+01  -1.497066e+02
   9.560016e+01  -6.398268e+01
   6.530141e+01   3.356897e+01
   1.821468e+01   1.901241e+01
  -1.562112e+01   6.912377e+00
   1.778576e+01   3.379771e+00
   3.108139e+01   4.631385e+01
   3.807845e+00   9.056904e+01
  -2.386846e+01   4.952936e+01
  -6.239718e+01  -4.484253e+00
  -8.185711e+01  -4.823149e+01
  -3.607838e+01  -9.972777e+01
   5.950986e+01  -3.684620e+01
   5.813055e+01   4.183277e+01
   3.457632e+01   9.792362e+01
  -6.754357e+01   3.477525e+01
  -1.001248e+02   9.127585e+00
  -7.156130e+01  -1.971055e+01
   2.140189e+01  -4.160055e+01
   2.701975e+01  -4.687937e+01
  -2.716591e+01  -4.664104e+00
  -6.128966e+01  -2.172606e+00
   3.070121e-01  -1.491105e+01
   7.710591e+01  -4.214380e+01
   9.683524e+01  -1.713625e+01
   3.797785e+01   1.714708e+00
  -1.656833e+01   1.011488e+02
  -4.972561e+01   6.941130e+01
  -2.978282e+01  -3.267019e+01
  -1.464135e+01  -2.194953e+01
   1.473401e+01  -6.844089e+01
   4.623985e+01   2.385285e+01
   2.703322e+01   4.462583e+01
   1.203172e+01   1.100296e+01
  -3.095404e+01  -2.970782e+01
  -3.537288e+01  -3.535272e+01
  -2.784976e+01  -2.147548e+01
  -1.652994e+01  -6.307847e+00
   3.513694e+01  -3.858347e+01
   1.491900e+01  -2.880605e+01
   2.213816e+01  -4.765301e+01
   4.493858e+01  -1.037000e+01
   3.298970e+01   2.661556e+01
   1.903512e-01   6.185648e+01
  -3.812899e+01   3.771091e+01
  -6.432167e+01  -1.980167e+01
  -1.960848e+01  -5.669064e+01
   7.657199e+01  -5.430882e+01
   5.961863e+01   2.589354e+01
   5.847637e+01   3.860919e+01
  -2.291314e+01   2.545455e+01
  -5.596047e+01  -8.507354e-01
  -2.202693e+01  -3.976676e+00
   2.181457e+01  -1.038549e+01
   4.260219e+01  -1.845639e+01
  -3.083743e+01   3.509804e+01
  -5.321376e+01   3.613984e+01
