
 $NMID
 id='ANONYMOUS ', fmtdat='(2E16.6)'
 volume=1.0
 tramp=1.0
 $END
   2.344751e+03   1.225631e+02
   1.853260e+03   1.491788e+03
   1.901408e+02   1.792622e+03
  -1.148209e+03   1.301115e+03
  -1.006871e+03   3.113482e+02
  -1.000369e+02  -2.532980e+02
   3.628020e+02   1.314313e+02
   8.816363e+01   5.580303e+02
  -3.766697e+02   5.454741e+02
  -6.018039e+02   1.012997e+02
  -4.968667e+02  -5.135187e+02
  -7.085513e+01  -5.667580e+02
   2.880459e+02  -1.789370e+02
   2.172119e+02   4.211710e+02
  -5.559575e+01   5.403609e+02
  -4.199418e+02   9.182089e+01
  -3.348127e+02  -4.722513e+02
   7.940689e+01  -6.484429e+02
   4.016888e+02  -3.077139e+02
   4.384074e+02   1.158725e+02
   1.806569e+02   3.021320e+02
  -7.419247e+01   2.003695e+02
  -5.231679e+01   7.481272e+01
   1.811249e+02   1.019940e+02
   2.277036e+02   3.011709e+02
  -1.857533e+01   3.754709e+02
  -4.438370e+02   7.060665e+01
  -5.607276e+02  -2.073258e+02
  -1.413845e+02  -3.053144e+02
   3.067789e+02  -1.405003e+02
   4.595170e+02   1.765500e+02
   1.642597e+02   3.177481e+02
  -2.289416e+02   3.382288e+02
  -4.468951e+02   1.578649e+02
  -3.022908e+02  -1.192309e+02
  -9.714612e+01  -2.793560e+02
   1.418043e+01  -2.204925e+02
  -3.451017e+01   9.735650e+01
  -1.791385e+02   1.084354e+02
  -2.122977e+02  -1.286244e+02
  -3.394166e+01  -4.492644e+02
   2.887072e+02  -4.182331e+02
   3.427002e+02   3.922322e+01
   1.250998e+02   3.104082e+02
  -1.343233e+02   1.104286e+02
  -1.712452e+02  -2.934732e+02
   5.278425e+01  -3.748182e+02
   4.315157e+02  -1.083853e+02
   5.333645e+02   2.539397e+02
   1.523254e+02   4.433451e+02
  -2.930859e+02   2.756516e+02
  -4.989998e+02  -4.391312e+01
  -3.084710e+02  -2.339871e+02
   6.209899e+01  -1.947755e+02
   2.863237e+02  -9.718878e+01
   1.748556e+02   9.425707e+00
   2.063131e+01  -1.413881e+01
  -4.790121e+01  -4.909624e+00
   9.341461e+01  -9.958498e+01
   1.652734e+02   6.761737e+00
   1.219944e+02   1.353102e+02
  -1.391615e+02   2.385471e+02
  -3.158775e+02   1.596018e+02
  -2.685997e+02  -1.082717e+02
  -3.891939e+01  -3.474704e+02
   2.451970e+02  -3.788169e+02
   3.874846e+02  -1.269902e+02
   2.213842e+02   1.981982e+02
   3.271496e+01   3.292866e+02
  -7.650074e+01   2.444302e+02
  -2.404152e+01   1.187017e+02
  -2.163179e+01   8.549110e+01
  -1.311908e+02   7.864144e+01
  -2.394798e+02   6.064316e+01
  -2.229586e+02  -9.784152e+01
  -9.204637e+01  -2.132974e+02
   8.585823e+01  -1.639487e+02
   1.863114e+02   2.760625e+01
   1.596616e+02   2.440144e+02
  -4.117172e+01   2.432488e+02
  -2.307614e+02   7.350509e+01
  -3.085710e+02  -1.526164e+02
  -1.028895e+02  -2.745884e+02
   3.181581e+01  -2.658133e+02
   1.576457e+02  -1.463716e+02
   1.274792e+02  -9.555277e+01
   1.754019e+02  -4.460930e+01
   2.660291e+02  -4.864386e+01
   3.866545e+02   5.785794e+01
   3.025254e+02   2.827941e+02
  -2.750856e+01   4.253599e+02
  -3.880370e+02   4.046722e+02
  -4.740324e+02   1.573293e+02
  -2.834438e+02  -1.530915e+02
  -5.260482e+01  -2.736097e+02
   1.176833e+02  -1.857946e+02
   1.542182e+01  -3.807543e+01
  -7.693072e+01   3.384428e+01
  -1.298595e+02  -1.383988e+01
  -1.653448e+01  -1.458909e+02
   8.690065e+01  -8.543854e+01
   8.010463e+01   6.591867e+01
  -2.918777e+01   1.289454e+02
  -1.488927e+02   2.495748e+01
  -1.416983e+02  -2.151378e+02
   1.993737e+01  -3.542145e+02
   2.616088e+02  -2.098865e+02
   3.534276e+02   4.800621e+01
   2.404227e+02   2.568548e+02
   7.107055e+01   3.231018e+02
  -1.547486e+02   1.442943e+02
  -1.606087e+02   1.841577e+01
  -3.394483e+01  -2.783686e+01
   7.524204e+01   3.275281e+01
  -3.983840e+01   8.302256e+01
  -1.522209e+02   6.447448e+01
  -1.823876e+02  -2.476497e+01
  -3.612706e+01  -5.364427e+01
   7.985706e+01   2.037525e+01
   6.958354e+01   8.611790e+01
  -8.981790e+01   9.908885e+01
  -3.215309e+02   1.757320e+01
  -2.752619e+02  -1.959398e+02
  -3.904169e+01  -2.897262e+02
   2.118624e+02  -2.382642e+02
   2.913411e+02  -1.129227e+02
   1.403734e+02   5.166896e+01
  -2.812147e+01   8.024203e+01
  -8.618494e+01  -1.709818e+01
   6.275914e+01  -7.682363e+01
   1.758229e+02  -3.995243e+01
   1.844342e+02   1.119321e+02
   6.205266e+01   1.946605e+02
  -1.038999e+02   1.272521e+02
  -1.304908e+02  -2.687116e+01
  -2.245723e+01  -3.962621e+01
   3.858028e+01   2.890028e+01
   3.925332e+01   1.155407e+02
  -9.951379e+01   1.534232e+02
  -1.956670e+02   2.394034e+01
  -1.441346e+02  -1.306542e+02
   5.998101e+00  -1.972033e+02
   1.519750e+02  -1.584534e+02
   1.687282e+02   4.711928e+00
   4.460458e+01   1.129699e+02
  -6.821969e+01   9.633388e+01
  -7.976481e+01   4.774541e+00
   1.347631e+01  -6.275992e+01
   5.419983e+01  -4.454812e-01
   6.069851e+00   1.965683e+01
  -9.159105e+01   1.350442e+01
  -1.153705e+02  -8.554348e+01
  -1.783490e+01  -1.686989e+02
   1.561740e+02  -1.512633e+02
   2.387760e+02  -2.773812e+01
   1.954528e+02   1.690692e+02
   1.610544e+01   2.301147e+02
  -1.087998e+02   1.762633e+02
  -1.154259e+02   3.493973e+01
  -7.169748e+01  -4.918153e+01
  -2.854429e+01  -4.928207e+01
  -5.799144e+01   1.917417e+01
  -8.013771e+01  -1.412821e+01
  -6.375495e+01  -5.178170e+01
   4.659810e+01  -9.070463e+01
   1.055685e+02  -8.177269e+01
   1.181723e+02   3.780966e+01
  -4.833754e+00   1.367339e+02
  -1.826223e+02   9.179366e+01
  -2.098547e+02  -7.659142e+01
  -8.316250e+01  -2.089405e+02
   1.321251e+02  -1.961689e+02
   2.494939e+02  -9.480588e+01
   2.266269e+02   1.068669e+02
   1.336422e+02   1.634403e+02
  -2.686033e+01   1.420405e+02
  -8.734909e+01   8.573248e+01
  -5.765135e+01   7.054998e+01
  -2.214387e+01   7.015431e+01
  -5.815943e+01   7.788793e+01
  -1.291646e+02  -4.014042e+01
  -1.160378e+02  -1.483307e+02
  -1.609976e+01  -1.857757e+02
   1.315678e+02  -1.736579e+02
   1.721604e+02  -6.975418e+00
   1.291158e+02   1.130643e+02
   1.035318e+01   1.525963e+02
  -5.251925e+01   8.552087e+01
  -7.460695e+01  -2.082410e+01
  -1.383126e+01  -6.919300e+01
   2.924103e+01  -8.695214e+00
   1.635006e+01  -1.391029e+00
  -7.562851e+01  -3.122383e+01
  -6.483452e+01  -4.800255e+01
   7.203211e+01  -4.170076e+01
   1.650795e+02  -3.207703e+00
   1.455720e+02   4.821114e+01
  -1.137250e+00   1.291819e+02
  -1.434206e+02   5.019897e+01
  -1.320151e+02  -2.451138e+00
  -5.394914e+01  -6.690691e+01
   5.670367e+01  -7.264896e+01
   9.646224e+01  -1.193635e+00
   3.551910e+01   8.677577e+01
  -5.707388e+01   6.927319e+01
  -7.784670e+01  -6.595128e+00
  -6.055649e+01  -6.702191e+01
  -2.464564e+01  -1.956415e+00
  -5.119350e+01   8.698844e+00
  -7.917806e+01   3.765454e+01
  -6.521483e+01  -6.160674e+01
   3.382172e+01  -1.509310e+02
   1.385035e+02  -1.457846e+02
   1.729158e+02  -3.346073e+01
   1.588919e+02   8.740291e+01
   3.224290e+01   1.279679e+02
  -1.004081e+02   7.072320e+01
  -5.619746e+01  -2.641838e+01
   3.047933e+01  -2.166931e+01
   1.036272e+02   3.242158e+01
   4.702557e+01   8.513385e+01
  -7.739662e+01   1.203016e+02
  -1.813142e+02   2.718009e+01
  -1.404725e+02  -7.096167e+01
  -7.603381e+00  -6.709826e+01
   6.461946e+01  -4.570414e+01
   6.840075e+00   3.742242e+01
  -6.559108e+01   3.196753e+01
  -1.081989e+02   1.986077e+01
  -3.300394e+01  -1.228753e+02
   7.196314e+01  -1.218475e+02
   1.361699e+02  -6.768275e+01
   1.283589e+02   7.897809e+01
   1.141858e+01   1.718856e+02
  -7.231986e+01   9.365367e+01
  -9.164234e+01  -1.976901e+01
  -4.171865e+01  -1.323642e+02
   1.834949e+01  -8.041781e+01
   1.441900e+01  -1.309473e+01
   3.751817e+01   5.448985e+00
   2.821912e+01   1.790904e+01
   2.405755e+01  -1.682612e+01
   2.044593e+01   3.124687e+01
   6.103192e+01   8.642238e+01
   4.883350e+01   9.109785e+01
  -4.439637e+01   3.617776e+01
  -1.268618e+02  -1.212418e+01
  -1.131928e+02  -1.030923e+02
  -1.357187e+01  -3.356781e+01
   6.194253e+01  -3.607346e+01
   8.595914e+01  -1.232291e+01
   4.631146e+01   1.437758e+01
  -4.947570e+01   3.411836e+01
   6.194071e-02  -2.946921e+00
  -1.174774e+01   2.436157e+01
  -2.717729e+01   9.850552e+00
  -3.935527e+01  -3.278601e+01
  -6.940292e+01  -4.461466e+01
  -2.256427e+01  -8.398170e+01
   1.228052e+02  -8.807026e+01
   1.830000e+02  -8.912633e+01
   1.767793e+02   5.446356e+01
   2.675015e+01   1.684753e+02
  -6.471120e+01   1.721536e+02
  -1.387252e+02   6.600628e+01
  -6.670876e+01  -2.065890e+01
  -1.727494e+01  -6.718939e+01
  -8.401792e+00  -3.419420e+01
   1.256245e+01  -1.673471e+00
  -1.006899e+01  -3.275042e+01
  -1.329265e+01  -8.934402e+01
   3.783201e+01  -6.058405e+01
   6.361825e+01   1.014420e+01
   9.619433e+01   8.657749e+01
  -3.727110e+00   1.242752e+02
  -9.747678e+01   4.245064e+01
  -1.073795e+02  -4.645523e+01
  -4.187773e+01  -9.671125e+01
   5.813845e+01  -6.364666e+01
   1.244132e+02   1.066938e+01
   2.608321e+00   6.686482e+01
  -1.778843e+00   5.166122e+01
  -3.040170e+01   1.615902e+01
  -2.389034e+00   1.392919e+00
   1.795247e+01  -4.178167e+00
   1.586160e+01   3.435309e+01
  -6.572576e+01   6.600125e+01
  -1.102492e+02   3.959643e+01
  -7.204056e+01  -3.506561e+01
   2.644161e+01  -7.373736e+01
   7.154443e+01  -8.295919e+01
   3.692193e+01  -1.543195e+00
   4.291684e+01   6.144628e+01
  -3.387678e+01   3.530803e+01
  -2.893739e+01  -6.063570e+00
  -2.388170e+01  -5.871559e+01
   2.663776e+01  -4.401626e+01
   4.834901e+01   3.151569e+00
   3.607041e+01   3.925486e+01
   1.419845e+01   1.014269e+01
  -5.526144e+00  -2.670589e+01
  -2.519580e+01  -3.289649e+01
   4.587123e+01   1.526951e+01
   1.479587e+01   3.824121e+01
  -2.850760e+01   3.593922e+01
  -4.222808e+01   5.487658e+00
  -1.488323e+01  -4.862703e+01
   3.893454e+01  -4.434489e+01
   8.411032e+01  -1.041873e+01
   3.741117e+01   5.131465e+01
  -4.987047e+01   4.736257e+01
  -9.972146e+01   1.911512e+01
  -5.868548e+01  -6.193977e+01
   1.722901e+01  -5.727205e+01
   3.301637e+01  -3.303593e+01
   2.960469e+01  -2.433663e+01
  -3.549290e+01   3.539669e+01
  -1.984781e+01   1.832740e+01
  -8.301120e+00  -1.741238e+01
   4.517253e+01  -3.024164e+01
