
 $NMID
 id='ANONYMOUS ', fmtdat='(2E16.6)'
 volume=1.0
 tramp=1.0
 $END
   1.716244e+03  -2.476269e+01
   8.395883e+02   8.893521e+02
  -1.209355e+02   1.014823e+03
  -7.256877e+02   3.961981e+02
  -3.704347e+02  -7.258569e+00
   1.445071e+02  -1.858248e+02
   1.942092e+02   1.320834e+02
   6.725851e+01   2.778330e+02
  -2.272654e+02   1.634905e+02
  -2.245340e+02   7.381425e+01
  -1.078256e+02  -1.001026e+02
  -1.442056e+01  -1.973621e+02
   7.613957e+01  -9.513188e+01
   4.647586e+01   1.305380e+02
  -2.953681e+01   2.119212e+02
  -6.107697e+01   4.498662e+00
  -4.384915e+01  -1.640524e+02
   8.589406e+01  -9.927241e+01
   1.421057e+02  -4.269224e+01
   6.348196e+01   6.424845e+01
   2.889519e+01   9.042662e+01
   1.435280e+01   1.023018e+02
  -2.253993e+01   1.237620e+02
  -1.853602e+01   9.980582e+01
   5.401559e+01   4.138128e+01
   7.401498e+01   4.035003e+01
  -1.261687e+02   8.224175e+01
  -2.180680e+02  -2.265832e+01
  -1.300156e+02  -7.938887e+01
   9.272077e+01  -5.519294e+01
   1.593129e+02   5.786255e+01
   7.685223e+01   5.151324e+01
  -6.025292e+01   5.368766e+01
  -1.697225e+02   7.162618e+01
  -8.584890e+01   4.187861e+01
  -1.030502e+02  -1.010704e+02
  -6.862628e+01  -1.544579e+02
  -1.475427e+01  -4.821549e+01
   3.401118e+01   5.107585e+01
  -2.235875e+01   1.180004e+02
  -5.118061e+01  -9.513989e+01
   1.813069e+01  -1.496301e+02
   1.077732e+02   5.056394e+00
   1.360328e+02   5.092903e+01
  -3.656556e+01   6.784395e+01
  -7.121534e+01  -8.003382e+01
   4.042273e+00  -1.102498e+02
   1.184598e+02   1.693180e+01
   1.107525e+02   1.389167e+02
   5.849743e+01   1.700028e+02
  -8.952795e+01   4.292322e+01
  -1.715061e+02  -2.713534e+00
  -1.363410e+02  -6.422073e+01
  -3.174697e+01  -9.239153e+01
   1.000269e+02  -7.322199e+01
   7.622358e+01   2.810548e+01
   1.319848e+01   1.325617e+01
  -2.117108e+01  -2.020505e+01
   5.742883e+01  -4.082314e+01
   8.579760e+01   3.668719e+01
  -6.188893e-01   5.949487e+01
  -8.854967e+01   1.899103e+01
  -5.980528e+01  -2.187624e+01
   1.748061e+01   1.159874e+01
   7.795547e+01   2.564221e+00
   7.533126e+01  -6.148422e+01
   3.762250e+01  -8.680815e+01
   8.738206e+01  -1.272985e+01
   1.483760e+01   1.565756e+02
  -4.327594e+01   1.852972e+02
  -4.489907e+01   1.061163e+02
  -7.485832e+01   3.296991e+01
  -5.152403e+01  -5.872522e+00
  -7.854465e+01   1.297745e+01
  -6.441732e+01  -3.116383e+01
  -4.597192e+01  -5.783363e+01
   1.727415e+00  -3.713366e+01
   3.987250e+01   1.698674e+00
   2.166975e+01   9.231161e+01
   1.517328e+00   6.390485e+01
  -7.815186e+01  -9.102285e-01
  -9.877999e+01  -4.491203e+01
  -7.259582e+01  -7.154493e+01
   1.386364e+01  -1.229054e+02
   5.666122e+01  -9.971110e+01
   8.290294e+01  -3.747128e+01
   6.185116e+01   8.913943e+00
   9.036154e+01   4.926819e+00
   8.874165e+01   4.692689e+01
   3.870034e+01   9.919775e+01
  -3.821238e+01   6.977015e+01
  -1.225493e+02   9.785541e+01
  -1.182823e+02   6.344502e+01
  -7.224091e+01   2.974210e+01
  -2.205161e+01  -6.676749e+01
   2.824985e+01  -1.085656e+02
   3.865652e+01  -5.917297e+01
  -7.703909e+01   3.611079e+01
  -6.960606e+01   1.166891e+01
  -5.253132e+00  -5.200204e+01
   6.429810e+01  -8.028730e+01
   1.580171e+01   1.167713e+01
  -1.798564e+01   5.254691e+01
  -4.292656e+01   1.627639e+00
  -3.039246e+01  -8.197484e+01
   2.686132e+01  -9.912899e+01
   5.304108e+01  -6.574024e+01
   8.867090e+01   3.712058e+01
   6.468644e+01   5.794258e+01
   5.889804e+01   2.204308e+01
  -4.060889e+00   3.386093e+01
  -5.821386e+01   3.612979e+01
  -5.503247e+01   2.580412e+01
  -4.747229e+00   2.473546e+01
  -1.867253e+01   3.262692e+00
  -6.185050e+01   2.539408e+01
  -1.194002e+01   9.165695e+00
  -1.056656e+01   1.282670e+01
   1.634872e+01   1.340955e+01
  -5.655883e+00   2.655501e+01
  -3.177717e+01  -1.593996e+01
  -1.098701e+02  -2.930063e+01
  -6.220589e+01  -5.480149e+01
  -7.679446e-01  -5.747146e+01
   4.640125e+01  -5.013253e+01
   9.761925e+01  -8.095847e+01
   6.640708e+01   2.405229e+01
  -2.658898e+00   1.676297e+01
   5.718228e+00   3.524957e+01
   2.072215e+01  -1.002224e+01
   5.631381e+01  -3.726131e+01
   5.523610e+01   4.103741e+01
   2.222471e+01   3.923891e+01
  -1.241198e+01   2.747792e+01
  -2.392491e+01   4.378136e+01
  -4.550184e+01   5.478317e+01
  -3.029121e+01  -2.309297e+00
  -2.090973e+00   5.117741e+01
  -3.345506e+01   1.653020e+01
  -1.181689e+01   5.367466e+00
  -3.074636e+01  -2.457746e+01
  -2.175226e+01  -5.054613e+01
   6.324822e+01  -6.818524e+01
   4.180508e+01  -1.405610e+01
   2.833981e+01   1.634629e+01
   6.141612e+00   1.981475e+01
   4.239176e+00   3.210762e+01
   1.466031e+01   9.295472e+00
  -8.257840e+00  -1.203148e+00
  -2.729165e+01  -3.541797e+01
  -4.084697e+01  -5.095132e+01
   1.042018e+01  -1.408842e+01
   1.817976e+01  -2.060831e+01
   3.412227e+01  -4.720385e+01
   6.670748e+01   1.392578e+01
   7.266889e+01   4.169756e+01
   2.122963e+01   6.809555e+01
  -1.442179e+01   4.663173e+01
  -6.197020e+01   2.895521e+01
  -2.482060e+01   1.177777e+01
  -2.636769e+01  -5.220509e+00
  -3.685752e+01  -1.043115e+01
  -5.496526e+01  -2.615039e+01
   6.134794e+00  -2.253946e+01
   2.063570e+01  -1.683254e+01
  -1.391165e+00   1.060628e+01
   2.004128e+01   7.555406e+00
  -2.439507e+01   2.872643e+01
  -3.837603e+01   1.949119e+01
  -3.166760e+01   5.462713e+00
  -3.248327e+01  -6.685048e+01
   3.895403e+01  -4.581167e+01
   9.012032e+01  -2.388708e+01
   1.038697e+02   2.582285e+01
   2.018774e+01   3.005221e+01
  -9.588177e+00   3.565337e+01
  -1.959308e+01   3.802843e+01
  -3.337279e+01   6.145524e+01
  -4.460079e+01   6.099819e+01
  -6.316214e+01  -4.339381e+00
  -3.687885e+01   3.811644e+00
  -8.362393e+00  -4.602329e+01
   1.153686e+01  -8.575269e+01
   1.394456e+01  -4.091214e+01
   2.316651e+01   4.165042e-01
   4.622483e+01   4.815476e+01
   1.898300e+01   1.482327e+01
  -2.873166e+01   1.706044e+00
  -9.542464e-01  -1.546867e+01
   6.929630e-02  -1.057768e+01
  -3.119250e+01  -2.462216e+01
  -3.199432e+01  -1.351562e+01
   2.193398e+00  -1.385351e+01
  -9.462909e+00   7.401034e+00
   7.988053e+00   9.689863e+00
   5.295646e+01   1.253980e+01
   6.721339e+01   3.173324e+01
   1.462946e+00   3.480864e+01
  -5.306226e+01   2.116211e+01
  -2.603855e+01  -1.439672e+01
  -1.426179e+01  -1.005283e+01
   2.554982e+01  -2.010499e+01
   1.240543e+01  -3.144502e+00
  -1.355248e+01   1.204505e+01
  -1.866679e+01   1.057371e+01
  -3.458108e+01   4.438292e-01
  -6.437124e+00  -9.756519e+00
  -3.022227e+01  -4.617855e+01
  -1.344914e+01   1.390767e+00
  -1.925960e+01  -8.413265e+00
  -5.671125e+00  -2.805824e+01
   3.243683e+01  -3.938975e+01
   5.400811e+01  -2.831767e+01
   4.768499e+01  -2.623242e+01
   3.126277e+01   2.732589e+01
  -8.753745e+00   1.880715e+01
  -5.608977e+01   3.187811e+01
   7.391130e+00   2.205495e+01
   4.063013e+01  -6.631960e-01
   4.210203e+01   1.717310e+01
   1.834526e+01  -1.842639e+01
  -2.576801e+01   2.516398e+00
  -5.555676e+01   1.015514e+01
  -5.815838e+01  -1.451163e+01
  -6.503042e+01  -1.582190e+01
   7.473484e+00  -5.549408e+01
   4.024500e+00  -7.159043e+00
  -3.201973e+01  -8.122664e+00
  -3.694232e+01  -3.858645e+01
   2.203533e+01  -1.438260e+01
   9.006047e+00  -2.432133e+01
   3.552231e+01  -2.521314e+00
   2.966418e+01   3.015669e+01
  -1.777846e+00   4.253956e+01
   2.265458e+01   4.318146e+01
  -1.244144e+01   3.368094e-01
   8.377101e+00  -5.039454e+01
   6.686646e+00  -3.553566e+01
   4.964046e+00  -1.665499e+00
   1.522682e+01  -1.223020e+01
   2.314740e+01  -2.226718e-01
   8.058295e+00  -1.944217e+00
   6.836198e+00   1.230194e+01
   1.512498e+01   4.089699e+01
   4.376731e+00   1.935379e+01
  -4.567527e+01  -2.697526e+01
  -5.506067e+01  -2.220846e+01
  -2.874798e+01  -2.374851e+01
  -1.037451e+01   2.653114e+00
   6.392179e+01   7.249573e+00
   5.622587e+01  -1.436772e+01
  -1.091358e+01  -1.255933e+01
  -3.241680e+01  -1.501660e+01
   9.146069e+00   1.379763e+01
   3.183901e+01  -8.273297e+00
  -1.273960e+01   8.296251e+00
  -3.326025e+01   2.173774e+01
  -4.152267e+01   2.833316e+01
   3.581871e+01  -4.622391e+01
   1.530921e+01  -2.420937e+01
   6.324840e+01  -1.443018e+01
   4.858393e+01   2.620869e+01
   2.125813e+01   3.360826e+01
  -2.322817e+01   3.373511e+01
  -4.328049e+01   4.647913e+01
  -1.815925e+01  -9.893968e+00
  -1.186755e+01  -1.221903e+01
   7.343411e+00  -1.489866e+00
  -2.559062e+01  -8.101417e+00
  -2.191060e+01  -1.901770e+01
   1.223653e+01  -1.593767e+01
   1.584220e+01  -6.247596e+01
  -8.180105e+00   6.532013e+00
   6.371228e+00   5.049262e+01
   1.398000e+01   1.176378e+01
  -1.566218e+01  -1.173445e+01
  -3.247913e+01  -1.274833e+01
   7.202624e+00  -3.596441e+01
   2.042596e+01  -6.394060e+00
   1.614683e+01   2.366005e+01
   2.100531e+01   2.649268e+01
  -1.732356e+01   2.710397e+01
  -5.759726e+00   1.498179e+01
   1.082895e+01  -4.724820e+00
   4.109191e+01  -1.505852e+01
  -2.513183e+00  -2.073277e+01
  -3.122249e+00   1.279244e+01
  -3.637789e+01   2.744179e+01
  -5.138855e+01   8.186075e+00
   1.255232e+00  -6.220925e+00
   4.004489e+00  -2.563296e+01
   7.611430e+00  -1.678247e+01
  -9.978595e+00   4.378537e-01
   4.316740e-01   1.694856e+01
   3.321360e+01   1.359856e+01
  -2.269854e+01  -2.079453e+01
  -6.614920e+00  -9.552935e-01
   9.681312e+00   1.047373e+01
   3.167334e+01  -1.167524e+01
   2.837621e+01  -3.588292e+00
   3.098807e+01  -2.130992e+01
   9.319397e+00   1.458831e+01
  -5.588119e-01   9.246055e+00
   2.176299e+01   2.046500e+01
  -3.581320e+01   1.485070e+01
   1.216357e+01  -1.964549e+01
  -1.064236e+01  -4.315994e+01
  -8.939337e+00  -1.540464e+01
   3.063458e+01   1.480261e+01
   2.196512e+01   1.024698e+01
  -1.896911e+01   8.537125e-02
  -1.940087e+01   6.654548e+00
  -2.767010e+01  -1.410965e+00
   1.412749e+00   1.371734e+00
   1.198717e+01  -1.942158e+01
  -4.045064e+00  -1.104669e+01
  -1.498787e+01  -1.354788e+01
  -1.818008e+00   1.950467e+01
   1.456771e+00  -1.750491e+01
  -1.147675e+00   2.567077e+01
