
 $NMID
 id='ANONYMOUS ', fmtdat='(2E16.6)'
 volume=1.0
 tramp=1.0
 $END
  -3.586860e+03   3.724671e+01
  -2.145828e+03  -1.876967e+03
   3.527025e+02  -2.073417e+03
   1.288455e+03  -9.844973e+02
   8.826824e+02   1.835810e+02
  -3.112505e+02   2.720160e+02
  -5.502396e+02  -2.770678e+02
   1.989313e+01  -8.007777e+02
   5.463662e+02  -5.909356e+02
   6.142807e+02   8.197837e+00
   3.647820e+02   4.879471e+02
  -5.286925e+00   5.971405e+02
  -3.775406e+02   9.563940e+01
  -2.636358e+02  -4.527204e+02
   1.363225e+02  -4.753671e+02
   4.147338e+02  -3.912983e+01
   2.389926e+02   5.046903e+02
  -1.517238e+02   4.797722e+02
  -4.115407e+02   2.063655e+02
  -3.401154e+02  -1.875888e+02
  -8.797154e+01  -3.106965e+02
   1.295161e+02  -2.018377e+02
   9.265336e+01  -4.869845e+01
  -1.364656e+02  -4.385092e+01
  -2.614645e+02  -1.510146e+02
  -9.585699e+01  -3.129846e+02
   3.435321e+02  -2.896281e+02
   5.838891e+02   6.437041e+01
   3.049548e+02   3.291868e+02
  -3.133318e+02   2.657377e+02
  -5.099643e+02  -4.078331e+01
  -2.517408e+02  -2.898278e+02
   1.490683e+02  -3.448107e+02
   4.195724e+02  -1.230561e+02
   3.506486e+02   8.989817e+01
   1.051521e+02   3.112255e+02
  -5.231858e+01   2.261140e+02
  -5.738378e+01  -9.192310e+01
   1.042785e+02  -2.625715e+02
   2.396760e+02   4.187352e+01
   1.197506e+02   5.371941e+02
  -2.006315e+02   4.716006e+02
  -3.674728e+02   2.408945e+00
  -1.557668e+02  -3.913322e+02
   1.602937e+02  -1.952306e+02
   2.154165e+02   2.235365e+02
  -4.126516e+01   3.582592e+02
  -4.109376e+02   1.126750e+02
  -4.462861e+02  -3.112685e+02
  -1.716126e+02  -4.545280e+02
   2.507431e+02  -2.637866e+02
   4.710036e+02  -3.235886e+00
   3.522287e+02   2.222150e+02
  -7.435579e+01   2.843384e+02
  -3.123849e+02   1.103873e+02
  -1.884535e+02  -7.051280e+01
   3.187932e+01  -2.381930e+01
   7.639349e+01   8.711474e+01
  -1.257149e+02   8.326334e+01
  -2.414256e+02  -8.774340e+01
  -1.183250e+02  -2.117377e+02
   1.577630e+02  -2.022797e+02
   2.321170e+02  -8.541219e+01
   1.596408e+02   8.682110e+01
  -3.292282e+01   1.793548e+02
  -1.657489e+02   2.327467e+02
  -2.797882e+02   1.802370e+02
  -2.681356e+02  -7.696737e+01
  -9.896376e+01  -3.221316e+02
   5.618223e+01  -3.172408e+02
   7.586804e+01  -1.667839e+02
   5.367666e+01  -3.133785e+01
   5.710338e+01  -9.165087e+01
   1.687999e+02  -1.022838e+02
   2.077640e+02   6.640507e+01
   1.442673e+02   2.009944e+02
  -3.721080e+01   1.744841e+02
  -1.627157e+02   1.308465e+01
  -1.124528e+02  -1.697588e+02
  -1.429054e+01  -2.325234e+02
   1.846723e+02  -6.304999e+01
   2.810139e+02   1.204775e+02
   1.699660e+02   2.404415e+02
  -4.401980e+01   2.689638e+02
  -1.525736e+02   1.085418e+02
  -1.215040e+02   3.382207e+01
  -1.106668e+02   3.096979e+01
  -2.383531e+02   2.735978e+01
  -3.119957e+02  -4.149098e+01
  -2.529567e+02  -2.110658e+02
  -1.425015e+01  -3.256940e+02
   2.858488e+02  -3.259120e+02
   3.357314e+02  -2.317811e+02
   2.646553e+02   3.345366e+01
   6.941457e+01   2.078354e+02
  -3.759440e+01   2.038951e+02
  -4.519321e+01   2.454786e+01
   9.696066e+01  -7.929611e+01
   1.413294e+02   3.758815e+00
   4.727011e+01   1.464403e+02
  -1.345886e+02   1.353055e+02
  -1.419948e+02  -5.806093e+01
   3.652743e+01  -1.445854e+02
   1.421675e+02  -5.623419e+01
   1.470551e+02   1.240191e+02
  -2.839983e+01   2.291170e+02
  -1.904014e+02   2.110910e+02
  -2.899869e+02  -4.061447e+01
  -2.512373e+02  -1.515459e+02
  -9.615533e+01  -2.279921e+02
   8.922694e+01  -1.437625e+02
   1.609924e+02  -2.172678e+01
   7.409971e+01   2.384244e+01
  -3.646954e+01  -2.286894e+01
  -2.207952e+01  -8.580954e+01
   9.984144e+01  -7.685666e+01
   1.355479e+02   1.711511e+01
   4.467576e+01   2.619665e+01
  -5.219409e+01  -3.186565e+01
  -2.724533e+01  -5.710244e+01
   1.306778e+02  -4.400620e+01
   2.372223e+02  -1.929405e+01
   2.141860e+02   9.217303e+01
   6.153291e+01   2.017299e+02
  -1.477658e+02   2.016424e+02
  -2.255592e+02   1.166038e+02
  -1.517306e+02  -1.350713e+01
   7.490432e+00  -5.817336e+01
   7.892732e+01  -8.828902e+00
  -3.776347e+01   4.178832e+01
  -1.556182e+02   2.242925e+01
  -1.548201e+02  -9.054863e+01
  -3.671625e+01  -1.534137e+02
   3.749085e+01  -1.290081e+02
   9.320717e+01  -4.142678e+01
   6.274533e+01   2.649224e+01
  -3.830972e+01  -1.646486e+01
  -7.073166e+00  -7.521234e+01
   7.475455e+01  -8.243347e+01
   1.242191e+02  -1.615009e+01
   1.845672e+02   1.110462e+02
   1.802834e+01   1.640235e+02
  -1.333416e+02   1.258507e+02
  -1.931313e+02   3.486132e+01
  -5.689705e+01  -6.682160e+01
   5.586718e+01  -9.746226e+01
   5.731809e+01  -3.134893e+01
   3.469257e+01   7.587243e+00
  -1.114252e+01  -1.929405e+01
  -2.601017e+01   2.503054e+01
   6.219171e+01  -6.908237e+00
   1.032323e+02   7.027071e+01
   2.983940e+01   1.213046e+02
  -1.064869e+02   1.226467e+02
  -2.041743e+02   2.605443e+01
  -1.972597e+02  -1.320629e+02
  -5.770603e+01  -1.811074e+02
   5.225315e+01  -1.511449e+02
   1.016668e+02  -2.780009e+01
   7.385396e+01   3.964116e+01
   5.524437e+01   5.687919e+01
   6.751621e+01  -5.311635e+01
   5.433673e+01  -8.736068e+00
   5.437942e+01   4.516968e+01
   4.455157e+00   9.058897e+01
  -9.372811e+01   5.993864e+01
  -6.330878e+01  -2.984444e+01
   5.867732e-01  -8.348672e+01
   1.284339e+02  -5.211477e+01
   1.515062e+02   2.140617e+01
   7.293007e+01   1.615825e+02
  -1.091352e+02   1.983674e+02
  -1.867327e+02   8.067542e+01
  -2.168216e+02  -7.538580e+01
  -1.214946e+02  -9.324402e+01
   3.165872e+01  -1.317179e+02
   6.771468e+01  -6.447769e+01
   7.585981e+01  -7.576027e+01
   4.505132e+01  -8.651462e+01
   9.182456e+01  -8.951023e+01
   1.146474e+02  -1.391651e+01
   1.618731e+02   1.036403e+02
   4.514268e+01   2.024601e+02
  -7.354673e+01   1.693670e+02
  -1.449392e+02   2.752343e+01
  -1.218070e+02  -1.186450e+02
  -4.134276e+00  -1.441108e+02
   3.032792e+01  -4.124659e+01
   6.704855e+01   4.097448e+01
  -3.595907e+00  -2.470755e+00
   5.798605e+00   3.867534e+01
   3.092713e+01  -1.262624e+01
   5.233911e+01   2.891665e+01
   2.906300e+01   1.612966e+01
  -6.079136e+01   2.295740e+01
  -1.157191e+02   2.234968e+01
  -1.306400e+02   2.742083e+00
  -2.146160e+01  -6.838218e+01
   1.135544e+02  -4.882330e+01
   1.213664e+02  -2.185088e+01
   4.744633e+01   4.220660e+01
  -4.169663e+01   6.137937e+01
  -5.010473e+01  -1.208157e+01
   3.801319e+00  -6.412612e+01
   3.778193e+01  -4.152024e+01
   4.632826e+01   8.381097e+00
   2.797697e+01   1.761727e+01
   7.390613e+01   3.780844e+01
   6.419972e+01   7.810800e+00
   4.226458e+01   1.351793e+01
   4.932480e+01   4.863270e+01
   7.775844e+00   1.058952e+02
  -1.182946e+02   9.801719e+01
  -1.369820e+02   3.856136e+01
  -1.032217e+02  -8.439489e+01
  -1.589641e+01  -1.061067e+02
   7.632481e+01  -5.126939e+01
   3.220532e+01  -1.798558e-01
  -8.034498e+01   9.074392e+00
  -1.251151e+02  -4.334395e+01
  -6.411500e+01  -5.736226e+01
   6.310625e+01  -9.628171e+01
   1.267033e+02  -2.006603e+01
   1.260941e+02   3.242415e+01
   5.118180e+01   7.474886e+01
  -5.957551e+01   5.236699e+01
  -2.332166e+01   1.545741e+01
   3.332135e+01  -2.182009e+01
   7.811290e+01   1.392771e+01
  -2.321495e-01   9.659639e+01
  -4.693354e+01   1.342961e+02
  -1.468778e+02   3.231318e+01
  -8.390928e+01  -8.783291e+01
  -2.812753e+01  -1.355745e+02
   3.341110e+01  -1.029962e+02
   6.860234e+01  -1.052920e+01
   5.039639e+01   7.932523e+01
   2.961488e+01   9.284134e+01
  -2.447517e+01   1.544391e+01
  -5.618062e+01  -3.369336e+01
   2.862978e+00   7.637549e+00
  -5.378468e+00   2.818371e+01
   9.431614e+00  -8.030360e+00
  -5.499970e+01  -6.855792e+01
  -6.293713e+01  -9.183842e+01
   3.483559e+01  -1.951440e+01
   1.122630e+02   4.809797e+01
   1.067644e+02   4.600089e+01
   1.264890e+01   5.170745e+01
  -7.067143e+01   3.521894e+01
  -6.233813e+01   1.102500e+01
  -3.278708e+00  -8.699950e-01
   1.221979e+01  -9.014262e+00
   2.811901e+01  -1.188698e+01
  -1.510303e+01  -1.983560e+01
  -7.111391e+00   5.520883e+00
   6.831266e+01  -9.350427e+00
   5.856277e+01  -9.317471e+00
  -5.928558e+00   5.064053e+01
  -8.298664e+01   7.873209e+01
  -1.275265e+02   6.887522e+01
  -1.395288e+02  -3.404040e+01
  -4.514239e+01  -1.376557e+02
   5.755678e+01  -1.310539e+02
   1.247430e+02  -4.136282e+01
   9.178681e+01   1.256404e+01
   2.451082e+01   4.852417e+01
  -3.059562e+01   1.610570e+01
  -3.710814e+00  -1.311656e-01
   2.790571e+01   4.159065e+01
   1.310293e+00   7.512294e+01
  -2.034038e+01   6.072616e+01
  -8.208142e+01  -7.836935e+00
  -7.303564e+01  -6.311374e+01
  -2.303196e+01  -7.649647e+01
   5.909312e+01  -1.764825e+01
   9.437308e+01   2.475067e+01
   3.340898e+01   7.055947e+01
  -5.678980e+01   7.020647e+01
  -9.522592e+01   1.900955e+01
  -5.575246e+01  -2.725416e+01
  -6.709019e+00  -7.606911e+01
   4.059584e+01  -9.951274e+00
  -1.827278e+01   9.063785e-01
  -6.379776e+01   8.251332e+00
   6.790051e+00  -2.841338e+01
   5.137493e+01  -5.421075e+01
   9.747334e+01  -5.694277e+01
   6.189411e+01   4.583554e+00
   2.946387e+00   5.975178e+01
  -2.748265e+01   6.878603e+01
  -3.257357e+00   3.127763e+01
   2.362425e+00  -3.857454e+01
  -2.214133e-01  -3.736951e+01
   2.346724e+01   6.607846e-01
   2.396057e+01   3.200826e+01
  -5.119303e-01   4.656359e+01
  -4.021628e+01   9.788555e+00
  -1.935434e+01  -6.382554e+01
   1.433367e-01  -2.607360e+01
   7.153492e+00   7.611605e+00
  -3.328869e+00   1.183402e+01
  -1.712179e+00  -4.478626e+01
   1.480981e+01  -5.368405e+01
   3.879928e+00   7.244623e-01
   2.644064e+01   3.200548e+01
  -3.053301e+00   2.542048e+01
  -2.799461e+01   2.587076e+00
  -4.091580e+01  -4.319568e+01
  -6.751032e+00  -3.921613e+01
   3.326466e+01  -3.070584e+01
   5.448653e+01   3.356536e+01
   1.906222e+01   2.522153e+01
  -2.561589e+01   5.193089e+01
  -2.274518e+01   8.918423e+00
  -2.919692e+01  -4.194703e+00
   3.930806e+01  -2.244386e+01
   2.283190e+01  -1.360350e+00
  -7.637041e+00   4.249115e+01
  -1.020326e+02   3.194360e+01
