
 $NMID
 id='ANONYMOUS ', fmtdat='(2E16.6)'
 volume=1.0
 tramp=1.0
 $END
   4.465447e+03  -2.098665e+02
   2.782898e+03   2.530388e+03
  -6.612240e+02   2.769790e+03
  -2.256135e+03   1.124049e+03
  -1.002405e+03  -5.553796e+02
   7.023427e+02  -5.639112e+02
   1.006577e+03   3.816384e+02
   6.197714e+01   1.073412e+03
  -8.053776e+02   8.190927e+02
  -8.618664e+02  -8.013668e+01
  -4.428034e+02  -8.627039e+02
   2.191057e+02  -8.485276e+02
   6.066137e+02  -7.409401e+01
   3.450487e+02   6.713804e+02
  -2.302097e+02   7.132563e+02
  -6.020881e+02   7.074426e+00
  -3.131570e+02  -6.808253e+02
   2.893012e+02  -6.408869e+02
   6.076209e+02  -2.036156e+02
   4.273514e+02   2.991410e+02
   5.129714e+01   4.540461e+02
  -2.456536e+02   2.650659e+02
  -2.050235e+02   3.403005e+01
   1.507298e+02  -1.041440e+02
   4.393240e+02   1.491090e+02
   1.955137e+02   4.358542e+02
  -4.916303e+02   3.915511e+02
  -8.334489e+02  -8.140088e+01
  -3.874548e+02  -5.663351e+02
   4.623807e+02  -4.419278e+02
   7.140317e+02   9.829264e+01
   3.415824e+02   5.140157e+02
  -3.189416e+02   5.598865e+02
  -6.089381e+02   1.761410e+02
  -4.591805e+02  -2.160281e+02
  -8.588507e+01  -4.630409e+02
   1.786195e+02  -2.737679e+02
   9.128427e+01   1.617891e+02
  -2.164454e+02   3.949125e+02
  -4.050427e+02  -4.237402e+01
  -2.009557e+02  -7.228315e+02
   3.487543e+02  -7.007293e+02
   5.791907e+02  -1.430161e+01
   1.867589e+02   5.377783e+02
  -2.514913e+02   3.322907e+02
  -3.445194e+02  -2.921456e+02
   8.550293e+01  -5.150905e+02
   5.153674e+02  -1.636761e+02
   6.107932e+02   3.938282e+02
   2.031163e+02   6.114108e+02
  -4.035942e+02   3.808379e+02
  -6.311129e+02  -4.240741e+01
  -4.373388e+02  -3.536116e+02
   1.071081e+02  -3.594671e+02
   4.069025e+02  -1.027264e+02
   2.337190e+02   1.826964e+02
  -8.382977e+01   1.097537e+02
  -1.560264e+02  -1.240328e+02
   1.291026e+02  -1.737280e+02
   3.132747e+02   1.138281e+02
   1.718385e+02   2.833968e+02
  -1.697305e+02   2.904628e+02
  -3.374835e+02   9.088815e+01
  -2.136296e+02  -9.286837e+01
   2.525926e+00  -2.661463e+02
   2.435785e+02  -3.441391e+02
   3.684743e+02  -1.964896e+02
   3.070663e+02   1.436423e+02
   9.867581e+01   4.314632e+02
  -7.288552e+01   3.720281e+02
  -7.403822e+01   8.506065e+01
  -2.984282e+01   3.443779e+00
  -4.444893e+01   5.569268e+01
  -1.951633e+02   1.103584e+02
  -2.673658e+02  -5.975405e+01
  -1.812361e+02  -2.707302e+02
   6.122331e+01  -2.237342e+02
   2.351009e+02  -1.427538e+01
   1.765137e+02   2.932513e+02
  -1.282742e+01   3.274180e+02
  -2.741859e+02   1.124670e+02
  -3.859539e+02  -1.595282e+02
  -2.440124e+02  -3.294992e+02
   1.316249e+02  -3.179472e+02
   2.272511e+02  -9.956270e+01
   1.531412e+02  -1.237554e+01
   1.111962e+02  -4.297013e+01
   1.983545e+02  -1.032861e+02
   3.804053e+02   1.939429e+01
   3.865639e+02   2.547837e+02
   6.167055e+01   5.000315e+02
  -3.374458e+02   4.503897e+02
  -4.534643e+02   2.367221e+02
  -2.992795e+02  -1.081525e+02
  -3.404289e+01  -2.961349e+02
   1.154363e+02  -2.435989e+02
   9.711603e+01  -4.925157e-01
  -1.475216e+02   8.807080e+01
  -2.059487e+02   1.811290e+01
  -6.184390e+01  -2.114359e+02
   1.858217e+02  -1.939227e+02
   2.168494e+02   4.529619e+01
  -3.826889e+01   1.981704e+02
  -1.630254e+02   6.616053e+01
  -1.991975e+02  -1.947788e+02
   1.809117e+01  -3.486020e+02
   2.329938e+02  -2.437641e+02
   3.574276e+02   2.366057e+01
   3.096818e+02   1.881975e+02
   8.538059e+01   2.935593e+02
  -1.263792e+02   1.985064e+02
  -1.921481e+02   1.522576e+01
  -6.092889e+01  -4.641717e+01
   7.712037e+01   3.156605e+01
   4.609214e+01   1.185186e+02
  -1.067715e+02   7.663745e+01
  -2.067307e+02  -1.512819e+01
  -4.240800e+01  -4.911759e+01
   7.865625e+01  -1.440036e+01
   6.246186e+01   6.324980e+01
  -1.391201e+02   7.836198e+01
  -3.205536e+02   2.396842e+01
  -2.898775e+02  -1.335462e+02
  -5.651849e+01  -2.342872e+02
   1.911244e+02  -2.679707e+02
   2.530455e+02  -1.507901e+02
   1.817644e+02   4.827058e+01
  -3.727715e+00   1.020367e+02
  -9.672581e+01   1.524748e+00
   2.903781e+01  -6.705696e+01
   2.093462e+02  -4.309849e+01
   1.904327e+02   1.192815e+02
   5.397775e+01   2.099932e+02
  -7.204713e+01   1.430181e+02
  -1.486312e+02   2.814680e+01
  -6.932008e+01  -2.017088e+01
   2.336871e+01   2.027592e+01
   5.428783e+01   8.390510e+01
  -6.950419e+01   1.216778e+02
  -1.983394e+02   6.194844e+01
  -2.069481e+02  -1.326718e+02
  -5.132963e+01  -2.109142e+02
   1.662235e+02  -1.844549e+02
   2.163723e+02  -4.115894e+01
   8.142827e+01   1.084973e+02
  -8.238597e+01   1.210607e+02
  -7.754761e+01   3.714880e+01
  -1.450574e+01  -4.098936e+01
   6.629772e+00  -3.534331e+01
  -1.597557e+01  -2.664599e+00
  -3.924898e+01  -8.732702e+00
  -8.337711e+01  -7.431249e+01
  -1.845073e+01  -1.469843e+02
   1.029886e+02  -1.939715e+02
   2.087741e+02  -5.171825e+01
   2.184778e+02   1.496446e+02
   3.439846e+01   2.276324e+02
  -1.282192e+02   1.667352e+02
  -1.611263e+02   4.211705e+01
  -8.834193e+01  -4.773347e+01
  -3.850978e+01  -4.383227e+01
  -2.151541e+01   6.118977e+00
  -6.590924e+01   1.371125e+00
  -6.331879e+01  -4.260480e+01
   2.298479e+01  -1.038896e+02
   1.014147e+02  -9.015101e+01
   1.086493e+02   5.468009e+01
   2.621888e+00   1.319168e+02
  -1.247103e+02   1.314252e+02
  -2.513848e+02  -5.212229e+01
  -1.079355e+02  -1.836033e+02
   1.063941e+02  -2.948430e+02
   2.520028e+02  -1.096437e+02
   2.883931e+02   7.344627e+01
   1.403764e+02   1.926200e+02
  -5.903247e+01   1.539248e+02
  -1.057692e+02   8.361846e+01
  -9.649249e+01   6.703287e+01
  -7.225540e+01   9.858455e+01
  -1.052544e+02   9.138694e+01
  -1.620579e+02   5.108412e+00
  -1.179824e+02  -1.433394e+02
  -4.730430e+01  -2.326923e+02
   1.287191e+02  -1.904481e+02
   1.704689e+02  -2.981211e+01
   1.308650e+02   1.191496e+02
   2.022145e+01   1.483043e+02
  -4.757987e+01   1.058928e+02
  -8.205487e+01  -1.605318e+01
  -2.675329e+01  -3.773868e+01
   1.050872e+01  -3.002775e+01
  -2.794593e+01  -1.002129e+01
  -7.739886e+01  -5.313964e+00
  -4.206916e+01  -2.822673e+01
   5.894268e+01  -4.480056e+01
   2.065083e+02  -1.971940e+01
   1.480674e+02   5.245082e+01
   1.838506e+01   1.134006e+02
  -1.344202e+02   7.454732e+01
  -1.278954e+02   1.562978e+00
  -4.065375e+01  -4.858806e+01
   6.989139e+01  -5.606868e+01
   9.538097e+01   1.295288e+01
  -2.412671e+01   7.312600e+01
  -5.873026e+01   2.824332e+01
  -7.015227e+01  -1.084121e+01
  -4.801548e+01  -2.775674e+01
  -7.099405e+01  -4.120980e+01
  -7.994250e+01   2.141410e+01
  -7.186307e+01   1.048671e+01
  -3.492811e+01  -6.158285e+01
   1.950668e+00  -1.599749e+02
   1.385866e+02  -1.350324e+02
   1.769513e+02  -4.767816e+01
   1.313618e+02   9.655807e+01
  -9.520043e+00   1.063325e+02
  -1.030935e+02   7.205902e+01
  -6.650578e+01  -6.832281e+00
   5.229626e+01  -4.109739e+01
   1.210074e+02   2.071252e+01
   1.172540e+02   1.202563e+02
  -6.406723e+01   1.284651e+02
  -1.865472e+02   3.388634e+01
  -1.589808e+02  -1.481383e+01
  -5.567975e+01  -9.319491e+01
   7.314491e+01  -4.071648e+01
   5.255248e+01  -5.250823e+00
  -6.916993e+01   2.256049e+01
  -1.131711e+02  -1.472494e+01
  -4.801231e+01  -1.473996e+02
   7.177210e+01  -1.556567e+02
   1.821579e+02  -7.089320e+01
   1.170567e+02   7.863366e+01
   7.396297e+00   2.008122e+02
  -7.463408e+01   1.347244e+02
  -9.285676e+01   7.130520e+00
  -4.806233e+01  -8.236985e+01
   6.515429e+00  -9.915172e+01
   6.085336e+01  -2.820104e+01
   4.839878e+01   3.622150e+01
   1.972421e+01   8.255019e+00
   1.253796e+01  -7.510196e+00
   2.036160e+01   1.035099e+01
   6.489699e+01   8.376286e+01
   5.370645e+01   1.432593e+02
  -3.523551e+01   5.162546e+01
  -1.265737e+02  -6.364146e+01
  -1.552324e+02  -7.856218e+01
  -2.514412e+01  -9.829435e+01
   1.101326e+02  -5.095488e+01
   8.359575e+01  -1.202755e+00
   1.480055e+01   1.494725e+01
  -3.505380e+01   1.549804e+01
   2.316343e+00   3.178008e+01
   1.175779e+01   7.874354e+00
   1.979195e+01   8.134223e+00
  -5.013976e+01   2.334120e+01
  -1.083126e+02   4.412687e+00
  -1.631977e+01  -6.091626e+01
   1.222144e+02  -1.291081e+02
   1.888849e+02  -6.750163e+01
   1.537147e+02   5.504278e+01
   3.951429e+01   1.772334e+02
  -7.986749e+01   1.629829e+02
  -1.301605e+02   5.786725e+01
  -8.085055e+01  -5.629910e+00
  -1.432238e+01  -5.584016e+01
  -1.890232e+01  -1.777254e+01
   3.265458e+01  -1.199965e+01
  -3.470169e+01  -6.810952e+01
  -2.733158e+01  -9.647317e+01
   3.156070e+01  -8.669607e+01
   8.499277e+01   1.360806e+01
   7.099267e+01   9.470877e+01
   2.195104e+01   1.004173e+02
  -8.572354e+01   1.488511e+01
  -1.068409e+02  -6.661417e+01
  -2.618684e+01  -1.334328e+02
   7.934657e+01  -4.353154e+01
   1.362267e+02   2.587160e+01
   6.881567e+01   6.795083e+01
  -1.147976e+01   6.208116e+01
  -3.572406e+01   2.615562e+01
   7.160756e+00  -2.010907e+01
   6.645669e+01  -1.037317e+01
   3.841416e+01   2.558689e+01
  -3.471899e+01   5.836094e+01
  -1.018180e+02   8.611167e+01
  -8.316937e+01  -4.363619e+00
  -7.050187e+00  -7.565734e+01
   4.637123e+01  -8.516642e+01
   1.087968e+01  -1.786962e+01
   1.197597e+00   3.879213e+01
  -3.109701e+01   6.900578e+01
  -5.155797e+01  -3.364957e+00
  -5.845158e+01  -7.905265e+01
   2.608193e+01  -2.537748e+01
   1.942184e+01   2.052492e+00
   1.388475e+01   2.561567e+01
   1.997663e+01  -1.346327e+01
  -1.455256e+01  -1.864187e+01
  -6.987756e+00  -4.993633e+00
   1.074649e+01   3.831642e+01
  -3.219104e+01   5.996216e+01
  -2.003849e+01   2.336254e+00
  -4.415303e+01  -3.444085e+01
   2.243484e+01  -3.888704e+01
   3.536795e+01  -2.772495e+01
   6.887526e+01   4.201987e+01
   5.840562e+00   6.135105e+01
  -3.857134e+01   3.005234e+01
  -6.685293e+01  -1.103682e+01
  -4.002364e+01  -4.220982e+01
   2.821712e+01  -2.608936e+01
   4.978752e+01  -5.447671e+00
   2.136350e+01  -1.844565e+01
  -3.307536e+01  -2.888202e+01
  -3.366440e+01  -1.163756e+01
   2.086843e+01  -4.075588e+01
   7.753278e+01  -1.519861e+01
