
 $NMID
 id='ANONYMOUS ', fmtdat='(2E16.6)'
 volume=1.0
 tramp=1.0
 $END
  -3.055541e+03  -3.970895e+02
  -1.468767e+03  -1.855918e+03
   3.733135e+02  -1.647584e+03
   1.218784e+03  -6.546129e+02
   6.370734e+02   1.405971e+02
  -1.666989e+02   1.764640e+02
  -3.496114e+02  -3.419827e+02
   1.301964e+01  -5.679983e+02
   4.783598e+02  -5.186328e+02
   6.158588e+02  -5.989444e+01
   3.192529e+02   4.426350e+02
  -1.183965e+02   5.469838e+02
  -2.935169e+02   1.007238e+02
  -1.579939e+02  -3.947456e+02
   1.134772e+02  -3.803976e+02
   3.176759e+02  -1.956301e+01
   1.880916e+02   4.255920e+02
  -1.954320e+02   4.667056e+02
  -3.705595e+02   1.779323e+02
  -2.914262e+02  -2.014140e+02
  -8.234294e+01  -2.975475e+02
   9.954653e+01  -1.923735e+02
   8.087600e+01  -6.013478e+01
  -9.745301e+01  -3.830623e+01
  -2.124842e+02  -2.004854e+02
  -2.035484e+01  -2.657242e+02
   3.090839e+02  -1.864077e+02
   5.249015e+02   1.886098e+02
   2.491919e+02   2.495629e+02
  -2.458707e+02   1.225120e+02
  -4.469213e+02  -4.756350e+01
  -1.303512e+02  -3.023478e+02
   1.704495e+02  -2.551483e+02
   3.247543e+02  -1.504272e+02
   2.312758e+02   1.427766e+02
   8.734411e+01   2.216900e+02
  -7.961790e+01   1.449224e+02
  -2.262364e+01  -9.292237e+01
   9.815744e+01  -1.942816e+02
   2.314857e+02   5.516608e+01
   5.710365e+01   3.847367e+02
  -1.568917e+02   4.326029e+02
  -2.761184e+02   1.433488e+00
  -1.360155e+02  -2.946777e+02
   1.561339e+02  -1.533633e+02
   1.619427e+02   1.737143e+02
  -8.901908e+01   3.154997e+02
  -3.167176e+02  -1.786618e+01
  -3.096097e+02  -2.905462e+02
  -9.674993e+01  -3.710222e+02
   2.238861e+02  -1.746812e+02
   3.710658e+02   5.562603e+01
   2.010618e+02   2.041998e+02
  -7.746179e+01   1.697100e+02
  -2.425278e+02   6.475704e+01
  -1.706484e+02  -4.402952e+01
   2.204051e+00  -3.533133e+01
   2.171717e+01   7.670987e+01
  -7.913498e+01   1.130327e+02
  -1.917803e+02  -8.022356e+01
  -7.201927e+01  -1.775829e+02
   1.361479e+02  -2.076953e+02
   2.535145e+02  -9.240634e+01
   1.254734e+02   1.041718e+02
  -6.616127e+01   1.911537e+02
  -2.031407e+02   2.271185e+02
  -2.085929e+02   1.173466e+02
  -2.086462e+02  -9.858703e+01
  -2.135741e+01  -2.928606e+02
   2.664667e+01  -2.419172e+02
   7.345789e+01  -9.342427e+01
   8.770419e+00  -1.196933e+01
   1.191886e+02  -5.693202e+01
   1.850034e+02  -5.511454e+01
   1.643082e+02   1.044251e+02
   1.062384e+02   1.744977e+02
  -7.474410e+01   1.446039e+02
  -1.334087e+02  -2.900615e+01
  -8.299560e+01  -1.587738e+02
  -1.243426e+00  -1.787606e+02
   1.739181e+02  -7.211707e+01
   2.109208e+02   1.410934e+02
   1.292517e+02   1.987822e+02
   5.127590e+00   2.294124e+02
  -1.173309e+02   1.178382e+02
  -1.162385e+02   6.667539e+01
  -1.249484e+02   5.177733e+01
  -2.134734e+02   3.395415e+01
  -2.730836e+02  -7.187255e+01
  -1.760975e+02  -1.865055e+02
   2.056553e+01  -2.785087e+02
   2.714247e+02  -3.335536e+02
   3.532760e+02  -1.322193e+02
   2.117028e+02   5.103044e+01
   5.433540e+01   1.774264e+02
  -7.784473e+01   1.590041e+02
  -1.970841e+01   4.253917e+01
   4.403889e+01  -3.518805e+01
   7.788804e+01   1.960504e+01
  -4.871657e+00   1.088954e+02
  -1.042475e+02   5.274258e+01
  -5.840045e+01  -5.764217e+01
   2.659534e+01  -1.096033e+02
   1.164160e+02   1.115185e+00
   1.197450e+02   1.884344e+02
  -5.413747e+01   2.388967e+02
  -1.653936e+02   1.400253e+02
  -2.379015e+02  -3.859788e+01
  -1.769833e+02  -1.860914e+02
  -4.394673e+01  -1.960042e+02
   9.324723e+01  -8.555101e+01
   1.266940e+02   3.874663e+01
   3.418705e+01   2.093652e+01
  -4.665477e+01  -3.902727e+01
  -2.252461e+01  -9.529362e+01
   7.439002e+01  -4.557624e+01
   1.154404e+02   7.561049e+00
   4.236592e+01   4.704319e+01
  -7.429079e+01  -1.576413e+01
  -4.107519e+01  -6.780940e+01
   9.746023e+01  -6.470695e+01
   2.167787e+02   2.579888e+01
   1.946066e+02   1.308930e+02
   1.175345e+01   1.648882e+02
  -1.680164e+02   1.541766e+02
  -1.972684e+02   4.403204e+01
  -1.026097e+02  -5.412309e+01
   3.883686e+01  -1.055651e+02
   7.093751e+01   2.313146e+01
  -3.617024e+01   6.467997e+01
  -1.451810e+02   3.917388e+01
  -1.415172e+02  -5.937314e+01
  -5.119449e+01  -1.176418e+02
   7.888087e+01  -9.996163e+01
   1.002904e+02   8.128075e+00
   5.105440e+01   2.829998e+01
  -1.465419e+01  -1.069121e+01
  -4.938860e+01  -7.353559e+01
   3.492285e+01  -8.638852e+01
   1.341670e+02  -3.529547e+01
   1.247244e+02   9.422790e+01
  -1.495156e+00   1.390802e+02
  -1.287027e+02   1.108677e+02
  -1.438054e+02   3.198471e+01
  -4.686912e+01  -5.568842e+01
   7.765524e+01  -4.979954e+01
   7.599531e+01  -1.614276e+01
  -8.837527e+00   2.638795e+01
  -3.305926e+01   1.196964e+01
   2.095064e+01  -2.317790e+00
   5.296003e+01   4.925919e+00
   4.922097e+01   5.722138e+01
  -2.031652e+01   1.171806e+02
  -9.697539e+01   1.021992e+02
  -1.587183e+02   3.742410e+00
  -1.552468e+02  -1.053426e+02
  -4.162614e+01  -1.292072e+02
   6.163284e+01  -1.055614e+02
   7.060060e+01   1.587953e+00
   5.544978e+01   1.538012e+01
   1.383560e+01   1.248397e+01
   8.171105e+00  -3.943366e+01
   5.737405e+01   4.111249e+01
   4.112034e+01   4.318850e+01
  -5.241130e+00   4.132305e+01
  -7.727431e+01   1.588329e+01
  -9.545412e+01  -4.762598e+01
   1.577976e+01  -7.524769e+01
   1.095604e+02  -5.245648e+01
   1.179615e+02   7.258109e+01
   6.916210e+01   1.457533e+02
  -7.975068e+01   1.361702e+02
  -2.034112e+02   3.724149e+01
  -1.279634e+02  -6.810558e+01
  -5.916303e+01  -1.052485e+02
   5.922127e+01  -1.141139e+02
   4.728753e+01  -4.638599e+01
   8.070292e+01  -4.392270e+01
   7.845379e+01  -9.731476e+01
   6.324669e+01  -3.634110e+01
   9.924502e+01   2.910970e+01
   6.844572e+01   1.238761e+02
  -2.922701e+01   1.519630e+02
  -7.577034e+01   1.250750e+02
  -1.207699e+02  -2.139764e+01
  -9.308135e+01  -1.210844e+02
   1.830247e-01  -1.202527e+02
   4.973394e+01  -7.291773e+01
   3.070107e+01  -6.359629e+00
  -5.060755e+01   3.162032e+01
  -2.194058e+01   8.540084e+00
  -1.193119e+01  -1.250384e+01
   6.628387e+01  -1.837131e+00
   4.347747e+01   2.730217e+01
  -5.425731e+01   2.010062e+01
  -9.944954e+01   6.466837e-01
  -9.716039e+01  -4.785244e+01
   1.567569e+01  -5.052278e+01
   1.302179e+02  -2.648724e+01
   9.667708e+01  -1.122010e+00
   5.967403e+01   4.596637e+01
  -6.586084e+01   2.388448e+01
  -4.781700e+01   1.232685e-01
  -2.941910e+01  -4.495059e+01
   2.893153e+01  -6.090064e+01
   6.890037e+01   1.224460e+01
   5.235009e+01   2.616437e+01
   3.053291e+01   6.036416e+01
   4.046452e+01   1.790749e+01
   2.398850e+01   1.227070e+01
   6.225380e+01   2.993876e+01
  -1.445517e+01   1.157224e+02
  -1.011706e+02   1.061461e+02
  -1.050206e+02   1.944998e+01
  -8.491809e+01  -7.811767e+01
   2.532844e+01  -9.988210e+01
   7.979378e+01  -5.569301e+01
   3.752736e+01   1.727745e+00
  -3.884070e+01   1.161783e+01
  -8.179644e+01  -1.140730e+01
  -5.256930e+01  -6.626023e+01
   5.789546e+01  -9.114010e+01
   1.231099e+02  -3.289015e+01
   1.142360e+02   1.927374e+01
   3.104587e+01   7.334014e+01
  -5.579749e+01   4.586979e+01
  -4.492579e+01   1.999957e+00
   2.936113e+01  -2.749864e+01
   8.506708e+01   2.372092e+01
   1.270057e+01   1.233014e+02
  -8.218869e+01   1.185374e+02
  -1.369680e+02   3.896392e+01
  -4.814524e+01  -5.986527e+01
  -3.047222e+01  -1.285108e+02
   3.637799e+01  -6.750352e+01
   4.641329e+01   1.838825e+01
   3.768224e+01   6.672769e+01
  -1.384555e+01   5.656660e+01
  -8.131178e+00   1.466565e+01
  -6.187732e-01  -9.594935e+00
  -1.600047e+01   1.818218e+01
  -5.088205e+00   3.314623e+01
  -7.990451e+00  -7.600960e+00
  -7.958511e+01  -6.810672e+01
  -2.687984e+01  -7.965492e+01
   6.366088e+01   4.204091e+00
   9.404876e+01   3.902861e+01
   6.844008e+01   2.396145e+01
   9.183324e+00  -3.717460e+00
  -5.899273e+01  -2.543377e+01
  -6.234334e+01   1.812812e+01
  -6.239572e+00  -1.171039e+01
   3.301232e+01  -2.015978e+01
  -1.042357e+01  -3.779219e+01
   4.605680e+01  -1.667445e+00
  -1.737488e+01  -7.937313e+00
   4.473209e+01  -2.108022e+01
   6.950238e+01   2.180145e+01
  -1.899099e+00   3.966589e+01
  -7.025968e+01   8.474819e+01
  -1.643425e+02   2.324392e+01
  -8.948110e+01  -2.042546e+01
  -1.761685e+01  -1.053237e+02
   5.263540e+01  -1.157137e+02
   7.710533e+01  -6.513356e+00
   6.252017e+01   1.203065e+01
   1.209077e+01   4.513056e+01
   1.910374e+00   1.233543e+01
   2.120878e+01   1.546878e+00
   9.235489e+00   3.177022e-01
   7.453909e+00   6.580345e+01
  -3.362775e+01   7.140934e+01
  -8.178525e+01   9.018616e+00
  -1.000173e+02  -2.610610e+01
   7.134104e+00  -6.815182e+01
   5.676980e+01  -6.117049e+00
   3.730091e+01   8.307430e+01
   3.413484e+00   7.052995e+01
  -4.974009e+01   2.049554e+01
  -6.628101e+01  -6.013337e+00
  -2.366452e+01  -3.055373e+01
   5.635261e+00  -4.790902e+01
   3.382812e+01  -4.556902e+00
  -1.183654e+00  -7.523392e+00
  -7.019706e+01   1.368763e+01
   4.874789e+00  -4.212071e+01
   4.969089e+01  -1.912832e+01
   7.297077e+01  -3.663938e+01
   5.134255e+01   1.703698e+01
  -6.124752e+00   5.687582e+01
  -4.087266e+01   5.351907e+01
  -7.214789e-01   1.449216e+01
  -3.931462e+00  -5.128605e+01
   2.491096e+01  -2.881457e+01
   2.755386e+01   1.117270e+01
   1.830896e+01   2.917256e+01
  -5.928138e+00   3.952187e+01
  -1.067264e+01  -9.474371e+00
  -3.996130e+01  -9.480401e+00
  -8.916176e+00   5.806020e+00
   1.184093e+01   2.993760e+01
   2.130778e+00  -1.334489e+01
  -1.665716e+01  -3.410875e+01
   9.820353e+00  -4.375086e+01
   6.114404e+00   2.015296e+01
   6.679059e-01   2.399585e+01
  -3.148978e+01   4.005752e+01
  -4.244307e+01  -5.140497e+00
  -1.503438e+01  -3.414720e+01
   1.735681e+01  -4.338183e+01
   5.428496e+01  -1.407123e+01
   5.659628e+01   2.028791e+01
   2.650738e+01   4.322531e+01
  -2.744100e+01   4.298316e+01
  -3.823656e+01   6.500526e+00
  -3.554294e+01   1.633472e+01
   1.957620e+01   6.065179e+00
   3.500115e+01  -5.138656e-01
  -2.425884e+01   3.473382e+01
  -7.129182e+01  -5.008571e-01
