
 $NMID
 id='ANONYMOUS ', fmtdat='(2E16.6)'
 volume=1.0
 tramp=1.0
 $END
  -3.217784e+03   3.238477e+02
  -2.339230e+03  -2.037097e+03
   3.425677e+02  -2.170773e+03
   1.505490e+03  -1.073949e+03
   9.162798e+02   8.080454e+01
  -2.212429e+02   4.853064e+02
  -5.277499e+02  -2.945663e+02
  -3.865545e+01  -7.703184e+02
   5.278138e+02  -6.400836e+02
   7.151910e+02  -1.837537e+01
   4.313274e+02   6.148511e+02
  -5.566580e+01   7.201720e+02
  -3.814783e+02   1.735408e+02
  -2.997886e+02  -5.062500e+02
   1.488864e+02  -6.034002e+02
   4.793277e+02  -6.428582e+01
   3.128040e+02   5.398232e+02
  -1.826566e+02   6.290726e+02
  -4.988309e+02   2.084738e+02
  -4.106089e+02  -1.754462e+02
  -1.008020e+02  -3.780601e+02
   1.691925e+02  -2.617111e+02
   1.264562e+02  -5.007589e+01
  -1.092507e+02  -3.176128e+01
  -2.957643e+02  -1.763898e+02
  -9.517216e+01  -3.700405e+02
   3.892679e+02  -2.678620e+02
   6.883133e+02   9.783894e+01
   3.482311e+02   4.077368e+02
  -2.988004e+02   3.381949e+02
  -5.643550e+02  -9.365382e+01
  -2.226867e+02  -3.554635e+02
   2.494300e+02  -4.447224e+02
   4.377376e+02  -1.894223e+02
   3.673248e+02   1.960414e+02
   1.075831e+02   3.836694e+02
  -9.705918e+01   2.376280e+02
  -7.030615e+01  -1.835528e+02
   1.188069e+02  -2.658585e+02
   3.296781e+02   8.774043e+01
   1.415787e+02   5.030144e+02
  -2.606487e+02   5.934865e+02
  -3.857665e+02  -1.330448e+01
  -2.004565e+02  -4.082914e+02
   1.958335e+02  -2.383016e+02
   2.827551e+02   2.566470e+02
  -1.728440e+01   4.428162e+02
  -4.431537e+02   1.152622e+02
  -5.542291e+02  -3.459323e+02
  -1.986483e+02  -5.263064e+02
   3.162291e+02  -3.372246e+02
   5.452309e+02   1.180187e+01
   3.414296e+02   2.896307e+02
  -9.409018e+01   2.710387e+02
  -3.524368e+02   1.602222e+01
  -2.243627e+02  -1.033724e+02
   5.959794e+01  -5.395646e+01
   1.235134e+02   6.359675e+01
  -7.197558e+01   1.372724e+02
  -2.541524e+02   1.119030e+01
  -1.588633e+02  -1.774857e+02
   1.259733e+02  -2.466219e+02
   3.073977e+02  -1.624004e+02
   2.256109e+02   7.263454e+01
   4.370292e+01   3.008035e+02
  -2.388899e+02   3.345712e+02
  -3.663061e+02   1.675959e+02
  -2.507942e+02  -1.616983e+02
  -3.953877e+00  -3.609768e+02
   1.191621e+02  -2.684648e+02
   5.328316e+01  -1.026980e+02
   3.276944e+01  -6.570475e+01
   6.796346e+01  -1.030651e+02
   1.813116e+02  -9.269341e+01
   2.213561e+02   5.794455e+01
   1.445113e+02   1.733300e+02
  -6.402588e+01   2.116498e+02
  -1.649352e+02  -2.338766e+01
  -1.712175e+02  -2.359651e+02
   3.830561e+01  -2.377426e+02
   2.786438e+02  -1.261309e+02
   3.327033e+02   1.689636e+02
   1.499213e+02   3.190460e+02
  -5.910367e+01   2.528617e+02
  -2.244212e+02   1.228215e+02
  -1.606395e+02   2.097437e+01
  -1.438992e+02   3.326045e+01
  -2.305532e+02   4.204273e+01
  -4.148764e+02  -4.296106e+01
  -3.436458e+02  -2.765300e+02
   4.273895e+00  -4.533593e+02
   3.515808e+02  -3.780544e+02
   4.466896e+02  -1.664120e+02
   3.032899e+02   1.346578e+02
   4.849352e+01   2.520190e+02
  -1.288424e+02   2.275927e+02
  -4.598971e+01   6.082559e+00
   9.960853e+01  -8.735393e+01
   1.660376e+02   2.017548e+01
   4.536001e+01   1.358903e+02
  -8.502768e+01   1.054635e+02
  -1.363116e+02  -3.743330e+01
   2.674834e+00  -1.156025e+02
   1.708673e+02  -1.986069e+01
   1.491150e+02   2.074045e+02
  -2.231372e+01   3.397105e+02
  -2.334280e+02   2.097055e+02
  -3.318895e+02  -3.467243e+01
  -2.822132e+02  -2.344474e+02
  -8.788142e+01  -2.463806e+02
   1.053419e+02  -1.173324e+02
   1.562065e+02  -4.413844e+01
   3.348331e+01   6.096395e+00
  -7.617486e+01  -5.126860e+01
  -2.816978e+00  -1.243503e+02
   1.004656e+02  -1.022920e+02
   1.650354e+02   1.002905e+00
   3.078163e+01   4.636765e+01
  -6.851098e+01   5.857985e+00
  -3.059025e+01  -8.544670e+01
   1.264937e+02  -1.068735e+02
   2.703126e+02   4.607547e-01
   2.451658e+02   1.576707e+02
   5.465156e+01   2.687583e+02
  -2.065162e+02   2.539337e+02
  -2.738274e+02   1.005797e+02
  -1.636507e+02  -2.753932e+01
   2.673606e+01  -7.668984e+01
   8.626051e+01  -2.254249e+00
  -4.616672e+01   8.435907e+01
  -1.996992e+02   4.716785e+01
  -1.867447e+02  -9.800772e+01
  -6.321393e+01  -2.141975e+02
   9.488511e+01  -1.361777e+02
   1.297542e+02   6.789628e+00
   2.698407e+01   7.474678e+01
  -4.264752e+01  -2.168397e+01
  -4.182035e+01  -8.076773e+01
   8.437424e+01  -1.100219e+02
   1.779956e+02  -2.936329e+01
   1.978493e+02   1.394321e+02
  -3.054939e-01   1.994574e+02
  -1.467512e+02   2.074241e+02
  -1.638920e+02   1.392557e+01
  -5.326706e+01  -1.060378e+02
   6.271809e+01  -7.547579e+01
   9.585524e+01  -1.721715e+01
  -2.399668e+01   2.981593e+01
  -6.003316e+01  -6.626786e+00
  -4.882299e+00  -8.559276e+00
   7.059117e+01  -1.244130e+00
   1.277779e+02   9.590715e+01
  -7.679109e+00   1.430385e+02
  -1.305982e+02   1.582126e+02
  -2.456203e+02   3.348541e+00
  -2.024987e+02  -1.204650e+02
  -5.467283e+01  -2.194400e+02
   8.223098e+01  -1.716820e+02
   1.237998e+02  -2.989456e+01
   8.118095e+01   5.028586e+01
   6.698097e+00   5.155701e+01
   5.867526e+01  -6.162053e+00
   7.836055e+01  -3.181975e+00
   3.744645e+01   5.209855e+01
  -1.520759e+01   6.572967e+01
  -9.733070e+01   5.578927e+01
  -1.084723e+02  -3.378578e+01
   1.354256e+00  -1.244575e+02
   1.355536e+02  -8.675432e+01
   1.743793e+02   3.765438e+01
   6.840684e+01   1.756232e+02
  -1.121854e+02   2.046129e+02
  -2.427016e+02   7.989131e+01
  -2.079162e+02  -1.026291e+02
  -9.249475e+01  -1.844684e+02
   6.252009e+01  -1.097936e+02
   1.092172e+02  -5.618737e+01
   7.638016e+01  -4.769259e+01
   4.288769e+01  -6.596144e+01
   5.545803e+01  -6.521136e+01
   1.065476e+02  -1.753049e+00
   9.500299e+01   1.311514e+02
   2.772759e+01   2.125858e+02
  -1.110968e+02   1.716316e+02
  -1.730409e+02   2.409760e+01
  -1.194041e+02  -9.580347e+01
  -2.911357e+01  -1.793753e+02
   6.109874e+01  -9.536833e+01
   8.289417e+01  -8.076333e+00
   1.998980e+01   4.071675e+01
  -1.262499e+01   3.345275e+01
   3.153275e+01   1.741601e+01
   8.151206e+01   4.479793e+01
   5.300534e+01   5.208642e+01
  -5.246586e+01   4.811682e+01
  -1.784878e+02  -1.376111e+01
  -1.443254e+02  -6.613820e+01
  -9.520335e+00  -6.923816e+01
   1.242130e+02  -6.624451e+01
   1.444250e+02  -5.189207e+00
   5.671143e+01   4.502889e+01
  -6.551565e+01   2.710684e+01
  -7.547415e+01   8.468306e+00
  -2.873467e+01  -1.112931e+02
   6.385692e+01  -8.597354e+01
   7.451013e+01   3.013389e+01
   2.467657e+01   5.984483e+01
   3.323533e+01   1.662451e+01
   5.934960e+01  -2.631363e+01
   6.013876e+01   1.009517e+01
   6.657004e+01   4.680608e+01
  -8.082198e+00   1.375779e+02
  -1.278391e+02   1.367545e+02
  -1.598135e+02   7.239343e+01
  -1.483490e+02  -8.594021e+01
  -2.132594e+01  -1.460463e+02
   1.018540e+02  -4.747755e+01
   4.865163e+01   2.631311e+01
  -4.384957e+01   2.562921e+01
  -1.038455e+02  -1.210300e+01
  -6.262874e+01  -9.475877e+01
   5.945665e+01  -1.134060e+02
   1.741629e+02  -5.278128e+01
   1.536083e+02   5.214441e+01
   7.390579e+00   9.322133e+01
  -6.421741e+01   7.512725e+01
  -8.165184e+01   8.770921e+00
   7.784863e+01  -2.328325e+01
   6.779155e+01   1.025152e+01
   6.309613e+01   1.275781e+02
  -5.994402e+01   1.458547e+02
  -1.363627e+02   9.283296e+01
  -1.536439e+02  -5.892493e+01
  -5.148754e+01  -1.794843e+02
   7.839472e+01  -1.480678e+02
   1.084404e+02   2.244425e+01
   5.416280e+01   1.369277e+02
  -7.904267e+00   1.137108e+02
  -4.797944e+01   7.526674e+00
  -3.713771e+01  -3.497615e+01
  -2.530647e+01   1.608192e+01
  -4.100648e+00   1.279014e+00
   1.248262e+01  -8.802080e+00
  -4.233147e+01  -8.337066e+01
  -2.083264e+01  -8.600245e+01
   5.394009e+01  -4.950984e+01
   1.192683e+02   4.197105e+01
   1.094240e+02   5.145457e+01
   1.374331e+01   4.536553e+01
  -9.379357e+01   2.083349e+01
  -9.025180e+01   1.887098e+00
  -2.575172e+01  -1.842363e+01
   4.411375e+01  -2.522301e+00
   4.716307e-01  -1.709898e+01
   3.010684e+00   6.455694e+00
  -1.507618e+01   2.966621e+01
   6.339773e+01   7.593233e+00
   7.094622e+01   2.684527e+01
   4.199213e+01   6.806639e+01
  -7.191356e+01   6.767686e+01
  -1.675161e+02   5.517781e+01
  -1.554189e+02  -6.008333e+01
  -4.184458e+01  -1.338918e+02
   7.367726e+01  -1.370740e+02
   1.186091e+02  -5.564244e+01
   8.602149e+01   2.383652e+01
   2.987047e+01   1.974612e+01
  -1.262621e+00   2.338884e+01
   3.161605e+00  -2.325130e+00
   1.568340e+01   2.884695e+01
   1.247903e+01   7.686027e+01
   2.993430e+00   6.506060e+01
  -6.733935e+01   1.393708e+01
  -7.758635e+01  -7.875872e+01
  -2.517739e+01  -9.331373e+01
   5.349856e+01  -4.717173e+01
   1.322607e+02   5.913097e+01
   6.370893e+01   1.021000e+02
  -5.783181e+01   6.811541e+01
  -7.864878e+01  -2.169877e+01
  -6.492611e+00  -5.901862e+01
   1.735410e+01  -2.838854e+01
   2.516498e+01  -1.341715e+01
  -9.214728e+00   4.160291e+00
  -6.681700e+01   2.300329e+01
  -2.056802e+01  -4.841825e+01
   6.540484e+01  -7.244327e+01
   1.190186e+02  -3.488836e+01
   5.738593e+01   1.207895e+01
   1.458919e+01   8.326109e+01
  -5.416972e+01   8.042615e+01
  -4.289669e+01   8.020153e+00
  -1.224413e+01  -9.043795e+01
   4.823867e+01  -4.177569e+01
   2.188014e+01   7.363122e+00
   1.874561e+01   3.559330e+01
   4.237340e+00   3.305329e+01
  -3.731974e+01  -8.495882e-01
  -5.466018e+01  -1.909559e+01
  -1.529908e+01  -3.045120e+01
  -2.505238e+00   4.078019e+01
   2.163209e+01   1.752180e+00
   4.315189e-01  -4.151597e+01
  -1.320649e+01  -2.374432e+01
   3.596105e+01  -9.571647e+00
   5.307511e+01   4.363856e+01
   8.742878e+00   8.712870e+01
  -5.092317e+01   1.742931e+01
  -7.649384e+01  -1.150198e+01
  -1.905658e+00  -7.391220e+01
   5.729943e+01  -3.306230e+01
   9.419890e+01  -4.282760e+00
   6.021036e+01   6.795004e+01
  -2.419973e+01   3.635294e+01
  -7.974861e+01   1.714097e+01
  -5.670181e+01   3.334966e+00
   1.207376e+01   4.479642e+00
   1.537863e+01   1.922158e+00
  -2.134354e+01   1.416934e+01
  -3.967983e+01   4.503745e+01
