
 $NMID
 id='ANONYMOUS ', fmtdat='(2E16.6)'
 volume=1.0
 tramp=1.0
 $END
  -2.803128e+03   6.915130e+01
  -1.660361e+03  -1.734345e+03
   3.159801e+02  -1.775714e+03
   1.267560e+03  -7.879968e+02
   5.756440e+02   2.948518e+02
  -2.654704e+02   3.772005e+02
  -4.772777e+02  -1.483290e+02
  -6.855605e+00  -6.745727e+02
   4.476046e+02  -4.792705e+02
   5.139770e+02  -1.721472e+01
   2.316289e+02   3.865955e+02
  -1.234746e+02   4.996095e+02
  -2.862310e+02   7.606446e+01
  -1.649370e+02  -4.252726e+02
   1.088499e+02  -3.708924e+02
   3.105880e+02   4.192683e+00
   1.949990e+02   4.129984e+02
  -1.855570e+02   4.472458e+02
  -3.607075e+02   8.874895e+01
  -2.795464e+02  -2.593672e+02
  -2.927270e+01  -2.970728e+02
   1.342322e+02  -1.296529e+02
   8.112229e+01  -1.966583e+01
  -1.218330e+02   1.035222e+01
  -2.026971e+02  -1.625899e+02
  -5.917572e+01  -2.589961e+02
   3.387591e+02  -2.486844e+02
   5.291679e+02   7.551022e+01
   1.782099e+02   3.151709e+02
  -2.809808e+02   2.014752e+02
  -4.285011e+02  -1.268997e+02
  -1.620950e+02  -2.566934e+02
   1.527814e+02  -2.811299e+02
   3.416524e+02  -8.233247e+01
   2.145412e+02   9.028507e+01
   5.084012e+01   2.351458e+02
  -2.964395e+01   1.733820e+02
   1.560206e+00  -8.855649e+01
   6.398903e+01  -1.721465e+02
   1.580381e+02   5.080355e+01
   6.639427e+01   3.178730e+02
  -1.482428e+02   2.722129e+02
  -2.524851e+02   1.316432e+01
  -9.163648e+01  -2.760589e+02
   1.513512e+02  -2.037514e+02
   1.713389e+02   1.657434e+02
  -5.664676e+01   2.380324e+02
  -2.904155e+02   8.110096e+01
  -2.739280e+02  -2.450759e+02
  -1.287816e+02  -3.414846e+02
   1.766120e+02  -1.870568e+02
   3.495596e+02   3.219116e+01
   2.033997e+02   1.948479e+02
  -8.339164e-01   1.837033e+02
  -2.200238e+02   4.144816e+01
  -1.536844e+02  -8.231572e+01
   4.070781e+01  -6.236446e+01
   5.292747e+01   3.483768e+01
  -6.767642e+01   7.155691e+01
  -1.931195e+02  -7.762776e+01
  -5.356875e+01  -1.683919e+02
   1.336959e+02  -1.494740e+02
   2.160998e+02  -4.331406e+01
   1.099142e+02   5.318649e+01
  -6.361748e+01   1.667536e+02
  -1.552063e+02   2.035364e+02
  -1.588277e+02   1.122351e+02
  -1.595638e+02  -6.334663e+01
  -3.039902e+01  -2.702763e+02
   1.111426e+02  -2.387416e+02
   9.200736e+01  -8.981772e+01
   1.869897e+01  -4.447770e+01
   4.667422e+01  -5.284883e+01
   1.011087e+02  -5.356462e+01
   1.725770e+02   6.888196e+01
   2.773674e+01   1.564521e+02
  -3.947273e+01   1.124377e+02
  -1.093480e+02  -2.449998e+01
  -9.266665e+01  -1.192460e+02
  -1.552951e+00  -1.781024e+02
   1.500354e+02  -2.398692e+01
   1.911595e+02   9.575896e+01
   1.263793e+02   2.120150e+02
  -6.177657e+01   1.606400e+02
  -1.469959e+02   9.477241e+01
  -1.131854e+02   1.225166e+01
  -7.443067e+01   1.628155e+01
  -1.326665e+02   8.420913e+00
  -1.828261e+02  -6.238903e+01
  -1.705544e+02  -1.807655e+02
   2.294101e+01  -2.535265e+02
   2.521899e+02  -2.271050e+02
   2.892116e+02  -7.423753e+01
   1.758230e+02   2.115928e+01
   2.587292e+01   1.777886e+02
  -4.823761e+01   1.239544e+02
  -5.214480e+00   3.432590e+01
   8.349813e+01  -4.735666e+01
   1.342943e+02   4.334736e+00
   4.286057e+01   1.144040e+02
  -1.219323e+02   9.179740e+01
  -1.010315e+02  -5.102952e+01
   4.332934e+01  -7.933597e+01
   1.024242e+02  -2.079740e+01
   5.702416e+01   1.315128e+02
  -2.537824e+01   2.332907e+02
  -1.586485e+02   1.274055e+02
  -1.959693e+02  -6.436784e+01
  -1.707016e+02  -1.061582e+02
  -4.847583e+01  -1.363978e+02
   5.994653e+01  -8.777706e+01
   9.975591e+01  -2.723160e+01
   5.447563e+01   8.370137e+00
  -3.776013e+01  -4.097986e+01
   1.801150e+01  -6.588479e+01
   6.629979e+01  -7.073153e+01
   1.130850e+02  -8.711381e+00
   2.601586e+01   4.554053e+01
  -2.374646e+01  -5.068464e+00
   2.071333e+01  -4.812498e+01
   7.581334e+01  -4.503465e+01
   1.700238e+02   1.537712e+01
   1.536286e+02   8.180267e+01
   2.795864e+01   1.507804e+02
  -1.332545e+02   1.727660e+02
  -1.699980e+02   6.526274e+01
  -8.529320e+01  -4.001808e+01
  -1.582449e+01  -3.807092e+01
   3.088449e+01   6.620122e+00
  -3.596788e+01   7.184054e+01
  -1.458879e+02   3.641467e+00
  -1.337440e+02  -8.301504e+01
  -3.087545e+01  -1.159964e+02
   4.563648e+01  -1.019361e+02
   7.552213e+01  -4.889880e+01
   4.849987e+01   2.194810e+01
  -3.560852e+01  -2.702042e+00
  -6.492201e+00  -7.227311e+01
   6.388180e+01  -6.852066e+01
   1.126317e+02   3.136429e+01
   1.056664e+02   6.094506e+01
   6.032251e+00   1.274469e+02
  -1.224787e+02   9.034950e+01
  -1.363415e+02  -2.254688e+00
  -3.238160e+01  -7.161425e+01
   4.679227e+01  -5.689464e+01
   4.649046e+01  -5.355785e+01
  -5.624461e+00   2.758145e+00
   1.740015e+01  -1.141561e+01
   2.070000e+01  -1.166018e+01
   5.095119e+01   4.475029e+01
   7.605972e+01   6.660117e+01
  -2.155912e+01   8.735502e+01
  -9.692681e+01   7.383522e+01
  -1.370605e+02   3.283922e+00
  -1.165566e+02  -8.695469e+01
  -3.573606e+00  -1.496463e+02
   3.573071e+01  -9.280786e+01
   9.619838e+01  -2.709864e+01
   4.553880e+01   9.220706e+00
   5.182228e+00   2.485823e+01
   3.044107e+01   1.373976e+01
   2.545777e+01  -1.725737e+01
   8.993282e+00   1.170502e+01
  -5.103739e+01   5.714489e+01
  -8.522683e+01   2.691032e-02
  -4.016154e+01  -3.635339e+01
   1.748564e+01  -6.586474e+01
   1.346106e+02  -5.531523e+01
   1.122070e+02   1.838940e+01
   5.050909e+01   1.564550e+02
  -5.472311e+01   1.407976e+02
  -1.366561e+02   5.536712e+01
  -1.657894e+02  -4.281595e+01
  -4.531514e+01  -9.893057e+01
   8.416837e+00  -7.726222e+01
   3.183181e+01  -5.275919e+01
   7.588185e+01  -8.122981e+01
   5.538474e+01  -9.092610e+01
   6.333011e+01  -3.404437e+01
   8.121297e+01   8.519419e+00
   5.327041e+01   1.262268e+02
  -2.709727e-02   1.566027e+02
  -5.668653e+01   7.724853e+01
  -1.100657e+02  -2.055694e+01
  -7.052933e+01  -9.176728e+01
  -1.008445e+01  -1.013255e+02
   3.197079e+01  -3.400966e+01
   2.825846e+00   3.327430e+01
   1.560100e+01   1.005406e+01
  -2.031850e+01   5.415797e+00
   3.161811e+01  -8.404872e+00
   4.237152e+01   1.599654e+01
   3.194558e+01   2.828675e+01
  -4.889105e+01   4.505686e+00
  -9.473931e+01  -4.341547e+00
  -8.177873e+01  -3.730829e+01
  -6.909934e+00  -6.711993e+01
   8.054206e+01  -3.135063e+01
   7.807554e+01   2.161552e+01
  -1.341501e+01   2.879087e+01
  -7.005535e+01   5.438800e+00
  -4.011512e+01  -1.706036e+01
  -9.620208e-01  -7.678007e+01
   5.283356e+01  -3.966307e+01
   3.416408e+01   2.692163e+01
   2.372249e+01   3.273739e+01
   2.186732e+01   2.581766e+01
   3.073295e+01  -4.497348e+01
   6.685845e+01  -1.510307e+01
   3.614361e+01   4.905387e+01
  -1.676786e+01   1.061886e+02
  -8.037409e+01   1.127295e+02
  -1.438471e+02   2.972281e+01
  -7.876767e+01  -6.862721e+01
   3.838303e+00  -7.792392e+01
   8.452379e+01  -3.170869e+01
   2.465478e+01   2.767848e+01
  -2.644709e+01   6.868461e+00
  -9.326893e+01  -3.715334e+00
  -4.174888e+01  -4.094141e+01
   8.035495e+01  -5.940442e+01
   1.147405e+02  -1.194796e+01
   6.237522e+01   4.164847e+01
   3.056260e+01   3.579624e+01
  -3.474022e+01   5.919667e+01
  -6.196161e+01  -1.339518e+01
   2.806799e+01  -3.327428e+01
   3.972758e+01   1.931769e+01
   3.465648e+00   6.086420e+01
  -2.513832e+01   9.780950e+01
  -1.085648e+02   3.732390e+01
  -8.114097e+01  -7.539344e+01
   2.063086e+00  -1.087618e+02
   6.983139e+01  -8.967012e+01
   6.973900e+01   7.707233e+00
   5.258864e+01   5.260190e+01
  -1.376717e+01   7.781887e+01
  -1.349211e+01   2.020384e+00
  -2.218657e-01  -2.490372e+01
  -1.032739e+01  -4.490926e+00
   7.854809e-01   1.927659e+01
   2.086157e+01  -1.536907e+01
  -2.033332e+01  -5.871460e+01
  -4.537036e+01  -6.554429e+01
   1.825504e+01  -3.326606e+01
   8.053630e+01   1.492671e+01
   7.049853e+01   7.059788e+01
   9.777913e+00   3.290160e+01
  -5.776310e+01   3.946101e+01
  -6.351585e+01   1.343344e+01
  -2.059255e+01  -2.058938e+01
   4.415431e+01  -1.630395e+01
   2.094295e+01   4.074336e+00
  -2.462420e+01   8.601271e+00
   1.733507e+01  -1.343012e+01
   2.735550e+01   1.542483e+01
   5.736589e+01   1.716723e+01
  -2.257254e+00   7.827933e+01
  -7.648758e+01   8.738206e+01
  -9.751595e+01   3.618488e+01
  -9.562895e+01  -2.678376e+01
  -5.675912e+00  -9.606020e+01
   5.601412e+01  -8.165395e+01
   9.235083e+01  -3.284761e+01
   6.313262e+01   1.848470e+01
  -4.992228e+00   4.902344e+01
  -1.376882e+00  -2.883832e+01
   3.850424e+01  -1.215597e+01
   2.908621e+01   2.645017e+01
   1.195036e+01   5.092541e+01
  -1.227756e+01   3.607494e+01
  -6.813262e+01  -1.810030e+01
  -3.051065e+01  -7.273680e+01
  -1.350126e+00  -5.830940e+01
   5.026418e+01  -1.019640e+00
   6.812280e+01   5.920611e+01
   1.628921e+01   9.408268e+01
  -7.730893e+01   2.269244e+01
  -5.100411e+01  -1.853863e+01
  -2.306210e+01  -1.624592e+01
   1.735130e+01  -4.219054e+01
   5.577364e+01   1.178423e+01
  -5.103401e+00   1.408135e+01
  -2.619870e+01   9.265171e+00
   3.030554e+00   3.164499e+00
   4.465312e+01  -1.752124e+01
   6.685291e+01  -4.473031e+01
   3.364479e+01   6.211363e+00
  -8.880657e+00   5.567485e+01
   1.074295e+01   5.406593e+01
  -3.167530e+01   3.353854e+01
  -2.958857e+01  -1.800271e+01
   2.105266e+01  -2.542501e+01
   9.342966e-01   5.292300e+00
   1.186665e+01   3.689016e+01
  -1.070867e+01   1.809187e+01
  -1.517432e+01  -1.332109e+01
  -9.383519e+00  -3.198421e+01
   7.183932e+00  -1.381448e+01
   4.312697e+00   4.598912e+01
  -9.899066e+00  -2.015261e+01
   9.134853e+00  -4.199049e+01
   2.391425e+01  -4.609517e+01
   4.040197e+01  -2.549045e+01
   2.107475e+01   3.479263e+01
   2.988727e+00   7.074234e+01
  -1.166624e+01   3.803286e+01
  -8.077379e+00  -4.550365e+01
  -3.884461e+01  -4.691108e+01
   5.914089e+01  -6.694209e+00
   3.528963e+01  -1.406538e+01
   6.402291e+01   2.303255e+01
  -7.561162e+00   6.605283e+00
  -4.727754e+01   1.127163e+01
  -1.310537e+01  -5.804513e+00
   3.806624e+01  -1.335179e+01
   9.569761e+00  -6.683688e+00
  -3.682574e+00   1.236048e+01
  -4.473550e+01  -1.780752e+01
