
 $NMID
 id='ANONYMOUS ', fmtdat='(2E16.6)'
 volume=1.0
 tramp=1.0
 $END
   4.390687e+03   2.680474e+01
   2.959660e+03   2.434240e+03
  -6.583391e+02   2.712586e+03
  -2.203091e+03   9.696761e+02
  -1.090061e+03  -7.556673e+02
   8.321402e+02  -6.967286e+02
   9.388904e+02   4.571737e+02
   1.371206e+01   1.205984e+03
  -9.355440e+02   8.666302e+02
  -1.053241e+03  -1.680473e+02
  -5.272357e+02  -9.734701e+02
   2.832013e+02  -9.497777e+02
   7.591735e+02  -7.210432e+01
   4.030732e+02   7.912092e+02
  -2.560182e+02   7.853388e+02
  -6.693988e+02  -1.599781e+01
  -2.685027e+02  -7.734146e+02
   3.792700e+02  -6.777144e+02
   6.509471e+02  -1.224639e+02
   4.480630e+02   4.086930e+02
   5.323963e+01   4.865906e+02
  -2.950195e+02   3.041013e+02
  -2.615911e+02   1.034448e+01
   1.127402e+02  -1.325476e+02
   4.455168e+02   9.133870e+01
   1.961358e+02   4.544309e+02
  -4.978988e+02   4.397102e+02
  -8.800054e+02  -8.521722e+01
  -4.660063e+02  -6.150212e+02
   3.949265e+02  -5.521454e+02
   8.294946e+02   2.006952e+00
   3.698958e+02   5.067529e+02
  -2.986655e+02   5.991362e+02
  -6.188861e+02   2.230323e+02
  -4.212597e+02  -2.900997e+02
  -6.850242e+01  -5.452993e+02
   2.505667e+02  -2.895113e+02
   1.958037e+02   2.143670e+02
  -1.836215e+02   4.211175e+02
  -4.695615e+02  -4.476569e+01
  -2.774654e+02  -6.655812e+02
   3.740656e+02  -7.442452e+02
   7.174419e+02  -2.852380e+01
   3.318501e+02   5.829397e+02
  -3.053638e+02   4.177910e+02
  -4.151234e+02  -3.603918e+02
   6.712975e+01  -5.739808e+02
   5.865477e+02  -2.015767e+02
   6.600141e+02   3.861661e+02
   1.794074e+02   6.573493e+02
  -4.409018e+02   3.949941e+02
  -6.417843e+02  -6.890341e+01
  -3.962310e+02  -4.258955e+02
   1.405281e+02  -3.836847e+02
   4.883811e+02  -5.876980e+01
   3.016105e+02   1.868012e+02
  -1.283322e+02   1.416771e+02
  -2.185566e+02  -1.590240e+02
   1.480165e+02  -1.914436e+02
   3.547837e+02   4.402030e+01
   1.734075e+02   2.797023e+02
  -1.593767e+02   2.838271e+02
  -3.449580e+02   1.027755e+02
  -2.224324e+02  -9.395328e+01
   1.965375e+00  -2.571511e+02
   2.366223e+02  -3.890416e+02
   3.959071e+02  -2.643736e+02
   3.444059e+02   1.505880e+02
   1.232053e+02   5.019605e+02
  -9.374280e+01   4.004365e+02
  -1.529485e+02   7.354584e+01
  -1.548683e+01  -5.227999e+01
  -3.484614e+01   4.246549e+01
  -1.603972e+02   1.617541e+02
  -2.872002e+02  -2.677778e+01
  -2.075381e+02  -2.335962e+02
   8.142296e+01  -2.987843e+02
   2.435874e+02  -5.134351e+01
   2.296560e+02   2.433042e+02
  -9.024600e-01   3.181822e+02
  -2.889479e+02   1.476869e+02
  -4.097468e+02  -1.446845e+02
  -2.067920e+02  -3.428778e+02
   9.704919e+01  -3.144658e+02
   2.699307e+02  -1.438699e+02
   1.755694e+02  -5.719100e+00
   7.155007e+01  -2.757464e+01
   1.853733e+02  -7.749967e+01
   4.026288e+02   5.870391e+01
   3.743483e+02   2.890870e+02
  -2.857905e+01   4.694255e+02
  -3.770995e+02   4.101646e+02
  -5.309420e+02   2.350196e+02
  -3.472889e+02  -7.799048e+01
  -3.032158e+01  -2.869990e+02
   1.202988e+02  -2.274754e+02
   1.151426e+02  -4.474546e+01
  -1.001005e+02   1.187248e+02
  -2.125321e+02  -7.535978e+00
  -5.453340e+01  -2.059405e+02
   1.214349e+02  -1.853489e+02
   1.734257e+02   3.980276e+01
  -1.054998e+01   1.623353e+02
  -1.782100e+02   5.296921e+01
  -1.562488e+02  -2.176151e+02
   3.975168e+01  -3.253297e+02
   2.301616e+02  -2.270847e+02
   3.555542e+02   7.429837e+01
   2.615139e+02   2.456114e+02
   8.949365e+01   2.688938e+02
  -1.354086e+02   1.612648e+02
  -1.903726e+02  -1.055116e+01
  -6.694056e+01  -6.334506e+01
   9.601409e+01   3.718843e+01
   2.094147e+01   1.218957e+02
  -1.300770e+02   1.069872e+02
  -1.868193e+02  -6.900942e+00
  -5.080713e+01  -7.174234e+01
   6.776234e+01   6.734793e+00
   6.172485e+01   8.850090e+01
  -1.220982e+02   1.032597e+02
  -2.503479e+02   7.047164e+00
  -2.882692e+02  -1.228626e+02
  -5.471084e+01  -2.886227e+02
   1.849718e+02  -2.647950e+02
   2.841898e+02  -1.355715e+02
   1.717168e+02   5.301897e+01
  -9.895257e+00   1.290942e+02
  -1.039405e+02   1.795395e+01
   1.481994e+01  -1.035978e+02
   1.768070e+02  -8.508172e+01
   2.045604e+02   9.612506e+01
   4.667317e+01   2.448414e+02
  -1.171833e+02   1.444859e+02
  -1.473925e+02   3.203086e+01
  -6.903754e+01  -5.929840e+01
   4.059284e+01   2.483294e+01
   5.687414e+01   8.635342e+01
  -6.886592e+01   1.007146e+02
  -2.047766e+02   5.646080e+01
  -2.258281e+02  -1.355111e+02
  -2.257054e+01  -2.543143e+02
   1.218785e+02  -1.626000e+02
   2.003575e+02  -1.923509e+00
   5.881688e+01   1.108271e+02
  -5.250477e+01   1.219687e+02
  -7.342415e+01   4.170473e+01
  -1.892366e+01  -2.229976e+01
   3.394089e+01  -5.775542e+00
  -1.520748e+01   5.328209e+00
  -6.431973e+01  -2.698996e+01
  -9.050980e+01  -8.858571e+01
  -2.529785e+01  -1.481202e+02
   1.011811e+02  -1.476565e+02
   2.153764e+02  -4.938428e+01
   2.432483e+02   1.429135e+02
   1.999782e+01   2.313599e+02
  -1.151172e+02   1.793844e+02
  -1.718655e+02   3.341987e+01
  -6.442922e+01  -6.427899e+01
  -1.845869e+01  -5.753287e+01
  -6.168832e+01   1.409125e+01
  -7.803242e+01   1.198905e+01
  -5.650719e+01  -1.879455e+01
   4.753685e+01  -8.105437e+01
   9.046730e+01  -4.475376e+01
   1.078051e+02   1.937543e+01
  -3.963039e+00   1.071081e+02
  -1.530879e+02   8.288907e+01
  -2.071605e+02  -5.072014e+01
  -7.020983e+01  -1.983280e+02
   8.967605e+01  -2.680583e+02
   2.503202e+02  -9.025853e+01
   2.688219e+02   1.092124e+02
   1.336669e+02   1.802963e+02
  -3.100590e+01   1.448504e+02
  -1.037902e+02   6.694669e+01
  -9.719430e+01   7.152860e+01
  -4.962796e+01   9.228686e+01
  -7.139065e+01   9.670532e+01
  -1.381025e+02  -4.735483e+00
  -1.295250e+02  -1.370028e+02
  -1.431928e+01  -2.012922e+02
   9.168329e+01  -1.829510e+02
   1.925947e+02  -4.660417e+01
   1.433270e+02   1.137978e+02
  -2.143540e+01   1.699433e+02
  -9.784606e+01   6.536616e+01
  -5.277504e+01  -3.618200e+01
   9.153738e+00  -3.228491e+01
   2.352609e+01  -3.425195e+01
  -4.137088e+01  -1.036618e+01
  -7.585441e+01  -7.343110e+00
  -3.842618e+01  -4.885653e+01
   7.850159e+01  -2.447625e+01
   1.505439e+02  -2.170712e+00
   1.367648e+02   4.087793e+01
  -8.207683e-01   9.740608e+01
  -1.224467e+02   7.073680e+01
  -1.522811e+02  -2.288296e+00
  -7.321780e+01  -3.875293e+01
   1.016436e+02  -4.444852e+01
   7.635887e+01   3.850355e+01
   3.323977e+00   6.815932e+01
  -6.276872e+01   6.370153e+01
  -8.371022e+01  -2.099334e+01
  -4.801339e+01  -5.695405e+01
  -5.368204e+01  -4.177857e+01
  -1.009695e+02  -2.287367e+00
  -7.097232e+01   3.704881e+00
  -2.729306e+01  -8.872139e+01
   2.606272e+01  -1.272144e+02
   1.119779e+02  -1.781963e+02
   1.925387e+02  -1.335763e+01
   1.303380e+02   9.841576e+01
   1.011685e+01   1.500185e+02
  -1.097755e+02   4.536498e+01
  -6.606301e+01  -9.665094e+00
   5.017198e+01   5.553353e+00
   1.420878e+02   5.198702e+01
   8.264259e+01   1.153588e+02
  -7.240206e+01   1.250976e+02
  -1.808203e+02   2.738978e+01
  -1.979012e+02  -3.953403e+01
  -5.314313e+01  -9.781141e+01
   7.146236e+01  -5.583472e+01
   5.092889e+01  -2.150030e+01
  -2.247443e+01   4.119204e+00
  -7.366066e+01  -5.078492e+01
  -4.889990e+01  -1.380112e+02
   9.869357e+01  -1.849121e+02
   1.650557e+02  -6.012986e+01
   1.184450e+02   1.284260e+02
   4.169381e+01   2.355349e+02
  -8.076865e+01   1.713778e+02
  -1.044864e+02   2.027731e-01
  -6.812181e+01  -1.041771e+02
   2.858607e+01  -1.078423e+02
   3.843652e+01  -1.440239e+01
   4.301067e+00   4.836368e+01
   3.047075e+01  -2.293907e+00
  -2.086242e+01  -1.699034e+01
   3.271074e+01   5.589054e+00
   5.366351e+01   9.947805e+01
   4.185762e+01   1.310279e+02
  -6.821677e+01   3.395854e+01
  -1.342114e+02  -5.794228e+01
  -1.242564e+02  -7.201032e+01
  -2.013925e+00  -5.543920e+01
   8.567354e+01  -1.312429e+01
   8.031632e+01  -7.891396e+00
  -3.380275e+00   1.390840e+01
  -1.892233e+01   5.701404e+00
   1.312941e+01  -9.036316e+00
   2.903845e+01   6.871762e+00
   2.262860e+01  -3.656006e+01
  -8.840779e+01   2.273656e+01
  -1.000430e+02  -3.723646e+01
  -1.662386e+01  -7.845555e+01
   1.220165e+02  -1.477846e+02
   2.402783e+02  -7.261599e+01
   1.657871e+02   4.679261e+01
   8.420821e+00   1.714201e+02
  -8.903306e+01   1.684434e+02
  -9.847678e+01   3.727925e+01
  -7.063942e+01  -3.740004e+01
  -3.052098e+01  -5.710352e+01
   1.911988e+01  -8.184434e+00
  -1.685708e+01  -1.111249e+00
  -2.287512e+01  -5.085407e+01
   1.540635e-01  -7.260726e+01
   2.987742e+01  -8.091069e+01
   9.904623e+01   2.933099e+01
   4.548157e+01   1.322449e+02
   2.428716e+00   9.748964e+01
  -9.519457e+01   2.575850e+01
  -7.902827e+01  -9.390282e+01
  -2.384733e+01  -1.007726e+02
   8.242316e+01  -5.021003e+01
   1.162578e+02   2.328182e+01
   2.740023e+01   6.321675e+01
  -2.655856e+01   5.463328e+01
  -6.347558e+01   1.797711e+01
   3.153864e+01  -3.150019e+00
   8.064589e+01  -1.995164e+00
   1.709893e+01   2.689942e+01
  -8.395108e+01   9.628307e+01
  -9.607733e+01   5.087420e+01
  -5.659311e+01  -2.806323e+01
   4.983002e+00  -1.054371e+02
   8.409969e+01  -7.153215e+01
   3.403759e+01  -5.527266e+00
   1.140420e+01   3.977767e+01
  -2.756306e+01   2.608337e+01
  -6.146158e+01   1.001711e+00
  -1.838386e+01  -4.178393e+01
   1.073975e+01  -4.324817e+01
   3.169881e+01   2.177498e+01
   2.502293e+01   2.401394e+01
  -1.090269e+01  -1.007255e+01
   6.147285e+00  -1.388358e+01
   4.007114e+00   2.920568e+01
   1.600916e+01   4.635679e+01
  -3.372509e+01   1.229067e+01
  -5.377887e+01  -1.101477e+01
  -1.237122e+01  -4.629825e+01
   1.886010e+01  -3.874075e+01
   7.447197e+01  -2.282965e+01
   5.525913e+01   4.369717e+01
  -9.378331e+00   6.711213e+01
  -6.304204e+01   1.689324e+01
  -7.804424e+01  -2.207936e+01
  -3.847172e+01  -4.254239e+01
   2.515618e+01  -2.554271e+01
   6.575446e+01  -2.315441e+01
   5.514611e+01  -6.151663e-01
  -4.875893e+01   2.373669e+00
  -4.206085e+01  -2.087632e+01
   1.356516e+01  -3.927331e+01
   1.065118e+02  -1.669223e+01
