
 $NMID
 id='ANONYMOUS ', fmtdat='(2E16.6)'
 volume=1.0
 tramp=1.0
 $END
  -4.432476e+03   3.381186e+02
  -3.124638e+03  -2.511500e+03
   4.147912e+02  -2.770271e+03
   2.074568e+03  -1.147571e+03
   9.706244e+02   5.464181e+02
  -6.471647e+02   4.807248e+02
  -9.699470e+02  -4.490150e+02
  -5.234923e+01  -1.063388e+03
   8.434440e+02  -7.752221e+02
   9.378386e+02   1.591763e+02
   5.050844e+02   9.077661e+02
  -2.525188e+02   8.991150e+02
  -5.715895e+02   9.247931e+01
  -2.871658e+02  -6.489321e+02
   2.458917e+02  -7.497371e+02
   5.973503e+02  -9.811274e+00
   3.453697e+02   6.711024e+02
  -3.524161e+02   6.611138e+02
  -6.309977e+02   1.575490e+02
  -4.368530e+02  -3.645388e+02
  -4.137477e+01  -4.232605e+02
   2.170618e+02  -2.515465e+02
   1.830258e+02  -3.934608e+01
  -1.534089e+02   9.281398e+01
  -3.999690e+02  -1.527965e+02
  -2.003839e+02  -4.414787e+02
   5.242876e+02  -3.715142e+02
   8.711001e+02   8.446595e+01
   4.074303e+02   5.195692e+02
  -4.365785e+02   5.138830e+02
  -7.193887e+02  -2.641154e+01
  -3.561151e+02  -4.566709e+02
   3.235506e+02  -5.459347e+02
   5.526773e+02  -1.595436e+02
   4.065088e+02   2.667932e+02
  -1.148061e+01   4.869961e+02
  -2.280334e+02   2.838767e+02
  -1.397477e+02  -2.038935e+02
   1.545367e+02  -3.869460e+02
   4.606449e+02   7.306473e+01
   2.097772e+02   6.743656e+02
  -3.671302e+02   6.711711e+02
  -5.827670e+02   1.000600e+01
  -2.221166e+02  -6.066720e+02
   2.995523e+02  -3.374933e+02
   3.463521e+02   3.195723e+02
  -1.132834e+02   5.320487e+02
  -5.702878e+02   1.568939e+02
  -6.038731e+02  -3.942544e+02
  -1.751715e+02  -6.428826e+02
   3.955172e+02  -3.951917e+02
   6.339123e+02   6.991542e+01
   4.333082e+02   3.705488e+02
  -1.580506e+02   3.542457e+02
  -4.288144e+02   1.169426e+02
  -2.919308e+02  -1.763629e+02
   9.113032e+01  -1.351898e+02
   1.798864e+02   1.729386e+02
  -1.314959e+02   2.446909e+02
  -3.321546e+02  -2.724801e+01
  -1.475666e+02  -2.463658e+02
   1.349720e+02  -3.341507e+02
   3.368160e+02  -9.897415e+01
   2.120817e+02   8.449695e+01
  -1.697360e+01   3.243483e+02
  -2.306931e+02   3.993238e+02
  -3.806277e+02   2.299780e+02
  -3.019047e+02  -1.291794e+02
  -1.057272e+02  -4.166818e+02
   6.964802e+01  -3.418478e+02
   6.595039e+01  -6.532221e+01
   5.986865e+00   9.186875e+00
   1.846455e+01  -9.778572e+01
   2.134076e+02  -1.862340e+02
   2.987798e+02   4.636779e+01
   2.053389e+02   2.906268e+02
  -6.791109e+01   2.637413e+02
  -2.355195e+02   3.287084e+01
  -1.906311e+02  -2.415211e+02
   1.303627e+01  -2.872677e+02
   2.701448e+02  -1.057400e+02
   3.739909e+02   1.368448e+02
   1.848617e+02   3.148139e+02
  -9.774618e+01   3.122197e+02
  -1.902361e+02   9.975588e+01
  -1.367440e+02   1.147355e+01
  -5.394391e+01   4.581742e+01
  -1.916718e+02   1.137336e+02
  -4.080474e+02  -3.634860e+00
  -3.664965e+02  -2.439152e+02
  -3.282942e+01  -4.548693e+02
   4.047716e+02  -4.170777e+02
   4.487620e+02  -2.626855e+02
   3.535247e+02   9.574646e+01
   7.659299e+01   3.122383e+02
  -9.755816e+01   2.427118e+02
  -9.609916e+01   5.459805e+01
   9.110302e+01  -7.683176e+01
   2.056985e+02  -2.031110e+01
   1.035740e+02   1.987552e+02
  -1.578478e+02   2.092395e+02
  -2.054377e+02  -4.595053e+01
   3.837289e+00  -2.049267e+02
   1.667711e+02  -2.907819e+01
   1.603207e+02   2.533009e+02
  -1.762475e+00   3.501657e+02
  -2.298662e+02   2.723949e+02
  -3.283193e+02  -3.727382e+01
  -2.821241e+02  -2.619861e+02
  -9.000880e+01  -3.069515e+02
   1.599044e+02  -1.602403e+02
   1.926115e+02   2.734714e+01
   3.358262e+01   2.754090e+01
  -7.461238e+01  -4.684155e+01
  -2.053963e+01  -1.308481e+02
   1.463551e+02  -1.002316e+02
   1.898987e+02   4.419132e+01
   5.148654e+01   7.622455e+01
  -6.806738e+01   5.822155e+00
  -8.171222e+01  -5.717822e+01
   1.510533e+02  -1.050673e+02
   3.211261e+02  -8.623853e+00
   3.038262e+02   1.345440e+02
   4.529470e+01   2.569302e+02
  -1.696044e+02   2.612987e+02
  -2.886941e+02   1.417423e+02
  -1.631925e+02  -4.984745e+01
   1.612190e+01  -1.034346e+02
   1.237470e+02  -2.105003e+01
  -5.726017e+01   9.063220e+01
  -1.681396e+02   4.080286e+01
  -2.116024e+02  -8.096778e+01
  -4.530262e+01  -2.031327e+02
   8.985801e+01  -1.544627e+02
   1.312226e+02  -2.321667e+01
   6.138763e+01   4.854095e+01
  -8.991898e+00  -6.379764e+00
  -5.038957e+01  -9.780747e+01
   8.969961e+01  -1.049296e+02
   2.241223e+02  -1.213241e+01
   1.730507e+02   1.312587e+02
   5.550875e+01   2.257460e+02
  -1.481191e+02   1.866238e+02
  -1.991220e+02   1.936850e+01
  -1.105417e+02  -1.098829e+02
   4.050754e+01  -1.127889e+02
   9.660659e+01  -2.463463e+01
   1.336961e+01   3.596009e+01
  -4.052810e+01   2.159523e+01
   1.653475e+01  -2.504754e+01
   7.299320e+01   6.868326e+00
   1.027773e+02   7.407940e+01
   2.284562e+01   1.785707e+02
  -1.183651e+02   1.367004e+02
  -2.371086e+02   3.240638e+01
  -2.293598e+02  -1.809372e+02
  -5.336604e+01  -2.531009e+02
   1.014020e+02  -1.948630e+02
   1.447055e+02  -3.141975e+01
   7.123946e+01   6.745674e+01
   3.219096e+01   5.408244e+01
   3.587797e+01   1.608900e+01
   7.677549e+01  -4.749352e+01
   1.874232e+01   5.629825e+01
  -4.890182e+01   7.684350e+01
  -9.411639e+01   6.012766e+01
  -9.616542e+01  -6.695339e+01
   1.095726e+01  -8.594480e+01
   1.582353e+02  -1.063436e+02
   2.227167e+02   4.260718e+01
   9.323332e+01   1.996456e+02
  -1.115456e+02   2.289997e+02
  -2.644588e+02   8.604283e+01
  -2.335908e+02  -9.642714e+01
  -1.137413e+02  -1.837894e+02
   4.345768e+01  -1.601834e+02
   1.009142e+02  -7.897426e+01
   8.076899e+01  -7.030247e+01
   4.814481e+01  -9.657009e+01
   9.185206e+01  -8.229110e+01
   1.330689e+02   1.518798e+01
   1.381268e+02   1.391484e+02
   4.015705e+01   2.133488e+02
  -1.065403e+02   1.736747e+02
  -1.802770e+02   7.240797e+00
  -1.449995e+02  -1.522123e+02
   1.102255e+00  -1.595868e+02
   6.920959e+01  -9.968567e+01
   4.308604e+01   1.754273e+01
   5.725923e+00   3.047853e+01
  -1.590299e+01   4.930564e+01
   4.585734e+01  -2.654801e+01
   8.538666e+01   1.884917e+01
   5.700989e+01   6.530666e+01
  -6.849227e+01   5.222551e+01
  -1.748775e+02   2.256272e+01
  -1.512116e+02  -3.780044e+00
   2.446860e+00  -1.046941e+02
   1.334317e+02  -9.345802e+01
   1.426806e+02  -1.184677e+01
   5.102432e+01   5.418660e+01
  -6.070932e+01   3.645027e+01
  -6.954462e+01  -3.149278e+01
  -2.233019e+00  -6.596700e+01
   5.350737e+01  -7.952418e+01
   7.180727e+01  -2.771272e+00
   5.813743e+01   4.641124e+01
   8.713359e+01   4.894804e+01
   9.972682e+01  -2.180297e+01
   5.901793e+01  -2.946892e+01
   4.186289e+01   7.947125e+01
  -2.289234e+01   1.408090e+02
  -1.164675e+02   1.500288e+02
  -1.947494e+02   3.868877e+01
  -1.358662e+02  -1.006119e+02
   1.131326e+01  -1.301290e+02
   9.684101e+01  -7.209725e+01
   5.560778e+01   1.804925e+01
  -6.808192e+01  -8.824263e+00
  -1.279655e+02  -1.637107e+01
  -1.158138e+02  -1.204239e+02
   5.503959e+01  -1.226701e+02
   1.730645e+02  -4.447508e+01
   1.907410e+02   5.177305e+01
   8.234510e+01   9.860128e+01
  -6.754772e+01   6.164597e+01
  -3.932756e+01  -1.582219e+01
   3.232760e+01  -3.745014e+01
   9.364384e+01   3.517853e+01
   8.136845e+01   1.303027e+02
  -7.887201e+01   1.815397e+02
  -1.618282e+02   7.923652e+01
  -1.263238e+02  -1.144174e+02
  -3.794794e+01  -2.140644e+02
   9.651863e+01  -1.859246e+02
   1.317151e+02  -3.563013e+00
   6.661704e+01   1.070694e+02
   3.214742e+01   1.304005e+02
  -3.683168e+01   1.426266e+00
  -3.799505e+01  -2.563765e+01
  -2.049084e+01   6.630618e+00
  -3.139034e+01   2.125549e+01
  -2.447421e+01  -1.789055e+01
  -4.893962e+01  -9.479078e+01
  -7.584054e+01  -1.126305e+02
   6.222272e+01  -5.806410e+01
   1.236871e+02   4.136614e+01
   1.291663e+02   7.202617e+01
   2.989391e+01   6.726395e+01
  -1.072112e+02   1.548849e+01
  -8.373884e+01   7.392552e+00
  -2.412734e+01  -2.885320e+01
   1.786269e+01  -2.095382e+01
  -3.278235e+00  -3.033745e+01
  -1.461573e+01   3.556629e+01
   1.334848e+01   2.199945e+01
   8.389592e+01  -1.760256e+01
   1.102947e+02   2.788292e+01
   1.675992e+01   8.227404e+01
  -8.279706e+01   1.403480e+02
  -2.022317e+02   5.079751e+01
  -1.476638e+02  -8.192714e+01
  -3.506608e+01  -1.533138e+02
   7.164602e+01  -1.760994e+02
   9.927108e+01  -6.147514e+01
   9.219881e+01   1.323143e+01
   2.633176e+01   5.844369e+01
   1.069143e+00   1.009311e+01
   4.083477e+00   1.379205e+01
   4.964079e+01   2.994326e+01
   2.050135e+01   8.752278e+01
  -5.788931e+01   2.718215e+01
  -7.970980e+01  -1.245232e+01
  -5.560045e+01  -1.155962e+02
   1.607699e+01  -1.270422e+02
   6.218209e+01  -4.350344e+01
   1.150361e+02   5.571561e+01
   5.871680e+01   1.032663e+02
  -6.042840e+01   6.886533e+01
  -1.041860e+02   3.073643e+01
  -1.738559e+01  -3.193269e+01
   2.916634e+01  -3.198595e+01
   1.442058e+01  -1.324244e+00
  -5.381531e+01  -1.098506e+01
  -8.594928e+01  -1.073912e+01
  -1.273880e+01  -5.268023e+01
   9.130022e+01  -4.962246e+01
   1.188546e+02  -4.429769e+01
   8.693806e+01   3.988471e+01
   5.518860e+00   9.619563e+01
  -7.912408e+01   1.034870e+02
  -2.922766e+01   1.525139e+00
  -3.567740e+01  -4.032995e+01
   3.222761e+01  -6.002543e+01
   5.134530e+01   8.290715e-01
   5.950013e+00   5.720776e+01
  -2.250183e+01   1.471839e+01
  -4.334891e+01  -1.494024e+01
  -1.423246e+01  -3.505228e+01
   3.244987e+01   4.337210e+00
   1.922299e+01   1.636686e+01
   1.549018e+01   9.223520e+00
  -1.822928e+01  -3.576644e+01
   1.859147e+01  -5.530858e+01
   2.024704e+01   4.314718e+00
   3.520136e+01   2.010434e+01
  -2.272944e+01   6.115033e+01
  -7.004767e+01   6.050312e+01
  -6.724777e+01  -2.341102e+01
   1.741007e+00  -4.690732e+01
   2.589558e+01  -3.514580e+01
   8.898974e+01   1.270550e+01
   4.658134e+01   5.917803e+01
  -1.054341e+01   4.831059e+01
  -6.827881e+01   4.091854e+01
  -3.117186e+01  -4.343826e+00
   3.490876e+01  -1.463032e+01
   5.067616e+01   1.350569e+01
  -1.103513e+01   4.355888e+01
  -9.694201e+01   6.356246e+00
