
 $NMID
 id='ANONYMOUS ', fmtdat='(2E16.6)'
 volume=1.0
 tramp=1.0
 $END
  -2.855094e+03   9.001069e+00
  -1.936390e+03  -1.875140e+03
   3.427921e+02  -1.868902e+03
   1.142475e+03  -9.956583e+02
   6.647152e+02   7.744996e+01
  -2.294705e+02   9.008206e+01
  -4.089796e+02  -1.803855e+02
   1.499796e+02  -5.967766e+02
   4.662308e+02  -4.659232e+02
   5.255028e+02   1.120202e+02
   2.906917e+02   4.124003e+02
  -7.767399e+01   5.119189e+02
  -2.951939e+02   7.136762e+01
  -1.710732e+02  -4.309309e+02
   1.052707e+02  -4.381891e+02
   3.252536e+02  -2.227418e+01
   1.815182e+02   3.807882e+02
  -1.380187e+02   4.511082e+02
  -3.310386e+02   1.653766e+02
  -2.883588e+02  -1.601988e+02
  -6.362580e+01  -2.551953e+02
   6.461359e+01  -1.928823e+02
   4.748052e+01  -5.966306e+01
  -1.598587e+02  -1.038038e+02
  -2.078288e+02  -2.139057e+02
   2.117077e+01  -3.333190e+02
   4.027711e+02  -1.555535e+02
   5.176928e+02   1.539331e+02
   2.148462e+02   3.110303e+02
  -3.572526e+02   1.775337e+02
  -4.295763e+02  -1.184620e+02
  -1.496183e+02  -3.369816e+02
   1.980267e+02  -2.999684e+02
   3.999715e+02  -8.702597e+01
   2.374086e+02   1.475981e+02
   6.618509e+01   2.332248e+02
  -2.738184e+01   1.750028e+02
  -1.556215e+01  -9.955159e+01
   1.197100e+02  -1.419385e+02
   1.889632e+02   1.082748e+02
  -8.945613e+00   4.998420e+02
  -2.771329e+02   3.610389e+02
  -3.023706e+02  -2.846100e+00
  -9.884828e+01  -3.226787e+02
   2.322319e+02  -1.312711e+02
   2.038436e+02   2.053872e+02
  -9.352541e+01   3.593285e+02
  -4.515954e+02   6.622843e+01
  -4.267618e+02  -3.344810e+02
  -1.002635e+02  -4.527229e+02
   2.553406e+02  -1.978487e+02
   4.410629e+02   7.913744e+01
   2.440861e+02   2.443412e+02
  -9.267613e+01   1.325291e+02
  -2.586439e+02   3.267142e+01
  -1.600191e+02  -1.036054e+02
   5.637854e+01  -4.418586e+01
   7.273844e+01   9.705467e+01
  -1.079645e+02   8.199482e+01
  -2.252771e+02  -4.257167e+01
  -7.828506e+01  -2.102512e+02
   1.644945e+02  -1.916776e+02
   2.558027e+02  -7.370413e+01
   1.748336e+02   5.919480e+01
  -3.418624e+01   2.104648e+02
  -1.758930e+02   2.812518e+02
  -2.593312e+02   1.235263e+02
  -2.153165e+02  -1.035699e+02
  -8.682987e+01  -2.779938e+02
   2.693769e+01  -2.991213e+02
  -1.533149e+01  -1.038931e+02
   1.886345e+01  -7.468767e+01
   9.257130e+01  -1.368736e+02
   2.175764e+02  -7.359903e+01
   2.067884e+02   9.751138e+01
   1.026677e+02   2.667111e+02
  -1.074887e+02   1.613793e+02
  -1.704327e+02  -4.922929e+01
  -1.153150e+02  -2.073890e+02
   2.703386e+01  -2.019098e+02
   2.442466e+02  -5.699033e+01
   2.415790e+02   1.738739e+02
   1.219816e+02   2.464363e+02
  -6.401098e+01   1.944900e+02
  -9.998949e+01   1.413605e+02
  -1.337698e+02   7.421735e+01
  -1.181469e+02   5.581132e+01
  -2.298914e+02   5.342557e+01
  -3.462577e+02  -3.858874e+01
  -2.551419e+02  -2.582806e+02
   3.827123e+01  -3.598961e+02
   3.518572e+02  -3.352786e+02
   4.281388e+02  -1.292479e+02
   2.524248e+02   8.547336e+01
  -3.946944e+00   2.221001e+02
  -1.026736e+02   1.490485e+02
  -2.958844e+01   2.628451e+01
   8.302151e+01  -5.495948e+01
   1.836327e+02   2.755510e+01
   3.053249e+01   1.125843e+02
  -7.344935e+01   9.613011e+01
  -1.311820e+02  -3.709485e+01
   5.412216e+01  -1.502704e+02
   1.592532e+02  -9.239062e+00
   9.915400e+01   1.920855e+02
  -2.013079e+01   2.800108e+02
  -1.971533e+02   1.427756e+02
  -2.742234e+02  -8.077821e+01
  -2.665325e+02  -2.048458e+02
  -2.078640e+01  -2.061618e+02
   1.241993e+02  -1.237761e+02
   1.283751e+02   1.680779e+01
   5.118787e+01   2.945041e+00
  -5.255193e+01  -5.182683e+01
  -1.264691e+00  -9.727440e+01
   1.209655e+02  -3.853696e+01
   1.272325e+02  -3.314853e+00
   2.443939e+01   4.603837e+01
  -5.318177e+01  -4.041784e+01
  -3.388571e+01  -6.371776e+01
   1.413837e+02  -5.888406e+01
   2.406327e+02   2.677336e+00
   2.039094e+02   9.690307e+01
   6.333283e+01   2.022103e+02
  -1.142122e+02   1.817466e+02
  -1.992544e+02   6.180483e+01
  -1.179072e+02  -3.749352e+01
  -1.347738e+01  -5.272181e+01
   6.300482e+01  -9.425577e+00
  -2.060773e+01   7.631604e+01
  -1.446805e+02   3.680018e+01
  -1.298018e+02  -4.496556e+01
  -4.101146e+01  -1.383228e+02
   5.660778e+01  -9.499804e+01
   9.096220e+01  -3.319033e+01
   2.910136e+01   3.234932e+01
  -5.682023e+01  -2.226213e+01
  -1.274247e+01  -8.890684e+01
   7.362652e+01  -9.548676e+01
   1.480487e+02  -3.048619e+01
   1.891505e+02   9.364319e+01
   8.472387e+00   1.769278e+02
  -1.345372e+02   1.359228e+02
  -1.410825e+02   2.142087e+01
  -5.027980e+01  -7.527388e+01
   3.940410e+01  -7.905696e+01
   3.860746e+01  -1.808863e+01
  -3.825697e+01   1.442561e+01
  -1.694876e+01   7.193542e+00
  -3.218181e+00  -1.524554e+01
   4.311263e+01   3.042122e+00
   7.435324e+01   7.648688e+01
  -5.028633e+00   1.510067e+02
  -1.400549e+02   8.124026e+01
  -2.104781e+02   1.096664e+01
  -1.642831e+02  -1.438532e+02
  -3.251214e+01  -1.842473e+02
   1.106192e+02  -1.270113e+02
   8.627346e+01  -1.345417e-02
   7.394529e+01   4.744447e+01
   1.900549e+01   2.854876e+01
   3.059735e+01  -7.728048e+00
   5.622004e+01  -2.166286e+01
   4.004236e+01   3.576745e+01
  -1.821092e+01   9.662342e+01
  -7.408063e+01   6.098632e+01
  -7.863961e+01  -1.818582e+01
   1.375317e+01  -8.848806e+01
   1.155396e+02  -1.108924e+02
   1.670115e+02   4.424955e+01
   8.116714e+01   1.635391e+02
  -8.811650e+01   1.997277e+02
  -1.962885e+02   1.060171e+02
  -2.067051e+02  -9.671747e+01
  -9.593469e+01  -1.400289e+02
   6.179531e+01  -1.103711e+02
   7.460407e+01  -5.314272e+01
   5.604079e+01  -8.372958e+01
   1.971706e+01  -8.690009e+01
   1.015404e+02  -3.668744e+01
   9.241822e+01   1.083957e+01
   9.793739e+01   1.701677e+02
   2.317143e+01   1.916532e+02
  -1.028216e+02   1.113876e+02
  -1.568684e+02  -6.546496e-01
  -9.034824e+01  -8.921825e+01
  -2.420422e+01  -1.422039e+02
   5.774769e+01  -6.355789e+01
   4.606262e+01   3.068558e+01
  -2.111017e+01   2.980613e+01
  -4.742386e+01   3.952160e+01
   1.166669e+01   8.719566e+00
   8.109098e+01   2.748840e+01
   5.416400e+01   3.294958e+01
  -8.028893e+01   3.441696e+01
  -1.538048e+02   3.179325e-01
  -1.322724e+02  -3.124294e+01
   3.807123e+00  -9.198400e+01
   1.114666e+02  -7.829648e+01
   1.217660e+02  -5.763452e+00
   3.875777e+01   2.835710e+01
  -3.069944e+01   2.374383e+01
  -6.332557e+01  -1.951791e+01
  -7.425340e-01  -5.137115e+01
   3.759124e+01  -6.533011e+01
   5.407937e+01   2.489482e+01
   2.998900e+01   7.758144e+01
   3.559922e+01   4.537484e+01
   2.340611e+01   2.535968e+00
   2.853833e+01  -1.209727e+01
   6.223390e+01   4.229904e+01
  -1.267993e+00   1.380195e+02
  -9.584950e+01   7.893651e+01
  -1.161531e+02   6.120342e+00
  -7.722503e+01  -7.119476e+01
   1.862088e+01  -9.859238e+01
   5.877531e+01  -5.451060e+01
   4.696916e+01   3.331746e+01
  -6.288115e+01   7.042061e-01
  -1.063103e+02  -3.329283e+01
  -4.810106e+01  -9.544129e+01
   4.172100e+01  -1.105400e+02
   1.538513e+02  -5.341330e+01
   1.209158e+02   4.140528e+01
   5.141226e+01   8.714670e+01
  -6.336641e+01   5.118734e+01
  -9.828725e+00   1.886499e+01
   4.049023e+01   6.586345e+00
   7.644414e+01   3.556015e+01
   3.585114e+01   8.961215e+01
  -9.960196e+01   1.389211e+02
  -1.541654e+02   4.703063e+01
  -8.313116e+01  -7.627050e+01
  -1.125210e+01  -1.557835e+02
   7.935356e+01  -1.120770e+02
   8.035782e+01   2.202464e+01
   5.938966e+01   1.159260e+02
   3.879783e+01   1.032131e+02
  -2.533386e+01   3.231170e-02
  -2.196082e+01  -2.875877e+01
   8.655920e+00  -1.803890e+01
   2.786882e+01   1.832361e+01
   6.670876e+00  -1.254624e+00
  -5.591796e+01  -5.441015e+01
  -2.123985e+01  -8.266338e+01
   3.488914e+01  -5.310584e+01
   1.306795e+02   2.495709e+00
   1.347826e+02   3.931116e+01
  -3.973751e+00   4.785380e+01
  -8.939207e+01   5.302847e+00
  -4.577807e+01   9.497808e+00
  -1.965924e+01   1.632271e+00
   2.105521e+01  -1.721483e+01
  -1.756271e+01  -1.558889e+01
  -2.826164e+01   1.517268e+01
  -1.950699e+01  -2.487821e+01
   3.988826e+01   5.073441e+00
   5.592293e+01   1.085856e+01
   3.136704e+01   5.994285e+01
  -7.864419e+01   9.600455e+01
  -1.612826e+02   6.001993e+01
  -1.517813e+02  -6.273408e+01
  -1.384755e+01  -1.304381e+02
   7.067579e+01  -1.393341e+02
   1.121108e+02  -5.400995e+01
   8.471852e+01   2.043278e+01
  -3.609285e+00   2.416764e+01
   1.055500e+01   2.139737e+00
  -6.730194e+00  -1.041496e+01
   3.933558e+01   3.640037e+01
   1.887724e+01   6.822509e+01
  -2.821627e+01   5.272258e+01
  -7.550602e+01  -2.320787e+01
  -5.344901e+01  -7.572779e+01
  -1.060821e+01  -1.049791e+02
   4.247453e+01   1.859181e+00
   9.668918e+01   5.362892e+01
   5.451540e+01   9.534200e+01
  -4.478260e+01   3.166251e+01
  -4.479567e+01   1.669489e+01
  -5.862536e+01  -6.574941e+01
   2.962409e+01  -5.489858e+01
   6.352469e+01  -4.707363e+01
  -1.062710e+01  -7.784934e+00
  -8.365492e+01   1.140403e+01
  -5.892734e+00  -2.036974e+01
   4.431304e+01  -5.555657e+01
   1.007572e+02  -5.843512e+01
   9.211735e+01  -9.738077e+00
   3.726477e+00   7.075458e+01
  -2.383570e+01   5.707529e+01
  -3.606842e+01   1.604307e+01
  -3.083923e+01  -3.915832e+01
   3.581325e+01  -4.655685e+01
   2.594273e+01   3.392471e+00
   1.853836e+01   2.239842e+01
  -3.730941e+00   4.424633e+01
  -2.725913e+01   5.340841e+00
  -4.203200e+01  -3.070611e+01
   3.575863e+00  -2.192588e+01
   1.170640e+01   3.766759e+01
  -1.063837e+01  -3.204921e+00
  -1.705323e+01  -2.103073e+01
  -8.562924e+00  -4.048290e+01
  -7.620465e+00  -4.875147e+01
   3.633173e+01   3.290799e+01
   2.534625e+01   3.248199e+01
  -3.500672e+01   2.660187e+01
  -5.332624e+01  -5.157642e+00
  -1.607429e+01  -4.294832e+01
   4.710058e+01  -2.282651e+01
   6.209181e+01   4.969238e+01
   2.892411e+01   4.714577e+01
  -5.694820e+01   2.310580e+01
  -4.370581e+01  -5.461880e-01
  -9.733293e+00  -7.257531e-01
   1.943090e+01  -1.439834e+01
   2.935111e+01   2.350143e+01
  -4.441247e+01   3.546850e+01
  -6.487257e+01   2.396661e+01
