
 $NMID
 id='ANONYMOUS ', fmtdat='(2E16.6)'
 volume=1.0
 tramp=1.0
 $END
   2.726109e+03   4.284439e+02
   1.554377e+03   1.893202e+03
  -3.730140e+02   1.858829e+03
  -1.240700e+03   7.491974e+02
  -6.376742e+02  -2.867945e+01
   1.680412e+02  -1.727258e+02
   3.216513e+02   2.358312e+02
  -9.977918e+01   5.413625e+02
  -4.459456e+02   4.668426e+02
  -5.665293e+02   2.581520e+01
  -3.119170e+02  -3.508192e+02
   6.422784e+01  -5.548819e+02
   3.284091e+02  -1.240642e+02
   1.681205e+02   4.052860e+02
  -1.191494e+02   4.393386e+02
  -2.931835e+02   5.554841e+01
  -1.416596e+02  -3.746936e+02
   1.346104e+02  -4.509136e+02
   3.811742e+02  -1.906254e+02
   2.884613e+02   1.833007e+02
   9.079989e+01   2.759571e+02
  -6.506162e+01   2.034982e+02
  -8.033757e+01   8.723876e+01
   1.136991e+02   3.936241e+01
   2.000134e+02   1.624360e+02
  -4.443172e+01   2.518999e+02
  -3.849327e+02   1.651320e+02
  -5.338255e+02  -1.632611e+02
  -2.233557e+02  -2.534669e+02
   2.393109e+02  -1.375905e+02
   4.271184e+02   4.172036e+01
   1.564214e+02   3.402815e+02
  -1.812035e+02   2.854350e+02
  -3.531760e+02   8.773137e+01
  -3.004503e+02  -1.163834e+02
  -5.853410e+01  -2.797214e+02
   7.453383e+01  -1.744389e+02
   2.109365e+01   1.133414e+02
  -9.217622e+01   1.764135e+02
  -2.191082e+02  -1.011460e+02
   1.896277e+00  -4.325406e+02
   2.358713e+02  -3.953506e+02
   2.742338e+02  -4.636262e+00
   1.162098e+02   2.736119e+02
  -1.188781e+02   1.233109e+02
  -1.611685e+02  -2.117245e+02
   8.908176e+01  -3.047907e+02
   3.467264e+02  -6.495566e+00
   3.555911e+02   2.272823e+02
   6.729104e+01   4.563086e+02
  -2.437939e+02   2.321253e+02
  -4.112539e+02  -1.379960e+02
  -2.648884e+02  -2.177737e+02
   6.731865e+01  -1.841423e+02
   2.332037e+02  -4.919544e+01
   1.697669e+02   5.576974e+01
  -4.428319e+00   5.000165e+00
  -4.284392e+01  -5.619694e+01
   1.127173e+02  -7.859984e+01
   2.124222e+02   8.649823e+01
   6.338620e+01   1.791582e+02
  -1.714164e+02   1.629015e+02
  -2.585416e+02   4.097692e+01
  -1.609078e+02  -7.600425e+01
   5.120057e+01  -1.852638e+02
   1.882916e+02  -2.235117e+02
   2.136151e+02  -1.307320e+02
   1.792869e+02   1.250735e+02
   5.364177e+01   3.302178e+02
  -4.132556e+01   2.841773e+02
  -3.508153e+01   1.449391e+02
  -3.534758e+01   4.137220e+01
  -1.005032e+02   5.474173e+01
  -2.045766e+02   4.011087e+01
  -1.550333e+02  -1.231965e+02
  -8.505441e+01  -1.949193e+02
   5.126801e+01  -1.788350e+02
   1.660504e+02   3.544311e+01
   1.231075e+02   2.045114e+02
  -2.225656e+01   2.138224e+02
  -1.909845e+02   5.761690e+01
  -2.459432e+02  -1.619831e+02
  -9.987617e+01  -2.559741e+02
   6.693086e+01  -1.941008e+02
   1.243238e+02  -9.121483e+01
   1.318929e+02  -7.557797e+01
   1.099036e+02  -2.303711e+01
   2.249475e+02  -4.215747e+01
   3.412814e+02   4.915918e+01
   2.144866e+02   2.310773e+02
  -3.202444e+01   3.170585e+02
  -3.083968e+02   3.173465e+02
  -3.993624e+02   1.108238e+02
  -2.189584e+02  -5.124119e+01
  -2.160089e+01  -2.384670e+02
   7.035666e+01  -1.555777e+02
   1.281709e+01  -2.819389e+01
  -8.974987e+01   5.731417e+01
  -1.400583e+02  -3.371682e+01
   2.334060e+01  -1.082703e+02
   8.330600e+01  -6.422430e+01
   6.595741e+01   3.876312e+01
  -2.550654e+01   9.659535e+01
  -1.100220e+02   8.454940e+00
  -1.316397e+02  -1.864770e+02
   5.326645e+01  -2.927639e+02
   1.688473e+02  -1.694656e+02
   3.003093e+02   4.420502e+01
   1.908696e+02   2.096938e+02
  -8.626089e+00   1.753153e+02
  -1.245295e+02   9.039797e+01
  -1.267649e+02  -4.157136e+00
  -4.005940e+01   1.308906e+00
   4.391152e+01   5.227250e+01
   5.274505e+00   8.802799e+01
  -7.228758e+01   5.230596e+01
  -1.487301e+02   5.236894e+00
  -4.817284e+01  -3.754159e+01
   5.607324e+01   1.781495e+01
   1.852733e+01   5.870546e+01
  -1.285099e+02   3.183403e+01
  -1.947367e+02  -3.053018e+01
  -1.917250e+02  -1.410753e+02
  -3.112066e+01  -1.992536e+02
   1.545496e+02  -1.576694e+02
   1.940231e+02  -5.670826e+01
   1.002695e+02   3.887567e+01
  -1.530429e+01   6.276527e+01
  -4.287619e+01   8.187340e-01
   7.462579e+01  -5.477125e+01
   1.396860e+02  -3.566584e+01
   1.321519e+02   7.757091e+01
   4.945846e+01   1.313677e+02
  -6.198966e+01   1.068571e+02
  -1.120223e+02   3.597954e+00
  -6.604199e+01  -4.276634e+01
   5.884409e+01  -1.604133e+01
   2.486738e+01   1.024379e+02
  -6.161563e+01   8.932506e+01
  -1.526613e+02   3.658452e+00
  -1.486889e+02  -1.040247e+02
   2.100480e+00  -1.612269e+02
   1.443320e+02  -1.048030e+02
   1.540872e+02  -1.961848e+01
   5.435960e+01   8.930324e+01
  -5.172659e+01   7.038885e+01
  -7.696240e+01   3.745043e+01
   4.529136e+00  -2.620566e+01
   5.263773e+01  -1.835470e+00
  -5.673654e+00  -1.837079e+01
  -4.164016e+01   1.032146e+01
  -8.003415e+01  -3.126314e+01
   5.214882e+00  -1.385150e+02
   1.009991e+02  -1.010914e+02
   1.860402e+02   8.044848e+00
   1.980872e+02   1.173581e+02
   4.329616e+01   1.830785e+02
  -1.019797e+02   1.651819e+02
  -1.011321e+02   5.983581e+00
  -6.929367e+01  -5.754433e+01
  -8.180540e+00   1.025078e+01
  -2.728451e+01   3.308190e+01
  -3.480593e+01  -1.957525e+01
  -4.329021e+01  -3.845693e+01
   1.476473e+01  -1.039035e+02
   9.989065e+01  -4.699920e+01
   1.007838e+02   4.122781e+01
  -2.386286e+01   7.162931e+01
  -1.593577e+02   6.656340e+01
  -1.524085e+02  -3.807059e+01
  -5.899567e+01  -1.627133e+02
   6.933364e+01  -1.526518e+02
   1.771019e+02  -8.806924e+01
   1.796146e+02   8.081896e+01
   9.202719e+01   8.799861e+01
  -6.530591e+01   1.099517e+02
  -6.682823e+01   9.169891e+01
  -6.650143e+01   7.179650e+01
  -4.846866e+01   1.140202e+02
  -8.979341e+01   4.743775e+01
  -9.434012e+01  -3.412193e+01
  -8.759708e+01  -1.597702e+02
  -4.319207e+00  -1.755594e+02
   9.859092e+01  -8.922924e+01
   1.319152e+02  -2.651182e+00
   1.006198e+02   8.044799e+01
  -1.394215e+01   1.204195e+02
  -4.097737e+01   4.608776e+01
  -5.613939e+01   2.270834e+00
   2.795461e+01  -8.992994e+00
   3.414708e+01   1.018514e+00
   7.755262e+00  -1.639472e+01
  -3.586335e+01  -2.649386e+01
  -3.455206e+01  -1.549386e+01
   6.647817e+01  -2.037791e+01
   1.393002e+02   5.929083e-01
   1.074379e+02   2.966277e+01
   3.171189e+01   6.024805e+01
  -1.102687e+02   6.371966e+01
  -8.518076e+01  -4.933194e+01
  -2.275851e+01  -5.347991e+01
   8.224934e+01  -3.759754e+01
   6.277285e+01   6.044613e+00
  -1.346700e+00   6.071147e+01
  -5.341659e+01   2.624023e+01
  -4.261306e+01  -1.598450e+01
  -1.788272e+01  -2.420651e+01
  -5.244567e+01  -2.732383e+01
  -4.594056e+01   9.290714e+00
  -4.452954e+01  -9.594163e+00
  -4.788074e+01  -5.211108e+01
   1.875412e+01  -9.857097e+01
   1.004088e+02  -8.805735e+01
   1.027366e+02  -1.915622e+01
   8.350856e+01   4.543445e+01
   7.991416e-01   1.033823e+02
  -5.769727e+01   3.531720e+01
  -4.327752e+01  -2.720851e+01
   4.195409e+01   1.289123e+01
   9.444388e+01   5.942465e+01
   2.722882e+01   8.181455e+01
  -9.604505e+01   9.068413e+01
  -1.468657e+02   8.182081e+01
  -1.486958e+02  -8.560818e+00
  -4.329630e+01  -5.149835e+01
   1.500784e+01  -4.636289e+01
   3.637504e+01  -3.120885e+01
  -4.311715e+01   4.808804e+00
  -6.815892e+01  -2.288100e+01
  -1.783704e+01  -7.268382e+01
   7.881312e+01  -9.977911e+01
   1.440904e+02  -4.651139e+01
   1.005036e+02   8.490289e+01
   3.426330e+01   1.271956e+02
  -6.466088e+01   9.150870e+01
  -8.067584e+01  -1.202183e+01
  -2.801193e+01  -1.132153e+02
   2.011052e+01  -8.663365e+01
   3.726366e+01   2.355164e+00
   3.569718e+01   3.119834e+01
   1.862930e+01   2.498921e+00
  -1.681721e+01  -7.165192e+00
   2.649153e+01   2.088097e+01
   4.376177e+01   7.099183e+01
   3.101357e+01   1.066534e+02
  -5.631078e+01   3.110871e+01
  -1.093847e+02  -4.267755e+01
  -8.963933e+01  -5.323384e+01
   1.336589e+00  -2.815817e+01
   8.185883e+01   3.112431e+00
   5.842243e+01  -1.949958e+01
   2.763613e+01  -1.335888e+01
  -3.556339e+01   8.139575e+00
  -2.514098e+00  -1.416768e+00
  -4.660309e-01   2.959255e+01
   4.794371e+00   2.232227e-01
  -5.308608e+01   6.477163e-01
  -5.449466e+01  -3.906288e+01
  -2.004058e+01  -4.101592e+01
   9.702306e+01  -8.764877e+01
   1.622458e+02  -4.497148e+01
   1.193777e+02   4.275599e+01
   3.377403e+01   1.095642e+02
  -6.426910e+01   1.249429e+02
  -5.875905e+01   1.900530e+01
  -3.234854e+01  -1.769799e+01
  -1.470999e+01  -2.092588e+01
  -3.295235e+00   3.411565e+00
   1.096066e+01  -6.608397e+00
  -3.390968e+01  -4.500395e+01
  -4.085092e+00  -9.281034e+01
   3.408647e+00  -3.989849e+01
   6.944382e+01   1.427646e+01
   7.564029e+01   8.584890e+01
   7.828826e+00   9.985130e+01
  -4.654165e+01  -5.235948e+00
  -7.398768e+01  -9.434897e+01
  -5.883754e-01  -7.403659e+01
   6.587519e+01  -4.811773e+01
   9.468003e+01   1.418546e+01
   3.347083e+01   5.090533e+01
  -3.687269e+01   6.916444e+01
  -5.618305e+01   2.596704e+01
   2.507045e+00   2.578938e+01
   5.856929e+01  -7.198511e-01
   2.999938e+01   2.572395e+01
  -5.552825e+01   3.354797e+01
  -1.187233e+02   3.199514e+01
  -5.042931e+01  -1.091413e+01
   1.745520e+01  -8.668303e+01
   5.039614e+01  -6.174192e+01
   7.393644e+00  -3.380236e+01
   5.260202e+00   3.867432e+01
  -1.627231e+01   1.328199e+01
  -2.787833e+01  -1.994742e+01
   5.933589e+00  -6.197065e+00
   2.093416e+01  -4.422677e+01
  -1.904472e+00   1.291515e+01
   3.768850e+01   2.991553e+01
  -2.946734e+00   1.045672e+01
  -3.204278e+00  -3.240703e+01
   1.456873e+01   7.163894e+00
   1.604006e+01   3.966530e+01
  -2.954739e+01   5.561483e+01
  -2.634060e+01   1.167369e+01
  -2.794611e+01  -2.547608e+01
   1.528573e+01  -3.132480e+01
   2.700152e+01  -1.531570e+01
   5.335257e+01   1.379388e+01
  -1.030370e+01   3.202884e+01
  -4.300421e+01   3.719176e+01
  -7.125734e+01  -1.613242e+01
  -3.730392e+01  -6.486532e+01
   2.026278e+01  -2.645827e+01
   7.350105e+01   2.130608e+00
   1.893885e+01   2.302072e+00
  -3.317649e+01  -1.555648e+01
  -1.333438e+01  -3.568063e+00
   4.922394e+01  -1.444928e+01
   3.537135e+01  -6.241187e+00
