
 $NMID
 id='ANONYMOUS ', fmtdat='(2E16.6)'
 volume=1.0
 tramp=1.0
 $END
  -3.581493e+03  -1.716128e+02
  -2.106522e+03  -2.201058e+03
   5.297265e+02  -2.230778e+03
   1.566290e+03  -7.012982e+02
   8.707268e+02   4.711360e+02
  -2.474907e+02   3.765125e+02
  -5.908964e+02  -2.526213e+02
   4.613755e+01  -7.287829e+02
   6.434510e+02  -6.803349e+02
   7.312329e+02   2.010132e+01
   3.918205e+02   5.966634e+02
  -1.017707e+02   6.632142e+02
  -4.054662e+02   5.817579e+01
  -2.651683e+02  -4.837617e+02
   1.696875e+02  -5.589719e+02
   3.751062e+02  -2.151851e+01
   2.585041e+02   4.540132e+02
  -1.588087e+02   5.450166e+02
  -4.954291e+02   1.701530e+02
  -3.294923e+02  -2.341430e+02
  -6.135082e+01  -3.461433e+02
   1.664427e+02  -2.596866e+02
   1.633328e+02  -4.235466e+01
  -4.765144e+01   2.399902e+01
  -2.707798e+02  -7.283987e+01
  -6.323359e+01  -3.091656e+02
   3.194814e+02  -2.586823e+02
   5.867025e+02   5.527674e+01
   3.161264e+02   3.094963e+02
  -2.105970e+02   2.744961e+02
  -5.164601e+02  -1.018134e+02
  -2.374321e+02  -3.619641e+02
   2.057658e+02  -3.285674e+02
   4.307720e+02  -1.352806e+02
   3.519329e+02   1.551029e+02
   7.186931e+01   3.664647e+02
  -1.585372e+02   2.146885e+02
  -6.331369e+01  -1.333621e+02
   1.335781e+02  -2.725927e+02
   2.717844e+02   2.386038e+01
   1.132010e+02   5.129794e+02
  -2.850457e+02   5.045802e+02
  -3.430328e+02   3.554206e+01
  -1.598201e+02  -3.515303e+02
   1.575729e+02  -1.840154e+02
   2.545808e+02   1.975452e+02
  -1.257796e+02   3.865018e+02
  -3.900186e+02   4.886435e+01
  -4.429679e+02  -3.316697e+02
  -1.020142e+02  -4.873051e+02
   2.707275e+02  -2.694289e+02
   4.800115e+02   9.384966e+01
   2.847746e+02   2.407097e+02
  -7.421673e+01   2.810863e+02
  -3.185607e+02   5.018724e+01
  -1.856013e+02  -1.302244e+02
   3.666267e+01  -2.903511e+01
   1.004734e+02   1.076901e+02
  -1.016839e+02   1.093513e+02
  -2.553701e+02  -4.505067e+01
  -6.818948e+01  -2.163025e+02
   1.450672e+02  -1.841859e+02
   3.155826e+02  -8.357706e+01
   1.902919e+02   7.058185e+01
  -7.992596e+00   2.155708e+02
  -2.047398e+02   2.802249e+02
  -2.302903e+02   2.127901e+02
  -2.161826e+02  -1.526587e+02
  -5.326621e+01  -3.103260e+02
   2.215232e+01  -2.838404e+02
   8.423655e+01  -1.418770e+02
   2.410553e+01  -2.202396e+01
   6.829606e+01  -1.035998e+01
   1.574305e+02  -4.380443e+01
   1.772698e+02   1.068111e+02
   1.152400e+02   1.770825e+02
  -9.217194e+01   1.399957e+02
  -1.828635e+02  -3.337507e+01
  -1.058594e+02  -2.556270e+02
   3.746999e+01  -2.297545e+02
   2.306523e+02  -3.344952e+01
   2.564704e+02   1.138203e+02
   1.394881e+02   2.652116e+02
  -7.013692e+01   2.582886e+02
  -1.953172e+02   1.321655e+02
  -1.401380e+02   6.498022e+01
  -1.348610e+02   5.196233e+01
  -2.793838e+02   4.331575e+01
  -3.505762e+02  -5.462474e+01
  -3.008696e+02  -2.494303e+02
   4.428209e+01  -3.692059e+02
   3.362031e+02  -3.394036e+02
   4.161521e+02  -1.394451e+02
   2.651901e+02   9.984831e+01
   3.904163e+01   2.189973e+02
  -1.322569e+02   1.567494e+02
  -4.256825e+01   1.957050e+01
   1.010676e+02  -2.451311e+01
   1.166080e+02   1.818252e+01
  -4.063170e+00   1.382699e+02
  -1.072948e+02   1.100794e+02
  -1.021999e+02  -3.331412e+01
  -1.471739e-01  -1.211720e+02
   1.733911e+02   1.794216e+01
   1.044591e+02   2.073863e+02
  -6.476278e+01   2.897757e+02
  -2.188291e+02   1.668472e+02
  -2.807818e+02  -9.395782e+01
  -2.134042e+02  -1.870423e+02
  -2.599715e+01  -2.420374e+02
   1.425755e+02  -1.221687e+02
   1.192621e+02  -1.026001e+00
   4.261803e+01   1.894387e+01
  -6.557628e+01  -5.430265e+01
  -1.225689e+01  -8.066483e+01
   7.691421e+01  -8.799068e+01
   1.154277e+02  -7.495352e+00
   6.467692e+01   6.918600e+01
  -5.205107e+01  -2.163652e+01
  -4.095817e+01  -6.130814e+01
   1.174081e+02  -5.964362e+01
   2.356028e+02   1.427734e+01
   1.990486e+02   1.457487e+02
  -2.331648e+01   2.411845e+02
  -1.675951e+02   1.697392e+02
  -2.104260e+02   6.510256e+01
  -1.400661e+02  -5.330976e+01
   2.552516e+01  -6.705032e+01
   5.087778e+01  -6.699623e+00
  -4.869916e+01   6.447997e+01
  -1.794366e+02   2.021071e+01
  -1.621259e+02  -1.083443e+02
  -4.840723e+01  -1.663303e+02
   9.619156e+01  -1.206598e+02
   1.106646e+02  -1.659342e+01
   3.410168e+01   2.313107e+01
  -2.702882e+01   2.305834e+00
  -3.937314e+01  -7.821771e+01
   1.092891e+02  -1.042201e+02
   1.842974e+02  -4.889288e+00
   1.751077e+02   1.042960e+02
   1.427438e+01   2.022887e+02
  -1.481404e+02   1.279804e+02
  -1.585453e+02   3.260682e+01
  -7.052619e+01  -1.267730e+02
   6.692519e+01  -7.264280e+01
   5.944911e+01  -1.840179e+01
   5.989035e+00  -1.996024e-01
  -4.918292e+01   1.569683e+01
   3.418313e+00   1.182939e+01
   8.970297e+01   1.592014e+00
   6.974509e+01   7.333556e+01
  -1.388383e+01   1.347238e+02
  -1.332055e+02   1.159154e+02
  -2.289988e+02   6.861104e+00
  -2.091224e+02  -1.466101e+02
  -3.395092e+01  -2.137164e+02
   9.804051e+01  -1.567382e+02
   1.239752e+02  -2.936053e+01
   9.064993e+01   3.336080e+01
   2.384602e+01   1.545671e+01
   6.349210e+01  -1.819978e+01
   1.063905e+02  -8.901778e-01
   3.767264e+01   5.876762e+01
  -6.267625e+01   5.965897e+01
  -8.362868e+01   4.923391e+01
  -7.932799e+01  -5.863754e+01
   3.054638e+01  -9.248772e+01
   1.254249e+02  -7.113283e+01
   1.710030e+02   5.284733e+01
   5.928437e+01   1.930894e+02
  -1.222273e+02   2.025498e+02
  -2.348087e+02   5.348616e+01
  -2.143415e+02  -7.667142e+01
  -8.920513e+01  -1.573939e+02
   3.363662e+01  -1.124919e+02
   9.319276e+01  -8.326284e+01
   9.890495e+01  -5.353658e+01
   5.091852e+01  -6.261632e+01
   9.064735e+01  -5.090619e+01
   9.197489e+01   2.191464e+01
   9.605349e+01   1.231629e+02
   3.663680e+00   1.975051e+02
  -8.238890e+01   1.099082e+02
  -1.506163e+02  -1.531197e+01
  -9.031090e+01  -1.327329e+02
   1.984675e+01  -1.550876e+02
   4.825274e+01  -7.851262e+01
   6.020534e+01   2.790611e+01
   1.238268e+01   4.058793e+01
  -1.853116e+01   1.999841e+01
   4.371559e+00  -2.741915e-02
   8.743927e+01   1.780328e+01
   7.658355e+00   2.617048e+01
  -8.185389e+01   4.016471e+01
  -1.592012e+02   9.649921e+00
  -8.578301e+01  -4.110138e+01
  -2.289268e+01  -8.574695e+01
   1.066005e+02  -5.261088e+01
   1.172571e+02   3.934250e+01
   9.082625e+00   5.105768e+01
  -7.476294e+01   2.943654e+01
  -6.353431e+01  -4.330931e+01
  -5.078840e-01  -7.558144e+01
   6.977549e+01  -2.565225e+01
   5.442909e+01  -1.559795e+00
   1.646753e+01   3.335403e+01
   1.782289e+01   5.766452e+01
   5.951927e+01  -2.506538e+01
   5.546978e+01   1.855254e+01
   3.548481e+01   2.589951e+01
  -6.946375e+01   8.665269e+01
  -1.383805e+02   9.112328e+01
  -1.155783e+02   2.482074e+01
  -1.101389e+02  -7.829966e+01
  -1.109524e+01  -1.370807e+02
   8.867025e+01  -5.221830e+01
   5.736655e+01   2.433790e+01
  -3.159864e+01   2.542732e+01
  -9.447591e+01  -6.652058e+01
  -5.158950e+01  -1.144588e+02
   7.452814e+01  -9.442535e+01
   1.871790e+02  -4.601777e+01
   1.386913e+02   3.000331e+01
   3.099710e+01   6.829067e+01
  -5.943961e+01   4.507480e+01
  -4.968482e+01   3.943718e+00
   2.516454e+01  -4.724048e+01
   6.672206e+01   3.411784e+01
   1.712759e+01   1.104251e+02
  -7.525284e+01   1.434134e+02
  -1.849867e+02   5.552530e+01
  -1.012519e+02  -8.797620e+01
  -2.396459e+01  -1.893605e+02
   7.195157e+01  -1.100606e+02
   6.575531e+01   8.282142e+00
   5.202711e+01   1.299941e+02
  -7.895470e+00   9.753802e+01
  -2.555759e+01   2.472120e+01
   2.798409e+00  -5.227004e+01
  -1.797395e+01  -2.822916e+01
   1.605888e+01   4.480409e+01
  -1.501844e+01  -8.056001e+00
  -4.791845e+01  -9.065357e+01
  -5.457123e-02  -9.192336e+01
   4.502906e+01  -3.860612e+01
   1.334384e+02   6.523077e+01
   8.227345e+01   7.083398e+01
  -1.948306e+01   2.805408e+01
  -8.636294e+01  -7.815049e+00
  -7.063609e+01   5.773354e+01
  -2.317886e+01  -1.164518e+01
   2.752873e+01  -4.114143e+01
  -7.204368e+00  -2.099919e+01
  -9.420027e+00  -2.641105e+01
  -2.245821e+01  -2.029224e+01
   7.641111e+01   1.638273e+01
   8.576348e+01   4.109564e+01
   6.679517e+00   8.357082e+01
  -1.216226e+02   1.256913e+02
  -1.829941e+02   4.659970e+01
  -1.416433e+02  -6.973889e+01
  -4.736590e+01  -1.786524e+02
   6.372561e+01  -1.506565e+02
   1.006888e+02  -5.601736e+01
   7.173226e+01   3.201671e+01
  -9.862429e+00   3.691791e+01
   9.960295e+00   3.938150e+01
   7.601408e+00   2.171407e+01
   3.586137e+01   2.727243e+01
   1.942435e+01   7.925945e+01
  -3.695489e+01   5.629387e+01
  -1.010254e+02  -6.819123e-01
  -7.085700e+01  -8.298682e+01
   6.561211e+00  -1.041208e+02
   5.233204e+01  -1.060645e+01
   8.630835e+01   6.307782e+01
   2.182589e+01   1.117745e+02
  -8.424631e+01   7.284442e+01
  -1.134786e+02  -4.871169e+01
  -3.470098e+01  -5.662656e+01
   2.155581e+01  -5.327776e+01
   6.213346e+01  -9.366062e+00
   7.491493e+00   5.338615e+00
  -8.705000e+01   1.369933e+01
  -3.985862e+01  -1.897959e+01
   5.292157e+01  -4.869230e+01
   1.015422e+02  -1.258045e+01
   5.786532e+01   3.292635e+01
  -2.192366e+01   8.826934e+01
  -7.844963e+00   6.774168e+01
  -4.064950e+01   1.867015e+01
  -3.542879e+01  -4.304876e+01
   2.156051e+01  -1.189773e+01
   4.659544e+01   2.696498e+01
   2.598517e+01   3.701628e+01
  -2.109917e+01   4.952672e+01
  -2.654067e+01  -9.886331e+00
  -3.337296e+01  -3.331071e+01
  -2.205165e+01  -2.342156e+01
  -5.974165e+00   1.521068e+01
  -1.205654e+01  -5.613602e+00
  -2.484413e+00  -1.909115e+01
   4.246786e+01  -5.240131e+01
   3.375291e+01  -6.767977e-01
   3.037413e+01   1.968457e+01
  -4.175907e+00   6.446727e+01
  -3.792302e+01   1.838795e+01
  -3.221776e+01   6.974543e+00
  -1.818366e+01  -3.800335e+01
   3.923170e+01  -3.593519e+01
   7.517450e+01   1.521726e+01
   4.694193e+01   2.964703e+01
  -1.551869e+01   4.971701e+01
  -6.469123e+01   3.242942e+01
  -2.938923e+01  -2.483422e+01
   7.838719e+00  -1.990864e+01
   4.695024e+01   1.003148e+01
  -2.352581e+01   3.198026e+01
  -5.377703e+01  -1.023366e+01
