
 $NMID
 id='ANONYMOUS ', fmtdat='(2E16.6)'
 volume=1.0
 tramp=1.0
 $END
   4.072426e+03  -1.035043e+02
   2.879279e+03   2.180577e+03
  -4.803001e+02   2.578283e+03
  -1.912324e+03   1.089047e+03
  -1.024628e+03  -4.872997e+02
   4.472179e+02  -4.868264e+02
   8.331616e+02   3.629030e+02
   4.290333e+01   9.919792e+02
  -7.346677e+02   7.033858e+02
  -8.850532e+02  -7.557791e+01
  -4.498918e+02  -8.225472e+02
   2.202404e+02  -7.526349e+02
   5.884685e+02  -1.057291e+02
   3.427756e+02   6.943469e+02
  -2.413889e+02   7.664636e+02
  -6.259729e+02  -8.757300e+00
  -2.967209e+02  -6.420978e+02
   2.830754e+02  -6.376291e+02
   6.168700e+02  -1.280732e+02
   4.176543e+02   3.493656e+02
   5.720576e+01   4.308571e+02
  -2.674303e+02   2.539110e+02
  -1.578547e+02  -1.396888e+01
   1.670630e+02  -7.458403e+01
   4.216630e+02   2.247515e+02
   1.394247e+02   4.835479e+02
  -4.903986e+02   3.579458e+02
  -7.914630e+02  -8.202906e+01
  -3.702148e+02  -5.273744e+02
   4.147476e+02  -4.652199e+02
   6.477545e+02   5.280662e+01
   3.350519e+02   4.766035e+02
  -2.971114e+02   4.608554e+02
  -5.583153e+02   1.846914e+02
  -3.959720e+02  -2.795216e+02
  -2.525739e+01  -4.628253e+02
   2.219951e+02  -2.453938e+02
   1.799874e+02   2.086379e+02
  -2.236020e+02   3.577643e+02
  -4.096858e+02  -3.820162e+01
  -2.045755e+02  -6.957446e+02
   3.372161e+02  -6.436902e+02
   5.871525e+02  -3.611277e+01
   2.580651e+02   5.406017e+02
  -2.856538e+02   3.152454e+02
  -3.601278e+02  -3.306194e+02
   6.931264e+01  -5.096690e+02
   5.694569e+02  -1.058777e+02
   5.865014e+02   3.613805e+02
   1.331985e+02   5.947898e+02
  -3.980838e+02   3.718889e+02
  -6.081489e+02  -1.058972e+02
  -3.607414e+02  -3.943108e+02
   1.179864e+02  -3.303151e+02
   4.177567e+02  -9.618667e+01
   2.432484e+02   1.434689e+02
  -9.483982e+01   1.233799e+02
  -1.786621e+02  -9.772867e+01
   9.156452e+01  -1.493618e+02
   3.303579e+02   2.184481e+01
   1.676197e+02   2.418392e+02
  -1.908481e+02   2.733770e+02
  -3.361740e+02   1.010470e+02
  -2.007268e+02  -1.204047e+02
   3.276238e+01  -2.956940e+02
   2.990904e+02  -3.218699e+02
   3.812372e+02  -1.476431e+02
   2.756011e+02   1.595806e+02
   1.641703e+02   4.285614e+02
  -1.246083e+02   3.312991e+02
  -1.265102e+02   1.251506e+02
  -1.410623e+01   3.079624e+01
  -5.201519e+01   9.118823e+01
  -1.805348e+02   1.298972e+02
  -2.543658e+02  -3.569057e+01
  -1.603666e+02  -2.718279e+02
   2.926559e+01  -1.998306e+02
   2.269651e+02  -2.962718e+01
   1.602738e+02   2.475847e+02
   9.008535e+00   2.920612e+02
  -2.709789e+02   1.132717e+02
  -3.583302e+02  -1.547324e+02
  -1.558597e+02  -3.125806e+02
   9.781523e+01  -2.833158e+02
   2.109461e+02  -1.498759e+02
   1.441603e+02  -2.524556e+01
   8.787953e+01  -3.351701e+01
   2.111085e+02  -5.570916e+01
   4.014396e+02   5.239384e+01
   3.286559e+02   2.835506e+02
  -4.854072e+00   4.297006e+02
  -3.353069e+02   4.299266e+02
  -4.642503e+02   2.002847e+02
  -3.062388e+02  -1.107511e+02
  -3.178254e+01  -3.063376e+02
   1.235523e+02  -2.367258e+02
   2.262461e+01  -1.590642e+01
  -7.483312e+01   4.738656e+01
  -2.018020e+02  -1.083218e+01
  -6.653543e+01  -1.836929e+02
   1.192057e+02  -1.877648e+02
   1.567488e+02   2.861514e+01
  -1.514399e+01   1.117378e+02
  -1.848154e+02   1.373219e+01
  -1.390011e+02  -2.211673e+02
   6.234913e+01  -3.316355e+02
   2.603642e+02  -1.974027e+02
   3.099725e+02   7.280273e+01
   2.670738e+02   2.956526e+02
   5.865030e+01   2.895193e+02
  -1.242139e+02   1.540614e+02
  -1.602416e+02   2.753408e+01
  -6.166858e+01  -5.010245e+01
   1.057493e+02   3.483723e+01
   2.506306e+01   1.449470e+02
  -1.383644e+02   1.010623e+02
  -1.956966e+02  -2.597552e+01
  -2.597450e+01  -6.612506e+01
   7.553335e+01  -4.584723e+01
   5.123710e+01   8.874947e+01
  -1.289327e+02   1.114822e+02
  -2.678545e+02  -2.666923e+01
  -2.574468e+02  -1.319716e+02
  -1.805113e+01  -2.400100e+02
   1.901343e+02  -2.425277e+02
   2.434017e+02  -9.185626e+01
   1.585234e+02   5.293688e+01
  -2.005058e+01   1.007533e+02
  -9.999930e+01   1.886332e+01
   4.729148e+01  -9.826254e+01
   2.065984e+02  -6.271051e+01
   1.874686e+02   1.128696e+02
   5.454748e+01   1.809419e+02
  -1.042747e+02   1.239706e+02
  -1.266841e+02   3.955162e+01
  -6.319445e+01  -5.310058e+01
   4.436353e+01   2.879337e+00
   2.357186e+01   9.207183e+01
  -5.887490e+01   1.149809e+02
  -1.854092e+02   1.418170e+01
  -1.236346e+02  -1.001399e+02
  -1.963335e+01  -2.257501e+02
   1.374020e+02  -1.518334e+02
   1.745739e+02  -7.886811e+00
   6.218020e+01   9.638801e+01
  -5.406656e+01   8.403323e+01
  -6.963226e+01   2.261077e+01
   8.960824e+00  -1.935342e+01
   1.343570e+01  -9.274567e+00
   1.084463e+01   1.128563e+01
  -4.430417e+01  -2.054707e+01
  -8.152194e+01  -8.183854e+01
   5.776328e+00  -1.684591e+02
   1.551571e+02  -9.522854e+01
   2.075930e+02  -1.191666e+01
   2.006602e+02   1.435333e+02
   2.736965e+01   2.335936e+02
  -1.273944e+02   1.691298e+02
  -1.329387e+02   3.028216e+01
  -5.756567e+01  -5.721782e+01
   1.106560e+01  -5.179008e+01
  -2.795279e+01   3.009212e+01
  -8.389262e+01   2.894039e+01
  -3.582884e+01  -3.263608e+01
   4.572794e+01  -1.137784e+02
   9.893243e+01  -5.222443e+01
   9.172505e+01   2.167878e+01
  -1.833213e+01   1.184704e+02
  -1.641142e+02   1.076627e+02
  -1.868775e+02  -4.580016e+01
  -1.104337e+02  -1.945394e+02
   9.324894e+01  -2.203393e+02
   2.586362e+02  -7.161128e+01
   2.378478e+02   1.021489e+02
   7.455833e+01   1.677007e+02
  -3.657138e+01   1.318695e+02
  -9.218815e+01   6.640966e+01
  -7.899945e+01   4.561769e+01
  -5.373113e+01   1.033022e+02
  -9.681807e+01   4.173731e+01
  -1.325700e+02  -3.729475e+01
  -1.057378e+02  -1.319298e+02
  -1.642062e+01  -1.984084e+02
   6.612400e+01  -1.416755e+02
   1.620318e+02  -6.896681e+00
   1.068081e+02   9.307014e+01
   2.875113e+01   1.193750e+02
  -6.778584e+01   7.801350e+01
  -4.916851e+01  -1.100886e+01
  -4.295311e+00  -5.720308e+01
   4.598424e+01  -1.470956e+01
  -5.451313e+01  -1.668868e+01
  -8.687773e+01  -2.769151e+01
  -1.747902e+01  -3.024130e+01
   4.007186e+01  -3.477210e+01
   1.417611e+02  -3.648673e+01
   1.076916e+02   2.782082e+01
   2.130648e+01   7.403724e+01
  -1.382836e+02   7.130071e+01
  -1.371471e+02   1.409375e+01
  -1.268737e+01  -4.381977e+01
   8.576308e+01  -4.996179e+01
   7.517447e+01   3.381910e+01
   2.430840e+00   8.404168e+01
  -7.050269e+01   3.194408e+01
  -8.376332e+01  -2.523308e+01
  -3.740522e+01  -4.981041e+01
  -3.222421e+01  -3.559328e+01
  -7.026326e+01  -6.017991e+00
  -6.177413e+01   5.940190e+00
  -4.638510e+01  -8.805312e+01
   3.014817e+01  -1.513203e+02
   1.337177e+02  -1.276149e+02
   1.804148e+02  -1.634818e+01
   1.207660e+02   9.783306e+01
  -5.186833e+00   1.214682e+02
  -9.885202e+01   2.747696e+01
  -6.434582e+01  -1.430778e+01
   6.796528e+01  -3.399226e+01
   1.353576e+02   4.064853e+01
   5.012763e+01   1.004213e+02
  -1.064560e+02   1.092360e+02
  -1.701316e+02   1.798511e+01
  -1.278273e+02  -3.101998e+01
  -4.105414e+01  -8.417600e+01
   4.314629e+01  -5.264762e+01
   7.386059e+01  -7.811025e+00
  -1.655228e+00   2.750726e+01
  -6.064291e+01  -1.901202e-01
  -1.681577e+01  -1.516762e+02
   9.608460e+01  -1.390012e+02
   1.791770e+02  -7.008875e+01
   1.364269e+02   1.007544e+02
  -1.821013e+00   2.009764e+02
  -1.107129e+02   1.284644e+02
  -1.000508e+02  -9.811837e+00
  -5.959222e+01  -1.566046e+02
  -1.324556e+01  -9.366254e+01
   3.282156e+01  -1.029382e+01
   5.867545e+01   3.584278e+01
   3.083761e+01  -7.775190e+00
   1.696519e+01  -1.888591e+01
   2.200075e+01   1.324646e+01
   4.337156e+01   6.348705e+01
   3.664423e+01   1.320636e+02
  -4.935843e+01   4.804634e+01
  -1.152515e+02  -2.206188e+01
  -1.278115e+02  -8.332266e+01
  -2.511001e+01  -3.385968e+01
   9.094048e+01  -3.011884e+01
   7.185359e+01  -3.170867e+01
   5.187279e+01   4.271441e-01
  -2.754508e+01   3.791218e+01
  -1.317198e+01   8.264438e+00
   4.654900e+01   3.197432e+01
   5.453438e+00  -1.138239e+00
  -7.280482e+01  -1.631766e+00
  -9.192124e+01  -3.048904e+01
  -1.131534e+01  -9.994843e+01
   1.002784e+02  -1.425177e+02
   1.750217e+02  -5.528461e+01
   1.232511e+02   2.175753e+01
   2.041286e+01   1.559308e+02
  -4.650261e+01   1.386442e+02
  -9.280897e+01   6.526499e+01
  -8.631957e+01  -9.054722e+00
  -2.753965e+01  -6.491069e+01
  -2.456017e+00   1.650729e+01
   1.034852e+01  -7.186017e-01
  -1.161614e+01  -4.400483e+01
  -4.830811e+00  -9.896182e+01
   4.363410e+01  -6.278267e+01
   8.638391e+01   3.628842e+01
   6.660461e+01   1.051255e+02
   3.324347e+01   1.077112e+02
  -7.193928e+01   5.672102e+01
  -1.037763e+02  -8.623085e+01
  -2.666310e+01  -1.038862e+02
   8.764997e+01  -3.949870e+01
   1.123483e+02   2.061265e+01
   5.577841e+01   6.086493e+01
  -1.696157e+01   6.130929e+01
  -2.378031e+01   9.852806e+00
   1.923497e+01   2.009431e+01
   6.486632e+01   1.445404e+01
   3.470027e-01   1.266707e+01
  -7.539919e+01   9.232386e+01
  -1.265754e+02   3.411792e+01
  -4.568266e+01  -5.133627e+01
   2.540331e+01  -8.163376e+01
   6.946617e+01  -7.269949e+01
   3.000589e+01  -1.433552e+01
   5.193593e+00   5.653151e+01
  -5.254995e+01   2.521886e+01
  -1.453109e+01  -1.040398e+01
  -3.507116e+01  -8.209576e+01
  -5.684241e+00  -3.846628e+01
   4.067772e+01   1.765878e+01
   6.713474e+00   2.285489e+01
   3.261897e+01  -1.707002e+01
   1.228911e+01  -5.789042e+01
   1.000705e+01   2.151408e+01
  -1.944247e+01   5.778119e+01
  -8.713147e+00   6.207405e+01
  -6.012444e+01   2.558836e+00
  -3.552533e+01  -5.150781e+01
  -4.462345e+00  -6.076735e+01
   4.995559e+01  -5.734583e+01
   5.684275e+01   3.788122e+01
   1.800153e+01   8.262418e+01
  -6.910418e+01   4.006756e+01
  -1.015376e+02   8.581956e+00
  -3.316204e+01  -4.327222e+01
   3.996403e+01  -5.431469e+01
   7.385920e+01  -2.106953e+01
   2.636125e+01  -6.550346e+00
  -6.147246e+01   7.636056e+00
  -1.239081e+01  -3.606618e+01
   2.940020e+01  -3.500301e+01
   6.426409e+01   1.278572e+01
