
 $NMID
 id='ANONYMOUS ', fmtdat='(2E16.6)'
 volume=1.0
 tramp=1.0
 $END
  -4.086339e+03   3.887284e+02
  -3.059251e+03  -2.153310e+03
   4.765521e+02  -2.895245e+03
   2.022001e+03  -9.671788e+02
   1.028148e+03   5.529229e+02
  -5.285924e+02   6.037128e+02
  -9.205300e+02  -3.930491e+02
  -2.592288e+01  -9.144960e+02
   7.591588e+02  -7.905577e+02
   9.320955e+02   1.333542e+02
   4.376926e+02   8.306896e+02
  -2.543824e+02   8.266814e+02
  -6.058652e+02   1.066739e+02
  -3.359232e+02  -7.219651e+02
   2.923084e+02  -7.387765e+02
   6.380412e+02   2.675188e+01
   3.223974e+02   6.784176e+02
  -3.449614e+02   6.707209e+02
  -5.873038e+02   1.408948e+02
  -3.997857e+02  -3.735354e+02
   1.787275e+01  -4.346043e+02
   2.422232e+02  -2.386683e+02
   1.590294e+02   1.916032e+01
  -1.758406e+02   3.668701e+01
  -3.917921e+02  -1.752613e+02
  -1.236241e+02  -4.232939e+02
   4.857571e+02  -4.029502e+02
   8.290817e+02   1.064867e+02
   3.299734e+02   5.667314e+02
  -4.153245e+02   4.365839e+02
  -7.021059e+02  -9.866191e+01
  -2.914723e+02  -4.824154e+02
   3.070416e+02  -4.942223e+02
   5.699218e+02  -1.532241e+02
   3.623482e+02   2.717386e+02
   3.473292e+01   4.245384e+02
  -1.945962e+02   2.418046e+02
  -1.177510e+02  -2.152801e+02
   1.856646e+02  -2.991265e+02
   3.807983e+02   4.698920e+01
   2.147310e+02   6.703378e+02
  -3.588785e+02   5.706369e+02
  -5.561525e+02   5.552521e+01
  -2.383757e+02  -5.027180e+02
   2.878272e+02  -3.767656e+02
   3.312502e+02   2.625990e+02
  -3.835403e+01   4.800177e+02
  -5.236317e+02   1.744546e+02
  -5.498028e+02  -3.943284e+02
  -1.633802e+02  -5.836385e+02
   3.765850e+02  -3.542565e+02
   6.057866e+02   8.171499e+01
   4.012549e+02   3.743173e+02
  -8.699406e+01   3.675102e+02
  -3.861185e+02   8.471689e+01
  -2.670681e+02  -1.924269e+02
   9.427641e+01  -1.247231e+02
   1.964793e+02   1.239668e+02
  -9.431094e+01   1.948370e+02
  -3.239680e+02  -1.352209e+00
  -1.706875e+02  -2.747168e+02
   1.892765e+02  -2.814629e+02
   3.762144e+02  -1.029449e+02
   2.138309e+02   7.772755e+01
  -1.291179e+01   2.842081e+02
  -2.819600e+02   3.099101e+02
  -3.541300e+02   1.573314e+02
  -2.766462e+02  -1.773338e+02
  -8.395941e+01  -3.986354e+02
   1.182204e+02  -3.266361e+02
   1.164048e+02  -9.458301e+01
   2.130491e+01  -3.973060e+01
   4.870125e+01  -7.640337e+01
   1.816780e+02  -1.374377e+02
   2.717380e+02   5.395560e+01
   1.564764e+02   2.597547e+02
  -4.733885e+01   2.529986e+02
  -2.470324e+02   3.130529e+01
  -2.149320e+02  -2.408021e+02
   2.383193e+01  -2.750177e+02
   2.682396e+02  -1.106397e+02
   3.577284e+02   1.631051e+02
   1.819136e+02   2.999362e+02
  -6.084822e+01   2.863242e+02
  -2.047017e+02   1.041587e+02
  -1.476206e+02   1.375835e+01
  -7.068484e+01   3.219664e+01
  -2.186082e+02   8.402125e+01
  -3.665124e+02  -5.017643e+01
  -3.071965e+02  -2.988983e+02
   1.209100e+01  -4.638812e+02
   3.601535e+02  -4.186130e+02
   4.710112e+02  -2.054968e+02
   3.272051e+02   9.486340e+01
   5.322906e+01   2.553870e+02
  -1.229042e+02   2.452215e+02
  -4.869875e+01   2.789646e+01
   9.173195e+01  -9.333780e+01
   1.983843e+02   7.152326e+00
   6.881360e+01   2.099229e+02
  -1.346717e+02   1.598424e+02
  -1.395547e+02  -5.710143e+01
   1.783629e+01  -1.384839e+02
   2.097991e+02  -1.757253e+01
   1.487869e+02   2.026192e+02
  -2.777840e+01   3.168011e+02
  -2.644097e+02   2.236896e+02
  -3.324475e+02  -3.534284e+01
  -2.678437e+02  -2.652644e+02
  -9.722641e+01  -2.975215e+02
   1.320653e+02  -1.423796e+02
   1.647756e+02   1.836138e+01
   5.061772e+01   4.744770e+01
  -7.831283e+01  -4.056246e+01
  -1.341564e+01  -1.388437e+02
   1.288905e+02  -9.804383e+01
   1.524754e+02   1.470385e+01
   1.931602e+01   5.692499e+01
  -8.078953e+01   3.302136e+01
  -5.069392e+01  -6.938988e+01
   1.154623e+02  -9.448810e+01
   2.703829e+02   3.927821e+01
   2.531824e+02   1.484251e+02
   3.385474e+01   2.600091e+02
  -1.822380e+02   2.517068e+02
  -2.438949e+02   1.051388e+02
  -1.699903e+02  -5.139153e+01
   2.789613e+01  -9.234655e+01
   9.037408e+01  -5.203001e+00
  -4.794394e+00   9.291015e+01
  -1.952623e+02   6.463742e+01
  -1.859802e+02  -1.224781e+02
  -5.551962e+01  -2.041270e+02
   8.608357e+01  -1.472360e+02
   1.179093e+02  -3.857722e+01
   7.924492e+01   7.808955e+01
  -4.075447e+01   3.129067e+00
  -4.258053e+01  -1.046739e+02
   8.871917e+01  -1.346877e+02
   1.971596e+02  -4.870318e+00
   1.730953e+02   1.235805e+02
   1.880573e+01   2.286926e+02
  -1.512667e+02   1.935075e+02
  -1.901960e+02   1.417601e+01
  -6.938416e+01  -9.176489e+01
   6.094951e+01  -9.990401e+01
   7.112070e+01  -2.170955e+01
  -7.614854e+00   1.153422e+01
  -1.755354e+01   1.119755e+00
   6.631437e+00  -1.220456e+01
   6.811635e+01   1.326585e+01
   1.109389e+02   9.458629e+01
   3.944475e+00   1.397182e+02
  -1.269830e+02   1.239453e+02
  -2.120220e+02   4.504875e+01
  -2.087045e+02  -1.414424e+02
  -4.459125e+01  -2.485156e+02
   1.231270e+02  -1.789401e+02
   1.168946e+02  -3.370857e+01
   5.793664e+01   6.131090e+01
  -1.014487e+01   3.443240e+01
   4.367954e+01   4.988361e+00
   6.728415e+01  -4.516512e+01
   2.764509e+01   2.834093e+01
  -3.192442e+01   1.009840e+02
  -1.145462e+02   7.127166e+01
  -6.429258e+01  -1.286139e+01
   3.641319e+00  -1.129699e+02
   1.441795e+02  -1.053898e+02
   1.789214e+02   4.437619e+01
   9.926757e+01   1.701264e+02
  -6.923778e+01   2.160331e+02
  -2.118047e+02   9.516493e+01
  -2.372251e+02  -9.476219e+01
  -1.296801e+02  -1.712962e+02
   6.853805e+00  -1.366582e+02
   9.609054e+01  -8.012332e+01
   4.478794e+01  -3.776731e+01
   6.910171e+01  -1.039158e+02
   1.147556e+02  -8.238379e+01
   1.530511e+02   4.177997e+00
   1.417564e+02   1.648170e+02
   2.826600e+01   2.062620e+02
  -1.144455e+02   1.772729e+02
  -1.814344e+02  -8.004330e+00
  -1.453543e+02  -1.156727e+02
  -5.188157e+01  -1.219969e+02
   6.741000e+01  -8.044669e+01
   4.621648e+01   4.052686e+01
   3.739737e+01   1.655623e+00
   1.039370e+01   2.669695e+01
   5.093564e+01   2.742822e+01
   7.856184e+01   1.974932e+01
   3.500712e+01   4.100784e+01
  -5.091222e+01   1.855414e+01
  -1.926898e+02   3.032736e+01
  -1.430393e+02  -3.389909e+01
  -2.967831e+01  -7.792312e+01
   1.305094e+02  -7.375051e+01
   1.483242e+02  -3.159682e+01
   2.598441e+01   6.121796e+01
  -8.678990e+01   2.743500e+01
  -8.915570e+01   4.973253e+00
  -2.585045e+01  -9.600583e+01
   6.192809e+01  -5.871255e+01
   7.199713e+01  -1.070934e+00
   5.230410e+01   6.340586e+01
   3.883019e+01   4.535503e+01
   7.290960e+01  -6.175950e+01
   6.826331e+01  -1.721618e+01
   6.743229e+01   9.404663e+01
  -2.476050e+01   1.796580e+02
  -1.336822e+02   1.229729e+02
  -1.765895e+02   3.126775e+01
  -1.442713e+02  -9.797514e+01
  -2.361900e+01  -1.095624e+02
   9.316031e+01  -2.698085e+01
   5.132308e+01   1.903322e+01
  -4.739664e+01   3.545567e+01
  -1.548890e+02  -3.015818e+01
  -7.998955e+01  -9.347726e+01
   9.569688e+01  -7.468730e+01
   1.841404e+02  -2.709769e+01
   1.739587e+02   5.414016e+01
   1.795720e+01   8.351689e+01
  -8.103947e+01   5.529602e+01
  -6.915265e+01  -6.882865e+00
   4.140773e+01  -4.324100e+01
   8.387898e+01   1.694972e+01
   4.297067e+01   1.247228e+02
  -7.610614e+01   1.575367e+02
  -1.620637e+02   6.169552e+01
  -1.426622e+02  -1.144544e+02
  -9.668246e+00  -2.049021e+02
   8.524645e+01  -1.495715e+02
   1.069846e+02  -5.262862e+00
   7.970300e+01   1.201009e+02
  -3.181546e+01   1.230505e+02
  -2.801491e+01   1.109299e+00
  -6.962231e+01  -4.000148e+01
  -4.458365e+01  -2.519988e+01
   9.089857e+00   3.562320e+00
   5.969958e+00  -1.631571e+01
  -5.737978e+01  -6.301309e+01
  -4.257810e+01  -9.333978e+01
   4.668805e+01  -7.118223e+01
   1.479092e+02   2.170254e+01
   1.245130e+02   8.316903e+01
   2.676742e+01   7.620384e+01
  -8.132173e+01   5.427027e+01
  -7.435232e+01   2.640143e+01
  -1.640796e+01   2.578196e+01
   4.084063e+01  -2.410189e+01
   3.241107e+01   4.990553e+00
  -3.569578e+01   1.531079e+00
   3.300821e+00  -4.320896e+00
   9.011830e+01   1.231709e+01
   1.075642e+02   2.170233e+01
   3.619370e+00   1.000891e+02
  -1.083270e+02   1.210040e+02
  -1.862142e+02   7.656287e+01
  -1.503932e+02  -5.797996e+01
  -4.348525e+01  -1.496971e+02
   4.987015e+01  -1.451241e+02
   8.852618e+01  -7.925039e+01
   9.766450e+01   1.012232e+01
   5.778151e+01   2.602542e+01
   1.945132e+01   2.588432e+01
   1.637296e+01   1.151523e+01
   3.296798e+01   4.434942e+01
   1.975981e+01   1.088242e+02
  -3.088404e+01   5.828411e+01
  -8.435030e+01  -1.636040e+01
  -5.741299e+01  -9.667163e+01
  -2.321145e+01  -9.845262e+01
   5.753793e+01  -3.940340e+01
   1.090997e+02   7.674711e+01
   2.064829e+01   1.042384e+02
  -5.725975e+01   6.953679e+01
  -1.255014e+02  -9.404630e+00
  -4.142942e+01  -8.901301e+01
   1.775762e+01  -4.960005e+01
   5.289370e+01  -4.075880e+01
   2.761997e+01   3.047846e+00
  -5.341842e+01   8.317844e+00
  -4.374903e+00  -5.139232e+01
   8.759036e+01  -5.243481e+01
   1.095415e+02  -5.551507e+01
   7.142711e+01   2.387392e+01
  -6.102183e-01   9.966932e+01
  -5.029597e+01   8.926103e+01
  -6.585313e+01   2.085015e+00
  -6.003502e+00  -2.937232e+01
   3.128133e+01  -5.106390e+01
   4.218266e+01   3.208798e+01
   2.474671e+01   4.442062e+01
  -2.628266e+01   3.460634e+01
  -3.576449e+01  -4.004221e-01
  -3.779576e+01  -2.102618e+01
   4.932561e+00  -2.347952e+01
  -1.083381e+01   3.406061e+01
  -1.281820e+01  -3.659456e-01
  -2.094703e+01  -4.388026e+01
   3.045882e+01  -4.612843e+01
   3.734169e+01   1.622868e+01
   3.650195e+01   6.496343e+01
   1.345578e+01   7.914632e+01
  -2.626679e+01   2.177530e+01
  -5.870878e+01  -5.298767e+01
  -1.911852e+01  -6.063327e+01
   3.874550e+01  -6.207306e+01
   9.197476e+01   1.193574e+01
   6.424367e+01   5.626945e+01
  -2.423759e+01   5.512363e+01
  -6.895314e+01   1.621323e+01
  -2.404994e+01  -3.521955e-01
   4.456863e+01   6.088905e+00
   3.320859e+01   3.300123e+01
  -3.127800e+01   1.179412e+01
  -9.361764e+01   6.627261e+00
