
 $NMID
 id='ANONYMOUS ', fmtdat='(2E16.6)'
 volume=1.0
 tramp=1.0
 $END
   4.625624e+03   3.298353e+02
   2.323148e+03   3.198433e+03
  -1.130339e+03   2.921566e+03
  -2.377299e+03   5.981567e+02
  -9.951132e+02  -9.442968e+02
   8.531250e+02  -5.748911e+02
   9.594221e+02   5.428621e+02
  -1.381573e+02   1.222783e+03
  -9.983047e+02   7.554576e+02
  -1.016154e+03  -2.612048e+02
  -3.583465e+02  -9.519301e+02
   3.947274e+02  -9.277209e+02
   6.795772e+02  -8.770988e+01
   4.119829e+02   7.769097e+02
  -3.508601e+02   7.319817e+02
  -6.446196e+02  -1.949726e+01
  -2.644998e+02  -7.494564e+02
   3.366611e+02  -6.548517e+02
   6.293980e+02   8.325808e+00
   3.953384e+02   4.200967e+02
  -3.973365e+01   4.429469e+02
  -2.942860e+02   2.184411e+02
  -2.604125e+02  -7.682206e+01
   1.335045e+02  -1.045376e+02
   4.082289e+02   1.083872e+02
   2.620544e+02   4.337398e+02
  -4.681986e+02   4.486266e+02
  -8.541622e+02  -6.931320e+01
  -3.877216e+02  -5.860946e+02
   3.796331e+02  -5.361823e+02
   7.687814e+02   2.011936e+01
   3.472931e+02   5.418422e+02
  -3.231750e+02   5.176045e+02
  -5.447303e+02   1.998413e+02
  -4.104234e+02  -2.856455e+02
  -1.444194e+01  -5.144474e+02
   2.685873e+02  -3.099710e+02
   2.139708e+02   2.517837e+02
  -1.813347e+02   4.877526e+02
  -4.675690e+02  -5.489296e+01
  -2.381803e+02  -6.813027e+02
   3.824786e+02  -6.998638e+02
   6.184255e+02   8.681083e+00
   2.426010e+02   5.860864e+02
  -3.621253e+02   3.430383e+02
  -4.342918e+02  -2.993299e+02
   6.260430e+01  -5.871068e+02
   5.925093e+02  -1.575499e+02
   5.832663e+02   4.694472e+02
   1.555160e+02   6.250483e+02
  -4.310282e+02   3.340011e+02
  -6.461124e+02  -9.882970e+01
  -3.347347e+02  -4.355008e+02
   1.789859e+02  -3.509837e+02
   4.749321e+02  -5.866355e+01
   1.939359e+02   2.226852e+02
  -1.729926e+02   9.297020e+01
  -1.555878e+02  -2.010565e+02
   1.806962e+02  -2.113969e+02
   3.716282e+02   5.837352e+01
   1.566994e+02   3.202757e+02
  -2.389135e+02   2.489767e+02
  -3.198395e+02   6.388782e+01
  -1.838128e+02  -9.962848e+01
   1.885935e+01  -2.013800e+02
   2.330821e+02  -3.169343e+02
   3.532941e+02  -2.246790e+02
   2.827884e+02   1.402932e+02
   7.347498e+01   4.543997e+02
  -1.448280e+02   3.706005e+02
  -1.325142e+02   6.752544e+01
  -3.005316e+01  -6.140733e+01
  -6.472144e+00   7.303090e+01
  -1.889981e+02   1.233092e+02
  -2.333967e+02  -5.617963e+01
  -1.539065e+02  -2.854340e+02
   6.402170e+01  -2.760162e+02
   2.498923e+02  -2.998086e+01
   1.727531e+02   2.513984e+02
  -3.144560e+01   2.752753e+02
  -2.878592e+02   1.243452e+02
  -3.626104e+02  -1.892911e+02
  -1.319036e+02  -3.644751e+02
   1.414169e+02  -3.209872e+02
   2.316647e+02  -7.049292e+01
   1.614762e+02   2.860716e+01
   8.175534e+01   1.490888e+00
   2.161645e+02  -5.419280e+01
   3.866448e+02   1.272803e+02
   3.057948e+02   3.077941e+02
  -2.624749e+01   3.921750e+02
  -2.876924e+02   4.006443e+02
  -4.385145e+02   1.364206e+02
  -3.240160e+02  -1.376765e+02
  -2.154284e+01  -3.070440e+02
   1.684493e+02  -2.340469e+02
   9.816657e+01  -2.464644e+01
  -9.076792e+01   1.098733e+02
  -2.350447e+02  -2.760408e+01
  -4.932291e+01  -2.015326e+02
   1.852873e+02  -1.660331e+02
   1.731086e+02   7.495749e+01
  -2.424777e+01   2.045220e+02
  -1.590677e+02   2.746965e+01
  -1.255671e+02  -2.514024e+02
   7.520841e+01  -3.568404e+02
   2.440498e+02  -1.676085e+02
   2.930554e+02   9.429159e+01
   2.695034e+02   2.292092e+02
   6.214187e+01   2.679631e+02
  -1.030219e+02   1.611960e+02
  -1.698504e+02   6.833286e+00
  -7.492301e+01  -3.220973e+01
   7.072019e+01   4.969348e+01
   3.186330e+01   1.340495e+02
  -1.252167e+02   8.581027e+01
  -1.863796e+02  -4.411504e+01
  -7.516027e+01  -7.347743e+01
   7.976903e+01  -8.112895e+00
   6.282243e+01   6.659221e+01
  -1.092652e+02   3.029697e+01
  -2.297023e+02   2.293276e+01
  -2.247625e+02  -1.519894e+02
  -7.443468e+01  -2.763135e+02
   1.684548e+02  -2.320918e+02
   2.731607e+02  -1.249801e+02
   1.479821e+02   7.607446e+01
  -1.173686e+01   1.167386e+02
  -5.751648e+01  -3.473915e+00
   2.863453e+01  -1.121835e+02
   1.903271e+02  -1.076908e+02
   2.112531e+02   8.975908e+01
   2.033306e+01   2.005562e+02
  -8.997110e+01   1.571189e+02
  -1.582345e+02  -4.505864e-01
  -5.981058e+01  -6.931292e+01
   1.712359e+01  -1.150346e+01
   3.540980e+01   6.553367e+01
  -9.569884e+01   1.314999e+02
  -2.315392e+02   2.166872e+01
  -1.692205e+02  -1.314767e+02
  -1.703555e+01  -2.140804e+02
   1.828965e+02  -1.328682e+02
   2.065683e+02   2.629639e+01
   5.683115e+01   1.311138e+02
  -7.316546e+01   9.145006e+01
  -6.153115e+01   2.729905e+00
  -1.132201e+01  -2.218101e+01
   2.083841e+01  -3.205442e+01
  -2.473545e+01   2.285127e+01
  -6.085234e+01  -1.560021e+01
  -7.623935e+01  -8.902646e+01
  -2.799452e+01  -1.495036e+02
   1.329659e+02  -1.357933e+02
   2.077752e+02  -6.841122e+00
   1.950780e+02   1.718835e+02
   3.981967e+01   1.994765e+02
  -1.115307e+02   1.670410e+02
  -1.403617e+02   1.616960e+01
  -6.205984e+01  -5.064506e+01
  -7.088760e+00  -5.671386e+01
  -7.232018e+01   1.505376e+01
  -9.650881e+01  -9.883224e+00
  -2.647569e+01  -5.137919e+01
   5.189230e+01  -9.664911e+01
   1.032581e+02  -4.318411e+01
   7.775121e+01  -9.703822e-01
  -1.969596e+01   9.844543e+01
  -1.031208e+02   7.780649e+01
  -1.757854e+02  -1.604390e+01
  -7.490853e+01  -1.826005e+02
   9.859556e+01  -2.594073e+02
   2.321370e+02  -5.919239e+01
   2.442235e+02   1.068647e+02
   1.022040e+02   1.960793e+02
  -5.226492e+01   1.540595e+02
  -8.419378e+01   8.222904e+01
  -8.023551e+01   6.863288e+01
  -6.771335e+01   9.877271e+01
  -8.317006e+01   7.670115e+01
  -1.381784e+02  -4.310202e+01
  -1.194988e+02  -1.404199e+02
  -1.497576e+01  -2.295129e+02
   9.429099e+01  -1.754531e+02
   1.829849e+02  -1.388697e+01
   1.352682e+02   1.288090e+02
   7.180411e+00   1.670838e+02
  -7.385037e+01   8.472602e+01
  -6.526378e+01   5.759385e+00
  -6.300785e+00  -1.964099e+01
  -6.542357e+00  -2.451756e+01
  -1.346260e+01  -1.961698e+01
  -5.011294e+01  -1.024368e+01
  -3.877732e+01  -3.295569e+01
   7.666817e+01  -5.548459e+01
   1.333491e+02  -1.121179e+01
   1.608914e+02   6.565998e+01
   1.163472e-01   1.189595e+02
  -1.043333e+02   8.081217e+01
  -1.604715e+02  -1.019638e+00
  -6.427529e+01  -4.444219e+01
   5.543465e+01  -3.318882e+01
   7.728347e+01   1.864995e+01
  -4.520540e+00   6.526419e+01
  -4.966972e+01   6.209118e+01
  -6.181078e+01  -3.331745e+01
  -3.187111e+01  -3.862663e+01
  -3.187495e+01  -3.395988e+01
  -2.851382e+01   5.382798e+00
  -4.960450e+01   1.452244e+01
  -1.870725e+01  -4.771479e+01
   2.393950e+01  -1.277754e+02
   1.226751e+02  -1.515582e+02
   1.615815e+02  -4.054206e+01
   1.409886e+02   1.119818e+02
  -1.674368e+01   1.174949e+02
  -9.946365e+01   4.935516e+01
  -4.351837e+01  -2.888482e+01
   4.740039e+01  -1.003133e+01
   9.942849e+01   6.348160e+01
   1.018721e+02   1.214403e+02
  -8.766616e+01   1.186562e+02
  -1.899015e+02   7.270515e+01
  -1.705737e+02  -1.675959e+01
  -5.239331e+01  -9.372156e+01
   7.378313e+01  -5.112929e+01
   4.147183e+01  -6.295014e-01
  -1.773664e+01   3.186629e+01
  -9.774396e+01  -3.964681e+01
  -2.969620e+01  -1.310501e+02
   1.281277e+02  -1.489240e+02
   1.437790e+02  -3.536310e+01
   1.083134e+02   1.224946e+02
   1.172541e+00   2.038124e+02
  -8.014000e+01   1.218001e+02
  -1.028433e+02  -7.484265e+00
  -6.110510e+01  -9.492914e+01
  -4.042123e+00  -5.438894e+01
   5.786458e+01  -6.355059e+00
   4.103341e+01   1.855788e+01
   1.713873e+01  -4.587635e+00
  -3.406050e+00  -1.697950e+01
   2.680809e+01   5.899190e+00
   7.007889e+01   9.942268e+01
   4.422184e+01   1.066370e+02
  -5.514249e+01   2.956231e+01
  -1.386173e+02  -4.453370e+01
  -1.041593e+02  -6.935098e+01
  -1.702192e+01  -2.835489e+01
   9.486736e+01  -2.422807e+01
   9.808075e+01   5.643540e+00
  -1.489836e+01   1.839128e+01
  -2.218444e+01   3.381974e+01
  -5.968158e+00   4.983106e+01
   2.361108e+01  -4.434974e+00
   2.025229e+00  -1.450339e+01
  -6.966464e+01  -7.029238e-02
  -9.655660e+01  -4.087109e+01
   1.276714e+01  -1.124509e+02
   1.392044e+02  -1.100613e+02
   1.980269e+02  -2.054536e+01
   1.406200e+02   7.622504e+01
  -1.696266e+01   1.108517e+02
  -8.746424e+01   1.446595e+02
  -1.078254e+02   3.363210e+01
  -6.295136e+01   7.853696e+00
  -1.040780e+01  -1.549086e+01
   9.609078e+00  -1.412910e+01
  -9.449750e+00   2.198521e+01
  -3.199630e+01  -5.901182e+01
  -1.439474e+01  -7.154766e+01
   3.081050e+01  -1.067148e+02
   8.198118e+01   2.993937e+01
   6.392862e+01   9.911613e+01
  -1.212929e+01   8.192176e+01
  -8.862301e+01   1.704222e+01
  -9.561453e+01  -7.305781e+01
  -4.421764e+01  -9.695816e+01
   7.372990e+01  -4.246477e+01
   8.076509e+01  -1.299147e+00
   5.861668e+01   6.578074e+01
  -1.493273e+01   4.429650e+01
  -4.531716e+01   4.738177e+01
   1.019716e+01  -1.378934e+01
   6.648916e+01  -1.424494e+01
   3.433733e+01   2.773080e-01
  -6.719329e+01   5.107600e+01
  -9.185810e+01   4.427000e+01
  -5.625122e+01   9.448117e+00
   1.571336e+01  -8.177603e+01
   4.702456e+01  -6.853379e+01
   1.704622e+01   6.071240e+00
  -3.692124e+00   4.612222e+01
  -2.859137e+01   5.199351e+01
  -3.171686e+01  -1.953655e+01
  -2.691194e+01  -4.934168e+01
  -8.001759e+00  -3.758527e+01
   5.254886e+01   3.018582e+01
   1.842994e+01  -9.860840e-01
   2.709425e+01   1.596380e+01
   8.042941e+00   3.077064e-01
   5.977068e+00  -8.104510e+00
  -8.594135e-01   1.131545e+01
  -2.521457e+01   4.176488e+01
  -5.495593e+01  -2.260107e+00
  -5.293865e+01  -1.908034e+01
  -2.056160e+01  -5.118236e+01
   4.484500e+01   3.589379e+00
   5.271802e+01   4.743472e+01
   2.321873e+01   4.576252e+01
  -6.217813e+01   2.662026e+01
  -8.770007e+01  -1.158009e+01
  -5.863233e+01  -3.787572e+01
   4.226837e+01  -2.197343e+01
   6.664776e+01  -1.994850e+00
   4.299481e+01   5.382489e+00
  -4.453180e+01   1.455464e+01
  -5.450453e+01  -2.286233e+01
   9.670103e+00  -2.514985e+01
   1.150214e+02  -1.223363e+01
