
 $NMID
 id='ANONYMOUS ', fmtdat='(2E16.6)'
 volume=1.0
 tramp=1.0
 $END
   3.807583e+03   1.058868e+02
   2.387431e+03   2.354875e+03
  -4.111307e+02   2.476815e+03
  -1.737701e+03   1.026745e+03
  -9.292422e+02  -4.997616e+02
   4.673942e+02  -5.985652e+02
   8.234891e+02   3.032117e+02
   1.258728e+02   8.896065e+02
  -6.312291e+02   7.263614e+02
  -8.198442e+02  -4.563829e+01
  -5.226096e+02  -7.531412e+02
   1.307479e+02  -8.088741e+02
   6.228466e+02  -1.175190e+02
   3.946467e+02   5.914550e+02
  -1.432957e+02   7.199336e+02
  -5.717827e+02   8.586785e+01
  -3.771845e+02  -5.528794e+02
   1.596224e+02  -6.445853e+02
   4.653230e+02  -1.739569e+02
   4.386580e+02   3.011740e+02
   8.218937e+01   3.923080e+02
  -2.293362e+02   2.810322e+02
  -1.845920e+02   3.281138e+01
   1.483499e+02  -9.108950e+01
   4.054725e+02   1.213811e+02
   1.919912e+02   3.958298e+02
  -4.136589e+02   3.560415e+02
  -7.447865e+02  -7.337320e+01
  -3.786824e+02  -4.539792e+02
   2.988948e+02  -4.418034e+02
   6.226952e+02  -1.295982e+01
   3.284859e+02   3.820945e+02
  -2.246904e+02   4.697110e+02
  -5.339862e+02   2.569701e+02
  -4.185011e+02  -1.763700e+02
  -1.209979e+02  -4.364367e+02
   1.779973e+02  -3.238450e+02
   1.792874e+02   1.810994e+02
  -8.444182e+01   3.871994e+02
  -3.758660e+02   3.375852e+01
  -2.523522e+02  -5.842429e+02
   2.816698e+02  -5.940644e+02
   5.512582e+02  -2.106283e+01
   2.544245e+02   4.299056e+02
  -2.285049e+02   3.609624e+02
  -3.493776e+02  -1.963475e+02
   2.861895e+01  -5.056183e+02
   4.588865e+02  -1.524796e+02
   5.685880e+02   2.761095e+02
   2.179480e+02   4.647849e+02
  -2.612034e+02   3.471244e+02
  -5.293055e+02   1.100676e+00
  -3.638546e+02  -2.823387e+02
   9.345803e+01  -3.612236e+02
   3.725052e+02  -1.325618e+02
   2.596950e+02   1.481115e+02
  -5.789735e+01   1.081288e+02
  -1.363909e+02  -9.349548e+01
   7.583059e+01  -1.956393e+02
   3.238634e+02   2.286065e+01
   1.407204e+02   2.533040e+02
  -1.672245e+02   2.459275e+02
  -3.106656e+02   1.107646e+02
  -1.997548e+02  -5.983707e+01
   1.856920e+01  -2.248754e+02
   1.897734e+02  -2.747318e+02
   3.454774e+02  -2.378855e+02
   2.374889e+02   1.239518e+02
   1.097965e+02   3.887030e+02
  -9.169739e+01   3.323174e+02
  -9.965149e+01   8.915440e+01
  -3.181145e+01  -3.189198e+01
  -3.672110e+00   1.140069e+02
  -1.619967e+02   1.124106e+02
  -2.960860e+02  -3.969363e+01
  -1.805491e+02  -2.354009e+02
   1.353606e+01  -2.472180e+02
   2.083493e+02   2.946013e+00
   1.816952e+02   1.744575e+02
   3.727766e+01   2.676030e+02
  -2.334415e+02   1.205684e+02
  -3.190304e+02  -1.341634e+02
  -1.887155e+02  -3.400043e+02
   1.122816e+02  -3.141011e+02
   1.780864e+02  -1.287622e+02
   1.323394e+02   1.548871e+01
   1.130321e+02   1.614409e+01
   1.932532e+02  -4.487300e+01
   3.412360e+02   1.968502e+01
   2.832033e+02   2.643813e+02
   4.298589e+01   4.206007e+02
  -3.162388e+02   4.063300e+02
  -4.447600e+02   2.312008e+02
  -3.233101e+02  -6.586453e+01
  -6.809428e+01  -3.022518e+02
   1.051111e+02  -2.959032e+02
   1.077051e+02  -4.551456e+01
  -8.018287e+01   9.785220e+01
  -1.660525e+02   9.565289e+00
  -8.314586e+01  -1.444317e+02
   1.305380e+02  -1.781459e+02
   1.762570e+02   6.465011e+01
  -1.703288e+01   1.598628e+02
  -1.633816e+02   2.517699e+01
  -1.548733e+02  -2.166057e+02
   9.540787e+00  -3.031500e+02
   1.901421e+02  -1.663914e+02
   2.912328e+02   5.868816e+01
   2.545340e+02   2.232566e+02
   8.677314e+01   2.276265e+02
  -9.685684e+01   1.729925e+02
  -1.557075e+02   4.049254e+01
  -6.496118e+01  -3.619852e+01
   5.915564e+01   4.951659e+01
   4.808329e+01   1.295157e+02
  -8.138951e+01   8.092490e+01
  -1.914644e+02   1.200717e+01
  -8.484481e+01  -7.055027e+01
   6.473105e+01  -3.087318e+01
   5.356873e+01   7.747782e+01
  -1.442335e+02   5.765569e+01
  -2.450898e+02   1.870862e+01
  -2.561403e+02  -1.197055e+02
  -7.911241e+01  -2.504015e+02
   1.439083e+02  -2.635859e+02
   2.370585e+02  -1.368879e+02
   1.657076e+02   4.626015e+01
  -1.115432e+01   9.958493e+01
  -8.179476e+01  -4.958691e+00
   2.638198e+01  -8.875409e+01
   1.625172e+02  -6.305527e+01
   1.758501e+02   9.682642e+01
   7.560671e+01   1.534515e+02
  -6.125589e+01   1.612548e+02
  -1.262859e+02   9.930450e+00
  -6.383847e+01  -4.433524e+01
   2.822368e+01   2.662639e+00
   5.599736e+01   9.678195e+01
  -7.528994e+01   1.196999e+02
  -1.814135e+02   3.683218e+01
  -2.000248e+02  -8.639535e+01
  -2.950988e+01  -1.532056e+02
   1.352275e+02  -1.366001e+02
   1.684538e+02  -1.193370e+01
   3.048731e+01   1.038860e+02
  -7.672801e+01   8.893407e+01
  -6.789568e+01   2.205178e+01
  -4.109924e+01  -2.983739e+01
   6.307060e+00  -4.479188e+01
  -1.425974e+01   1.119302e+01
  -5.797106e+01  -5.414454e+00
  -5.212590e+01  -6.418860e+01
  -1.139408e+01  -1.614947e+02
   1.150893e+02  -1.466621e+02
   2.151602e+02  -4.960364e+01
   1.826761e+02   1.344176e+02
   6.012462e+01   1.880056e+02
  -1.187015e+02   1.702289e+02
  -1.280880e+02   3.139236e+01
  -6.217379e+01  -7.607612e+01
  -5.951608e+00  -3.612222e+01
  -1.124479e+01   6.426841e-01
  -4.804102e+01   1.657461e+01
  -2.918246e+01  -3.979877e+01
   6.729147e+01  -8.192677e+01
   8.176589e+01  -4.848928e+01
   9.149850e+01   3.883001e+01
  -2.944707e+01   7.339401e+01
  -1.191445e+02   9.805549e+01
  -1.653740e+02  -5.658430e+01
  -1.237632e+02  -1.997222e+02
   8.523656e+01  -2.234968e+02
   2.298498e+02  -1.209353e+02
   2.452579e+02   8.120873e+01
   1.042570e+02   1.962870e+02
  -1.831246e+01   1.482654e+02
  -5.911712e+01   1.157159e+02
  -7.583120e+01   8.734575e+01
  -1.058694e+02   9.687155e+01
  -1.227542e+02   4.812342e+01
  -1.220053e+02  -4.714685e+01
  -1.134800e+02  -1.450252e+02
  -1.265434e+01  -2.278843e+02
   9.517921e+01  -1.649676e+02
   1.452732e+02  -2.700246e+01
   1.447524e+02   1.040184e+02
   4.585037e+01   1.361564e+02
  -5.646747e+01   6.593601e+01
  -6.630806e+01   9.020124e-01
  -1.294527e+01  -3.043746e+01
  -2.774614e+01  -2.999687e+01
  -2.311868e+01  -2.653670e+01
  -5.769782e+01  -9.525033e+00
  -3.868737e+01  -4.189574e+01
   4.456313e+01  -4.965203e+01
   1.385038e+02  -2.963082e+01
   1.328878e+02   5.749994e+01
   1.602367e+01   6.936127e+01
  -1.109252e+02   7.944033e+01
  -9.054578e+01   3.624630e+01
  -4.727399e+01  -3.168931e+01
   5.364812e+01  -3.628339e+01
   8.015904e+01   1.184505e+01
   9.443475e+00   8.769019e+01
  -3.565927e+01   7.636504e+01
  -7.427868e+01  -1.285206e+01
  -4.667471e+01  -7.246604e+01
  -5.572394e+01  -4.354589e+01
  -7.385420e+01  -3.645026e+00
  -3.430197e+01  -2.826351e+00
  -3.030320e+01  -6.993516e+01
   1.659808e+01  -1.042736e+02
   9.534416e+01  -1.272606e+02
   1.335918e+02  -6.127138e+01
   1.256006e+02   8.034344e+01
   2.750525e+01   1.161656e+02
  -7.794001e+01   6.817620e+01
  -6.180522e+01  -5.009754e+00
   5.406056e+01  -4.489007e+01
   1.357630e+02  -1.122248e+01
   8.215532e+01   9.108087e+01
  -3.487530e+01   1.237449e+02
  -1.629617e+02   7.774697e+01
  -1.370532e+02  -9.339867e-01
  -3.271883e+01  -5.656614e+01
   5.253726e+01  -6.375429e+01
   6.553247e+01  -2.747302e+01
  -3.926010e+01   1.816101e+01
  -7.907650e+01   4.557022e+00
   7.905882e-01  -1.159306e+02
   8.670473e+01  -1.378849e+02
   1.414140e+02  -4.308218e+01
   1.257978e+02   1.030645e+02
   1.220396e+01   1.667751e+02
  -9.812625e+01   1.058096e+02
  -1.292161e+02   2.138976e+01
  -6.839118e+01  -1.190722e+02
  -2.233250e+01  -9.266263e+01
   6.249829e+01  -3.853733e+01
   6.120498e+01   1.819312e+01
   2.052064e+01   2.145640e+01
   9.893745e+00   3.684055e+00
   4.451583e+00  -2.358850e+00
   6.029396e+01   5.409069e+01
   7.998243e+01   1.052201e+02
  -4.918066e+01   2.926270e+01
  -1.141922e+02  -2.809527e+01
  -1.302217e+02  -7.079154e+01
  -1.273974e+00  -4.832658e+01
   5.776568e+01  -5.552976e+01
   9.608179e+01  -1.244979e+01
   4.930902e-01  -1.316644e-01
  -4.601135e+01  -7.354250e+00
  -1.955161e+01   2.432425e+01
   8.437098e+00  -3.658896e+01
  -1.127600e+01   6.616037e+00
  -5.938994e+01   1.263083e+01
  -9.830170e+01  -2.591971e+01
  -2.881485e+01  -1.015531e+02
   9.536042e+01  -9.674302e+01
   1.741425e+02  -5.022594e+01
   1.107061e+02   5.872087e+01
   2.929847e+01   1.356159e+02
  -6.028586e+01   1.665681e+02
  -1.168329e+02   8.187718e+01
  -9.644545e+01  -1.046342e+01
  -2.924281e+01  -3.031583e+01
   4.386276e+00  -1.694196e+01
  -3.296341e+01   1.861767e+01
  -3.292344e+01  -4.365375e+01
  -1.661664e+01  -7.472682e+01
   2.877513e+01  -5.973253e+01
   5.156962e+01   1.813780e+01
   5.617855e+01   1.033260e+02
   2.137342e+01   1.236947e+02
  -7.558354e+01   1.685490e+01
  -1.084038e+02  -7.690218e+01
  -3.990519e+01  -1.151450e+02
   5.936333e+01  -6.350507e+01
   8.430928e+01  -1.766034e+01
   5.436319e+01   3.860108e+01
  -4.582135e+01   5.031035e+01
  -5.140451e+01   2.089681e+01
   1.581979e+01  -4.972119e+00
   8.960276e+01   2.928844e+00
  -3.005620e+00   2.804125e+00
  -7.802334e+01   8.193810e+01
  -1.006651e+02   3.803779e+01
  -3.809119e+01  -4.824381e+01
   4.200235e+01  -7.898689e+01
   6.130853e+01  -2.985208e+01
   3.501504e+01  -1.793087e+01
  -1.039549e+01   6.001122e+01
  -1.755044e+01   5.790792e+01
  -3.715969e+01  -1.384461e+01
  -3.471805e+01  -4.239738e+01
  -2.472647e+01  -4.917916e+01
   9.573348e+00   2.103373e+01
   1.242223e+01   1.361859e+01
  -7.678347e+00  -7.636066e+00
  -4.102993e+00  -2.184907e+01
   2.175357e+01   2.194523e+01
  -1.352605e+01   3.152452e+01
  -2.658143e+01   6.593532e+01
  -5.971771e+01   1.910398e+01
  -4.660978e+01  -2.832661e+01
  -3.779639e+00  -4.984497e+01
   2.666225e+01  -7.485776e+00
   2.977746e+01   2.105473e+01
   1.738884e+01   8.114988e+01
  -8.576347e+01   4.668091e+01
  -1.154596e+02   7.389219e+00
  -4.699674e+01  -4.656111e+01
   7.600836e+01  -4.988217e+01
   4.451799e+01  -3.073569e+01
   3.593188e+01   2.008480e+01
  -5.218521e+01   9.022518e+00
  -3.920978e+01  -8.077699e+00
   3.849889e+01  -6.441583e+01
   9.848152e+01  -4.040317e+01
