
 $NMID
 id='ANONYMOUS ', fmtdat='(2E16.6)'
 volume=1.0
 tramp=1.0
 $END
   4.616701e+03  -3.504025e+02
   2.590078e+03   2.429699e+03
  -4.738031e+02   2.627163e+03
  -2.016211e+03   9.589056e+02
  -8.452093e+02  -5.822492e+02
   5.712637e+02  -6.004424e+02
   8.940033e+02   3.631944e+02
   6.643015e+01   9.879198e+02
  -8.457329e+02   7.992764e+02
  -1.027287e+03  -9.100244e+01
  -4.904650e+02  -9.073838e+02
   2.156966e+02  -8.504237e+02
   5.786435e+02  -1.043558e+02
   3.812656e+02   6.062561e+02
  -2.383730e+02   7.395318e+02
  -6.402478e+02  -1.430895e+00
  -3.612968e+02  -7.004180e+02
   2.426721e+02  -6.864248e+02
   6.168608e+02  -1.267620e+02
   4.474335e+02   3.530570e+02
   5.540191e+01   4.518205e+02
  -2.485376e+02   2.584538e+02
  -1.798204e+02  -3.272818e+01
   1.354075e+02  -7.167140e+01
   4.072557e+02   1.276413e+02
   2.008231e+02   4.437801e+02
  -4.729411e+02   3.879112e+02
  -8.638842e+02  -2.527816e+00
  -4.218282e+02  -5.129018e+02
   3.702599e+02  -5.253771e+02
   6.944584e+02   1.727865e+01
   3.608400e+02   4.651002e+02
  -2.867833e+02   4.872806e+02
  -5.624240e+02   1.793399e+02
  -3.717053e+02  -2.601572e+02
  -6.839308e+01  -4.580482e+02
   1.829865e+02  -2.274087e+02
   1.289163e+02   1.895181e+02
  -1.803683e+02   3.538356e+02
  -4.393811e+02  -5.510110e+01
  -3.342579e+02  -6.657316e+02
   3.278127e+02  -6.566486e+02
   6.100068e+02   2.095280e+01
   2.543727e+02   5.282449e+02
  -2.935234e+02   3.343366e+02
  -3.629064e+02  -3.027349e+02
   5.243617e+01  -5.668647e+02
   5.758305e+02  -2.008510e+02
   6.724718e+02   3.363181e+02
   1.974384e+02   5.726757e+02
  -3.742834e+02   3.665788e+02
  -6.423507e+02  -3.014680e+01
  -3.957020e+02  -3.223235e+02
   1.326807e+02  -3.597472e+02
   4.193521e+02  -7.319829e+01
   2.583860e+02   1.475320e+02
  -9.320299e+01   1.312522e+02
  -1.751578e+02  -1.254092e+02
   9.854808e+01  -2.413942e+02
   3.276177e+02   2.771187e+01
   2.224296e+02   2.904724e+02
  -1.780575e+02   3.579043e+02
  -3.545550e+02   1.330251e+02
  -2.386287e+02  -8.746649e+01
   9.072340e+00  -2.841968e+02
   2.568709e+02  -3.454889e+02
   3.848982e+02  -2.062111e+02
   2.565501e+02   1.281199e+02
   9.198303e+01   4.359885e+02
  -5.535580e+01   3.282004e+02
  -8.247743e+01   1.278128e+02
   5.812603e+00   1.847014e+01
  -5.603612e+01   1.202580e+02
  -2.059156e+02   1.672094e+02
  -3.161703e+02  -6.567898e+01
  -1.648495e+02  -2.818032e+02
   8.230487e+01  -2.821201e+02
   2.403869e+02  -2.766901e+01
   2.209365e+02   2.586533e+02
  -1.436290e+01   3.113725e+02
  -2.956406e+02   9.937507e+01
  -3.663303e+02  -1.464794e+02
  -2.253038e+02  -3.139995e+02
   1.033008e+02  -2.804808e+02
   2.153986e+02  -1.474672e+02
   1.155751e+02  -1.838517e+01
   1.131623e+02  -6.394133e+01
   2.440640e+02  -1.157848e+02
   3.945596e+02   1.001460e+01
   3.601815e+02   2.909461e+02
  -8.535650e+00   5.079757e+02
  -3.790247e+02   4.318737e+02
  -5.049301e+02   2.474862e+02
  -3.612699e+02  -9.092449e+01
  -7.742306e+01  -3.063722e+02
   8.612501e+01  -2.211599e+02
   4.301352e+01  -3.743640e+01
  -8.922611e+01   8.972904e+01
  -1.845470e+02  -9.124284e+00
  -5.143320e+01  -2.005994e+02
   1.561899e+02  -2.046997e+02
   1.772710e+02   3.935864e+01
   1.343202e+01   2.058519e+02
  -1.874707e+02   3.695183e+01
  -1.984559e+02  -2.292925e+02
   1.983947e+00  -3.728493e+02
   2.204047e+02  -2.118892e+02
   3.536989e+02   6.712452e+01
   2.793319e+02   2.727679e+02
   8.090627e+01   3.025493e+02
  -1.224488e+02   1.587898e+02
  -1.600921e+02   8.174125e+00
  -4.176186e+01  -1.866575e+01
   4.787491e+01   8.696307e+00
   2.092400e+01   1.120044e+02
  -1.528179e+02   8.064648e+01
  -1.841583e+02   2.183221e+00
  -6.708971e+01  -8.865870e+01
   7.672342e+01  -2.810913e+01
   6.773135e+01   6.205108e+01
  -1.150435e+02   1.239524e+02
  -3.106845e+02   7.124254e+00
  -2.922304e+02  -1.351274e+02
  -5.698090e+01  -2.755651e+02
   1.567299e+02  -2.506371e+02
   3.242144e+02  -1.358170e+02
   1.826611e+02   4.969475e+01
  -2.375411e+01   9.973558e+01
  -9.555652e+01   1.321031e+01
   1.914821e+01  -1.093163e+02
   1.766813e+02  -3.406254e+01
   2.059109e+02   7.821337e+01
   7.286124e+01   2.418387e+02
  -1.085524e+02   1.666262e+02
  -1.400118e+02   1.572557e+01
  -9.249696e+01  -4.974462e+01
   1.294450e+01   1.393816e+01
   2.647241e+01   1.056623e+02
  -7.498317e+01   9.995689e+01
  -2.184507e+02   2.367939e+01
  -2.022795e+02  -1.464315e+02
  -5.425975e+01  -2.153570e+02
   1.487063e+02  -1.700681e+02
   1.907536e+02  -1.357111e+01
   9.617492e+01   1.114473e+02
  -4.089321e+01   1.201652e+02
  -6.301840e+01   3.122055e+01
  -1.492952e+01  -5.892014e+01
   5.940693e+01  -2.000511e+00
  -2.797054e+01   2.054412e+01
  -1.050323e+02   1.859926e+00
  -1.153988e+02  -8.795345e+01
  -1.634071e+01  -1.555247e+02
   1.493363e+02  -1.805517e+02
   2.598234e+02  -2.418871e+01
   2.013782e+02   1.701450e+02
   3.276195e+01   2.523662e+02
  -1.053755e+02   1.663297e+02
  -1.327948e+02   7.794372e+00
  -3.541987e+01  -8.085278e+01
  -2.576160e+01  -2.913548e+01
  -2.515236e+01   3.275123e+01
  -6.404762e+01  -4.169241e+00
  -4.415728e+01  -2.345113e+01
   2.369500e+01  -9.001959e+01
   1.055045e+02  -3.290874e+01
   8.269184e+01   3.417311e+01
  -1.193189e+01   1.312407e+02
  -1.602874e+02   1.009964e+02
  -2.008893e+02  -4.606497e+01
  -8.168147e+01  -2.012559e+02
   1.443182e+02  -2.331291e+02
   2.823720e+02  -8.845236e+01
   2.019345e+02   9.270414e+01
   1.241899e+02   1.450444e+02
  -5.581676e+01   1.615397e+02
  -1.115252e+02   8.409005e+01
  -6.376659e+01   9.541495e+01
  -4.966434e+01   1.300253e+02
  -9.494752e+01   1.066198e+02
  -1.424178e+02  -1.680325e+01
  -1.536509e+02  -1.457509e+02
  -5.190446e+01  -2.280351e+02
   1.055882e+02  -1.674442e+02
   1.736398e+02  -4.858318e+01
   1.153873e+02   1.396123e+02
   1.818341e+01   1.328369e+02
  -5.928291e+01   7.938123e+01
  -4.934881e+01   1.970240e+01
  -2.793519e+00  -2.769455e+01
  -9.863236e+00  -5.188437e+01
  -3.684482e+01  -9.822615e+00
  -5.933212e+01  -6.717714e+00
  -3.558769e+01  -6.073261e+01
   8.863069e+01  -3.668212e+01
   1.804095e+02  -1.295999e+01
   1.088387e+02   3.986098e+01
   9.201494e+00   1.194106e+02
  -1.371168e+02   9.941793e+01
  -1.525993e+02   1.589305e+01
  -2.796486e+01  -6.871229e+01
   4.385009e+01  -3.552980e+01
   7.592442e+01   3.988951e+01
   6.554145e+00   7.521289e+01
  -4.785630e+01   7.681823e+01
  -5.549971e+01   4.719231e-01
  -2.189373e+01  -7.480955e+01
  -6.879473e+01  -2.121433e+01
  -5.695749e+01   3.151986e+01
  -7.526218e+01   1.707405e-01
  -4.746325e+01  -7.412690e+01
  -1.522367e+01  -1.789459e+02
   9.914520e+01  -1.612494e+02
   1.693962e+02  -6.605151e+01
   1.459999e+02   6.789981e+01
  -2.327142e+00   1.147001e+02
  -1.005224e+02   5.834294e+01
  -7.606446e+01  -2.191148e+00
   5.299486e+01  -1.440457e+01
   1.700897e+02   3.024915e+01
   5.755729e+01   1.065113e+02
  -5.951421e+01   1.161121e+02
  -2.097474e+02   4.985847e+01
  -2.011200e+02  -1.802587e+01
  -4.566453e+01  -1.087490e+02
   7.155170e+01  -5.137869e+01
   1.085798e+01  -3.877718e+01
  -2.776715e+01   3.499185e+01
  -9.835970e+01  -1.094175e+01
  -6.776867e+01  -1.177985e+02
   8.904351e+01  -1.642608e+02
   1.886576e+02  -7.233738e+01
   1.362876e+02   1.057833e+02
   5.233793e+01   2.125182e+02
  -8.172450e+01   1.425653e+02
  -9.800079e+01  -2.069531e+01
  -6.252398e+01  -9.283050e+01
   2.894603e+01  -9.559608e+01
   2.669038e+01  -4.525025e+00
   4.887221e+01   2.645370e+01
   1.050890e+01  -1.482994e+01
   1.502467e+01  -3.648126e+01
   3.933233e+01  -1.215397e+00
   8.355159e+01   8.412707e+01
   6.888781e+01   1.102575e+02
  -5.351538e+01   5.649309e+01
  -1.500041e+02  -5.225585e+01
  -1.241803e+02  -7.935361e+01
  -1.641272e+01  -5.848526e+01
   8.320419e+01  -2.125267e+01
   5.172645e+01  -1.031349e+01
   5.764394e+00   2.039708e+01
  -4.604398e+01   1.001728e+01
  -8.415763e+00   4.311360e+00
   3.306747e+01   6.226658e+00
  -2.272270e+01  -6.836836e+00
  -7.936436e+01   2.206654e+01
  -9.922465e+01  -5.474730e+01
  -5.668558e+00  -9.704215e+01
   1.185969e+02  -1.090590e+02
   1.882052e+02  -5.843969e+01
   1.172212e+02   6.873218e+01
   2.607685e+01   1.652630e+02
  -8.444686e+01   1.685600e+02
  -1.252262e+02   3.009501e+01
  -8.497453e+01  -1.544959e+01
  -3.223649e+01  -4.990385e+01
  -1.162034e+01  -1.731267e+01
  -1.518266e-01   6.207379e+00
  -3.807283e+01  -4.883657e+01
  -2.004300e+01  -8.114785e+01
   1.476455e+00  -7.272112e+01
   7.807129e+01   1.843512e+01
   6.474989e+01   1.026899e+02
   1.660989e+01   9.301662e+01
  -5.782628e+01   3.983358e+01
  -1.335942e+02  -5.360096e+01
  -3.239279e+01  -8.475469e+01
   5.705090e+01  -7.957874e+01
   6.116555e+01  -1.823689e+00
   1.598934e+01   2.982613e+01
  -3.505113e+01   4.195916e+01
  -3.418248e+01   3.358187e+01
   4.962497e+01   2.037421e+01
   5.893743e+01  -3.711717e+01
   3.003734e+01   3.930993e+01
  -1.075528e+02   6.224059e+01
  -1.176740e+02   4.746842e+01
  -8.552314e+01  -5.156855e+01
   6.439709e+01  -1.053556e+02
   7.530116e+01  -7.183769e+01
   1.237739e+01   1.393232e+01
  -2.587420e+00   4.480813e+01
  -3.866586e+01   5.085884e+01
  -3.593109e+01  -2.836276e+01
  -9.298313e+00  -7.173888e+01
   1.371959e+01  -3.713821e+01
   3.267567e+01   2.846012e+00
   4.567039e+01   2.473940e+01
  -9.473676e+00   2.053551e+01
  -6.099770e-01  -7.298244e+00
  -2.149715e+01   6.912098e+00
   3.828440e+00   1.026591e+01
  -2.172781e+01   5.474473e+01
  -5.399030e+01   3.893054e+00
  -1.277909e+00  -3.878057e+01
   2.151120e+01  -7.065697e+01
   3.886611e+01  -5.326043e+01
   5.333764e+01   5.142097e+01
   3.084884e+01   7.768967e+01
  -5.007545e+01   4.238761e+01
  -1.199723e+02   2.305342e+00
  -5.170170e+01  -5.383672e+01
   1.228679e+01  -4.905907e+01
   9.533182e+01  -2.657418e+01
   6.044798e+01  -1.666218e+01
  -4.535221e+01  -1.762601e+01
  -3.722931e+01  -1.394578e+01
   2.062745e+01  -3.336961e+01
   5.190493e+01  -2.922319e+01
