
 $NMID
 id='ANONYMOUS ', fmtdat='(2E16.6)'
 volume=1.0
 tramp=1.0
 $END
   3.190781e+03   1.369578e+02
   2.202363e+03   1.682397e+03
  -2.687017e+02   2.013749e+03
  -1.476634e+03   1.127137e+03
  -8.963807e+02  -1.425467e+02
   2.635605e+02  -2.234837e+02
   5.384138e+02   2.159011e+02
  -1.074542e+02   6.406657e+02
  -5.344283e+02   5.858572e+02
  -6.477291e+02  -1.034854e+02
  -3.250046e+02  -6.431063e+02
   4.313948e+01  -6.365957e+02
   3.563889e+02  -1.707088e+02
   2.682643e+02   4.674954e+02
  -1.224510e+02   5.709903e+02
  -4.115503e+02   7.006383e+01
  -3.104780e+02  -5.030025e+02
   1.144498e+02  -6.304423e+02
   4.404864e+02  -2.051653e+02
   4.397856e+02   1.800595e+02
   4.036840e+01   3.565642e+02
  -1.596187e+02   2.552640e+02
  -1.182527e+02   5.318021e+01
   1.404758e+02   3.439811e+01
   3.325464e+02   1.765886e+02
   8.698315e+00   3.872709e+02
  -4.507542e+02   2.547512e+02
  -7.005601e+02  -1.216874e+02
  -3.175919e+02  -4.160064e+02
   3.667240e+02  -3.137421e+02
   5.544018e+02   9.894978e+01
   2.851157e+02   3.870613e+02
  -2.284872e+02   4.326274e+02
  -4.574511e+02   1.799805e+02
  -3.467920e+02  -1.779846e+02
  -1.002794e+02  -3.835995e+02
   8.915511e+01  -2.049550e+02
   6.359012e+01   1.409717e+02
  -1.959587e+02   2.182731e+02
  -2.785268e+02  -7.949705e+01
  -5.243247e+01  -5.905399e+02
   2.916335e+02  -4.855994e+02
   4.067662e+02  -5.766318e+00
   1.344606e+02   3.132676e+02
  -1.977323e+02   1.639583e+02
  -2.547045e+02  -1.998602e+02
   3.766076e+01  -4.338647e+02
   4.522211e+02  -1.440388e+02
   5.296362e+02   3.841754e+02
   1.675164e+02   4.902266e+02
  -2.892202e+02   3.152442e+02
  -5.425444e+02  -1.522709e+01
  -3.275267e+02  -3.003091e+02
   6.587950e+01  -2.171311e+02
   3.425043e+02  -4.232322e+01
   1.973255e+02   7.333294e+01
  -3.568693e+01   4.800714e+01
  -8.271091e+01  -8.526725e+01
   1.009091e+02  -1.633263e+02
   2.859447e+02   4.620542e+01
   1.416815e+02   1.985012e+02
  -1.526068e+02   2.559389e+02
  -2.949501e+02   1.184395e+02
  -2.234965e+02  -7.112528e+01
  -3.160031e+00  -2.864319e+02
   2.728041e+02  -3.102821e+02
   3.714607e+02  -1.671059e+02
   2.598176e+02   1.498001e+02
   8.073572e+01   3.399141e+02
  -7.406872e+01   3.359460e+02
  -8.060253e+01   9.537312e+01
  -3.347303e+01   3.728299e+01
  -1.095786e+02   1.340041e+02
  -2.431128e+02   1.035770e+02
  -2.769108e+02  -9.076717e+01
  -8.924303e+01  -2.661462e+02
   7.386957e+01  -2.312939e+02
   2.048727e+02   4.098892e+01
   1.888820e+02   2.286727e+02
  -4.613824e+00   2.621341e+02
  -2.406751e+02   6.983415e+01
  -3.342545e+02  -1.545887e+02
  -1.883226e+02  -3.509391e+02
   8.261636e+01  -3.052449e+02
   2.079845e+02  -1.300105e+02
   1.578868e+02  -6.058001e+01
   1.174697e+02  -3.406867e+01
   2.439654e+02  -3.659107e+01
   4.129048e+02   8.680040e+01
   3.204212e+02   2.952021e+02
  -1.906098e+01   4.356801e+02
  -3.509687e+02   3.593035e+02
  -4.846061e+02   1.874365e+02
  -3.368163e+02  -1.054143e+02
  -6.370424e+01  -2.943810e+02
   1.352600e+02  -2.200643e+02
   5.201544e+01  -2.214856e+01
  -6.043037e+01   6.225489e+01
  -1.201134e+02  -1.511444e+01
  -6.049684e+01  -1.611337e+02
   1.128776e+02  -1.158550e+02
   1.121762e+02   3.044402e+01
  -4.445544e+01   1.609075e+02
  -1.779500e+02   1.213703e+01
  -1.404926e+02  -2.655198e+02
   3.949224e+01  -3.729443e+02
   2.419406e+02  -1.864815e+02
   3.077673e+02   6.363392e+01
   2.940930e+02   2.299178e+02
   5.087906e+01   2.507917e+02
  -1.374451e+02   1.387585e+02
  -1.442111e+02   1.119416e+01
  -4.182325e+01  -2.856133e+01
   5.822201e+01   3.357250e+01
  -6.338650e-01   1.075162e+02
  -1.191399e+02   8.925570e+01
  -1.493150e+02  -1.763131e+01
  -3.873197e+01  -5.854837e+01
   7.171922e+01  -4.876196e-01
   5.153042e+01   8.546129e+01
  -1.506772e+02   8.787956e+01
  -2.558097e+02  -1.746083e+01
  -2.685833e+02  -1.401797e+02
  -6.734522e+01  -2.626841e+02
   1.310877e+02  -2.052670e+02
   2.260188e+02  -7.881861e+01
   1.252723e+02   2.439228e+01
  -2.238835e+01   9.233537e+01
  -6.140329e+01   1.393336e+01
   3.289881e+01  -6.672441e+01
   1.797985e+02  -3.936444e+01
   1.666041e+02   7.251024e+01
   5.131673e+01   1.589633e+02
  -1.044736e+02   1.418914e+02
  -1.421982e+02  -1.128642e+01
  -6.254421e+01  -2.613696e+01
   4.555811e+01   7.491029e+00
   5.979218e+01   9.949984e+01
  -1.003414e+02   1.260863e+02
  -2.058311e+02   3.372466e+01
  -2.119707e+02  -1.203263e+02
  -3.705378e+00  -1.887256e+02
   1.373300e+02  -1.398633e+02
   1.863171e+02   3.565735e+01
   5.139044e+01   1.294863e+02
  -5.685436e+01   8.075958e+01
  -3.213983e+01   5.279536e+01
   9.271739e+00  -3.928173e+01
   3.567466e+01  -9.220881e+00
  -1.258461e+01   7.973623e+00
  -7.834834e+01   1.549632e+01
  -6.978716e+01  -8.754879e+01
  -6.154972e+00  -1.357897e+02
   1.258275e+02  -1.549155e+02
   2.398305e+02   1.641066e+01
   1.841830e+02   1.388508e+02
   6.058671e+01   2.026224e+02
  -1.106379e+02   1.624882e+02
  -1.069487e+02   2.026813e+01
  -6.546267e+01  -4.888252e+01
  -3.131779e+01  -1.169653e+01
  -4.229444e+01   5.033426e+00
  -6.814048e+01  -1.904492e-01
  -5.886766e+01  -3.678323e+01
   3.014697e+01  -1.181070e+02
   1.183777e+02  -5.585484e+01
   1.359507e+02   5.422236e+01
  -2.226536e+01   1.051297e+02
  -1.111691e+02   1.007618e+02
  -1.778404e+02  -6.494374e+01
  -9.844743e+01  -1.954245e+02
   1.317325e+02  -2.157445e+02
   2.234613e+02  -8.227709e+01
   2.398345e+02   8.966405e+01
   9.450604e+01   1.541938e+02
  -4.356478e+01   1.385006e+02
  -8.653029e+01   4.979606e+01
  -9.427577e+01   7.158040e+01
  -5.627845e+01   1.133675e+02
  -5.761198e+01   7.501613e+01
  -1.052824e+02  -9.989127e+00
  -1.173187e+02  -1.434160e+02
  -1.227280e+01  -2.512631e+02
   9.720208e+01  -1.530322e+02
   1.579892e+02  -2.248110e+01
   1.299555e+02   1.006720e+02
   1.335566e+01   1.420214e+02
  -6.326812e+01   9.931634e+01
  -5.345202e+01  -3.138846e+01
   2.627057e+00  -5.907734e+01
   4.133903e+01  -3.115165e+01
  -2.696353e+01  -1.317779e+01
  -5.345512e+01  -8.139341e+00
  -3.084269e+01  -3.984049e+01
   5.789778e+01  -5.346242e+01
   2.123210e+02   1.346454e+01
   1.441408e+02   3.903221e+01
   3.585851e+01   1.270033e+02
  -1.024474e+02   9.336895e+01
  -1.760930e+02  -7.181546e+00
  -5.787870e+01  -4.165330e+01
   4.839727e+01  -5.579035e+01
   5.955291e+01   5.608562e+00
   5.130001e+01   5.450902e+01
  -4.687563e+01   8.301375e+01
  -4.491479e+01   1.418270e+00
  -1.578189e+01  -6.034170e+01
  -5.316093e+01  -5.021485e+01
  -1.774284e+01   5.398736e+00
  -6.123554e+01   1.432935e+01
   3.515177e+00  -4.836638e+01
  -9.671924e+00  -1.395871e+02
   8.072540e+01  -1.315125e+02
   1.504424e+02  -2.714536e+01
   9.057028e+01   8.491214e+01
   3.796177e+00   1.246051e+02
  -4.638621e+01   6.381546e+01
  -5.409272e+01  -3.076221e+00
   4.064063e+01  -3.058121e+01
   1.003886e+02   4.435877e+01
   3.826588e+01   1.137289e+02
  -7.861807e+01   1.047816e+02
  -1.843460e+02   5.176075e+01
  -1.643081e+02  -4.038556e+01
  -4.696906e+00  -1.013401e+02
   5.631757e+01  -3.227148e+01
   3.978410e+01  -7.467782e+00
  -7.621160e+01   4.966150e+01
  -9.082881e+01  -3.900354e+01
  -5.182828e+00  -9.647166e+01
   7.248124e+01  -1.298875e+02
   1.840552e+02  -5.208034e+01
   1.097337e+02   7.419379e+01
   2.518426e+01   1.559744e+02
  -2.459112e+01   1.125664e+02
  -1.107303e+02  -1.615036e+01
  -3.974784e+01  -1.100126e+02
  -1.973821e-01  -1.121928e+02
   4.788310e+01  -7.619155e+00
   4.745074e+01   4.382449e+01
   3.218335e+01   2.994818e+01
  -8.316974e+00  -5.248234e+00
   8.424814e+00   8.654670e-01
   5.852576e+01   7.316013e+01
   4.152470e+01   7.992759e+01
  -7.567733e+01   6.776197e+01
  -1.596193e+02  -3.485900e+01
  -1.284937e+02  -7.149957e+01
  -3.058047e+01  -8.953109e+01
   1.216588e+02  -2.961865e+01
   6.944597e+01  -1.861225e+01
   1.455622e+01   2.522778e+01
  -2.153072e+01   2.247938e+01
  -3.704313e+00   2.449774e+01
   1.365495e+01   2.547606e+01
  -1.859962e+01  -1.093180e+01
  -7.612893e+01  -7.620959e-01
  -8.698358e+01  -2.284174e+01
  -2.190135e+01  -7.575645e+01
   9.346374e+01  -1.008380e+02
   1.609761e+02  -7.432046e+01
   1.219335e+02   4.997842e+01
   2.141415e+01   1.526176e+02
  -6.631298e+01   1.393581e+02
  -1.128566e+02   6.753650e+01
  -6.408856e+01  -1.966744e+01
  -3.198119e+01  -6.144796e+01
  -1.775784e+01   1.043581e+01
   1.682317e+01   2.621738e+00
  -6.131432e+00  -4.613109e+01
   2.203048e+01  -9.370046e+01
   4.779957e+00  -4.568286e+01
   6.966092e+01   1.039390e+01
   6.762996e+01   7.575159e+01
   3.607809e+01   9.630151e+01
  -7.525318e+01   2.677791e+01
  -1.090685e+02  -4.775519e+01
  -1.458207e+01  -1.072629e+02
   3.977318e+01  -7.234684e+01
   7.902037e+01  -1.264274e+01
   5.709311e+01   5.875196e+01
  -1.280964e+01   8.801063e+01
  -5.736234e+01   7.260585e+01
   5.901265e+00   2.428228e+00
   6.834169e+01   1.576552e+01
   1.331835e+01   2.730305e+01
  -8.754878e+01   6.597414e+01
  -1.105537e+02   3.194159e+01
  -8.321708e+01  -1.795469e+01
   2.223733e-01  -7.406877e+01
   4.755910e+01  -4.955740e+01
   3.604499e+01  -2.857390e+00
   1.870210e+01   2.276093e+01
  -2.830426e+01   6.616243e+01
  -3.225232e+01   3.301103e+00
  -4.654064e+01  -5.784726e+01
   2.298526e+01  -8.714660e+01
   2.368493e+01  -4.235303e+00
   2.488816e+01   3.240906e+01
   1.219682e+00   1.671507e+01
  -2.363204e+01  -1.142946e+01
  -1.244375e+01  -2.639507e+01
   6.348566e+00   3.410401e+01
  -5.822980e-01   7.119316e+01
  -8.624225e+00   3.730852e+01
  -2.983094e+01  -1.365694e+01
  -3.788119e+00  -4.081451e+01
   4.133692e+01  -2.317733e+01
   4.643395e+01   4.154712e+01
   3.229198e+00   5.865041e+01
  -5.769719e+01   2.093606e+01
  -8.432579e+01  -3.188196e+01
  -3.079529e+01  -5.575861e+01
   6.043399e+01  -3.383872e+01
   5.417809e+01  -1.422109e+01
   4.709811e+01  -2.122930e+00
  -3.688601e+01  -5.708545e+00
   4.202385e+00  -1.299168e+01
   4.766527e+01  -3.870923e+01
   7.354313e+01  -2.651797e+01
