
 $NMID
 id='ANONYMOUS ', fmtdat='(2E16.6)'
 volume=1.0
 tramp=1.0
 $END
  -4.330093e+03  -1.024780e+02
  -2.666452e+03  -2.325966e+03
   6.283112e+02  -2.697093e+03
   2.288897e+03  -9.619272e+02
   9.570900e+02   6.106151e+02
  -5.961474e+02   6.454894e+02
  -9.978155e+02  -3.745399e+02
   2.908484e+01  -1.036459e+03
   8.965405e+02  -7.966774e+02
   9.459626e+02   8.274601e+01
   4.153653e+02   9.109489e+02
  -1.433024e+02   8.731151e+02
  -5.833785e+02   1.610533e+02
  -4.421896e+02  -6.984796e+02
   2.546844e+02  -7.919369e+02
   6.389586e+02  -2.293806e+01
   3.251768e+02   7.291990e+02
  -3.260106e+02   6.635515e+02
  -6.477223e+02   1.270730e+02
  -4.250774e+02  -3.900506e+02
   2.353854e+00  -4.338789e+02
   2.657327e+02  -2.301350e+02
   1.820892e+02   4.112062e+00
  -1.580967e+02   7.393013e+01
  -4.457827e+02  -1.523827e+02
  -2.064453e+02  -4.614049e+02
   4.688300e+02  -4.257092e+02
   8.410115e+02  -2.480109e+01
   4.915152e+02   5.263013e+02
  -4.033240e+02   4.986888e+02
  -7.598401e+02  -3.970270e+01
  -3.854457e+02  -5.292864e+02
   2.795969e+02  -5.113231e+02
   5.827424e+02  -1.601476e+02
   3.644758e+02   2.502061e+02
   9.719697e+01   4.315785e+02
  -1.968955e+02   2.377376e+02
  -1.340324e+02  -2.200196e+02
   1.978216e+02  -3.942535e+02
   4.131039e+02   5.934100e+01
   2.654839e+02   6.689308e+02
  -3.433445e+02   7.495243e+02
  -6.343918e+02   3.716965e+01
  -2.530210e+02  -5.331399e+02
   2.775930e+02  -3.346458e+02
   3.449083e+02   3.421662e+02
  -7.106842e+01   5.580231e+02
  -5.748610e+02   1.389914e+02
  -6.673501e+02  -3.842520e+02
  -2.111298e+02  -6.415189e+02
   3.988230e+02  -3.440718e+02
   6.285177e+02   8.023732e+01
   3.680069e+02   3.752687e+02
  -1.234585e+02   3.505373e+02
  -4.478689e+02   5.160210e+01
  -2.481156e+02  -1.662183e+02
   9.659956e+01  -1.330661e+02
   1.895839e+02   1.428592e+02
  -1.287844e+02   2.164691e+02
  -3.673712e+02   1.625929e+01
  -1.864670e+02  -2.887535e+02
   1.982165e+02  -2.913071e+02
   3.551031e+02  -9.562199e+01
   2.052904e+02   6.546451e+01
  -7.032648e+01   2.844279e+02
  -2.398796e+02   3.466274e+02
  -4.070836e+02   1.851288e+02
  -2.846627e+02  -1.584300e+02
  -1.345171e+02  -4.445026e+02
   8.878141e+01  -3.771627e+02
   8.303264e+01  -1.433604e+02
   2.886526e+01  -2.220656e+00
   4.497023e+01  -7.145435e+01
   2.225749e+02  -1.484439e+02
   2.785675e+02   3.776821e+01
   1.805553e+02   3.059238e+02
  -3.952943e+01   2.635415e+02
  -2.407296e+02   8.498880e+00
  -2.053803e+02  -2.740097e+02
   1.728918e+01  -3.289341e+02
   2.485293e+02  -1.086234e+02
   3.636572e+02   1.645855e+02
   2.021374e+02   3.466285e+02
  -8.637668e+01   2.944620e+02
  -2.422719e+02   1.487572e+02
  -1.290870e+02   1.473620e+01
  -1.066465e+02   5.338499e+01
  -2.522655e+02   8.402166e+01
  -3.985338e+02  -4.995038e+01
  -3.658493e+02  -3.360073e+02
   5.097711e+01  -5.251579e+02
   4.028260e+02  -4.402991e+02
   4.984922e+02  -2.317070e+02
   3.430485e+02   1.310397e+02
   4.843663e+01   2.854692e+02
  -1.448126e+02   2.486206e+02
  -8.187082e+01  -4.573824e+00
   9.788258e+01  -1.122475e+02
   2.097801e+02  -1.040686e+01
   6.098733e+01   2.066185e+02
  -1.333579e+02   1.761146e+02
  -2.006419e+02  -5.355223e+01
  -1.943551e+01  -1.607740e+02
   2.262512e+02  -1.764389e+01
   1.769288e+02   2.316370e+02
  -1.845337e+01   3.430903e+02
  -2.791537e+02   2.000113e+02
  -3.516992e+02  -7.325194e+01
  -3.093424e+02  -2.536871e+02
  -1.002243e+02  -2.548887e+02
   1.271514e+02  -1.546117e+02
   1.706930e+02  -2.151766e+01
   3.535443e+01   3.645191e+01
  -9.119354e+01  -4.385598e+01
  -2.236410e+00  -1.444569e+02
   1.526420e+02  -8.136012e+01
   1.951137e+02  -4.478285e+00
   5.376406e+01   9.383318e+01
  -1.061455e+02   6.138251e+01
  -7.313591e+01  -6.808127e+01
   1.132111e+02  -1.015970e+02
   2.689728e+02  -2.343026e+01
   2.912553e+02   1.343090e+02
   6.821073e+01   2.459840e+02
  -2.239258e+02   2.722779e+02
  -2.956568e+02   1.329244e+02
  -1.871416e+02  -5.926272e+01
   2.403904e-01  -1.180451e+02
   9.625132e+01  -1.766237e+01
  -3.389888e+01   8.348359e+01
  -2.125076e+02   8.213261e+01
  -2.313476e+02  -1.005576e+02
  -9.789326e+01  -2.005281e+02
   1.055974e+02  -1.812083e+02
   1.632032e+02  -3.509276e+01
   9.168802e+01   5.959781e+01
  -2.531584e+01   1.702252e+01
  -7.849322e+01  -9.515234e+01
   7.153053e+01  -1.285259e+02
   2.301302e+02  -4.774709e+01
   2.047878e+02   1.034938e+02
   4.363139e+01   2.416024e+02
  -1.657003e+02   2.012820e+02
  -1.854748e+02   3.064881e+01
  -7.874258e+01  -1.489188e+02
   7.166182e+01  -9.120266e+01
   9.720187e+01  -3.180397e+01
  -2.639103e+01   3.678917e+01
  -1.500431e+01  -1.376909e+01
  -1.007312e+01  -1.035688e+01
   7.843689e+01  -1.449359e+01
   1.151841e+02   7.421283e+01
   3.189716e+01   1.822489e+02
  -1.548794e+02   1.740871e+02
  -2.366676e+02   6.578203e+01
  -2.309153e+02  -1.247731e+02
  -6.636093e+01  -2.600567e+02
   8.911613e+01  -1.620435e+02
   1.554805e+02  -2.737318e+01
   6.321620e+01   3.742016e+01
   8.188658e+00   2.927753e+01
   3.590388e+01  -1.868280e+01
   8.953996e+01  -2.808033e+01
   5.608354e+01   5.198974e+01
  -1.284051e+01   9.819275e+01
  -1.184939e+02   6.808090e+01
  -1.088508e+02  -2.865838e+01
  -6.598097e+00  -1.288968e+02
   1.703562e+02  -1.358545e+02
   2.063686e+02   2.433607e+01
   8.992918e+01   2.137451e+02
  -1.326977e+02   2.167060e+02
  -2.904845e+02   1.057462e+02
  -2.485459e+02  -9.735341e+01
  -1.125765e+02  -1.777727e+02
   1.544051e+01  -1.305451e+02
   7.324250e+01  -9.261715e+01
   7.772669e+01  -5.481053e+01
   6.066190e+01  -1.227617e+02
   1.032562e+02  -6.565902e+01
   1.268682e+02   1.021444e+01
   1.529406e+02   1.287109e+02
   4.303055e+01   1.969000e+02
  -7.249961e+01   1.678182e+02
  -1.520922e+02   2.400254e-01
  -1.163431e+02  -1.525587e+02
  -3.528913e+01  -1.321174e+02
   7.220028e+01  -8.919585e+01
   4.705150e+01   4.205378e+00
  -1.941556e+01   5.120548e+01
  -3.618696e+01   8.364647e+00
   3.445503e+01  -9.568838e+00
   9.961588e+01   1.231149e+01
   2.063857e+01   3.062504e+01
  -5.449425e+01   3.616183e+01
  -1.385449e+02   2.617643e+01
  -1.484239e+02  -5.696638e+01
   4.412971e-01  -9.838176e+01
   1.185164e+02  -8.943306e+01
   1.558157e+02  -9.554744e+00
   2.048654e+01   4.452744e+01
  -5.251506e+01   3.535411e+01
  -1.043673e+02   1.610285e-01
  -6.298833e+00  -6.393933e+01
   6.398372e+01  -6.335730e+01
   8.886304e+01   1.494691e+01
   5.466129e+01   7.903479e+01
   1.290283e+01   8.192631e+01
   7.765678e+01   2.319666e+01
   6.608193e+01  -3.850430e+01
   2.758056e+01   6.516017e+01
  -7.465382e+00   1.608613e+02
  -1.247709e+02   1.403103e+02
  -1.798998e+02   3.895803e+01
  -1.367827e+02  -8.983423e+01
  -2.261297e+01  -1.490411e+02
   7.825584e+01  -5.179601e+01
   5.089012e+01   3.454659e+01
  -5.424933e+01   3.354332e+01
  -1.602382e+02  -3.113777e+01
  -8.996297e+01  -9.074306e+01
   8.259202e+01  -9.385993e+01
   1.782272e+02  -4.494101e+01
   1.846315e+02   2.382262e+01
   1.851101e+01   9.585667e+01
  -5.639590e+01   8.812057e+01
  -5.074338e+01   1.118557e+01
   4.683887e+01  -3.194160e+01
   8.892196e+01   1.477395e+01
   4.318743e+01   1.092076e+02
  -1.068156e+02   1.451109e+02
  -1.634705e+02   7.094192e+01
  -1.461022e+02  -1.013273e+02
  -1.631492e+00  -2.221890e+02
   1.183718e+02  -1.620531e+02
   1.135963e+02  -1.454338e+01
   1.007476e+02   1.183075e+02
   1.058797e+00   9.633220e+01
  -3.850252e+01   5.453185e+01
  -3.443923e+01  -4.477334e+01
  -9.275318e+00  -4.838227e+00
   2.379479e+01   4.042634e+00
  -2.924711e+01  -1.401893e+01
  -7.646607e+01  -5.669389e+01
  -6.223447e+01  -1.169299e+02
   4.691414e+01  -5.280086e+01
   1.297317e+02   3.919280e+01
   1.464125e+02   6.859861e+01
  -1.379669e+00   4.102560e+01
  -1.077360e+02   2.362437e+01
  -9.047016e+01   6.223592e+00
  -5.885603e+00   1.303282e+00
   3.796353e+01  -1.513913e+01
   7.948402e+00  -2.670352e+01
  -2.203217e+01  -2.341401e+01
   2.363212e+01   1.833145e+01
   7.898717e+01   1.440841e+01
   1.111739e+02   6.238569e+01
   1.606867e+01   1.116114e+02
  -9.492448e+01   1.295436e+02
  -1.894770e+02   6.401721e+01
  -1.458224e+02  -6.746515e+01
  -3.341925e+01  -1.932051e+02
   5.317754e+01  -1.865108e+02
   1.162258e+02  -5.078369e+01
   9.136817e+01   2.584882e+01
   2.599924e+01   2.664558e+01
   6.609998e+00   3.177946e+00
   9.801112e+00  -2.406904e-01
   4.304364e+01   3.874566e+01
   2.281544e+00   9.078008e+01
  -3.021141e+01   7.169595e+01
  -8.795785e+01  -9.368268e+00
  -7.319106e+01  -1.168424e+02
  -2.878121e+01  -1.238017e+02
   6.479825e+01  -3.560604e+01
   1.338687e+02   8.954879e+01
   2.637330e+01   7.340972e+01
  -5.612029e+01   6.820122e+01
  -1.047811e+02  -1.769098e+01
  -2.630339e+01  -4.249149e+01
   3.384580e+01  -3.364032e+01
   5.527763e+00  -1.692576e+01
  -2.788822e+01   2.952133e+00
  -8.501906e+01  -1.123039e+01
   7.047742e+00  -2.087107e+01
   1.034959e+02  -5.902368e+01
   1.271848e+02  -1.645504e+01
   3.353116e+01   2.327127e+01
  -1.511138e+01   8.920569e+01
  -6.788608e+01   7.188255e+01
  -2.326588e+01   2.014328e+01
   7.908060e+00  -4.187416e+01
   3.247534e+01  -4.755159e+01
   4.999952e+01  -9.519968e+00
   2.944347e+01   3.799743e+01
  -2.496369e+01   3.708894e+01
  -3.718383e+01  -4.373956e+00
  -3.810726e+01  -2.040381e+01
  -1.206894e+01   9.196612e+00
  -6.589757e+00   1.748972e+01
   3.849711e+00  -1.126702e+01
   5.890350e+00  -1.910197e+01
   8.595622e+00  -2.459573e+01
   3.640088e+01  -1.498539e+01
   5.331342e+01   5.509016e+01
  -7.437629e+00   5.655829e+01
  -4.350028e+01   1.466455e+01
  -5.593360e+01  -3.327714e+01
   1.755423e+00  -8.779800e+01
   4.306933e+01  -4.436176e+01
   8.093250e+01  -4.843895e+00
   4.728664e+01   2.271396e+01
  -3.877377e+01   5.916801e+01
  -5.742146e+01   2.625438e+01
  -8.457326e+00  -6.853611e+00
   3.589764e+01   3.697760e+01
   2.291766e+01  -2.433900e+00
  -4.773065e+01   4.283205e+01
  -6.344821e+01   3.360031e+01
