
 $NMID
 id='ANONYMOUS ', fmtdat='(2E16.6)'
 volume=1.0
 tramp=1.0
 $END
  -4.182421e+03   3.966678e+02
  -2.734846e+03  -2.231187e+03
   4.918899e+02  -2.673789e+03
   1.855499e+03  -1.072163e+03
   9.780704e+02   5.316299e+02
  -5.763991e+02   6.035658e+02
  -9.189063e+02  -2.699111e+02
  -1.459165e+02  -1.074100e+03
   7.674232e+02  -8.735734e+02
   1.009649e+03   2.806751e+01
   5.332353e+02   8.137989e+02
  -8.839016e+01   9.540881e+02
  -6.521850e+02   2.242578e+02
  -4.109002e+02  -6.488576e+02
   1.528698e+02  -7.638041e+02
   6.387692e+02  -4.818751e+01
   3.701672e+02   6.097008e+02
  -1.950792e+02   7.443056e+02
  -5.625738e+02   1.509941e+02
  -4.836026e+02  -2.868547e+02
  -3.936790e+01  -4.253362e+02
   2.345296e+02  -2.819525e+02
   1.953260e+02  -3.357112e+01
  -1.291824e+02   9.007860e+01
  -4.214514e+02  -1.131164e+02
  -1.506167e+02  -4.333986e+02
   4.277413e+02  -4.473430e+02
   8.464374e+02   2.215661e+01
   3.913723e+02   4.374320e+02
  -3.179799e+02   4.510693e+02
  -6.630520e+02   3.324826e+01
  -3.485838e+02  -4.201750e+02
   2.235880e+02  -5.104405e+02
   5.261824e+02  -2.159057e+02
   4.539681e+02   1.952960e+02
   1.286949e+02   5.003848e+02
  -2.012131e+02   3.078462e+02
  -1.877836e+02  -2.143146e+02
   1.229506e+02  -4.119471e+02
   3.934743e+02  -4.949246e+00
   2.660828e+02   6.330972e+02
  -2.845835e+02   6.349189e+02
  -5.855860e+02   3.375452e+01
  -2.635000e+02  -4.867776e+02
   2.628664e+02  -3.336395e+02
   3.986604e+02   2.398105e+02
   4.474464e+00   5.053201e+02
  -5.534932e+02   1.851535e+02
  -6.526731e+02  -3.241835e+02
  -2.314193e+02  -5.187557e+02
   2.998973e+02  -3.976712e+02
   5.910858e+02   2.239157e+00
   4.049438e+02   3.539999e+02
  -1.193927e+02   4.024855e+02
  -4.079862e+02   1.003785e+02
  -2.420716e+02  -1.995605e+02
   1.035298e+02  -1.354978e+02
   1.836570e+02   1.276034e+02
  -8.225621e+01   1.747584e+02
  -3.138352e+02   5.214052e+00
  -1.492437e+02  -2.719112e+02
   1.609578e+02  -2.800457e+02
   3.520381e+02  -1.109525e+02
   2.249938e+02   6.186660e+01
  -4.468051e+01   2.513432e+02
  -2.245908e+02   3.409293e+02
  -3.087737e+02   2.202897e+02
  -2.664556e+02  -1.607781e+02
  -1.124871e+02  -4.075743e+02
   7.973788e+01  -3.334539e+02
   9.054869e+01  -1.143212e+02
   2.569124e+01  -3.187641e+00
   5.051419e+01  -8.642558e+01
   1.592760e+02  -1.516666e+02
   2.887988e+02   2.449076e+01
   1.712929e+02   2.516637e+02
  -5.973324e+01   2.763703e+02
  -2.601124e+02   1.036984e+01
  -2.343531e+02  -2.013487e+02
  -2.691095e+01  -3.192904e+02
   2.414849e+02  -1.500314e+02
   3.459935e+02   1.528314e+02
   2.410036e+02   3.089567e+02
  -7.740099e+01   3.174953e+02
  -1.929157e+02   1.425000e+02
  -1.640253e+02   1.619597e+01
  -7.790589e+01   2.801491e+01
  -2.053444e+02   1.004646e+02
  -3.710223e+02  -1.752048e+01
  -3.322785e+02  -2.624994e+02
  -6.439399e+01  -4.362520e+02
   3.558612e+02  -4.241165e+02
   4.878110e+02  -2.518061e+02
   3.231437e+02   9.029654e+01
   8.162779e+01   3.123805e+02
  -9.666744e+01   2.488413e+02
  -7.450263e+01   5.696008e+01
   7.766632e+01  -9.057529e+01
   1.731480e+02  -3.351566e+01
   9.987450e+01   1.563724e+02
  -1.412333e+02   1.898140e+02
  -1.981727e+02  -4.567831e+01
   2.622308e+01  -1.699047e+02
   2.276143e+02  -3.821288e+01
   1.892436e+02   2.175360e+02
  -1.541966e+01   3.706904e+02
  -2.477020e+02   1.996735e+02
  -3.486186e+02  -7.345099e+01
  -2.592273e+02  -2.657754e+02
  -9.906347e+01  -2.607008e+02
   1.207718e+02  -1.485886e+02
   1.421844e+02   2.384139e+01
   3.065329e+01   3.937364e+01
  -9.971697e+01  -4.807943e+01
  -1.001480e+01  -1.422524e+02
   1.268132e+02  -7.102154e+01
   1.681373e+02  -2.169034e+01
   5.455528e+01   6.572849e+01
  -1.029508e+02   2.868820e+01
  -5.967039e+01  -8.039519e+01
   1.395810e+02  -6.948182e+01
   2.707658e+02  -2.436169e+01
   2.871121e+02   1.323580e+02
   9.253392e+01   2.570438e+02
  -1.564354e+02   2.499172e+02
  -2.229892e+02   1.351367e+02
  -1.661013e+02  -3.313928e+01
   2.947853e+01  -1.247178e+02
   6.834438e+01   4.230791e+00
  -3.740693e+01   1.095082e+02
  -1.916578e+02   9.821352e+01
  -1.844289e+02  -8.416137e+01
  -5.735476e+01  -2.002804e+02
   9.841669e+01  -1.593904e+02
   1.258773e+02  -3.251558e+01
   5.837049e+01   3.155991e+01
  -5.735444e+01   6.035351e+00
  -4.450096e+01  -1.041615e+02
   9.477394e+01  -1.235342e+02
   2.162824e+02  -3.479680e+01
   1.861575e+02   1.050346e+02
   2.755269e+01   1.969445e+02
  -1.633351e+02   1.685101e+02
  -1.855218e+02   3.880518e+01
  -7.645132e+01  -1.165394e+02
   6.898741e+01  -7.454163e+01
   7.358894e+01  -2.835435e+01
   3.556645e+01   3.346248e+01
  -4.686609e+01   3.470473e+01
   1.482899e+01  -2.778240e+01
   9.555272e+01  -1.197705e+01
   8.047358e+01   6.804274e+01
   3.389619e+01   1.774981e+02
  -1.207257e+02   1.705150e+02
  -2.159258e+02   3.940791e+01
  -2.258139e+02  -1.526785e+02
  -7.110372e+01  -2.257626e+02
   1.220888e+02  -1.435587e+02
   1.473052e+02  -3.681137e+01
   8.954264e+01   6.766526e+01
   3.355636e+01   3.581994e+01
   9.544999e+00  -2.196097e+01
   5.549538e+01  -6.284377e+00
   3.149969e+01   3.419918e+01
  -5.458402e+01   9.952044e+01
  -1.018720e+02   6.585071e+01
  -9.555175e+01  -3.590631e+01
  -1.993097e+01  -1.133671e+02
   1.449887e+02  -9.463875e+01
   1.882014e+02   6.708759e+01
   7.782562e+01   2.034745e+02
  -1.076108e+02   2.328025e+02
  -2.632587e+02   8.019319e+01
  -2.490937e+02  -5.861807e+01
  -1.079191e+02  -1.548756e+02
   1.211428e+01  -1.692389e+02
   6.683286e+01  -1.034232e+02
   6.613632e+01  -7.169306e+01
   7.502021e+01  -8.358553e+01
   1.222258e+02  -5.711615e+01
   1.371888e+02  -1.607704e+01
   1.289169e+02   1.124963e+02
   7.292058e+01   2.422026e+02
  -8.227602e+01   1.915116e+02
  -1.823464e+02   4.459912e+01
  -2.048614e+02  -1.064355e+02
  -8.194166e+01  -1.450004e+02
   3.773937e+01  -9.803837e+01
   4.254943e+01  -3.703420e+01
   2.423244e+01   2.924436e+01
  -3.174813e+00   4.752603e+01
   2.465035e+01   2.045830e+01
   7.289017e+01   5.260812e+00
   4.430116e+01   1.658344e+01
  -6.041600e+01   3.907230e+01
  -1.388650e+02   1.979855e+01
  -1.134636e+02  -3.631887e+01
  -2.542937e+01  -6.965890e+01
   1.308401e+02  -1.095131e+02
   1.560537e+02  -5.988186e+01
   3.942451e+01   3.053943e+01
  -5.408495e+01   1.726541e+01
  -6.758289e+01  -3.144343e+00
  -2.040171e+01  -7.627484e+01
   5.761679e+01  -5.291272e+01
   4.073225e+01  -6.115314e+00
   5.734109e+01   2.801287e+01
   9.264942e+00   1.388121e+01
   5.927206e+01   2.212051e+01
   5.069060e+01  -2.507938e+01
   3.611109e+01   4.330620e+01
   1.606687e+01   1.438822e+02
  -9.478236e+01   1.455616e+02
  -1.527452e+02   7.557248e+01
  -1.501755e+02  -9.395002e+01
  -4.229076e+01  -1.156793e+02
   8.945739e+01  -4.363957e+01
   5.264311e+01   3.245506e+01
  -4.150244e+01   2.539300e+01
  -1.081334e+02   7.496376e+00
  -3.086312e+01  -8.204096e+01
   5.775485e+01  -8.003683e+01
   1.578674e+02  -4.783894e+01
   1.514832e+02   1.651355e+01
   3.401636e+01   7.003226e+01
  -6.054414e+01   5.187584e+01
  -3.560351e+01   5.723897e+00
   3.287530e+01  -1.464378e+01
   8.359464e+01   3.567411e+01
   2.450578e+01   9.962900e+01
  -1.059572e+02   1.229926e+02
  -1.496047e+02   5.358883e+01
  -9.646956e+01  -1.143720e+02
  -6.724980e+00  -1.649995e+02
   8.760412e+01  -1.547967e+02
   1.188371e+02  -1.584420e+01
   7.322403e+01   1.064790e+02
   1.123655e+01   1.142526e+02
  -2.977970e+01   2.403679e+01
  -2.062577e+01  -4.395596e+01
  -5.467311e+00   6.969631e+00
   7.708769e+00   4.774170e+01
  -1.745201e+01  -2.485975e+01
  -6.052256e+01  -6.421685e+01
  -4.174035e+01  -9.873643e+01
   5.864734e+01  -1.956690e+01
   1.245080e+02   3.628177e+01
   1.095086e+02   6.199388e+01
   2.898955e+01   5.634540e+01
  -5.414793e+01   5.154840e+01
  -8.136228e+01   3.702190e+01
  -3.047728e+01  -1.291453e+01
   4.996709e+01  -3.169357e+01
   3.577884e+01  -3.199101e+01
  -2.280559e+00   2.740281e+01
   1.390727e+01   1.672773e+01
   8.187570e+01   7.142291e+00
   9.133566e+01   2.047791e+01
   3.589632e+01   7.885660e+01
  -1.216586e+02   1.231109e+02
  -1.704866e+02   7.099425e+01
  -1.490309e+02  -3.827382e+01
  -2.711445e+01  -1.519377e+02
   8.041400e+01  -1.494739e+02
   1.292554e+02  -8.549978e+01
   9.017931e+01   8.076365e+00
   1.192637e+01   3.071228e+01
   1.085116e+01   2.085083e+01
  -2.148918e+00  -1.279445e+01
   3.327369e+01   3.177916e+01
  -5.906416e+00   7.740884e+01
  -1.186611e+01   8.351752e+01
  -4.975774e+01   8.215807e+00
  -7.645016e+01  -1.059139e+02
  -4.172034e+00  -7.906090e+01
   6.277084e+01  -1.259754e+01
   9.204111e+01   9.297441e+01
   2.041381e+01   9.005507e+01
  -4.875362e+01   5.911047e+01
  -9.494632e+01  -2.381833e+01
  -2.308699e+01  -7.617549e+01
   6.147331e+01  -6.960197e+01
   6.490321e+01  -2.584951e+01
  -2.894608e+00   8.595878e+00
  -4.081909e+01   1.394759e+01
   1.654198e+01  -3.391924e+01
   4.269940e+01  -8.160723e+01
   8.592137e+01  -2.087738e+01
   2.261165e+01   3.324874e+01
  -4.057252e+01   8.419887e+01
  -4.258885e+01   5.391612e+01
  -3.003835e+01  -2.599568e+00
   8.952244e+00  -7.386106e+01
   3.605636e+01  -4.246060e+01
   6.739049e+01   2.158424e+01
   4.138325e+01   1.786263e+01
  -9.801964e+00   4.685447e+01
  -8.286801e+00   1.421872e+01
  -1.779289e+01  -3.693356e+01
   1.886982e+01   9.157547e+00
  -2.530809e+00   4.207357e+01
  -1.769983e+01   1.448704e+01
  -1.217005e+01  -4.670198e+01
   4.511784e+00  -6.552323e+01
   2.808056e+01  -2.623828e+01
   3.199011e+01   3.200688e+01
   4.466976e+01   4.644910e+01
  -1.905278e+01   3.284125e+01
  -7.755139e+01  -3.707925e+01
  -2.424923e+01  -8.829856e+01
   7.043484e+01  -3.448743e+01
   1.209822e+02  -1.118251e+01
   4.843968e+01   2.371691e+01
  -5.856708e+01   4.502828e+01
  -6.720720e+01   4.610886e+01
  -9.831731e+00   3.189480e+00
   4.876707e+01   1.055398e+01
   5.606655e+01   1.706619e+01
  -4.289649e+01   3.598297e+01
  -1.251472e+02   1.775525e+01
