
 $NMID
 id='ANONYMOUS ', fmtdat='(2E16.6)'
 volume=1.0
 tramp=1.0
 $END
   4.188477e+03  -3.267453e+02
   2.917972e+03   2.399545e+03
  -4.695635e+02   2.913473e+03
  -2.087926e+03   9.182013e+02
  -1.088225e+03  -5.316808e+02
   4.247048e+02  -6.857482e+02
   9.066736e+02   2.647072e+02
   1.103970e+02   1.073338e+03
  -7.547917e+02   7.891871e+02
  -9.681565e+02   9.961008e-01
  -4.989072e+02  -7.297284e+02
   1.189612e+02  -9.593106e+02
   5.850709e+02  -2.399114e+02
   4.544140e+02   6.462386e+02
  -1.474814e+02   7.612414e+02
  -5.757439e+02   5.164889e+01
  -4.000231e+02  -6.832922e+02
   3.353762e+02  -6.733467e+02
   6.715536e+02  -1.387964e+02
   4.509745e+02   3.978611e+02
   2.983918e+01   4.745281e+02
  -2.151564e+02   2.992133e+02
  -2.100288e+02   4.797840e+01
   3.963745e+01  -3.859202e+01
   3.205402e+02   1.228590e+02
   1.714079e+02   3.133513e+02
  -4.037281e+02   4.051364e+02
  -7.912097e+02   1.242993e+01
  -4.660991e+02  -5.172821e+02
   3.235378e+02  -5.421880e+02
   7.190424e+02  -3.791468e+01
   4.051067e+02   4.374934e+02
  -2.743784e+02   5.427932e+02
  -5.692433e+02   2.354059e+02
  -4.031970e+02  -1.852308e+02
  -7.561324e+01  -3.898872e+02
   8.335618e+01  -2.985956e+02
   1.351113e+02   1.457495e+02
  -8.660248e+01   3.786086e+02
  -3.341533e+02   3.398979e+00
  -3.104428e+02  -4.637838e+02
   1.957319e+02  -5.854685e+02
   4.976936e+02  -1.074440e+02
   2.817859e+02   4.937406e+02
  -2.320285e+02   3.351835e+02
  -3.777723e+02  -2.980947e+02
   1.632610e+01  -5.290683e+02
   5.133201e+02  -1.880955e+02
   5.785437e+02   3.677505e+02
   1.431037e+02   5.780371e+02
  -3.253544e+02   3.307535e+02
  -5.863796e+02  -4.832832e+01
  -4.227064e+02  -3.293717e+02
   9.078298e+01  -3.680319e+02
   4.284615e+02  -1.214478e+02
   2.769382e+02   1.649634e+02
  -6.821053e+01   1.371131e+02
  -1.697361e+02  -1.229241e+02
   7.120585e+01  -1.670973e+02
   3.712734e+02   2.044039e+01
   1.887473e+02   2.984274e+02
  -1.884941e+02   2.868924e+02
  -3.452656e+02   7.904633e+01
  -2.001186e+02  -6.087641e+01
   2.712808e+01  -2.401626e+02
   2.499937e+02  -3.063730e+02
   3.427440e+02  -1.749032e+02
   2.823500e+02   1.109900e+02
   8.237235e+01   4.438437e+02
  -8.280031e+01   3.891626e+02
  -1.440226e+02   1.288151e+02
  -6.529148e+01   1.538501e+01
  -6.606532e+01   6.196868e+01
  -1.599894e+02   1.409169e+02
  -2.471104e+02  -4.191568e+01
  -1.520033e+02  -2.302482e+02
   5.776221e+01  -2.553584e+02
   1.912212e+02   1.741803e+01
   1.731318e+02   2.369330e+02
   1.132552e+01   2.970937e+02
  -2.311889e+02   1.521542e+02
  -3.723900e+02  -1.289289e+02
  -1.913638e+02  -3.082233e+02
   8.171818e+01  -2.861954e+02
   2.184007e+02  -1.613776e+02
   1.747738e+02  -2.753857e+01
   1.135401e+02  -7.157416e+01
   1.898037e+02  -5.518283e+01
   4.013130e+02   7.269565e+01
   3.051858e+02   2.677715e+02
  -7.912807e+00   3.747217e+02
  -3.457079e+02   3.403968e+02
  -4.198694e+02   1.979264e+02
  -2.563316e+02  -6.015319e+01
  -6.092308e+01  -2.700294e+02
   9.323300e+01  -2.254982e+02
   7.301944e+01  -5.792055e+01
  -1.154950e+02   6.648846e+01
  -1.924297e+02  -1.253631e+01
  -5.672081e+01  -1.930839e+02
   1.478922e+02  -1.725790e+02
   1.803846e+02   5.869128e+01
   1.628357e+01   1.797272e+02
  -1.689434e+02   5.474782e+01
  -1.690690e+02  -2.028235e+02
   1.327872e-01  -3.284100e+02
   2.252853e+02  -1.936672e+02
   3.274012e+02   9.716092e+01
   2.207372e+02   2.263938e+02
   5.237262e+01   2.692756e+02
  -1.240839e+02   1.282394e+02
  -1.765643e+02   2.275990e+01
  -3.953512e+01  -1.679846e+01
   4.653947e+01   3.891707e+01
   2.322499e+01   8.390183e+01
  -1.515940e+02   7.856695e+01
  -1.635605e+02   5.156220e+00
  -4.696164e+01  -4.334139e+01
   8.493715e+01  -6.024654e+00
   7.965431e+01   6.359159e+01
  -1.274302e+02   9.873681e+01
  -2.779483e+02   2.209191e+01
  -2.364060e+02  -1.053079e+02
  -4.639206e+01  -2.592517e+02
   2.030690e+02  -2.175604e+02
   2.545351e+02  -1.260302e+02
   1.698289e+02   3.817119e+01
   7.163268e+00   9.507605e+01
  -7.978068e+01   1.816395e+01
   4.325535e+01  -9.323721e+01
   1.874456e+02  -5.262833e+01
   2.185676e+02   1.091048e+02
   7.251910e+01   2.223660e+02
  -1.203265e+02   1.457361e+02
  -1.457918e+02  -1.215205e+01
  -5.997508e+01  -5.677884e+01
   3.134208e+01   1.223679e+01
   2.886289e+01   9.221936e+01
  -7.377877e+01   1.229873e+02
  -1.932908e+02   2.056241e+01
  -1.814693e+02  -1.071519e+02
  -9.730105e+00  -2.223806e+02
   1.560413e+02  -1.340872e+02
   2.223453e+02  -8.771628e+00
   7.007511e+01   8.553761e+01
  -5.882668e+01   1.210369e+02
  -6.770175e+01   2.045570e+01
   2.226314e+01  -1.823659e+01
   4.880935e+01  -6.556969e+00
  -4.326091e+01   2.443009e+01
  -9.533216e+01   6.290176e+00
  -7.009680e+01  -7.998151e+01
  -2.015565e+01  -1.467204e+02
   1.084409e+02  -1.493794e+02
   2.284379e+02  -2.269755e+01
   1.856325e+02   9.751995e+01
   2.366012e+01   2.278342e+02
  -8.300887e+01   1.653402e+02
  -1.400831e+02   3.742971e+01
  -5.847199e+01  -6.182265e+01
  -3.943088e+01  -3.427206e+01
  -4.678615e+01   6.593352e+00
  -6.496624e+01  -9.010389e+00
  -4.009443e+01  -4.783590e+01
   6.305269e+01  -9.663662e+01
   1.103594e+02  -2.044797e+01
   7.494160e+01   5.023926e+01
  -4.497679e+01   1.156418e+02
  -1.698076e+02   7.680789e+01
  -1.485239e+02  -6.121874e+01
  -5.895398e+01  -1.912133e+02
   1.178659e+02  -2.249066e+02
   2.231020e+02  -1.040196e+02
   2.355421e+02   8.381596e+01
   1.056626e+02   1.252061e+02
  -4.560788e+01   1.221776e+02
  -1.127624e+02   6.767711e+01
  -4.811113e+01   8.587294e+01
  -6.452572e+01   8.921182e+01
  -1.130837e+02   8.345482e+01
  -1.274704e+02  -2.312640e+01
  -1.153355e+02  -1.643715e+02
  -1.819235e+01  -2.265517e+02
   9.506171e+01  -1.359117e+02
   1.799948e+02  -3.373357e+00
   1.229114e+02   1.251820e+02
   9.109218e-01   1.457422e+02
  -4.575382e+01   7.875853e+01
  -5.918063e+01   2.216417e+01
   1.280237e+01  -4.342108e+01
   4.855184e+00  -3.512319e+01
  -3.465536e+01  -1.562963e+01
  -5.414803e+01  -1.993883e+01
  -4.544399e+01  -5.778196e+01
   8.640401e+01  -2.140588e+01
   1.379559e+02  -6.210300e+00
   1.018814e+02   5.237905e+01
   6.823804e+00   1.036398e+02
  -1.440006e+02   8.077765e+01
  -1.518621e+02  -1.553932e+01
  -1.328398e+01  -3.845489e+01
   4.924805e+01  -3.060999e+01
   4.325157e+01   2.044222e+01
   1.730158e+01   8.627318e+01
  -4.310199e+01   8.881150e+01
  -3.550191e+01   3.380388e+00
  -4.553950e+01  -5.592649e+01
  -7.470137e+01  -1.689886e+01
  -6.930373e+01  -1.670469e+01
  -6.982380e+01   9.740081e+00
  -1.046951e+01  -8.994722e+01
   1.404672e+01  -1.326809e+02
   1.082367e+02  -1.830696e+02
   1.635330e+02  -2.249528e+01
   1.308254e+02   8.782202e+01
  -1.398346e+01   1.462339e+02
  -6.217495e+01   6.523891e+01
  -5.426894e+01  -6.773747e+00
   7.049099e+01  -3.276252e+01
   1.413526e+02   6.776267e+01
   7.688527e+01   1.081980e+02
  -8.461246e+01   9.745664e+01
  -1.682098e+02   6.598312e+01
  -1.409012e+02  -2.345644e+01
  -6.923435e+01  -8.878666e+01
   5.767799e+01  -5.093224e+01
   2.484197e+01  -2.281838e+00
  -1.842400e+01   7.203020e+00
  -8.811800e+01   1.189649e+01
  -3.654157e+01  -1.142164e+02
   8.293722e+01  -1.461321e+02
   1.622294e+02  -8.692511e+01
   1.143599e+02   9.978756e+01
   1.651231e+01   1.756524e+02
  -8.513484e+01   1.478864e+02
  -1.092200e+02  -1.750898e+01
  -6.631263e+01  -1.140756e+02
   8.599847e+00  -1.186196e+02
   4.051544e+01  -9.406017e-04
   2.818865e+01   4.216093e+01
   5.890151e+00  -1.786375e+01
   2.644198e+01  -7.192299e+00
   2.393355e+01  -1.025827e+01
   4.847585e+01   1.048907e+02
   2.860249e+01   1.107106e+02
  -6.092725e+01   2.625606e+01
  -1.304261e+02  -3.611738e+01
  -9.972578e+01  -3.024941e+01
  -1.724340e+01  -3.201062e+01
   8.102823e+01  -9.393964e+00
   8.138527e+01  -6.373828e-02
  -2.448353e+01  -1.692251e+00
  -4.525409e+01   3.985584e+01
   5.297843e+00  -1.356687e+01
   2.728213e+01   1.625120e+01
  -2.491259e+01  -1.664341e+01
  -7.960866e+01  -1.803686e+01
  -6.880573e+01  -4.418413e+01
  -3.885321e+01  -5.487892e+01
   9.913163e+01  -9.698275e+01
   2.133136e+02  -5.665369e+01
   1.298243e+02   6.097556e+01
   4.132505e+01   1.708206e+02
  -5.740066e+01   1.356918e+02
  -9.014448e+01   3.729717e+01
  -6.451846e+01  -1.008388e+01
  -1.656020e+01  -4.884901e+01
   3.261636e+01  -1.230171e+01
   5.532483e+00  -1.323505e+01
  -3.698050e+01  -5.894878e+01
  -1.873180e+01  -6.952848e+01
   1.109547e+01  -8.784658e+01
   9.856458e+01   3.770562e+00
   6.507254e+01   1.187281e+02
  -1.420826e+01   1.148084e+02
  -7.939098e+01   1.810756e+01
  -1.024282e+02  -8.417627e+01
  -4.717804e+01  -1.091487e+02
   5.144683e+01  -5.074038e+01
   8.163032e+01   6.668049e+00
   3.929413e+01   3.182866e+01
  -4.471758e+01   4.268996e+01
  -3.451703e+01  -2.361235e-01
   2.101646e+01   1.932321e+01
   6.104389e+01  -2.960737e+00
   1.478474e+01   7.315311e+01
  -1.044007e+02   8.912723e+01
  -1.369186e+02   5.346305e+01
  -6.192042e+01  -3.641942e+01
   3.945729e+00  -1.030919e+02
   7.027427e+01  -5.450043e+01
   3.827438e+01   2.330199e+01
  -5.029320e+00   4.590325e+01
   9.612196e+00   2.553722e+01
  -1.036660e+01  -1.244033e+01
  -9.254907e+00  -3.655651e+01
   2.383239e+00  -2.404566e+01
   2.548624e+01   1.365734e+01
   2.632716e+01   3.082638e+01
   2.505723e+01   3.712114e+00
  -5.932243e+00  -1.151590e+01
   7.011865e+00   1.595793e+01
   1.635276e+00   3.186882e+01
  -3.602173e+01   1.741285e+01
  -2.004113e+01   8.124211e+00
  -1.118068e+01  -5.401780e+01
  -2.170432e+01  -5.082430e+01
   1.675641e+01  -1.589218e+01
   4.990081e+01   6.893404e+01
   1.320478e+01   5.233698e+01
  -3.823182e+01   3.915384e+01
  -7.984380e+01  -1.239458e+00
  -3.980138e+01  -3.848499e+01
   1.416212e+01  -4.418527e+01
   3.860940e+01  -5.979258e+01
   3.403851e+01  -2.026332e+01
  -1.295687e+01  -1.332268e+01
  -4.355279e+01  -1.384090e+01
   3.546794e+01  -3.897614e+01
   1.175801e+02  -1.102587e+01
