
 $NMID
 id='ANONYMOUS ', fmtdat='(2E16.6)'
 volume=1.0
 tramp=1.0
 $END
  -3.764301e+03  -1.363477e+02
  -2.249746e+03  -2.428754e+03
   6.612396e+02  -2.523819e+03
   1.741459e+03  -9.237771e+02
   8.036123e+02   4.454853e+02
  -6.152874e+02   3.931914e+02
  -7.959668e+02  -3.730718e+02
   2.003720e+01  -8.594337e+02
   7.050043e+02  -5.913790e+02
   7.724957e+02   1.451399e+02
   3.731324e+02   8.257952e+02
  -2.161444e+02   7.955985e+02
  -5.910283e+02   8.686971e+01
  -3.663640e+02  -6.415962e+02
   2.406069e+02  -6.982180e+02
   5.834839e+02  -3.552712e+01
   3.369540e+02   6.309433e+02
  -2.570831e+02   6.561636e+02
  -5.397157e+02   1.183146e+02
  -3.942074e+02  -3.214610e+02
  -7.394219e+01  -4.264199e+02
   2.369078e+02  -2.572204e+02
   2.205579e+02  -9.837112e+00
  -9.070075e+01   5.933043e+01
  -4.124575e+02  -1.233302e+02
  -1.686593e+02  -3.912286e+02
   4.933214e+02  -3.402223e+02
   8.119210e+02   5.507417e+01
   3.931631e+02   5.395736e+02
  -3.512112e+02   4.079993e+02
  -6.560267e+02  -8.076492e+01
  -3.132200e+02  -4.359028e+02
   2.637672e+02  -4.908857e+02
   5.220352e+02  -1.618921e+02
   4.017515e+02   2.240277e+02
   8.372433e+01   4.518692e+02
  -2.307534e+02   2.525820e+02
  -1.584247e+02  -1.991302e+02
   1.032822e+02  -3.934964e+02
   3.688917e+02   2.034954e+01
   2.175566e+02   6.191438e+02
  -3.442286e+02   6.349939e+02
  -5.603171e+02   2.074716e+01
  -1.906840e+02  -5.204722e+02
   2.891023e+02  -2.934954e+02
   3.683728e+02   3.200446e+02
  -5.510956e+01   5.352529e+02
  -4.824276e+02   1.117937e+02
  -5.516021e+02  -3.516746e+02
  -2.119372e+02  -4.995204e+02
   3.172360e+02  -3.240684e+02
   6.028070e+02  -2.319222e+01
   3.747287e+02   3.243676e+02
  -1.272682e+02   3.471349e+02
  -4.183486e+02   7.700635e+01
  -2.524653e+02  -1.548846e+02
   8.809446e+01  -1.058802e+02
   1.459624e+02   1.177263e+02
  -1.115179e+02   1.744520e+02
  -3.101694e+02  -4.382204e+01
  -1.498600e+02  -2.545845e+02
   1.973080e+02  -2.582829e+02
   3.052077e+02  -7.993071e+01
   2.303066e+02   6.162165e+01
  -3.170020e+01   2.405875e+02
  -2.027347e+02   3.211603e+02
  -3.637242e+02   1.765305e+02
  -2.900194e+02  -1.214287e+02
  -9.791561e+01  -4.181872e+02
   1.222671e+02  -3.062768e+02
   8.999929e+01  -1.330491e+02
   1.147391e+01  -9.269624e+00
   1.546991e+01  -9.884354e+01
   2.110871e+02  -1.141890e+02
   2.556970e+02   4.149463e+01
   1.682153e+02   2.903283e+02
  -4.220501e+01   2.147410e+02
  -2.190859e+02   2.929475e+01
  -1.818076e+02  -2.063136e+02
   7.390196e+00  -2.635752e+02
   2.563110e+02  -1.040688e+02
   3.289067e+02   1.524298e+02
   1.865442e+02   3.671000e+02
  -9.238103e+01   2.893998e+02
  -2.142940e+02   1.234329e+02
  -1.733714e+02   1.419761e+01
  -1.223126e+02   2.515409e+01
  -2.208788e+02   5.246959e+01
  -3.437742e+02  -6.198489e+01
  -3.061955e+02  -2.530535e+02
  -8.249153e+00  -4.323808e+02
   3.400392e+02  -3.755689e+02
   4.861616e+02  -2.168380e+02
   3.453597e+02   1.212211e+02
   5.438371e+01   2.646204e+02
  -1.084569e+02   2.749021e+02
  -8.803077e+01   3.216121e+01
   7.967967e+01  -6.786571e+01
   2.117667e+02   2.257901e+01
   6.098228e+01   2.041512e+02
  -1.384967e+02   1.785572e+02
  -1.757183e+02  -2.733331e+01
   2.546547e+01  -2.128316e+02
   1.835309e+02  -3.156996e+01
   1.524258e+02   2.553825e+02
  -2.706523e+00   3.212148e+02
  -2.277078e+02   2.024718e+02
  -3.206878e+02  -7.432194e+01
  -2.343411e+02  -2.219757e+02
  -8.642907e+01  -2.561880e+02
   1.281058e+02  -1.630034e+02
   1.841178e+02  -1.012795e+01
   1.012249e+01   5.810136e+01
  -6.922768e+01  -4.265336e+01
  -2.814584e+01  -1.259799e+02
   1.517374e+02  -8.961112e+01
   2.038041e+02  -2.427115e+01
   5.358485e+01   7.064279e+01
  -8.795292e+01   3.110499e-01
  -4.595359e+01  -1.112848e+02
   1.474309e+02  -8.632053e+01
   2.523788e+02   2.900319e+01
   2.764563e+02   1.687105e+02
   4.263752e+01   2.674859e+02
  -1.806381e+02   2.713756e+02
  -2.631908e+02   1.055775e+02
  -1.668786e+02  -5.014133e+01
   2.793701e+00  -1.014787e+02
   9.213108e+01   1.878794e+01
  -3.721161e+01   9.045567e+01
  -1.812050e+02   2.908839e+01
  -2.140773e+02  -1.118238e+02
  -5.132690e+01  -2.223698e+02
   7.302603e+01  -1.365565e+02
   1.494918e+02  -1.324159e+01
   3.460049e+01   4.416230e+01
  -3.750107e+01  -2.147659e+01
  -2.908392e+01  -7.854144e+01
   6.979043e+01  -1.231267e+02
   1.867246e+02  -2.457911e+01
   1.902274e+02   1.099886e+02
   6.002090e+01   2.180577e+02
  -1.458630e+02   1.499897e+02
  -1.808219e+02   2.816479e+01
  -6.369232e+01  -1.069654e+02
   5.843860e+01  -8.725101e+01
   4.526930e+01  -8.012793e+00
   1.031990e+01   2.304185e+01
  -6.002547e+00  -3.651839e-01
   1.594239e+01  -3.291275e+01
   8.375792e+01  -2.518252e+00
   8.458400e+01   8.683916e+01
   2.539364e+01   1.694483e+02
  -1.223524e+02   1.433714e+02
  -2.338387e+02   3.204641e+01
  -1.481294e+02  -1.633906e+02
  -4.484287e+01  -2.329991e+02
   1.076888e+02  -1.628274e+02
   1.264826e+02  -2.717633e+01
   8.334498e+01   5.338883e+01
   3.495220e+01   3.212016e+01
   6.234163e+01  -2.537797e+01
   7.592161e+01   7.589477e+00
   2.915313e+01   6.149977e+01
  -5.104822e+01   7.840935e+01
  -1.061601e+02   2.296262e+01
  -1.051121e+02  -4.715127e+01
   8.998837e+00  -1.108181e+02
   1.375308e+02  -5.289141e+01
   1.623342e+02   7.134547e+01
   1.276032e+02   1.916089e+02
  -1.048906e+02   2.209558e+02
  -2.323474e+02   9.626285e+01
  -2.480715e+02  -8.637103e+01
  -1.030800e+02  -1.877397e+02
   3.857800e+01  -1.717327e+02
   7.461492e+01  -9.236438e+01
   7.017806e+01  -7.602894e+01
   5.100561e+01  -1.064130e+02
   9.926290e+01  -6.580515e+01
   1.193963e+02   2.743673e+01
   1.152798e+02   1.312510e+02
   2.298274e+01   2.056940e+02
  -1.007003e+02   1.539660e+02
  -1.652694e+02   1.233885e+01
  -1.212488e+02  -1.105677e+02
  -9.586337e+00  -1.390120e+02
   7.543905e+01  -1.053862e+02
   6.639664e+01   1.216807e+01
   2.100452e+00   5.534135e+01
  -6.409891e+00   4.232576e+01
   4.265604e+01   1.108626e+01
   6.639781e+01   8.610876e+00
   2.957207e+01   2.284110e+01
  -4.978892e+01   5.987596e+01
  -1.426544e+02  -1.851665e+01
  -1.280631e+02  -2.645607e+01
  -5.172415e+00  -7.368403e+01
   1.236681e+02  -8.512313e+01
   1.164835e+02  -4.783144e+00
   3.809195e+01   4.143617e+01
  -7.479002e+01   3.482059e+01
  -8.083102e+01   3.104926e+01
  -7.405896e+00  -7.220859e+01
   1.700965e+01  -8.391174e+01
   8.546706e+01   3.473896e+01
   1.084412e+01   7.607525e+01
   4.679094e+01   3.699657e+01
   5.087027e+01   2.347723e+01
   4.886419e+01  -1.547113e+01
   5.576732e+01   7.255552e+01
  -2.525385e+01   1.532863e+02
  -1.070922e+02   1.361534e+02
  -1.685144e+02   5.523883e+01
  -1.408852e+02  -8.041997e+01
   4.327884e+00  -1.217628e+02
   6.965991e+01  -6.096509e+01
   9.434526e+01   8.392880e+00
  -6.406388e+01   4.425607e+01
  -1.487542e+02  -1.857154e+01
  -6.658844e+01  -6.495911e+01
   4.805988e+01  -8.089690e+01
   1.717687e+02  -3.229692e+01
   1.407736e+02   2.782957e+01
   2.240789e+01   8.165780e+01
  -5.058282e+01   7.713438e+01
  -2.981696e+01  -2.497421e+01
   3.256183e+01  -3.179377e+01
   1.180206e+02   2.760072e+00
   4.990548e+01   1.026626e+02
  -9.293741e+01   1.628179e+02
  -1.528563e+02   5.902810e+01
  -1.429321e+02  -9.580281e+01
  -1.345586e+01  -1.882553e+02
   1.021202e+02  -1.406157e+02
   1.200868e+02   6.306314e+00
   5.206824e+01   9.929446e+01
   1.773984e+00   9.976954e+01
  -3.970329e+01   2.545382e+01
  -3.645550e+01  -3.249316e+01
  -2.485092e+01  -7.115159e+00
  -2.288762e+00   5.952418e+01
  -3.118790e+01  -2.005631e+01
  -5.493179e+01  -7.073581e+01
  -4.176675e+01  -1.140906e+02
   6.517275e+01  -5.915727e+01
   1.413970e+02   4.186979e+01
   1.175245e+02   9.553055e+01
  -3.883901e+00   5.179560e+01
  -9.720192e+01   4.062434e+01
  -7.666427e+01  -1.205461e+01
   2.637432e+01  -2.292515e+01
   1.489061e+01   7.520341e+00
   3.186866e+01  -7.777070e-01
  -5.239429e+01   1.479323e+01
   2.297297e+01   2.822356e+00
   8.278914e+01   1.035882e+01
   8.405967e+01   8.619208e+00
   1.137250e+01   7.812006e+01
  -1.110121e+02   9.812212e+01
  -1.906167e+02   5.993376e+01
  -1.154760e+02  -4.097143e+01
  -6.789111e+00  -1.437819e+02
   5.220952e+01  -1.210956e+02
   9.064348e+01  -6.161169e+01
   6.723656e+01   9.228843e+00
   2.922962e+01   8.777202e+00
   3.072406e+01   2.179485e+01
  -1.036786e+00   9.628041e+00
   1.724846e+01   6.648338e+01
  -8.905502e-01   9.609068e+01
  -4.193684e+01   6.783079e+01
  -6.099420e+01  -2.533819e+01
  -3.173820e+01  -1.241533e+02
  -1.664765e+01  -7.470373e+01
   4.881014e+01  -4.063295e+01
   1.119490e+02   4.714106e+01
   1.680239e+01   9.238110e+01
  -6.944599e+01   6.487047e+01
  -9.079652e+01  -1.634855e+01
  -3.459196e+01  -8.173245e+01
   5.403724e+01  -4.493267e+01
   2.860718e+01  -2.828022e+01
  -3.938786e+01  -2.028385e+01
  -6.967828e+01  -7.966298e+00
   2.652607e-01  -2.078115e+01
   5.450947e+01  -7.504649e+01
   9.942513e+01  -1.012438e+01
   5.584473e+01   1.367578e+01
  -6.628704e+00   8.081790e+01
  -4.438296e+01   7.409229e+01
  -2.928473e+01   1.459526e+01
  -1.739527e+01  -5.449677e+01
   1.302730e+01  -4.257930e+01
   3.768035e+01   2.028008e+01
   2.861229e+01   5.449954e+01
  -4.605889e+00   3.510928e+01
  -2.137928e+01   3.459544e+00
  -2.986428e+01  -9.371635e+00
  -9.739012e+00  -1.148269e+01
  -1.206280e+01   2.130190e+01
   2.877377e+01  -9.456328e+00
   2.859337e+01  -4.456863e+01
  -8.290070e+00  -7.258402e+01
   2.534013e+01  -1.292482e+01
   3.981198e+01   4.310566e+01
  -2.416708e-01   3.205568e+01
  -4.253839e+01   2.230672e+01
  -4.137197e+01  -3.834081e+01
  -1.319563e+01  -5.562482e+01
   5.986183e+01  -2.024767e+01
   7.141652e+01   8.287045e+00
   2.651505e+01   4.713590e+01
  -7.666755e+01   2.414035e+01
  -6.054122e+01   1.257506e+01
  -9.611150e+00   1.144474e+01
   3.166321e+01   1.610620e+01
   3.375705e+01  -2.466784e+00
  -2.417998e+01   7.750382e-01
  -7.879669e+01   1.540485e+01
