
 $NMID
 id='ANONYMOUS ', fmtdat='(2E16.6)'
 volume=1.0
 tramp=1.0
 $END
  -4.206309e+03   1.020092e+02
  -2.240636e+03  -2.418681e+03
   3.437387e+02  -2.880560e+03
   1.837420e+03  -1.020180e+03
   1.055633e+03   3.837205e+02
  -3.100247e+02   6.574250e+02
  -8.292008e+02  -2.600050e+02
  -1.882848e+02  -9.883755e+02
   6.541828e+02  -8.301986e+02
   9.096302e+02  -3.343691e+01
   5.040219e+02   7.430374e+02
  -8.909449e+01   8.570028e+02
  -5.199348e+02   1.707606e+02
  -3.968848e+02  -5.927338e+02
   2.174938e+02  -7.138664e+02
   5.479866e+02  -2.206155e+01
   3.363797e+02   6.244633e+02
  -2.785897e+02   6.670611e+02
  -6.947227e+02   1.641775e+02
  -4.927563e+02  -3.341521e+02
  -3.438189e+01  -4.689206e+02
   2.361817e+02  -2.778325e+02
   1.640422e+02  -5.287254e+01
  -1.108835e+02   5.115518e+01
  -3.460588e+02  -1.330361e+02
  -9.427308e+01  -3.462033e+02
   4.567644e+02  -3.392612e+02
   7.647846e+02   7.367363e+01
   4.167209e+02   4.522213e+02
  -3.476458e+02   4.510641e+02
  -6.714689e+02  -7.508237e-01
  -3.414959e+02  -4.293719e+02
   2.580247e+02  -4.904694e+02
   5.256725e+02  -1.299043e+02
   3.387081e+02   2.109845e+02
   6.989860e+01   3.620398e+02
  -1.203311e+02   2.778228e+02
  -8.137979e+01  -1.546038e+02
   8.642985e+01  -3.304384e+02
   3.156923e+02  -1.459831e+01
   2.393704e+02   5.450251e+02
  -2.444632e+02   5.854323e+02
  -5.066328e+02   4.747124e+01
  -2.244159e+02  -4.403536e+02
   2.669216e+02  -2.892209e+02
   3.054334e+02   2.788549e+02
  -4.777320e+01   4.954052e+02
  -4.822555e+02   1.424955e+02
  -5.815460e+02  -3.372206e+02
  -1.858420e+02  -5.294010e+02
   3.448940e+02  -3.167614e+02
   6.076937e+02   3.300797e+01
   4.150819e+02   3.037584e+02
  -9.696134e+01   3.923265e+02
  -4.095548e+02   8.594895e+01
  -2.910426e+02  -9.811303e+01
   4.926369e+01  -1.364893e+02
   1.444774e+02   1.170945e+02
  -9.751823e+01   1.943943e+02
  -3.180639e+02  -1.745999e+01
  -1.916314e+02  -2.658463e+02
   1.703841e+02  -2.854083e+02
   3.630258e+02  -9.801913e+01
   2.062153e+02   1.403125e+02
  -4.853196e+01   2.946486e+02
  -2.643948e+02   2.902602e+02
  -3.259346e+02   1.754676e+02
  -2.226592e+02  -1.377068e+02
  -5.269435e+01  -4.213932e+02
   6.771283e+01  -3.255682e+02
   1.005853e+02  -1.333683e+02
   2.352636e+01  -1.454321e+01
   5.401583e+01  -5.347342e+01
   1.860857e+02  -1.393302e+02
   2.722010e+02   8.035073e+01
   1.253708e+02   2.343276e+02
  -5.880438e+01   2.352788e+02
  -2.087972e+02  -2.247359e+01
  -1.848133e+02  -2.314406e+02
  -1.052458e+01  -2.719810e+02
   2.892264e+02  -1.195746e+02
   3.598751e+02   1.123666e+02
   1.549939e+02   2.975633e+02
  -4.984774e+01   2.994383e+02
  -1.901370e+02   1.565055e+02
  -1.574045e+02   5.307789e+01
  -1.321549e+02   7.891421e+01
  -2.370828e+02   1.072180e+02
  -3.903441e+02  -4.746814e+01
  -3.014938e+02  -2.806739e+02
  -2.214342e+01  -4.367815e+02
   3.190347e+02  -3.445842e+02
   4.585437e+02  -1.930233e+02
   2.804964e+02   6.821238e+01
   7.630590e+01   2.452674e+02
  -9.266651e+01   2.320632e+02
  -4.920599e+01   2.920355e+01
   1.009721e+02  -7.535738e+01
   2.024254e+02   1.297160e+01
   4.715230e+01   1.759662e+02
  -1.586231e+02   1.820954e+02
  -1.415559e+02  -4.692536e+01
   9.393840e+00  -1.926904e+02
   1.911226e+02  -3.389992e+01
   1.584875e+02   2.362374e+02
  -1.964018e+01   3.367007e+02
  -2.566436e+02   2.041584e+02
  -3.328926e+02  -7.474998e+01
  -2.145197e+02  -2.455446e+02
  -6.919969e+01  -2.531257e+02
   1.135622e+02  -1.418587e+02
   1.517065e+02   1.344524e+00
   1.376673e+01   2.717781e+01
  -5.379199e+01  -3.545912e+01
  -1.220986e+01  -1.202865e+02
   9.943526e+01  -7.464234e+01
   1.517341e+02   2.533926e+01
   6.459646e+01   6.280342e+01
  -5.130906e+01  -5.772761e+00
  -4.483174e+01  -6.240868e+01
   1.282182e+02  -8.163343e+01
   2.496547e+02  -3.399812e+01
   2.698002e+02   1.381358e+02
   3.617184e+01   2.470092e+02
  -1.911104e+02   2.293801e+02
  -2.746508e+02   1.237849e+02
  -1.429657e+02  -4.798404e+01
   1.206777e+01  -6.069224e+01
   9.310089e+01  -3.673435e+00
  -6.549259e+01   9.356104e+01
  -1.803713e+02   6.332766e+01
  -2.013844e+02  -9.164196e+01
  -8.791054e+01  -2.094435e+02
   1.092222e+02  -1.449856e+02
   1.190165e+02  -1.758228e+01
   5.114849e+01   3.611593e+01
  -2.359403e+01  -3.560391e+01
  -4.773889e+01  -1.085702e+02
   8.113625e+01  -1.141537e+02
   1.956584e+02  -2.805896e+01
   1.987168e+02   1.076073e+02
   2.082198e+01   2.300619e+02
  -1.333746e+02   1.433307e+02
  -1.870424e+02   8.852303e+00
  -6.038582e+01  -9.331010e+01
   2.579543e+01  -1.022242e+02
   5.251033e+01  -4.385174e+01
   4.371028e+00   1.129261e+01
  -4.278282e+01  -1.218319e+01
   2.201684e+01  -2.637359e+01
   1.077165e+02   5.264144e+00
   1.182049e+02   1.055912e+02
   1.586194e+01   1.392014e+02
  -1.396918e+02   2.007934e+02
  -2.344776e+02   8.681125e+00
  -1.938021e+02  -1.484089e+02
  -3.820006e+01  -2.122125e+02
   9.482444e+01  -1.715806e+02
   1.154870e+02  -3.637832e+01
   7.809263e+01   6.080028e+01
   6.188512e+01   3.196312e+01
   2.766756e+01   1.631431e-01
   8.322564e+01  -3.530932e+00
   3.446159e+01   4.182485e+01
  -4.841371e+01   7.530043e+01
  -1.267485e+02   6.750688e+01
  -9.732502e+01  -7.340051e+01
   3.071067e+01  -1.057226e+02
   1.367957e+02  -7.377387e+01
   1.655603e+02   5.196404e+01
   6.888516e+01   1.853151e+02
  -1.238436e+02   1.856910e+02
  -2.820946e+02   8.115432e+01
  -2.184724e+02  -8.334656e+01
  -1.067642e+02  -1.496559e+02
   5.232138e+01  -1.126529e+02
   9.293969e+01  -8.945485e+01
   6.253691e+01  -6.467831e+01
   5.143601e+01  -8.548786e+01
   1.060885e+02  -6.302308e+01
   8.785688e+01   2.240743e+01
   1.031628e+02   1.266049e+02
   3.721774e+01   1.812724e+02
  -8.394481e+01   1.534933e+02
  -1.590625e+02   3.153716e+01
  -1.741442e+02  -1.004025e+02
   2.487297e-01  -1.121131e+02
   5.822319e+01  -8.776351e+01
   5.225606e+01  -1.435355e+01
  -3.670453e+01   3.032697e+01
  -3.448682e+00   1.338627e+01
   3.607933e+01   1.511334e+01
   6.868438e+01   1.553427e+01
   3.132167e+01   2.162084e+01
  -4.490652e+01   1.369884e+01
  -1.303165e+02  -1.592576e+01
  -1.176435e+02  -2.143600e+01
  -3.495559e+00  -8.347871e+01
   1.250028e+02  -8.489251e+01
   1.440396e+02  -7.902549e+00
   4.205661e+01   1.202967e+01
  -4.069279e+01   1.474491e+01
  -7.431556e+01  -4.949756e+01
  -1.896170e+01  -8.405734e+01
   4.508122e+01  -8.498047e+01
   5.240009e+01   3.464107e+01
   1.913658e+01   5.918876e+01
   5.592032e+01   4.688026e+01
   4.349639e+01  -9.339418e+00
   5.381146e+01  -1.475771e+01
   2.194971e+01   4.354902e+01
  -1.551399e+01   1.388542e+02
  -1.155286e+02   1.388534e+02
  -1.406770e+02   1.138336e+01
  -1.276711e+02  -1.007968e+02
   1.133114e+01  -1.249634e+02
   7.993331e+01  -4.897827e+01
   5.981034e+01   1.439437e+01
  -5.558748e+01   1.722907e+01
  -1.442829e+02  -3.205922e+01
  -6.413823e+01  -1.013580e+02
   7.739076e+01  -1.119776e+02
   1.553074e+02  -2.506105e+01
   1.685875e+02   2.837749e+01
   4.971094e+01   8.161507e+01
  -6.017047e+01   2.421124e+01
  -2.131094e+01  -1.437712e+01
   2.641365e+01  -1.970342e+01
   9.693567e+01   3.490905e+01
   3.129679e+01   1.275526e+02
  -8.382028e+01   1.242634e+02
  -1.746897e+02   7.938890e+01
  -1.064593e+02  -8.074127e+01
   7.937020e+00  -1.733084e+02
   7.486915e+01  -1.748870e+02
   9.573058e+01   1.149793e+01
   5.449284e+01   1.022659e+02
  -8.875835e+00   1.162728e+02
  -3.904417e+01  -9.357956e+00
  -3.954522e+01  -4.910635e+01
  -2.586967e+01   2.472473e+01
  -4.379132e+01   2.407269e+01
  -2.371614e+01   4.037408e+00
  -5.946447e+01  -8.102308e+01
  -5.176657e+01  -1.178877e+02
   3.285485e+01  -2.359472e+01
   1.558569e+02   4.808891e+01
   1.154750e+02   4.335594e+01
   6.264527e+00   2.301480e+01
  -7.145598e+01   2.175951e+01
  -6.170367e+01   5.981231e+00
  -8.278163e+00  -1.204066e+01
   4.930458e+01  -3.764212e+01
   1.439563e+01  -1.105234e+01
  -6.894061e+00  -1.365370e+01
   1.639234e+01   1.612860e+01
   4.998903e+01  -3.056111e+01
   9.378743e+01   2.933217e+01
   3.020171e+01   7.180221e+01
  -1.089734e+02   1.191187e+02
  -1.873474e+02   3.003204e+01
  -9.445447e+01  -5.341820e+01
  -5.873747e+00  -1.740275e+02
   7.292921e+01  -1.362382e+02
   7.448609e+01  -4.512106e+01
   8.611438e+01   3.379123e+01
   2.542029e+01   5.686337e+01
  -1.880882e+01   5.080931e+00
   5.173459e+00  -1.238912e+00
   1.966592e+01   4.789918e+01
   4.220435e+01   8.541895e+01
  -2.589635e+01   5.724387e+01
  -8.634914e+01  -9.521908e+00
  -9.118355e+01  -9.210392e+01
   3.823692e+01  -1.005747e+02
   6.968352e+01  -2.739554e+01
   1.152798e+02   4.450106e+01
   4.725002e+01   7.612570e+01
  -5.379285e+01   2.394916e+01
  -6.327102e+01   1.618390e+01
  -2.023906e+01  -5.193916e+01
   4.849663e+01  -4.800553e+01
   2.203855e+01   7.601637e+00
  -3.341289e+01  -1.254782e+01
  -7.849257e+01   3.174172e+00
   1.030367e+01  -4.015102e+01
   9.002814e+01  -8.893218e+01
   1.159768e+02  -4.319832e+01
   7.725448e+01   5.161089e+01
  -1.918915e+01   7.854444e+01
  -3.716045e+01   4.627204e+01
  -1.357874e+01  -1.997896e+01
   1.522527e+01  -4.371668e+01
   4.524283e+01  -2.161245e+01
   1.877116e+01   2.127591e+01
   2.404288e+01   4.176119e+01
   6.382893e+00   2.411934e+01
  -1.002672e+01  -9.800167e+00
  -3.506862e+01  -2.549562e+01
  -7.668050e+00  -5.359558e+00
  -2.111826e+01  -1.945740e+00
  -6.724067e+00  -2.296926e+01
   2.164863e+01  -3.782000e+01
   2.130675e+01  -3.972809e+01
   3.922576e+01   1.639289e+01
   5.298762e+01   5.252049e+01
  -1.004009e+01   7.861050e+01
  -2.379862e+01   2.959498e+01
  -4.799857e+01  -6.012522e+01
  -6.549003e+00  -7.283758e+01
   5.828444e+01  -9.846573e+00
   9.203034e+01   3.130262e+01
   2.053732e+01   5.574152e+01
  -4.095522e+01   6.180267e+01
  -7.219005e+01   5.927460e+01
  -2.191933e+01   1.905507e+01
   1.901936e+01   3.134986e+01
   4.758585e+01   1.577056e+01
  -4.995486e+00   5.352249e+01
  -8.387880e+01   7.194852e+00
