
 $NMID
 id='ANONYMOUS ', fmtdat='(2E16.6)'
 volume=1.0
 tramp=1.0
 $END
  -3.197015e+03  -1.365929e+02
  -2.100365e+03  -1.451843e+03
  -8.653352e-01  -1.914726e+03
   1.372709e+03  -1.146970e+03
   8.396606e+02  -6.441933e+01
  -8.905437e+01   2.439813e+02
  -3.940682e+02  -2.361458e+02
   1.673824e+01  -5.318500e+02
   4.655166e+02  -5.055793e+02
   5.583939e+02   1.072244e+01
   3.788841e+02   5.688852e+02
  -1.544655e+01   6.236875e+02
  -3.533307e+02   2.058868e+02
  -3.176386e+02  -3.994004e+02
   7.313458e+01  -6.136228e+02
   3.895927e+02  -5.325342e+01
   3.068913e+02   4.659479e+02
  -1.306389e+02   5.854872e+02
  -4.535635e+02   2.360189e+02
  -4.336217e+02  -1.730171e+02
  -1.322633e+02  -3.264957e+02
   1.073015e+02  -2.624655e+02
   9.816766e+01  -1.361366e+02
  -1.138395e+02  -5.489722e+01
  -2.826491e+02  -1.616077e+02
  -4.033440e+01  -3.407946e+02
   4.960345e+02  -2.030434e+02
   6.623118e+02   1.315808e+02
   3.157752e+02   3.926149e+02
  -3.319741e+02   3.345889e+02
  -5.681878e+02  -1.009946e+02
  -2.552950e+02  -4.148623e+02
   2.754548e+02  -3.861011e+02
   4.544222e+02  -1.308292e+02
   3.384843e+02   1.613594e+02
   1.010910e+02   3.745975e+02
  -5.686515e+01   2.250099e+02
  -7.501109e+00  -1.159481e+02
   1.491714e+02  -1.875361e+02
   2.216338e+02   6.530812e+01
   2.902498e+01   5.014995e+02
  -3.083203e+02   5.028453e+02
  -3.847935e+02   5.338891e+00
  -1.866272e+02  -2.830655e+02
   1.713280e+02  -1.340278e+02
   2.536845e+02   2.539740e+02
  -2.693734e+01   4.303493e+02
  -3.601235e+02   9.070039e+01
  -4.878974e+02  -3.406829e+02
  -1.951420e+02  -4.516498e+02
   2.783710e+02  -2.959464e+02
   5.167333e+02   1.980809e+00
   3.390684e+02   2.545172e+02
  -2.342627e+01   2.578103e+02
  -2.967663e+02   1.071046e+02
  -2.155164e+02  -1.339727e+00
   2.937898e+01  -3.224615e+01
   6.651067e+01   8.524584e+01
  -1.062353e+02   8.765509e+01
  -2.773289e+02  -5.326439e+01
  -1.571869e+02  -2.247775e+02
   1.569763e+02  -1.979713e+02
   3.158250e+02  -1.035065e+02
   2.724588e+02   1.028953e+02
  -2.525281e+00   2.520990e+02
  -2.226863e+02   3.320258e+02
  -3.152108e+02   1.348717e+02
  -2.569792e+02  -1.248912e+02
  -1.033840e+02  -3.700268e+02
   5.779074e+01  -3.676740e+02
   5.080419e+01  -1.722349e+02
   8.696302e+01  -8.050254e+01
   9.005886e+01  -1.207071e+02
   2.281705e+02  -4.797148e+01
   2.708857e+02   9.039148e+01
   7.857699e+01   2.271405e+02
  -8.641526e+01   1.930348e+02
  -2.184723e+02  -2.864485e+01
  -1.617392e+02  -2.426304e+02
   1.282503e+01  -2.380136e+02
   2.646148e+02  -6.560231e+01
   3.162888e+02   1.653795e+02
   1.727003e+02   3.407056e+02
  -9.692519e+01   2.956875e+02
  -2.164900e+02   1.195291e+02
  -1.902580e+02   5.235888e+01
  -1.334167e+02   6.858901e+01
  -2.421831e+02   3.313767e+00
  -3.898823e+02  -6.606949e+01
  -3.153384e+02  -2.444696e+02
   1.185759e+01  -3.979645e+02
   3.123336e+02  -3.768009e+02
   4.689945e+02  -1.838723e+02
   2.731600e+02   1.102166e+02
   3.738588e+01   2.674761e+02
  -9.248180e+01   2.216921e+02
  -3.885289e+01   4.127903e+01
   9.483150e+01  -5.606255e+01
   1.365535e+02   5.039415e+01
   2.957750e+01   1.309959e+02
  -1.090052e+02   1.120945e+02
  -1.428161e+02  -6.599138e+01
   4.193559e+01  -1.466484e+02
   1.534020e+02  -3.370427e+01
   1.488467e+02   2.534202e+02
  -2.870518e+01   3.335513e+02
  -2.364767e+02   1.816671e+02
  -3.248450e+02  -4.398826e+01
  -2.039121e+02  -2.146569e+02
  -7.188691e+01  -2.512145e+02
   1.370536e+02  -1.214149e+02
   1.384659e+02  -1.942799e+01
   4.998924e+01   1.667846e+01
  -4.438808e+01  -3.353624e+01
  -2.286476e+01  -1.322415e+02
   1.202433e+02  -7.846054e+01
   1.223084e+02   5.237878e+01
   2.666320e+01   6.422091e+01
  -7.977162e+01  -1.267795e+01
  -3.418578e+01  -1.023114e+02
   1.797394e+02  -8.693995e+01
   2.909414e+02   2.983156e+01
   2.639803e+02   1.362229e+02
   2.921067e+01   2.672518e+02
  -1.738674e+02   1.873777e+02
  -2.513775e+02   9.639412e+01
  -1.419315e+02  -4.786761e+01
   1.833875e+01  -6.936995e+01
   7.805473e+01  -1.179069e+01
  -6.334414e+01   8.141236e+01
  -1.603115e+02   3.286646e+01
  -1.537245e+02  -8.308851e+01
  -3.979897e+01  -2.066105e+02
   8.720948e+01  -1.120052e+02
   1.187366e+02  -1.875033e+01
   3.064714e+01   2.875353e+01
  -4.863950e+01  -2.269730e+01
  -1.157831e+01  -1.121894e+02
   1.090928e+02  -1.332315e+02
   2.134988e+02  -5.328935e+00
   1.814067e+02   1.171540e+02
   2.019711e+01   1.974866e+02
  -1.684379e+02   1.681854e+02
  -1.505626e+02  -5.690409e+00
  -7.258741e+01  -1.194337e+02
   3.820711e+01  -9.447749e+01
   5.809408e+01  -3.598767e+01
   9.293901e+00   5.785853e+00
  -2.281791e+01   2.150101e+00
   2.336087e+01  -2.047917e+01
   6.125037e+01   6.721522e+00
   6.506281e+01   8.031012e+01
   4.050459e+01   1.712594e+02
  -1.170989e+02   1.269670e+02
  -2.251686e+02   1.851571e+01
  -1.569568e+02  -1.418694e+02
  -2.902208e+01  -1.844914e+02
   8.783441e+01  -1.545792e+02
   1.304115e+02  -2.701119e+01
   9.140882e+01   5.949143e+01
   4.219274e+01   2.123385e+01
   5.887284e+01  -1.741928e+01
   6.878990e+01  -1.671435e+00
   3.864447e+01   3.814750e+01
  -3.483716e+01   8.395070e+01
  -1.338632e+02   4.904482e+01
  -1.170810e+02  -5.586261e+01
   3.649935e+01  -1.249638e+02
   1.555192e+02  -7.954947e+01
   2.155421e+02   4.488353e+01
   9.708121e+01   2.270988e+02
  -1.204775e+02   1.723715e+02
  -2.444059e+02   8.770534e+01
  -2.125671e+02  -7.529368e+01
  -1.036916e+02  -1.559302e+02
   1.778292e+01  -1.441220e+02
   9.488956e+01  -8.017191e+01
   7.186561e+01  -9.753892e+01
   3.207287e+01  -1.025516e+02
   7.369034e+01  -7.961654e+01
   9.905477e+01   2.557988e+01
   1.104499e+02   1.533441e+02
   3.910865e+01   2.154790e+02
  -1.119609e+02   1.691005e+02
  -1.478620e+02   5.161912e+00
  -1.057980e+02  -1.154987e+02
  -3.763939e+01  -1.408995e+02
   6.497657e+01  -7.286530e+01
   6.259997e+01   2.823386e+01
  -1.602533e+01   5.141746e+01
  -7.861321e+00  -6.624254e-01
   4.243667e+01   1.402604e+01
   6.905170e+01   2.549518e+01
   6.297128e+01   5.759495e+01
  -6.040820e+01   3.638331e+01
  -1.880161e+02   6.294954e+00
  -1.330203e+02  -1.824896e+01
  -2.257516e+01  -8.268465e+01
   1.327145e+02  -7.983399e+01
   1.405423e+02   5.816828e+00
   4.854424e+01   8.158454e+01
  -4.925041e+01   4.106615e+01
  -7.911757e+01  -3.817101e+01
  -2.458296e+01  -6.688825e+01
   2.898758e+01  -7.616741e+01
   5.793971e+01   1.827054e+01
   2.383099e+01   4.320197e+01
   4.836542e+01   4.389527e+01
   9.908713e+00   2.313536e+01
   5.509653e+01  -2.207146e-01
   3.934997e+01   1.912341e+01
  -1.775292e+01   1.246888e+02
  -1.189222e+02   1.485139e+02
  -1.820673e+02  -7.539443e+00
  -1.266745e+02  -1.016968e+02
  -3.102004e+01  -1.539573e+02
   8.060988e+01  -8.655778e+01
   9.367965e+01   4.924522e+00
  -1.099798e+01   2.953769e+01
  -1.135963e+02  -4.176368e+01
  -8.623750e+01  -7.378159e+01
   9.523819e+01  -9.913227e+01
   1.593811e+02  -3.591771e+01
   1.198949e+02   7.086390e+01
   2.859137e+01   8.124373e+01
  -7.699349e+01   5.763853e+01
  -3.052277e+01   8.389414e+00
   4.428826e+01  -5.110331e+01
   8.121433e+01   3.171126e+01
   6.051639e+01   1.202472e+02
  -6.932742e+01   1.437850e+02
  -1.416689e+02   1.010914e+02
  -1.309277e+02  -8.064916e+01
  -2.854702e+01  -1.739023e+02
   4.290937e+01  -1.185200e+02
   7.984855e+01   7.186983e+00
   6.791399e+01   1.083484e+02
  -1.506866e+01   1.211582e+02
  -6.987178e+01  -1.081664e+01
  -3.413792e+01  -8.578667e+00
  -3.009977e+01   3.987149e+00
  -3.216223e+01   1.702750e+01
  -1.851757e+01  -2.008772e+01
  -5.531790e+01  -7.457609e+01
  -1.265264e+01  -8.195656e+01
   7.654037e+01  -3.259837e+01
   1.416062e+02   6.073159e+01
   1.390486e+02   5.870729e+01
   1.088945e+01   5.421754e+01
  -6.710782e+01   2.600028e+01
  -8.024642e+01   1.146321e+01
  -1.278577e+01  -8.215880e+00
   4.617964e+01  -3.489908e+00
   3.777627e+01   6.966143e+00
  -1.440862e+01  -7.913667e+00
  -4.620704e+00   1.802406e+01
   5.927126e+01   1.647461e+01
   9.956927e+01   4.481387e+01
  -7.136777e+00   2.367839e+01
  -9.930842e+01   8.650636e+01
  -1.994622e+02   9.649415e+01
  -1.369961e+02  -4.116372e+01
  -2.703873e+01  -1.279789e+02
   5.936816e+01  -1.188744e+02
   9.732798e+01  -6.168265e+01
   5.477180e+01   8.889207e+00
   2.701106e+01   4.925866e+01
  -9.094074e+00   5.085651e+00
  -4.082797e+00   5.742267e+00
   2.553453e+01   4.715201e+01
   4.252209e+01   8.352005e+01
  -1.941150e+01   8.938114e+01
  -9.114902e+01   4.890066e+00
  -5.998099e+01  -8.267008e+01
  -2.890444e+01  -1.044910e+02
   5.935307e+01  -3.077938e+01
   9.130590e+01   5.511538e+01
   3.781681e+01   7.798603e+01
  -5.150978e+01   7.268548e+01
  -8.958967e+01   1.686281e+01
  -5.511077e+01  -4.643534e+01
  -2.637783e+00  -7.000927e+01
   3.587001e+01  -4.883094e+01
  -1.726500e+01  -2.008957e+01
  -5.909926e+01  -1.636083e+01
  -1.288934e+01  -6.043252e+01
   1.099030e+02  -7.995077e+01
   1.351464e+02  -4.234480e+01
   7.906913e+01   6.126616e+01
  -1.235660e+01   1.105294e+02
  -4.722706e+01   7.889770e+01
  -6.548194e+01  -5.195721e+00
  -3.786196e+01  -6.741876e+01
   3.955363e+01  -4.079358e+01
   4.113843e+01   2.137329e+01
   1.636132e+01   4.051258e+01
  -1.243881e+01   4.038577e+01
  -1.879949e+01  -5.016165e+00
  -5.207710e+01  -2.624958e+01
  -1.076474e+01  -3.608155e+00
   2.489680e+00   1.831473e+01
  -8.951504e+00   1.426100e+00
   1.370888e+01  -1.865452e+01
  -1.739316e+00  -5.958874e+01
   2.037638e+01  -1.717107e+01
   3.974284e+01   1.705142e+01
   6.369638e+00   6.544854e+01
  -1.596172e+01   1.059466e+01
  -6.005820e+01  -2.434553e+01
  -2.519769e+01  -5.122277e+01
   4.111080e+01  -6.190218e+01
   8.790375e+01   1.483104e+01
   4.582282e+01   4.679908e+01
  -2.338059e+01   4.668155e+01
  -6.464678e+01   5.362045e+01
  -2.504264e+01   1.817484e+01
   4.538129e+01   1.756103e+01
   3.450325e+01   3.952011e+00
  -1.127526e+01   2.508595e+01
  -6.845083e+01  -2.637637e+00
