
 $NMID
 id='ANONYMOUS ', fmtdat='(2E16.6)'
 volume=1.0
 tramp=1.0
 $END
  -3.964036e+03   2.787812e+02
  -2.348835e+03  -2.332657e+03
   2.352202e+02  -2.707184e+03
   1.867223e+03  -8.906646e+02
   8.702069e+02   3.490788e+02
  -5.240919e+02   4.531077e+02
  -7.822293e+02  -4.064308e+02
  -9.939512e+00  -8.911010e+02
   6.798164e+02  -7.353348e+02
   8.523687e+02   3.833223e+01
   4.224725e+02   7.568831e+02
  -1.467399e+02   7.866256e+02
  -5.315838e+02   1.229033e+02
  -3.325798e+02  -5.899528e+02
   2.231515e+02  -6.492024e+02
   5.546457e+02  -4.038998e+00
   2.804155e+02   6.404826e+02
  -2.558324e+02   6.583279e+02
  -5.677813e+02   1.298511e+02
  -3.998720e+02  -3.162792e+02
  -6.576356e+01  -3.851133e+02
   2.297189e+02  -2.383537e+02
   1.528832e+02  -4.799431e+01
  -1.234167e+02   3.567719e+01
  -3.108831e+02  -1.284049e+02
  -1.466034e+02  -3.928833e+02
   4.241535e+02  -3.680290e+02
   7.690525e+02   6.167954e+01
   3.630210e+02   4.924509e+02
  -4.013351e+02   4.086018e+02
  -6.231528e+02  -4.819573e+01
  -2.789179e+02  -4.157805e+02
   2.518498e+02  -4.384969e+02
   4.827983e+02  -1.489672e+02
   3.353132e+02   1.723088e+02
   9.523171e+01   3.133744e+02
  -9.273784e+01   1.989756e+02
  -1.018793e+02  -1.758381e+02
   1.263697e+02  -3.401491e+02
   3.567201e+02   7.907900e+01
   2.012669e+02   5.461625e+02
  -2.734729e+02   5.947425e+02
  -4.820570e+02  -3.915212e+01
  -2.185660e+02  -4.416081e+02
   2.679287e+02  -2.902830e+02
   3.610035e+02   2.495310e+02
  -8.415578e+01   5.037129e+02
  -5.074597e+02   1.006125e+02
  -5.255487e+02  -3.617591e+02
  -1.558142e+02  -5.196106e+02
   3.959007e+02  -2.881945e+02
   5.728905e+02   5.547430e+01
   3.659401e+02   3.488300e+02
  -7.610230e+01   3.490260e+02
  -4.226375e+02   6.815098e+01
  -2.346888e+02  -1.044910e+02
   7.122553e+01  -8.782563e+01
   1.018470e+02   1.156223e+02
  -1.206880e+02   1.481957e+02
  -3.089288e+02  -1.655814e+01
  -1.419250e+02  -2.625029e+02
   1.889093e+02  -2.673317e+02
   3.255068e+02  -1.091528e+02
   2.284506e+02   5.303974e+01
  -2.776711e+01   2.288433e+02
  -1.907896e+02   3.277815e+02
  -2.557648e+02   2.094179e+02
  -2.979710e+02  -1.004102e+02
  -7.881471e+01  -4.108435e+02
   7.773706e+01  -3.645902e+02
   7.052040e+01  -1.569040e+02
   4.825626e+01  -2.377119e+01
   5.008591e+01  -9.830390e+01
   2.162303e+02  -1.356256e+02
   2.330729e+02   5.083922e+01
   1.278954e+02   2.540622e+02
  -6.172716e+01   2.000401e+02
  -2.192989e+02   3.177747e+01
  -1.926164e+02  -2.369473e+02
   1.940268e+01  -2.753539e+02
   2.511108e+02  -1.249942e+02
   3.581850e+02   1.379687e+02
   1.979607e+02   3.226374e+02
  -3.455663e+01   3.312920e+02
  -2.020863e+02   1.550033e+02
  -1.432617e+02   5.171203e+01
  -1.081920e+02   6.683431e+01
  -2.348616e+02   5.388707e+01
  -3.714425e+02  -4.583859e+01
  -2.832451e+02  -2.566461e+02
  -1.615968e+01  -4.253686e+02
   2.945400e+02  -4.017326e+02
   3.996706e+02  -2.124507e+02
   3.162644e+02   6.626290e+01
   8.427214e+01   2.498566e+02
  -6.575064e+01   2.165181e+02
  -4.019634e+01   2.197628e+01
   1.047089e+02  -1.276890e+02
   2.101965e+02  -1.247161e+00
   4.106559e+00   1.968191e+02
  -1.327793e+02   1.950457e+02
  -1.969239e+02  -4.723545e+01
   1.770470e+01  -1.536168e+02
   2.038721e+02  -3.126994e+01
   1.619259e+02   2.075738e+02
  -1.402876e+01   3.462412e+02
  -2.197957e+02   1.946623e+02
  -3.034678e+02  -5.584998e+01
  -2.444642e+02  -2.271566e+02
  -8.513182e+01  -2.308945e+02
   1.163345e+02  -1.141133e+02
   1.424266e+02  -3.808596e-01
   1.648517e+01   4.752602e+01
  -7.006830e+01  -5.393491e+01
  -2.290199e+00  -1.206920e+02
   1.236111e+02  -6.735015e+01
   1.921376e+02   8.193619e-01
   1.559755e+01   6.849887e+01
  -1.100352e+02   8.962942e+00
  -5.996136e+01  -1.064014e+02
   1.110216e+02  -8.130931e+01
   2.543858e+02  -7.204400e+00
   2.433771e+02   1.550920e+02
   7.235112e+01   2.350013e+02
  -1.812986e+02   2.736398e+02
  -2.028617e+02   1.194327e+02
  -1.521920e+02  -3.382778e+01
   2.629160e+00  -9.816465e+01
   9.100260e+01   4.129137e+00
  -4.999760e+01   8.684863e+01
  -1.818893e+02   4.986061e+01
  -1.780766e+02  -1.159978e+02
  -7.241656e+01  -1.921240e+02
   6.677156e+01  -1.258658e+02
   1.251184e+02  -1.116543e+01
   6.727399e+01   6.896660e+01
  -4.787147e+01  -2.333749e+01
  -6.635666e+01  -9.327637e+01
   2.674142e+01  -1.228876e+02
   2.322911e+02  -6.736454e+01
   2.258245e+02   1.183196e+02
   4.975328e+01   1.998525e+02
  -1.347585e+02   1.614604e+02
  -1.886890e+02   1.983668e+01
  -8.394855e+01  -8.751150e+01
   6.264099e+01  -8.837165e+01
   7.227162e+01  -2.729396e+01
  -2.294748e+00   4.101105e+01
  -2.826213e+01   3.989591e+01
  -2.156773e+00  -3.985171e+01
   9.167581e+01  -6.686663e+00
   1.055169e+02   5.746849e+01
   2.410629e+01   1.905294e+02
  -8.968558e+01   1.328415e+02
  -2.141177e+02   6.919922e+01
  -1.740185e+02  -1.301300e+02
  -3.053027e+01  -2.043835e+02
   9.619311e+01  -1.577624e+02
   9.324520e+01  -3.582625e+01
   4.553605e+01   4.955537e+01
   2.073807e+01  -9.388803e+00
   3.988199e+01   1.423839e+01
   6.017937e+01  -2.538708e+01
   5.408145e+01   4.344377e+01
  -2.515769e+01   7.893040e+01
  -1.167230e+02   4.385084e+01
  -1.028287e+02  -2.691945e+01
  -1.346333e+01  -1.325464e+02
   1.530084e+02  -1.125487e+02
   2.112053e+02   3.063769e+01
   9.178090e+01   1.878650e+02
  -1.189628e+02   1.843847e+02
  -2.748334e+02   9.879663e+01
  -2.314515e+02  -7.704945e+01
  -8.268242e+01  -1.588980e+02
   8.501898e+00  -1.127925e+02
   8.686200e+01  -7.670390e+01
   8.739507e+01  -5.347599e+01
   5.490209e+01  -8.595548e+01
   1.094090e+02  -6.525860e+01
   1.470766e+02  -1.038402e+01
   1.139974e+02   1.338311e+02
   6.857262e+01   2.022244e+02
  -9.896883e+01   1.859443e+02
  -1.600185e+02   6.351890e+00
  -1.581628e+02  -1.383649e+02
  -4.984960e+01  -1.325642e+02
   4.994033e+01  -8.993227e+01
   5.658399e+01   5.049197e+00
  -3.192461e+01   1.401041e+01
  -1.040015e+01   2.599242e+01
   5.915423e+01  -6.039111e-01
   9.860174e+01  -6.117592e+00
   5.184320e+01   3.042312e+01
  -6.226882e+01   1.689983e+01
  -1.223175e+02   2.807751e+01
  -1.106459e+02  -3.922461e+01
   5.906519e+00  -1.055440e+02
   1.392202e+02  -7.297524e+01
   1.215248e+02  -2.252262e+01
   3.192482e+01   5.759649e+01
  -6.229061e+01   3.719638e+01
  -7.382927e+01  -3.965341e+01
  -2.947462e+01  -4.608509e+01
   5.037017e+01  -4.565824e+01
   2.981259e+01  -1.572922e+01
   4.418268e+01   6.047980e+01
   4.466881e+01   9.772322e+00
   5.598130e+01  -4.083933e+01
   8.357248e+01  -6.712160e+00
   6.104624e+01   5.414841e+01
  -4.333137e+01   1.624886e+02
  -1.121456e+02   1.261993e+02
  -1.656952e+02   6.409307e+01
  -1.170794e+02  -9.232636e+01
  -2.566708e+01  -1.214460e+02
   8.082306e+01  -6.830639e+01
   3.035316e+01   5.322260e+00
  -6.786290e+01   5.825909e+01
  -1.211547e+02  -4.130694e+01
  -5.475169e+01  -7.875986e+01
   4.805023e+01  -8.474376e+01
   1.420208e+02  -7.157508e+01
   1.507205e+02   1.355074e+01
   4.360419e+01   6.940625e+01
  -7.322103e+01   9.824893e+01
  -5.099984e+01  -2.034858e+01
   5.343819e+01  -4.246607e+01
   9.134910e+01   1.898933e+01
   2.257217e+01   1.005452e+02
  -7.418999e+01   1.434016e+02
  -1.433296e+02   8.690933e+01
  -1.002299e+02  -9.617213e+01
  -3.004717e+01  -1.643209e+02
   6.974206e+01  -1.734315e+02
   1.107332e+02  -1.154891e+01
   8.587806e+01   1.063996e+02
   1.396145e+01   1.042701e+02
  -3.606455e+01   1.239161e+01
  -3.115110e+01  -3.946720e+01
  -1.270158e+01   4.215918e+00
  -1.410563e+01   2.751888e+01
  -1.571083e+01  -1.679305e+01
  -5.220591e+01  -6.353775e+01
  -2.547052e+01  -8.892520e+01
   4.561574e+01  -3.589789e+01
   1.396918e+02   2.168341e+01
   1.025576e+02   5.532932e+01
  -2.223558e+00   3.097906e+01
  -6.523541e+01   3.550990e+01
  -7.544236e+01   4.849555e+00
  -1.291360e+01  -4.677607e+00
   2.492774e+01  -4.928017e+00
  -5.190633e+00  -6.555952e+00
  -3.905668e+01   9.232201e+00
   1.540658e+01  -8.662749e+00
   1.082840e+02  -5.480135e+00
   1.241785e+02   1.956191e+01
   5.855428e+01   8.654485e+01
  -9.853053e+01   1.280279e+02
  -1.674553e+02   4.128293e+01
  -1.059497e+02  -5.760635e+01
  -2.850951e+01  -1.555199e+02
   4.653562e+01  -1.242031e+02
   9.311784e+01  -4.035560e+01
   7.815960e+01   2.058190e+01
   1.543103e+01   3.712340e+01
  -1.440163e+00   1.311487e+01
   2.358594e+01  -1.012277e+01
   4.970803e+01   2.421463e+01
   4.788687e+01   1.026837e+02
  -2.345780e+01   9.507622e+01
  -1.034871e+02  -9.499345e+00
  -7.642408e+01  -9.148817e+01
   2.972977e+00  -8.499738e+01
   7.355632e+01   4.072080e+00
   1.107541e+02   8.384391e+01
   2.676073e+01   7.287255e+01
  -6.679855e+01   4.574589e+01
  -1.545576e+02  -3.820728e+01
  -2.059515e+01  -9.023748e+01
   3.303232e+01  -7.593797e+01
   4.363728e+01  -4.353788e+01
  -2.970561e+01   1.813288e+01
  -7.733126e+01   3.532691e+01
  -2.182671e+00  -2.697885e+01
   7.356103e+01  -8.593815e+01
   9.631328e+01  -2.971567e+01
   5.145851e+01   8.111486e+00
  -3.011634e+01   5.706726e+01
  -5.163486e+01   6.890415e+01
  -5.755123e+01   1.184859e+01
   1.752582e+01  -6.050202e+01
   4.490259e+01  -4.991464e+01
   6.712602e+01   9.520238e+00
   2.457827e+01   6.022185e+01
  -1.721044e+01   6.856115e+01
  -5.059145e+01   1.858070e+01
  -2.165291e+01  -2.831976e+01
  -9.292441e+00  -7.358397e+00
   1.042032e+01   3.474684e+01
   2.126012e+01  -4.731393e+00
   3.176688e+00  -1.289361e+01
   1.541217e+01  -4.951971e+01
   3.629532e+01  -1.031531e+01
   3.313929e+01   3.047632e+01
   1.951118e+01   7.079621e+01
  -4.110309e+01   3.463095e+01
  -4.157085e+01  -3.380147e+01
  -2.739863e+01  -7.972570e+01
   6.273967e+01  -8.001116e+00
   8.695938e+01  -1.623269e+01
   7.708201e+01   2.302437e+01
  -2.673825e+01   4.008407e+01
  -4.535963e+01   3.262423e+01
  -3.109610e+01   2.202680e+01
   3.152650e+01   3.102382e+01
   2.387752e+01   2.662523e+01
  -2.946394e+01   1.595221e+01
  -8.156785e+01   1.705493e+01
