
 $NMID
 id='ANONYMOUS ', fmtdat='(2E16.6)'
 volume=1.0
 tramp=1.0
 $END
  -3.518457e+03   2.962821e+01
  -2.485569e+03  -1.600644e+03
   3.654924e+02  -2.150547e+03
   1.281230e+03  -1.255588e+03
   9.321846e+02  -1.215088e+02
  -1.081183e+02   2.104041e+02
  -4.447961e+02  -1.153921e+02
  -3.547297e+01  -5.037663e+02
   5.146956e+02  -6.599966e+02
   7.309703e+02   1.672720e+01
   3.611536e+02   5.745832e+02
   4.017318e+00   7.008039e+02
  -4.006400e+02   2.020427e+02
  -3.439388e+02  -4.905370e+02
   1.318148e+02  -6.176185e+02
   5.161914e+02  -5.539290e+01
   3.218097e+02   5.396954e+02
  -1.542853e+02   6.512865e+02
  -4.845468e+02   2.244498e+02
  -4.060895e+02  -1.705411e+02
  -1.309476e+02  -3.997131e+02
   1.447589e+02  -2.516495e+02
   1.127202e+02  -7.582419e+01
  -1.149239e+02  -6.159478e+01
  -2.750370e+02  -1.997696e+02
  -2.882727e+01  -3.161594e+02
   4.718602e+02  -1.814120e+02
   6.581741e+02   1.691961e+02
   3.121241e+02   4.432874e+02
  -3.687566e+02   2.929035e+02
  -5.670561e+02  -8.646841e+01
  -2.267567e+02  -3.931062e+02
   2.406169e+02  -3.858171e+02
   4.948722e+02  -1.249389e+02
   3.788798e+02   1.843351e+02
   4.182015e+01   3.654703e+02
  -9.284443e+01   2.317148e+02
  -6.805352e+01  -1.482620e+02
   1.711102e+02  -2.779677e+02
   2.777133e+02   8.953222e+01
   6.344538e+01   5.804639e+02
  -2.583607e+02   5.318302e+02
  -4.949525e+02   3.679774e+01
  -2.697258e+02  -4.247673e+02
   2.362089e+02  -2.024574e+02
   2.643881e+02   2.728056e+02
  -6.093272e+01   4.485358e+02
  -4.303862e+02   9.595703e+01
  -4.691297e+02  -3.496239e+02
  -1.645619e+02  -4.880190e+02
   2.665156e+02  -3.146012e+02
   5.803951e+02   6.386728e+01
   3.526040e+02   2.684347e+02
  -1.150570e+02   2.769202e+02
  -3.396983e+02   4.507073e+01
  -2.537009e+02  -9.136612e+01
  -1.182001e+01  -4.525725e+01
   8.042159e+01   4.249976e+01
  -1.396790e+02   1.276069e+02
  -2.626274e+02  -6.575578e+01
  -1.440611e+02  -1.768803e+02
   1.689252e+02  -2.077704e+02
   3.174123e+02  -1.141199e+02
   2.733008e+02   9.468774e+01
   1.676216e-01   2.952038e+02
  -2.345177e+02   3.352564e+02
  -3.709843e+02   1.905705e+02
  -2.546672e+02  -1.660837e+02
  -7.124250e+01  -3.701802e+02
   5.245571e+01  -3.041904e+02
   5.551944e+01  -1.422923e+02
   9.085069e+00  -6.171030e+01
   1.250626e+02  -1.358871e+02
   2.337706e+02  -7.297426e+01
   2.451407e+02   1.114817e+02
   1.116238e+02   2.474167e+02
  -9.614519e+01   2.017012e+02
  -2.138783e+02  -5.246946e+01
  -1.745946e+02  -2.176402e+02
   1.229840e+01  -2.343073e+02
   2.770641e+02  -7.776956e+01
   3.194576e+02   1.400306e+02
   1.746457e+02   3.110953e+02
  -8.267617e+01   2.236483e+02
  -1.686420e+02   1.398004e+02
  -1.441450e+02   3.070134e+01
  -1.054446e+02   7.557233e+01
  -2.537703e+02   3.550223e+01
  -4.272451e+02  -5.127504e+01
  -3.370413e+02  -3.190126e+02
   3.281307e+01  -4.527204e+02
   3.359075e+02  -4.387434e+02
   4.392777e+02  -1.847872e+02
   2.968526e+02   8.727663e+01
   2.879745e+01   2.593719e+02
  -1.006975e+02   1.861717e+02
   1.015687e+01  -1.647807e+00
   1.558936e+02  -5.851523e+01
   1.642148e+02   4.189509e+01
   2.634135e-02   1.543749e+02
  -1.653715e+02   9.110974e+01
  -1.541328e+02  -8.974971e+01
   4.999841e+01  -1.633495e+02
   2.216449e+02  -3.897568e+00
   1.145584e+02   2.460252e+02
  -6.869125e+01   3.369782e+02
  -2.427833e+02   1.842833e+02
  -3.220736e+02  -5.606080e+01
  -2.573853e+02  -2.655833e+02
  -8.785972e+01  -2.699549e+02
   1.044118e+02  -1.871255e+02
   1.644393e+02  -4.545306e+00
   7.507511e+01   4.044190e+01
  -7.737666e+01  -5.314116e+01
  -2.649505e+01  -1.130873e+02
   1.189378e+02  -1.088847e+02
   1.560613e+02   3.433464e+01
   5.258639e+01   8.101846e+01
  -9.544135e+01   1.477634e+01
  -1.832055e+01  -6.212326e+01
   1.242050e+02  -8.082845e+01
   2.663860e+02   3.048115e+01
   2.737707e+02   1.230260e+02
   3.639957e+01   2.487788e+02
  -2.232231e+02   2.384528e+02
  -3.092254e+02   1.162045e+02
  -1.582620e+02  -6.648283e+01
   2.429607e+01  -5.210469e+01
   7.346131e+01  -8.276267e-01
  -3.700926e+01   9.039389e+01
  -2.103620e+02   3.064075e+01
  -1.996557e+02  -1.057934e+02
  -3.584080e+01  -2.236399e+02
   9.801094e+01  -1.459666e+02
   1.359597e+02  -2.960142e+01
   3.454408e+01   4.864254e+01
  -6.293672e+01  -2.892283e+01
  -4.463201e+01  -8.870029e+01
   7.080171e+01  -1.282790e+02
   2.142225e+02  -5.531918e+01
   2.034021e+02   1.418685e+02
   1.235279e+01   2.344316e+02
  -1.448209e+02   1.263453e+02
  -1.655551e+02   5.137572e+00
  -5.047485e+01  -1.049170e+02
   5.604575e+01  -9.750471e+01
   9.940037e+01  -6.616243e+01
   1.070554e+01   5.860389e+01
  -2.466749e+01  -2.488555e+00
  -2.119618e+01  -1.772568e+01
   7.263081e+01  -1.765343e+00
   1.104359e+02   1.196069e+02
   2.407499e+01   1.591390e+02
  -1.830815e+02   1.516420e+02
  -2.583248e+02  -2.485476e+01
  -1.582358e+02  -1.716709e+02
  -3.031839e+01  -2.503311e+02
   9.624896e+01  -1.668677e+02
   1.256823e+02   8.912664e+00
   7.137237e+01   4.891122e+01
   3.832560e+01   6.061624e+01
   6.635563e+01  -1.094779e+01
   7.837623e+01  -2.579819e+00
   3.561625e+01   5.367335e+01
  -2.688302e+01   8.303418e+01
  -1.264680e+02   7.400725e+01
  -1.287913e+02  -5.321928e+01
   4.149982e+01  -1.383192e+02
   1.849593e+02  -6.998109e+01
   1.963714e+02   1.090020e+02
   9.342457e+01   2.282095e+02
  -1.435906e+02   2.068139e+02
  -2.758006e+02   9.258188e+01
  -2.580689e+02  -8.021256e+01
  -8.398171e+01  -1.731951e+02
   5.745943e+01  -1.498615e+02
   9.716066e+01  -6.951806e+01
   9.818282e+01  -8.577259e+01
   5.621564e+01  -1.096807e+02
   8.680632e+01  -8.025346e+01
   1.055812e+02   2.674180e+01
   1.137760e+02   1.150827e+02
   3.642136e+01   2.234371e+02
  -1.042752e+02   1.743168e+02
  -1.839215e+02   2.219132e+01
  -1.315118e+02  -1.439565e+02
  -1.461204e+01  -1.521860e+02
   7.844157e+01  -9.210799e+01
   5.550823e+01   1.459935e+01
  -8.994498e+00   5.148936e+01
  -4.853754e+01   2.424710e+01
   3.184729e+01   8.610359e+00
   7.617741e+01   2.912563e+01
   4.490135e+01   4.484609e+01
  -7.433327e+01   3.810715e+01
  -1.621782e+02   7.621768e+00
  -1.352129e+02  -7.814906e+01
  -1.030720e+01  -9.134072e+01
   1.258034e+02  -8.419044e+01
   1.681255e+02  -2.053403e+01
   3.522997e+01   5.868588e+01
  -6.160137e+01   4.036386e+01
  -9.000203e+01  -6.535833e+01
  -2.789710e+01  -8.182011e+01
   4.385993e+01  -7.109221e+01
   6.914702e+01  -3.509550e+00
   8.754291e+01   5.108719e+01
   6.663397e+01   2.454332e+01
   4.172163e+01  -1.207254e+01
   7.063361e+01   2.612847e+01
   3.274013e+01   5.440297e+01
  -4.993768e+00   1.378720e+02
  -1.301070e+02   1.543633e+02
  -1.759523e+02   2.313482e+01
  -1.252766e+02  -8.766996e+01
  -2.026185e+01  -1.362669e+02
   7.403730e+01  -7.491633e+01
   7.889438e+01   4.339535e+00
  -3.150219e+01   3.309612e+01
  -1.503114e+02  -2.337035e+01
  -7.742825e+01  -8.270913e+01
   5.010037e+01  -1.008608e+02
   1.968669e+02  -2.286911e+01
   1.639238e+02   4.978786e+01
   4.189495e+01   9.855987e+01
  -6.691054e+01   6.371160e+01
  -5.539865e+01   6.807651e+00
   3.325696e+01  -8.953336e-01
   7.739768e+01   2.612950e+01
   5.355975e+01   1.043560e+02
  -1.052217e+02   1.442312e+02
  -1.652120e+02   7.593117e+01
  -1.182230e+02  -9.131569e+01
  -5.065697e+01  -2.052760e+02
   7.479928e+01  -1.509135e+02
   1.135290e+02   1.932088e+01
   3.634343e+01   1.003353e+02
   1.073993e+01   9.321656e+01
  -4.491674e+01   8.084908e+00
  -2.412154e+01  -3.896516e+01
  -1.174073e+01  -6.924666e+00
  -1.744544e+01   2.829792e+01
  -5.947612e+01  -1.186641e+01
  -8.272691e+01  -8.478065e+01
  -4.744523e+01  -9.976496e+01
   5.201735e+01  -4.542239e+01
   1.376511e+02   5.113937e+01
   1.177550e+02   7.307643e+01
   3.140400e+01   2.963822e+01
  -9.653526e+01  -7.223739e+00
  -7.940297e+01   3.321452e+01
  -5.313492e+01  -1.018834e+01
   2.235751e+01  -2.172849e+01
   2.697886e+01  -2.064733e+01
   1.839400e+01   8.148721e+00
   3.445170e+01   1.560793e+01
   6.656092e+01   2.424439e+00
   9.524033e+01   4.031961e+01
   2.726125e+01   8.470685e+01
  -6.558700e+01   1.293530e+02
  -1.987517e+02   8.821650e+01
  -1.677156e+02  -5.621722e+01
  -3.438200e+01  -1.319242e+02
   6.597325e+01  -1.638194e+02
   1.492927e+02  -7.475066e+01
   5.028488e+01   1.430634e+01
   4.414098e+01   6.078165e+01
   1.405109e+01   6.748912e+00
   1.759387e+01   9.052697e+00
   3.077659e+01   6.008542e+01
   3.613949e+01   7.980318e+01
  -2.253350e+01   5.170881e+01
  -7.401450e+01  -1.084433e+01
  -6.914138e+01  -6.178237e+01
  -3.407949e+01  -9.991025e+01
   4.311094e+01  -1.638034e+01
   1.116199e+02   4.042541e+01
   1.862323e+01   8.828008e+01
  -2.722185e+01   5.760636e+01
  -9.486364e+01  -1.204046e+01
  -6.988949e+01  -4.380929e+01
   5.723853e+01  -8.092327e+01
   7.448983e+01  -1.978836e+01
  -1.493518e+01   3.017193e+00
  -8.477676e+01   1.291285e+01
  -8.018250e+00  -5.628706e+00
   7.264858e+01  -6.985701e+01
   1.150398e+02  -6.567074e+01
   9.835027e+01   2.673360e+01
   2.776268e+00   7.390835e+01
  -3.009872e+01   8.009581e+01
  -5.271835e+01   1.937428e+01
  -3.993369e+01  -6.103988e+01
   1.699994e+01  -2.780580e+01
   3.161319e+01  -4.371927e+00
   3.118826e+01   7.604286e+01
  -1.138506e+01   1.847151e+01
  -3.943574e+01   1.248315e+01
  -5.838869e+01  -2.817169e+01
  -4.355082e+01   3.606162e+00
   5.059433e+00   8.838648e+00
   4.638661e+01   2.388876e+00
   4.231541e+01  -1.788571e+01
   1.434797e+01  -4.495078e+01
   1.386759e+01  -1.565450e+01
   2.148060e+01   4.699153e+01
  -6.642349e+00   5.307168e+01
  -2.386497e+01   3.062588e+00
  -3.586112e+01  -2.669046e+01
  -1.310612e-01  -5.981708e+01
   4.790259e+01  -3.701621e+01
   4.664881e+01   3.656212e+01
   2.954524e+01   5.215746e+01
  -1.696174e+01   4.945919e+01
  -3.179264e+01   2.556349e+00
  -3.874514e+01   1.073686e+01
   1.365244e+01  -6.791677e+00
   3.355732e+01   2.958246e+01
  -4.184957e+01   5.049187e+01
  -6.630735e+01   2.963919e+01
