
 $NMID
 id='ANONYMOUS ', fmtdat='(2E16.6)'
 volume=1.0
 tramp=1.0
 $END
  -3.832510e+03  -1.250636e+02
  -2.515950e+03  -2.039369e+03
   4.453977e+02  -2.351756e+03
   1.447701e+03  -9.128281e+02
   8.013983e+02   2.512191e+02
  -2.391898e+02   2.527411e+02
  -4.781379e+02  -4.148522e+02
   1.522218e+02  -7.820231e+02
   6.749133e+02  -4.632564e+02
   7.451915e+02   4.010381e+01
   4.009467e+02   6.065704e+02
  -1.402702e+02   7.098685e+02
  -4.493126e+02   6.223858e+01
  -2.704733e+02  -5.428290e+02
   2.651507e+02  -5.631819e+02
   4.599836e+02   1.597289e+01
   1.879278e+02   5.786469e+02
  -2.855361e+02   5.467380e+02
  -5.042033e+02   6.901961e+01
  -3.335928e+02  -2.265738e+02
  -5.813711e+00  -3.477979e+02
   1.836189e+02  -2.024269e+02
   8.448047e+01  -9.084399e+00
  -1.354209e+02  -2.331383e+01
  -2.985408e+02  -2.038034e+02
  -6.560184e+01  -3.484794e+02
   4.779499e+02  -2.802792e+02
   6.776999e+02   1.554884e+02
   2.964106e+02   4.853815e+02
  -3.623704e+02   3.410406e+02
  -6.182354e+02  -7.763622e+01
  -2.173778e+02  -4.312699e+02
   2.831182e+02  -3.987732e+02
   4.800515e+02  -1.737366e+02
   2.956337e+02   1.984403e+02
   7.881684e+01   3.136432e+02
  -6.623945e+01   1.562031e+02
  -5.320639e+01  -1.196784e+02
   1.552419e+02  -3.374742e+02
   3.258542e+02   1.012084e+02
   1.646799e+02   5.622882e+02
  -2.734967e+02   5.421032e+02
  -3.979229e+02   1.045524e+01
  -2.023632e+02  -4.039382e+02
   2.076103e+02  -2.282978e+02
   2.776386e+02   2.487575e+02
  -1.044866e+02   4.296192e+02
  -4.795707e+02   6.726064e+01
  -4.650501e+02  -4.177294e+02
  -1.174297e+02  -5.043339e+02
   3.320886e+02  -2.493497e+02
   5.232109e+02   9.539780e+01
   2.932925e+02   3.391155e+02
  -1.156767e+02   2.905005e+02
  -3.380767e+02   2.456968e+01
  -2.194417e+02  -1.049508e+02
   7.126497e+01  -5.481480e+01
   5.007263e+01   1.200621e+02
  -1.701072e+02   8.802721e+01
  -2.728975e+02  -5.076848e+01
  -9.245391e+01  -2.985308e+02
   2.151493e+02  -2.211906e+02
   3.475503e+02  -7.640295e+01
   2.114731e+02   5.363924e+01
  -6.803058e+01   2.745256e+02
  -2.372585e+02   3.254620e+02
  -3.161341e+02   1.860547e+02
  -2.171940e+02  -1.295711e+02
  -3.630903e+01  -3.280461e+02
   3.951922e+01  -3.255812e+02
   6.374510e+01  -1.599299e+02
   3.986152e+01  -5.295606e+01
   9.582842e+01  -1.186338e+02
   2.128155e+02  -7.498282e+01
   2.348145e+02   6.266197e+01
   1.312446e+02   2.498494e+02
  -8.606228e+01   2.193810e+02
  -2.304294e+02  -3.257154e+01
  -1.644404e+02  -2.582992e+02
   3.502910e+01  -2.509972e+02
   2.288250e+02  -7.725828e+01
   2.808038e+02   1.797598e+02
   2.028191e+02   2.744021e+02
  -5.544404e+01   2.732739e+02
  -1.457046e+02   1.625401e+02
  -1.256563e+02   6.336252e+01
  -1.096401e+02   7.942893e+01
  -2.786009e+02   5.733851e+01
  -4.243267e+02  -6.027135e+01
  -3.552408e+02  -2.577049e+02
   1.727858e+01  -3.958491e+02
   3.518905e+02  -3.689464e+02
   4.245566e+02  -1.978863e+02
   3.030807e+02   6.326297e+01
   5.121982e+01   2.429420e+02
  -6.438124e+01   2.099777e+02
  -5.755463e+01   6.107595e+01
   8.135536e+01  -7.155186e+01
   1.378256e+02   1.177244e+01
   2.576999e+01   1.539031e+02
  -1.014129e+02   1.667246e+02
  -1.568662e+02  -6.472291e+01
   3.660362e+01  -1.385106e+02
   1.834244e+02  -1.601170e+01
   1.654806e+02   2.309665e+02
  -4.721504e+01   3.559153e+02
  -2.114754e+02   1.800420e+02
  -3.157289e+02  -7.214512e+01
  -2.775573e+02  -2.229011e+02
  -6.402356e+01  -2.656401e+02
   1.318896e+02  -1.164149e+02
   1.405729e+02  -1.426423e+01
   5.199010e+01   2.958222e+01
  -5.896287e+01  -5.858622e+01
  -5.924916e+00  -1.330162e+02
   8.515857e+01  -7.108304e+01
   1.518847e+02   7.656144e+00
   2.833562e+01   4.232176e+01
  -5.856991e+01   3.959523e+01
  -4.007344e+01  -9.317080e+01
   1.254915e+02  -1.148251e+02
   2.872670e+02  -3.114268e+01
   2.354464e+02   1.059221e+02
   8.730700e+01   2.258819e+02
  -1.735209e+02   2.165492e+02
  -2.667333e+02   9.736387e+01
  -1.585018e+02  -4.100592e+01
   2.892002e+01  -7.286277e+01
   5.198506e+01   5.746043e+00
  -3.315196e+01   6.095739e+01
  -1.898759e+02   3.735784e+01
  -1.998083e+02  -1.010957e+02
  -8.482641e+01  -2.132520e+02
   7.031183e+01  -1.535885e+02
   1.445218e+02  -2.259966e+01
   4.925095e+01   4.691221e+01
  -1.504213e+01   8.445316e+00
  -3.150993e+01  -1.229177e+02
   8.137599e+01  -1.537183e+02
   2.067800e+02  -5.516743e+01
   1.775793e+02   9.903526e+01
   1.957325e+00   1.972078e+02
  -1.494090e+02   1.798580e+02
  -1.597329e+02   2.812359e+01
  -7.753145e+01  -1.150434e+02
   7.060180e+01  -5.908270e+01
   7.051307e+01  -9.345385e+00
   1.265390e+01   3.182775e+01
  -3.805478e+01   2.231359e+01
  -1.614509e+01  -1.460086e+01
   7.486134e+01  -2.576336e+01
   1.048632e+02   7.330739e+01
   2.222781e+01   1.467620e+02
  -1.179482e+02   1.316645e+02
  -2.176643e+02   3.306999e+01
  -2.198153e+02  -1.303829e+02
  -4.618326e+01  -2.646194e+02
   8.876933e+01  -1.726693e+02
   1.460546e+02  -4.208621e+01
   8.370841e+01   3.704086e+01
   1.523805e+01   2.165090e+01
   5.229002e+01  -2.640043e+01
   8.333857e+01  -2.193788e+01
   5.958529e+01   7.520513e+01
  -3.766816e+01   1.059245e+02
  -1.132887e+02   6.803801e+01
  -1.021666e+02  -3.076611e+01
  -5.686065e+00  -1.296693e+02
   1.609057e+02  -1.080244e+02
   1.908961e+02   3.675735e+01
   1.103694e+02   1.908613e+02
  -1.283408e+02   2.167585e+02
  -2.471421e+02   8.546775e+01
  -2.419387e+02  -8.665172e+01
  -8.460126e+01  -1.790626e+02
   1.769082e+01  -1.069402e+02
   9.155577e+01  -9.003741e+01
   8.439338e+01  -6.152224e+01
   6.575471e+01  -8.688387e+01
   9.158100e+01  -6.242903e+01
   1.237163e+02   1.877294e+01
   1.252084e+02   1.232036e+02
   1.936189e+01   2.133183e+02
  -9.661286e+01   1.655386e+02
  -1.711150e+02   1.617899e+01
  -1.473584e+02  -1.621358e+02
  -3.244092e+01  -1.715501e+02
   7.733193e+01  -9.758596e+01
   7.047894e+01   7.072032e+00
  -4.060818e+00   4.396029e+01
  -9.990576e+00   2.760460e+01
   1.754329e+01  -7.932582e+00
   7.809458e+01  -1.073862e+01
   2.478264e+01   1.581040e+01
  -4.063565e+01   4.790271e+01
  -1.648931e+02   3.522006e+01
  -1.478847e+02  -2.720726e+01
   2.819212e+00  -8.211215e+01
   1.327983e+02  -6.310398e+01
   1.685074e+02  -3.045577e+01
   4.278130e+01   4.653936e+01
  -5.774086e+01   2.573895e+01
  -8.613010e+01   6.462588e+00
  -8.875921e+00  -5.177134e+01
   3.739992e+01  -8.934204e+01
   8.462917e+01  -1.947788e+01
   6.827660e+01   6.889802e+01
   4.979847e+01   6.143050e+01
   6.769792e+01  -1.195148e+01
   4.752040e+01  -1.579458e+00
   6.367156e+01   7.383688e+01
  -3.471430e+01   1.500049e+02
  -9.826527e+01   1.190713e+02
  -1.624948e+02   3.864447e+01
  -1.143316e+02  -8.848374e+01
  -1.889687e+01  -1.269954e+02
   5.441006e+01  -4.460665e+01
   2.794749e+01  -7.880908e+00
  -7.715107e+01   4.668166e+01
  -1.264012e+02  -3.198461e+01
  -4.613484e+01  -1.053767e+02
   8.593447e+01  -9.527339e+01
   1.648243e+02  -5.176811e+01
   1.630544e+02  -8.599677e-01
   2.978276e+01   7.507876e+01
  -7.084889e+01   6.210415e+01
  -4.677864e+01   1.416442e+01
   3.891590e+01  -3.319912e+01
   1.025640e+02   2.148943e+01
   4.042802e+01   1.292361e+02
  -7.537147e+01   1.412089e+02
  -1.476704e+02   4.439082e+01
  -1.580466e+02  -5.372042e+01
  -7.824666e+00  -1.554821e+02
   7.002470e+01  -1.483064e+02
   1.067938e+02  -1.135294e+01
   5.645029e+01   1.010539e+02
  -2.188003e+00   9.447124e+01
  -6.401219e+01   5.872474e+01
  -4.565658e+01  -4.563438e+01
  -1.464109e+01  -4.000959e+01
  -1.068410e+01   1.340439e+01
  -3.322704e+01  -2.218130e+01
  -4.816333e+01  -6.214165e+01
  -5.344330e+01  -1.156520e+02
   6.635116e+01  -3.216522e+01
   1.338263e+02   3.021717e+01
   9.104873e+01   4.201779e+01
  -9.749548e+00   3.288862e+01
  -8.121784e+01   2.807213e+01
  -7.748759e+01   1.269978e+01
  -6.062215e+00  -2.598459e+01
   1.537212e+01   1.173795e+01
  -1.374451e+01  -8.762949e+00
  -3.086031e+01  -9.649343e-01
   1.452066e+01  -4.763621e+00
   8.212895e+01  -3.620523e+01
   7.514886e+01   1.536338e+01
   1.228501e+01   8.271839e+01
  -1.031963e+02   1.275278e+02
  -1.514307e+02   7.182095e+01
  -1.438629e+02  -1.084208e+02
  -1.869415e+01  -1.568986e+02
   6.072801e+01  -1.506560e+02
   8.678048e+01  -8.231082e+01
   6.466519e+01   9.651019e+00
   7.248044e+00   3.458085e+01
  -9.459468e+00   2.515905e+01
   4.781961e+01  -1.335061e+01
   2.915812e+01   3.662644e+01
  -2.107883e+00   9.311567e+01
  -3.788053e+01   1.009644e+02
  -6.622247e+01  -2.433038e+01
  -8.645037e+01  -1.054652e+02
   1.702573e+01  -1.126905e+02
   7.570134e+01  -1.368343e+01
   9.797135e+01   7.941074e+01
   2.947492e+01   9.514988e+01
  -4.282251e+01   4.883397e+01
  -1.217096e+02  -1.205519e+01
  -2.830108e+01  -6.384234e+01
   1.909599e+01  -5.235256e+01
   2.917601e+01  -2.965940e+01
  -2.506117e+01  -3.228429e+00
  -7.872768e+01   1.317206e+01
  -2.864451e+01  -1.906331e+01
   5.372689e+01  -6.969271e+01
   9.953486e+01  -7.744128e+01
   6.735086e+01  -8.309388e+00
  -2.661536e+01   5.290092e+01
  -4.804627e+01   7.591007e+01
  -2.784183e+01   1.474809e+01
   6.771340e+00  -2.507743e+01
   2.389374e+01  -4.911224e+01
  -9.580381e+00  -1.643548e+01
   3.343133e+01   4.884136e+01
  -2.116937e+01   4.398614e+01
  -1.578739e+01  -2.282806e+00
  -2.940364e+01  -8.435047e+00
  -1.016040e+01  -2.265466e+01
  -1.719442e+01  -2.355594e+01
   3.319727e+00   4.566778e+00
   8.219546e+00  -1.653153e+01
   9.119085e+00  -2.541964e+01
   1.830179e+01   1.137417e+01
   1.611390e+01   3.497652e+01
   1.310919e+01   3.066191e+01
  -4.758658e+01   1.032800e+01
  -4.439814e+01  -3.553583e+01
  -2.314188e+01  -8.269134e+01
   5.277454e+01  -1.890831e+01
   8.208103e+01   2.198268e+01
   3.814646e+01   5.266270e+01
  -3.473811e+01   4.609152e+01
  -5.820203e+01   2.031350e+01
  -1.055403e+01  -1.076104e+01
   3.974549e+01   2.377938e+00
   1.220086e+01   7.915586e+00
  -4.821175e+01   2.112157e+01
  -7.613048e+01   1.602197e+01
