
 $NMID
 id='ANONYMOUS ', fmtdat='(2E16.6)'
 volume=1.0
 tramp=1.0
 $END
  -3.289938e+03   1.099541e+02
  -2.051212e+03  -1.854885e+03
   4.427054e+02  -1.979868e+03
   1.426389e+03  -9.765046e+02
   7.688385e+02   1.522856e+01
  -1.584674e+02   1.923168e+02
  -3.204861e+02  -2.098424e+02
   3.809793e+01  -5.627551e+02
   3.982634e+02  -5.521844e+02
   5.906534e+02  -1.031080e+02
   3.545877e+02   5.366176e+02
   3.060458e+01   5.992551e+02
  -2.713225e+02   1.797564e+02
  -2.604126e+02  -3.386506e+02
   1.189236e+02  -4.949941e+02
   3.490689e+02  -1.360897e+01
   2.233889e+02   4.196870e+02
  -2.260923e+02   5.388412e+02
  -4.440442e+02   1.898165e+02
  -4.068037e+02  -2.336708e+02
  -6.844518e+01  -3.422587e+02
   1.352798e+02  -2.615327e+02
   1.037489e+02  -1.484871e+02
  -1.005016e+02  -4.289247e+00
  -2.658976e+02  -1.524665e+02
  -3.949324e+01  -2.920150e+02
   4.133583e+02  -1.946364e+02
   6.083168e+02   1.704112e+02
   2.800867e+02   3.638045e+02
  -2.959660e+02   3.244652e+02
  -4.543526e+02  -1.165516e+02
  -1.835384e+02  -3.864588e+02
   2.386222e+02  -3.271035e+02
   4.215853e+02  -1.240653e+02
   2.765164e+02   1.523417e+02
   1.064516e+02   3.078060e+02
  -1.692228e+01   1.775850e+02
  -8.703575e+00  -1.086664e+02
   1.766960e+02  -1.654027e+02
   2.361620e+02   7.466458e+01
   8.337504e+01   5.211411e+02
  -2.762383e+02   4.707620e+02
  -3.769345e+02  -2.597947e+00
  -1.200607e+02  -3.433617e+02
   1.998497e+02  -1.675346e+02
   2.392802e+02   2.982444e+02
  -1.285209e+02   3.792439e+02
  -4.424540e+02   2.422776e+01
  -4.254340e+02  -3.996195e+02
  -5.620015e+01  -4.497326e+02
   3.064802e+02  -2.267726e+02
   4.972931e+02   1.037317e+02
   2.318939e+02   2.741449e+02
  -6.368253e+01   2.373808e+02
  -2.452994e+02   3.601574e+01
  -2.044335e+02  -4.773541e+01
   2.010163e+01  -4.316126e+01
   4.350351e+01   1.105898e+02
  -1.109689e+02   9.824598e+01
  -2.173009e+02  -5.356265e+01
  -9.134652e+01  -2.597379e+02
   2.192494e+02  -2.074764e+02
   3.093454e+02  -6.836412e+01
   2.003434e+02   1.056440e+02
  -5.321167e+01   2.468501e+02
  -2.005791e+02   2.652890e+02
  -2.920739e+02   1.735868e+02
  -1.908635e+02  -1.108998e+02
  -3.501065e+01  -3.526266e+02
   1.061335e+02  -3.255738e+02
   8.374724e+01  -1.684128e+02
  -9.087094e+00  -7.322716e+01
   1.168717e+02  -8.891217e+01
   2.237951e+02  -7.883073e+01
   1.988238e+02   8.865172e+01
   6.408794e+01   2.519029e+02
  -5.567868e+01   1.634645e+02
  -1.999828e+02  -1.863594e+01
  -1.098769e+02  -2.195689e+02
   2.678688e+01  -2.206786e+02
   2.197795e+02  -5.602788e+01
   3.049714e+02   1.678635e+02
   1.324936e+02   2.919397e+02
  -8.054209e+01   2.671816e+02
  -2.009037e+02   1.167063e+02
  -1.374167e+02   4.546773e+01
  -1.451100e+02   4.763271e+01
  -2.592084e+02   2.088766e+01
  -3.958022e+02  -7.595088e+01
  -2.730122e+02  -3.114264e+02
   3.154760e+01  -4.114369e+02
   3.356482e+02  -3.421585e+02
   4.548618e+02  -1.530413e+02
   2.681457e+02   8.823202e+01
   1.197735e+01   2.560470e+02
  -7.482249e+01   2.131753e+02
  -4.084081e+01   4.659882e+01
   9.653040e+01  -5.295932e+01
   1.235170e+02   7.382297e+01
   2.798637e+01   1.626762e+02
  -1.327072e+02   1.391429e+02
  -1.201939e+02  -7.544865e+01
   2.928382e+01  -1.246515e+02
   1.851485e+02   4.562264e+00
   1.424450e+02   2.115002e+02
  -5.050719e+01   3.304470e+02
  -2.211254e+02   1.513478e+02
  -3.251869e+02  -6.811983e+01
  -2.637497e+02  -2.352732e+02
  -4.219955e+01  -2.382883e+02
   1.213351e+02  -1.226383e+02
   1.096706e+02   1.478517e+01
   1.421367e+01   3.883171e+01
  -6.007884e+01  -8.644453e+01
  -1.564206e+01  -1.114419e+02
   1.213996e+02  -6.543131e+01
   1.320833e+02   2.719292e+01
   8.061352e+00   6.029772e+01
  -9.884663e+01   2.771735e+00
  -1.754732e+01  -9.998141e+01
   1.684963e+02  -7.324228e+01
   2.565407e+02   5.503053e+01
   2.115476e+02   1.496484e+02
   2.673046e+01   2.404155e+02
  -2.194391e+02   2.348817e+02
  -2.296253e+02   6.721641e+01
  -1.152845e+02  -2.985933e+01
   4.094120e+01  -8.196197e+01
   4.073670e+01   7.911636e+00
  -6.220058e+01   6.369391e+01
  -1.651766e+02   3.485904e+01
  -1.502065e+02  -1.067321e+02
  -4.555328e+01  -1.952453e+02
   5.551542e+01  -1.241296e+02
   1.019792e+02  -4.547696e+01
   4.249530e+01   1.744085e+01
  -2.545589e+01  -2.886272e+01
  -2.363901e+01  -1.152171e+02
   9.479010e+01  -1.074471e+02
   2.225188e+02   1.177532e+01
   1.681447e+02   1.469952e+02
  -2.814084e+01   2.057880e+02
  -1.726137e+02   1.145852e+02
  -1.385373e+02  -1.270003e+01
  -3.929439e+01  -9.432410e+01
   6.536243e+01  -7.386021e+01
   6.146959e+01  -6.589305e+00
   1.549782e+01   2.785492e+01
  -2.838681e+01  -1.966281e+01
   5.012230e+01  -4.280183e+01
   6.573381e+01   2.823459e+01
   9.891976e+01   9.734382e+01
  -6.926813e+00   1.817158e+02
  -1.418900e+02   1.421813e+02
  -2.034001e+02   1.782872e+01
  -1.805919e+02  -1.285046e+02
  -4.017417e+01  -2.122163e+02
   1.037171e+02  -1.496569e+02
   1.212274e+02  -1.865639e+01
   3.405905e+01   6.161618e+01
   3.091301e+00   3.346581e+01
   2.285660e+01  -3.170027e+01
   4.447563e+01  -1.012124e+01
   3.582825e+01   5.138349e+01
  -2.888125e+01   8.172777e+01
  -1.234179e+02   5.925172e+01
  -6.725194e+01  -4.086529e+01
   2.616006e+00  -1.293677e+02
   1.449050e+02  -8.433729e+01
   1.923825e+02   6.270364e+01
   8.024739e+01   1.927666e+02
  -1.128883e+02   2.142943e+02
  -2.524272e+02   6.611747e+01
  -2.220056e+02  -1.113400e+02
  -9.921905e+01  -1.628308e+02
   1.437196e+01  -1.084635e+02
   5.668325e+01  -7.920598e+01
   5.197021e+01  -6.574494e+01
   4.523331e+01  -8.323155e+01
   7.101592e+01  -7.826670e+01
   1.033243e+02   1.718185e+01
   7.695366e+01   1.655214e+02
   3.114291e+01   2.223834e+02
  -8.661251e+01   1.704587e+02
  -1.365870e+02   3.147889e+01
  -9.660801e+01  -8.993084e+01
  -2.514765e+01  -1.225241e+02
   7.897194e+01  -7.604474e+01
   5.988087e+01  -3.823933e+00
  -3.007589e+01   2.866652e+01
  -3.155666e+01   3.175470e+01
   1.878753e+01  -1.584541e-01
   1.085420e+02   2.776255e+01
   4.743252e+01   2.109811e+01
  -5.030522e+01   3.504281e+01
  -1.198879e+02  -1.275300e+01
  -1.445390e+02  -3.103017e+01
  -2.616373e+01  -9.041649e+01
   9.605518e+01  -5.199030e+01
   9.726344e+01  -1.022429e+01
   1.243093e+01   3.658048e+01
  -8.865812e+01   1.483244e+01
  -7.588832e+01  -1.164573e+01
  -2.634209e+01  -5.106808e+01
   6.283115e+01  -6.295399e+01
   7.467330e+01   6.071246e+00
   3.244960e+01   5.230941e+01
   5.289263e+01   8.304308e+00
   6.617686e+01   1.365372e+01
   7.065065e+01  -4.943420e+00
   5.265526e+01   6.284893e+01
  -4.291201e+01   1.307717e+02
  -1.409086e+02   1.260525e+02
  -1.527852e+02   4.515730e+01
  -1.053213e+02  -1.177252e+02
  -4.780951e+00  -1.260484e+02
   7.107919e+01  -3.938503e+01
   4.483615e+01   3.976420e+01
  -7.992660e+01   3.143260e+01
  -1.376545e+02  -5.170671e+01
  -6.264490e+01  -1.068876e+02
   8.750144e+01  -1.075043e+02
   1.422039e+02  -2.530342e+01
   1.384410e+02   8.095038e+01
   4.251315e+01   4.420851e+01
  -5.549389e+01   3.710860e+01
  -2.830452e+01  -5.211161e-01
   3.039620e+01  -1.415245e+01
   6.614318e+01   4.185192e+01
  -1.071184e+01   9.596079e+01
  -1.304388e+02   1.472192e+02
  -1.513241e+02   5.663320e+01
  -1.164899e+02  -8.203404e+01
  -3.118925e+00  -1.632541e+02
   3.950467e+01  -1.321883e+02
   1.069936e+02  -6.430855e+00
   2.552736e+01   9.245784e+01
  -3.326426e+01   8.306513e+01
  -5.651343e+01   3.317580e+01
  -1.851300e+01  -3.525770e+01
  -7.901568e+00   8.642608e+00
  -1.216456e+01   2.687330e+01
  -6.110824e+01  -5.734331e+00
  -6.970028e+01  -1.054933e+02
  -2.498555e+01  -8.771084e+01
   5.194217e+01  -3.411261e+01
   1.381723e+02   4.956066e+01
   1.199577e+02   7.456099e+01
   1.824752e+01   3.769104e+01
  -7.057010e+01   1.739048e+01
  -9.074820e+01  -2.581425e-01
  -1.522885e+01  -9.059695e+00
  -6.995113e+00  -2.326720e+01
   1.165205e+01  -1.752880e+01
  -1.702108e+01  -9.484312e+00
   1.211316e+00  -1.799157e+00
   7.875866e+01   1.726055e+01
   8.734880e+01   6.360927e+00
   1.616684e+01   8.725454e+01
  -1.583730e+02   1.075714e+02
  -1.709781e+02   3.550467e+01
  -1.234384e+02  -9.151479e+01
  -1.898933e+01  -1.321481e+02
   7.720400e+01  -1.229562e+02
   9.368310e+01  -1.933731e+01
   8.787064e+01   5.786786e+00
  -5.031168e+00   9.309401e+00
  -1.522722e+01   3.372484e+01
   2.579719e+01  -2.504478e+01
   3.921329e+01   3.822057e+01
   2.766327e+01   9.112237e+01
  -3.878290e+01   9.791426e+01
  -1.020750e+02  -2.351020e+01
  -4.112403e+01  -1.020370e+02
   1.156328e+01  -1.066991e+02
   7.586700e+01  -2.517964e+01
   1.013420e+02   7.044505e+01
   6.047536e+01   9.455700e+01
  -7.082321e+01   9.728750e+01
  -8.669145e+01  -2.985521e+01
  -7.454407e+01  -5.064122e+01
   2.358115e+01  -6.151413e+01
   3.502083e+01  -5.816269e+01
  -2.916792e+01  -1.339740e+01
  -6.480711e+01   1.445109e+00
   1.259113e+00  -5.264129e+00
   8.591167e+01  -5.655348e+01
   1.064411e+02  -3.882735e+01
   4.436995e+01  -1.342692e+00
  -2.588641e+01   7.932527e+01
  -5.286038e+01   6.315397e+01
  -5.297206e+01   3.073045e+00
   2.814315e+01  -5.974454e+01
   2.141766e+01  -2.743712e+01
   1.049279e+01  -1.556493e+01
   4.752650e+01   4.982241e+01
  -1.808194e+01   2.012062e+01
  -4.288014e+01  -2.614243e+01
  -3.103098e+01  -2.050886e+01
  -2.473973e+01   5.237453e-01
   1.593377e+01   1.980035e+00
   3.096159e+01  -1.576097e+01
   1.508977e+01  -5.449886e+01
   4.688502e+00  -6.214432e+01
   3.490016e+01   2.846308e+00
   5.514476e+01   4.547811e+01
   6.561611e+00   4.400598e+01
  -4.698999e+01   2.872969e+01
  -2.281247e+00  -4.824318e+01
   9.379402e-01  -6.057820e+01
   6.599332e+01  -4.604133e+01
   7.319264e+01   6.139848e+00
   2.466565e+01   4.188146e+01
  -1.220496e+01   5.028248e+01
  -8.037357e+01   2.798241e+01
  -2.280545e+01   1.288668e+00
   2.047195e+01  -2.068713e+01
   2.794504e+01  -6.519755e+00
  -2.424959e+01   3.185651e+00
  -7.541556e+01   1.350527e+01
