
 $NMID
 id='ANONYMOUS ', fmtdat='(2E16.6)'
 volume=1.0
 tramp=1.0
 $END
  -4.094041e+03  -1.224440e+02
  -2.627893e+03  -2.600871e+03
   5.587958e+02  -2.660959e+03
   2.178962e+03  -9.707973e+02
   9.576693e+02   5.346537e+02
  -6.815485e+02   5.062100e+02
  -9.007876e+02  -4.191858e+02
  -7.097176e+00  -1.071285e+03
   8.654287e+02  -7.056487e+02
   9.456312e+02   8.097092e+01
   4.275962e+02   8.665379e+02
  -2.608092e+02   8.221506e+02
  -6.978748e+02   8.820933e+01
  -3.718289e+02  -8.380613e+02
   2.769948e+02  -7.378644e+02
   6.416242e+02   1.795857e+01
   3.264317e+02   7.011462e+02
  -2.988873e+02   7.107595e+02
  -5.872996e+02   9.755920e+01
  -4.312445e+02  -3.702272e+02
  -1.992049e+01  -4.894123e+02
   2.523006e+02  -2.659561e+02
   2.249422e+02   1.660722e+00
  -1.421525e+02   1.107032e+02
  -4.894627e+02  -1.388504e+02
  -1.824584e+02  -4.970826e+02
   5.440834e+02  -4.122991e+02
   8.755903e+02   1.411904e+02
   3.851203e+02   6.662470e+02
  -4.934319e+02   4.966221e+02
  -8.117257e+02  -1.764024e+01
  -3.791955e+02  -5.355574e+02
   2.990106e+02  -5.465432e+02
   5.884102e+02  -2.442326e+02
   4.381575e+02   2.461714e+02
   4.377684e+01   5.023549e+02
  -2.245641e+02   2.482535e+02
  -1.547706e+02  -2.629423e+02
   2.209935e+02  -4.450380e+02
   5.125608e+02   3.268751e+01
   2.122103e+02   7.918372e+02
  -3.254953e+02   7.357650e+02
  -6.614716e+02  -5.215518e+00
  -3.115136e+02  -5.661382e+02
   3.059100e+02  -3.347862e+02
   4.165884e+02   3.400385e+02
  -6.417275e+01   5.645068e+02
  -5.911533e+02   1.471884e+02
  -6.211647e+02  -3.615927e+02
  -2.031345e+02  -6.139015e+02
   4.486464e+02  -4.071245e+02
   6.629124e+02   4.258730e+01
   3.731067e+02   4.256316e+02
  -1.876609e+02   3.794509e+02
  -4.137869e+02   5.867593e+01
  -2.068121e+02  -1.878439e+02
   1.514804e+02  -7.373989e+01
   1.302349e+02   1.777329e+02
  -1.687883e+02   1.831191e+02
  -3.664540e+02  -9.463960e+01
  -1.360405e+02  -3.301951e+02
   1.671100e+02  -2.932529e+02
   3.250587e+02  -1.062264e+02
   2.207598e+02   8.679803e+01
   1.775959e+01   2.762500e+02
  -2.086697e+02   3.878415e+02
  -3.665663e+02   2.565043e+02
  -2.772438e+02  -1.136955e+02
  -7.866344e+01  -4.503065e+02
   1.055471e+02  -4.086903e+02
   1.263972e+02  -1.058554e+02
   9.998379e+00   1.648334e+01
   5.561507e+01  -9.241850e+01
   2.281607e+02  -1.567329e+02
   2.866598e+02   3.795564e+01
   1.829832e+02   2.918729e+02
  -5.812865e+01   2.856675e+02
  -2.793898e+02   2.588208e+01
  -2.140300e+02  -2.651294e+02
   1.446866e+01  -3.115584e+02
   2.702349e+02  -1.617372e+02
   3.461426e+02   1.776702e+02
   2.099340e+02   3.406606e+02
  -6.813833e+01   3.193930e+02
  -1.943965e+02   1.340931e+02
  -1.557841e+02   2.669595e+01
  -9.013432e+01   5.018653e+01
  -2.435252e+02   1.082566e+02
  -4.060167e+02  -4.304247e+01
  -3.271282e+02  -2.973514e+02
  -6.853123e+00  -5.085212e+02
   3.822086e+02  -4.535852e+02
   5.187884e+02  -2.289446e+02
   3.250019e+02   1.141005e+02
   8.192893e+01   3.185828e+02
  -1.373118e+02   2.362805e+02
  -7.753133e+01   2.111884e+01
   1.075105e+02  -1.047774e+02
   2.143940e+02   2.509952e+01
   2.173970e+01   2.012419e+02
  -1.653133e+02   1.560755e+02
  -1.950357e+02  -8.834896e+01
   7.589419e+01  -1.907664e+02
   2.356173e+02  -4.296559e+00
   1.679164e+02   2.507259e+02
  -6.365994e+00   4.157171e+02
  -2.191026e+02   2.108822e+02
  -3.608896e+02  -4.725053e+01
  -3.414543e+02  -2.294424e+02
  -1.356909e+02  -2.844237e+02
   9.961228e+01  -1.766649e+02
   2.081918e+02  -1.058471e+01
   5.093979e+01   4.338343e+01
  -9.314903e+01  -1.478903e+01
  -4.062553e+01  -1.017771e+02
   9.637215e+01  -1.360109e+02
   1.730184e+02  -1.134753e+01
   7.532746e+01   5.010345e+01
  -9.346985e+01   1.605089e+01
  -6.965750e+01  -6.190355e+01
   1.050069e+02  -1.127000e+02
   2.729864e+02  -2.373476e+01
   2.726761e+02   1.503925e+02
   7.456613e+01   3.012678e+02
  -1.960110e+02   3.110356e+02
  -2.911939e+02   1.413715e+02
  -2.112746e+02  -6.378848e+01
   5.664093e+01  -1.182720e+02
   1.181364e+02   1.875601e-01
  -2.173074e+01   9.711464e+01
  -2.081405e+02   6.873010e+01
  -2.190139e+02  -1.124062e+02
  -8.386786e+01  -2.303839e+02
   9.133353e+01  -1.389734e+02
   1.486453e+02  -2.950288e+01
   5.779502e+01   5.626381e+01
  -5.960683e+01   2.730926e+01
  -5.291957e+01  -6.802010e+01
   6.803395e+01  -1.338730e+02
   1.642864e+02  -4.222730e+01
   2.180565e+02   1.068125e+02
   2.246907e+01   2.543450e+02
  -1.520449e+02   1.416607e+02
  -1.974527e+02   1.241725e+01
  -5.756778e+01  -1.145483e+02
   5.279365e+01  -1.049368e+02
   7.095596e+01  -2.387684e+01
   2.704173e+01   1.679831e+01
  -2.113294e+01   3.494426e+01
  -1.894737e+01  -3.472578e+01
   7.714918e+01  -2.064994e+01
   5.898540e+01   6.504931e+01
   2.037771e+01   1.514113e+02
  -1.339923e+02   1.507907e+02
  -2.204889e+02  -1.775519e+01
  -2.068145e+02  -1.605650e+02
  -4.322667e+01  -2.611059e+02
   1.255021e+02  -1.738472e+02
   1.492533e+02  -2.070585e+01
   7.929134e+01   3.971948e+01
  -2.617705e+00   4.728906e+01
   3.799428e+01  -2.174916e+01
   1.111260e+02   5.063269e-01
   4.489859e+01   4.599119e+01
  -4.733269e+01   9.685409e+01
  -7.747312e+01   8.073848e+01
  -1.099568e+02  -2.162693e+01
   1.040186e+01  -9.279277e+01
   1.371057e+02  -9.216638e+01
   2.087749e+02   4.852959e+01
   9.652118e+01   1.986318e+02
  -1.062299e+02   2.513044e+02
  -2.809844e+02   9.009734e+01
  -2.629117e+02  -1.060151e+02
  -1.032060e+02  -1.860648e+02
   1.888143e+01  -1.528164e+02
   8.614924e+01  -6.177545e+01
   3.790011e+01  -9.069930e+01
   5.953561e+01  -8.562545e+01
   9.412797e+01  -5.678687e+01
   1.450259e+02   1.996406e+01
   1.205139e+02   1.679504e+02
   3.618593e+01   2.262433e+02
  -8.208633e+01   1.796490e+02
  -1.674768e+02   2.746568e+01
  -1.596904e+02  -8.725962e+01
  -2.601950e+01  -1.535628e+02
   4.142213e+01  -1.286483e+02
   7.255832e+01   2.858583e+00
   1.192243e+01   4.585070e+01
   1.100743e+01   5.142134e+01
   2.808055e+01  -3.461948e+00
   9.386142e+01   2.388718e+01
   4.788276e+01   2.221007e+01
  -7.056991e+01   5.178605e+01
  -1.726514e+02  -3.783370e+00
  -1.144231e+02  -5.355441e+01
  -8.098278e+00  -1.140074e+02
   1.189997e+02  -7.946107e+01
   1.334184e+02  -3.124912e+01
   6.626157e+01   5.521398e+01
  -4.120665e+01   2.260850e+01
  -7.153027e+01  -8.262895e+00
  -2.473615e+01  -5.575698e+01
   4.212982e+01  -4.382382e+01
   7.339541e+01  -7.771278e+00
   2.495616e+01   4.923587e+01
   6.049486e+01   6.047175e+01
   7.641504e+01   1.087787e+01
   7.626433e+01  -4.593185e+00
   3.513205e+01   4.309888e+01
  -1.445170e+01   1.616780e+02
  -1.225820e+02   1.439778e+02
  -1.511012e+02   5.207798e+01
  -1.448456e+02  -7.374998e+01
   1.468648e+00  -1.187066e+02
   7.944191e+01  -8.044846e+01
   5.460427e+01  -1.977247e+01
  -3.652541e+01  -1.193823e+01
  -1.557779e+02  -1.643566e+01
  -8.333630e+01  -1.087203e+02
   7.405907e+01  -1.193434e+02
   1.816175e+02  -7.738387e+01
   1.419624e+02   2.345917e+01
   5.460568e+01   1.220003e+02
  -3.514379e+01   6.829107e+01
  -6.215463e+01   3.844220e+01
   5.277080e+01  -2.316790e+01
   7.966366e+01   3.428971e+01
   2.825256e+01   1.142998e+02
  -9.460063e+01   1.463807e+02
  -1.514588e+02   5.712486e+01
  -1.239118e+02  -1.198981e+02
   2.337149e+00  -1.898663e+02
   5.016970e+01  -1.410460e+02
   1.182291e+02  -3.285660e+01
   6.406920e+01   1.224607e+02
  -1.280890e+01   1.211545e+02
  -2.296789e+01   3.718682e+01
  -6.520084e+01  -6.845443e+00
  -3.358404e+01  -2.947212e+00
   6.860599e+00   1.676751e+01
  -2.777827e+01   4.785101e+00
  -6.901988e+01  -9.448981e+01
  -5.372500e+01  -1.022908e+02
   4.529795e+01  -6.915070e+01
   1.674452e+02   3.145943e+01
   1.358787e+02   8.681463e+01
   1.803970e+01   5.533931e+01
  -7.195369e+01   2.626201e+00
  -9.051413e+01  -2.365241e+01
   1.414770e+01  -2.813339e+01
   4.546449e+01  -2.876300e+01
   1.072101e+01  -2.048815e+01
  -3.164740e+01  -1.936622e+01
   2.296122e+01   3.200533e+00
   7.340190e+01   1.097521e+01
   9.641815e+01   1.881856e+01
   3.544888e+01   8.876762e+01
  -1.332852e+02   1.337617e+02
  -1.873589e+02   4.798819e+01
  -1.227884e+02  -5.969490e+01
  -2.152314e+01  -1.642984e+02
   7.069750e+01  -1.961832e+02
   8.292269e+01  -7.328180e+01
   1.106009e+02   1.322767e+01
   4.275484e+01   5.834682e+01
  -7.657199e+00  -6.562358e+00
   1.116031e+01   1.527545e+01
   2.958916e+01   4.362986e+01
   4.573183e+01   9.503604e+01
  -1.987705e+01   5.252200e+01
  -1.004836e+02   5.472285e+00
  -1.129416e+02  -8.953840e+01
  -3.428270e+00  -1.463451e+02
   9.292319e+01  -4.037126e+01
   1.108176e+02   6.323407e+01
   5.399075e+01   1.075562e+02
  -9.477648e+01   7.290458e+01
  -1.113929e+02  -1.391006e+01
  -4.856989e+01  -3.307695e+01
   1.886420e+01  -5.525261e+01
   2.926352e+01  -4.828434e+01
  -5.513654e+01  -5.762146e+00
  -7.151255e+01  -3.986824e+00
  -1.327131e+01  -1.496224e+01
   7.692598e+01  -7.043245e+01
   1.023013e+02  -5.561392e+01
   4.881642e+01   2.831805e+00
  -2.000935e+01   7.471579e+01
  -3.259969e+01   8.234990e+01
  -5.195362e+01   1.557833e+01
  -2.935390e+01  -7.313768e+01
   4.003127e+01  -3.543987e+01
   5.943305e+01   1.931247e+01
   2.668770e+01   7.256940e+01
  -1.028457e+01   2.790559e+01
   1.652389e+00   1.434469e+01
  -4.183306e+01  -3.334385e+01
  -3.486735e+01  -2.156262e+01
   3.631975e-01  -7.460957e+00
   3.972695e+01  -1.496659e+01
  -1.369103e+00  -5.205590e+01
   3.040381e+01  -1.389113e+01
   4.243675e+01  -2.392618e+01
   2.310230e+01   4.476339e+01
  -5.143861e+00   6.991960e+01
  -2.567514e+01   2.033479e+01
  -7.299985e+01  -5.377125e+01
   3.426192e+00  -6.561122e+01
   9.637602e+01  -5.283874e+01
   1.121156e+02   6.950277e+00
   3.681489e+01   2.505749e+01
  -3.977042e+01   3.254637e+01
  -7.005577e+01   3.740032e+01
   2.959171e+00  -3.442974e+00
   3.282470e+01   4.631181e+00
   5.139658e+01  -1.788596e+01
  -1.127393e+01   2.438455e+01
  -8.650350e+01   1.882125e+01
