
 $NMID
 id='ANONYMOUS ', fmtdat='(2E16.6)'
 volume=1.0
 tramp=1.0
 $END
  -3.513157e+03   2.404480e+02
  -2.458913e+03  -2.025805e+03
   3.768916e+02  -2.364581e+03
   1.604818e+03  -1.135793e+03
   9.288277e+02   1.278795e+02
  -1.641368e+02   3.067881e+02
  -4.777435e+02  -1.780870e+02
  -1.441311e+01  -6.659789e+02
   5.306177e+02  -6.062416e+02
   7.440898e+02  -9.144251e+00
   3.994811e+02   6.349247e+02
  -7.775530e+01   7.351033e+02
  -3.993841e+02   1.903143e+02
  -2.907521e+02  -5.151482e+02
   1.735475e+02  -5.433716e+02
   4.045408e+02  -7.293342e+01
   2.030083e+02   5.308520e+02
  -2.277845e+02   5.778472e+02
  -4.792328e+02   1.643935e+02
  -3.689037e+02  -2.091056e+02
  -9.293933e+01  -3.560516e+02
   1.201692e+02  -2.393339e+02
   1.126019e+02  -1.017698e+02
  -8.790627e+01  -4.038016e+01
  -2.439648e+02  -2.243156e+02
  -1.107237e+02  -3.149093e+02
   3.780964e+02  -2.194638e+02
   6.124045e+02   1.173022e+02
   3.062834e+02   3.669846e+02
  -2.902057e+02   2.876923e+02
  -5.474638e+02  -8.740629e+01
  -2.124852e+02  -3.895740e+02
   2.370067e+02  -3.460061e+02
   4.194707e+02  -1.280768e+02
   3.601208e+02   1.571032e+02
   8.150347e+01   3.323274e+02
  -4.311804e+01   1.997953e+02
  -3.624590e+01  -6.072398e+01
   1.124987e+02  -2.268338e+02
   2.647443e+02   9.602510e+01
   1.138475e+02   5.065454e+02
  -2.546043e+02   5.098171e+02
  -4.136640e+02   6.309756e+00
  -1.828312e+02  -3.525288e+02
   1.629133e+02  -1.924751e+02
   2.272566e+02   2.382583e+02
  -1.156345e+02   3.473996e+02
  -4.563021e+02   6.794132e+01
  -3.697479e+02  -4.384411e+02
  -1.435028e+02  -4.512524e+02
   2.994417e+02  -2.541756e+02
   4.662507e+02   5.041260e+01
   3.469130e+02   2.727507e+02
  -7.792951e+01   2.594299e+02
  -3.007630e+02   7.785251e+01
  -2.379861e+02  -6.131334e+01
   2.232955e+01  -3.633814e+01
   2.427256e+01   4.509573e+01
  -1.519337e+02   9.819086e+01
  -2.236156e+02  -6.599264e+01
  -1.070063e+02  -2.459171e+02
   1.938415e+02  -1.715164e+02
   2.972089e+02  -5.223215e+01
   2.045184e+02   1.112230e+02
  -3.170809e+01   2.916884e+02
  -2.374157e+02   3.236243e+02
  -3.286075e+02   1.622717e+02
  -2.480267e+02  -7.366527e+01
  -5.943491e+01  -2.811541e+02
   2.108689e+01  -3.305358e+02
   4.123395e+01  -1.804611e+02
   6.264073e+01  -5.481189e+01
   1.082317e+02  -1.008807e+02
   2.518123e+02  -3.286416e+01
   2.237161e+02   1.241733e+02
   9.835764e+01   2.469219e+02
  -1.139395e+02   1.695509e+02
  -1.714307e+02  -5.119425e+01
  -1.057918e+02  -2.204616e+02
   6.629709e+01  -2.409276e+02
   2.240209e+02  -5.983475e+01
   2.856024e+02   1.721624e+02
   1.488073e+02   3.239430e+02
  -5.561944e+01   2.280335e+02
  -1.931588e+02   1.517906e+02
  -1.507017e+02   5.030004e+01
  -1.690439e+02   5.923195e+01
  -2.931431e+02   3.969093e+01
  -3.590220e+02  -1.439721e+02
  -2.725780e+02  -2.986733e+02
   4.808296e+01  -3.808961e+02
   3.712396e+02  -3.753750e+02
   4.385551e+02  -1.443882e+02
   3.094198e+02   9.840532e+01
   3.481971e+01   2.533591e+02
  -1.219892e+02   2.151275e+02
  -6.020014e+01   4.776210e+01
   7.698967e+01  -5.539227e+01
   1.058090e+02   2.341038e+01
   2.384456e+01   1.290491e+02
  -9.776797e+01   9.999874e+01
  -9.361260e+01  -4.882364e+01
   3.384456e+01  -1.619515e+02
   1.631523e+02  -8.450226e-04
   1.483955e+02   2.305611e+02
  -4.528742e+01   3.014703e+02
  -1.812210e+02   1.994219e+02
  -3.214460e+02  -9.129041e+01
  -2.676641e+02  -2.329851e+02
  -7.821705e+01  -2.538688e+02
   8.121962e+01  -1.637232e+02
   1.492849e+02  -1.508307e+01
   5.633223e+01  -2.297052e+01
  -4.155284e+01  -5.688743e+01
  -7.000920e+00  -1.096950e+02
   1.275635e+02  -4.286091e+01
   1.173204e+02   3.674398e+01
   1.614122e+01   6.607091e+01
  -7.419783e+01   1.571716e+01
  -1.863096e+01  -9.299548e+01
   1.256370e+02  -7.757135e+01
   2.675512e+02   5.406261e+00
   2.316162e+02   1.575075e+02
   5.387461e+01   2.794981e+02
  -1.589470e+02   2.110588e+02
  -2.444245e+02   1.062971e+02
  -1.704974e+02  -2.938353e+01
  -5.758251e+00  -7.355748e+01
   6.769152e+01  -1.734633e+01
  -3.014361e+01   7.981326e+01
  -1.394382e+02   1.073286e+01
  -1.592620e+02  -7.975726e+01
  -3.491067e+01  -1.679838e+02
   1.124780e+02  -1.307174e+02
   1.318788e+02  -2.681520e+01
   4.410849e+01   3.990171e+01
  -3.539457e+01   1.019151e+01
  -3.109603e+01  -8.427912e+01
   7.619950e+01  -9.223712e+01
   2.052237e+02  -3.745104e+01
   1.321911e+02   1.680448e+02
   1.571850e+01   2.134005e+02
  -1.389125e+02   1.405136e+02
  -1.707012e+02   2.129252e+01
  -5.564258e+01  -9.141369e+01
   3.790776e+01  -8.832216e+01
   5.646682e+01  -3.920627e+01
  -4.887302e+00   6.395770e+00
  -1.518087e+01   2.678018e+01
  -6.448593e+00  -2.277541e+01
   1.065617e+02  -3.205975e+01
   7.947410e+01   7.404545e+01
  -4.194661e+00   1.394623e+02
  -1.582106e+02   1.329989e+02
  -2.394515e+02   2.214211e+01
  -1.899995e+02  -1.763040e+02
  -5.236295e+00  -2.241750e+02
   8.513584e+01  -1.281626e+02
   1.411238e+02  -4.270427e+01
   6.343751e+01   4.418844e+01
   2.434882e+01   3.359139e+01
   5.267837e+01  -2.888427e+01
   9.247202e+01  -3.592899e+00
   1.767589e+01   7.704835e+01
  -3.140544e+01   9.486894e+01
  -1.100116e+02   6.598972e+01
  -1.050748e+02  -4.572071e+01
   3.551043e-01  -1.268955e+02
   1.075077e+02  -7.450608e+01
   1.688457e+02   2.580568e+01
   7.618743e+01   2.169124e+02
  -7.787723e+01   2.098239e+02
  -2.320650e+02   4.615466e+01
  -2.559988e+02  -5.944521e+01
  -8.146169e+01  -2.067239e+02
   4.878121e+01  -1.502926e+02
   9.688022e+01  -8.418109e+01
   7.435936e+01  -8.061676e+01
   8.736057e+01  -1.016999e+02
   9.292890e+01  -5.806567e+01
   9.758600e+01   5.494926e+01
   8.452949e+01   1.432035e+02
   3.426298e+01   2.097261e+02
  -9.470593e+01   1.590140e+02
  -1.834199e+02   8.519613e+00
  -1.388504e+02  -1.031398e+02
   1.067888e+01  -1.725353e+02
   5.946113e+01  -1.046398e+02
   9.392010e+01   1.577678e+01
   8.642153e+00   7.574135e+01
  -9.062404e+00   5.920042e+01
   2.649899e+01  -3.873884e-02
   7.040922e+01   2.255848e+01
   3.155994e+01   6.274183e+01
  -5.762570e+01   2.277694e+01
  -1.528238e+02  -2.552533e+01
  -1.388021e+02  -5.628034e+01
  -4.085722e+00  -1.087572e+02
   1.281906e+02  -5.804495e+01
   1.284361e+02  -1.969971e+01
   5.709566e+01   7.404843e+01
  -3.333037e+01   4.364762e+01
  -9.918594e+01  -3.697755e+01
   1.458900e+01  -6.942305e+01
   5.239924e+01  -5.705274e+01
   4.530432e+01  -8.492726e+00
   6.764236e+01   5.686728e+01
   3.326632e+01  -3.945849e+00
   5.859686e+01   2.514658e+01
   4.691807e+01   3.916762e+00
   4.954472e+01   3.315370e+01
  -5.692233e+01   1.479680e+02
  -1.213952e+02   1.664277e+02
  -2.024394e+02   3.587477e+01
  -1.295235e+02  -1.172179e+02
   1.053090e+01  -1.657983e+02
   6.984355e+01  -7.958969e+01
   6.399314e+01   1.847255e+01
  -5.714135e+01   5.081631e-01
  -1.112355e+02  -3.316016e+01
  -5.877540e+01  -1.124827e+02
   9.034969e+01  -1.123765e+02
   1.673048e+02  -6.484286e+01
   1.600478e+02   4.034100e+01
   3.621372e+00   9.462636e+01
  -7.712821e+01   7.690524e+01
  -5.548986e+01   2.307973e+01
   3.676962e+01  -4.856984e+01
   6.714499e+01   3.818181e+01
   4.510090e+01   1.253077e+02
  -6.673541e+01   1.581704e+02
  -1.544028e+02   9.420780e+01
  -1.526235e+02  -7.643291e+01
   1.349010e+01  -1.940037e+02
   4.161014e+01  -1.491408e+02
   1.184165e+02   1.569756e+01
   4.863216e+01   1.464009e+02
  -1.035237e+00   1.092135e+02
  -7.740116e+01   4.584707e-02
  -4.507739e+01  -5.831979e+01
  -2.028116e+01   1.924844e+00
  -1.114379e+01  -4.350017e+00
  -1.424648e+01   6.071738e+00
  -4.413430e+01  -8.147061e+01
  -1.883640e+01  -7.355510e+01
   6.546034e+01  -6.036005e+01
   1.632590e+02   1.684827e+01
   1.229346e+02   4.153004e+01
   2.238443e+01   6.929152e+01
  -8.280775e+01   2.524925e+01
  -9.967970e+01   2.467956e+01
  -2.068064e+01  -2.402579e+01
   5.224020e+01  -3.172347e+01
   5.828846e+01  -3.134521e+00
  -3.400055e-01   8.391455e+00
  -2.060706e+01   1.371586e+01
   5.780220e+01   1.342410e+01
   7.885480e+01   2.717904e+01
   1.577922e+01   9.724820e+01
  -1.005563e+02   1.153145e+02
  -1.868226e+02   1.029730e+02
  -1.648578e+02  -6.042259e+01
  -4.974860e+01  -1.670123e+02
   1.014410e+02  -1.679832e+02
   8.935112e+01  -6.261970e+01
   7.295556e+01   1.807422e+01
   3.608241e+01   1.811287e+01
   3.547290e+00   1.262380e+01
   6.265456e+00   1.126013e+01
   1.749760e+01   5.181000e+01
   1.516641e+01   9.063912e+01
  -2.334814e+01   3.154908e+01
  -7.221808e+01  -3.363178e+01
  -3.079894e+01  -1.148739e+02
   7.496962e+00  -1.195406e+02
   8.117675e+01  -2.127617e+01
   1.087007e+02   6.908484e+01
   5.921717e+01   1.035377e+02
  -4.461259e+01   9.223546e+01
  -9.613791e+01   9.845642e+00
  -3.730288e+01  -6.813081e+01
   3.253811e+01  -2.704612e+01
   1.278543e+01  -1.871771e+01
  -5.570566e+01   6.102941e+00
  -4.900509e+01   5.197198e-01
   1.326922e+01  -4.507328e+01
   9.847506e+01  -5.287859e+01
   1.161083e+02  -4.008967e+01
   4.307680e+01   2.679302e+01
  -5.277357e+01   9.108107e+01
  -6.921136e+01   5.694745e+01
  -4.775820e+01   9.327333e+00
  -1.421210e+01  -6.206251e+01
   4.505646e+01  -2.895238e+01
   3.798386e+01  -4.175206e-01
   2.719688e+01   2.971995e+01
  -3.961046e+00   2.927816e+01
  -2.213333e+01  -8.952677e+00
  -5.505510e+01  -1.450262e+01
  -2.933225e+01  -1.397850e-01
   3.246294e+00   1.832647e+01
   1.462029e+01   2.919379e+00
  -9.932335e+00  -2.336510e+01
   6.531075e+00  -4.391396e+01
   3.321174e+01  -2.375671e+01
   5.506686e+00   3.911637e+01
   1.867284e+01   5.083690e+01
  -3.478876e+01   2.909027e+01
  -3.654527e+01  -3.444856e+01
   1.228799e+00  -6.078318e+01
   6.196844e+01   6.309942e+00
   8.302068e+01  -5.725141e+00
   2.461601e+01   3.623183e+01
  -4.937117e+01   9.259621e+00
  -6.660947e+01   2.346807e+01
  -3.312228e+01  -1.233376e+01
   4.247006e+01  -8.787850e+00
   4.713256e+01   9.211726e+00
  -3.501429e+01   3.882146e+01
  -7.765490e+01   4.323697e+01
