
 $NMID
 id='ANONYMOUS ', fmtdat='(2E16.6)'
 volume=1.0
 tramp=1.0
 $END
  -3.644314e+03   2.125701e+02
  -2.230450e+03  -2.014807e+03
   4.540314e+02  -2.458690e+03
   1.489528e+03  -9.886414e+02
   8.370934e+02   3.666269e+02
  -3.939300e+02   3.150775e+02
  -5.904132e+02  -2.970761e+02
   2.515787e+01  -8.350427e+02
   6.995231e+02  -6.165371e+02
   7.177955e+02   1.195788e+02
   3.827985e+02   6.941456e+02
  -1.309769e+02   8.094783e+02
  -5.079493e+02   1.379923e+02
  -3.260729e+02  -5.382574e+02
   1.631989e+02  -6.635157e+02
   4.791583e+02  -2.275089e+01
   2.372739e+02   5.264890e+02
  -2.418471e+02   5.864494e+02
  -5.216459e+02   7.792024e+01
  -3.550208e+02  -2.638308e+02
  -7.714006e+01  -3.994252e+02
   1.309305e+02  -1.774511e+02
   1.302293e+02  -8.775866e+00
  -1.663085e+02  -1.073803e+01
  -3.275123e+02  -1.641368e+02
  -1.127879e+02  -3.735916e+02
   4.053797e+02  -3.363086e+02
   7.088104e+02   1.138442e+02
   2.732939e+02   4.603947e+02
  -3.663716e+02   3.792055e+02
  -6.166820e+02  -7.540357e+01
  -2.314904e+02  -3.850260e+02
   2.136345e+02  -3.821638e+02
   4.782170e+02  -1.699069e+02
   3.496906e+02   1.659805e+02
   1.115458e+02   3.888269e+02
  -8.839761e+01   2.486910e+02
  -5.963341e+01  -1.941498e+02
   1.442944e+02  -3.685082e+02
   3.433480e+02   9.944050e+01
   2.135721e+02   6.609910e+02
  -3.455794e+02   6.133168e+02
  -5.064828e+02  -1.761120e+01
  -1.563802e+02  -5.050758e+02
   2.462881e+02  -2.636937e+02
   3.105476e+02   2.820350e+02
  -1.097949e+02   4.793720e+02
  -5.066799e+02   1.216468e+02
  -5.576454e+02  -3.620383e+02
  -1.868411e+02  -5.471834e+02
   3.351239e+02  -3.162594e+02
   5.550714e+02   5.581441e+01
   3.753624e+02   3.654457e+02
  -7.638058e+01   2.927948e+02
  -3.707282e+02   5.227873e+01
  -1.994500e+02  -1.618898e+02
   9.171505e+01  -5.202999e+01
   1.224449e+02   1.253859e+02
  -1.650882e+02   1.409846e+02
  -2.781312e+02  -5.054140e+01
  -1.385034e+02  -2.539501e+02
   1.831676e+02  -2.393710e+02
   3.177558e+02  -1.154534e+02
   2.051888e+02   9.328895e+01
  -2.202868e+01   2.691576e+02
  -2.504027e+02   3.327759e+02
  -3.657229e+02   1.570463e+02
  -2.428974e+02  -1.544196e+02
  -8.645844e+01  -3.509568e+02
   8.161851e+01  -2.941097e+02
   6.005084e+01  -1.362706e+02
  -1.124988e+01  -3.692161e+01
   3.162722e+01  -6.810899e+01
   2.004918e+02  -1.084701e+02
   2.578043e+02   9.684239e+01
   1.936506e+02   2.821205e+02
  -7.472262e+01   2.358530e+02
  -2.199334e+02   2.258381e+01
  -1.982325e+02  -2.357975e+02
  -1.717802e+01  -3.002860e+02
   2.261509e+02  -1.170197e+02
   3.274670e+02   1.568981e+02
   2.356225e+02   3.182692e+02
  -6.647516e+01   2.379124e+02
  -1.794985e+02   1.456061e+02
  -1.485645e+02   4.035770e+01
  -8.035808e+01   5.241926e+01
  -2.323898e+02   7.564664e+01
  -4.214328e+02  -7.487684e+01
  -3.099336e+02  -2.748317e+02
  -9.714718e+00  -4.295733e+02
   4.121454e+02  -4.318772e+02
   4.357558e+02  -2.028818e+02
   3.608156e+02   1.191641e+02
   2.780734e+01   3.012155e+02
  -1.174704e+02   2.503813e+02
  -5.035866e+01   3.052285e+01
   1.077230e+02  -9.158404e+01
   1.367951e+02   1.132229e+01
   2.908092e+01   1.429973e+02
  -1.614571e+02   1.018327e+02
  -1.434614e+02  -6.984734e+01
   1.840156e+01  -1.817601e+02
   1.812453e+02  -6.171550e+00
   1.858922e+02   2.366574e+02
  -5.282133e+01   3.674953e+02
  -2.069646e+02   2.213096e+02
  -3.036510e+02  -2.716471e+01
  -3.024190e+02  -2.138629e+02
  -1.061787e+02  -2.311956e+02
   1.162190e+02  -1.693057e+02
   1.165783e+02  -3.436828e+01
   6.201030e+01   1.231860e+01
  -5.125968e+01  -6.366770e+01
  -1.580172e+01  -1.224467e+02
   1.327564e+02  -8.434779e+01
   1.803420e+02   7.498431e+00
   6.949567e+01   4.878703e+01
  -9.604203e+01   2.102190e+01
  -3.852605e+01  -8.692285e+01
   1.285157e+02  -7.255332e+01
   2.857232e+02  -3.757986e+00
   2.463073e+02   9.116694e+01
   9.179757e+01   2.248953e+02
  -1.420845e+02   2.212738e+02
  -2.490650e+02   1.111508e+02
  -1.267159e+02  -1.611328e+01
   2.074329e+01  -7.634557e+01
   6.694099e+01   2.319259e+01
  -4.720923e+01   8.278253e+01
  -1.941053e+02   2.737660e+01
  -1.873139e+02  -1.167301e+02
  -5.963084e+01  -1.869955e+02
   7.836608e+01  -1.317185e+02
   1.230856e+02   3.463991e+00
   5.281696e+01   4.331046e+01
  -3.780377e+01  -1.286222e+01
  -2.894733e+01  -9.520622e+01
   6.792637e+01  -1.026943e+02
   1.643040e+02  -1.918151e+01
   1.910459e+02   1.278155e+02
   2.789878e+01   2.008705e+02
  -1.501055e+02   1.771515e+02
  -1.491693e+02  -2.507784e+00
  -9.063538e+01  -1.159575e+02
   7.794097e+01  -9.082448e+01
   6.979329e+01  -2.070835e+00
   2.437846e+01   1.118574e+01
  -3.043568e+01   9.689083e-02
  -1.756742e+01  -1.281615e+01
   6.602648e+01   3.090183e+00
   7.970987e+01   1.163128e+02
  -2.236215e+00   1.639711e+02
  -1.312675e+02   1.324949e+02
  -2.266492e+02  -2.761259e-01
  -1.910023e+02  -1.415794e+02
  -4.755163e+01  -2.282934e+02
   9.480701e+01  -1.795915e+02
   1.271194e+02  -2.841489e+01
   7.529934e+01   5.064859e+01
   3.180582e+01   6.455830e+00
   4.439516e+01  -9.529468e+00
   6.809786e+01  -1.743463e+01
   5.681597e+01   4.154424e+01
  -2.862688e+01   1.094044e+02
  -7.536577e+01   7.985552e+01
  -8.349634e+01  -4.197101e+01
   3.960172e+01  -8.039293e+01
   1.614759e+02  -1.001325e+02
   1.874195e+02   4.094463e+01
   8.925727e+01   1.964873e+02
  -1.244053e+02   2.106430e+02
  -2.628995e+02   1.192663e+02
  -2.391020e+02  -8.141095e+01
  -1.200113e+02  -1.400196e+02
   7.818301e+00  -1.422124e+02
   1.014625e+02  -1.001792e+02
   8.663914e+01  -5.836868e+01
   1.056535e+02  -7.904670e+01
   8.707906e+01  -6.414721e+01
   1.294810e+02   2.453705e+01
   1.100613e+02   1.463917e+02
   2.044081e+01   2.013620e+02
  -1.079503e+02   1.726430e+02
  -1.605354e+02   1.524466e+01
  -1.192825e+02  -1.250966e+02
  -4.354213e+01  -1.460373e+02
   6.955951e+01  -9.397955e+01
   5.058008e+01  -1.516312e+01
   1.084928e+01   2.897797e+01
  -2.295102e+01   4.503479e+01
   4.098024e+01   2.942552e+01
   7.123772e+01  -6.009544e-01
   2.030910e+01   3.952832e+01
  -5.506108e+01   1.938467e+01
  -1.730393e+02   1.030658e+01
  -1.409301e+02  -4.742663e+01
  -7.231806e+00  -7.594574e+01
   1.186717e+02  -7.474687e+01
   1.431010e+02  -3.637725e+01
   5.599207e+01   1.578523e+01
  -6.502663e+01   3.361060e+01
  -6.473704e+01  -2.507027e+01
  -1.411331e+01  -4.000787e+01
   6.566915e+01  -4.958465e+01
   6.361383e+01   1.605148e+01
   4.349878e+01   4.593036e+01
   4.831683e+01   3.663474e+01
   8.076060e+01   1.188132e+01
   7.359214e+01   3.418654e+01
   2.095070e+01   3.410377e+01
  -7.033621e+00   1.649095e+02
  -4.655316e+01   7.476040e+01
  -1.528593e+02   2.853868e+01
  -1.117537e+02  -6.236296e+01
  -2.562440e+00  -1.525974e+02
   5.468986e+01  -7.562698e+01
   3.023712e+01   2.853806e+00
  -3.660750e+01   2.039690e+01
  -1.491003e+02  -2.846919e+01
  -7.280775e+01  -1.189645e+02
   7.492251e+01  -1.307305e+02
   1.700447e+02  -6.737987e+01
   1.368362e+02   2.545560e+01
   2.682859e+01   6.873215e+01
  -5.222104e+01   5.266645e+01
  -7.853263e+01  -2.233531e+01
   3.194660e+01  -3.214954e+01
   6.591080e+01   3.173695e+01
   5.650586e+01   1.074788e+02
  -7.782788e+01   1.589768e+02
  -1.777143e+02   6.914226e+01
  -1.550121e+02  -9.992465e+01
  -2.094618e+01  -1.977240e+02
   1.198402e+02  -1.602268e+02
   1.132874e+02   1.561411e+01
   5.413696e+01   1.180090e+02
   1.900397e+01   8.261162e+01
  -3.432819e+01   1.977280e+01
  -5.514032e+01  -4.901418e+01
  -2.531413e+01   4.136606e-01
  -1.982684e+01   1.340593e+01
  -2.320723e+01  -3.695311e+00
  -7.490002e+01  -9.583768e+01
  -4.872085e+01  -1.221419e+02
   4.248765e+01  -1.455877e+01
   1.300933e+02   1.848927e+01
   1.012458e+02   6.803756e+01
   6.922760e+00   6.462929e+01
  -1.107752e+02   3.559146e+01
  -7.890142e+01  -1.227803e+01
  -3.539302e+01  -2.307887e+01
   5.371968e+01  -2.233784e+01
   3.603667e+01  -3.873374e+00
  -1.338113e+01   3.277752e+01
   7.364080e+00   6.451518e+00
   6.059090e+01  -2.522420e+01
   7.942622e+01   6.007580e+00
   2.002289e+01   9.673934e+01
  -1.271690e+02   1.378586e+02
  -1.838692e+02   5.909852e+01
  -1.689857e+02  -7.794461e+01
  -5.422021e+01  -1.467851e+02
   7.167915e+01  -1.546029e+02
   1.170432e+02  -6.201435e+01
   6.339121e+01   7.566385e+00
   3.578139e+01   6.084076e+01
  -1.055721e+01   5.216341e-01
   9.675708e+00   7.234401e+00
   3.878598e+01   3.768057e+01
   3.430165e+01   6.691844e+01
  -2.518571e+01   9.172904e+01
  -7.044526e+01   1.597051e+01
  -9.421674e+01  -1.013866e+02
  -4.783544e+00  -1.036194e+02
   8.454589e+01  -4.668407e+01
   9.730787e+01   7.891213e+01
   4.009647e+01   7.546648e+01
  -4.911701e+01   5.825289e+01
  -9.743254e+01   8.334684e-01
  -4.563657e+01  -4.132772e+01
   3.429068e+01  -5.770724e+01
   3.903094e+01  -4.290766e+01
   4.674316e+00   3.901246e+00
  -6.679028e+01   4.685812e+01
  -1.187681e+01  -1.204473e+01
   6.553940e+01  -8.986427e+01
   9.928576e+01  -6.434154e+01
   7.342559e+01   5.493138e+00
  -1.053976e+01   7.960619e+01
  -7.029499e+01   7.448398e+01
  -6.289881e+01   4.452754e+00
   2.133285e+01  -6.568402e+01
   1.806347e+01  -5.654439e+01
   2.212308e+01  -3.997449e+00
   2.355234e+01   3.693319e+01
  -2.621718e+01   4.192293e+01
  -2.789448e+01  -1.971329e+01
  -2.863420e+01  -2.514839e+01
  -2.421419e+01  -7.824567e+00
   1.235975e+01   6.032739e+00
   5.542793e+00   1.922776e+01
   4.148304e+00  -4.403557e+01
   3.018662e+00  -5.363069e+01
   5.734576e+00  -1.306055e+01
   5.036513e-01   5.971299e+01
   1.090523e+00   5.151797e+01
  -4.755191e+01   1.970765e+01
  -4.612550e+01  -6.570636e+01
  -2.090010e+01  -7.181714e+01
   5.659163e+01  -4.073427e+01
   7.311922e+01   3.140901e+01
   4.406879e+01   3.277605e+01
  -3.443472e+01   6.451777e+01
  -7.189774e+01   1.577125e+00
  -4.416078e+01  -6.986524e+00
   5.085863e+01  -1.208331e+00
   5.284449e+01   3.007239e+01
  -5.400125e+01   4.538997e+01
  -8.656604e+01  -1.117571e+00
