
 $NMID
 id='ANONYMOUS ', fmtdat='(2E16.6)'
 volume=1.0
 tramp=1.0
 $END
   4.258707e+03   1.979454e+02
   2.511085e+03   2.657457e+03
  -6.022589e+02   2.716541e+03
  -2.236677e+03   5.391958e+02
  -9.002903e+02  -7.661269e+02
   8.058417e+02  -5.135373e+02
   1.008893e+03   6.368034e+02
  -4.354494e+01   1.164056e+03
  -8.931923e+02   7.895369e+02
  -9.672603e+02  -7.526285e+01
  -3.592410e+02  -9.051321e+02
   2.461912e+02  -8.754279e+02
   6.765323e+02  -7.572503e+01
   3.494451e+02   7.798225e+02
  -2.889030e+02   7.884627e+02
  -5.971698e+02  -4.002994e+01
  -3.105891e+02  -7.259080e+02
   3.351948e+02  -5.982087e+02
   5.875080e+02  -9.663533e+01
   3.619303e+02   4.014478e+02
  -3.507615e+01   4.782136e+02
  -2.587577e+02   2.552966e+02
  -2.200196e+02  -3.438623e+00
   1.583280e+02  -2.037150e+02
   4.776042e+02   8.665068e+01
   2.742903e+02   4.607067e+02
  -4.575951e+02   4.456435e+02
  -8.927994e+02  -6.089902e+01
  -4.208696e+02  -5.759878e+02
   4.203888e+02  -5.427518e+02
   8.070327e+02   6.641821e+01
   3.699465e+02   5.262820e+02
  -3.157565e+02   5.418537e+02
  -6.284261e+02   2.271706e+02
  -4.052528e+02  -2.369300e+02
  -6.429440e+01  -4.832607e+02
   2.159514e+02  -2.491829e+02
   1.390500e+02   2.630603e+02
  -2.166727e+02   4.015190e+02
  -5.362701e+02  -9.599465e+00
  -3.276882e+02  -7.536736e+02
   3.407750e+02  -7.776048e+02
   6.722945e+02   8.585016e+01
   2.761735e+02   6.367646e+02
  -3.565321e+02   3.434995e+02
  -4.213879e+02  -3.757550e+02
   6.738491e+01  -5.861168e+02
   5.828196e+02  -1.333669e+02
   5.925160e+02   4.406136e+02
   1.788867e+02   6.148838e+02
  -4.071154e+02   3.730358e+02
  -6.615642e+02  -1.211655e+02
  -3.404401e+02  -3.817325e+02
   1.814634e+02  -3.768398e+02
   4.432166e+02  -1.343583e+01
   2.260631e+02   2.107527e+02
  -1.651748e+02   9.771697e+01
  -1.350008e+02  -1.615893e+02
   1.681458e+02  -1.805696e+02
   3.288215e+02   4.970130e+01
   1.549606e+02   2.684195e+02
  -1.715692e+02   2.946382e+02
  -3.131018e+02   1.084340e+02
  -2.101769e+02  -6.736901e+01
  -6.134931e+00  -2.505238e+02
   1.604012e+02  -3.970326e+02
   3.195592e+02  -2.706930e+02
   3.109432e+02   1.508911e+02
   9.099827e+01   4.517601e+02
  -1.099625e+02   3.963264e+02
  -1.660788e+02   5.282589e+01
  -3.309881e+01  -5.780176e+01
  -1.329801e+01   1.086020e+02
  -1.590877e+02   1.421461e+02
  -2.573202e+02  -1.744021e+01
  -1.404216e+02  -2.711041e+02
   8.494487e+01  -3.013860e+02
   2.433579e+02  -3.010001e+01
   2.155533e+02   2.415910e+02
  -2.492283e+01   3.129597e+02
  -2.952194e+02   1.459622e+02
  -3.681284e+02  -1.964504e+02
  -2.125299e+02  -3.607773e+02
   8.984064e+01  -3.177572e+02
   2.519243e+02  -1.457244e+02
   1.606404e+02  -2.714752e+01
   1.026230e+02  -3.571379e+01
   2.400154e+02  -6.217744e+01
   3.955721e+02   5.975490e+01
   3.209395e+02   2.741765e+02
  -2.501477e+01   4.534619e+02
  -3.224073e+02   4.074570e+02
  -4.831205e+02   1.687420e+02
  -3.407702e+02  -1.177493e+02
  -8.754474e+01  -3.244108e+02
   1.258981e+02  -2.593750e+02
   1.321014e+02   5.432282e+00
  -8.662982e+01   1.052466e+02
  -2.234247e+02   9.217217e+00
  -5.691344e+01  -2.066657e+02
   1.677071e+02  -2.126962e+02
   1.908124e+02   7.134002e+01
  -2.949849e+01   1.876203e+02
  -2.003352e+02   3.403704e+01
  -1.663926e+02  -2.445475e+02
  -2.075727e+01  -3.598103e+02
   2.158582e+02  -1.930644e+02
   3.347392e+02   5.074747e+01
   3.076224e+02   2.009034e+02
   1.661238e+02   2.549840e+02
  -1.039266e+02   1.617687e+02
  -1.826607e+02   1.574107e+01
  -5.179679e+01  -4.814914e+01
   9.387574e+01  -2.621399e+00
   5.209857e+01   1.327949e+02
  -1.273800e+02   1.263444e+02
  -1.902952e+02   3.304093e+01
  -8.327279e+01  -6.018745e+01
   9.693552e+01  -3.605718e+01
   9.039249e+01   6.231155e+01
  -9.190672e+01   1.080485e+02
  -2.891235e+02   1.977397e+01
  -2.821796e+02  -1.358204e+02
  -8.495768e+01  -2.634886e+02
   1.865812e+02  -3.269083e+02
   2.933985e+02  -1.035675e+02
   1.964403e+02   8.617935e+01
  -5.898078e+01   1.334922e+02
  -9.870926e+01   4.429919e+01
   2.709769e+01  -9.693465e+01
   1.630512e+02  -6.503009e+01
   1.986952e+02   1.175622e+02
   7.308014e+01   2.041619e+02
  -1.122020e+02   1.608536e+02
  -1.363748e+02   3.290611e+01
  -6.612987e+01  -5.571761e+01
   4.066641e+01  -8.444119e+00
   5.996661e+01   5.751627e+01
  -3.198878e+01   1.292640e+02
  -2.128842e+02   7.043072e+01
  -2.234066e+02  -1.293141e+02
  -1.122169e+01  -2.461656e+02
   1.284992e+02  -1.184012e+02
   2.024531e+02  -2.403935e+01
   7.096229e+01   1.085977e+02
  -6.506246e+01   1.021894e+02
  -7.880362e+01   3.673920e+01
  -2.175274e+01  -4.485504e+01
   1.031188e+01  -2.245857e+01
   1.537892e+00   2.887791e+00
  -7.205956e+01  -6.072557e+00
  -6.909985e+01  -5.998791e+01
  -2.352083e+01  -1.399676e+02
   1.076150e+02  -1.431085e+02
   2.367126e+02  -4.753973e+00
   1.713670e+02   1.453844e+02
   6.356575e+01   2.056951e+02
  -1.003759e+02   1.644337e+02
  -1.509622e+02   2.019734e+01
  -6.874796e+01  -6.559051e+01
  -5.104616e+01  -4.134420e+01
  -1.302339e+01   1.100217e+01
  -8.898591e+01   4.551734e+01
  -3.338271e+01  -6.659719e+01
   5.132186e+01  -6.253916e+01
   8.934453e+01  -8.391213e+01
   8.865061e+01   2.594310e+01
  -2.471672e+01   9.673813e+01
  -1.256998e+02   1.013238e+02
  -2.262775e+02  -5.467890e+01
  -1.040839e+02  -1.912280e+02
   6.543347e+01  -2.205099e+02
   2.840939e+02  -1.303436e+02
   2.549810e+02   5.752190e+01
   1.041093e+02   1.599518e+02
   1.738916e+01   1.464827e+02
  -7.188340e+01   9.233937e+01
  -9.441241e+01   8.011583e+01
  -6.242392e+01   6.274531e+01
  -1.053592e+02   5.946461e+01
  -1.213627e+02  -1.810673e+01
  -1.450026e+02  -1.466430e+02
  -4.785440e+01  -1.825485e+02
   9.447921e+01  -1.657008e+02
   1.780636e+02  -1.735366e+01
   1.451448e+02   1.274842e+02
   2.904092e+01   1.648061e+02
  -5.862013e+01   1.214616e+02
  -5.782115e+01   2.550361e+01
   1.535796e+01  -4.683093e+01
  -1.090088e-01  -2.139664e+01
  -4.057170e+01  -1.933008e+01
  -7.966861e+01  -1.092024e+01
  -2.294000e+01  -2.099714e+01
   7.726228e+01  -4.878377e+01
   1.118974e+02   3.810255e+00
   1.544524e+02   4.426297e+01
   5.648182e+00   8.925860e+01
  -1.034894e+02   8.550718e+01
  -1.208521e+02   2.228946e+01
  -3.254130e+01  -4.483791e+01
   3.698733e+01  -4.437253e+01
   8.398416e+01   3.732403e+00
   1.904811e+01   6.615649e+01
  -4.321690e+01   6.575252e+01
  -8.029410e+01   1.857278e+01
  -6.773002e+01  -4.252137e+01
  -5.587296e+01  -3.578870e+01
  -4.801362e+01   3.665836e-01
  -7.382732e+01   1.360301e+01
  -5.359079e+01  -5.504900e+01
   4.712351e+01  -1.441668e+02
   1.209221e+02  -1.408732e+02
   1.619611e+02  -5.037021e+01
   1.313950e+02   9.211283e+01
   1.739712e+01   1.261964e+02
  -7.801973e+01   8.994061e+01
  -8.101534e+01  -3.553485e+00
   3.343584e+01  -3.502021e+01
   1.406518e+02   3.276777e+01
   9.079440e+01   8.265052e+01
  -8.190872e+01   1.127350e+02
  -1.693927e+02   6.897693e+01
  -1.393029e+02  -5.021782e+01
  -2.078228e+01  -8.311845e+01
   6.205749e+01  -9.145018e+01
   5.749440e+01  -8.546853e+00
  -6.325300e+01   4.324678e+01
  -6.275762e+01   1.132713e+00
  -7.073475e+01  -1.100758e+02
   7.419562e+01  -1.784046e+02
   1.302908e+02  -7.788556e+01
   1.296466e+02   1.152415e+02
  -6.453205e+00   2.243110e+02
  -8.102871e+01   1.450832e+02
  -1.158190e+02  -7.842167e+00
  -6.508685e+01  -1.406846e+02
   1.635912e+01  -1.120830e+02
   5.419398e+01  -1.179025e+01
   2.976688e+01   4.753835e+01
  -1.480215e+00   5.493912e+00
  -1.984207e+01  -1.795653e+01
   3.900444e+01   4.959410e+00
   5.988111e+01   6.701580e+01
   6.716582e+01   9.054029e+01
  -1.426004e+01   6.963006e+01
  -1.503023e+02  -4.356678e+01
  -1.252038e+02  -7.604153e+01
  -3.449041e+01  -2.833738e+01
   8.389970e+01  -2.986986e+01
   8.585082e+01  -2.026422e+01
  -8.163821e+00   9.489427e+00
  -4.936629e+01   3.477231e+01
  -4.068621e+01   2.516402e+01
   1.996625e+01  -5.018591e+00
  -5.895218e+00  -1.809086e+01
  -7.860182e+01  -2.228733e+01
  -1.001328e+02  -2.980075e+01
  -1.253377e+01  -6.677389e+01
   9.316856e+01  -1.541396e+02
   1.925577e+02  -5.539557e+01
   1.466716e+02   6.803595e+01
  -1.101196e+01   1.674174e+02
  -7.847852e+01   1.729698e+02
  -8.622042e+01   6.001020e+01
  -1.067681e+02  -3.381148e+01
  -4.147311e+01  -3.564308e+01
   8.133409e+00  -1.578721e+01
  -1.832778e+01  -1.145050e+00
  -4.431345e+01  -5.204920e+01
  -2.183224e+01  -8.121544e+01
   1.325682e+01  -7.973678e+01
   1.158558e+02   3.107464e+01
   7.005761e+01   1.062994e+02
   9.703177e+00   1.223879e+02
  -5.953506e+01   1.154800e+01
  -1.086590e+02  -7.034421e+01
  -1.331702e+01  -6.647260e+01
   5.640945e+01  -7.201884e+01
   9.879417e+01   2.779988e+01
   5.641273e+01   3.982639e+01
  -4.545774e+01   3.921061e+01
  -3.734132e+01   2.053054e+01
   3.463373e+01   8.866559e+00
   8.753616e+01  -2.401660e+00
   1.187453e+01   2.279766e+01
  -9.122118e+01   6.993301e+01
  -1.034662e+02   4.959791e+01
  -5.291720e+01  -1.493567e+01
   3.078256e+01  -8.029789e+01
   4.936626e+01  -7.570777e+01
   4.681605e+01   3.245411e+00
  -3.728162e+01   6.609691e+01
  -5.153907e+01   4.086641e+01
  -4.733076e+01  -2.817214e+01
  -4.987220e+00  -4.979604e+01
   1.832744e+01  -1.184552e+01
   3.619577e+01   8.417330e+00
   3.544251e+01   3.763242e+01
   1.007388e+01   3.960457e+00
   7.027459e+00  -4.246552e+00
  -1.626708e+01   9.644432e+00
  -5.447166e+01   5.519088e+01
  -1.983718e+01   6.652391e+01
  -5.012123e+01   2.880764e+01
  -2.380555e+01  -3.914723e+01
   1.900528e+01  -5.015012e+01
   5.269434e+01  -4.555076e+01
   5.311749e+01   5.708630e+01
   3.510604e+00   5.829032e+01
  -4.752081e+01   5.070776e+01
  -7.968586e+01  -1.471532e+01
  -3.882551e+01  -3.084623e+01
   2.477531e+01  -4.480164e+01
   4.839252e+01  -1.798812e+01
   2.179707e+01  -2.191079e+00
   1.133538e-01  -1.459460e+01
  -4.160724e+01  -3.653655e+01
   4.829624e+01  -3.240578e+01
   5.338871e+01  -2.261461e+01
