
 $NMID
 id='ANONYMOUS ', fmtdat='(2E16.6)'
 volume=1.0
 tramp=1.0
 $END
   4.144022e+03  -3.751808e+02
   2.261729e+03   2.305368e+03
  -4.905837e+02   2.512389e+03
  -1.655492e+03   8.905333e+02
  -8.105841e+02  -4.852065e+02
   5.496762e+02  -3.680325e+02
   7.401218e+02   3.786802e+02
  -4.543511e+01   1.065632e+03
  -7.685429e+02   7.881745e+02
  -9.001070e+02  -6.914460e+01
  -3.795856e+02  -8.696713e+02
   2.486978e+02  -8.097377e+02
   6.186506e+02  -8.762539e+01
   3.723885e+02   6.711273e+02
  -2.357974e+02   6.969061e+02
  -5.873373e+02  -2.222701e+01
  -2.493822e+02  -6.862027e+02
   2.628636e+02  -6.250813e+02
   5.065610e+02  -1.581866e+02
   4.150231e+02   2.248661e+02
   9.535387e+01   3.960602e+02
  -2.046403e+02   2.814987e+02
  -1.728879e+02   4.271513e+01
   8.273195e+01  -4.780157e+01
   3.970985e+02   1.598361e+02
   1.388652e+02   4.065401e+02
  -4.350607e+02   3.390676e+02
  -7.942086e+02  -7.484361e+01
  -3.938619e+02  -4.993573e+02
   3.844091e+02  -4.370465e+02
   7.153894e+02  -1.712819e+01
   2.895478e+02   4.237972e+02
  -2.782906e+02   4.963671e+02
  -5.452102e+02   2.197300e+02
  -3.468621e+02  -2.237146e+02
  -4.562326e+01  -4.742794e+02
   1.461143e+02  -3.165097e+02
   7.475993e+01   1.888170e+02
  -1.579859e+02   3.663890e+02
  -4.301176e+02  -6.128953e+01
  -1.957814e+02  -6.391885e+02
   3.744146e+02  -6.667652e+02
   5.642370e+02   4.178234e+01
   1.883206e+02   5.272288e+02
  -2.782914e+02   2.947673e+02
  -3.545008e+02  -3.040247e+02
   1.089683e+02  -5.131512e+02
   5.535500e+02  -1.219733e+02
   6.333048e+02   3.333458e+02
   2.050894e+02   5.128261e+02
  -3.459361e+02   3.705059e+02
  -5.966411e+02  -5.481482e+01
  -3.899211e+02  -3.255030e+02
   1.425209e+02  -3.737248e+02
   4.148850e+02  -5.515084e+01
   2.271235e+02   1.030761e+02
  -9.655824e+01   6.474442e+01
  -1.361050e+02  -1.540898e+02
   1.621399e+02  -1.858258e+02
   3.150319e+02   6.728959e+01
   1.385692e+02   2.495524e+02
  -1.869904e+02   2.567066e+02
  -2.862770e+02   8.689319e+01
  -2.476652e+02  -5.897047e+01
   4.317960e+01  -2.304459e+02
   2.016961e+02  -3.368550e+02
   3.584027e+02  -1.839694e+02
   2.586907e+02   1.738084e+02
   8.567670e+01   4.034310e+02
  -9.163200e+01   3.575510e+02
  -9.752078e+01   5.803666e+01
  -2.458317e+01   9.813503e+00
  -9.148886e+01   8.472584e+01
  -1.867619e+02   1.196684e+02
  -2.228624e+02  -7.262942e+01
  -1.220858e+02  -2.573296e+02
   7.645942e+01  -2.534338e+02
   2.037346e+02   2.037801e+01
   1.693370e+02   2.320076e+02
  -3.222195e+01   2.844809e+02
  -2.546070e+02   1.016789e+02
  -3.448009e+02  -1.778883e+02
  -1.418233e+02  -3.248025e+02
   1.162760e+02  -3.020912e+02
   1.722207e+02  -1.249318e+02
   1.477819e+02  -1.471719e+01
   9.155865e+01  -6.053637e+01
   2.154757e+02  -2.452965e+01
   4.123449e+02   8.134463e+01
   2.771904e+02   2.803754e+02
   1.746531e+01   4.311782e+02
  -3.615700e+02   4.261981e+02
  -4.916750e+02   2.046929e+02
  -3.325796e+02  -9.453074e+01
  -4.422400e+01  -3.050500e+02
   9.542767e+01  -2.494700e+02
   6.645659e+01  -3.727631e+01
  -1.402247e+02   8.677316e+01
  -1.558939e+02  -1.723457e+01
  -3.546913e+01  -1.489521e+02
   1.761780e+02  -1.507098e+02
   1.466706e+02   7.192995e+01
   1.553537e+01   1.845762e+02
  -1.800379e+02   4.202387e+01
  -1.619998e+02  -2.653713e+02
   1.247023e+01  -3.472228e+02
   2.684766e+02  -1.908189e+02
   3.296731e+02   9.163813e+01
   2.546772e+02   2.346592e+02
   1.135824e+02   2.567371e+02
  -1.258584e+02   1.696498e+02
  -1.452876e+02   2.229058e+01
  -2.168636e+01  -4.419239e+01
   7.676120e+01   5.063668e+01
   5.164629e+00   1.151606e+02
  -1.185025e+02   8.068802e+01
  -1.387269e+02   5.877371e+00
  -4.928317e+01  -5.799340e+01
   8.340318e+01  -2.116317e+01
   3.029936e+01   6.625474e+01
  -1.361504e+02   6.349226e+01
  -2.419438e+02   2.044189e+00
  -2.248910e+02  -1.138664e+02
  -5.837551e+01  -2.407596e+02
   1.672487e+02  -2.942171e+02
   2.501418e+02  -1.512883e+02
   1.677245e+02   4.122655e+01
  -1.278830e+01   1.355628e+02
  -5.147311e+01   1.928432e+01
   2.215522e+01  -7.326919e+01
   1.811207e+02  -5.653209e+01
   1.874145e+02   1.145357e+02
   3.687518e+01   1.977351e+02
  -1.006404e+02   1.445713e+02
  -1.095072e+02   5.253013e+01
  -4.558477e+01  -3.779728e+01
   3.624679e+01  -1.235194e+01
   2.898092e+01   7.680646e+01
  -6.959436e+01   1.011572e+02
  -1.755859e+02   5.656154e+01
  -1.830594e+02  -9.126103e+01
  -1.073063e+01  -2.169299e+02
   1.265965e+02  -1.463814e+02
   1.781624e+02  -3.244447e+00
   7.624312e+01   9.082695e+01
  -6.973848e+01   1.147729e+02
  -8.313912e+01   6.433910e+01
  -5.047864e+01  -2.016558e+01
   1.739055e+01  -2.780105e+01
   1.307674e+00   3.118821e+00
  -8.130724e+01  -2.017370e+01
  -9.394065e+01  -8.010680e+01
  -1.342857e+01  -1.145415e+02
   1.218329e+02  -1.541801e+02
   2.225621e+02  -1.922779e+01
   1.926159e+02   1.580846e+02
   5.942810e+01   2.530628e+02
  -1.043405e+02   1.548576e+02
  -1.307978e+02   2.669207e+01
  -5.657116e+01  -2.870003e+01
  -5.854368e+01  -3.423124e+01
  -6.838931e+01  -2.081868e+01
  -6.986842e+01  -1.132134e+01
  -1.900654e+01  -6.309008e+01
   7.411935e+01  -8.277699e+01
   1.233411e+02  -8.192352e+01
   5.520670e+01   2.008104e+01
  -3.201818e+01   9.270136e+01
  -1.370870e+02   7.258099e+01
  -1.744123e+02  -7.347244e+01
  -8.279999e+01  -2.017465e+02
   1.116543e+02  -1.993649e+02
   2.452050e+02  -1.007175e+02
   2.554184e+02   3.928380e+01
   1.010854e+02   1.635736e+02
  -6.955884e+01   1.670792e+02
  -1.216094e+02   7.282341e+01
  -6.835321e+01   8.161053e+01
  -8.598585e+01   7.403389e+01
  -1.155059e+02   4.780480e+01
  -1.574777e+02  -2.134065e+01
  -1.207286e+02  -1.453922e+02
  -4.279951e+01  -2.054740e+02
   1.106291e+02  -1.780810e+02
   1.744507e+02  -1.910611e+01
   1.418889e+02   1.438772e+02
   1.613444e+01   1.346783e+02
  -4.317091e+01   8.780537e+01
  -5.545403e+01   1.171827e+01
  -8.435125e+00  -5.397120e+01
  -1.112326e+01  -3.606020e+01
  -4.281056e+01  -3.270041e+01
  -1.075503e+02  -2.267830e+01
  -7.158083e+01  -2.072717e+01
   5.377174e+01  -1.994725e+01
   1.768864e+02  -4.089663e+00
   1.320319e+02   5.930759e+01
  -1.688886e+00   8.915162e+01
  -1.173938e+02   7.232514e+01
  -1.374234e+02   3.548277e+00
  -4.990056e+01  -3.159857e+01
   7.332070e+01  -3.803505e+01
   9.853676e+01   1.654400e+01
  -1.399743e+01   7.597465e+01
  -3.974179e+01   6.085938e+01
  -7.713518e+01   1.094642e+01
  -1.842311e+01  -4.717825e+01
  -5.947908e+01  -4.051693e+01
  -6.974887e+01  -1.285347e+01
  -3.472849e+01   9.949977e+00
  -2.263724e+01  -5.691017e+01
   3.026514e+01  -9.629497e+01
   8.893750e+01  -1.052965e+02
   1.661379e+02  -3.854601e+01
   1.202591e+02   7.814552e+01
   1.108126e+01   1.476363e+02
  -7.335931e+01   9.084361e+01
  -9.129046e+01   8.494201e+00
   3.482926e+01  -1.310766e+01
   1.176172e+02   1.482504e+01
   4.519741e+01   1.107406e+02
  -6.072467e+01   1.197027e+02
  -1.728187e+02   4.261683e+01
  -1.361428e+02  -4.560561e+01
  -2.480442e+01  -6.745534e+01
   5.851880e+01  -5.970106e+01
   5.089499e+01  -5.784401e+00
  -4.394995e+01   2.800603e+00
  -6.347600e+01  -4.190996e+01
  -2.008171e+01  -9.093134e+01
   8.604753e+01  -1.206784e+02
   1.349084e+02  -2.674093e+01
   1.168423e+02   9.846783e+01
  -3.281017e+01   1.563272e+02
  -8.921106e+01   1.167102e+02
  -8.506490e+01  -3.567218e+00
  -7.819335e+01  -1.222109e+02
   2.706704e+01  -1.188990e+02
   5.353732e+01  -1.223258e+01
   4.109769e+01   2.399314e+01
   3.459588e+01   2.545548e+01
   1.021671e+01  -2.341782e+01
   3.628689e+01   2.952141e+01
   5.329792e+01   7.476075e+01
   1.477703e+01   7.311300e+01
  -3.877448e+01   4.216561e+01
  -1.070257e+02  -4.799822e+01
  -1.155905e+02  -4.612019e+01
   3.162305e+00  -4.016066e+01
   7.473319e+01  -1.577066e+01
   1.024070e+02  -1.805194e+01
  -1.044867e+01   2.637230e+01
  -3.237200e+01   2.001171e+01
  -1.198168e+00   1.016705e+01
   9.031311e+00  -8.570142e+00
  -2.128686e-01  -3.631595e+01
  -7.848041e+01   4.047481e+00
  -7.139911e+01  -3.009522e+01
  -1.283640e+01  -7.268032e+01
   8.749388e+01  -7.625247e+01
   1.997477e+02  -5.333604e+01
   1.346684e+02   7.020546e+01
   3.814290e+01   1.615591e+02
  -7.969200e+01   1.637783e+02
  -1.211021e+02   5.460427e+01
  -8.295854e+01  -1.418746e+01
  -1.526189e+01  -2.088640e+01
  -9.126712e+00  -8.657667e+00
  -3.197520e+01   6.618085e+00
  -2.576013e+01  -4.111221e+01
   1.600707e+01  -8.277959e+01
   3.410341e+01  -3.633664e+01
   1.214755e+02  -5.065831e-01
   7.977891e+01   1.118505e+02
  -7.552782e+00   9.648818e+01
  -6.176676e+01   2.678738e+01
  -8.164865e+01  -7.815137e+01
  -3.098379e+01  -8.599562e+01
   7.525248e+01  -3.763450e+01
   9.469650e+01   2.968892e+01
   3.293069e+01   3.513722e+01
  -3.582409e+01   2.444938e+01
  -3.921508e+01   4.177791e+01
   2.740238e+01   1.021377e+01
   6.850971e+01  -4.907570e+00
  -1.132134e+00   3.701866e+01
  -8.545150e+01   4.428791e+01
  -1.598888e+02   5.809109e+01
  -2.009427e+01  -2.191883e+01
   4.048155e+00  -8.269342e+01
   4.526609e+01  -6.280761e+01
   3.675853e+01  -8.396910e+00
  -1.212922e+01   7.109633e+01
  -2.272873e+01   7.729510e+01
  -4.346445e+01  -3.509310e+01
  -1.643250e+01  -4.879520e+01
   1.550542e+01  -2.709641e+01
   3.131262e+01   2.182805e+01
   4.478216e+01   1.556904e+01
   1.277950e+01   5.807671e+00
  -1.185593e+00   5.247698e+00
   6.871443e+00  -1.814729e+01
  -2.627885e+01   4.469824e+01
  -4.135834e+01   3.843084e+01
  -3.986730e+01   3.471636e+01
  -4.194529e+01  -6.655171e+00
  -2.356597e+01  -7.464855e+01
   3.182814e+01  -2.337187e+01
   7.283055e+01   4.762999e+01
   9.431604e+00   7.284801e+01
  -6.140483e+01   3.298834e+01
  -8.408420e+01   1.215239e+01
  -1.713818e+01  -1.600181e+01
   3.938077e+01  -2.633899e+01
   5.030404e+01  -2.509504e+01
   4.727337e+01  -1.308375e+01
  -2.836141e+01  -2.521059e+01
  -2.317488e+01  -1.775215e+00
   1.114292e+01  -2.518350e+01
   7.166458e+01   9.764774e-01
