
 $NMID
 id='ANONYMOUS ', fmtdat='(2E16.6)'
 volume=1.0
 tramp=1.0
 $END
  -3.572237e+03  -1.530315e+02
  -1.939439e+03  -1.956137e+03
   2.416290e+02  -2.201559e+03
   1.548345e+03  -9.662620e+02
   8.807460e+02   5.763805e+01
  -1.515801e+02   3.280264e+02
  -4.403333e+02  -2.469051e+02
  -4.777856e+01  -6.196484e+02
   5.290155e+02  -6.671614e+02
   6.613568e+02  -1.046998e+02
   4.434004e+02   5.884961e+02
  -2.169386e+01   7.049479e+02
  -3.155646e+02   1.312611e+02
  -2.841858e+02  -4.581834e+02
   1.250123e+02  -6.122900e+02
   4.281192e+02  -6.400890e+01
   2.566300e+02   5.189683e+02
  -1.479740e+02   6.095382e+02
  -5.007858e+02   2.361949e+02
  -4.306229e+02  -2.132779e+02
  -1.418509e+02  -3.939950e+02
   1.389335e+02  -2.412487e+02
   1.687684e+02  -1.127612e+02
  -1.319747e+02   4.110988e+00
  -2.928323e+02  -1.591724e+02
  -1.119573e+02  -3.260934e+02
   4.249564e+02  -2.226867e+02
   6.504769e+02   1.344445e+02
   2.919785e+02   4.468354e+02
  -3.286033e+02   3.541672e+02
  -6.219030e+02  -7.646664e+01
  -2.474008e+02  -4.097567e+02
   2.378170e+02  -4.259678e+02
   4.799072e+02  -1.749577e+02
   3.963428e+02   1.476285e+02
   1.547193e+02   3.950825e+02
  -6.966145e+01   2.206220e+02
  -5.117727e+01  -1.195497e+02
   1.915078e+02  -2.554147e+02
   2.599173e+02   1.121828e+02
   6.657941e+01   5.469361e+02
  -2.785393e+02   5.363185e+02
  -4.026973e+02  -4.685970e+01
  -1.730291e+02  -3.863020e+02
   1.771080e+02  -2.001844e+02
   2.547218e+02   3.178849e+02
  -9.057963e+01   4.651163e+02
  -4.312346e+02   9.143378e+01
  -4.853841e+02  -3.594884e+02
  -1.743266e+02  -5.049554e+02
   3.021559e+02  -3.257036e+02
   5.500170e+02   2.413319e+01
   3.467344e+02   3.054499e+02
  -7.258557e+01   2.989004e+02
  -3.034183e+02   8.102713e+01
  -1.701536e+02  -6.985803e+01
   3.573265e+01  -1.603188e+01
   4.367836e+01   4.233684e+01
  -1.324114e+02   6.657009e+01
  -2.263708e+02  -4.095202e+01
  -1.324368e+02  -1.971705e+02
   1.557126e+02  -2.250960e+02
   3.168892e+02  -9.563020e+01
   2.444333e+02   5.394107e+01
   1.789508e+00   3.045856e+02
  -2.265775e+02   3.632855e+02
  -3.144204e+02   1.704940e+02
  -2.475340e+02  -1.747867e+02
  -9.327258e+01  -3.884360e+02
   4.534569e+01  -3.397360e+02
   6.038448e+01  -1.767766e+02
   3.860730e+01  -6.368998e+01
   1.279497e+02  -7.432796e+01
   2.381121e+02  -4.119457e+01
   2.560222e+02   1.138468e+02
   8.514847e+01   2.523366e+02
  -8.159643e+01   1.998599e+02
  -1.784052e+02  -2.855253e+01
  -1.716846e+02  -2.202225e+02
   2.194674e+01  -2.727411e+02
   2.904589e+02  -1.080905e+02
   3.574044e+02   2.199333e+02
   1.875267e+02   3.372914e+02
  -8.125144e+01   2.838926e+02
  -1.676442e+02   1.558762e+02
  -1.673341e+02   5.854349e+01
  -1.530635e+02   6.956757e+01
  -2.817951e+02   6.843541e+01
  -4.146773e+02  -8.806060e+01
  -3.046117e+02  -2.717680e+02
   1.337304e+01  -4.481636e+02
   3.366380e+02  -4.226570e+02
   5.218130e+02  -1.220458e+02
   2.875610e+02   1.110778e+02
   5.456920e+01   2.592513e+02
  -9.492638e+01   2.481510e+02
  -5.238648e+01   9.008850e+00
   1.093769e+02  -5.396217e+01
   1.385160e+02   5.168921e+01
   1.225239e+01   1.359698e+02
  -1.232123e+02   1.081785e+02
  -1.678133e+02  -6.146627e+01
   2.059280e+01  -1.457076e+02
   1.549784e+02  -2.859416e+01
   1.956566e+02   2.595359e+02
  -5.736801e+00   3.250031e+02
  -2.211519e+02   1.574521e+02
  -3.190882e+02  -8.182694e+01
  -2.792065e+02  -2.266983e+02
  -6.744066e+01  -2.743116e+02
   1.432071e+02  -1.617771e+02
   1.668651e+02   1.303198e+00
   4.341901e+01   3.575815e+01
  -5.091933e+01  -5.795866e+01
  -1.439325e+01  -1.072877e+02
   1.342145e+02  -8.512212e+01
   1.336140e+02   2.789011e+01
   1.617791e+01   7.579152e+01
  -9.599132e+01  -7.244663e-01
  -4.043353e+01  -9.929045e+01
   1.665093e+02  -1.063993e+02
   3.084889e+02   1.479637e+01
   2.822225e+02   1.712196e+02
   3.263388e+01   2.425667e+02
  -2.055704e+02   2.474016e+02
  -2.694968e+02   1.226319e+02
  -1.421207e+02  -5.919995e+01
   1.669872e+01  -6.816360e+01
   5.170269e+01   4.274952e+01
  -4.829784e+01   1.026154e+02
  -1.876005e+02   2.254264e+01
  -1.998785e+02  -1.130925e+02
  -6.015347e+01  -2.065508e+02
   1.127792e+02  -1.674731e+02
   1.147116e+02  -1.053874e+01
   3.580605e+01   4.629311e+01
  -4.986950e+01   2.218265e+00
  -7.135678e+00  -7.442361e+01
   7.282948e+01  -1.576719e+02
   1.901760e+02  -5.125652e+00
   1.372962e+02   1.560932e+02
  -2.178460e+01   2.081246e+02
  -1.500260e+02   1.586013e+02
  -1.640022e+02  -2.881719e+01
  -7.023764e+01  -1.007408e+02
   6.828898e+01  -9.032784e+01
   7.436494e+01  -2.536276e+01
   1.329538e+01   1.508686e+01
  -2.094744e+01  -2.592859e+01
  -2.592894e+01  -3.261995e+01
   7.591069e+01  -2.889784e+01
   1.097954e+02   8.308375e+01
   1.149208e+01   1.395012e+02
  -1.465248e+02   1.740752e+02
  -2.648497e+02   5.397605e+00
  -1.630426e+02  -1.432230e+02
  -1.477480e+01  -2.104120e+02
   1.034938e+02  -1.649689e+02
   1.224445e+02  -2.145629e+01
   8.136392e+01   4.237092e+01
   3.452813e+01   2.963639e+01
   5.434845e+01  -1.982334e+00
   8.144404e+01  -3.302942e+01
   5.900501e+01   5.376131e+01
  -7.022423e+00   1.028655e+02
  -1.067354e+02   8.568973e+01
  -1.017534e+02  -1.178871e+01
  -9.667473e+00  -1.287441e+02
   1.696680e+02  -1.008125e+02
   1.972744e+02   8.257439e+01
   9.353860e+01   2.226571e+02
  -1.142304e+02   1.892757e+02
  -2.571049e+02   9.785723e+01
  -2.735357e+02  -7.282588e+01
  -8.099395e+01  -1.674102e+02
   3.489966e+01  -1.325861e+02
   9.595779e+01  -6.414904e+01
   6.249232e+01  -7.812284e+01
   8.874515e+01  -1.106016e+02
   9.680056e+01  -5.511567e+01
   1.139847e+02   1.903350e+01
   1.090386e+02   1.665263e+02
   1.334903e+01   2.353906e+02
  -1.312325e+02   1.513293e+02
  -1.555198e+02  -1.288941e+01
  -1.510494e+02  -1.383857e+02
  -1.272257e+01  -1.617768e+02
   8.547237e+01  -8.126503e+01
   9.802370e+01   3.420246e+00
  -7.252243e+00   8.558191e+01
  -2.128247e+01   4.231416e+01
   3.424886e+01   5.951521e+00
   8.091955e+01  -1.138406e+01
   3.733476e+01   5.060262e+01
  -6.701058e+01   5.159857e+01
  -1.856250e+02  -1.636034e+01
  -1.236239e+02  -5.382726e+01
   8.096362e+00  -9.816667e+01
   1.150700e+02  -7.414252e+01
   1.681902e+02  -2.649377e+01
   5.281196e+01   4.963657e+01
  -3.966815e+01   4.659263e+01
  -5.774917e+01  -7.044629e+00
   1.999604e+01  -7.063784e+01
   3.977329e+01  -3.373515e+01
   3.892355e+01  -1.307320e+01
   6.709219e+01   1.966993e+01
   8.189615e+01   2.874671e+01
   5.553962e+01  -1.835653e+01
   7.272012e+01  -1.719615e+01
   1.257501e+01   6.950335e+01
  -5.164886e+01   1.670774e+02
  -1.326261e+02   1.723870e+02
  -1.878377e+02   1.221482e+01
  -1.092073e+02  -8.661517e+01
   1.186853e+01  -1.299726e+02
   9.991397e+01  -7.251787e+01
   6.056452e+01   2.495033e+01
  -5.337772e+01   5.670031e+01
  -1.370276e+02  -2.741144e+01
  -9.599880e+01  -9.444021e+01
   6.922038e+01  -9.782785e+01
   1.660441e+02  -1.033544e+02
   1.552297e+02   3.839383e+01
   3.685808e+01   5.556426e+01
  -7.905840e+01   8.141748e+01
  -4.779626e+01  -9.022716e+00
   5.458529e+01  -3.081883e+01
   1.053956e+02   3.320331e+01
   4.448290e+01   1.182904e+02
  -6.660533e+01   1.909976e+02
  -1.526284e+02   6.274927e+01
  -1.102818e+02  -9.567298e+01
  -2.014561e+01  -2.319169e+02
   5.903174e+01  -1.551283e+02
   1.087841e+02   1.529715e+01
   5.765843e+01   1.310000e+02
  -3.165624e+00   1.293959e+02
  -4.960431e+01   3.168889e+01
  -4.466925e+01  -1.293724e+01
  -2.554469e+01  -1.475971e+01
  -1.593571e+01   2.395646e+01
  -2.551314e+01  -1.889155e+01
  -7.728445e+01  -1.024287e+02
  -2.508217e+01  -1.062373e+02
   6.696922e+01  -8.907495e+01
   1.303594e+02   4.083044e+01
   1.199368e+02   7.174752e+01
   3.348008e+01   5.902050e+01
  -1.140863e+02   2.086874e+00
  -8.031703e+01  -4.146767e+00
   2.001828e+00  -1.541296e+01
   7.469117e+01   1.810141e+01
   3.260294e+01  -2.066622e+01
   4.024040e-01  -3.949887e+00
   2.365543e+01   4.243021e+00
   6.209245e+01  -3.966592e+00
   1.047541e+02   2.580805e+01
   2.545665e+01   7.454902e+01
  -1.053660e+02   1.458520e+02
  -1.835426e+02   5.585505e+01
  -1.444584e+02  -6.882707e+01
  -9.761653e+00  -1.698798e+02
   1.041456e+02  -1.429085e+02
   1.334805e+02  -3.113403e+01
   5.743034e+01   2.733970e+01
   2.375993e+01   6.650866e+01
  -1.771044e+01  -1.495319e+01
  -2.352294e+00  -2.464244e+01
   2.252934e+01   5.831847e+01
   1.479063e+01   8.026793e+01
  -2.289280e+01   1.080626e+02
  -9.519242e+01  -1.023882e+01
  -7.843021e+01  -6.655957e+01
   1.075347e+00  -1.151820e+02
   8.937482e+01  -3.254080e+01
   1.207169e+02   6.410709e+01
   1.143522e+01   7.998189e+01
  -9.596048e+01   3.524705e+01
  -9.296001e+01   8.007452e+00
  -2.857198e+01  -7.206750e+01
   3.881330e+01  -6.905123e+01
   4.383006e+01  -2.222473e+01
  -2.965288e+01   2.586948e+01
  -5.040455e+01   1.810204e+01
  -9.598512e+00  -7.777103e+00
   8.116234e+01  -6.887097e+01
   9.605370e+01  -4.171000e+01
   6.113084e+01   2.970105e+01
  -1.255646e+01   7.478678e+01
  -5.303448e+01   6.638876e+01
  -2.344087e+01   1.794543e+01
  -1.190629e+01  -3.907983e+01
   2.096059e+01  -4.327102e+01
   2.849745e+01   2.473129e+01
   3.154620e+01   3.187930e+01
   3.461451e-01   3.038536e+01
  -5.573827e+01  -1.311560e+01
  -4.799926e+01  -4.899971e+01
  -4.703843e+01   1.800783e+01
  -3.603327e+00   4.192659e+01
  -7.380268e+00  -1.162759e+01
  -2.244760e+01  -4.919338e+01
   2.353754e+01  -5.608622e+01
   1.865106e+01  -2.072173e+01
   4.162665e+01   6.042236e+01
   1.561641e+01   7.301885e+01
  -4.592665e+01   4.084138e+01
  -7.062635e+01  -1.730325e+01
  -8.524147e+00  -6.550308e+01
   6.508415e+01  -2.570158e+01
   1.191193e+02   7.419068e+00
   2.159907e+01   3.464051e+01
  -3.921491e+01   4.898304e+01
  -3.467598e+01   2.687715e+01
  -1.063420e+01   1.459482e+01
   2.800020e+01  -1.825709e+01
   4.463966e+01  -2.338997e-01
  -2.274958e+01   1.419214e+01
  -9.320450e+01   3.375449e+01
