
 $NMID
 id='ANONYMOUS ', fmtdat='(2E16.6)'
 volume=1.0
 tramp=1.0
 $END
   3.851050e+03   4.304255e+01
   1.957545e+03   2.526154e+03
  -7.580786e+02   2.345396e+03
  -1.861676e+03   7.689585e+02
  -7.322284e+02  -4.630766e+02
   4.868658e+02  -4.661160e+02
   7.715112e+02   4.015446e+02
  -2.918529e+01   9.704865e+02
  -7.619175e+02   6.553804e+02
  -8.348807e+02  -1.212764e+02
  -3.412960e+02  -8.268509e+02
   2.307530e+02  -7.981295e+02
   6.098049e+02  -1.217631e+02
   2.958355e+02   6.840955e+02
  -2.773815e+02   6.947751e+02
  -5.495307e+02  -3.207660e+01
  -2.298678e+02  -6.006028e+02
   3.186918e+02  -6.368084e+02
   5.723895e+02  -1.150586e+02
   3.731029e+02   3.690669e+02
  -5.350320e+00   3.850883e+02
  -2.110617e+02   2.599408e+02
  -2.152198e+02   7.782406e+00
   1.289564e+02  -3.836684e+01
   3.974048e+02   1.277759e+02
   1.525334e+02   4.202546e+02
  -4.454782e+02   3.202810e+02
  -8.168554e+02  -1.547310e+02
  -3.610903e+02  -5.428181e+02
   3.878931e+02  -4.164908e+02
   6.630901e+02   6.117331e+01
   2.686174e+02   4.426115e+02
  -2.618717e+02   4.900557e+02
  -5.108383e+02   2.043578e+02
  -3.768794e+02  -2.392239e+02
  -6.701013e+01  -3.777987e+02
   1.948033e+02  -2.826789e+02
   1.276278e+02   2.342065e+02
  -1.352583e+02   3.666939e+02
  -4.522791e+02  -6.068522e+01
  -1.976723e+02  -6.221381e+02
   3.674858e+02  -6.113667e+02
   5.255145e+02   3.389536e+01
   1.659299e+02   5.075324e+02
  -2.683437e+02   2.969873e+02
  -3.296365e+02  -3.561393e+02
   1.300750e+02  -4.914043e+02
   4.683459e+02  -1.093170e+02
   5.797099e+02   3.317185e+02
   2.056890e+02   5.328427e+02
  -3.238920e+02   3.280329e+02
  -6.076480e+02  -7.282212e+01
  -3.167660e+02  -3.490144e+02
   1.354211e+02  -3.404847e+02
   4.172756e+02  -1.736704e+01
   2.254227e+02   1.855450e+02
  -9.818019e+01   1.119982e+02
  -1.237917e+02  -1.447326e+02
   1.604313e+02  -1.908096e+02
   2.965427e+02   2.706787e+01
   1.451731e+02   2.438428e+02
  -1.844938e+02   2.363974e+02
  -2.974337e+02   8.557952e+01
  -2.187650e+02  -8.178125e+01
   3.076917e+01  -2.161277e+02
   2.622176e+02  -2.897952e+02
   3.717960e+02  -1.587854e+02
   2.587158e+02   1.493378e+02
   7.153526e+01   3.993181e+02
  -8.493124e+01   3.503032e+02
  -8.109236e+01   1.125150e+02
   1.442869e+01   3.222612e+00
  -2.514958e+01   9.055088e+01
  -2.120589e+02   1.085632e+02
  -2.712548e+02  -4.874643e+01
  -1.684764e+02  -2.827633e+02
   7.291128e+01  -2.313478e+02
   2.265120e+02   1.834095e+01
   1.537072e+02   2.152021e+02
  -2.940129e+01   2.619072e+02
  -2.499776e+02   1.011760e+02
  -3.306989e+02  -1.800496e+02
  -1.706414e+02  -3.458692e+02
   9.059341e+01  -2.948838e+02
   2.175057e+02  -1.706833e+02
   1.571890e+02  -3.009324e+01
   7.381074e+01  -5.915948e+00
   2.186540e+02  -2.822900e+01
   3.802277e+02   1.366940e+02
   2.931130e+02   3.278885e+02
   1.046392e+01   3.638132e+02
  -3.419517e+02   3.871477e+02
  -4.626587e+02   1.575262e+02
  -2.962659e+02  -1.273832e+02
  -4.091047e+01  -2.883074e+02
   1.228088e+02  -1.900324e+02
   9.714155e+01  -5.051003e+01
  -1.284302e+02   9.670925e+01
  -1.764804e+02   4.485632e+00
  -3.739781e+01  -1.810634e+02
   1.723823e+02  -1.544451e+02
   1.695638e+02   5.818787e+01
  -2.323355e+01   1.889623e+02
  -1.777341e+02   4.023049e+01
  -1.525230e+02  -2.466065e+02
   4.916673e+01  -3.408405e+02
   2.222538e+02  -1.951997e+02
   3.070442e+02   6.332724e+01
   2.706151e+02   2.423688e+02
   7.363603e+01   2.556528e+02
  -1.176432e+02   1.489799e+02
  -1.301495e+02   1.078537e+01
  -7.079252e+01  -4.715301e+00
   5.476691e+01   6.982901e+01
   2.147782e+00   1.126245e+02
  -1.379245e+02   9.110938e+01
  -1.710456e+02  -4.048462e+01
  -6.214327e+01  -5.316224e+01
   7.170226e+01  -2.470373e+01
   7.270627e+00   7.260191e+01
  -1.060322e+02   5.105964e+01
  -2.413376e+02  -3.765026e+01
  -2.250981e+02  -1.437971e+02
  -5.693851e+01  -2.117909e+02
   1.604887e+02  -2.492749e+02
   2.571392e+02  -1.111498e+02
   1.290158e+02   1.056253e+01
  -2.142426e+01   9.894511e+01
  -6.263859e+01  -1.109330e+01
   5.234566e+01  -9.125599e+01
   1.756837e+02  -6.068862e+01
   1.838015e+02   8.604630e+01
   4.514041e+01   2.163604e+02
  -1.082279e+02   1.313705e+02
  -1.382053e+02   1.051058e+01
  -5.953664e+01  -4.918246e+01
   2.620190e+01  -1.354411e+00
   1.942431e+01   8.889609e+01
  -8.165658e+01   9.201014e+01
  -1.907079e+02   3.453225e+01
  -1.585586e+02  -1.129756e+02
  -4.060827e+01  -2.138160e+02
   1.397561e+02  -1.631715e+02
   1.887614e+02  -7.999826e+00
   6.456980e+01   8.898354e+01
  -5.426939e+01   1.135589e+02
  -8.957093e+01   2.784852e+01
  -3.625545e+01  -8.782333e+00
   1.607589e-01  -1.496527e+01
  -1.494000e+01   6.783400e+00
  -7.950270e+01  -3.048090e+01
  -8.261668e+01  -9.392679e+01
   3.415692e+00  -1.550873e+02
   1.430919e+02  -1.146851e+02
   2.447878e+02   5.935320e+00
   1.598358e+02   1.554439e+02
   3.259010e+01   2.187927e+02
  -9.507112e+01   1.720822e+02
  -1.060192e+02   9.235977e+00
  -5.197669e+01  -5.004962e+01
  -2.508116e+01  -6.592224e-01
  -6.498819e+01   6.246034e+00
  -4.972859e+01  -3.541742e+01
  -4.512878e+01  -3.616490e+01
   6.010254e+01  -1.057516e+02
   9.347800e+01  -2.644067e+01
   7.744680e+01   2.647432e+01
  -3.868907e+01   8.463297e+01
  -1.462506e+02   1.003311e+02
  -1.697591e+02  -6.719020e+01
  -7.134676e+01  -1.821528e+02
   1.062793e+02  -2.149554e+02
   2.621320e+02  -8.990129e+01
   2.541322e+02   8.642066e+01
   1.031103e+02   1.543209e+02
  -2.224721e+01   1.413865e+02
  -9.115147e+01   6.659123e+01
  -9.394413e+01   3.103443e+01
  -8.521069e+01   6.550561e+01
  -8.326824e+01   4.380468e+01
  -9.958248e+01  -6.111933e+01
  -1.183588e+02  -1.488270e+02
  -1.907861e+01  -2.057504e+02
   1.091009e+02  -1.533016e+02
   1.775706e+02  -1.885148e+01
   1.486444e+02   1.254450e+02
   2.353312e+01   1.530479e+02
  -4.726252e+01   7.351164e+01
  -3.107452e+01  -6.937706e+00
   1.497705e+01  -3.670328e+01
   2.478359e+01  -2.808776e+01
  -5.046347e+01  -1.375426e+01
  -6.697655e+01  -3.883658e+01
  -3.746119e+00  -6.138952e+01
   6.508736e+01  -5.451252e+00
   1.252762e+02   1.349812e+01
   1.221105e+02   5.844901e+01
   2.390414e+01   9.823120e+01
  -1.052835e+02   6.862713e+01
  -1.306387e+02  -2.018974e+01
  -2.790256e+01  -6.075965e+01
   5.099495e+01  -2.672268e+01
   7.507141e+01   7.337065e+00
   2.023580e+01   6.194679e+01
  -4.729822e+01   6.399776e+01
  -6.323770e+01   8.355983e+00
  -3.622660e+01  -4.708536e+01
  -1.673031e+01  -3.265685e+01
  -5.856671e+01   9.119285e+00
  -5.199085e+01   7.250228e+00
  -4.982670e+01  -5.201804e+01
   5.311333e+00  -1.040813e+02
   9.138443e+01  -1.204520e+02
   1.633691e+02  -2.218607e+01
   9.167117e+01   7.668085e+01
  -2.380765e-01   1.073997e+02
  -8.691975e+01   7.027149e+01
  -5.552993e+01  -8.990420e+00
   7.017366e+01  -1.723956e+01
   1.365295e+02   4.521713e+01
   5.422079e+01   8.591314e+01
  -7.772365e+01   1.098655e+02
  -1.666826e+02   5.420418e+01
  -1.427039e+02  -6.008273e+01
  -2.393563e+01  -7.739095e+01
   7.744901e+01  -4.189101e+01
   4.629987e+01   2.895668e+01
  -3.747984e+01   1.153084e+01
  -8.495195e+01  -3.161897e+01
  -1.476648e+01  -1.044059e+02
   9.865811e+01  -1.409092e+02
   1.504703e+02  -4.668593e+01
   1.065460e+02   9.791034e+01
  -6.942845e+00   1.694686e+02
  -8.951005e+01   1.467986e+02
  -1.080562e+02  -2.118260e+00
  -3.915268e+01  -9.870102e+01
   5.650527e+00  -9.851093e+01
   5.845200e+01  -1.690456e+01
   5.023940e+01   1.125867e+01
   2.688955e+01   3.148138e+01
   1.539423e+01   1.603101e+00
   3.602918e+01   2.194024e+01
   5.245083e+01   1.158169e+02
   5.712293e+01   1.051333e+02
  -5.096245e+01   1.694927e+01
  -1.026672e+02  -5.635910e+01
  -1.121001e+02  -5.153408e+01
  -1.309081e+01  -3.064763e+01
   8.367693e+01  -3.999794e+01
   8.579813e+01   1.394264e+01
   3.205829e+01  -2.541273e+01
  -4.864901e+01   1.967775e+01
  -5.583434e+00   2.046840e+01
  -1.010011e+01   1.199740e+01
  -2.588766e+01   1.739920e+00
  -2.262213e+01  -3.889737e+01
  -6.342800e+01  -1.091125e+01
  -1.991721e+01  -7.493057e+01
   9.693258e+01  -8.037411e+01
   1.796543e+02  -3.862325e+01
   1.200785e+02   5.492805e+01
   1.202264e+01   1.269639e+02
  -8.826065e+01   1.414349e+02
  -1.064966e+02   7.054239e+01
  -1.012740e+02  -1.850363e+01
   4.133842e-01  -6.039660e+01
   1.884801e+01  -7.083598e+00
  -2.431545e+01   1.723267e+01
  -4.915173e+01  -3.737014e+01
  -2.310635e+01  -1.002902e+02
   5.261941e+01  -7.264270e+01
   9.799828e+01   3.289504e+01
   9.965314e+01   1.057757e+02
  -8.234300e+00   1.190482e+02
  -8.281849e+01   2.567677e+01
  -1.213625e+02  -7.944922e+01
  -4.854892e+01  -7.974210e+01
   6.862930e+01  -1.869632e+01
   8.976466e+01   8.733754e+00
   4.434434e+01   2.866755e+01
  -2.732306e+01   6.656176e+01
  -2.454442e+01   1.101012e+01
   2.126362e+01  -3.951493e+00
   4.560086e+01  -1.860129e+01
   2.497473e+01   7.170877e+00
  -6.699632e+01   4.079275e+01
  -1.007789e+02   6.357989e+01
  -6.154815e+01  -1.467580e+00
   1.487145e+01  -7.287374e+01
   4.144485e+01  -8.810831e+01
   5.217371e+01  -1.219927e+01
  -1.114901e+01   4.781659e+01
  -3.000986e+01   4.581168e+01
  -1.336560e+01  -2.678497e+01
  -1.079399e+01  -6.318682e+01
   2.052307e+01  -4.094602e+01
   4.205403e+01   5.373274e+00
   1.983767e+01   3.532839e+01
   1.701165e+01  -1.616118e+01
   6.919504e+00  -4.012005e+01
  -1.837070e+01   5.318079e+00
  -2.382462e+01   2.221639e+01
  -2.722003e+01   5.141052e+01
  -2.374912e+01  -9.120692e+00
  -3.229179e+01  -6.413547e+01
   1.322472e+00  -5.677870e+01
   6.777228e+01  -4.771291e+00
   6.708991e+01   4.613781e+01
   2.212817e+01   7.991424e+01
  -3.863342e+01   1.208331e+01
  -6.941356e+01  -2.675376e+01
  -3.661081e+01  -5.433819e+01
   3.264040e+01  -3.291199e+01
   3.649135e+01   7.316381e+00
   7.946431e+00  -8.629749e-01
  -7.162787e+01  -4.116847e+01
  -5.690870e+01  -3.289359e-02
   4.353726e+01  -4.447257e+01
   7.730605e+01  -8.715860e+00
