
 $NMID
 id='ANONYMOUS ', fmtdat='(2E16.6)'
 volume=1.0
 tramp=1.0
 $END
  -3.850188e+03   2.851060e+02
  -2.361471e+03  -2.441861e+03
   4.612954e+02  -2.694713e+03
   2.002862e+03  -1.076924e+03
   8.364122e+02   4.181894e+02
  -4.457858e+02   4.770318e+02
  -8.360298e+02  -2.734216e+02
   4.109504e+01  -9.339693e+02
   7.851571e+02  -7.076435e+02
   8.303297e+02   1.058270e+02
   3.955491e+02   9.171905e+02
  -2.972162e+02   8.221549e+02
  -5.913672e+02   1.326125e+02
  -3.231639e+02  -6.533447e+02
   2.148083e+02  -6.790368e+02
   5.658624e+02  -4.350562e+01
   2.362324e+02   6.705364e+02
  -2.155877e+02   6.268786e+02
  -5.388197e+02   1.150994e+02
  -4.192402e+02  -2.806861e+02
  -4.684591e+01  -3.873979e+02
   1.987443e+02  -2.767192e+02
   1.856698e+02  -4.248671e+00
  -1.299449e+02   4.150515e+01
  -3.215144e+02  -1.377473e+02
  -1.765278e+02  -3.987527e+02
   4.279463e+02  -3.752833e+02
   8.021587e+02   1.321673e+02
   3.486195e+02   5.117514e+02
  -3.986664e+02   4.051290e+02
  -7.100452e+02  -1.216749e+01
  -3.075519e+02  -4.611616e+02
   2.608989e+02  -5.082328e+02
   5.672922e+02  -1.813393e+02
   4.351059e+02   2.417190e+02
   2.672713e+01   4.552698e+02
  -1.240569e+02   2.967965e+02
  -1.303709e+02  -2.186716e+02
   1.351434e+02  -4.025243e+02
   3.453267e+02   8.884123e+01
   1.800141e+02   6.480803e+02
  -3.236007e+02   6.018522e+02
  -5.194927e+02   7.580524e+01
  -2.544544e+02  -4.887442e+02
   2.211333e+02  -3.489712e+02
   3.236808e+02   2.467993e+02
  -6.793701e+01   4.538054e+02
  -4.839148e+02   1.016245e+02
  -5.549428e+02  -3.362936e+02
  -2.125472e+02  -5.507312e+02
   3.593024e+02  -3.210303e+02
   6.277142e+02   5.093038e+01
   3.592111e+02   3.605798e+02
  -1.208089e+02   3.475663e+02
  -4.072725e+02   5.116379e+01
  -2.046884e+02  -1.295971e+02
   6.544471e+01  -8.165937e+01
   6.816526e+01   1.225367e+02
  -1.268270e+02   1.595034e+02
  -3.191926e+02  -1.405129e+01
  -1.580333e+02  -2.414979e+02
   1.573348e+02  -2.921533e+02
   3.755533e+02  -5.855422e+01
   2.083300e+02   8.211909e+01
  -2.689511e+01   2.354730e+02
  -2.598061e+02   3.081498e+02
  -3.870418e+02   1.259613e+02
  -2.619497e+02  -1.766305e+02
  -7.683221e+01  -3.592401e+02
   6.832309e+01  -3.826581e+02
   1.070617e+02  -1.341748e+02
   4.497630e+01   4.706437e-01
   8.685555e+01  -9.020576e+01
   1.986503e+02  -1.050225e+02
   2.878923e+02   4.177674e+01
   1.623766e+02   2.800618e+02
  -6.672622e+01   2.225054e+02
  -2.324604e+02  -3.213491e+01
  -1.765062e+02  -2.218527e+02
   1.144486e+01  -2.958941e+02
   2.156120e+02  -1.090538e+02
   3.361518e+02   2.014803e+02
   1.877154e+02   3.404721e+02
  -1.083210e+02   3.302713e+02
  -2.319460e+02   1.591940e+02
  -1.784731e+02   1.591319e+01
  -1.026782e+02   8.048684e+00
  -2.612688e+02   4.013730e+01
  -3.621200e+02  -1.346672e+02
  -2.389773e+02  -3.384267e+02
   5.034096e+01  -4.088641e+02
   3.521263e+02  -3.940645e+02
   4.741769e+02  -1.619778e+02
   3.307501e+02   6.397265e+01
   1.965380e+01   2.668565e+02
  -1.236648e+02   2.136892e+02
  -4.736031e+01   5.075287e+01
   9.115084e+01  -8.959452e+01
   1.306232e+02  -6.697794e+00
   4.562102e+01   1.466448e+02
  -1.404654e+02   9.418803e+01
  -1.711739e+02  -6.943287e+01
  -5.711173e+00  -1.919458e+02
   1.898295e+02  -1.704615e+01
   1.765449e+02   2.315203e+02
  -4.099100e+01   3.214875e+02
  -2.310887e+02   2.153552e+02
  -3.114731e+02  -9.978820e+01
  -2.356984e+02  -2.546752e+02
  -7.858326e+01  -2.554929e+02
   1.019829e+02  -1.584663e+02
   1.623993e+02  -1.229855e+01
   4.344154e+01   3.321771e+01
  -4.658034e+01  -5.293809e+01
  -4.753822e+00  -1.338069e+02
   1.338035e+02  -6.051735e+01
   1.422142e+02   4.131109e+01
   3.976970e+01   4.675512e+01
  -6.488639e+01  -1.042445e+01
   2.035397e+00  -9.334775e+01
   1.280204e+02  -7.192615e+01
   2.644529e+02   4.100746e+01
   2.408584e+02   1.494529e+02
   4.667813e+01   2.060973e+02
  -1.653015e+02   2.341399e+02
  -2.862503e+02   1.249294e+02
  -1.557631e+02  -5.070266e+01
   2.720376e+01  -8.276915e+01
   7.099061e+01   6.014504e+00
  -5.402134e+01   1.109665e+02
  -1.755294e+02   2.806521e+01
  -2.248680e+02  -8.739868e+01
  -3.396484e+01  -1.699781e+02
   7.712264e+01  -1.392938e+02
   1.579648e+02   1.322257e+01
   5.721849e+01   2.607340e+01
  -1.717357e+01  -2.688563e+01
  -3.086557e+01  -8.656661e+01
   8.634969e+01  -9.516692e+01
   2.029601e+02  -7.974668e+00
   1.491275e+02   1.325924e+02
   4.891105e+00   2.219476e+02
  -1.572461e+02   1.542205e+02
  -1.867956e+02   4.926604e+00
  -6.450567e+01  -1.145760e+02
   6.803127e+01  -1.228107e+02
   6.331692e+01  -2.879816e+01
   3.112299e+01   1.701821e+01
  -3.299273e+01  -1.004073e+01
   1.205880e+01   8.175851e-01
   7.401828e+01   1.290511e+01
   7.075973e+01   7.122772e+01
   1.247742e+01   1.545890e+02
  -1.322335e+02   1.233916e+02
  -2.136342e+02   2.023752e+01
  -2.094211e+02  -1.464617e+02
  -6.717818e+01  -2.089434e+02
   1.183723e+02  -1.872340e+02
   1.265285e+02  -2.323272e+01
   7.150108e+01   6.479265e+01
   2.554524e+01   1.344156e+01
   6.031479e+01  -6.080576e+00
   7.865673e+01   1.140567e+01
   6.093233e+01   5.684865e+01
  -4.224320e+01   1.153840e+02
  -1.097743e+02   5.466078e+01
  -8.068319e+01  -3.276349e+01
   1.307385e+01  -8.982853e+01
   1.362146e+02  -9.144898e+01
   1.795268e+02   1.030006e+02
   9.304376e+01   2.090723e+02
  -1.278021e+02   2.207214e+02
  -2.385058e+02   7.533037e+01
  -2.523561e+02  -8.314583e+01
  -7.525827e+01  -1.911587e+02
   1.201280e+01  -2.009574e+02
   9.134446e+01  -8.902271e+01
   8.163640e+01  -8.697464e+01
   1.089157e+02  -8.170634e+01
   1.021377e+02  -6.452216e+01
   9.190732e+01   5.117447e+01
   1.275265e+02   1.512225e+02
  -9.147153e+00   2.445840e+02
  -1.072538e+02   1.762287e+02
  -1.769929e+02   1.102323e+01
  -1.285204e+02  -1.392736e+02
  -1.081116e+01  -1.944290e+02
   9.218456e+01  -9.913089e+01
   6.276764e+01  -5.986223e+00
   4.923640e+00   7.156104e+01
  -2.575359e+01   2.135597e+01
   4.921292e+01   4.739758e+01
   6.908287e+01   3.993509e+01
   4.865501e+01   4.017140e+01
  -8.719527e+01   3.439918e+01
  -1.784039e+02  -1.164372e+01
  -1.728036e+02  -5.056754e+01
   1.947297e+01  -1.247537e+02
   9.941700e+01  -6.077351e+01
   1.513864e+02   6.420077e+00
   4.506963e+01   7.507039e+01
  -5.775510e+01   2.814189e+01
  -7.792150e+01  -5.640229e+01
  -2.356242e+00  -4.919000e+01
   3.607505e+01  -3.817917e+01
   4.303035e+01  -1.132341e+01
   3.604367e+01   5.504972e+01
   1.759212e+01   2.174637e+01
   4.422119e+01  -2.166763e+01
   5.854339e+01   3.210521e+00
   5.442260e+01   4.279408e+01
  -4.638564e+01   1.061799e+02
  -1.020900e+02   1.317784e+02
  -1.832753e+02   3.206673e+00
  -1.072923e+02  -6.439051e+01
   3.168826e+01  -1.265884e+02
   6.359710e+01  -6.850164e+01
   4.035605e+01   1.557229e+01
  -6.035210e+01   1.546443e+01
  -1.071485e+02  -2.146068e+01
  -5.558783e+01  -1.063170e+02
   7.932748e+01  -9.568188e+01
   1.842618e+02  -3.121720e+01
   1.542359e+02   2.565562e+01
   1.829396e+01   6.975715e+01
  -8.267382e+01   3.863744e+01
  -6.350723e+01   1.955611e+00
   5.767670e+01  -1.071687e+01
   9.296107e+01   2.956899e+01
   3.406729e+01   1.343420e+02
  -1.110153e+02   1.487600e+02
  -1.668790e+02   8.318514e+01
  -1.493830e+02  -7.567008e+01
   9.046373e+00  -2.128113e+02
   1.072762e+02  -1.085992e+02
   1.134365e+02   2.451905e+01
   4.359638e+01   8.068570e+01
  -1.759097e+01   1.009597e+02
  -5.325521e+01   1.273866e+01
  -4.973496e+01  -2.348953e+01
  -2.312336e+01  -1.690006e+01
  -6.921491e+00  -4.181664e+00
  -1.488290e+01  -3.585004e+01
  -2.911841e+01  -9.965316e+01
  -1.694001e+01  -9.687998e+01
   4.070448e+01  -2.151047e+01
   1.166748e+02   6.829213e+01
   1.098629e+02   9.354760e+01
   2.163695e+01   5.301539e+01
  -1.053380e+02   2.489568e+01
  -9.070401e+01  -1.014935e+01
  -1.694602e+01  -3.163386e+01
   5.946596e+01  -1.366878e+01
   1.727959e+01  -1.455935e+01
  -3.443259e+00   9.817950e+00
   7.137086e+00  -2.363561e+01
   4.348880e+01  -9.621971e+00
   1.062431e+02   2.363276e+01
   3.489389e+01   8.678241e+01
  -1.226887e+02   9.746314e+01
  -2.014113e+02   2.129694e+01
  -1.334596e+02  -9.501482e+01
  -2.535071e+01  -1.687692e+02
   9.541177e+01  -1.327980e+02
   1.008614e+02  -6.602393e+01
   5.911872e+01   3.030681e+01
   1.828566e+01   4.091522e+01
   2.043732e+01   1.170552e+01
   1.776140e+01  -2.132348e+01
   2.255803e+01   5.921616e+01
  -2.573222e+01   9.968157e+01
  -5.468375e+01   6.649323e+01
  -8.931744e+01  -3.373369e+01
  -5.238727e+01  -1.123561e+02
   2.559112e+01  -1.205172e+02
   7.261054e+01   9.727532e-01
   1.112208e+02   7.941195e+01
  -3.015505e+00   1.066102e+02
  -9.031997e+01   4.902382e+01
  -1.162369e+02  -2.350917e+01
  -4.390280e+01  -5.461289e+01
   4.471621e+01  -3.680344e+01
   2.621269e+01  -2.531366e+01
  -2.030863e+01  -2.074394e+01
  -4.285686e+01   6.334503e+01
  -2.520290e+00  -5.648476e+00
   7.374894e+01  -5.156607e+01
   1.062985e+02  -2.658041e+01
   5.739540e+01   1.822626e+01
   1.349406e+01   1.029011e+02
  -6.092675e+01   7.776005e+01
  -2.260476e+01   7.720199e+00
   2.786936e+01  -5.230957e+01
   2.860263e+01  -3.018145e+01
   2.097562e+01   1.511356e+01
   1.912599e+01   6.712510e+01
  -3.345930e+01   1.863980e+01
  -2.918344e+01  -5.077338e+00
  -3.445185e+01  -5.641619e+00
  -3.214012e+01   1.627358e+00
   7.206886e+00   3.683007e+01
   2.224463e+01  -7.680303e+00
  -2.033278e+01  -2.892720e+01
   3.722779e+01  -6.378757e+01
   5.091253e+01   5.618993e+00
   3.058065e+01   3.825772e+01
  -6.900591e+00   3.468751e+01
  -7.293244e+01   1.958392e+01
  -8.011685e+01  -2.406810e+01
  -3.614158e+01  -6.830172e+01
   3.205076e+01  -1.562342e+01
   8.891478e+01   2.813486e+01
   4.466579e+01   2.946366e+01
  -1.041375e+01   4.800945e+01
  -4.666402e+01   1.220049e+00
  -1.940939e+01   1.377314e+01
   3.980597e+01   6.887885e+00
   3.491057e+01   2.154271e+01
  -1.302022e+01   3.188320e+01
  -1.072592e+02  -7.328923e+00
