
 $NMID
 id='ANONYMOUS ', fmtdat='(2E16.6)'
 volume=1.0
 tramp=1.0
 $END
   4.381341e+03  -1.801295e+02
   2.719571e+03   2.130068e+03
  -3.833254e+02   2.775748e+03
  -1.665002e+03   1.036250e+03
  -1.096754e+03  -2.842653e+02
   2.801776e+02  -4.100682e+02
   6.856366e+02   1.505597e+02
   5.230324e+01   8.500977e+02
  -7.333653e+02   6.974678e+02
  -7.964937e+02   5.952049e+00
  -4.114962e+02  -7.411482e+02
   1.776638e+02  -7.973868e+02
   5.431336e+02  -1.627054e+02
   3.755668e+02   5.899561e+02
  -1.530673e+02   6.394368e+02
  -5.296859e+02   9.674312e+01
  -3.376478e+02  -5.776829e+02
   1.976010e+02  -6.232419e+02
   5.149234e+02  -1.258538e+02
   3.988468e+02   2.414282e+02
   7.079850e+01   3.686197e+02
  -1.614065e+02   2.361691e+02
  -1.492561e+02   5.493026e+01
   1.104421e+02   3.894083e+01
   3.116582e+02   1.758750e+02
   9.813667e+01   3.361397e+02
  -4.708314e+02   2.987997e+02
  -7.658961e+02  -1.148888e+02
  -3.408091e+02  -4.861176e+02
   2.939543e+02  -3.377113e+02
   6.530662e+02   5.635005e+01
   2.828857e+02   3.886193e+02
  -2.391123e+02   4.158963e+02
  -5.040997e+02   1.879891e+02
  -4.087075e+02  -1.726910e+02
  -1.031296e+02  -3.795172e+02
   3.755786e+01  -2.659108e+02
   1.202410e+02   1.403886e+02
  -1.487823e+02   2.870211e+02
  -3.127798e+02  -1.039712e+02
  -1.287442e+02  -6.107712e+02
   2.826152e+02  -5.575855e+02
   4.737685e+02  -3.831982e+01
   1.950238e+02   4.875008e+02
  -1.699149e+02   2.580622e+02
  -2.776186e+02  -2.517947e+02
   9.821428e+01  -4.418460e+02
   5.061901e+02  -1.152064e+02
   4.995895e+02   3.266706e+02
   1.870679e+02   5.315332e+02
  -3.746764e+02   2.947054e+02
  -5.638035e+02  -8.424882e+01
  -3.546541e+02  -2.955801e+02
   9.067988e+01  -3.104843e+02
   3.546394e+02  -1.023968e+02
   2.593278e+02   9.806680e+01
  -4.467819e+01   1.049360e+02
  -1.310555e+02  -7.639378e+01
   1.472676e+02  -1.140400e+02
   3.105505e+02   5.714698e+01
   1.702111e+02   2.792263e+02
  -2.110400e+02   2.520391e+02
  -3.433027e+02   7.951880e+01
  -2.129048e+02  -7.766256e+01
   8.284802e+01  -2.431739e+02
   2.415107e+02  -3.101267e+02
   3.529470e+02  -1.767936e+02
   2.371336e+02   1.295193e+02
   1.272644e+02   3.806247e+02
  -7.900532e+01   3.743226e+02
  -1.023620e+02   1.539437e+02
  -5.461456e+01   3.493413e+01
  -1.146747e+02   1.106603e+02
  -2.146741e+02   4.962560e+01
  -2.367068e+02  -1.152012e+02
  -1.101968e+02  -2.426755e+02
   7.804487e+01  -2.132353e+02
   2.374617e+02   2.183121e+01
   1.369182e+02   2.422836e+02
  -5.957726e+01   2.538178e+02
  -2.724090e+02   7.612724e+01
  -3.032476e+02  -1.894815e+02
  -1.329764e+02  -3.494098e+02
   9.199156e+01  -2.832322e+02
   2.379000e+02  -1.491513e+02
   1.355706e+02  -5.711515e+01
   1.243668e+02  -1.435992e+01
   2.767667e+02  -2.244445e+01
   3.849955e+02   1.105560e+02
   2.970634e+02   2.857016e+02
  -5.290639e+01   4.026363e+02
  -3.851011e+02   3.466074e+02
  -5.094075e+02   1.756022e+02
  -3.310161e+02  -8.448563e+01
  -2.859345e+01  -2.580120e+02
   1.184871e+02  -2.304349e+02
   6.827308e+01  -2.958673e+01
  -1.118534e+02   6.239967e+01
  -1.344215e+02   1.637761e+00
  -4.435730e+01  -1.100333e+02
   9.018941e+01  -9.706560e+01
   1.577978e+02   4.965354e+01
  -2.121896e+01   1.768847e+02
  -1.811086e+02   3.893867e+00
  -1.733615e+02  -2.464708e+02
   1.428817e+01  -3.249816e+02
   2.361075e+02  -2.144425e+02
   3.148796e+02   7.595896e+01
   2.748387e+02   2.927435e+02
   8.901184e+01   2.153228e+02
  -1.148031e+02   1.331249e+02
  -1.419340e+02   2.941285e+01
  -3.305253e+01  -1.361548e+00
   5.093851e+01   6.469469e+01
  -3.840363e+00   1.021261e+02
  -1.045060e+02   6.325570e+01
  -1.804221e+02  -1.447480e+01
  -2.730628e+01  -6.069938e+01
   5.999281e+01  -8.479439e+00
   2.937722e+01   6.297531e+01
  -1.700113e+02   7.269634e+01
  -2.896852e+02  -3.974141e+01
  -2.335571e+02  -1.668973e+02
  -1.478012e+01  -2.117554e+02
   2.152073e+02  -2.764096e+02
   2.872854e+02  -1.193902e+02
   1.474629e+02   6.600282e+01
  -4.605096e+01   8.806176e+01
  -7.874430e+01   1.326501e+01
   3.156522e+01  -6.324334e+01
   1.849600e+02  -2.377400e+01
   1.822060e+02   7.023297e+01
   7.841459e+01   1.845848e+02
  -8.824002e+01   1.367580e+02
  -1.479643e+02   1.710651e+01
  -5.790362e+01  -1.944467e+01
   2.903757e+01   9.344886e-01
   5.987085e+00   9.018174e+01
  -8.513416e+01   1.265155e+02
  -2.066368e+02   2.212204e+01
  -1.704700e+02  -1.482177e+02
  -1.728787e+01  -2.442676e+02
   1.758234e+02  -1.592217e+02
   1.788386e+02  -1.537085e+00
   5.017595e+01   1.012466e+02
  -4.560200e+01   9.249472e+01
  -9.512971e+01   2.588509e+01
  -1.012389e+01  -5.756960e+01
   1.273622e+01  -1.944900e+01
  -1.740932e+01   1.140627e+01
  -5.358147e+01   6.617141e+00
  -9.065314e+01  -1.015476e+02
   1.149142e+01  -1.602411e+02
   1.255928e+02  -1.322581e+02
   2.062462e+02   3.208938e+00
   1.795239e+02   1.754321e+02
   2.299501e+01   2.003634e+02
  -1.023319e+02   1.534456e+02
  -1.324057e+02   5.591138e+00
  -2.708401e+01  -6.348413e+01
   3.884160e+00  -1.425886e+01
  -7.335017e+01   3.620779e+00
  -1.095022e+02  -9.723140e+00
  -2.477757e+01  -6.471852e+01
   5.528756e+01  -9.520571e+01
   8.999492e+01  -6.102838e+01
   7.372834e+01   6.790894e+01
  -1.884040e+01   1.066202e+02
  -1.662155e+02   9.894778e+01
  -2.107767e+02  -6.283108e+01
  -9.528476e+01  -1.881607e+02
   6.003389e+01  -2.366337e+02
   2.657081e+02  -7.923029e+01
   2.823159e+02   1.128958e+02
   1.123447e+02   2.134339e+02
  -2.534601e+01   1.702280e+02
  -1.126252e+02   7.774945e+01
  -1.071622e+02   7.234404e+01
  -5.166588e+01   1.005300e+02
  -8.883327e+01   7.842197e+01
  -1.134047e+02  -1.517393e+01
  -9.072292e+01  -1.508393e+02
  -5.338313e+01  -2.476000e+02
   1.081468e+02  -1.499829e+02
   1.942959e+02  -2.200905e+01
   1.341336e+02   1.237698e+02
   3.618070e+01   1.777598e+02
  -8.381675e+01   1.106009e+02
  -4.893831e+01  -1.473487e-02
   6.242742e+00  -6.205374e+01
   2.434406e+01  -1.799279e+01
  -2.962409e+01  -2.656348e+01
  -5.318959e+01  -1.586127e+01
  -3.899607e+01  -4.835129e+01
   5.926551e+01  -4.126283e+01
   1.841076e+02  -1.432297e+01
   1.571431e+02   7.408485e+01
   8.119808e+00   1.003040e+02
  -9.845202e+01   8.086039e+01
  -1.069881e+02  -7.855313e+00
  -6.208071e+01  -8.252363e+01
   3.279145e+01  -6.842568e+01
   7.435014e+01   2.043333e+01
   2.122358e+01   8.425149e+01
  -4.222736e+01   8.735101e+01
  -8.042016e+01   1.660494e+01
  -6.443530e+01  -4.917732e+01
  -3.274201e+01  -5.881858e+01
  -6.825808e+01  -6.902468e+00
  -7.015367e+01  -1.379528e+01
  -4.007129e+01  -6.824170e+01
   5.951806e+01  -1.232769e+02
   1.243960e+02  -1.386098e+02
   1.644250e+02  -3.511695e+01
   1.106210e+02   8.658808e+01
   5.832143e-01   1.423988e+02
  -8.596058e+01   5.868671e+01
  -7.010451e+01  -2.662331e+01
   6.127138e+01  -5.119711e+01
   1.227478e+02   8.038742e+00
   7.196657e+01   8.070049e+01
  -8.824153e+01   1.186163e+02
  -2.029282e+02   4.121402e+01
  -1.399936e+02  -4.225079e+01
  -1.170212e+01  -7.896361e+01
   5.358278e+01  -7.522038e+01
   6.105787e+01   7.646636e+00
  -5.047452e+01   3.039025e+01
  -1.172438e+02  -2.401360e+01
  -6.086826e+01  -1.253829e+02
   8.863390e+01  -1.651157e+02
   1.705696e+02  -6.116940e+01
   1.218197e+02   9.853763e+01
  -1.564562e+01   2.194236e+02
  -1.082218e+02   1.303877e+02
  -8.354318e+01  -3.935589e+01
  -4.139383e+01  -9.311844e+01
   9.176949e+00  -8.136102e+01
   3.018009e+01  -1.162266e+00
   7.360469e+01   3.576065e+01
   8.878111e+00   3.046356e+01
  -3.681276e+00   7.418213e+00
   3.626325e+01   1.028467e+00
   4.068243e+01   6.216899e+01
   4.622831e+01   9.936848e+01
  -3.418845e+01   4.207475e+01
  -1.214855e+02  -7.467464e+01
  -1.119008e+02  -6.187476e+01
  -1.866037e+01  -6.473326e+01
   9.088428e+01   1.086735e+01
   1.048380e+02   1.571753e+01
   2.134832e+01   1.349831e+01
  -1.899589e+01   1.407095e+01
  -2.893988e+01   3.479936e+00
   2.328116e+01   9.427491e+00
   1.381397e+01   1.442892e+01
  -1.022927e+02  -5.867629e+00
  -8.420305e+01  -6.146783e+00
  -5.250736e+00  -1.112305e+02
   1.139337e+02  -9.055069e+01
   1.609622e+02  -6.274680e+01
   1.491186e+02   6.693407e+01
   2.955355e+01   1.793518e+02
  -9.025699e+01   1.591082e+02
  -1.243392e+02   8.006136e+01
  -6.529748e+01  -2.202433e+01
  -9.446411e+00  -5.643928e+01
  -3.914489e+00  -1.499666e+01
  -1.306147e+01  -2.958978e+01
  -2.600772e+01  -3.545861e+01
   3.987731e+00  -6.041523e+01
   6.493269e+01  -6.062889e+01
   6.967315e+01   3.354025e+01
   6.127694e+01   1.078909e+02
  -4.071555e+00   1.149395e+02
  -8.113674e+01   1.778051e+01
  -1.243276e+02  -9.201790e+01
  -4.414775e+01  -9.923668e+01
   7.856221e+01  -7.971383e+01
   1.250930e+02   4.502133e+01
   5.978260e+01   3.843929e+01
  -2.097678e+01   5.858784e+01
  -2.520456e+01   3.733762e+01
   2.128570e+01  -9.665061e+00
   6.920717e+01  -6.943254e+00
   2.046001e+01   1.834802e+01
  -4.758824e+01   5.487888e+01
  -1.063303e+02   8.095392e+01
  -5.585523e+01  -1.890434e+01
   3.481655e+00  -9.129852e+01
   7.505883e+01  -9.994962e+01
   3.357722e+01  -1.809687e+01
  -1.922861e+01   3.558069e+01
  -1.146843e+01   3.624179e+01
  -3.392016e+01  -2.673635e+01
  -3.076848e+01  -6.222729e+01
   2.782247e+01  -4.952834e+01
   2.374465e+01   4.535177e+01
   2.596028e+01   3.913454e+01
   5.926667e+00   1.621977e+01
  -5.867431e+00  -4.211084e+01
  -3.007507e+01  -1.760706e+01
  -2.511517e+01   4.910324e+01
  -1.712746e+01   1.512158e+01
  -3.613265e+01   1.721151e+01
  -2.505758e+01  -6.970077e+01
   1.482247e+01  -4.381456e+01
   5.402500e+01  -1.700411e+01
   7.087064e+01   4.418729e+01
   1.308895e+01   5.160552e+01
  -5.470572e+01   1.424524e+01
  -8.377600e+01  -3.445628e+01
  -7.593646e+01  -5.132603e+01
   1.124380e+01  -3.302823e+01
   2.422597e+01  -4.267242e+01
   2.048804e+01   6.817636e+00
  -3.521299e+01  -1.970956e+01
  -3.440922e+01  -6.678102e-01
   5.145091e+01  -3.166140e+01
   7.750165e+01  -8.053156e+00
