
 $NMID
 id='ANONYMOUS ', fmtdat='(2E16.6)'
 volume=1.0
 tramp=1.0
 $END
   4.015121e+03   6.150856e+00
   2.444521e+03   1.804630e+03
  -3.028424e+02   2.320598e+03
  -1.339881e+03   1.232835e+03
  -8.764592e+02  -3.482664e+00
   1.490517e+02  -1.574409e+02
   4.809660e+02   2.401749e+02
  -3.111025e+01   7.039604e+02
  -6.915854e+02   6.854086e+02
  -6.907403e+02   1.966333e+01
  -4.159496e+02  -5.992767e+02
   7.294814e+01  -6.625464e+02
   3.648746e+02  -8.480776e+01
   2.763761e+02   5.135359e+02
  -1.650226e+02   5.693680e+02
  -4.496818e+02   1.429770e+01
  -2.808354e+02  -5.129003e+02
   1.105384e+02  -6.207669e+02
   4.804140e+02  -2.265159e+02
   3.717783e+02   1.035116e+02
   1.238543e+02   3.049334e+02
  -1.065827e+02   2.231660e+02
  -6.249090e+01   6.539834e+01
   1.586763e+02   8.054173e+01
   3.180642e+02   2.282140e+02
   5.126941e+01   4.034955e+02
  -4.967340e+02   2.305360e+02
  -7.042716e+02  -1.176092e+02
  -2.769684e+02  -4.205565e+02
   3.743648e+02  -3.246345e+02
   5.846309e+02   1.172871e+02
   2.767129e+02   3.595297e+02
  -2.609898e+02   4.445085e+02
  -5.083192e+02   1.392981e+02
  -3.604560e+02  -1.489487e+02
  -6.573936e+01  -3.795648e+02
   9.602445e+01  -1.829455e+02
   2.560417e+01   1.391560e+02
  -2.543707e+02   2.976164e+02
  -2.844821e+02  -1.624498e+02
  -2.702021e+01  -5.639983e+02
   3.459161e+02  -4.428123e+02
   4.185294e+02   7.328628e+01
   1.420359e+02   3.887299e+02
  -1.902507e+02   1.482991e+02
  -2.169237e+02  -3.312292e+02
   6.539244e+01  -4.517716e+02
   5.093370e+02  -7.101656e+01
   5.522993e+02   3.780383e+02
   1.320741e+02   5.274539e+02
  -3.035856e+02   2.750054e+02
  -5.910754e+02  -7.578460e+01
  -3.486033e+02  -2.988754e+02
   9.775921e+01  -2.656208e+02
   3.154759e+02  -1.062281e+02
   1.518037e+02   9.849552e+01
  -4.057170e+01   3.060024e+01
  -4.530806e+01  -9.021765e+01
   2.035281e+02  -7.681138e+01
   2.293276e+02   9.677365e+01
   9.827679e+01   2.293469e+02
  -1.710892e+02   2.230259e+02
  -3.120455e+02   8.813042e+01
  -2.397147e+02  -8.707585e+01
  -5.528294e+00  -2.709079e+02
   2.354567e+02  -3.367009e+02
   3.398913e+02  -1.972834e+02
   2.495814e+02   1.639431e+02
   9.762203e+01   3.694607e+02
  -5.257740e+00   3.812730e+02
  -5.911747e+01   1.864833e+02
  -2.542830e+01   9.473194e+01
  -1.082555e+02   1.053050e+02
  -2.592478e+02   4.242686e+01
  -2.592864e+02  -9.636958e+01
  -1.111515e+02  -2.738431e+02
   5.213369e+01  -1.936659e+02
   2.276965e+02   6.183507e-01
   1.903579e+02   2.191018e+02
  -1.005032e+01   2.804055e+02
  -2.535720e+02   8.630421e+01
  -3.066781e+02  -1.132350e+02
  -1.794824e+02  -2.642675e+02
   4.397415e+01  -2.557323e+02
   1.998490e+02  -1.317489e+02
   1.337424e+02  -3.848038e+01
   1.019532e+02  -5.701165e+01
   2.688376e+02  -8.503512e+01
   4.095702e+02   1.095183e+01
   3.455916e+02   3.435764e+02
   2.021831e+01   4.597789e+02
  -3.587914e+02   3.893417e+02
  -4.547895e+02   2.228321e+02
  -3.115438e+02  -9.537962e+01
  -4.663008e+00  -2.805601e+02
   1.090102e+02  -1.993702e+02
   4.254757e+01   6.360966e+00
  -1.293661e+02   4.107985e+01
  -1.200417e+02  -3.036185e+01
  -1.526782e+01  -1.391295e+02
   1.846859e+02  -1.199953e+02
   1.471828e+02   7.806128e+01
  -6.271436e+01   1.277002e+02
  -1.621632e+02   2.866103e+01
  -1.694041e+02  -1.943995e+02
   4.568728e+01  -2.987366e+02
   2.129379e+02  -2.240679e+02
   3.444965e+02   7.845472e+01
   2.778951e+02   2.682800e+02
   6.967501e+01   2.715038e+02
  -1.160990e+02   1.608719e+02
  -1.693040e+02  -7.639195e+00
  -5.860469e+01  -1.695970e+01
   3.846101e+01   5.762096e+01
   6.923159e+00   1.413912e+02
  -1.312287e+02   7.291242e+01
  -1.560482e+02  -3.300826e+01
  -2.310765e+01  -7.733598e+01
   9.742112e+01  -2.700580e+01
   4.918301e+01   9.833886e+01
  -1.330911e+02   1.044739e+02
  -3.181721e+02   2.580971e+01
  -2.641536e+02  -1.663645e+02
  -6.547807e+01  -2.932385e+02
   1.960209e+02  -2.812174e+02
   2.630861e+02  -1.415447e+02
   1.445977e+02   5.212791e+01
  -5.238142e+01   1.255677e+02
  -6.992269e+01  -1.409545e+01
   2.496980e+01  -9.695959e+01
   1.737866e+02  -6.239415e+01
   1.782726e+02   8.132310e+01
   7.763001e+01   1.634493e+02
  -6.871239e+01   1.434431e+02
  -1.388100e+02   7.235803e+01
  -6.582687e+01  -3.113139e+01
   6.081884e+01  -1.252976e+01
   6.721391e+01   8.929363e+01
  -8.957850e+01   1.335066e+02
  -2.381009e+02   1.910240e+01
  -2.012718e+02  -1.089561e+02
  -3.346268e+01  -2.089804e+02
   1.501511e+02  -1.997903e+02
   2.105267e+02  -1.710279e+01
   4.109762e+01   8.719257e+01
  -6.403840e+01   1.207248e+02
  -7.176330e+01   4.389690e+01
   7.603046e+00   4.377428e+00
   3.402795e+01  -8.774407e+00
  -2.945342e+01   2.273061e+01
  -8.594997e+01   1.588012e+01
  -1.253282e+02  -9.408021e+01
  -3.323764e+01  -1.607877e+02
   9.004607e+01  -1.560702e+02
   2.356343e+02  -8.164275e+00
   1.982077e+02   1.176974e+02
   3.234739e+01   2.362402e+02
  -8.404920e+01   1.517402e+02
  -1.312291e+02   4.921172e+01
  -5.981893e+01  -4.731036e+01
  -1.624272e+01  -1.131712e+01
  -6.256886e+01  -1.014255e+01
  -9.132366e+01   2.123411e+01
  -7.488367e+01  -6.203199e+01
   1.193894e+01  -1.190430e+02
   8.991956e+01  -9.142203e+01
   1.006504e+02  -1.560210e+00
   1.691587e+01   1.396895e+02
  -1.526886e+02   9.046951e+01
  -1.890832e+02  -4.177068e+01
  -1.221090e+02  -1.841262e+02
   1.113447e+02  -2.013385e+02
   2.352361e+02  -1.096415e+02
   2.887723e+02   5.160289e+01
   1.190102e+02   1.836969e+02
  -3.833650e+01   1.453214e+02
  -9.663237e+01   6.478644e+01
  -5.105066e+01   6.774408e+01
  -4.457762e+01   7.329578e+01
  -1.121527e+02   9.851175e+01
  -1.545508e+02   6.783468e+00
  -1.394007e+02  -1.420253e+02
  -2.813348e+01  -2.446042e+02
   1.007667e+02  -1.652467e+02
   1.981682e+02  -3.086580e+01
   1.295550e+02   1.435318e+02
   2.124416e+01   1.108999e+02
  -8.517039e+01   6.195629e+01
  -6.227766e+01   2.296146e+00
  -1.283720e+00  -5.450411e+01
   1.885938e+01  -3.169779e+01
  -7.344392e+01   1.537902e+01
  -1.109999e+02  -5.191406e+01
  -8.145425e+01  -2.938100e+01
   5.367335e+01  -5.007377e+01
   1.976892e+02  -2.554385e+00
   1.550867e+02   4.430512e+01
   4.293703e+01   1.117610e+02
  -1.294833e+02   7.037687e+01
  -1.271775e+02   2.747702e+00
  -4.567219e+01  -6.621909e+01
   6.332502e+01   2.549878e+00
   7.567294e+01   3.331308e+01
   8.249865e+00   8.128196e+01
  -1.809454e+01   7.283334e+01
  -4.823253e+01   2.464205e+01
  -7.599681e+01  -1.947036e+01
  -7.079354e+01  -4.637604e+01
  -1.040290e+02  -3.318459e+01
  -7.645067e+01  -1.766570e+01
  -3.806450e+01  -1.021926e+02
   4.517091e+01  -1.758596e+02
   1.436804e+02  -1.768140e+02
   1.968460e+02  -3.935962e+01
   1.212069e+02   1.175390e+02
   7.154887e+00   9.439161e+01
  -9.927529e+01   4.357005e+01
  -7.396927e+01  -1.322559e+01
   6.743052e+01  -4.774634e+01
   1.530713e+02   3.427680e+01
   5.478743e+01   1.057726e+02
  -7.092222e+01   1.146281e+02
  -1.842500e+02   3.953205e+01
  -1.640377e+02  -1.491896e+01
  -6.981725e+01  -7.524633e+01
   3.512150e+01  -5.016073e+01
   3.634030e+01  -9.460643e+00
  -5.610155e+01   2.698823e+01
  -1.028068e+02  -4.788850e+01
  -5.558801e+01  -1.047705e+02
   7.057645e+01  -1.565759e+02
   1.647435e+02  -6.941912e+01
   1.317048e+02   9.501529e+01
   2.266004e+01   1.802625e+02
  -6.211404e+01   1.185180e+02
  -8.779469e+01  -9.750916e+00
  -5.350434e+01  -1.352926e+02
   3.333429e+01  -1.007718e+02
   6.013064e+01  -3.868664e+01
   4.871804e+01   2.644224e+01
   2.229821e+01  -4.356591e+00
   1.511702e+01  -3.409610e+01
   2.746048e+01  -1.401053e+01
   4.365223e+01   8.690706e+01
   2.944842e+01   9.981178e+01
  -4.612250e+01   3.977930e+01
  -1.287428e+02  -1.189573e+01
  -1.331804e+02  -2.877013e+01
  -4.482748e+01  -4.072710e+01
   7.416442e+01  -2.431227e+01
   8.768473e+01  -1.826543e+01
   2.388955e+01   2.029121e+01
  -4.248799e+01   1.284020e+01
  -1.872129e+01   3.021186e+01
   1.390962e+01   4.984483e+00
   8.682058e+00   1.574887e+01
  -6.917020e+01   1.894188e+01
  -8.829124e+01  -2.388062e+01
  -4.941850e+00  -6.643854e+01
   7.316973e+01  -1.317043e+02
   1.842068e+02  -5.706313e+01
   1.615078e+02   5.263626e+01
   4.732881e+01   1.409631e+02
  -6.991360e+01   1.484524e+02
  -9.319329e+01   5.980657e+01
  -6.217143e+01  -3.443864e+01
  -2.617326e+01  -3.190435e+01
  -3.622315e+00   6.267704e+00
  -2.062918e+01  -1.323442e+01
  -2.596852e+01  -6.777452e+01
  -1.613802e+01  -7.764148e+01
   4.979794e+01  -7.667640e+01
   6.687572e+01   1.957317e+01
   8.975060e+01   7.966410e+01
   6.390554e+00   8.295440e+01
  -7.171314e+01   5.376963e+01
  -9.773658e+01  -5.494266e+01
  -5.220218e+01  -1.015148e+02
   5.028284e+01  -7.798922e+01
   1.079907e+02  -1.249143e+01
   4.839293e+01   2.418960e+01
  -3.225837e+01   8.245612e+01
  -3.345861e+01   1.736077e+01
   5.268689e+00  -1.766760e+00
   5.328946e+01   2.855655e+01
   1.436952e+01   1.923562e+01
  -3.636683e+01   6.880434e+01
  -1.027769e+02   7.957128e+01
  -7.375315e+01  -1.944435e+01
   1.704201e+01  -6.045806e+01
   6.050402e+01  -1.022096e+02
   5.521370e+01  -2.109916e+01
   2.771582e+01   3.945677e+01
  -1.372819e+01   5.418622e+01
  -1.898051e+01   5.621054e+00
  -3.957360e+01  -5.010137e+01
  -1.066884e+01  -4.236731e+01
   4.766488e+01  -7.232616e-01
   4.160193e+01   2.479744e+01
   1.102184e+01  -5.281744e+00
  -1.612388e+01  -9.279156e+00
  -1.622022e+01   8.996076e+00
  -3.894860e+01   2.606031e+01
   9.678679e+00   4.075376e+01
  -3.307948e+01  -4.952733e+00
  -3.084880e+01  -4.163074e+01
  -4.071964e+00  -2.878477e+01
   8.170571e+00  -1.199955e+01
   2.802326e+01   3.144238e+01
   2.545886e+01   3.980789e+01
  -3.492096e+01   3.840689e+01
  -1.127200e+02   3.763131e+00
  -8.370674e+01  -2.423193e+01
  -2.850010e+00  -3.680749e+01
   8.709697e+01  -3.735593e+01
   1.313694e+01   5.392762e+00
  -1.957397e+01   2.824940e+01
  -3.821408e+01   1.125950e+00
   3.763054e+01  -3.982583e+01
   9.345950e+01  -1.870923e+01
