
 $NMID
 id='ANONYMOUS ', fmtdat='(2E16.6)'
 volume=1.0
 tramp=1.0
 $END
  -4.204290e+03  -6.967981e+01
  -2.557579e+03  -2.414769e+03
   3.797372e+02  -2.453960e+03
   2.039866e+03  -1.026414e+03
   8.892703e+02   4.286882e+02
  -5.854349e+02   7.093448e+02
  -8.156784e+02  -2.903876e+02
  -1.013088e+02  -1.060495e+03
   7.023842e+02  -9.111047e+02
   8.318815e+02   1.167321e+01
   6.085000e+02   7.662512e+02
  -1.949036e+02   8.937132e+02
  -6.035181e+02   1.440861e+02
  -3.520025e+02  -6.941930e+02
   2.757452e+02  -7.413677e+02
   5.700618e+02  -3.783923e+01
   2.869295e+02   6.250392e+02
  -2.966209e+02   6.233995e+02
  -5.330819e+02   1.395515e+02
  -4.093126e+02  -3.087463e+02
  -6.415428e+01  -4.529841e+02
   1.910545e+02  -2.709373e+02
   1.941109e+02  -7.172419e+01
  -1.101953e+02   4.441355e+01
  -3.677077e+02  -1.096638e+02
  -1.893470e+02  -3.469215e+02
   4.156843e+02  -3.163834e+02
   7.871059e+02   7.006890e+01
   4.181129e+02   5.300339e+02
  -3.615473e+02   4.864268e+02
  -7.469600e+02  -3.675260e+01
  -3.160077e+02  -4.138321e+02
   2.669609e+02  -5.029973e+02
   5.538115e+02  -2.219443e+02
   3.813788e+02   1.833949e+02
   7.144022e+01   4.554120e+02
  -1.115804e+02   3.154131e+02
  -1.340047e+02  -2.076711e+02
   1.244177e+02  -4.015418e+02
   3.850249e+02   2.825036e+01
   2.110572e+02   4.997120e+02
  -2.014649e+02   5.883039e+02
  -4.850241e+02   5.866631e+01
  -2.417131e+02  -4.080649e+02
   2.245917e+02  -2.497392e+02
   3.217654e+02   2.859714e+02
  -3.136534e+01   4.671941e+02
  -4.388019e+02   1.752050e+02
  -5.832772e+02  -3.836688e+02
  -1.704041e+02  -5.864839e+02
   3.555525e+02  -3.528763e+02
   5.710842e+02   6.026418e+01
   3.783211e+02   3.756486e+02
  -1.126361e+02   3.742693e+02
  -4.242247e+02   8.978358e+01
  -2.362152e+02  -1.527309e+02
   1.043873e+02  -1.042396e+02
   1.551572e+02   1.220263e+02
  -1.417452e+02   1.820752e+02
  -3.264814e+02  -1.252490e+02
  -1.038174e+02  -2.820674e+02
   1.832685e+02  -2.111128e+02
   3.129088e+02  -6.501241e+01
   2.047793e+02   8.339444e+01
   4.699348e+00   2.513342e+02
  -1.941333e+02   3.011384e+02
  -3.080919e+02   2.265334e+02
  -2.961984e+02  -1.065698e+02
  -6.896882e+01  -4.401687e+02
   8.416162e+01  -3.870136e+02
   1.264201e+02  -9.545075e+01
   4.012146e+01   1.851964e+01
   6.376163e+01  -6.904507e+01
   1.472293e+02  -8.000146e+01
   2.571206e+02   5.663550e+01
   1.566839e+02   2.434387e+02
  -3.503835e+01   2.717604e+02
  -1.932915e+02  -6.457818e+00
  -1.871870e+02  -2.084663e+02
   2.841302e+01  -2.844338e+02
   2.408986e+02  -1.275270e+02
   3.545677e+02   1.053505e+02
   1.946231e+02   3.045117e+02
  -9.806843e+01   2.731198e+02
  -1.976492e+02   1.424959e+02
  -1.435529e+02   1.454720e+01
  -1.224307e+02   3.272307e+01
  -2.318432e+02   5.297686e+01
  -3.727191e+02  -3.132703e+01
  -2.553956e+02  -2.701702e+02
   3.387552e+01  -3.825757e+02
   3.463058e+02  -3.792958e+02
   4.582074e+02  -2.321155e+02
   3.315366e+02   7.680814e+01
   6.990745e+01   2.828153e+02
  -1.291347e+02   2.509578e+02
  -9.270301e+01   1.813432e+01
   1.043065e+02  -1.109391e+02
   1.772540e+02  -3.451970e+00
   6.779597e+01   1.789117e+02
  -1.279513e+02   1.572919e+02
  -1.606323e+02  -3.973295e+01
   2.308673e+01  -1.674993e+02
   1.874122e+02  -2.805246e+01
   1.512066e+02   2.253909e+02
  -6.573861e+00   3.197242e+02
  -2.361644e+02   2.035681e+02
  -2.983163e+02  -5.985970e+01
  -2.453902e+02  -2.069135e+02
  -9.284557e+01  -2.232085e+02
   7.709906e+01  -1.658021e+02
   2.059794e+02  -3.469232e+01
   2.372132e+01   3.472172e+01
  -8.156142e+01  -2.498678e+01
  -5.266421e+01  -1.181837e+02
   9.284386e+01  -8.663190e+01
   1.534636e+02   8.301424e+00
   4.583351e+01   6.505456e+01
  -9.564722e+01   1.145227e+01
  -2.327361e+01  -7.563187e+01
   1.240239e+02  -9.015144e+01
   2.783306e+02  -3.523926e+01
   2.819499e+02   1.429858e+02
   6.204516e+01   2.564483e+02
  -1.816194e+02   2.795725e+02
  -2.787013e+02   1.271980e+02
  -1.715209e+02  -2.438021e+01
   2.537840e+01  -1.195453e+02
   8.887797e+01   1.443259e+01
  -4.166138e+01   9.404519e+01
  -2.155512e+02   8.211341e+01
  -2.300043e+02  -6.865674e+01
  -9.243076e+01  -1.942456e+02
   8.946179e+01  -1.280295e+02
   1.557883e+02  -5.413465e+01
   1.041953e+02   4.111430e+01
   6.337813e+00  -1.155973e+01
  -3.665286e+01  -7.207529e+01
   5.862935e+01  -1.385553e+02
   1.793002e+02  -5.121875e+01
   1.907163e+02   9.189124e+01
   3.788629e+01   2.033883e+02
  -1.413203e+02   1.868285e+02
  -1.689519e+02   1.324071e+01
  -5.326623e+01  -8.624182e+01
   4.828652e+01  -1.094764e+02
   6.710616e+01  -3.981908e+01
  -1.118236e+00   2.635726e+01
   3.373201e-02   8.662886e+00
  -2.865285e+01  -3.143997e+01
   7.837439e+01   6.827448e+00
   1.011251e+02   7.990696e+01
   9.055806e+00   1.677738e+02
  -1.227095e+02   1.438047e+02
  -2.494951e+02   3.855594e+01
  -1.854701e+02  -1.836566e+02
  -2.275016e+01  -2.246611e+02
   1.201352e+02  -1.853370e+02
   1.324380e+02  -5.017018e+01
   6.416328e+01   3.713992e+01
   2.051160e+01   4.215141e+01
   5.356051e+01  -1.043713e+01
   9.691252e+01  -9.474499e+00
   4.300494e+01   4.713613e+01
  -1.236347e+01   8.188980e+01
  -1.098753e+02   6.763391e+01
  -7.784761e+01  -4.060783e+01
   3.147893e+01  -9.431546e+01
   1.556823e+02  -1.072608e+02
   2.192146e+02   4.133591e+01
   1.034007e+02   1.719076e+02
  -1.083940e+02   2.596169e+02
  -3.043715e+02   1.362303e+02
  -2.675165e+02  -1.138441e+02
  -1.318224e+02  -1.387516e+02
   3.040847e+01  -1.129367e+02
   8.562471e+01  -7.056443e+01
   5.848886e+01  -6.313719e+01
   5.448134e+01  -9.951970e+01
   7.597125e+01  -9.434312e+01
   1.285509e+02   7.494489e+00
   1.266863e+02   1.344961e+02
   2.445036e+01   2.289506e+02
  -6.822201e+01   1.805087e+02
  -1.796686e+02   2.919865e+01
  -1.232399e+02  -1.303426e+02
  -3.956651e+01  -1.838371e+02
   9.029735e+01  -8.512366e+01
   6.156301e+01   1.772344e+01
  -1.137790e+01   2.754778e+01
  -3.146977e+01   1.078963e+01
   2.687949e+01   4.204344e+00
   9.129742e+01   2.189792e+01
   4.345577e+01   3.732391e+01
  -6.936985e+01   3.200381e+01
  -1.895468e+02  -9.173023e+00
  -1.496146e+02  -6.083896e+01
  -1.276672e+01  -1.207221e+02
   1.199222e+02  -1.150103e+02
   1.575932e+02  -1.415842e+00
   5.998480e+01   6.128403e+01
  -7.373690e+01   4.734679e+01
  -8.059200e+01  -2.808340e+01
  -4.367821e+00  -9.842179e+01
   6.769161e+01  -7.000804e+01
   5.489565e+01  -2.027541e+01
   7.346962e+01   5.383491e+01
   4.051363e+01   4.282349e+01
   7.088924e+01  -2.205097e+01
   5.821850e+01   1.333781e+01
   3.576202e+01   4.731268e+01
  -1.509067e+01   1.404146e+02
  -1.051684e+02   1.518099e+02
  -1.833551e+02   3.170178e+01
  -1.217342e+02  -1.094048e+02
   2.667033e+01  -1.399589e+02
   7.702452e+01  -1.891139e+01
   5.711332e+01   2.214306e+01
  -5.327780e+01   4.624750e+01
  -1.407434e+02  -5.595018e+01
  -7.607675e+01  -1.120231e+02
   8.738275e+01  -1.272243e+02
   1.892248e+02  -6.334367e+01
   1.640414e+02   2.340827e+01
   8.243876e+01   8.320020e+01
  -6.208657e+01   5.452377e+01
  -7.454341e+01  -8.904614e+00
   4.203293e+01   2.779686e+00
   9.601244e+01   2.243025e+01
   4.664517e+01   7.966346e+01
  -1.038267e+02   1.681293e+02
  -1.659120e+02   8.162419e+01
  -1.169056e+02  -4.686246e+01
  -3.985125e+01  -1.737478e+02
   9.756089e+01  -1.588502e+02
   1.110148e+02  -3.479232e+00
   4.622943e+01   1.163045e+02
   1.716425e+01   1.156205e+02
  -6.653491e+01   3.711719e+01
  -5.408244e+01  -2.854093e+01
  -2.746333e+01   5.551123e+00
  -2.847717e+00   1.468964e+01
  -1.084671e+01   1.951751e+00
  -5.959017e+01  -6.933565e+01
  -5.402147e+01  -9.998166e+01
   4.045908e+01  -7.459083e+01
   1.327559e+02   4.489569e+01
   1.304529e+02   9.774256e+01
   3.247471e+01   6.152121e+01
  -7.544678e+01   5.588968e+01
  -6.922533e+01   4.840028e+00
   4.922774e+00  -4.895646e+01
   4.492732e+01  -4.301720e+01
   3.354978e+01   1.098036e+01
  -4.046834e+01   1.092745e+01
   2.599022e+00   1.761145e+01
   4.978638e+01   1.460000e+01
   1.029652e+02   5.120071e+00
   2.432580e+01   8.245029e+01
  -1.065540e+02   1.171514e+02
  -1.835631e+02   7.443884e+01
  -1.696605e+02  -5.468474e+01
  -1.383874e+01  -1.797489e+02
   7.316445e+01  -1.722239e+02
   1.144881e+02  -3.615375e+01
   7.687545e+01   6.103071e+00
   1.963589e+01   2.205394e+01
   6.610728e+00   6.149566e+00
   8.551443e+00   1.283419e+01
   2.639394e+01   5.084345e+01
   4.321582e+01   8.608263e+01
  -1.962781e+01   8.300734e+01
  -8.051521e+01  -1.470645e+01
  -5.940464e+01  -9.800251e+01
  -2.475319e+01  -1.069177e+02
   7.628461e+01  -2.572987e+01
   1.048157e+02   9.338438e+01
   4.726287e+01   9.788024e+01
  -7.126161e+01   5.132602e+01
  -1.073127e+02  -3.639911e+00
  -3.038360e+01  -2.891308e+01
  -5.239667e+00  -2.536336e+01
   3.719563e+01  -9.952508e+00
  -4.684823e+01  -1.329903e+01
  -5.921922e+01  -5.548240e+00
  -2.306696e+01  -3.792204e+00
   3.139134e+01  -5.692748e+01
   1.334302e+02  -5.476592e+01
   8.314791e+01  -1.048125e+00
   5.545491e+00   7.716036e+01
  -4.017922e+01   8.168653e+01
  -3.590437e+01   9.461960e+00
  -2.835668e+01  -7.954212e+01
   2.600672e+01  -5.219432e+01
   5.772262e+01   3.758667e+00
   2.837123e+01   6.259989e+01
   3.288236e-01   2.401173e+01
  -4.069818e+01  -2.357841e+01
  -3.505775e+01  -1.840181e+01
  -4.001933e+01  -1.036460e+00
  -5.648953e+00   6.092172e+00
  -1.287206e+01  -9.898889e+00
  -2.995317e-02  -3.645196e+01
  -1.969329e+01  -6.639119e+01
   4.204022e+01  -2.635477e+01
   2.821639e+01   2.332732e+01
   1.292902e+01   4.322015e+01
  -3.416656e+01   1.044199e+01
  -2.590220e+01  -3.928597e+01
  -9.711324e-01  -5.934920e+01
   6.401340e+01  -4.277409e+01
   8.440510e+01   3.361512e+01
   6.934158e+01   4.804817e+01
  -3.595430e+01   9.624509e+00
  -5.218010e+01   2.594865e+00
  -3.044515e+01   7.538169e-01
   5.982018e+00  -3.651969e+00
   8.802891e+00  -1.091027e+01
  -2.498834e+01   3.402076e+01
  -7.810494e+01  -1.045092e+00
