
 $NMID
 id='ANONYMOUS ', fmtdat='(2E16.6)'
 volume=1.0
 tramp=1.0
 $END
  -3.363236e+03  -6.454957e+01
  -1.847677e+03  -2.020384e+03
   2.900292e+02  -2.070789e+03
   1.332505e+03  -1.011613e+03
   8.057421e+02  -1.094316e+02
  -8.868578e+01   1.716363e+02
  -4.322167e+02  -2.566897e+02
  -5.397359e+01  -6.964822e+02
   5.530949e+02  -5.971576e+02
   6.471945e+02  -1.066496e+02
   4.629990e+02   5.565790e+02
  -2.884511e+01   6.141928e+02
  -3.434124e+02   6.514580e+01
  -1.915771e+02  -5.331262e+02
   2.160293e+02  -4.815535e+02
   4.068514e+02  -1.644031e+01
   2.321193e+02   5.371118e+02
  -1.420730e+02   5.123025e+02
  -4.199208e+02   1.747659e+02
  -3.510474e+02  -1.518173e+02
  -1.381708e+02  -3.556973e+02
   1.046407e+02  -2.165907e+02
   1.220985e+02  -4.194284e+01
  -1.760187e+02  -6.934274e+01
  -3.358815e+02  -2.720064e+02
  -3.434074e+01  -4.031218e+02
   4.811737e+02  -2.119023e+02
   6.962992e+02   2.067097e+02
   2.610059e+02   4.676665e+02
  -4.118931e+02   2.782339e+02
  -6.527177e+02  -1.243422e+02
  -2.085189e+02  -4.417737e+02
   2.607701e+02  -4.120560e+02
   4.583229e+02  -8.989123e+01
   3.244961e+02   2.030579e+02
   4.381138e+01   3.401397e+02
  -7.843201e+01   1.292918e+02
   4.682642e+01  -1.558858e+02
   2.257386e+02  -2.157115e+02
   2.400812e+02   1.809207e+02
  -1.904202e+01   5.398297e+02
  -2.957710e+02   4.380399e+02
  -3.731775e+02  -1.075157e+02
  -6.368239e+01  -4.127742e+02
   2.440697e+02  -1.357916e+02
   2.043451e+02   3.458552e+02
  -1.542936e+02   4.534452e+02
  -4.663907e+02   7.050935e+01
  -5.108437e+02  -4.136110e+02
  -1.269848e+02  -5.147162e+02
   3.078593e+02  -2.762006e+02
   5.309063e+02   1.224167e+02
   3.068337e+02   2.861819e+02
  -1.134986e+02   2.037198e+02
  -2.533518e+02   8.584154e+01
  -1.436792e+02  -6.323320e+01
   6.367260e+01  -2.277091e+01
   5.082205e+01   7.305203e+01
  -1.741912e+02   1.238415e+02
  -2.581773e+02  -9.930213e+01
  -1.234916e+02  -2.009961e+02
   1.726651e+02  -2.401341e+02
   3.223841e+02  -1.016547e+02
   2.256861e+02   9.304642e+01
  -2.984573e+01   2.640679e+02
  -2.392457e+02   3.060532e+02
  -3.121726e+02   1.946476e+02
  -2.490815e+02  -1.127250e+02
  -5.828035e+01  -3.894336e+02
   2.491197e+01  -3.749769e+02
   5.193555e+01  -1.396242e+02
   1.573917e+01  -1.250989e+02
   1.292337e+02  -8.890678e+01
   2.647241e+02  -4.651616e+01
   2.549690e+02   1.414546e+02
   7.985179e+01   2.878022e+02
  -1.245430e+02   1.851352e+02
  -2.085750e+02  -5.553802e+01
  -1.693124e+02  -2.206928e+02
   5.394276e+01  -2.847663e+02
   2.505279e+02  -6.400304e+01
   2.789782e+02   1.299648e+02
   1.583929e+02   3.093228e+02
  -5.396910e+01   2.217177e+02
  -1.518238e+02   1.352335e+02
  -1.211033e+02   8.266127e+01
  -1.338048e+02   1.127454e+02
  -2.818899e+02   5.508107e+01
  -3.835893e+02  -5.750100e+01
  -3.299854e+02  -3.048308e+02
   2.167288e+01  -4.421494e+02
   3.529026e+02  -3.623521e+02
   4.726879e+02  -1.725193e+02
   2.541046e+02   9.688127e+01
   2.610072e+01   2.433165e+02
  -1.236795e+02   1.791705e+02
  -1.107312e+01   1.982850e+01
   8.143210e+01  -7.082328e+01
   1.268271e+02   5.073905e+01
   1.439400e+01   1.465431e+02
  -1.608760e+02   8.314723e+01
  -1.279429e+02  -7.614812e+01
   3.880040e+01  -1.334958e+02
   1.564532e+02   8.849970e+00
   1.250457e+02   1.943546e+02
  -3.958017e+01   3.447556e+02
  -2.038877e+02   2.046938e+02
  -3.344064e+02  -7.207762e+01
  -2.385076e+02  -2.467879e+02
  -4.996757e+01  -2.716523e+02
   1.457416e+02  -1.486517e+02
   1.684031e+02   2.670219e+01
   3.744855e+01   2.074677e+01
  -5.495827e+01  -8.121940e+01
  -2.090679e+00  -1.212914e+02
   1.380674e+02  -8.086206e+01
   1.559620e+02   2.230808e+01
   4.422482e+01   5.246239e+01
  -6.841272e+01   7.037375e+00
  -3.564988e+01  -1.171429e+02
   1.433027e+02  -7.693326e+01
   3.253412e+02  -1.713618e+01
   2.615939e+02   1.508341e+02
   8.692986e+01   2.795683e+02
  -2.138350e+02   2.701631e+02
  -2.917298e+02   9.984912e+01
  -1.484786e+02  -5.380475e+01
   1.572892e+01  -1.021048e+02
   8.979536e+01   3.700562e-01
  -4.178539e+01   1.143996e+02
  -1.616688e+02   4.007713e+01
  -1.949615e+02  -1.036239e+02
  -6.163693e+01  -1.615772e+02
   1.038449e+02  -1.312319e+02
   1.273772e+02  -1.301547e+01
   4.751495e+01   4.176023e+01
  -4.325484e+01  -5.425945e+00
  -3.184940e+01  -1.016593e+02
   1.038048e+02  -1.377293e+02
   2.112554e+02  -3.692663e+01
   2.020432e+02   1.108092e+02
   3.302848e+01   2.199639e+02
  -1.493827e+02   1.949099e+02
  -1.903806e+02  -6.812999e-01
  -6.698446e+01  -9.794928e+01
   3.854425e+01  -1.137073e+02
   7.294325e+01  -2.343709e+01
  -3.504951e+01   2.401321e+01
  -2.448383e+01  -1.633412e+01
   1.627770e-01  -3.128978e+01
   7.139292e+01  -2.501332e+01
   1.185303e+02   6.901839e+01
   3.172414e+01   1.445738e+02
  -1.110679e+02   1.491052e+02
  -2.434463e+02  -9.137788e+00
  -1.814786e+02  -1.251979e+02
  -3.176471e+01  -2.387348e+02
   9.515053e+01  -1.686377e+02
   1.238344e+02  -1.467051e+01
   7.468810e+01   3.840223e+01
   2.440535e+01   1.289133e+01
   1.620048e+01  -3.006974e+01
   7.935650e+01  -1.757948e+01
   3.947595e+01   8.091308e+01
  -2.442221e+01   1.063568e+02
  -9.798457e+01   6.495366e+01
  -8.254847e+01  -4.035779e+01
  -2.470502e+00  -1.385041e+02
   1.526604e+02  -7.772257e+01
   2.093078e+02   7.798332e+01
   1.210729e+02   2.022404e+02
  -1.364252e+02   2.097078e+02
  -2.736176e+02   9.271371e+01
  -2.826845e+02  -7.527258e+01
  -9.155993e+01  -1.788791e+02
   3.802349e+01  -1.433607e+02
   9.114233e+01  -8.158043e+01
   7.187230e+01  -5.354874e+01
   8.876698e+01  -1.060213e+02
   1.379172e+02  -6.853525e+01
   1.275946e+02   2.306792e+01
   1.206376e+02   1.590538e+02
   5.034890e+00   2.077254e+02
  -9.855626e+01   1.824664e+02
  -1.715406e+02   8.722547e+00
  -1.047997e+02  -1.327317e+02
   4.760177e+00  -1.311316e+02
   6.211804e+01  -5.999415e+01
   2.186665e+01   3.384439e+00
   7.851630e+00   4.600942e+01
  -1.903681e+01   3.931498e+00
   6.397917e+01   1.771393e+01
   8.673329e+01   4.043984e+01
   5.664654e+01   4.330102e+01
  -5.517613e+01   3.202238e+01
  -1.761680e+02   2.296512e+01
  -1.436409e+02  -5.762590e+01
  -1.107272e+01  -1.093301e+02
   1.165123e+02  -6.231402e+01
   1.412207e+02   2.636880e+00
   4.761656e+01   4.555368e+01
  -7.773979e+01   4.168985e+01
  -8.580864e+01  -2.653887e+01
   7.619135e+00  -7.554211e+01
   6.770711e+01  -7.094765e+01
   4.990624e+01   1.229586e+01
   4.381560e+01   6.205366e+01
   3.670463e+01   5.617001e+01
   6.972662e+01  -9.306828e+00
   7.243701e+01  -1.966918e+01
   4.800399e+01   5.844092e+01
  -2.659116e+01   1.653591e+02
  -1.305580e+02   1.653548e+02
  -1.919262e+02   1.834517e+01
  -1.502503e+02  -1.215050e+02
   1.718631e+01  -1.344979e+02
   8.747856e+01  -7.676675e+01
   1.035685e+02   7.698489e+00
  -5.699509e+01   4.100252e+01
  -1.284381e+02  -2.859250e+01
  -8.960261e+01  -7.636698e+01
   5.389270e+01  -1.036720e+02
   1.611560e+02  -5.951222e+01
   1.329520e+02   1.613197e+01
   5.919185e+00   8.060732e+01
  -7.713604e+01   7.133061e+01
  -4.722426e+01   7.430506e+00
   5.228915e+01  -5.143535e+01
   9.852428e+01   3.333161e+01
   5.722360e+01   1.190262e+02
  -8.589494e+01   1.420885e+02
  -1.732186e+02   7.110055e+01
  -1.251763e+02  -8.618872e+01
  -1.341497e+01  -1.998302e+02
   9.274456e+01  -1.565025e+02
   9.489134e+01   2.457700e+01
   3.919236e+01   1.122143e+02
   1.206492e+01   9.474734e+01
  -4.132751e+01   1.766706e+01
  -1.935819e+01  -2.460413e+01
  -4.301035e+01  -1.556350e+01
  -2.960189e+01   1.296149e+00
  -3.102593e+01  -6.408430e+00
  -5.201955e+01  -6.593027e+01
  -1.592520e+01  -1.424894e+02
   3.930089e+01  -4.837789e+01
   1.222437e+02   4.391073e+01
   1.100205e+02   6.051797e+01
   1.191043e+01   5.800567e+01
  -8.686463e+01   4.072094e+01
  -9.351272e+01   2.100893e+01
  -1.454229e+01  -3.035775e+01
   4.773134e+01   4.424347e+00
   6.590333e+00   1.187384e+01
  -5.610180e+00  -1.652751e+01
  -1.789079e+01  -1.228907e+01
   4.762049e+01  -2.478951e+01
   8.402876e+01   6.779027e+00
   2.460636e+01   8.036403e+01
  -1.049740e+02   1.158775e+02
  -1.956499e+02   7.322978e+01
  -1.520674e+02  -2.265100e+01
  -3.828609e+01  -1.097246e+02
   7.995796e+01  -1.532867e+02
   1.103756e+02  -7.521790e+01
   5.680520e+01   1.924936e+01
   2.269067e+01   1.302187e+01
   9.826551e+00  -1.099384e+01
   3.067465e+01  -4.802098e+00
   1.512246e+01   6.317434e+01
   1.873607e+01   8.013598e+01
  -4.970997e+01   8.203861e+01
  -8.857915e+01  -1.865277e+01
  -1.243964e+02  -1.170998e+02
  -1.223699e+01  -7.887043e+01
   8.271864e+01  -4.166547e+01
   9.577386e+01   8.140092e+01
   5.519990e+01   6.886445e+01
  -5.273883e+01   3.539592e+01
  -1.108134e+02   1.351291e+01
  -3.750526e+01  -2.076692e+01
   4.153915e+01  -5.807779e+01
   1.904820e+00  -3.016422e+01
  -2.542460e+01   6.033721e+00
  -5.067980e+01   6.558065e+00
  -1.344462e+00  -5.177936e-01
   7.032008e+01  -6.268347e+01
   7.974105e+01  -4.775542e+01
   6.769946e+01   2.040720e+01
   7.646879e+00   6.253378e+01
  -3.978727e+01   9.818477e+01
  -4.531583e+01  -1.455888e+00
  -9.888792e+00  -4.225221e+01
   5.795573e+00  -3.854271e+01
   6.289278e+00   7.923558e+00
   2.861881e+01   4.657648e+01
  -7.315366e+00   4.688093e+01
  -2.590940e+01   1.416689e+01
  -6.134793e+01  -1.563339e+01
  -1.942232e+01  -5.840230e+00
   8.693466e+00  -1.744053e+01
   7.621799e+00  -1.036522e+01
   1.099585e+01  -4.816378e+01
  -1.655656e+01  -7.562251e+01
   9.935228e+00  -1.993792e+01
   2.011411e+01   3.516199e+01
   2.225479e+00   6.005233e+01
  -4.536729e+01   3.681044e+01
  -4.276795e+01  -1.863511e+01
  -3.075282e+01  -9.028339e+01
   5.208059e+01  -7.136606e+01
   9.543062e+01  -4.640283e+00
   7.048106e+01   2.881111e+01
  -1.019472e+01   3.268722e+01
  -8.273294e+01   3.251202e+01
  -9.269546e+00  -5.352968e+00
   1.299106e+01  -1.637663e+01
   3.882662e+01  -1.327885e+01
  -1.179195e+01   3.346568e+01
  -9.948376e+01   7.022970e-01
