
 $NMID
 id='ANONYMOUS ', fmtdat='(2E16.6)'
 volume=1.0
 tramp=1.0
 $END
  -4.034314e+03  -1.600720e+02
  -2.477229e+03  -2.039403e+03
   8.087345e+02  -2.343663e+03
   2.046192e+03  -8.603390e+02
   8.701477e+02   4.922753e+02
  -5.509222e+02   5.273793e+02
  -8.532499e+02  -4.174683e+02
  -1.969290e+01  -9.542070e+02
   7.568097e+02  -7.337066e+02
   9.211580e+02   2.891797e+01
   4.191722e+02   8.014842e+02
  -2.357488e+02   8.702752e+02
  -6.094823e+02   1.014123e+02
  -3.673770e+02  -6.531283e+02
   3.213508e+02  -7.336645e+02
   5.856650e+02   1.033391e+01
   2.631874e+02   6.767579e+02
  -2.702850e+02   6.700400e+02
  -5.717987e+02   1.530853e+02
  -4.065268e+02  -3.298973e+02
  -4.002784e+01  -4.774453e+02
   2.461976e+02  -2.649708e+02
   1.961406e+02  -2.037863e+01
  -1.515004e+02   6.807722e+01
  -4.021895e+02  -1.342221e+02
  -1.670071e+02  -4.023600e+02
   4.601709e+02  -3.438654e+02
   7.735666e+02   1.049397e+02
   3.376855e+02   4.793912e+02
  -3.602370e+02   3.886204e+02
  -6.840288e+02  -1.038982e+02
  -2.890495e+02  -4.623639e+02
   2.981266e+02  -4.899947e+02
   5.954891e+02  -1.430269e+02
   3.851666e+02   2.289711e+02
   6.157391e+01   4.251567e+02
  -1.967856e+02   2.368533e+02
  -1.149275e+02  -1.839868e+02
   2.294784e+02  -3.691939e+02
   3.650831e+02   7.291017e+01
   1.689951e+02   6.203821e+02
  -2.912464e+02   5.848897e+02
  -5.062883e+02   2.798894e+00
  -1.859658e+02  -4.523102e+02
   2.593989e+02  -2.692950e+02
   3.041644e+02   3.235817e+02
  -9.994006e+01   5.219633e+02
  -4.921343e+02   1.362262e+02
  -5.428463e+02  -4.007203e+02
  -7.862779e+01  -5.706272e+02
   4.048087e+02  -3.301625e+02
   5.340225e+02   1.206603e+02
   3.776948e+02   3.854266e+02
  -1.868530e+02   3.609794e+02
  -3.874103e+02   5.741645e+01
  -2.424751e+02  -1.453016e+02
   8.451648e+01  -6.136324e+01
   1.311682e+02   9.793536e+01
  -1.455745e+02   1.509465e+02
  -2.967104e+02  -3.202645e+01
  -1.206275e+02  -2.294541e+02
   1.995326e+02  -2.539604e+02
   3.285498e+02  -8.371341e+01
   2.206780e+02   1.252874e+02
  -2.575238e+01   2.722098e+02
  -2.271569e+02   3.459924e+02
  -3.496096e+02   1.938641e+02
  -2.558116e+02  -1.686584e+02
  -7.250359e+01  -4.360679e+02
   1.241863e+02  -3.488692e+02
   9.738794e+01  -7.584898e+01
   4.606067e+01  -2.672017e+01
   7.985098e+01  -6.147011e+01
   1.828131e+02  -1.073133e+02
   2.535284e+02   6.421571e+01
   1.153847e+02   2.665237e+02
  -6.586790e+01   2.180809e+02
  -2.485055e+02   1.541452e+01
  -1.864095e+02  -2.624803e+02
   2.227821e+01  -2.964545e+02
   3.065998e+02  -1.202010e+02
   3.509454e+02   1.549830e+02
   1.771574e+02   3.207711e+02
  -8.369236e+01   2.842992e+02
  -2.261364e+02   1.089473e+02
  -1.520054e+02  -4.776895e+00
  -1.196205e+02   2.091530e+01
  -2.570963e+02   5.800771e+01
  -4.105644e+02  -2.409954e+01
  -2.938672e+02  -2.619320e+02
   4.378476e+01  -4.428556e+02
   3.760717e+02  -3.931551e+02
   5.159030e+02  -1.700182e+02
   3.198525e+02   8.912789e+01
   5.512920e+01   3.156018e+02
  -1.297510e+02   2.273050e+02
  -6.936298e+01   6.552215e+01
   1.141205e+02  -8.341509e+01
   1.766371e+02  -1.571836e+00
   8.323528e+01   1.383558e+02
  -1.427504e+02   9.873771e+01
  -1.294636e+02  -6.493027e+01
   5.717625e+01  -1.655840e+02
   2.013745e+02   3.570671e+00
   1.701081e+02   2.919400e+02
  -3.148187e+01   3.849361e+02
  -2.053756e+02   1.795893e+02
  -2.919194e+02  -6.346905e+01
  -2.835623e+02  -2.306480e+02
  -8.015738e+01  -3.050466e+02
   1.460946e+02  -1.287058e+02
   1.750560e+02   7.411683e+00
   5.924440e+01   3.054376e+01
  -5.265460e+01  -4.347944e+01
   1.366791e+00  -1.272439e+02
   1.550206e+02  -1.218865e+02
   1.725222e+02   4.085428e+01
   3.963812e+01   7.305454e+01
  -9.171965e+01   4.408254e+00
  -3.927820e+01  -8.753463e+01
   1.507365e+02  -8.623138e+01
   3.105104e+02  -2.632806e+01
   2.568342e+02   1.843412e+02
   3.675066e+01   2.638227e+02
  -2.292572e+02   2.529928e+02
  -3.198169e+02   9.319153e+01
  -1.551639e+02  -5.915039e+01
   3.756377e+01  -7.475045e+01
   7.118423e+01   1.773232e+01
  -5.222556e+01   1.016294e+02
  -1.640582e+02   5.167459e+01
  -2.040802e+02  -1.054751e+02
  -4.948014e+01  -2.235159e+02
   9.145617e+01  -1.593230e+02
   1.285761e+02  -2.541788e+01
   4.648667e+01   2.772927e+01
  -4.353697e+01  -1.109694e+01
   2.505747e+00  -9.615235e+01
   8.703957e+01  -1.295779e+02
   1.946856e+02   2.415790e+01
   1.683071e+02   1.338021e+02
   6.208255e+00   2.169143e+02
  -1.556004e+02   1.314943e+02
  -1.533836e+02   1.155105e+00
  -3.821406e+01  -9.627373e+01
   6.731835e+01  -9.293308e+01
   8.218993e+01  -1.807050e+01
   1.559409e+01  -9.414220e+00
  -4.693131e+01  -2.424638e+01
   4.767660e+00  -3.500711e+01
   5.444705e+01   2.109588e+01
   9.642455e+01   8.208255e+01
   1.206484e+01   1.544878e+02
  -1.407317e+02   1.623762e+02
  -2.449880e+02  -5.280592e+00
  -1.754310e+02  -1.769865e+02
  -3.624207e+01  -2.432613e+02
   8.003111e+01  -1.663192e+02
   1.285005e+02   1.953236e+00
   7.302711e+01   2.733499e+01
   4.412192e+01   1.225369e+01
   6.862377e+01   9.986031e+00
   7.098540e+01  -5.096195e+00
   6.108632e+01   6.890940e+01
  -2.656267e+01   8.942764e+01
  -1.043317e+02   6.146150e+01
  -9.368630e+01  -2.305377e+01
   3.240719e+01  -1.252763e+02
   1.437227e+02  -7.509422e+01
   2.115192e+02   6.580077e+01
   6.387973e+01   2.173445e+02
  -1.174544e+02   2.335409e+02
  -2.757783e+02   9.660903e+01
  -2.461924e+02  -9.917141e+01
  -8.151521e+01  -1.810858e+02
   6.063459e+01  -1.135880e+02
   9.151370e+01  -9.873610e+01
   5.038628e+01  -1.656248e+01
   3.162677e+01  -5.660732e+01
   9.991600e+01  -7.817312e+01
   1.281880e+02   5.933760e+00
   1.367243e+02   1.392882e+02
   1.741662e+01   2.285194e+02
  -9.399334e+01   1.802474e+02
  -1.615774e+02  -5.668052e+00
  -1.312854e+02  -1.412756e+02
   1.966943e+00  -1.687362e+02
   9.086502e+01  -1.084264e+02
   5.062342e+01   2.350642e+01
  -7.468152e+00   5.576327e+01
  -3.678142e+01   1.097915e+01
   3.644097e+01  -1.857414e+01
   1.087958e+02   3.052545e+01
   3.339135e+01   4.369783e+01
  -6.894601e+01   5.902156e+01
  -1.464097e+02   1.297055e+01
  -1.149344e+02  -9.305382e+01
   2.644731e+01  -7.858216e+01
   1.194321e+02  -6.114022e+01
   1.165010e+02   2.109263e+01
   5.443269e+01   4.268670e+01
  -6.122908e+01   5.315714e+01
  -7.678641e+01   5.785493e+00
  -2.351078e+01  -7.942487e+01
   3.089713e+01  -4.266302e+01
   2.072224e+01   1.773800e+01
   3.913703e+01   3.602526e+00
   4.809044e+01   3.867819e+01
   8.420162e+01  -2.013321e+01
   8.048793e+01   1.148830e+01
   4.285916e+01   1.018463e+02
  -2.452890e+01   1.545314e+02
  -1.325042e+02   1.222333e+02
  -1.868621e+02   3.140793e+01
  -1.005876e+02  -1.238006e+02
   5.508996e+00  -1.344933e+02
   8.287363e+01  -4.904274e+01
   6.571535e+01   3.845598e+01
  -7.008519e+01   3.587154e+00
  -1.203176e+02  -3.850063e+01
  -6.130011e+01  -1.103319e+02
   1.092786e+02  -1.126369e+02
   1.906836e+02  -3.644566e+01
   1.560750e+02   5.562535e+01
   9.528569e+00   8.066105e+01
  -7.142779e+01   8.786333e+01
  -3.155998e+01  -3.277730e+00
   5.677642e+01  -1.860328e+01
   8.281415e+01   2.488769e+01
   6.551134e+01   1.294431e+02
  -8.850869e+01   1.138606e+02
  -1.577878e+02   3.391029e+01
  -1.264724e+02  -1.081463e+02
  -3.698839e+00  -1.951264e+02
   9.558197e+01  -1.677680e+02
   1.040843e+02   3.321441e+00
   5.345440e+01   1.110455e+02
  -3.343476e+01   7.970681e+01
  -2.459553e+01   2.330165e+01
  -5.389243e+01  -1.952434e+01
  -1.183289e+01  -6.919371e+00
  -3.747711e+01   1.450890e+01
  -2.535561e+01  -1.513637e+01
  -7.036349e+01  -1.184542e+02
  -2.488784e+01  -1.283995e+02
   8.516258e+01  -8.097698e+00
   1.538981e+02   4.880678e+01
   1.155485e+02   7.930693e+01
  -5.863313e+00   5.494477e+01
  -1.095075e+02  -1.148651e+01
  -8.363934e+01  -4.456317e+01
   2.044811e+01   1.118335e+00
   6.154972e+01   6.035529e+00
   1.541195e+01   2.353845e+00
  -4.979233e+00  -9.143917e+00
  -1.830266e+01   1.244575e+00
   6.711557e+01  -9.130854e+00
   7.972202e+01   1.923916e+01
   8.600281e+00   6.562001e+01
  -9.256588e+01   1.175243e+02
  -1.681533e+02   4.481232e+01
  -1.197640e+02  -7.523747e+01
  -2.689614e+01  -1.666926e+02
   6.461544e+01  -1.578154e+02
   1.086648e+02  -6.452779e+01
   6.922241e+01   3.774033e+01
   2.715175e+01   3.926140e+01
   5.031775e+00  -8.687584e+00
  -3.049341e+00  -1.459454e+01
   2.190106e+01   5.312561e+01
   5.460616e+00   5.790703e+01
  -5.009868e+01   8.404176e+01
  -8.097333e+01  -4.284191e+01
  -5.757319e+01  -8.201362e+01
   1.905524e+01  -1.253388e+02
   5.527588e+01  -7.995620e+00
   8.333984e+01   9.035108e+01
   2.611096e+01   7.244478e+01
  -8.535456e+01   2.895444e+01
  -1.017474e+02  -2.735439e+01
  -1.558988e+01  -4.418525e+01
   2.222843e+01  -5.133888e+01
   4.153918e+01  -1.483250e+01
  -1.624938e+01   9.233188e+00
  -7.275027e+01   2.021356e+00
  -1.567150e+01  -4.852111e+01
   7.529478e+01  -4.115736e+01
   1.448013e+02  -7.278955e+01
   7.726714e+01   2.190151e+01
  -2.954150e+01   5.517434e+01
  -2.818762e+01   7.875164e+01
  -5.714125e+01   4.524929e+00
  -9.733471e-01  -1.854663e+01
   3.332999e+01  -4.358308e+01
   1.577189e+01   4.287907e+01
   1.143447e+01   3.755221e+01
  -1.839988e+01   3.746774e+01
  -3.097147e+01  -1.824806e+01
  -4.317961e+01  -2.882737e+01
   5.730778e+00   2.470635e+01
   4.518404e+01   3.033370e+01
  -1.656791e+01   6.736837e+00
  -1.663086e+01  -3.877373e+01
   1.108128e-01  -6.046468e+01
   5.323573e+01   5.935306e+00
   3.418383e+01   5.273970e+01
   1.761715e+01   5.336612e+01
  -4.299603e+01   2.235006e+01
  -4.334831e+01  -4.741948e+01
  -1.361045e+01  -5.501374e+01
   5.944716e+01  -3.027810e+01
   9.797541e+01   4.052251e+01
   4.088405e+01   7.183665e+01
  -1.685005e+01   4.844671e+01
  -7.130180e+01   3.312491e+00
  -1.699243e+01   2.736004e+01
   1.947013e+00  -1.638873e+01
   3.192583e+01   1.365928e+00
  -2.918478e+01   4.131910e+01
  -7.570647e+01   1.476101e+01
