
 $NMID
 id='ANONYMOUS ', fmtdat='(2E16.6)'
 volume=1.0
 tramp=1.0
 $END
   4.134305e+03   5.081482e+01
   2.658196e+03   2.425256e+03
  -8.803630e+02   2.741061e+03
  -1.892178e+03   7.897511e+02
  -9.837640e+02  -6.545226e+02
   5.856611e+02  -6.311998e+02
   8.019168e+02   4.189849e+02
   4.997384e+01   1.063919e+03
  -8.657283e+02   8.076853e+02
  -9.769637e+02  -1.069807e+02
  -4.481605e+02  -8.417095e+02
   3.315184e+02  -9.174082e+02
   7.011467e+02  -8.188103e+01
   3.484198e+02   7.582706e+02
  -3.768825e+02   7.118723e+02
  -6.162030e+02  -3.757211e+01
  -2.509345e+02  -7.730222e+02
   3.719850e+02  -6.829936e+02
   6.501159e+02  -3.976672e+01
   3.713939e+02   3.966636e+02
  -2.644966e+01   4.750605e+02
  -2.915080e+02   2.786527e+02
  -1.949718e+02  -1.897615e+01
   1.528424e+02  -1.044660e+02
   4.528728e+02   1.389458e+02
   1.776850e+02   4.425070e+02
  -4.277069e+02   3.954318e+02
  -8.291911e+02  -7.307129e+01
  -4.139730e+02  -5.504168e+02
   3.493498e+02  -4.130068e+02
   7.117784e+02   1.365838e+02
   3.008974e+02   5.003028e+02
  -3.033792e+02   4.994316e+02
  -6.280736e+02   1.876415e+02
  -4.012443e+02  -2.705384e+02
  -3.486141e+01  -4.661909e+02
   2.888873e+02  -2.702595e+02
   2.127966e+02   2.332994e+02
  -1.953395e+02   4.279331e+02
  -3.979529e+02   3.529932e+01
  -2.069863e+02  -6.735973e+02
   3.043823e+02  -6.590054e+02
   5.660780e+02  -3.980488e+01
   2.679091e+02   4.982996e+02
  -2.880246e+02   3.516102e+02
  -3.838072e+02  -3.402993e+02
   7.855358e+01  -5.798821e+02
   5.635880e+02  -1.335746e+02
   5.376788e+02   4.413426e+02
   9.872501e+01   5.932293e+02
  -3.808596e+02   3.355964e+02
  -6.147922e+02  -1.042678e+02
  -3.381430e+02  -4.264812e+02
   1.851277e+02  -3.529869e+02
   4.245185e+02  -7.725998e+00
   2.307295e+02   2.673533e+02
  -1.334286e+02   1.072029e+02
  -1.675173e+02  -1.683203e+02
   1.355679e+02  -1.790902e+02
   2.905492e+02   5.607178e+01
   1.222193e+02   2.712881e+02
  -2.171587e+02   2.080677e+02
  -3.039546e+02   7.687381e+01
  -2.354351e+02  -1.413783e+02
   4.372054e+01  -2.319898e+02
   2.542073e+02  -3.298779e+02
   3.777927e+02  -2.344325e+02
   2.806303e+02   1.999079e+02
   4.501313e+01   4.717297e+02
  -1.373688e+02   3.418168e+02
  -1.169715e+02   1.087272e+02
  -2.487832e+01  -1.572637e+01
  -1.027807e+01   3.949941e+01
  -1.644578e+02   9.419015e+01
  -2.769293e+02  -8.453852e+01
  -1.591933e+02  -2.635790e+02
   6.252939e+01  -2.482801e+02
   2.072181e+02  -5.992747e+00
   1.879436e+02   2.501484e+02
  -3.656536e+01   2.707941e+02
  -3.038463e+02   8.890126e+01
  -3.534794e+02  -1.774080e+02
  -1.763476e+02  -3.347924e+02
   9.862175e+01  -3.097339e+02
   2.478438e+02  -1.160206e+02
   1.306861e+02   1.120277e+01
   1.230967e+02   8.647957e+00
   2.318246e+02  -7.169071e+01
   4.255151e+02   6.153319e+01
   3.429879e+02   2.631479e+02
  -1.365903e+00   4.549917e+02
  -3.319869e+02   3.777715e+02
  -4.856598e+02   1.237323e+02
  -2.825373e+02  -8.763354e+01
  -1.448116e+01  -2.999729e+02
   1.409159e+02  -2.290288e+02
   1.045685e+02  -3.710986e+01
  -1.339042e+02   7.981189e+01
  -2.103314e+02   2.058038e+01
  -3.668602e+01  -1.374495e+02
   1.273349e+02  -1.604864e+02
   1.525481e+02   4.447418e+01
  -2.893930e+01   2.027171e+02
  -2.149739e+02   2.096699e+01
  -1.592491e+02  -2.621957e+02
   8.910633e+01  -3.188156e+02
   2.405704e+02  -1.679416e+02
   3.247312e+02   4.643660e+01
   3.058324e+02   2.348067e+02
   1.041902e+02   2.540785e+02
  -1.269579e+02   1.669055e+02
  -1.914661e+02  -5.648087e+00
  -5.947148e+01  -5.033180e+01
   4.477393e+01   4.608404e+01
   1.433219e+01   1.255702e+02
  -1.498899e+02   1.126499e+02
  -1.721580e+02  -7.334748e+01
  -4.599476e+01  -7.375692e+01
   8.057925e+01  -2.736960e+01
   4.171537e+01   6.009938e+01
  -1.349458e+02   6.457207e+01
  -2.555420e+02   2.184747e+01
  -2.243645e+02  -1.493348e+02
  -3.206370e+01  -2.420020e+02
   1.697954e+02  -2.730554e+02
   3.347755e+02  -1.095806e+02
   1.628471e+02   4.670699e+01
  -4.476542e+01   1.051728e+02
  -8.500381e+01   5.999240e+00
   5.065549e+01  -9.600060e+01
   1.891666e+02  -6.012581e+01
   1.977697e+02   1.001689e+02
   2.752821e+01   2.185119e+02
  -8.852602e+01   1.465491e+02
  -1.472581e+02   3.753971e+01
  -6.245919e+01  -6.309106e+01
   4.934031e+01   2.925075e+01
   3.683433e+01   1.191670e+02
  -7.972306e+01   1.157178e+02
  -1.664304e+02   2.893467e+01
  -1.688792e+02  -1.532944e+02
  -1.097727e+01  -2.063248e+02
   1.476250e+02  -1.738434e+02
   1.970116e+02  -4.041753e+00
   7.695563e+01   1.518879e+02
  -4.629478e+01   9.137288e+01
  -1.196310e+02   4.404805e+01
  -3.717945e+01  -2.861146e+01
   8.032059e+00  -2.366557e+01
  -2.008999e+01  -1.435894e+01
  -8.623806e+01   8.363773e+00
  -9.788579e+01  -9.299026e+01
   1.556842e+00  -1.450857e+02
   1.234077e+02  -1.352175e+02
   2.087242e+02  -2.934719e+01
   2.211062e+02   1.414292e+02
   5.354845e+01   2.530895e+02
  -1.249521e+02   1.730485e+02
  -1.499012e+02  -6.516219e+00
  -6.156608e+01  -4.714379e+01
  -5.203591e+01  -3.835757e+00
  -5.975268e+01  -6.153824e+00
  -9.771662e+01   1.133263e+01
  -4.211655e+01  -2.866032e+01
   5.191436e+01  -5.279348e+01
   7.389809e+01  -2.811815e+01
   7.293613e+01   2.363688e+01
  -2.842117e+01   6.886113e+01
  -1.400604e+02   1.036978e+02
  -2.112667e+02  -5.707162e+01
  -1.192867e+02  -2.170418e+02
   1.010215e+02  -1.949612e+02
   2.759654e+02  -1.065260e+02
   2.435746e+02   1.190568e+02
   3.718653e+01   1.779014e+02
  -4.979881e+01   8.929976e+01
  -9.329657e+01   7.830858e+01
  -4.638313e+01   6.931396e+01
  -6.685600e+01   5.653310e+01
  -1.043765e+02   7.536740e+01
  -1.054817e+02  -3.687329e+01
  -9.191007e+01  -1.529029e+02
  -8.792197e+00  -2.004237e+02
   9.261317e+01  -1.182052e+02
   1.711303e+02  -3.299116e+01
   1.042094e+02   1.255841e+02
   8.022548e+00   1.390258e+02
  -8.899765e+01   9.164484e+01
  -6.925256e+01   1.985547e+01
  -6.809678e+00  -2.642387e+01
   3.634509e+01  -2.941589e+01
  -2.184457e+00   1.273735e+01
  -7.775441e+01  -3.528089e+01
  -3.678272e+01  -2.594877e+01
   5.459273e+01  -3.410793e+00
   1.297603e+02   7.161320e+00
   9.887648e+01   1.576199e+01
   4.600967e-03   8.850719e+01
  -1.046727e+02   6.945900e+01
  -1.359728e+02  -8.963678e+00
  -3.868436e+01  -5.235742e+01
   3.035478e+01  -4.615454e+01
   7.642461e+01   1.244221e+01
  -3.515200e+00   7.185515e+01
  -4.028465e+01   6.110740e+01
  -4.512843e+01  -7.598800e+00
  -1.508637e+01  -3.417002e+01
  -3.475066e+01  -5.236187e+01
  -7.789145e+01  -3.994803e+00
  -8.428228e+01  -1.847998e+01
  -4.185690e+01  -9.611923e+01
   4.165886e+01  -1.255079e+02
   1.133615e+02  -1.100069e+02
   1.246352e+02  -2.771027e+01
   1.240482e+02   8.525038e+01
  -4.598056e+00   1.399146e+02
  -9.718246e+01   3.352457e+01
  -6.510590e+01  -3.913994e+00
   8.028810e+01  -8.693154e+00
   1.194401e+02   3.450216e+01
   6.283183e+01   9.631184e+01
  -8.202577e+01   1.152613e+02
  -1.712886e+02   3.743529e+01
  -1.673191e+02  -4.955727e+01
  -2.462254e+01  -8.784875e+01
   5.731870e+01  -4.504828e+01
   2.633286e+01   2.205790e+01
  -4.602262e+01  -1.091276e+01
  -5.620340e+01  -5.036075e+01
  -3.233306e+01  -1.148056e+02
   1.021961e+02  -1.349166e+02
   1.402533e+02  -2.971937e+01
   1.002353e+02   8.356661e+01
   2.418980e+01   1.775733e+02
  -7.475801e+01   1.390969e+02
  -1.266774e+02   2.105203e+00
  -4.542399e+01  -1.203640e+02
   1.947907e+01  -1.443244e+02
   5.884996e+01  -2.079513e+01
   4.890129e+01   5.038498e+01
   1.176085e+01   2.857738e+01
   1.369478e+01  -1.061927e+01
   9.466635e+00   1.959553e+00
   5.757920e+01   9.167546e+01
   2.746077e+01   1.395677e+02
  -3.458485e+01   4.388751e+01
  -1.268112e+02  -2.511337e+01
  -1.295557e+02  -6.036227e+01
  -3.833877e+01  -4.621253e+01
   7.547688e+01  -3.055546e+00
   8.900471e+01   9.328895e+00
   1.320680e+01  -1.283347e+01
  -4.115244e+01   2.406203e+00
   4.928658e-03   2.447267e+01
   4.025500e+01  -1.398598e+01
   2.626025e+00  -1.078600e+00
  -4.525140e+01  -7.956172e+00
  -1.085237e+02  -1.827382e+01
   1.631631e+01  -8.375435e+01
   1.207951e+02  -8.197786e+01
   1.617909e+02  -5.443610e+01
   1.303765e+02   7.137525e+01
   8.156245e+00   1.508618e+02
  -7.706369e+01   1.396675e+02
  -1.038423e+02   5.449339e+01
  -7.753726e+01  -8.648379e+00
  -2.044325e+01  -2.487655e+01
  -2.805817e+00   1.496978e+01
  -2.437343e+01   4.969717e+00
  -4.512996e+01  -3.731783e+01
  -2.198696e+01  -9.909929e+01
   3.907942e+01  -8.427154e+01
   8.111153e+01   3.196883e+01
   5.433718e+01   1.093800e+02
  -1.052367e+01   1.214674e+02
  -9.052821e+01   4.057774e+01
  -7.653364e+01  -9.767699e+01
  -2.199281e+00  -9.622822e+01
   8.115375e+01  -2.351705e+01
   8.406254e+01   2.130859e+01
   2.506768e+01   3.707411e+01
  -3.657308e+01   4.860682e+01
  -2.024917e+01   2.880681e+01
   3.056611e+01  -2.091639e+01
   7.590834e+01   9.720146e+00
   1.164604e+01   4.672778e+01
  -9.193699e+01   5.675438e+01
  -1.111011e+02   5.091358e+01
  -8.922791e+01  -3.246234e+01
   2.697680e+01  -7.194929e+01
   6.064160e+01  -7.805978e+01
   2.811919e+01  -4.776556e+00
  -3.628672e+01   7.002190e+01
  -4.645577e+01   4.206802e+01
  -2.005643e+01  -4.948550e+01
  -7.450172e+00  -7.180396e+01
   6.540228e+00  -3.937222e+01
   3.465616e+01   2.850338e+01
   4.472648e+01   1.571776e+01
   1.642098e+01  -1.018114e+01
   7.402017e+00  -3.099317e+01
  -3.879912e+00   4.730941e+00
   1.160828e+00   3.038117e+01
  -1.149267e+01   4.876542e+01
  -4.053688e+01  -1.039180e+01
  -2.831111e+01  -4.618899e+01
  -7.456895e+00  -9.427358e+01
   4.570437e+01  -3.079250e+01
   5.016522e+01   4.407142e+01
   3.914480e+00   5.419858e+01
  -6.376898e+01   6.580050e+00
  -8.877458e+01  -2.956209e+01
  -2.015812e+01  -3.882887e+01
   1.021837e+01  -3.976531e+01
   6.958260e+01  -2.498419e+00
  -6.424779e+00  -2.681132e+01
  -1.438718e+01   1.143663e+01
  -4.278163e+01   2.493526e+00
   3.755906e+01  -3.417292e+01
   7.254566e+01  -1.361152e+01
