
 $NMID
 id='ANONYMOUS ', fmtdat='(2E16.6)'
 volume=1.0
 tramp=1.0
 $END
  -4.974609e+03   2.996245e+02
  -2.823502e+03  -2.380791e+03
   5.910754e+02  -2.919742e+03
   2.015837e+03  -1.275748e+03
   1.034841e+03   4.825263e+02
  -4.433336e+02   5.335738e+02
  -8.781961e+02  -2.257174e+02
   1.373964e+01  -9.814217e+02
   8.523567e+02  -8.063929e+02
   9.883324e+02   2.493066e+01
   4.783581e+02   8.868472e+02
  -1.243886e+02   9.381469e+02
  -6.438813e+02   1.536153e+02
  -4.116334e+02  -7.194443e+02
   1.955464e+02  -7.302412e+02
   5.998314e+02  -6.611464e+01
   3.291291e+02   6.514085e+02
  -2.721833e+02   6.802385e+02
  -5.707034e+02   1.414709e+02
  -4.207313e+02  -2.833993e+02
  -8.787433e+01  -4.179707e+02
   1.861488e+02  -2.491218e+02
   1.856960e+02  -6.480330e+01
  -1.361873e+02   1.884710e+01
  -3.287115e+02  -1.511374e+02
  -1.198603e+02  -4.373431e+02
   4.638150e+02  -3.426197e+02
   8.585400e+02   4.140777e+01
   3.897789e+02   5.361843e+02
  -3.440453e+02   4.790474e+02
  -7.706628e+02   9.137909e+00
  -3.660595e+02  -4.541264e+02
   2.840055e+02  -5.157970e+02
   5.790667e+02  -2.336662e+02
   4.238769e+02   1.954523e+02
   7.954781e+01   4.409662e+02
  -1.863168e+02   2.806385e+02
  -2.318722e+02  -1.782938e+02
   1.341701e+02  -3.876984e+02
   4.267334e+02   1.678841e+01
   1.921843e+02   6.262356e+02
  -3.449912e+02   6.986893e+02
  -6.061622e+02   4.174249e+01
  -2.227010e+02  -5.583872e+02
   2.956496e+02  -3.086420e+02
   3.734917e+02   2.756480e+02
  -8.558497e+01   5.101091e+02
  -4.920083e+02   1.735447e+02
  -5.950435e+02  -3.608055e+02
  -1.858003e+02  -5.321241e+02
   3.561228e+02  -3.980281e+02
   6.573826e+02   5.157804e+01
   4.164312e+02   3.146978e+02
  -9.402450e+01   4.013953e+02
  -4.359867e+02   7.576931e+01
  -2.757717e+02  -1.659420e+02
   9.886254e+01  -1.534079e+02
   1.799559e+02   1.154114e+02
  -1.584323e+02   1.760150e+02
  -3.416401e+02  -6.575982e+01
  -1.763190e+02  -2.960569e+02
   1.952180e+02  -2.590444e+02
   3.695766e+02  -9.067360e+01
   2.271167e+02   8.338600e+01
   2.170763e+00   2.108585e+02
  -2.146502e+02   3.007754e+02
  -3.479112e+02   1.873281e+02
  -2.600433e+02  -1.255973e+02
  -1.210302e+02  -4.282437e+02
   5.072535e+01  -3.962197e+02
   1.319771e+02  -1.432840e+02
   2.935961e+01   9.610470e+00
   9.970923e+01  -1.007109e+02
   2.149333e+02  -9.829500e+01
   2.734157e+02   6.228730e+01
   1.744519e+02   2.675298e+02
  -9.013483e+01   2.663942e+02
  -2.316571e+02   3.576613e+01
  -1.872784e+02  -2.176718e+02
  -7.161492e+00  -2.861486e+02
   1.911585e+02  -1.014472e+02
   3.629302e+02   1.557015e+02
   2.103126e+02   3.160366e+02
  -9.052931e+01   3.021588e+02
  -2.620983e+02   1.479214e+02
  -1.826421e+02   1.251753e+01
  -1.196725e+02   3.877764e+01
  -2.579188e+02   7.619505e+01
  -3.914479e+02  -2.135545e+01
  -3.083351e+02  -2.846012e+02
  -5.354128e-01  -4.486551e+02
   3.277110e+02  -4.215199e+02
   4.574160e+02  -2.196904e+02
   3.484399e+02   7.931879e+01
   6.020140e+01   3.152292e+02
  -1.310898e+02   2.505966e+02
  -7.569695e+01   3.388928e+01
   6.988722e+01  -1.038137e+02
   1.665583e+02   2.728290e+01
   3.546332e+01   1.701603e+02
  -1.480846e+02   1.698046e+02
  -1.657579e+02  -4.328170e+01
   1.142120e+01  -1.987688e+02
   1.630513e+02  -5.289676e+01
   1.688269e+02   2.248966e+02
  -9.048342e+00   3.080535e+02
  -2.098704e+02   2.198009e+02
  -3.537773e+02  -7.007039e+01
  -2.523575e+02  -2.398682e+02
  -8.751226e+01  -2.633820e+02
   9.390773e+01  -1.605213e+02
   1.366297e+02  -6.475002e+01
   6.563430e+01   1.441004e+01
  -6.419932e+01  -5.804797e+01
  -2.673682e+01  -1.090952e+02
   1.252194e+02  -1.027902e+02
   1.548838e+02   5.149996e+01
   4.607115e+01   8.000306e+01
  -7.342359e+01   9.080415e+00
  -5.134302e+01  -4.210215e+01
   1.510010e+02  -1.165514e+02
   2.794214e+02   1.067380e+01
   2.685616e+02   1.406496e+02
   7.003821e+01   2.643728e+02
  -1.709070e+02   3.143706e+02
  -2.949315e+02   1.611808e+02
  -1.615572e+02  -4.523549e+01
   2.874198e+01  -1.078983e+02
   1.014640e+02  -2.048711e-02
  -4.767398e+01   1.081273e+02
  -2.298250e+02   6.415641e+01
  -2.484913e+02  -9.440421e+01
  -6.573505e+01  -1.836217e+02
   8.710724e+01  -1.216253e+02
   1.742873e+02  -2.410420e+01
   8.315060e+01   2.628281e+01
  -2.520155e+01   8.297104e+00
  -2.442347e+01  -9.980219e+01
   6.216114e+01  -1.031777e+02
   2.012345e+02  -8.402293e+01
   2.180553e+02   1.101913e+02
   6.327667e+01   2.310940e+02
  -1.574454e+02   2.108399e+02
  -2.042873e+02  -1.642559e+00
  -7.139215e+01  -1.266419e+02
   5.440807e+01  -1.322069e+02
   1.048215e+02  -4.553147e+01
   2.621174e+01   3.287042e+01
  -1.420500e+01   1.883395e+00
  -6.295451e+00   1.676189e+01
   4.840882e+01   1.299735e+01
   9.356156e+01   7.581936e+01
   1.489217e+01   1.656495e+02
  -1.481609e+02   1.472606e+02
  -2.737309e+02   3.885074e+01
  -2.343339e+02  -1.608022e+02
  -1.491357e+01  -2.233592e+02
   9.511036e+01  -1.910558e+02
   1.375063e+02  -2.425628e+01
   8.546355e+01   5.243526e+01
   2.203008e+01   2.189373e+01
   7.605885e+01   4.414729e+00
   9.651027e+01  -5.936802e+00
   3.178940e+01   5.704864e+01
  -6.374465e+01   8.471861e+01
  -9.895499e+01   6.001494e+01
  -9.543724e+01  -4.574950e+01
   3.470247e+00  -1.041019e+02
   1.611107e+02  -1.090165e+02
   1.807226e+02   7.909922e+01
   1.088017e+02   2.180550e+02
  -6.808730e+01   2.561770e+02
  -2.484711e+02   9.018990e+01
  -2.635985e+02  -8.570777e+01
  -1.317163e+02  -1.798143e+02
   3.063210e+01  -1.560590e+02
   8.439610e+01  -1.021214e+02
   8.165965e+01  -9.354115e+01
   7.017555e+01  -8.144593e+01
   6.526229e+01  -9.037739e+01
   1.177570e+02   1.172980e+01
   1.268953e+02   1.650016e+02
   2.529564e+01   2.600991e+02
  -1.143000e+02   1.961178e+02
  -1.965090e+02   3.341726e+01
  -1.582332e+02  -1.174479e+02
  -2.822059e+01  -1.779427e+02
   5.400288e+01  -1.078077e+02
   7.773622e+01   1.318989e+01
   9.057292e+00   4.768666e+01
  -7.224032e+00   8.417453e+00
   4.480708e+01   3.010908e+01
   8.174931e+01   2.974987e+00
   5.943286e+01   5.855759e+01
  -6.369129e+01   5.215258e+01
  -1.937271e+02  -2.875435e+00
  -1.717015e+02  -6.367447e+01
   2.569274e+00  -1.271063e+02
   1.293142e+02  -8.768749e+01
   1.514072e+02  -1.890863e+01
   2.598655e+01   6.607960e+01
  -5.502379e+01   7.770884e+01
  -9.026397e+01  -3.967845e+01
  -8.814772e+00  -7.152754e+01
   7.690019e+01  -8.796463e+01
   6.103146e+01   3.710119e+00
   9.115860e+01   5.283054e+01
   3.622939e+01   5.929176e+01
   6.714255e+01  -1.645307e+01
   6.435188e+01  -1.692272e+00
   6.051708e+01   8.902084e+01
  -3.841070e+01   1.520221e+02
  -1.227002e+02   1.546320e+02
  -1.555865e+02   1.659542e+01
  -1.345642e+02  -8.816071e+01
  -2.188295e+01  -1.370341e+02
   7.178209e+01  -2.204506e+01
   6.806013e+01   2.833250e+01
  -4.532001e+01   4.515241e+01
  -1.143846e+02  -6.663808e+01
  -6.083673e+01  -1.022896e+02
   7.839936e+01  -1.011591e+02
   1.911371e+02  -4.357097e+01
   1.759302e+02   8.299786e+00
   3.769916e+01   6.505799e+01
  -7.823775e+01   4.400350e+01
  -7.504235e+01  -2.314165e+01
   4.551186e+01  -2.320093e+01
   1.170431e+02   2.499185e+01
   4.887864e+01   9.857564e+01
  -9.887525e+01   1.585941e+02
  -1.954678e+02   4.426960e+01
  -1.359366e+02  -1.303799e+02
   3.973444e+00  -2.088861e+02
   1.025051e+02  -1.585375e+02
   9.086113e+01   9.111042e+00
   3.620112e+01   8.421709e+01
  -9.384819e+00   6.853235e+01
  -4.825060e+01   6.383563e+00
  -4.800025e+01  -2.344149e+01
  -2.536330e+01  -1.212324e+01
  -1.449211e+01   2.624886e+01
  -2.914495e+01  -2.656054e+00
  -4.778789e+01  -6.810968e+01
  -6.297057e+01  -9.744650e+01
   4.942393e+01  -7.260081e+01
   1.522929e+02   3.806886e+01
   9.134826e+01   6.199213e+01
   5.377240e+01   7.579885e+01
  -9.100783e+01   1.686136e+01
  -9.750490e+01   1.175965e+01
  -2.734121e+01  -1.155745e+01
   1.981997e+01  -2.610435e+01
   1.008053e+01  -3.749616e+01
  -8.880672e+00  -4.557095e+00
  -1.134461e+01   3.688934e+01
   5.370199e+01  -1.110186e+01
   9.401055e+01   1.327603e+01
   3.928452e+01   6.215135e+01
  -1.039662e+02   1.298935e+02
  -1.831900e+02   1.102883e+02
  -1.648163e+02  -8.513624e+01
  -2.402843e+01  -1.523784e+02
   8.532518e+01  -1.379131e+02
   1.108897e+02  -6.954014e+01
   5.890999e+01   9.602528e+00
   2.900206e+01   4.668216e+01
  -2.136465e+01  -2.365071e+01
  -9.620275e+00   8.408848e+00
   1.171965e+01   4.598313e+01
  -3.407705e+00   7.766080e+01
  -1.768278e+01   9.048825e+01
  -7.327677e+01  -5.119299e+01
  -5.505996e+01  -7.611914e+01
  -3.893063e+00  -1.171184e+02
   7.837426e+01  -3.754512e+01
   8.967375e+01   7.242381e+01
   2.269619e+01   1.078009e+02
  -7.928092e+01   7.088208e+01
  -1.037710e+02  -7.612103e+00
  -4.514024e+01  -4.479439e+01
   2.711340e+01  -8.084272e+01
   3.608115e+01  -3.050491e+01
  -2.398718e+01  -1.987386e+01
  -2.572686e+01   1.764681e+01
  -5.772559e+01  -2.683124e+01
   4.272207e+01  -5.708601e+01
   1.330410e+02  -7.080286e+01
   7.345556e+01   2.128487e+01
   4.078120e+00   1.104117e+02
  -8.066319e+01   8.288914e+01
  -6.624325e+01   1.125751e+01
   3.082121e-02  -6.473035e+01
   2.278763e+01  -5.224140e+01
   6.034401e+01   4.640089e+00
  -5.203471e+00   6.802868e+01
  -1.588623e+00   2.254344e+01
  -2.834067e+01  -1.632306e+01
  -4.445394e+01  -3.684533e+01
  -4.355194e+01  -5.553142e+00
   4.509101e+00   1.805056e+01
  -1.004923e+00   7.527947e+00
   3.974818e+00  -4.116526e+01
   2.948793e+01  -5.493055e+01
   4.470174e+01   2.566987e+01
   3.682736e+01   5.267598e+01
  -4.504991e-02   4.917713e+01
  -4.617057e+01   1.477027e+01
  -5.941497e+01  -4.002331e+01
  -1.025028e+01  -5.184656e+01
   6.297161e+01  -2.717710e+01
   7.616775e+01   4.988228e+00
   8.481691e+01   6.820561e+01
  -1.236280e+01   4.934065e+01
  -3.598554e+01   1.888249e+01
  -2.890381e+01  -2.067383e-01
   2.335184e+01   8.293386e+00
   1.689232e+01   2.283662e+01
  -5.349455e+01   3.631076e+01
  -8.355452e+01   2.737152e+01
