
 $NMID
 id='ANONYMOUS ', fmtdat='(2E16.6)'
 volume=1.0
 tramp=1.0
 $END
  -3.992273e+03  -3.644537e+02
  -2.233087e+03  -2.661490e+03
   8.697520e+02  -2.345417e+03
   1.871908e+03  -5.173695e+02
   7.655847e+02   7.399458e+02
  -6.825842e+02   5.227915e+02
  -8.238818e+02  -5.144398e+02
   1.812587e+01  -1.053899e+03
   8.222360e+02  -6.942271e+02
   8.783524e+02   9.067158e+01
   3.919476e+02   8.198878e+02
  -2.972637e+02   8.070169e+02
  -5.475003e+02   5.206028e+01
  -2.670631e+02  -6.844569e+02
   2.919961e+02  -6.495451e+02
   5.724755e+02   6.197093e+01
   2.013444e+02   6.189792e+02
  -3.037954e+02   5.309156e+02
  -4.848824e+02   3.136978e+01
  -3.203759e+02  -3.487926e+02
   9.944430e+00  -3.744380e+02
   2.431345e+02  -2.092523e+02
   1.740895e+02   1.561742e+01
  -1.389647e+02   9.527397e+01
  -3.866066e+02  -1.391824e+02
  -1.785122e+02  -4.128683e+02
   4.255389e+02  -3.881478e+02
   7.200656e+02   8.844642e+01
   3.648987e+02   4.918642e+02
  -4.033122e+02   4.421759e+02
  -6.191713e+02  -8.497656e+01
  -3.247766e+02  -4.395114e+02
   2.841454e+02  -4.717753e+02
   5.502200e+02  -1.903059e+02
   3.776347e+02   2.058696e+02
   5.140050e+01   4.696144e+02
  -2.012296e+02   2.602968e+02
  -1.997391e+02  -2.329966e+02
   1.634141e+02  -4.593820e+02
   4.698389e+02   4.512123e+01
   2.781229e+02   6.986982e+02
  -3.025335e+02   5.785155e+02
  -5.668271e+02  -1.443688e+01
  -1.774121e+02  -4.904125e+02
   2.800986e+02  -2.574067e+02
   2.914572e+02   3.092547e+02
  -9.519356e+01   5.120284e+02
  -5.018872e+02   1.188313e+02
  -5.147149e+02  -4.408318e+02
  -1.425333e+02  -5.357415e+02
   3.639656e+02  -3.073962e+02
   5.692245e+02   7.081849e+01
   2.818188e+02   3.397255e+02
  -1.963427e+02   3.119415e+02
  -3.982536e+02   1.739763e+01
  -2.047043e+02  -1.805962e+02
   1.372213e+02  -1.118113e+02
   1.202481e+02   1.434547e+02
  -1.605420e+02   1.579905e+02
  -2.933435e+02  -8.487404e+01
  -1.089187e+02  -2.837297e+02
   2.122133e+02  -2.052051e+02
   2.876378e+02  -4.732289e+01
   1.350841e+02   1.135078e+02
  -4.368577e+01   2.397583e+02
  -1.740613e+02   3.011150e+02
  -3.253590e+02   1.708398e+02
  -2.496541e+02  -1.451262e+02
  -7.471859e+01  -3.935990e+02
   1.182909e+02  -3.166403e+02
   1.056323e+02  -8.899039e+01
   8.985983e+00   3.613348e+01
   3.799520e+01  -7.755037e+01
   1.874284e+02  -1.485350e+02
   2.579387e+02   7.236071e+01
   1.422056e+02   2.907076e+02
  -7.369222e+01   2.175943e+02
  -1.976332e+02  -9.914910e-01
  -1.528319e+02  -2.241752e+02
   1.115079e+01  -2.600222e+02
   2.346958e+02  -8.479622e+01
   3.395687e+02   1.423710e+02
   2.000454e+02   3.199112e+02
  -9.568188e+01   2.531535e+02
  -1.915489e+02   8.135392e+01
  -1.137205e+02   6.459525e+00
  -4.631286e+01   3.108153e+01
  -1.977820e+02   7.739901e+01
  -3.564624e+02  -3.532907e+01
  -3.391533e+02  -2.459675e+02
   3.063234e+01  -4.085854e+02
   3.242026e+02  -3.985383e+02
   4.608988e+02  -1.665971e+02
   3.272905e+02   9.589861e+01
   4.647226e+01   2.713281e+02
  -1.239547e+02   2.372685e+02
  -1.062889e+02   2.344091e+01
   8.662741e+01  -1.159782e+02
   1.833596e+02  -4.447102e-01
   7.977650e+01   1.644848e+02
  -1.259680e+02   1.874048e+02
  -1.684587e+02  -5.700893e+01
   4.760955e+01  -1.629356e+02
   1.906962e+02  -2.794667e+01
   1.406787e+02   2.348121e+02
  -5.752793e+00   3.345695e+02
  -2.459474e+02   1.897129e+02
  -2.987890e+02  -3.935958e+01
  -2.745943e+02  -2.412718e+02
  -8.774143e+01  -2.594337e+02
   1.076594e+02  -1.628844e+02
   1.596457e+02  -2.427250e+01
   2.261348e+01   2.229677e+01
  -8.912940e+01  -2.284963e+01
  -5.983634e+00  -1.285876e+02
   1.010776e+02  -8.593430e+01
   1.928377e+02   1.119208e+01
   5.258671e+01   7.859136e+01
  -7.859995e+01   8.557361e+00
  -6.076633e+01  -6.578226e+01
   1.202887e+02  -8.260251e+01
   2.852286e+02   1.175951e+01
   2.557979e+02   1.155766e+02
   1.642754e+01   2.749273e+02
  -1.812221e+02   2.528879e+02
  -2.670208e+02   8.378883e+01
  -1.827230e+02  -8.276241e+01
   4.511629e+01  -1.082500e+02
   1.118075e+02  -1.917425e+01
  -3.657053e+01   8.509383e+01
  -1.914268e+02   7.364177e+01
  -2.088296e+02  -9.199539e+01
  -9.410668e+01  -1.879045e+02
   1.176007e+02  -1.609866e+02
   1.517643e+02  -2.745175e+01
   2.626418e+01   3.008938e+01
  -2.523567e+01  -2.797565e+01
  -5.408001e+01  -7.530527e+01
   8.326438e+01  -9.803389e+01
   1.900746e+02   9.575416e+00
   1.887309e+02   1.324636e+02
  -4.694988e+00   2.032502e+02
  -1.389243e+02   1.779856e+02
  -1.858705e+02  -6.805131e+00
  -3.272812e+01  -1.140445e+02
   7.335284e+01  -9.236832e+01
   8.289167e+01  -7.858664e+00
   3.916717e+01   3.274457e+01
  -4.099034e+01   1.604532e+01
  -1.131150e+01  -1.627437e+01
   5.808625e+01   6.615000e+00
   7.277986e+01   5.730124e+01
  -1.182987e+01   1.454493e+02
  -1.084547e+02   1.132516e+02
  -2.339500e+02   5.084590e+01
  -1.782792e+02  -1.548974e+02
  -3.512359e+01  -2.229618e+02
   1.252800e+02  -1.898515e+02
   1.358944e+02  -3.479870e+01
   6.148967e+01   6.763566e+01
   3.762398e+01   5.148347e+01
   4.648827e+01   1.760969e+01
   7.307985e+01   9.710733e+00
   6.550726e+01   1.239315e+01
  -1.527963e+01   8.104832e+01
  -9.509429e+01   3.714154e+01
  -8.793726e+01  -5.761093e+01
  -7.353972e+00  -8.494023e+01
   1.274894e+02  -6.621125e+01
   1.762162e+02   4.396415e+01
   8.938373e+01   1.775689e+02
  -9.350016e+01   2.105777e+02
  -2.327181e+02   7.348387e+01
  -2.398175e+02  -9.348724e+01
  -1.137986e+02  -1.535748e+02
   1.795642e+01  -1.234634e+02
   8.343879e+01  -9.519956e+01
   5.508384e+01  -8.666603e+01
   1.134896e+02  -8.662989e+01
   7.300876e+01  -4.848860e+01
   1.198588e+02   4.192073e+00
   1.393070e+02   1.517633e+02
   1.509932e+01   2.041577e+02
  -8.892707e+01   1.899038e+02
  -1.482784e+02   2.059229e+01
  -1.269188e+02  -1.257218e+02
  -3.055984e+01  -1.684234e+02
   5.797758e+01  -9.030797e+01
   9.466950e+01   8.156994e+00
   1.569023e+01   4.283235e+01
  -4.084656e+00   2.632330e+01
   3.404852e+01   7.513836e+00
   9.265648e+01   1.316339e+01
   4.666870e+01   1.437166e+01
  -5.765574e+01   4.016422e+01
  -1.576383e+02  -2.282058e+01
  -1.180867e+02  -7.009177e+01
  -2.803751e+01  -8.018458e+01
   9.631870e+01  -9.168580e+01
   1.515869e+02   2.299750e+00
   4.336570e+01   7.259998e+01
  -5.573677e+01   3.660524e+01
  -8.531256e+01  -1.979878e+01
  -3.727510e+00  -8.089933e+01
   5.326024e+01  -6.200244e+01
   6.193845e+01   7.377746e+00
   5.605682e+01   7.044005e+01
   5.701434e+01   2.748370e+01
   5.100326e+01   4.342751e+00
   5.013882e+01   3.509896e+00
   3.708590e+01   4.575318e+01
  -9.863801e+00   1.299690e+02
  -1.072790e+02   1.219352e+02
  -1.641615e+02   2.279700e+01
  -1.095052e+02  -8.255634e+01
  -9.971278e+00  -1.385266e+02
   6.339604e+01  -5.846320e+01
   4.604549e+01  -1.940709e+01
  -4.677865e+01   1.711237e+00
  -1.000739e+02  -4.552649e+01
  -5.446636e+01  -8.362025e+01
   7.053630e+01  -9.372869e+01
   1.648235e+02  -3.486915e+01
   1.527121e+02   4.960997e+01
   4.914020e+01   1.022668e+02
  -7.507612e+01   7.262575e+01
  -5.731713e+01   1.033474e+01
   2.530303e+01  -1.990529e+00
   6.999070e+01   1.797543e+01
   3.539616e+01   7.000162e+01
  -6.758989e+01   1.401985e+02
  -1.600642e+02   6.382366e+01
  -1.278103e+02  -9.110682e+01
  -4.126616e+00  -1.897998e+02
   6.211107e+01  -1.295985e+02
   1.131055e+02   1.494311e+01
   5.844218e+01   1.049025e+02
  -2.302932e+01   1.098392e+02
  -4.121090e+01  -1.521659e+01
  -2.190880e+01  -3.798569e+01
  -8.331882e+00  -4.675342e+00
  -1.599666e+01   4.784619e+01
  -4.228302e+01  -3.924732e+00
  -2.497430e+01  -7.534969e+01
  -2.738943e+01  -1.146451e+02
   3.872814e+01  -4.665405e+01
   1.257480e+02   2.125017e+01
   1.108449e+02   5.833213e+01
   1.923027e+01   5.210114e+01
  -9.563441e+01   3.994226e+00
  -7.495675e+01  -4.803465e+00
   8.131470e+00  -2.125410e+01
   5.137421e+01  -2.120039e+01
   8.210007e+00  -9.255247e+00
  -1.010346e+01   3.216465e+00
  -1.636546e+01   3.211689e+01
   7.666122e+01  -1.213901e-01
   1.112603e+02   2.991399e+01
  -1.495386e+01   1.084373e+02
  -1.295669e+02   9.488795e+01
  -1.881670e+02   6.009132e+01
  -1.339216e+02  -7.052394e+01
  -7.405047e+01  -1.574493e+02
   6.449588e+01  -1.474003e+02
   1.312513e+02  -7.686055e+01
   6.577046e+01   5.808749e+00
   5.441951e+01   2.354577e+01
   9.354485e+00  -9.013276e+00
   1.957816e+01   1.070751e+01
   3.968428e+01   5.554779e+01
   2.513688e+01   9.265455e+01
  -2.892364e+01   8.811745e+01
  -9.000393e+01  -5.343633e+00
  -5.210378e+01  -9.552499e+01
  -5.479044e+00  -1.308830e+02
   6.958930e+01  -2.873679e+01
   9.863830e+01   8.560125e+01
   3.849787e+01   5.926123e+01
  -3.770243e+01   3.904898e+01
  -8.073936e+01  -1.123018e+01
  -1.466342e+01  -5.665540e+01
   3.276030e+01  -7.349548e+01
  -1.229974e+00  -3.567017e+01
  -5.418264e+01  -1.623182e+01
  -6.720032e+01   4.132861e+00
  -3.595487e+01  -1.683846e+01
   5.544871e+01  -3.105379e+01
   1.265493e+02  -3.596723e+01
   6.005146e+01   3.794434e+00
  -1.837031e+01   7.324110e+01
  -2.245774e+01   5.301401e+01
  -3.881932e+01  -9.218378e-01
  -9.022596e+00  -3.346786e+01
   1.405209e+01  -3.340638e+01
   6.807313e+00  -4.321427e+00
   2.701811e+01   4.482289e+01
  -1.958459e+01   2.745065e+01
  -2.426025e+01  -2.367839e+01
  -4.491732e+01  -1.830444e+01
  -3.173381e+00  -1.288959e+01
   1.338317e-01   1.494374e+01
  -8.104151e+00  -1.010531e+01
   6.196307e+00  -1.484718e+01
   1.409181e+01  -4.335004e+01
   1.169865e+01   8.735151e+00
   1.304388e+01   4.475473e+01
  -4.988269e+00   5.052010e+01
  -3.183969e+01   9.413617e+00
  -5.385392e+01  -4.927571e+01
  -1.682897e+01  -5.842733e+01
   7.791547e+01  -2.814102e+01
   7.160152e+01   1.357155e+01
   2.546202e+01   2.077470e+01
  -2.149075e+01   4.161411e+01
  -7.811079e+01  -1.246518e+01
  -5.395281e+01  -3.870871e+00
   2.841000e+01  -8.378478e+00
   2.613413e+01   1.018460e+00
  -3.575477e+01   6.075234e+01
  -5.281806e+01   2.992041e+01
