
 $NMID
 id='ANONYMOUS ', fmtdat='(2E16.6)'
 volume=1.0
 tramp=1.0
 $END
  -4.572384e+03   3.071016e+02
  -2.644189e+03  -2.561985e+03
   5.195928e+02  -2.721626e+03
   2.167313e+03  -1.190148e+03
   1.064390e+03   6.987136e+02
  -5.963396e+02   7.285753e+02
  -1.035903e+03  -3.433055e+02
  -2.288155e+01  -1.075417e+03
   8.478500e+02  -8.797658e+02
   1.003076e+03   1.001107e+02
   4.570163e+02   9.627389e+02
  -2.528107e+02   9.573512e+02
  -7.127103e+02   1.317591e+02
  -3.530338e+02  -8.225723e+02
   3.125510e+02  -8.066243e+02
   6.240859e+02   1.746083e+01
   3.131478e+02   6.818531e+02
  -3.281628e+02   6.622681e+02
  -5.652332e+02   9.953731e+01
  -4.112058e+02  -3.928105e+02
  -9.897948e+00  -4.760273e+02
   2.484003e+02  -2.603412e+02
   2.461242e+02   3.339766e+01
  -1.387361e+02   1.445458e+02
  -3.997200e+02  -1.189989e+02
  -1.682563e+02  -4.516945e+02
   4.403357e+02  -4.694909e+02
   9.198108e+02   7.582116e+01
   4.459076e+02   5.837921e+02
  -3.964420e+02   5.522566e+02
  -7.753240e+02  -5.385899e+01
  -3.653419e+02  -4.995149e+02
   2.918373e+02  -5.849839e+02
   6.062082e+02  -1.816325e+02
   4.178869e+02   2.405263e+02
   4.964133e+01   5.169050e+02
  -2.632116e+02   2.989093e+02
  -1.954306e+02  -2.456174e+02
   1.663976e+02  -4.856579e+02
   4.661594e+02   3.188218e+01
   2.654905e+02   6.582762e+02
  -3.695589e+02   7.291145e+02
  -6.442175e+02   2.782081e+01
  -2.400204e+02  -5.944833e+02
   3.280086e+02  -3.460374e+02
   4.429572e+02   3.436349e+02
  -5.763504e+01   5.805771e+02
  -5.760980e+02   1.954963e+02
  -6.499544e+02  -3.484278e+02
  -1.971130e+02  -5.993887e+02
   3.698165e+02  -3.818271e+02
   6.332096e+02   2.899737e+01
   4.015990e+02   4.006903e+02
  -1.403366e+02   3.707633e+02
  -4.098878e+02   3.055015e+01
  -2.710046e+02  -1.697959e+02
   1.420662e+02  -1.115122e+02
   1.404458e+02   1.437389e+02
  -1.559316e+02   2.546791e+02
  -3.755778e+02  -6.423450e+01
  -1.963983e+02  -3.011931e+02
   1.471123e+02  -2.798575e+02
   3.578535e+02  -1.177598e+02
   2.525567e+02   4.971015e+01
   6.380612e+00   1.989944e+02
  -2.597783e+02   3.766884e+02
  -4.122388e+02   2.377492e+02
  -3.119903e+02  -1.520365e+02
  -9.093816e+01  -4.403456e+02
   1.430967e+02  -3.763838e+02
   1.399564e+02  -1.122309e+02
   4.966870e+00   2.137457e+01
   2.814336e+00  -1.014052e+02
   1.777021e+02  -1.848089e+02
   2.974510e+02   9.404975e+00
   2.159881e+02   2.359252e+02
  -6.996105e+01   3.164492e+02
  -2.669954e+02   3.387510e+01
  -2.346762e+02  -2.246668e+02
   4.865211e-02  -3.105458e+02
   2.670408e+02  -1.396635e+02
   3.617651e+02   1.156378e+02
   2.050055e+02   3.473019e+02
  -7.853947e+01   3.384816e+02
  -2.571940e+02   1.229856e+02
  -1.731696e+02  -1.173400e+01
  -7.864969e+01   4.320507e+01
  -1.598496e+02   1.390690e+02
  -3.609377e+02  -7.235667e+00
  -3.807043e+02  -2.738282e+02
  -5.014775e+01  -4.777658e+02
   3.215797e+02  -4.340072e+02
   4.684110e+02  -1.984535e+02
   3.132331e+02   1.086419e+02
   6.536420e+01   3.085385e+02
  -1.175892e+02   2.678001e+02
  -6.688238e+01   3.424494e+01
   9.541192e+01  -7.398958e+01
   1.951454e+02  -3.271248e+00
   6.555425e+01   1.877470e+02
  -2.070850e+02   2.180935e+02
  -1.986900e+02  -4.252424e+01
  -3.492157e-01  -2.308254e+02
   1.945921e+02  -7.248106e+01
   1.896886e+02   2.513230e+02
  -2.660656e+01   3.636243e+02
  -2.365558e+02   2.131263e+02
  -3.601419e+02  -4.662997e+01
  -2.810035e+02  -2.521150e+02
  -6.944438e+01  -2.738129e+02
   1.185230e+02  -1.706153e+02
   1.880702e+02  -1.219184e+01
   5.222062e+01   5.269696e+01
  -9.246526e+01  -4.805189e+01
  -3.754004e+01  -1.555890e+02
   1.070249e+02  -1.133531e+02
   1.498982e+02   1.583772e+00
   6.368041e+01   7.912127e+01
  -8.488466e+01   4.590675e+01
  -8.820806e+01  -6.226221e+01
   1.224400e+02  -8.631277e+01
   2.307016e+02   1.227838e+01
   2.967430e+02   1.178492e+02
   8.642613e+01   2.726367e+02
  -1.660919e+02   2.920524e+02
  -3.081280e+02   1.091213e+02
  -1.891481e+02  -6.643815e+01
   4.228541e+01  -1.091034e+02
   9.522387e+01  -3.526811e+01
  -2.447535e+01   1.180713e+02
  -1.950739e+02   8.051567e+01
  -2.359044e+02  -9.693195e+01
  -1.018655e+02  -1.964004e+02
   6.057355e+01  -1.963019e+02
   1.392576e+02  -3.430841e+01
   9.182305e+01   3.516971e+01
  -5.980161e+01   2.460317e+01
  -4.977496e+01  -6.769977e+01
   3.430804e+01  -1.389008e+02
   1.787300e+02  -5.014143e+01
   1.961452e+02   1.157720e+02
   1.734108e+01   2.168990e+02
  -1.658209e+02   1.712714e+02
  -2.015454e+02  -1.428587e+01
  -4.030585e+01  -1.221006e+02
   7.917464e+01  -1.350384e+02
   1.035571e+02  -5.069701e+01
   2.115061e+01   2.984902e+01
  -2.802615e+01   2.784091e+01
  -4.424927e+00  -2.705971e+01
   5.515655e+01   1.549281e+01
   9.218858e+01   5.304590e+01
   1.454670e+01   1.300221e+02
  -1.178400e+02   1.304472e+02
  -2.482792e+02   3.589344e+01
  -2.270343e+02  -1.339138e+02
  -5.687282e+01  -2.458112e+02
   1.243322e+02  -1.738535e+02
   1.719450e+02  -9.281823e+00
   5.424961e+01   4.898475e+01
   1.485583e+01   1.442096e+01
   2.863600e+01  -2.150349e+01
   1.067480e+02  -3.736878e+00
   5.193546e+01   5.783474e+01
  -5.496062e+01   8.465786e+01
  -1.021252e+02   6.306335e+01
  -8.340110e+01  -4.058096e+01
   3.356498e+01  -1.302430e+02
   1.511675e+02  -4.537072e+01
   1.994198e+02   5.646947e+01
   1.036835e+02   1.971692e+02
  -1.087007e+02   2.255723e+02
  -2.455623e+02   9.825725e+01
  -2.655597e+02  -3.556492e+01
  -1.037735e+02  -1.860500e+02
   1.958691e+01  -1.349786e+02
   7.826117e+01  -7.917590e+01
   5.426488e+01  -6.083844e+01
   5.879477e+01  -8.740461e+01
   5.942014e+01  -5.895852e+01
   9.320901e+01   9.873776e+00
   1.224613e+02   1.510187e+02
   4.183221e+01   1.963104e+02
  -9.637350e+01   1.664991e+02
  -1.474317e+02   1.120552e+01
  -1.371345e+02  -1.167968e+02
  -1.797935e+01  -1.723098e+02
   5.043834e+01  -8.245363e+01
   4.864321e+01  -1.163525e+01
   7.712529e+00   4.909039e+01
  -2.430381e+01   1.365060e+01
   5.308455e+01  -1.771716e-01
   8.627877e+01  -6.125994e-01
   2.316523e+01   1.039640e+01
  -6.299953e+01   4.493267e+01
  -1.455898e+02  -1.585594e+01
  -1.408481e+02  -9.688634e+00
   5.926409e+00  -1.133677e+02
   8.450934e+01  -4.969918e+01
   1.350347e+02  -2.738321e+01
   5.913390e+01   1.039294e+01
  -6.472258e+01   5.183503e+01
  -9.210919e+01  -4.545222e+01
  -1.983624e+00  -7.886449e+01
   6.416682e+01  -3.792163e+01
   6.579793e+01   2.422588e+00
   6.195624e+01   6.032849e+01
   2.469403e+01   5.385626e+01
   7.573880e+01   2.331837e+01
   9.412982e+01  -7.341225e+00
   3.058303e+01   2.660311e+01
  -2.223617e+01   1.320399e+02
  -9.228510e+01   1.521480e+02
  -1.780362e+02   1.556103e+01
  -1.324303e+02  -6.397083e+01
  -7.494096e+00  -1.276206e+02
   7.908096e+01  -9.384072e+01
   6.941555e+01   2.310101e+01
  -3.061887e+01   2.273849e+01
  -1.132608e+02  -6.012039e+01
  -1.022111e+02  -1.107875e+02
   6.641936e+01  -1.161279e+02
   1.778230e+02  -6.191826e+01
   1.492989e+02   1.745363e+01
   4.284129e+01   1.002074e+02
  -8.950381e+01   9.199544e+01
  -6.825860e+01   6.214005e+00
   1.165985e+01  -4.125369e+01
   8.035090e+01   1.033766e+01
   1.962018e+01   1.027237e+02
  -8.511689e+01   1.328731e+02
  -1.440990e+02   4.861241e+01
  -1.383887e+02  -1.254090e+02
  -4.905282e+00  -2.144634e+02
   1.070547e+02  -1.537677e+02
   9.592079e+01   2.221928e+01
   7.123116e+01   1.259382e+02
   7.535906e+00   1.120036e+02
  -2.151694e+01   1.842882e+00
  -3.259413e+01  -5.202614e+01
  -2.012078e+01  -1.194299e+01
  -2.955753e+01   2.060419e+01
  -1.160582e+01  -1.196766e+01
  -4.508511e+01  -7.802786e+01
  -3.618907e+01  -1.012012e+02
   4.004674e+01  -3.037600e+01
   1.048904e+02   3.253229e+01
   1.146835e+02   4.987268e+01
  -1.063597e+01   4.083592e+01
  -6.913191e+01   4.707313e+01
  -9.851789e+01  -1.372572e+01
   8.090929e+00  -2.479183e+00
   7.089851e+01  -5.763622e+01
   3.913002e+01  -4.638469e+01
  -1.203606e+01  -1.442635e+01
   1.275038e+01   9.553950e+00
   6.508318e+01  -2.156461e+01
   8.585998e+01   3.055190e+01
   6.990132e+00   6.922608e+01
  -1.002261e+02   1.206735e+02
  -1.741573e+02   4.574475e+01
  -1.578263e+02  -2.303809e+01
  -4.822679e+01  -1.340068e+02
   8.389565e+01  -1.786419e+02
   1.321918e+02  -6.073585e+01
   7.877249e+01   7.232034e+00
   2.611390e+00   3.454854e+01
  -3.319390e+01   1.523350e+01
   5.300619e+00  -2.747805e+01
   3.230976e+01   3.578934e+01
   5.446995e+01   8.368216e+01
  -2.810971e+01   4.194118e+01
  -1.078753e+02   2.463338e+00
  -8.300284e+01  -9.694966e+01
  -2.228431e+01  -1.219723e+02
   9.555606e+01  -3.471064e+01
   9.380245e+01   7.137523e+01
   2.039975e+01   9.257339e+01
  -7.084884e+01   3.456874e+01
  -9.758046e+01  -1.184250e+01
   1.707429e+01  -4.244318e+01
   4.292818e+01  -5.021299e+01
   4.420473e+01  -2.387368e+01
  -2.029136e+01   5.388942e+00
  -7.573142e+01  -9.679360e+00
  -2.572714e+01  -1.205040e+01
   5.434079e+01  -9.141017e+01
   1.259589e+02  -5.138683e+01
   3.167210e+01   1.788470e+01
  -1.416601e+01   8.734296e+01
  -6.120323e+01   5.937481e+01
  -6.450533e+01   4.391653e+00
   2.042252e+01  -5.794161e+01
   5.042020e+01  -3.102426e+01
   3.762826e+00   4.360484e+01
   3.513982e+01   4.664713e+01
   1.523592e+00   3.563535e+01
  -3.614241e+01  -4.205240e+01
  -4.477074e+01  -3.014159e+01
  -2.647782e+01   1.244949e+01
  -9.895320e+00   2.227284e+01
  -1.754305e+00   4.068005e+00
   2.658863e+00  -4.174028e+01
   7.966620e+00  -6.508340e+01
   3.952806e+01  -3.194345e+01
   3.754247e+01   4.612529e+01
  -2.180272e+01   6.104361e+01
  -7.318111e+01   8.584539e-01
  -5.256839e+01  -5.684566e+01
  -1.115648e+01  -3.962180e+01
   6.194683e+01  -1.630504e+01
   7.416589e+01   2.327287e+01
   7.096780e+01   4.248895e+01
  -3.849941e+01   4.192053e+01
  -9.574797e+01   1.027687e+01
  -3.033750e+01  -1.606728e-01
   6.022264e+01   1.364217e+01
   2.850481e+01   1.424313e+01
  -5.152726e+01   2.840897e+01
  -1.030930e+02   2.444087e+01
