
 $NMID
 id='ANONYMOUS ', fmtdat='(2E16.6)'
 volume=1.0
 tramp=1.0
 $END
  -3.355215e+03  -8.169730e+01
  -2.067608e+03  -1.819785e+03
   2.315796e+02  -1.970171e+03
   1.404879e+03  -8.380661e+02
   8.630033e+02   5.627082e+01
  -2.080481e+02   3.136980e+02
  -3.674489e+02  -1.893917e+02
  -4.675500e+01  -6.277806e+02
   4.858997e+02  -5.077695e+02
   6.190030e+02  -5.929366e+01
   4.592111e+02   5.475883e+02
  -7.504704e+01   5.966904e+02
  -3.157490e+02   1.607755e+02
  -2.233940e+02  -4.363879e+02
   1.714323e+02  -5.095626e+02
   3.971594e+02  -7.904127e+01
   2.685879e+02   4.263447e+02
  -2.023146e+02   5.688824e+02
  -4.046977e+02   1.803617e+02
  -3.395495e+02  -1.549640e+02
  -9.056913e+01  -3.095044e+02
   1.360535e+02  -2.000126e+02
   7.460464e+01  -4.895494e+01
  -1.567469e+02  -2.920569e+01
  -2.723674e+02  -1.765938e+02
  -3.548708e+01  -3.423517e+02
   4.015611e+02  -2.386410e+02
   5.830603e+02   1.709548e+02
   2.789090e+02   3.937618e+02
  -3.634298e+02   2.265878e+02
  -5.232522e+02  -1.445721e+02
  -1.567482e+02  -3.916978e+02
   2.629289e+02  -3.937957e+02
   4.284682e+02  -8.968753e+01
   3.529839e+02   1.613179e+02
   4.875816e+01   3.233023e+02
  -1.825770e+01   1.550680e+02
   1.150448e+01  -1.191426e+02
   1.676284e+02  -1.933107e+02
   2.507924e+02   1.603410e+02
   5.160110e+01   4.977849e+02
  -2.274637e+02   4.180583e+02
  -4.002230e+02  -4.892720e+01
  -1.042876e+02  -3.197468e+02
   1.872227e+02  -2.101947e+02
   1.554512e+02   2.342787e+02
  -1.400788e+02   3.804996e+02
  -4.699511e+02   2.705525e+01
  -5.101013e+02  -3.726645e+02
  -9.101486e+01  -4.983204e+02
   3.207477e+02  -2.308016e+02
   4.926903e+02   9.846428e+01
   2.886825e+02   2.834232e+02
  -1.032644e+02   2.214720e+02
  -3.032477e+02   3.823505e+01
  -1.665957e+02  -4.181089e+01
   6.158497e+01  -3.986665e+00
   9.759768e+01   1.175641e+02
  -1.071732e+02   6.050191e+01
  -2.573409e+02  -8.246448e+01
  -6.710292e+01  -1.976468e+02
   1.843168e+02  -2.186777e+02
   3.346004e+02  -9.540784e+01
   1.910943e+02   1.430132e+02
  -1.890879e+01   2.391919e+02
  -2.616572e+02   3.102902e+02
  -3.186967e+02   1.422995e+02
  -2.294630e+02  -1.291759e+02
  -3.484277e+01  -3.254390e+02
   8.891578e+01  -2.726040e+02
   8.215035e+01  -1.235666e+02
   1.867811e+01  -4.454424e+01
   1.101076e+02  -7.393352e+01
   2.248712e+02  -5.217247e+01
   2.428758e+02   1.035354e+02
   6.845888e+01   2.482577e+02
  -8.920946e+01   1.917113e+02
  -1.898271e+02  -2.246994e+01
  -1.236106e+02  -2.367051e+02
   8.610518e+01  -2.714439e+02
   2.347682e+02  -1.006170e+02
   2.892322e+02   1.533624e+02
   1.452958e+02   3.390716e+02
  -5.578188e+01   2.482621e+02
  -1.546218e+02   9.566799e+01
  -1.013134e+02   3.821745e+01
  -1.064296e+02   6.620690e+01
  -2.376151e+02   3.931641e+01
  -3.746237e+02  -7.376077e+01
  -3.236570e+02  -2.855786e+02
   2.417688e+01  -3.875071e+02
   3.241798e+02  -3.597899e+02
   4.641378e+02  -1.605804e+02
   3.056633e+02   8.870691e+01
   2.864341e+01   2.302671e+02
  -6.657323e+01   1.778119e+02
  -5.628211e+01   7.827696e+00
   1.157923e+02  -7.391123e+01
   1.608131e+02   5.199590e+01
   1.287209e+01   1.318395e+02
  -9.224845e+01   8.468157e+01
  -1.099322e+02  -4.638021e+01
   6.224436e+00  -1.365677e+02
   1.489578e+02  -3.382979e+01
   1.302196e+02   2.162440e+02
  -2.329657e+01   3.520150e+02
  -1.752015e+02   2.128806e+02
  -3.014469e+02  -7.677850e+01
  -2.877797e+02  -2.576697e+02
  -5.432384e+01  -2.291160e+02
   1.387834e+02  -1.219125e+02
   1.554332e+02  -1.308398e+01
   6.658563e+01   2.188740e+01
  -2.319540e+01  -3.584039e+01
  -4.942938e+00  -9.346467e+01
   1.250486e+02  -7.398493e+01
   1.697882e+02   4.247992e+01
   4.094689e+01   4.270654e+01
  -7.021263e+01   1.688420e+01
  -4.303753e+01  -8.822031e+01
   1.368940e+02  -3.587304e+01
   2.675467e+02   1.438860e+01
   2.158839e+02   1.577333e+02
   1.885670e+01   2.217875e+02
  -1.819302e+02   1.791465e+02
  -2.517202e+02   6.310821e+01
  -1.375125e+02  -5.428532e+01
   1.817180e+01  -9.016343e+01
   5.405384e+01   1.940684e+01
  -4.183603e+01   7.750631e+01
  -1.362098e+02   5.588935e+01
  -1.402623e+02  -9.596492e+01
  -4.098621e+01  -1.584800e+02
   6.488015e+01  -1.253761e+02
   1.295084e+02  -2.710708e+01
   3.896480e+01   6.465462e+01
  -3.985753e+01  -6.190138e+00
  -2.795677e+01  -1.046195e+02
   5.946339e+01  -8.943278e+01
   1.858556e+02   7.605315e+00
   1.545029e+02   1.157279e+02
   2.438057e+01   1.435761e+02
  -1.514782e+02   1.534965e+02
  -1.735047e+02   7.105371e+00
  -3.574916e+01  -7.985427e+01
   6.461071e+01  -1.101376e+02
   9.837310e+01  -1.105071e+01
   3.257776e+01   2.362795e+01
  -4.404974e+01  -1.452478e+01
   1.721009e+00  -1.967176e+01
   8.382129e+01   8.241536e+00
   1.187900e+02   7.787936e+01
   1.189414e+01   1.555856e+02
  -1.464189e+02   1.484979e+02
  -1.971377e+02   2.672067e+01
  -2.251045e+02  -1.478684e+02
  -5.012785e+01  -2.215742e+02
   5.570735e+01  -1.553465e+02
   9.835913e+01  -1.253121e+01
   6.571892e+01   2.525160e+01
   4.129621e+01   2.373884e+01
   4.874016e+01  -2.452907e+01
   6.970025e+01  -2.938361e+01
   8.035457e+01   3.678414e+01
  -6.355387e+00   7.907917e+01
  -7.624397e+01   6.825051e+01
  -9.127011e+01   1.535824e+01
   8.375795e+00  -1.130114e+02
   1.351679e+02  -4.474949e+01
   2.071583e+02   4.882511e+01
   9.244566e+01   1.611084e+02
  -1.219515e+02   2.160983e+02
  -2.228914e+02   9.035491e+01
  -2.673168e+02  -7.900083e+01
  -9.114830e+01  -1.710027e+02
   5.431672e+01  -1.571029e+02
   1.078828e+02  -5.739033e+01
   8.482018e+01  -2.876188e+01
   4.943634e+01  -5.229005e+01
   6.155217e+01  -8.002352e+01
   7.708665e+01   2.749410e+01
   8.716579e+01   1.364159e+02
  -8.143464e-01   2.015582e+02
  -8.714752e+01   1.449199e+02
  -1.206108e+02  -2.432514e+00
  -1.111186e+02  -1.137287e+02
  -1.843140e+01  -1.480874e+02
   8.734401e+01  -6.291080e+01
   8.529351e+01  -1.610113e+00
   1.244506e+01   4.043816e+01
  -1.426968e+01   5.123508e+01
   1.420960e+01   4.414970e+00
   6.457165e+01   4.549896e+01
   6.410013e+01   3.158819e+01
  -6.795833e+01   2.891716e+01
  -1.696004e+02   8.616507e+00
  -1.111730e+02  -3.458565e+01
   4.520743e+00  -1.048078e+02
   1.046423e+02  -7.992628e+01
   1.306715e+02  -5.479107e+00
   7.965511e+01   4.958025e+01
  -5.753652e+01   5.460909e+01
  -6.084731e+01   1.316225e+00
  -3.580310e+01  -8.587355e+01
   5.175041e+01  -5.808434e+01
   2.920471e+01   2.441636e+01
   4.909262e+01   3.991561e+01
   2.778231e+01   5.091461e+01
   3.535089e+01   1.792671e+01
   4.258011e+01  -1.856145e+01
   4.965135e+01   5.756907e+01
  -3.276059e+01   1.245881e+02
  -1.008187e+02   1.199796e+02
  -1.844186e+02   1.518014e+01
  -9.342568e+01  -1.128972e+02
  -1.247599e+01  -1.455914e+02
   9.610815e+01  -8.598128e+01
   7.630677e+01   8.286187e+00
  -7.278368e+01   1.433346e+01
  -1.072156e+02  -7.447313e+01
  -4.849250e+01  -8.174770e+01
   9.078968e+01  -5.965551e+01
   1.773236e+02  -3.474015e+01
   1.155564e+02   4.898579e+01
   5.160696e+01   8.886702e+01
  -9.423738e+01   1.007537e+02
  -5.873166e+01   1.505406e+01
   2.375356e+01  -2.392221e+01
   4.821849e+01  -1.438937e+01
   2.166907e+01   1.094505e+02
  -7.284046e+01   1.441551e+02
  -1.505582e+02   4.225200e+01
  -1.122798e+02  -1.059141e+02
  -3.024837e+01  -1.532321e+02
   9.398607e+01  -9.693288e+01
   9.224566e+01   1.686815e+01
   2.318715e+01   1.060770e+02
   1.232142e+01   9.393030e+01
  -2.227967e+01   9.888191e+00
  -3.132896e+01   9.152005e-01
  -1.145322e+00  -1.295954e+01
  -4.110340e+01   3.399623e+01
  -4.013651e+01  -3.115906e+01
  -5.748060e+01  -7.230411e+01
  -1.985198e+01  -9.194895e+01
   8.079568e+01  -3.115545e+01
   1.394939e+02   4.281868e+01
   9.212278e+01   7.716101e+01
  -1.045194e+01   5.568152e+01
  -6.306450e+01  -7.384333e+00
  -7.728835e+01  -7.499837e+00
  -6.889850e+00   9.700881e+00
   2.351360e+01  -1.778053e+01
   4.096034e+01  -3.451433e+01
  -2.134049e+01  -1.272291e+01
   1.788180e+01  -1.430778e+01
   3.305885e+01   2.619947e+00
   1.062734e+02   3.595137e+01
   9.033981e+00   9.011902e+01
  -1.337292e+02   1.230053e+02
  -1.514104e+02   7.524506e+01
  -1.414572e+02  -5.143879e+01
  -3.275879e+01  -1.660290e+02
   7.437284e+01  -1.683116e+02
   8.771999e+01  -6.474227e+01
   7.024934e+01   1.104560e+01
   2.401257e+01   4.289431e+01
   1.821355e+01   4.043335e+00
   1.777238e+01   1.528330e+00
   2.974732e+01   7.714153e+01
   2.073433e+01   1.139102e+02
  -4.710862e+01   8.949645e+01
  -7.870814e+01  -1.670993e+01
  -6.249856e+01  -7.049466e+01
   1.535790e+01  -8.355747e+01
   6.576528e+01  -1.360448e+01
   7.677231e+01   6.971666e+01
   5.467605e+01   9.291163e+01
  -5.542911e+01   2.104146e+01
  -1.203595e+02   2.826369e+01
  -4.427952e+01  -4.457081e+01
   6.125938e+01  -6.310422e+01
   2.312594e+01  -3.407146e+01
  -3.463634e+01   2.559855e+01
  -6.172324e+01   4.390059e+00
   7.566181e+00  -1.911390e+01
   5.897292e+01  -4.487134e+01
   9.209138e+01  -5.140696e+01
   6.021329e+01   2.724343e+01
  -5.284754e+00   6.084327e+01
  -3.019325e+01   5.378293e+01
  -2.915326e+01   1.077904e+01
  -8.144124e-01  -3.818912e+01
   4.722176e+00  -2.766763e+01
   1.845180e+01   2.160103e+01
   3.295789e+01   6.018855e+01
  -3.150903e+00   3.794256e+01
  -4.343661e+01   3.466824e+01
  -4.794898e+01  -2.008640e+01
  -2.668611e+01  -6.601546e-01
   9.737020e+00   1.285428e+01
  -1.234092e+01  -2.014456e+01
  -6.612875e-01  -1.147740e+01
  -2.888475e+01  -9.441815e+00
   7.547741e+00  -5.355763e+00
   1.235686e+01   3.047187e+01
   9.668936e+00   4.129428e+01
  -1.239723e+01   5.902949e+00
  -7.322074e+01  -1.401983e+01
   2.544271e+00  -6.632199e+01
   4.512097e+01  -1.955727e+01
   1.041976e+02   2.210398e+01
   3.641063e+01   3.337543e+01
  -5.740838e+01   3.684590e+01
  -5.759794e+01   1.104396e+01
  -2.110235e+01   2.795109e+01
   9.707429e+00   1.251814e+00
   1.279745e+01   4.280389e+00
  -4.631859e+00   3.434365e+01
  -5.689013e+01   1.530509e+01
