
 $NMID
 id='ANONYMOUS ', fmtdat='(2E16.6)'
 volume=1.0
 tramp=1.0
 $END
  -4.401443e+03  -9.194357e+01
  -2.365946e+03  -2.833904e+03
   7.818376e+02  -2.500027e+03
   1.964620e+03  -8.503461e+02
   1.053437e+03   6.329860e+02
  -6.621541e+02   6.489206e+02
  -8.935937e+02  -4.939278e+02
   2.247285e+01  -1.090848e+03
   8.609935e+02  -8.798004e+02
   9.836180e+02   7.704017e+01
   4.713880e+02   8.931334e+02
  -2.584300e+02   9.021312e+02
  -6.448316e+02   9.382359e+01
  -3.283466e+02  -7.094209e+02
   3.080126e+02  -7.584025e+02
   5.973180e+02   1.488257e+01
   2.921334e+02   7.168775e+02
  -3.196907e+02   6.404487e+02
  -6.402549e+02   9.119011e+01
  -4.106046e+02  -3.929057e+02
  -1.947129e+01  -5.008788e+02
   2.308715e+02  -2.463838e+02
   2.456838e+02   1.431049e+01
  -1.016472e+02   1.021898e+02
  -4.345669e+02  -1.697799e+02
  -1.783864e+02  -4.881315e+02
   4.274644e+02  -4.649590e+02
   8.513028e+02   9.414886e+01
   4.193382e+02   5.383529e+02
  -3.643742e+02   4.136319e+02
  -7.555769e+02  -9.040866e+01
  -3.417761e+02  -4.919244e+02
   2.764705e+02  -5.583036e+02
   6.199221e+02  -1.456426e+02
   4.239979e+02   2.739068e+02
   2.054763e+01   4.967095e+02
  -2.486386e+02   2.251612e+02
  -1.891878e+02  -2.289582e+02
   2.437093e+02  -4.470568e+02
   4.430877e+02   3.046043e+01
   1.878666e+02   7.179304e+02
  -3.717267e+02   7.304532e+02
  -5.999579e+02   3.472159e+01
  -2.462180e+02  -5.811251e+02
   2.716501e+02  -3.152767e+02
   4.078906e+02   3.341571e+02
  -9.656865e+01   5.367505e+02
  -5.707825e+02   9.751193e+01
  -5.325071e+02  -4.883308e+02
  -1.086721e+02  -6.151951e+02
   4.611374e+02  -3.366020e+02
   6.628421e+02   7.937065e+01
   3.691886e+02   4.097622e+02
  -1.907455e+02   3.720073e+02
  -4.339682e+02   5.486179e+01
  -2.410995e+02  -2.077512e+02
   1.177175e+02  -7.294833e+01
   1.541386e+02   1.555950e+02
  -1.431426e+02   1.947167e+02
  -2.896786e+02  -9.598694e+01
  -1.203409e+02  -2.994796e+02
   2.094206e+02  -2.367521e+02
   3.333276e+02  -8.313898e+01
   2.492234e+02   1.171986e+02
  -1.279023e+01   2.791034e+02
  -2.464382e+02   3.487225e+02
  -4.411669e+02   2.539154e+02
  -2.801625e+02  -1.615267e+02
  -5.683033e+01  -5.088088e+02
   1.277227e+02  -3.706788e+02
   1.408682e+02  -7.931105e+01
   2.175929e+01   5.370890e+00
   5.009429e+01  -7.988883e+01
   1.388898e+02  -1.448478e+02
   3.006905e+02   9.416622e+01
   1.306556e+02   3.196705e+02
  -9.398635e+01   2.642629e+02
  -2.445527e+02   5.919536e+00
  -1.843969e+02  -2.418444e+02
   3.176758e+01  -2.864272e+02
   2.959292e+02  -1.136510e+02
   3.535169e+02   1.851559e+02
   1.679945e+02   3.791225e+02
  -1.147807e+02   3.224856e+02
  -2.178991e+02   1.136233e+02
  -1.562994e+02  -8.383779e+00
  -9.923874e+01  -1.724947e+01
  -2.187013e+02   7.957119e+01
  -4.242276e+02  -1.026316e+02
  -3.672032e+02  -2.889399e+02
   4.757255e+00  -4.851320e+02
   3.646580e+02  -4.592036e+02
   5.224984e+02  -1.525221e+02
   3.537334e+02   1.411948e+02
   6.842529e+01   3.045930e+02
  -1.388017e+02   2.721922e+02
  -1.076559e+02   4.745639e+01
   9.572165e+01  -1.134214e+02
   2.083902e+02   1.007145e+01
   4.329288e+01   1.810689e+02
  -1.556761e+02   1.565436e+02
  -1.868286e+02  -7.343978e+01
   5.340650e+00  -1.680454e+02
   1.823670e+02  -5.533095e-01
   1.506363e+02   2.798568e+02
  -1.077912e+02   3.816822e+02
  -2.528045e+02   2.152199e+02
  -3.241625e+02  -8.582240e+01
  -2.862716e+02  -2.812023e+02
  -9.721587e+01  -2.782911e+02
   1.512594e+02  -1.547285e+02
   2.032638e+02   9.797271e+00
   7.885735e+01   4.125067e+01
  -4.645373e+01  -3.255724e+01
  -2.875893e+01  -1.298172e+02
   1.347443e+02  -9.776019e+01
   1.906318e+02   2.779420e+01
   7.173570e+01   6.948815e+01
  -6.919471e+01   1.005740e+01
  -3.858075e+01  -8.766312e+01
   1.571511e+02  -6.281442e+01
   2.757811e+02  -2.503386e+01
   2.869344e+02   1.682089e+02
   5.683802e+01   2.546395e+02
  -2.107559e+02   2.603836e+02
  -3.121527e+02   1.130155e+02
  -1.688012e+02  -6.360171e+01
   3.988226e+01  -1.262000e+02
   1.097965e+02   1.420763e+01
  -5.735528e+01   1.008513e+02
  -2.045148e+02   1.658644e+01
  -2.296941e+02  -1.133766e+02
  -6.835767e+01  -2.408332e+02
   1.133191e+02  -1.853136e+02
   1.328105e+02  -2.559361e+01
   7.177772e+01   5.477510e+01
  -2.981551e+01   5.697686e-02
  -3.413626e+01  -9.489582e+01
   9.247559e+01  -1.088125e+02
   1.810865e+02  -3.450368e+01
   1.921415e+02   1.418472e+02
   3.909106e+01   1.968064e+02
  -1.615564e+02   1.529828e+02
  -2.068739e+02  -2.171644e+01
  -5.243880e+01  -1.406899e+02
   9.289142e+01  -1.066573e+02
   1.200239e+02  -2.812819e+01
   2.508773e+01   5.177605e+01
  -2.812642e+01   1.261551e+01
  -2.100650e+01   9.082976e+00
   6.856220e+01  -1.461233e+01
   9.741766e+01   6.560493e+01
   4.634216e+00   1.680084e+02
  -1.603394e+02   1.421961e+02
  -2.213136e+02   1.660809e+01
  -2.231084e+02  -1.800597e+02
  -3.133315e+01  -2.672937e+02
   1.264846e+02  -1.476334e+02
   1.490586e+02   1.692298e+01
   9.911991e+01   9.479748e+01
   2.947417e+01   6.068203e+01
   5.950358e+01  -3.126049e+01
   8.056596e+01   1.359379e+00
   1.890520e+01   3.358091e+01
  -6.358420e+01   7.355464e+01
  -1.185678e+02   3.802096e+01
  -1.142607e+02  -2.177749e+01
   2.192697e+01  -1.130939e+02
   1.355938e+02  -9.064613e+01
   2.008808e+02   7.693947e+01
   1.232604e+02   2.104532e+02
  -8.455687e+01   2.809452e+02
  -2.988220e+02   8.445036e+01
  -2.620200e+02  -8.309726e+01
  -7.016265e+01  -1.723866e+02
   5.330789e+01  -1.488068e+02
   1.040083e+02  -1.039422e+02
   8.327743e+01  -6.473878e+01
   9.121619e+01  -1.076297e+02
   1.137432e+02  -5.173181e+01
   1.503217e+02   5.475180e+00
   1.249991e+02   1.859797e+02
   1.175992e+01   2.394886e+02
  -8.459302e+01   1.681366e+02
  -1.798369e+02   2.175245e+01
  -1.443364e+02  -1.274563e+02
   1.159093e+01  -1.763267e+02
   9.665517e+01  -9.285777e+01
   6.694227e+01   1.700665e+01
   2.368124e+01   2.255644e+01
  -1.220409e+01   1.724028e+01
   2.183500e+01   9.740903e+00
   8.946104e+01   5.295996e+01
   4.262049e+01   4.992060e+01
  -7.056868e+01   2.454259e+01
  -1.978768e+02  -8.369430e+00
  -1.385922e+02  -3.462777e+01
  -4.655837e+00  -8.907012e+01
   1.383011e+02  -8.096325e+01
   1.340392e+02   7.921936e+00
   6.134579e+01   6.604452e+01
  -5.463608e+01   1.571903e+01
  -6.400808e+01  -1.641485e+01
  -1.630778e+01  -5.705662e+01
   6.872017e+01  -6.024192e+01
   3.071626e+01   3.732709e+00
   4.488541e+01   4.289091e+01
   4.580154e+01   4.803030e+01
   4.912204e+01   9.460676e+00
   7.187986e+01   1.893977e+01
   9.455547e+00   5.504947e+01
  -6.028971e+01   1.281281e+02
  -1.046908e+02   1.125729e+02
  -1.762860e+02   1.789020e+01
  -1.265307e+02  -9.469375e+01
  -1.529958e+01  -1.451042e+02
   8.230935e+01  -6.707576e+01
   4.271113e+01   2.355327e+01
  -6.783551e+01   1.892660e+01
  -1.019145e+02  -5.530118e+01
  -5.372253e+01  -1.230356e+02
   1.088663e+02  -1.145138e+02
   1.840122e+02  -5.483419e+01
   1.802296e+02   4.356081e+01
   3.721885e+01   6.511262e+01
  -6.009945e+01   5.068680e+01
  -3.338848e+01   1.491599e+01
   3.957485e+01  -2.049310e+01
   6.378922e+01   4.398245e+01
   2.660433e+01   1.310495e+02
  -8.464109e+01   1.514886e+02
  -1.566617e+02   3.590650e+01
  -1.241880e+02  -8.710460e+01
   3.443023e+00  -1.713208e+02
   8.581050e+01  -1.415217e+02
   1.117032e+02   1.001833e+01
   7.181876e+01   1.170517e+02
  -3.432690e+01   1.296204e+02
  -5.398492e+01   1.114596e+01
  -5.951670e+01  -2.573939e+01
  -5.000393e+00  -2.164832e+01
  -1.481641e+01   4.949291e+00
  -1.678374e+01  -2.352951e+01
  -5.828764e+01  -1.062973e+02
  -1.638890e+01  -1.253596e+02
   6.625458e+01  -5.692454e+01
   1.173338e+02   2.578796e+01
   1.301082e+02   5.573680e+01
  -1.091846e+00   4.278318e+01
  -7.727873e+01   1.831277e+00
  -1.277242e+02  -1.741571e+01
  -2.301867e+01   1.881067e+01
   4.947990e+01  -1.505648e+01
   1.172103e+01  -1.668106e+01
   2.851118e+00  -2.054259e+01
   3.822859e+00  -1.237146e+01
   7.061677e+01   1.342175e+01
   1.254528e+02   1.886037e+01
  -1.522660e+01   1.205544e+02
  -1.194138e+02   1.383547e+02
  -2.008014e+02   6.834001e+01
  -1.716160e+02  -7.092901e+01
   1.370501e+01  -1.819297e+02
   1.182428e+02  -1.529812e+02
   1.093635e+02  -4.170306e+01
   7.766415e+01   3.777786e+01
   2.668234e+01   1.724922e+01
   6.487353e+00  -1.153875e+01
   3.510216e+00   3.031463e+00
   4.233069e+01   3.390858e+01
   1.524959e+01   7.556335e+01
  -3.128085e+01   9.699651e+01
  -9.427055e+01  -2.997978e+01
  -6.213634e+01  -1.176393e+02
   1.620201e+01  -1.406923e+02
   1.025842e+02  -2.447564e+01
   9.410536e+01   9.661405e+01
   6.470562e+00   1.298030e+02
  -6.934166e+01   5.449275e+01
  -1.183861e+02  -2.189951e+01
  -5.455519e+01  -8.568132e+01
   1.710059e+01  -4.219537e+01
   3.242014e+01  -2.405291e+01
  -1.926432e+01   2.888793e+01
  -8.124029e+01  -1.535155e+01
  -1.715010e+01  -3.916915e+01
   7.081681e+01  -7.031793e+01
   9.115054e+01  -4.135810e+01
   4.373986e+01   1.528830e+01
  -4.181377e+00   9.739843e+01
  -4.698679e+01   7.135481e+01
  -2.464882e+01  -1.202237e+01
   9.050204e+00  -9.309642e+01
   3.492542e+01  -4.270033e+01
   3.613058e+01   3.274242e+01
   4.641172e+01   8.527271e+01
  -1.859612e+01   4.427934e+01
   1.627790e+01  -2.608546e+01
  -3.772206e+01  -4.429517e+01
  -2.919317e+00  -1.524287e+01
   1.198455e+01   2.687669e+01
   2.777074e-01  -7.617525e+00
   1.385341e+01  -3.698342e+01
   2.606292e+01  -4.474584e+01
   1.942095e+01   1.283811e+01
   2.857898e+01   3.645344e+01
  -1.928436e+01   6.869447e+01
  -4.956411e+01  -6.288666e+00
  -5.614246e+01  -4.128088e+01
  -4.746407e+00  -8.243374e+01
   3.839891e+01  -8.272554e+01
   7.817854e+01   3.003514e+01
   4.534577e+01   2.848876e+01
  -3.452682e+01   3.901518e+01
  -5.555729e+01   2.876674e+01
  -2.450586e+00  -4.365270e+00
   2.308978e+01   9.010322e-01
   2.991153e+01   8.699125e+00
   6.733494e+00   4.494626e+01
  -1.087800e+02   1.521164e+01
