
 $NMID
 id='ANONYMOUS ', fmtdat='(2E16.6)'
 volume=1.0
 tramp=1.0
 $END
   4.706631e+03  -1.008650e+02
   2.922755e+03   2.559105e+03
  -8.638352e+02   2.892353e+03
  -2.155030e+03   1.056662e+03
  -1.011857e+03  -6.392532e+02
   5.573759e+02  -5.290031e+02
   8.434538e+02   4.247366e+02
  -7.078959e+01   9.781172e+02
  -8.763735e+02   6.541565e+02
  -9.890685e+02  -1.903263e+02
  -4.154796e+02  -9.143113e+02
   2.443887e+02  -8.677580e+02
   6.961293e+02  -2.927960e+01
   3.387081e+02   7.762503e+02
  -2.405323e+02   7.215950e+02
  -5.848689e+02  -6.058344e+01
  -2.128083e+02  -6.790190e+02
   3.023567e+02  -6.195233e+02
   5.988782e+02  -7.139596e+01
   3.460916e+02   3.310367e+02
  -1.150577e+01   4.305899e+02
  -2.734835e+02   2.213388e+02
  -1.779694e+02  -4.730568e+01
   1.717094e+02  -8.392339e+01
   4.416737e+02   9.972244e+01
   1.642439e+02   4.795545e+02
  -4.733018e+02   4.723363e+02
  -8.493066e+02  -1.339237e+02
  -3.677635e+02  -5.494271e+02
   4.543155e+02  -5.017355e+02
   7.694657e+02   6.526285e+01
   3.430674e+02   5.651509e+02
  -3.146235e+02   5.322420e+02
  -6.014390e+02   1.742624e+02
  -3.909251e+02  -2.893955e+02
  -3.750450e+01  -4.795465e+02
   2.643380e+02  -2.376845e+02
   1.865007e+02   2.539826e+02
  -2.112953e+02   4.285453e+02
  -5.348757e+02  -4.692227e+00
  -1.902070e+02  -7.179191e+02
   3.772789e+02  -6.567650e+02
   6.946839e+02  -1.347772e+01
   2.496829e+02   6.055651e+02
  -3.423243e+02   3.523784e+02
  -4.079874e+02  -3.548582e+02
   4.793070e+01  -5.665605e+02
   5.609596e+02  -2.292512e+02
   6.441742e+02   3.242659e+02
   2.001176e+02   6.063742e+02
  -3.906612e+02   3.688869e+02
  -6.683253e+02  -6.829586e+01
  -3.850402e+02  -3.948263e+02
   1.537456e+02  -3.662593e+02
   4.601638e+02  -5.491054e+00
   2.123346e+02   2.050980e+02
  -1.516675e+02   1.098763e+02
  -1.768023e+02  -1.717325e+02
   1.882535e+02  -2.158137e+02
   3.883303e+02   6.171347e+01
   1.571531e+02   2.911310e+02
  -2.061990e+02   2.948492e+02
  -3.493907e+02   1.045242e+02
  -2.512655e+02  -6.786552e+01
   2.525227e+01  -2.541694e+02
   2.065540e+02  -3.742733e+02
   3.738993e+02  -2.020124e+02
   2.836554e+02   1.664576e+02
   6.559060e+01   4.259263e+02
  -1.252813e+02   3.662487e+02
  -1.280266e+02   8.077980e+01
  -1.787119e+01  -7.640752e-01
  -4.789163e+01   9.284864e+01
  -1.836513e+02   1.436551e+02
  -3.072021e+02  -3.734204e+01
  -1.970395e+02  -2.602123e+02
   4.967424e+01  -2.579933e+02
   2.364975e+02  -3.200717e+01
   2.201118e+02   2.068308e+02
   2.951359e+01   3.088690e+02
  -2.558269e+02   1.093870e+02
  -3.619154e+02  -1.483495e+02
  -2.060968e+02  -3.475991e+02
   1.307583e+02  -3.073853e+02
   2.286872e+02  -1.517523e+02
   1.338116e+02  -2.030566e+00
   9.462211e+01  -1.980675e+01
   2.357518e+02  -1.160661e+02
   4.043477e+02   7.276460e+00
   3.497440e+02   3.224947e+02
   1.695023e+01   4.272368e+02
  -3.405188e+02   3.612393e+02
  -4.395496e+02   1.773160e+02
  -3.664444e+02  -1.195906e+02
  -3.081126e+01  -3.147734e+02
   1.122197e+02  -2.401915e+02
   6.848812e+01  -2.788491e-02
  -1.239057e+02   1.113132e+02
  -2.141974e+02  -4.716391e+01
  -6.471402e+01  -2.082608e+02
   1.651258e+02  -1.580572e+02
   1.501695e+02   8.556162e+01
  -1.554274e+01   1.980808e+02
  -1.809396e+02   4.143546e+01
  -1.927102e+02  -2.361847e+02
  -3.528538e+00  -3.275648e+02
   2.240237e+02  -2.162012e+02
   3.243177e+02   2.428005e+01
   2.651812e+02   2.003788e+02
   1.264236e+02   2.627052e+02
  -8.732763e+01   1.398672e+02
  -1.593733e+02   2.344089e+01
  -3.191775e+01  -8.645979e+00
   6.082952e+01   3.403926e+01
   2.047029e+01   1.217327e+02
  -9.082112e+01   1.152351e+02
  -1.686369e+02  -6.571156e+01
  -5.925651e+01  -8.885218e+01
   1.045775e+02  -9.568555e+00
   6.552025e+01   5.195303e+01
  -1.244862e+02   1.215541e+02
  -2.562398e+02   4.608635e+00
  -2.930458e+02  -1.315713e+02
  -7.521623e+01  -2.628328e+02
   1.609305e+02  -2.837673e+02
   2.970543e+02  -1.711735e+02
   1.556928e+02   3.868731e+01
  -5.892191e+01   1.040681e+02
  -1.029714e+02  -1.294290e+01
   4.208335e+01  -1.235101e+02
   2.060962e+02  -6.591944e+01
   2.125569e+02   6.473505e+01
   1.112835e+02   2.084851e+02
  -7.120338e+01   1.632710e+02
  -1.557619e+02   3.887268e+01
  -6.973315e+01  -6.244404e+01
   3.447573e+01  -9.943892e+00
   5.586370e+01   9.613313e+01
  -4.706029e+01   1.285875e+02
  -2.137490e+02   3.200567e+01
  -1.885089e+02  -1.067485e+02
  -3.399329e+01  -2.108852e+02
   1.049886e+02  -1.681642e+02
   1.867147e+02   2.141044e+01
   5.107774e+01   1.004834e+02
  -4.629959e+01   9.150659e+01
  -8.544724e+01   2.660816e+01
  -3.519407e+01  -1.385198e+01
   1.403721e+01  -1.235261e+01
   2.984861e+00   4.416358e+00
  -5.759757e+01   8.108358e-01
  -9.836007e+01  -4.240154e+01
  -6.889560e+00  -1.720025e+02
   1.423614e+02  -1.631444e+02
   2.355403e+02  -3.482587e+01
   2.111341e+02   1.722555e+02
   2.171151e+01   2.307628e+02
  -1.325641e+02   1.643878e+02
  -1.364820e+02   1.488849e+01
  -7.195366e+01  -6.359604e+01
  -1.799414e+01  -4.932961e+01
  -6.775053e+01   1.786120e+01
  -1.021592e+02   4.140564e+00
  -2.785489e+01  -4.856787e+01
   6.456913e+01  -8.431269e+01
   7.624058e+01  -4.385928e+01
   8.435891e+01   1.725241e+01
  -9.774694e+00   1.191032e+02
  -1.359620e+02   1.028907e+02
  -1.746501e+02  -5.084712e+01
  -8.823682e+01  -1.903869e+02
   9.003247e+01  -2.228429e+02
   2.394667e+02  -9.929300e+01
   2.389226e+02   8.991313e+01
   1.182073e+02   1.606876e+02
  -1.875926e+01   1.428090e+02
  -8.542634e+01   7.711681e+01
  -5.668620e+01   1.006380e+02
  -7.097545e+01   6.740846e+01
  -9.237221e+01   6.855196e+01
  -1.311570e+02  -1.768960e+01
  -1.546533e+02  -1.444519e+02
  -5.493091e+01  -2.255269e+02
   8.856497e+01  -1.539496e+02
   1.981852e+02  -3.662890e+01
   1.304684e+02   1.286254e+02
   3.059815e+01   1.555799e+02
  -6.208250e+01   1.090953e+02
  -1.010422e+02   2.092084e+00
  -2.613127e+01  -3.242836e+01
   2.540931e+01  -5.678905e+01
  -4.138958e+01  -2.480224e+01
  -8.859628e+01  -1.048365e+01
  -5.046090e+01  -6.425390e+01
   9.265672e+01  -4.945847e+01
   1.698197e+02   1.838138e-01
   1.594333e+02   3.942623e+01
   1.813588e+01   8.713462e+01
  -9.118121e+01   6.923886e+01
  -1.401281e+02  -1.431237e+01
  -3.098825e+01  -6.296017e+01
  -4.742528e+00  -4.830471e+01
   6.173411e+01   1.240285e+01
   1.350598e+01   4.296761e+01
  -5.098828e+01   7.982071e+01
  -6.669706e+01  -1.894219e+00
  -5.868137e+01  -3.938937e+01
  -5.670413e+01  -3.449242e+01
  -7.286050e+01   1.986237e+01
  -8.756682e+01  -5.084375e+00
  -4.192514e+01  -5.472205e+01
   3.363890e+01  -1.233219e+02
   1.141553e+02  -1.213103e+02
   1.479133e+02  -4.002126e+01
   1.513505e+02   8.053717e+01
  -1.346730e+01   1.213990e+02
  -9.113017e+01   4.062349e+01
  -5.513913e+01  -1.101123e+01
   5.744569e+01  -2.053738e+01
   1.520153e+02   2.762166e+01
   7.094102e+01   1.015002e+02
  -8.936080e+01   1.134844e+02
  -1.782014e+02   2.834521e+01
  -1.478935e+02  -3.107033e+01
  -2.399905e+01  -6.661420e+01
   4.295020e+01  -7.293805e+01
   2.877640e+01  -5.468603e+00
  -1.917323e+01   2.170191e+01
  -1.043063e+02  -2.588718e+01
  -6.316147e+01  -1.203182e+02
   1.041900e+02  -1.389883e+02
   1.309202e+02  -7.211894e+01
   1.376635e+02   1.052930e+02
   4.524860e+00   2.027189e+02
  -7.690746e+01   1.231936e+02
  -9.498913e+01  -9.005783e+00
  -7.887730e+01  -1.373250e+02
  -5.930775e+00  -7.055412e+01
   5.914176e+01  -1.491944e+01
   7.726994e+01   3.116761e+01
   3.793506e+01   2.137382e+01
   1.950964e+01  -1.884515e+01
   6.462767e+00   8.529417e+00
   5.418268e+01   1.079980e+02
   4.024522e+01   1.477041e+02
  -4.348475e+01   5.476647e+01
  -1.428695e+02  -3.111484e+01
  -1.376095e+02  -6.476596e+01
  -1.249477e+01  -6.832786e+01
   1.231603e+02  -3.177679e+01
   9.378067e+01  -9.722696e+00
   1.166194e+01   3.801915e-01
  -5.878257e+01   5.704957e+01
  -8.961219e+00   7.883795e+00
   3.753141e+01  -4.573221e+00
  -1.301787e+01  -3.238019e+01
  -7.749598e+01   2.187929e+01
  -1.035568e+02   1.243613e+01
   4.495182e+00  -8.838545e+01
   9.672483e+01  -1.181369e+02
   1.724861e+02  -7.319240e+01
   1.404324e+02   6.199858e+01
   6.463752e+01   1.316787e+02
  -7.559698e+01   1.315523e+02
  -1.063233e+02   9.232765e+01
  -5.096476e+01  -1.690768e+01
  -2.070954e+01  -3.022142e+01
  -4.014123e+00  -2.011136e+01
  -2.690767e+00  -2.093044e+01
  -3.281539e+01  -3.213902e+01
  -3.856453e+01  -1.023799e+02
   4.393447e+01  -8.034097e+01
   9.885943e+01   3.743418e+01
   9.335544e+01   1.007961e+02
   5.458296e+01   1.407373e+02
  -8.847241e+01   1.892988e+01
  -8.396413e+01  -5.490612e+01
  -3.218911e+01  -1.241329e+02
   9.611504e+01  -4.588816e+01
   1.079526e+02   1.922794e+01
   4.416312e+01   5.267331e+01
  -2.068957e+01   6.068116e+01
  -3.373258e+01   2.536881e+01
   1.532412e+01  -3.367777e+00
   6.848167e+01  -3.465120e+01
   4.156511e+01   1.069224e+01
  -3.371312e+01   8.292887e+01
  -8.259603e+01   8.596846e+01
  -4.316941e+01  -2.241761e+01
   2.867599e+01  -1.019401e+02
   5.530299e+01  -1.036375e+02
   2.342280e+01   5.657679e+00
   1.677226e+01   3.878917e+01
  -3.976876e+01   4.659176e+01
  -1.711048e+01  -2.990798e+01
  -2.358988e+01  -7.368948e+01
   1.009385e+01  -2.755495e+01
   4.581633e+01   6.567897e+00
   4.041667e+01   2.571767e+01
   1.002111e+01  -1.151159e+01
  -7.217026e+00  -1.628578e+01
  -3.032099e+01   5.014234e+00
  -7.100115e+00   4.166474e+01
  -6.328266e+00   4.981623e+01
  -2.442229e+01   4.651480e+00
  -2.499239e+01  -3.563144e+01
  -4.878562e+00  -5.574471e+01
   3.545236e+01  -4.875016e+00
   3.857263e+00   3.722692e+01
   2.686511e+01   6.554881e+01
  -6.444578e+01   5.220185e+01
  -9.007178e+01  -2.231288e+00
  -6.427703e+01  -4.576733e+01
   4.680583e+01   5.157317e+00
   5.557952e+01  -1.789484e+01
  -7.871725e+00  -2.029160e+01
  -3.250124e+01   1.252965e+01
  -1.948889e+01  -1.838263e+01
   2.078712e+01  -1.083268e+01
   8.700261e+01  -1.253194e+01
