
 $NMID
 id='ANONYMOUS ', fmtdat='(2E16.6)'
 volume=1.0
 tramp=1.0
 $END
  -4.421081e+03   1.279130e+00
  -2.407567e+03  -2.644800e+03
   9.394735e+02  -2.811147e+03
   2.434772e+03  -6.777721e+02
   1.000041e+03   9.475817e+02
  -7.165171e+02   8.368487e+02
  -1.044945e+03  -4.709954e+02
   2.334898e-01  -1.192894e+03
   9.789156e+02  -7.700695e+02
   1.002044e+03   1.424501e+02
   4.718727e+02   9.752411e+02
  -2.681423e+02   9.593945e+02
  -6.907244e+02   7.570908e+01
  -3.743178e+02  -7.804444e+02
   3.268333e+02  -8.250364e+02
   6.319556e+02   4.748097e+01
   2.639706e+02   7.276847e+02
  -3.723978e+02   6.661379e+02
  -6.121709e+02   4.692717e+01
  -3.646163e+02  -3.778631e+02
   1.088375e+01  -4.332967e+02
   2.205471e+02  -2.506232e+02
   2.064411e+02   1.874149e+01
  -9.572456e+01   1.086059e+02
  -4.110383e+02  -1.175939e+02
  -1.889868e+02  -4.324688e+02
   4.401691e+02  -3.934845e+02
   8.709257e+02   6.495664e+01
   4.160773e+02   5.799049e+02
  -4.234215e+02   4.825685e+02
  -7.287670e+02  -4.419404e+01
  -3.598670e+02  -5.174454e+02
   2.653494e+02  -4.945928e+02
   5.969006e+02  -2.121771e+02
   4.142966e+02   2.429648e+02
   7.588753e+01   4.517276e+02
  -2.692402e+02   2.846017e+02
  -1.856949e+02  -2.299413e+02
   1.569574e+02  -4.013901e+02
   4.593635e+02   5.504178e+01
   2.537901e+02   7.334612e+02
  -3.956083e+02   7.274512e+02
  -6.496566e+02  -2.837231e+01
  -2.018415e+02  -5.908448e+02
   3.422504e+02  -3.513910e+02
   4.316165e+02   3.818857e+02
  -9.220032e+01   6.039700e+02
  -6.023841e+02   1.168794e+02
  -5.689685e+02  -4.109357e+02
  -1.421738e+02  -6.061045e+02
   4.227097e+02  -3.422976e+02
   6.878469e+02   1.294774e+02
   3.598057e+02   4.401989e+02
  -1.799923e+02   3.640122e+02
  -4.641355e+02   3.156153e+01
  -2.339469e+02  -2.291156e+02
   1.529313e+02  -9.760061e+01
   1.284241e+02   1.774371e+02
  -1.842052e+02   2.079309e+02
  -3.604199e+02  -7.572391e+01
  -1.836266e+02  -2.866648e+02
   2.104113e+02  -2.675090e+02
   3.619664e+02  -8.981036e+01
   1.836535e+02   1.049353e+02
  -4.054854e+01   2.172655e+02
  -2.339455e+02   3.316414e+02
  -3.157668e+02   2.061869e+02
  -2.917081e+02  -1.931504e+02
  -6.594966e+01  -4.511205e+02
   1.437141e+02  -3.763154e+02
   1.783297e+02  -1.021769e+02
   2.010737e+01   4.672542e+00
   7.110335e+00  -9.114688e+01
   1.445045e+02  -1.161550e+02
   2.715670e+02   5.807213e+01
   1.474011e+02   2.965575e+02
  -7.842615e+01   2.654088e+02
  -2.813098e+02  -1.428813e-02
  -2.140164e+02  -2.768546e+02
   1.120697e+01  -3.218112e+02
   2.696355e+02  -1.024322e+02
   4.018918e+02   1.781812e+02
   1.514492e+02   3.934302e+02
  -1.084421e+02   3.227526e+02
  -2.503132e+02   1.200552e+02
  -1.901992e+02  -5.666913e+01
  -5.651381e+01   1.787010e+01
  -1.576166e+02   1.007828e+02
  -3.976530e+02  -3.200618e+01
  -3.413341e+02  -2.996850e+02
   9.801439e+00  -4.642673e+02
   3.822787e+02  -4.267755e+02
   5.145300e+02  -1.554536e+02
   3.322345e+02   1.253905e+02
   4.702321e+01   2.979879e+02
  -1.752307e+02   2.656230e+02
  -6.525277e+01  -4.718865e+00
   9.415106e+01  -1.476648e+02
   2.008272e+02  -2.377085e+01
   5.342117e+01   2.136728e+02
  -1.641821e+02   2.208153e+02
  -1.849406e+02  -3.705704e+01
   2.737069e+01  -2.180055e+02
   2.328104e+02  -4.071606e+01
   1.865842e+02   2.410938e+02
  -4.637997e+01   3.732544e+02
  -2.633694e+02   2.001815e+02
  -3.502922e+02  -8.403070e+01
  -2.649788e+02  -2.469594e+02
  -7.078479e+01  -2.871381e+02
   1.430951e+02  -1.818513e+02
   1.845346e+02  -1.074301e+01
   5.536164e+01   5.831450e+01
  -6.182874e+01  -4.159059e+01
  -4.430009e+01  -1.346484e+02
   1.236788e+02  -9.433452e+01
   1.888223e+02   5.197047e+00
   4.232270e+01   8.202742e+01
  -1.148855e+02   1.575292e+01
  -5.709672e+01  -9.517240e+01
   1.108372e+02  -8.540315e+01
   2.779362e+02  -2.086013e+01
   2.628502e+02   1.221075e+02
   6.762919e+01   2.612792e+02
  -1.790335e+02   2.810062e+02
  -3.126302e+02   1.083073e+02
  -1.526392e+02  -6.295019e+01
   4.366583e+01  -1.389377e+02
   9.301158e+01  -1.749535e+01
  -2.803259e+01   1.143727e+02
  -2.237654e+02   5.706686e+01
  -2.372212e+02  -1.128188e+02
  -9.330545e+01  -2.277237e+02
   9.363233e+01  -1.639690e+02
   1.121376e+02  -9.219076e+00
   5.105480e+01   2.385034e+01
  -4.417756e+01  -1.486130e+01
  -1.634240e+01  -9.949118e+01
   5.647834e+01  -1.082996e+02
   1.847915e+02  -2.495945e+01
   1.988870e+02   1.411969e+02
  -2.656546e+00   2.208654e+02
  -1.824804e+02   1.551272e+02
  -1.939874e+02   9.517708e+00
  -5.597032e+01  -1.169690e+02
   7.311224e+01  -9.013713e+01
   9.883022e+01  -2.257117e+01
   2.910862e+01   4.843145e+01
  -3.034311e+01  -1.416607e+01
   4.283704e+00  -1.906632e+01
   4.191295e+01   1.447026e+01
   7.960980e+01   4.069029e+01
   1.371162e+01   1.630958e+02
  -1.327242e+02   1.684651e+02
  -2.331704e+02  -6.923130e+00
  -1.957686e+02  -1.512279e+02
  -4.183472e+01  -2.554135e+02
   1.294952e+02  -2.088902e+02
   1.376408e+02   7.733957e+00
   6.752551e+01   7.688162e+01
   1.032092e+01   3.531350e+01
   6.553537e+01   8.070561e+00
   6.435126e+01   1.134167e+01
   5.305742e+01   4.865155e+01
  -3.983683e+01   8.425800e+01
  -8.685826e+01   7.010539e+01
  -1.028894e+02  -4.363128e+01
   2.902694e+01  -8.814698e+01
   1.424640e+02  -7.765756e+01
   1.987938e+02   3.934321e+01
   1.098151e+02   1.844897e+02
  -1.120733e+02   2.044866e+02
  -2.562666e+02   7.905403e+01
  -2.818579e+02  -8.300581e+01
  -1.312992e+02  -1.541652e+02
   4.761092e+01  -1.432599e+02
   8.954864e+01  -5.377755e+01
   9.670874e+01  -8.505337e+01
   5.516532e+01  -8.516376e+01
   1.031875e+02  -6.447726e+01
   1.172509e+02   3.732981e+01
   1.387630e+02   1.357170e+02
   4.811797e+01   2.223276e+02
  -8.557580e+01   1.820300e+02
  -1.372973e+02   2.665940e+01
  -1.297135e+02  -1.105023e+02
  -9.132389e+00  -1.729589e+02
   8.545643e+01  -8.741310e+01
   4.594799e+01  -1.612299e+00
  -1.508380e+01   3.883019e+01
  -3.671910e+01   1.157780e+01
   3.494084e+01   2.702679e+01
   5.644466e+01   1.155969e+01
   7.374895e+01   1.337962e+01
  -7.248814e+01   2.475295e+01
  -1.225758e+02  -4.397820e+00
  -1.679801e+02  -6.281909e+01
  -4.151973e+01  -1.055652e+02
   9.820508e+01  -4.933181e+01
   1.492828e+02  -2.556165e+01
   4.561985e+01   1.535306e+01
  -5.419276e+01   4.274132e+01
  -5.528067e+01  -4.922278e+01
  -5.728837e+00  -6.470317e+01
   5.180376e+01  -8.463453e+00
   7.794143e+01   2.546924e+00
   6.324695e+01   5.488416e+01
   2.519020e+01   3.721245e+01
   3.809472e+01   2.002609e+01
   6.734078e+01  -3.027071e+00
   2.393270e+01   5.672945e+01
  -1.895258e+01   1.490094e+02
  -8.617946e+01   1.098877e+02
  -1.484872e+02   5.739820e+01
  -1.187034e+02  -6.642918e+01
   5.634413e+00  -9.292736e+01
   7.856923e+01  -5.491941e+01
   7.448966e+01  -3.640891e+00
  -4.689368e+01   2.395022e+01
  -1.679278e+02  -4.495696e+01
  -1.145719e+02  -1.080953e+02
   4.924489e+01  -1.218486e+02
   1.666293e+02  -4.698036e+01
   1.638887e+02   4.797194e+01
   4.287814e+01   8.590851e+01
  -5.754957e+01   7.027444e+01
  -6.567758e+01   1.276747e+01
   2.213351e+01  -3.920242e+01
   6.304013e+01   2.543354e+01
   5.692498e+01   1.097111e+02
  -9.531984e+01   1.815918e+02
  -1.412604e+02   8.324019e+01
  -1.342298e+02  -8.930975e+01
  -1.914870e+01  -2.000374e+02
   6.914822e+01  -1.436772e+02
   1.049923e+02  -1.421244e+00
   8.103924e+01   1.077521e+02
  -2.212271e+00   1.271199e+02
  -5.105578e+01   3.331496e+01
  -4.259899e+01  -1.802495e+01
  -1.371262e+01  -2.631147e+01
  -2.408351e+01   3.729193e+01
  -5.867088e+00  -3.728367e+01
  -4.383278e+01  -6.303703e+01
  -3.952904e+01  -8.718757e+01
   6.502588e+01  -2.780214e+01
   1.082132e+02   1.615853e+01
   1.047368e+02   5.509476e+01
   1.786941e+01   5.579730e+01
  -7.499115e+01   3.808626e+01
  -8.859116e+01   2.182967e+01
  -1.804678e+01  -1.421684e+01
   4.472342e+01  -4.414454e+01
   1.626189e-01  -1.486297e+00
  -2.958974e+01   1.105210e+01
   1.003845e-01   2.430492e+01
   7.792546e+01   1.286279e+01
   8.376269e+01   4.240320e+01
   1.732714e+01   9.125273e+01
  -1.232658e+02   7.468251e+01
  -1.733067e+02   2.871070e+01
  -1.488500e+02  -5.782615e+01
  -4.440234e+01  -1.504511e+02
   8.709963e+01  -1.571496e+02
   1.219086e+02  -3.507995e+01
   9.220126e+01   2.594928e+01
   2.338924e+01   4.152862e+01
   3.257407e+00   3.730033e+01
   2.936498e+01   1.931115e+01
   2.143067e+01   4.810698e+01
   2.890091e+01   5.804222e+01
  -1.584613e+01   4.564680e+01
  -6.884787e+01  -4.087205e+01
  -5.379992e+01  -7.089359e+01
   2.080753e+01  -5.142892e+01
   9.218328e+01  -3.092103e+01
   8.469271e+01   9.234149e+01
   1.713485e+00   9.871889e+01
  -5.774970e+01   5.559014e+01
  -9.450635e+01  -2.041195e+01
  -3.826975e+01  -3.448443e+01
   4.133931e+01  -3.242414e+01
   2.121537e+01  -2.439412e+01
  -4.709961e+01  -1.337533e+01
  -8.925373e+01   7.049853e+00
  -2.228657e+01  -2.096295e+01
   8.750813e+01  -9.715353e+01
   1.415382e+02  -4.613801e+01
   6.841255e+01   1.821411e+01
  -2.578257e+01   1.003410e+02
  -7.068240e+01   8.504028e+01
  -4.913967e+01   9.356955e+00
  -2.055333e+01  -8.591886e+01
   2.909610e+01  -3.570253e+01
   1.806670e+01   2.311726e+01
   1.568806e+00   6.718507e+01
  -3.145831e+00   3.952005e+01
  -1.976828e+01  -3.085231e+01
  -5.757276e+01  -3.210040e+01
  -3.130692e+01   3.052400e+01
  -8.558842e+00   1.122648e+01
  -1.322621e+01   2.787657e+00
   1.568550e+01  -4.196324e+01
   2.031888e+01  -4.864817e+01
   5.025915e+01  -3.507675e+01
   4.507269e+01   5.018269e+01
  -6.624415e+00   4.629449e+01
  -6.176630e+01   2.488259e+01
  -4.487030e+01  -2.448606e+01
  -1.062051e+01  -4.555097e+01
   5.800809e+01  -2.652235e+01
   7.544147e+01   3.511092e+01
   3.435867e+01   5.094923e+01
  -4.082453e+01   5.886423e+01
  -7.865232e+01   1.557265e+01
  -7.856078e+00  -3.568942e+01
   4.021288e+01  -9.818314e-01
   2.714971e+01   1.905626e+01
  -3.502337e+01   2.108841e+01
  -9.925931e+01   3.490832e+01
