
 $NMID
 id='ANONYMOUS ', fmtdat='(2E16.6)'
 volume=1.0
 tramp=1.0
 $END
   4.462109e+03   2.480057e+01
   2.432700e+03   2.541039e+03
  -6.810781e+02   2.758827e+03
  -2.388802e+03   7.933110e+02
  -9.534355e+02  -8.275414e+02
   6.279029e+02  -7.312148e+02
   1.077444e+03   3.606487e+02
   5.627504e+01   1.046820e+03
  -8.597249e+02   7.679278e+02
  -9.734134e+02  -8.451621e+01
  -5.089174e+02  -9.233788e+02
   2.133194e+02  -9.602691e+02
   6.899491e+02  -1.284809e+02
   4.178961e+02   7.966669e+02
  -2.737893e+02   8.224738e+02
  -6.544698e+02   2.870487e+01
  -3.194495e+02  -6.969804e+02
   3.178116e+02  -7.063447e+02
   6.070876e+02  -1.153425e+02
   4.186409e+02   3.713974e+02
   2.084880e+01   4.816195e+02
  -2.745385e+02   2.704262e+02
  -2.531768e+02   1.099571e+01
   1.210406e+02  -1.271720e+02
   4.001063e+02   9.840513e+01
   2.294368e+02   4.450270e+02
  -4.239471e+02   4.511250e+02
  -8.621498e+02  -7.274490e+01
  -4.448038e+02  -6.011875e+02
   4.306828e+02  -5.507010e+02
   7.615465e+02   3.551481e+01
   3.552604e+02   5.043888e+02
  -2.850431e+02   5.695466e+02
  -5.667168e+02   2.015006e+02
  -4.307907e+02  -2.141934e+02
  -5.300642e+01  -5.071297e+02
   2.357039e+02  -2.742465e+02
   1.913376e+02   2.539258e+02
  -1.499179e+02   4.033623e+02
  -4.773415e+02   1.990541e+01
  -2.608819e+02  -6.947622e+02
   3.398514e+02  -7.076178e+02
   6.052866e+02  -5.486109e+01
   2.619870e+02   5.619233e+02
  -3.553660e+02   3.588362e+02
  -4.461701e+02  -2.984871e+02
   3.064997e+01  -5.907811e+02
   5.852338e+02  -1.818627e+02
   6.758712e+02   3.764779e+02
   1.523973e+02   5.901409e+02
  -3.852889e+02   3.393666e+02
  -6.366107e+02  -7.169164e+01
  -3.541542e+02  -3.979094e+02
   1.192766e+02  -3.552894e+02
   4.139689e+02  -7.699161e+01
   2.669506e+02   1.769177e+02
  -1.216579e+02   1.353138e+02
  -1.818403e+02  -1.169418e+02
   1.586827e+02  -2.088015e+02
   3.625940e+02   4.352672e+01
   1.532889e+02   2.744551e+02
  -1.712328e+02   2.735832e+02
  -3.873330e+02   7.716638e+01
  -2.037512e+02  -8.982347e+01
   2.632207e+01  -2.193885e+02
   2.634638e+02  -3.255229e+02
   3.681443e+02  -2.166757e+02
   2.890013e+02   1.466508e+02
   7.405309e+01   3.917032e+02
  -1.018511e+02   3.927116e+02
  -1.433893e+02   1.026863e+02
  -3.893712e+01  -3.040362e+01
  -2.985997e+01   9.936871e+01
  -2.044301e+02   1.195923e+02
  -2.695690e+02  -3.108365e+01
  -1.739735e+02  -2.451990e+02
   7.708270e+01  -2.719198e+02
   2.508565e+02   5.040372e+00
   2.021042e+02   2.630154e+02
  -2.743922e+01   2.995220e+02
  -2.587800e+02   8.820100e+01
  -3.490283e+02  -1.788765e+02
  -1.894499e+02  -3.529354e+02
   9.931179e+01  -3.391642e+02
   2.459187e+02  -1.494369e+02
   1.842252e+02   5.574067e+01
   6.065085e+01   1.001170e+01
   1.973517e+02  -1.218862e+02
   3.722198e+02  -3.670875e+00
   3.867319e+02   2.877566e+02
   1.979565e+00   4.922726e+02
  -3.277129e+02   4.112481e+02
  -4.900624e+02   1.613467e+02
  -3.045907e+02  -1.297593e+02
  -2.841423e+01  -3.053703e+02
   1.274351e+02  -2.541452e+02
   5.483293e+01  -3.533138e+01
  -1.102629e+02   1.232566e+02
  -2.432355e+02  -1.884761e+01
  -5.292737e+01  -2.152239e+02
   1.889439e+02  -1.920883e+02
   1.829493e+02   3.299592e+01
  -1.255475e+01   1.788238e+02
  -2.124822e+02   5.181149e+01
  -2.057457e+02  -2.448508e+02
   3.383472e-01  -3.703259e+02
   2.709222e+02  -1.910151e+02
   3.543314e+02   6.309028e+01
   2.835197e+02   2.600362e+02
   3.386923e+01   2.633920e+02
  -1.544794e+02   1.523468e+02
  -1.822114e+02   1.323074e+01
  -5.271275e+01  -5.886675e+01
   6.690830e+01   3.745079e+01
   5.397206e+01   1.142505e+02
  -1.280785e+02   1.212199e+02
  -1.615946e+02   1.871891e+01
  -5.805038e+01  -7.504641e+01
   8.256884e+01  -4.602109e+01
   9.644245e+01   1.187107e+02
  -1.187135e+02   8.514992e+01
  -2.696077e+02   1.086896e+01
  -2.711454e+02  -1.181317e+02
  -6.111012e+01  -2.644338e+02
   1.742593e+02  -2.752997e+02
   2.672849e+02  -1.078617e+02
   1.880113e+02   5.028417e+01
  -4.624452e+01   1.162941e+02
  -8.176095e+01   4.054737e+01
   3.349703e-01  -1.010243e+02
   2.102956e+02  -6.207692e+01
   2.207054e+02   1.081468e+02
   8.498081e+01   2.095038e+02
  -8.702670e+01   1.569985e+02
  -1.490661e+02   1.382220e+01
  -4.044708e+01  -2.112273e+01
   7.323926e+01  -8.200446e+00
   2.044592e+01   7.559583e+01
  -9.346997e+01   1.276525e+02
  -1.738346e+02   4.000792e+01
  -1.910643e+02  -1.076916e+02
  -2.604184e+01  -2.192382e+02
   1.613921e+02  -1.688108e+02
   1.843802e+02   1.668584e+00
   6.394350e+01   9.009031e+01
  -7.227339e+01   1.163645e+02
  -8.816252e+01   4.438415e+01
   3.030006e-01  -2.176134e+01
   3.692906e+01   8.962902e+00
  -8.673795e+00   2.697477e+01
  -8.290622e+01  -1.188274e+01
  -1.065969e+02  -7.736556e+01
  -8.962335e+00  -1.579270e+02
   1.305102e+02  -1.431072e+02
   2.274896e+02  -1.746386e+01
   2.208705e+02   1.308460e+02
   3.246987e+01   2.569866e+02
  -1.036210e+02   1.576630e+02
  -1.271211e+02   3.851093e+01
  -5.851926e+01  -3.440297e+01
   5.242601e-01  -5.114501e+00
  -3.451744e+01   1.810115e+01
  -1.213798e+02  -8.906782e+00
  -3.358230e+01  -5.082435e+01
   7.155585e+01  -8.689605e+01
   1.165862e+02  -6.604284e+01
   7.109508e+01   4.789064e+01
  -1.958293e+01   1.211536e+02
  -1.649808e+02   5.507543e+01
  -1.644805e+02  -3.706135e+01
  -8.244312e+01  -1.840648e+02
   1.106130e+02  -2.339888e+02
   2.552501e+02  -9.151945e+01
   2.887849e+02   7.530991e+01
   1.284807e+02   1.706227e+02
  -3.142896e+01   1.212687e+02
  -6.902968e+01   6.991906e+01
  -5.894419e+01   8.832181e+01
  -9.621579e+01   8.932656e+01
  -9.932818e+01   7.930860e+01
  -1.307856e+02   7.293189e+00
  -1.072465e+02  -1.542439e+02
  -3.390037e+01  -1.945729e+02
   8.637816e+01  -1.735377e+02
   1.455028e+02  -6.480780e+00
   1.173344e+02   1.148129e+02
   3.384552e+01   1.647652e+02
  -7.321895e+01   1.008847e+02
  -8.058602e+01   7.393198e+00
   2.530720e+01  -5.075286e+01
   4.131326e+00  -4.474201e+01
  -4.392768e+01  -8.609199e-01
  -6.951602e+01  -2.817272e+01
  -1.830411e+01  -2.723349e+01
   5.823085e+01  -2.241818e+01
   1.522121e+02   1.108489e+01
   1.171792e+02   5.790114e+01
  -1.523609e+01   5.015726e+01
  -1.081176e+02   6.281929e+01
  -1.157092e+02   2.531788e+01
  -2.647183e+01  -3.580380e+00
   6.183732e+01  -4.187706e+01
   8.680838e+01   7.245638e+00
   1.250815e+00   7.363168e+01
  -5.033531e+01   5.129535e+01
  -6.487227e+01  -3.610628e+00
  -5.479577e+01  -8.137603e+01
  -3.530195e+01  -2.828633e+01
  -7.127280e+01   6.373210e+00
  -8.164201e+01  -1.007108e+00
  -6.061905e+01  -4.814278e+01
   1.347338e+01  -1.474595e+02
   1.273904e+02  -1.696716e+02
   1.852437e+02  -6.436302e+01
   1.008199e+02   6.687979e+01
   3.426809e+01   1.024613e+02
  -8.806572e+01   7.567392e+01
  -4.147844e+01  -9.955013e+00
   4.942083e+01  -4.494021e+00
   1.410464e+02   2.361642e+01
   9.975458e+01   1.188971e+02
  -8.600773e+01   1.182596e+02
  -1.716355e+02   4.702096e+01
  -1.814189e+02  -3.586937e+01
  -1.894848e+01  -1.025755e+02
   6.066832e+01  -8.066060e+01
   3.504221e+01  -4.245532e+01
  -3.743497e+01   3.692632e+01
  -8.782761e+01  -1.966411e+01
  -6.141030e+01  -1.167146e+02
   1.026465e+02  -1.373224e+02
   1.974197e+02  -7.705279e+01
   1.103195e+02   1.031537e+02
  -6.021520e+00   1.932088e+02
  -7.426908e+01   1.101731e+02
  -1.050310e+02  -1.881085e+01
  -3.755881e+01  -1.053737e+02
  -1.453996e+01  -1.196173e+02
   3.078988e+01   2.138640e+01
   3.726150e+01   4.000942e+01
   3.990397e+01   1.900390e+00
   1.291885e+01  -3.584814e+01
   2.511510e+01   1.437241e+01
   4.230054e+01   7.744903e+01
   3.200546e+01   1.058198e+02
  -3.135525e+01   2.926238e+01
  -1.388438e+02  -2.175896e+01
  -1.282991e+02  -7.672326e+01
  -1.577059e+01  -6.519945e+01
   6.302147e+01  -3.243103e+01
   6.972448e+01   5.793669e+00
   1.640406e+01   5.035410e+01
  -6.004984e+01   1.716288e+01
  -1.222493e+01   1.352359e+01
   3.368278e+01  -5.648474e+00
   1.195226e+01  -3.292880e+01
  -7.333036e+01  -9.536743e+00
  -5.818593e+01  -9.527153e+00
   1.335545e+01  -9.774982e+01
   1.028308e+02  -1.165960e+02
   1.511990e+02  -5.049546e+01
   1.127018e+02   4.361362e+01
   2.790751e+01   1.342484e+02
  -9.076152e+01   1.526805e+02
  -9.968429e+01   4.259727e+01
  -9.789847e+01  -2.468292e+01
  -4.114088e+01  -3.488828e+01
  -1.510926e+01  -1.065331e+01
  -1.296896e+01   9.344592e-01
  -4.271460e+01  -3.200702e+01
  -7.811025e+00  -8.547969e+01
   4.685885e+01  -4.382108e+01
   8.236832e+01   2.305972e+01
   7.119336e+01   1.049231e+02
  -5.554197e+00   9.865499e+01
  -8.530953e+01   1.068466e+01
  -1.281268e+02  -6.872520e+01
  -1.298764e+01  -1.002412e+02
   5.611892e+01  -4.082133e+01
   1.195593e+02  -4.230834e+00
   1.714927e+01   6.147978e+01
  -4.965380e+01   1.658287e+01
  -2.876881e+01   1.301141e+01
   4.606939e+01  -4.167125e+00
   7.623205e+01   2.747706e+00
   4.255114e+01   3.311644e+01
  -8.490915e+01   9.144151e+01
  -1.274372e+02   5.936057e+01
  -5.834141e+01  -1.529666e+01
   1.211721e+01  -6.181955e+01
   6.145405e+01  -8.146849e+01
   6.161778e+01   1.899134e+01
   1.706025e+01   5.568966e+01
  -2.633942e+01   5.028589e+01
  -2.168607e+01  -2.339411e+01
  -1.901882e+01  -4.582440e+01
   5.133402e+00  -2.259196e+01
   1.509543e+01  -9.790782e+00
   6.275526e+01   1.155714e+01
   2.646793e+01  -1.807278e+01
   7.435003e+00  -3.972471e+01
   2.537389e+01   2.059799e+01
  -1.010589e+00   4.936949e+01
  -2.297090e+01   6.103466e+01
  -1.988942e+01   2.443624e+01
  -3.036657e+01  -4.499625e+01
  -1.237994e+01  -7.757002e+01
   5.178848e+01  -2.889191e+01
   4.119996e+01   3.098895e+01
   3.819977e+01   4.120213e+01
  -7.399023e+01   3.155916e+01
  -8.774225e+01  -2.160367e+01
  -5.363281e+01  -6.169223e+01
   3.063701e+01  -6.035570e+01
   6.143943e+01  -1.290216e+01
   9.341449e+00   1.426652e+01
  -4.543043e+01  -1.633396e+01
  -2.737732e+01  -2.915504e+01
   4.315891e+01  -1.629915e+01
   9.166302e+01  -3.322286e+01
