
 $NMID
 id='ANONYMOUS ', fmtdat='(2E16.6)'
 volume=1.0
 tramp=1.0
 $END
  -2.280684e+03  -1.809180e+02
  -1.852097e+03  -1.171292e+03
   3.281574e+01  -1.581986e+03
   8.398963e+02  -7.621945e+02
   5.747227e+02  -7.470764e+01
  -6.385622e+01   2.218054e+02
  -2.806941e+02  -6.914794e+01
   6.578121e+01  -3.689072e+02
   2.589469e+02  -3.263148e+02
   4.337672e+02  -3.255680e+01
   2.008655e+02   3.510156e+02
   1.148440e+02   5.052464e+02
  -1.730414e+02   1.064057e+02
  -1.873887e+02  -2.537576e+02
   2.848900e+01  -3.419344e+02
   2.107173e+02  -6.037415e+01
   1.996941e+02   2.763158e+02
  -3.270705e+01   4.088060e+02
  -2.530718e+02   2.214071e+02
  -2.487175e+02  -7.681742e+01
  -1.189704e+02  -1.606439e+02
   6.755452e+01  -1.747816e+02
   4.615517e+01  -8.128175e+01
  -1.005038e+02  -1.216508e+02
  -1.617419e+02  -1.350095e+02
   2.065156e+01  -2.276042e+02
   2.902145e+02  -1.180367e+02
   3.737881e+02   8.832804e+01
   1.324715e+02   2.168650e+02
  -1.899269e+02   1.433803e+02
  -3.283504e+02  -7.969414e+01
  -1.085019e+02  -2.374881e+02
   1.479136e+02  -2.114628e+02
   2.167092e+02  -1.272846e+02
   2.213023e+02   7.942391e+01
   1.100985e+02   1.674636e+02
  -2.097641e+01   1.414856e+02
   6.300452e+01  -1.208123e+00
   1.259791e+02  -1.400436e+02
   1.590244e+02   6.785290e+01
   7.069067e+01   3.344396e+02
  -1.138551e+02   2.976395e+02
  -2.600701e+02   4.617631e+01
  -1.322964e+02  -1.831552e+02
   8.031526e+01  -1.194151e+02
   1.139987e+02   1.313577e+02
  -2.333505e+01   2.348859e+02
  -3.344299e+02   9.979952e+00
  -3.554667e+02  -2.364797e+02
  -8.649856e+01  -3.230621e+02
   1.498716e+02  -1.903846e+02
   3.929100e+02   2.250430e+01
   2.166644e+02   1.606631e+02
   5.530110e+00   1.700716e+02
  -1.971581e+02   6.025647e+01
  -1.439194e+02  -8.847287e+00
  -3.075993e+00  -2.787917e+01
   2.812134e+01   6.415152e+01
  -5.644453e+01   1.910330e+01
  -1.630853e+02  -6.473127e+01
  -4.267186e+01  -1.408659e+02
   1.414274e+02  -1.683230e+02
   2.185662e+02  -5.427338e+01
   1.477369e+02   7.062122e+01
  -2.468866e+01   1.549557e+02
  -1.557251e+02   2.380990e+02
  -1.861920e+02   9.495262e+01
  -1.941961e+02  -8.853528e+01
  -6.127142e+01  -2.595353e+02
   4.668782e+01  -2.778056e+02
  -7.245114e+00  -1.089090e+02
   1.118952e+01  -6.486998e+01
   8.412318e+01  -7.405390e+01
   1.578403e+02  -3.833036e+01
   1.694810e+02   5.712832e+01
   2.914782e+01   1.753165e+02
  -6.902781e+01   9.304045e+01
  -1.091782e+02  -1.078631e+01
  -1.054824e+02  -1.288675e+02
  -3.864968e-01  -1.624801e+02
   1.386877e+02  -4.861770e+01
   2.200369e+02   7.314120e+01
   1.024090e+02   2.136450e+02
  -1.709446e+01   1.960897e+02
  -1.318206e+02   7.316161e+01
  -1.252768e+02   6.287957e+01
  -1.732271e+02   3.588378e+01
  -1.988745e+02  -9.816813e+00
  -2.495991e+02  -8.991449e+01
  -1.671569e+02  -1.863283e+02
   1.968698e+01  -2.430311e+02
   2.502253e+02  -2.168135e+02
   3.206823e+02  -1.674287e+02
   1.897457e+02   5.831244e+01
  -3.728755e+00   1.645214e+02
  -5.436464e+01   1.492988e+02
   7.775915e+00   4.751271e+01
   6.511671e+01  -1.291138e+01
   9.414357e+01   4.555794e+01
   5.116624e+00   9.791146e+01
  -5.973364e+01   7.609308e+01
  -6.704949e+01  -4.785569e+01
   1.483300e+01  -5.703879e+01
   1.196690e+02   1.954728e+01
   6.907406e+01   1.863019e+02
  -3.340809e+01   2.607592e+02
  -1.326467e+02   1.767784e+02
  -2.208033e+02  -5.912249e+01
  -1.917227e+02  -1.796998e+02
  -3.671144e+01  -1.234490e+02
   6.057520e+01  -7.783678e+01
   1.008059e+02  -1.023570e+01
   4.067747e+01   1.240387e+00
  -2.412240e+01  -3.547121e+01
  -2.193619e+01  -5.690009e+01
   8.246438e+01  -2.337133e+01
   6.804301e+01   1.615088e+01
   1.085952e+01   2.152176e+01
  -7.136930e+01  -4.754606e+00
  -2.756581e+01  -3.542365e+01
   1.010503e+02  -4.759273e+01
   1.872337e+02   2.767641e+01
   1.626745e+02   1.028723e+02
   9.775654e+00   1.734555e+02
  -1.439795e+02   1.462272e+02
  -1.756829e+02   5.340662e+01
  -8.150033e+01  -1.269022e+01
  -8.128323e+00  -2.236320e+01
   5.881372e+01  -1.274005e+01
  -2.131680e+01   3.782701e+01
  -1.038333e+02   7.977035e+00
  -1.074289e+02  -6.308342e+01
  -3.684477e+01  -1.363033e+02
   7.436613e+01  -9.279808e+01
   8.231223e+01  -1.104145e+01
   7.256569e+01   3.689650e+01
  -2.467773e+01   1.707928e+01
  -2.372970e+01  -5.358675e+01
   6.286008e+01  -6.970076e+01
   1.350864e+02  -2.551985e+01
   1.326286e+02   1.042033e+02
  -2.951976e+00   1.579257e+02
  -1.248292e+02   1.455765e+02
  -1.522133e+02   3.203746e+01
  -4.116155e+01  -5.768290e+01
   3.067444e+01  -7.171898e+01
   5.341457e+01  -1.553567e+01
  -7.908075e+00  -2.978386e+00
  -2.896712e+01  -2.240412e+01
  -2.105277e+00  -5.464243e+00
   5.555680e+01  -5.056391e-01
   6.872750e+01   4.423094e+01
  -1.888649e+01   1.260787e+02
  -8.858035e+01   9.111926e+01
  -1.366134e+02   4.652145e+00
  -1.216114e+02  -8.784374e+01
  -2.582381e+01  -1.370084e+02
   6.703824e+01  -1.216407e+02
   9.582377e+01  -2.387868e+01
   3.309070e+01   2.847899e+01
   1.700298e+01   4.382536e+00
   3.163522e+01  -1.986772e+01
   6.386025e+01   1.221127e+01
   5.185586e+01   7.248094e+01
  -3.923209e+01   6.811537e+01
  -5.885168e+01   2.994368e+01
  -8.295828e+01  -3.061006e+01
   1.151902e+01  -9.817513e+01
   1.130045e+02  -3.841760e+01
   1.289046e+02   2.724193e+01
   3.798811e+01   1.143754e+02
  -9.461321e+01   1.094365e+02
  -1.730131e+02   1.143973e+01
  -1.593475e+02  -3.717692e+01
  -7.180160e+01  -7.697173e+01
  -4.941750e+00  -5.931510e+01
   6.197523e+01  -5.572807e+01
   5.662393e+01  -5.638782e+01
   4.456086e+01  -4.965682e+01
   6.975168e+01  -5.052784e+01
   6.997231e+01   2.109862e+01
   6.838271e+01   1.297371e+02
   2.218181e+01   1.367289e+02
  -4.902154e+01   1.027062e+02
  -8.783857e+01   3.585942e+01
  -7.703172e+01  -6.852938e+01
  -2.592759e+01  -1.011258e+02
   4.720958e+01  -4.398900e+01
   2.786294e+01  -2.056339e+01
  -7.118102e+00   4.528934e+01
  -8.534156e-02   2.441025e+01
   2.334221e+01   2.659121e+01
   3.863296e+01   2.475920e+01
   1.348979e+01   2.201780e+01
  -4.209247e+01   5.330062e+00
  -1.036311e+02  -2.538884e-01
  -8.602180e+01  -1.515035e+01
  -1.657808e+01  -5.506196e+01
   4.105263e+01  -2.489608e+01
   8.101769e+01  -4.829667e+01
   3.062703e+01  -4.581961e-01
  -2.614411e+01   3.442357e+01
  -6.203441e+01  -2.955481e+01
   4.358661e+00  -6.649986e+01
   2.594244e+01  -2.963342e+01
   4.130998e+01   4.946810e+00
   3.311736e+01   3.728109e+01
   5.499194e+01   3.149165e+01
   2.211018e+01   1.220733e+01
   4.541845e+01  -1.378059e+01
   3.432862e+01   5.364586e+01
  -4.238971e+01   1.244112e+02
  -9.838639e+01   7.793476e+01
  -9.737393e+01   1.073960e+01
  -5.531084e+01  -7.584557e+01
   1.866473e+01  -5.668485e+01
   4.920214e+01  -7.033649e+01
   3.998422e+01  -1.871160e+00
  -5.838403e+01  -7.277076e+00
  -7.623037e+01  -3.669308e+01
  -1.636493e+01  -5.426147e+01
   9.185890e+01  -3.699915e+01
   1.279909e+02   2.274663e+00
   9.436359e+01   1.123966e+01
   2.095928e+01   5.156125e+01
  -4.475682e+01   5.148477e+01
  -2.911632e+01  -8.650697e+00
   3.511941e+01  -3.110306e+01
   5.215174e+01   3.039912e+01
   2.665789e+01   2.676963e+01
  -5.266885e+01   1.093816e+02
  -1.076395e+02   1.598025e+01
  -6.359651e+01  -7.795010e+01
  -1.490150e+01  -9.924413e+01
   9.006256e+01  -8.961758e+01
   8.445434e+01   3.038601e+01
   2.865432e+01   7.422119e+01
   6.809630e+00   4.505895e+01
  -1.476519e+01   1.156350e+01
  -2.875042e+01  -5.375529e+00
  -3.920089e+01   6.123569e+00
  -9.962921e+00   1.782141e+01
  -2.487564e+01  -3.725507e+01
  -5.493323e+01  -5.354873e+01
  -3.358094e+00  -9.107682e+01
   2.957397e+01  -1.229630e+01
   7.076238e+01   4.602094e+01
   8.196471e+01   5.347205e+01
  -7.063772e+00   4.316890e+01
  -7.271215e+01  -2.871559e+00
  -3.612742e+01   1.138986e+01
  -1.181477e+01  -5.898656e+00
   2.547750e+01  -2.522542e+01
   8.401144e+00  -5.122122e+00
  -1.101445e+01  -4.964361e+01
  -1.499699e+01   1.768095e+01
   4.277254e+01   8.835596e+00
   2.605031e+01   4.311078e+00
   1.407424e+01   4.536213e+01
  -9.706722e+01   6.288306e+01
  -1.141423e+02   4.763998e+01
  -9.148016e+01  -2.931744e+00
  -3.212802e+01  -1.259815e+02
   7.815756e+01  -9.829705e+01
   6.907150e+01  -4.035697e+01
   4.229627e+01  -8.599572e+00
   1.580274e+01   1.854966e+01
   1.006496e+01   9.636123e+00
   1.980144e+01  -1.761558e+00
   1.644415e+01   2.280987e+01
  -1.372821e+01   6.207217e+01
  -2.631843e+00   5.882946e+01
  -5.877917e+01   2.705058e+00
  -3.913724e+01  -6.898712e+01
  -3.469004e+01  -6.666798e+01
   5.648980e+01  -1.823681e+01
   7.248954e+01   5.380875e+01
   3.343769e+01   3.233284e+01
  -3.470679e+01   1.405998e+01
  -7.952873e+01   1.133821e+01
  -4.990008e+01  -3.779563e+01
   3.019027e+01  -6.905639e+01
   1.423253e+01  -4.841321e+01
  -2.106070e+01  -1.748005e+00
  -1.941475e+01  -2.639800e+01
   2.578022e+00  -5.974899e+00
   3.458245e+01  -4.121411e+01
   5.973891e+01  -4.420262e+01
   5.425557e+01   1.269021e+00
  -1.760931e+01   5.100352e+01
  -2.863305e+01   7.964926e+01
  -2.558214e+01   3.728756e+01
  -1.725751e+00  -4.334946e+01
  -6.304132e+00  -5.061434e+01
   1.192109e+01   7.852901e+00
   3.506178e+01   4.179725e+01
  -2.633031e+00   4.363648e+01
  -4.367950e+01   7.740497e+00
  -5.529254e+01  -1.899482e+01
  -2.358319e+01  -1.015402e+01
  -6.274101e+00   3.101614e+01
   3.556176e+00  -3.378387e+00
   2.625969e+00  -2.818660e+01
  -1.462392e+01  -4.855724e+01
   2.337148e+01  -1.979801e+01
   3.155848e+01   2.184060e+01
   1.607971e+01   3.995598e+01
  -1.417903e+01   4.242486e+01
  -5.288869e+01   9.402182e+00
  -2.957011e+01  -3.578481e+01
   5.040652e+01  -1.693398e+01
   6.617724e+01   9.961548e+00
   4.792055e+01   1.019913e+01
  -3.251873e+01   2.860950e+01
  -5.413295e+01   1.428268e+01
  -3.269715e+01   2.292250e+01
   3.086003e+01  -1.888445e+00
   2.255599e+01   6.571863e+00
  -3.276555e+01   2.438731e+01
  -6.844805e+01   5.659954e+01
