
 $NMID
 id='ANONYMOUS ', fmtdat='(2E16.6)'
 volume=1.0
 tramp=1.0
 $END
  -3.992218e+03  -5.355062e+00
  -2.307528e+03  -2.475628e+03
   6.283206e+02  -2.336605e+03
   2.097652e+03  -6.282933e+02
   8.576739e+02   6.954443e+02
  -7.938598e+02   5.204012e+02
  -8.313918e+02  -5.157828e+02
   1.540681e+01  -1.113165e+03
   9.514952e+02  -7.414121e+02
   9.582128e+02   1.243437e+02
   3.612007e+02   8.646279e+02
  -2.933732e+02   8.229362e+02
  -6.427355e+02   7.668832e+01
  -3.813897e+02  -6.953405e+02
   3.214651e+02  -7.372892e+02
   6.173129e+02   7.665233e+00
   2.514028e+02   6.920689e+02
  -3.116618e+02   6.681792e+02
  -5.797583e+02   8.725301e+01
  -4.121791e+02  -3.592698e+02
   8.613588e-01  -4.619265e+02
   2.510707e+02  -2.320871e+02
   1.973460e+02   3.359019e+01
  -2.049742e+02   9.333996e+01
  -4.654899e+02  -1.707155e+02
  -1.727381e+02  -4.609157e+02
   4.804713e+02  -4.018766e+02
   8.282828e+02   6.582478e+01
   4.776430e+02   6.303404e+02
  -3.854700e+02   5.178610e+02
  -7.791785e+02  -4.306813e+01
  -3.552563e+02  -4.984464e+02
   3.320068e+02  -5.871225e+02
   6.008088e+02  -1.993723e+02
   4.264873e+02   2.750155e+02
   4.845701e+01   4.940881e+02
  -2.198875e+02   2.238578e+02
  -1.083894e+02  -2.601926e+02
   1.921355e+02  -4.501523e+02
   4.666873e+02   9.499159e+01
   2.268221e+02   6.806241e+02
  -3.722322e+02   6.560947e+02
  -6.245529e+02  -3.622726e+01
  -2.054636e+02  -5.189167e+02
   3.444759e+02  -3.059485e+02
   3.689160e+02   3.285900e+02
  -8.391488e+01   5.509525e+02
  -5.005408e+02   1.181729e+02
  -5.838378e+02  -3.647493e+02
  -1.703233e+02  -5.740139e+02
   3.765431e+02  -3.377848e+02
   6.322980e+02   8.828552e+01
   3.301708e+02   3.620508e+02
  -1.457126e+02   3.020722e+02
  -3.866342e+02   4.184212e+01
  -2.216538e+02  -1.775923e+02
   1.366449e+02  -6.993873e+01
   1.504102e+02   1.636831e+02
  -1.261852e+02   1.785909e+02
  -3.602425e+02  -4.598803e+01
  -1.607452e+02  -2.303189e+02
   1.360649e+02  -2.795944e+02
   2.898093e+02  -1.059639e+02
   2.283736e+02   7.030537e+01
   9.340781e+00   2.453576e+02
  -2.250964e+02   3.620344e+02
  -3.786664e+02   1.847147e+02
  -2.986073e+02  -1.221244e+02
  -8.957364e+01  -4.387801e+02
   1.169840e+02  -3.128733e+02
   1.279256e+02  -1.112285e+02
  -2.657936e-01  -1.367776e+01
   2.338091e+01  -1.066314e+02
   2.281060e+02  -1.285851e+02
   2.931950e+02   4.849594e+01
   1.395489e+02   2.706286e+02
  -6.967310e+01   2.926387e+02
  -2.386293e+02   6.412281e+00
  -2.001896e+02  -2.775229e+02
   2.424582e+01  -2.887440e+02
   2.873558e+02  -1.410225e+02
   4.209966e+02   1.853440e+02
   1.525270e+02   3.509394e+02
  -1.080422e+02   3.010742e+02
  -2.224110e+02   9.091550e+01
  -1.319571e+02   5.479872e+00
  -5.755430e+01   1.241106e+01
  -2.348337e+02   9.608838e+01
  -4.063882e+02  -3.466423e+01
  -3.598110e+02  -2.558767e+02
  -8.694925e+00  -4.516697e+02
   3.674380e+02  -4.459382e+02
   5.310072e+02  -1.974208e+02
   3.538714e+02   1.067471e+02
   4.745697e+01   3.286733e+02
  -1.515153e+02   2.140028e+02
  -1.008531e+02   3.297352e+00
   1.236165e+02  -1.386581e+02
   2.127867e+02  -1.787567e+01
   7.473691e+01   1.917641e+02
  -1.561617e+02   1.833012e+02
  -1.934054e+02  -3.935652e+01
   6.449206e+00  -1.543065e+02
   1.978780e+02  -4.713424e+01
   2.099054e+02   2.587960e+02
  -3.402912e+01   3.668313e+02
  -2.237822e+02   2.268878e+02
  -3.239928e+02  -2.302536e+01
  -3.070893e+02  -2.244215e+02
  -8.685098e+01  -2.767934e+02
   1.438206e+02  -1.688303e+02
   1.898820e+02  -8.224364e+00
   4.746100e+01   4.034877e+01
  -6.885391e+01  -4.462364e+01
  -5.034664e+01  -1.186763e+02
   1.094521e+02  -1.161835e+02
   1.888841e+02   1.803469e+01
   7.472741e+01   7.533366e+01
  -8.798788e+01   9.953073e+00
  -4.890138e+01  -7.857919e+01
   1.267197e+02  -7.821583e+01
   2.700320e+02  -5.607691e+01
   3.192559e+02   1.633259e+02
   1.010092e+02   2.460990e+02
  -1.908446e+02   2.799384e+02
  -2.747468e+02   1.357334e+02
  -1.579151e+02  -8.192135e+01
   1.142101e+01  -1.101850e+02
   1.248670e+02  -1.364441e+01
   3.875621e+00   1.161079e+02
  -1.652476e+02   5.764914e+01
  -2.047119e+02  -6.566857e+01
  -5.822257e+01  -1.976713e+02
   8.954328e+01  -1.759107e+02
   1.551243e+02  -3.272112e+01
   1.139927e+02   6.165181e+01
  -3.215478e+01  -7.887245e+00
  -5.109681e+01  -1.188517e+02
   7.282651e+01  -1.421751e+02
   2.019797e+02  -3.097174e+01
   2.091964e+02   9.803906e+01
   4.883916e+01   2.306982e+02
  -1.829782e+02   1.494012e+02
  -1.709956e+02   9.950158e+00
  -8.091130e+01  -1.030908e+02
   7.390231e+01  -1.045755e+02
   7.307971e+01  -3.905578e+01
   1.096175e+01   2.983202e+01
  -3.816764e+01   2.528633e+01
  -2.957504e+01  -6.372670e+00
   4.778506e+01  -7.153026e+00
   8.444996e+01   7.087248e+01
   2.834796e+01   1.566018e+02
  -1.261116e+02   1.663218e+02
  -2.225191e+02  -1.253441e+01
  -1.877317e+02  -1.736022e+02
  -4.982986e+01  -2.549333e+02
   9.735022e+01  -1.828720e+02
   1.550889e+02  -1.942315e+01
   1.070242e+02   6.063404e+01
   3.330033e+01   4.554813e+01
   7.654604e+01  -5.013770e+01
   8.539965e+01  -1.952429e+00
   4.452058e+01   5.448168e+01
  -5.395936e+01   1.256836e+02
  -1.199048e+02   5.354095e+01
  -7.380283e+01  -3.728475e+01
  -5.644673e+00  -1.122925e+02
   1.325264e+02  -9.763184e+01
   1.669216e+02   3.423037e+01
   1.104197e+02   1.977662e+02
  -1.073580e+02   2.562985e+02
  -2.589883e+02   1.166282e+02
  -2.809573e+02  -1.086333e+02
  -1.115514e+02  -1.547465e+02
   4.195209e+01  -1.418021e+02
   6.621201e+01  -8.980275e+01
   8.986527e+01  -1.001537e+02
   6.709616e+01  -7.228713e+01
   8.090713e+01  -7.203968e+01
   1.442891e+02   1.809925e+01
   1.225948e+02   1.405380e+02
   6.428155e+00   2.425507e+02
  -9.719287e+01   1.733729e+02
  -1.860661e+02   3.893793e+01
  -1.322271e+02  -1.144965e+02
  -5.916370e+01  -1.652431e+02
   7.677567e+01  -9.243144e+01
   5.670560e+01   1.392727e+01
   3.047318e+01   7.145143e+01
  -1.603183e+01   1.459440e+01
   4.660987e+01   1.309975e+01
   8.240587e+01   3.875724e+01
   5.202819e+01   4.308316e+01
  -7.818086e+01   3.052569e+01
  -1.333443e+02   9.921589e+00
  -1.839963e+02  -6.379812e+01
  -1.738661e+01  -9.188500e+01
   1.161480e+02  -6.652987e+01
   1.472949e+02  -5.510242e+00
   5.991369e+01   4.734522e+01
  -4.866648e+01   3.923867e+01
  -5.938675e+01  -4.393416e+01
  -3.896788e+00  -8.327337e+01
   6.472714e+01  -6.227165e+01
   6.781905e+01   2.706158e+00
   3.806793e+01   4.547080e+01
   3.903746e+01   3.962865e+01
   3.814552e+01   2.374173e+01
   4.768026e+01   8.614563e+00
   3.795202e+01   6.014381e+01
  -1.061011e+01   1.478026e+02
  -1.044115e+02   1.306331e+02
  -1.438203e+02   2.865509e+01
  -1.492845e+02  -9.952803e+01
  -8.404772e+00  -1.396374e+02
   9.896546e+01  -5.973501e+01
   6.378320e+01  -7.430517e+00
  -4.998404e+01   5.544281e+01
  -9.697250e+01  -3.770732e+01
  -8.868821e+01  -1.146771e+02
   9.568695e+01  -9.978256e+01
   1.973796e+02  -6.173781e+01
   1.813123e+02   3.399272e+01
   3.055068e+01   9.192098e+01
  -6.208571e+01   4.967566e+01
  -6.239298e+01   1.647550e+01
   2.744318e+01  -3.262978e+01
   9.421499e+01  -9.948122e+00
   3.930063e+01   7.391411e+01
  -6.747608e+01   1.480730e+02
  -1.553702e+02   6.755377e+01
  -1.356489e+02  -7.835669e+01
  -2.261602e+01  -1.996011e+02
   9.822507e+01  -1.687992e+02
   9.303628e+01  -8.195317e+00
   6.249252e+01   9.887998e+01
   1.356260e+00   1.219182e+02
  -2.796442e+01   4.984627e+01
  -8.515198e+01  -5.502146e+01
  -2.279478e+01  -2.116582e+01
   1.267881e+01   2.595742e+01
  -2.574418e+01  -1.407844e+01
  -6.182836e+01  -8.337342e+01
  -5.902471e+01  -9.321855e+01
   5.477180e+01  -5.069634e+01
   1.367613e+02   3.176123e+01
   1.345805e+02   7.238724e+01
   1.165580e+01   6.436009e+01
  -7.420860e+01   1.827391e+01
  -5.998186e+01  -1.036488e+01
  -1.661579e+01   2.945850e+01
   3.900433e+01  -3.420793e+01
   3.074556e+01   3.122046e-01
  -3.312131e+01   1.326275e+01
  -6.632865e-01  -9.186259e-01
   6.431792e+01  -2.371843e+00
   1.035495e+02   2.494560e+01
   1.218599e+01   7.787277e+01
  -7.958097e+01   1.102578e+02
  -1.694045e+02   8.342803e+01
  -1.313283e+02  -4.391271e+01
  -4.905734e+01  -1.431898e+02
   9.778513e+01  -1.263894e+02
   1.182433e+02  -4.038224e+01
   6.795460e+01  -1.067590e+01
   4.802970e+01   6.104613e+01
  -2.766127e+01   1.262113e+01
  -1.561324e+01   1.313608e+01
   1.795126e+01   3.003157e+01
  -5.347554e+00   7.898038e+01
  -4.804085e+01   5.722905e+01
  -1.002093e+02  -5.013221e+01
  -8.032002e+01  -1.160038e+02
  -4.650056e+00  -1.305296e+02
   8.780245e+01  -5.263448e+01
   1.414083e+02   6.173242e+01
   2.330631e+01   9.945384e+01
  -7.947318e+01   8.018579e+01
  -9.708101e+01   2.052849e+01
  -4.441232e+01  -3.141500e+01
   1.550482e+01  -5.901303e+01
   9.569567e+00  -4.041166e+01
  -5.137289e+01   1.935927e+01
  -4.767878e+01   2.230977e+01
  -4.807847e+00  -2.062896e+01
   6.979565e+01  -7.550352e+01
   9.320230e+01  -4.772289e+01
   5.551758e+01   8.515779e+00
   8.866777e+00   9.642316e+01
  -4.590236e+01   9.112986e+01
  -1.995454e+01   8.112636e+00
  -1.283373e+01  -6.440002e+01
   1.144394e+01  -3.927186e+01
   4.236038e+01   1.858357e+01
   1.656458e+01   5.912490e+01
   1.205833e+00   3.547458e+01
  -3.395173e+01  -5.224836e+00
  -4.835923e+01  -1.642252e+01
  -4.300767e+01   7.239436e-01
   1.096519e+01   6.932920e+00
   2.125318e+01  -3.567042e+01
   2.309237e+01  -1.905624e+01
   1.613873e+01  -2.510822e+01
   6.321365e+01  -5.214795e+00
   3.060046e+01   5.585198e+01
  -9.892858e-01   4.651325e+01
  -4.209294e+01   1.288620e+01
  -6.418735e+01  -2.905088e+01
  -3.347086e+01  -6.488533e+01
   4.255987e+01  -2.163382e+01
   9.555192e+01   2.109921e+01
   3.268925e+01   5.641447e+01
  -4.168169e+01   3.174588e+01
  -5.965879e+01   4.465306e+01
   1.160085e+01   1.702416e+01
   2.805903e+01  -1.009107e+01
   1.719997e+01   1.237263e+01
  -3.008852e+01   3.413461e+01
  -9.687431e+01   2.455954e+01
