
 $NMID
 id='ANONYMOUS ', fmtdat='(2E16.6)'
 volume=1.0
 tramp=1.0
 $END
  -4.096928e+03  -3.031460e+02
  -2.126419e+03  -2.441203e+03
   7.428347e+02  -2.510013e+03
   1.757782e+03  -6.087960e+02
   7.793125e+02   6.377138e+02
  -7.228450e+02   3.993612e+02
  -7.761903e+02  -4.425435e+02
   1.029263e+02  -9.320476e+02
   7.820193e+02  -5.293597e+02
   8.484198e+02   1.888372e+02
   3.042752e+02   7.753758e+02
  -2.329040e+02   7.640682e+02
  -5.195778e+02   2.546552e+01
  -3.216867e+02  -7.236475e+02
   2.575554e+02  -6.686931e+02
   5.004099e+02   3.651235e+01
   2.067067e+02   6.309403e+02
  -3.291919e+02   5.480678e+02
  -5.398270e+02   4.544885e+01
  -3.330285e+02  -3.282953e+02
   2.899129e+01  -3.809561e+02
   2.513412e+02  -1.897237e+02
   1.511965e+02   5.170423e+01
  -1.371453e+02   6.764218e+01
  -4.226668e+02  -1.371910e+02
  -1.085606e+02  -4.460296e+02
   4.571990e+02  -3.987227e+02
   6.853634e+02   1.576192e+02
   3.034678e+02   5.439394e+02
  -4.628635e+02   3.477615e+02
  -7.149042e+02  -5.113697e+01
  -2.753780e+02  -4.946407e+02
   2.769659e+02  -4.466059e+02
   5.048797e+02  -1.479259e+02
   3.826970e+02   2.427503e+02
   6.167392e-01   4.291488e+02
  -1.842521e+02   1.715045e+02
  -1.057625e+02  -2.104309e+02
   2.157664e+02  -3.960438e+02
   4.101482e+02   1.057538e+02
   1.653543e+02   6.078548e+02
  -3.671700e+02   5.518970e+02
  -5.225218e+02  -3.208071e+01
  -1.798308e+02  -5.273344e+02
   3.479448e+02  -2.678619e+02
   3.293251e+02   3.595984e+02
  -5.482707e+01   5.363996e+02
  -5.198982e+02   1.851420e+02
  -5.979828e+02  -3.092920e+02
  -1.365639e+02  -5.545565e+02
   3.545531e+02  -2.928684e+02
   5.664472e+02   9.444824e+01
   3.174237e+02   3.753660e+02
  -1.526714e+02   3.056096e+02
  -3.910734e+02   4.322561e+00
  -1.893780e+02  -1.568784e+02
   1.277648e+02  -1.017489e+02
   1.202607e+02   1.565778e+02
  -1.517553e+02   1.142033e+02
  -3.254651e+02  -7.536213e+01
  -1.432137e+02  -2.846324e+02
   1.865342e+02  -2.208096e+02
   3.124051e+02  -6.234351e+01
   1.978689e+02   1.052148e+02
  -6.361481e+01   2.591622e+02
  -2.446378e+02   2.895251e+02
  -3.128631e+02   1.851436e+02
  -2.287013e+02  -1.676582e+02
  -5.435338e+01  -3.835269e+02
   1.023809e+02  -2.941430e+02
   8.092462e+01  -6.463899e+01
   3.402776e+01   8.887590e+00
   2.977064e+01  -1.024991e+02
   1.619871e+02  -1.238760e+02
   2.181184e+02   6.279410e+01
   1.641008e+02   2.400290e+02
  -4.868431e+01   2.478295e+02
  -2.159364e+02  -1.266824e+01
  -1.739695e+02  -2.208673e+02
   4.643812e+01  -2.677059e+02
   2.652807e+02  -1.041194e+02
   3.007434e+02   1.684821e+02
   1.509806e+02   3.476252e+02
  -1.216375e+02   2.669671e+02
  -2.350166e+02   1.264609e+02
  -1.167336e+02  -2.100713e+00
  -9.169117e+01   2.766256e+01
  -2.483488e+02   6.568460e+01
  -3.391385e+02  -2.281713e+01
  -2.861441e+02  -2.527815e+02
   1.018607e+01  -4.012809e+02
   2.732645e+02  -3.611601e+02
   4.274103e+02  -1.383415e+02
   2.842147e+02   9.900190e+01
   6.430281e+01   2.611162e+02
  -9.324864e+01   1.538351e+02
  -4.906208e+01   2.046296e+01
   1.045411e+02  -8.063917e+01
   1.835609e+02   1.713889e+01
   4.743958e+01   1.643461e+02
  -1.181649e+02   1.510709e+02
  -1.457166e+02  -6.407612e+01
  -4.508573e+00  -1.619846e+02
   1.977314e+02  -3.171533e+01
   1.470251e+02   2.555375e+02
  -4.268478e+01   3.055665e+02
  -2.415244e+02   1.677735e+02
  -2.763384e+02  -5.524703e+01
  -1.927422e+02  -2.280204e+02
  -7.894766e+01  -2.559443e+02
   1.073541e+02  -9.070070e+01
   1.395638e+02   1.959800e+01
   3.462044e+01   3.043918e+01
  -7.981962e+01  -3.643122e+01
   2.488036e+00  -1.147023e+02
   1.445363e+02  -8.498174e+01
   1.396977e+02   1.685326e+01
   3.538757e+01   8.508488e+01
  -9.136015e+01  -8.423225e+00
  -5.251334e+01  -1.084500e+02
   6.550379e+01  -9.856388e+01
   2.836524e+02  -1.600219e+01
   2.555542e+02   1.376947e+02
   5.921489e+01   2.339607e+02
  -1.673589e+02   2.512374e+02
  -2.565912e+02   1.437302e+02
  -1.535836e+02  -5.615443e+01
   6.506524e+01  -9.327626e+01
   1.089910e+02   2.640231e+01
  -1.651050e+01   1.175645e+02
  -2.001339e+02   4.996242e+01
  -2.020308e+02  -8.726486e+01
  -7.221061e+01  -1.974536e+02
   1.065504e+02  -1.218979e+02
   1.431300e+02  -2.690250e+01
   5.370734e+01   5.306425e+01
  -3.739844e+01   2.319153e+01
  -2.823384e+01  -9.573093e+01
   5.728988e+01  -1.063500e+02
   1.449210e+02  -4.836694e+01
   1.498986e+02   1.222428e+02
   2.172908e+01   1.873024e+02
  -1.145359e+02   1.629832e+02
  -1.781021e+02   1.900275e+01
  -6.141229e+01  -1.196850e+02
   5.498995e+01  -1.006399e+02
   5.274192e+01  -1.274561e+01
   2.796055e+01   3.946870e+01
  -2.036888e+01   6.869917e+00
   8.822098e+00  -1.335564e+01
   7.617163e+01  -3.076041e+01
   1.069388e+02   7.767820e+01
   3.934441e+01   1.517103e+02
  -9.358628e+01   1.358716e+02
  -2.117349e+02   5.670182e+01
  -1.884747e+02  -1.164057e+02
  -3.367301e+01  -2.066814e+02
   1.262673e+02  -1.412733e+02
   1.174740e+02  -5.659288e+00
   6.808419e+01   6.491806e+01
   1.449470e+01   2.174552e+01
   3.404792e+01  -3.079880e+01
   6.742861e+01   2.148286e+01
   4.764051e+01   4.153904e+01
  -1.634005e+01   8.870753e+01
  -9.772485e+01   2.721157e+01
  -7.376556e+01  -3.420286e+01
   1.137877e+01  -1.183835e+02
   1.398126e+02  -9.951032e+01
   1.693674e+02   2.196442e+01
   9.102388e+01   1.827078e+02
  -7.370590e+01   2.326964e+02
  -1.995148e+02   4.563586e+01
  -1.942714e+02  -8.975717e+01
  -1.033442e+02  -1.335109e+02
   4.672406e+01  -1.403258e+02
   7.216681e+01  -7.443660e+01
   8.079765e+01  -8.509020e+01
   9.000327e+01  -5.725141e+01
   8.264910e+01  -6.427147e+01
   1.207708e+02   2.865274e+01
   1.376591e+02   1.472456e+02
   2.011660e+01   1.952885e+02
  -1.076178e+02   1.333942e+02
  -1.612944e+02   6.796047e+00
  -1.319469e+02  -1.311484e+02
  -1.495327e+01  -1.328877e+02
   4.829248e+01  -7.512638e+01
   8.336061e+01   2.342019e+01
   3.131831e+01   1.650948e+01
  -1.249004e+01   8.967266e+00
   3.869810e+01   1.191527e+01
   7.467354e+01   2.242357e+01
   3.521300e+01   1.987221e+01
  -6.544730e+01   3.991638e+01
  -1.113749e+02  -1.484164e+01
  -1.095048e+02  -2.442711e+01
   4.386108e+01  -6.340084e+01
   8.816812e+01  -4.910923e+01
   1.381432e+02  -1.110949e+01
   3.914638e+01   1.775481e+01
  -4.656061e+01   3.361410e+01
  -6.544242e+01  -1.572875e+01
   6.026848e+00  -6.203425e+01
   6.563608e+01  -6.983339e+01
   7.533780e+01   6.455766e+00
   5.754440e+01   3.894574e+01
   3.195763e+01   6.672822e+01
   6.769321e+01   2.070302e+01
   4.638630e+01   1.387746e+01
   4.362343e+01   3.329786e+01
  -3.133864e+01   1.170048e+02
  -1.064665e+02   1.509090e+02
  -1.135932e+02   4.806408e+01
  -9.898900e+01  -7.350929e+01
  -7.511280e+00  -9.938104e+01
   6.783627e+01  -4.258269e+01
   6.457572e+01   2.852870e+01
  -5.921340e+01   3.121361e+01
  -1.090512e+02  -2.705543e+01
  -7.202717e+01  -5.596279e+01
   6.413038e+01  -1.376814e+02
   1.338887e+02  -3.731395e+01
   1.845060e+02   1.560319e+01
   4.841695e+01   7.416251e+01
  -5.374312e+01   7.208918e+01
  -8.191389e+01   1.898261e+01
   2.090834e+01  -1.292809e+01
   5.559966e+01   2.130536e+01
   3.876079e+01   1.134405e+02
  -8.378434e+01   1.402688e+02
  -1.524867e+02   2.159019e+01
  -9.475138e+01  -9.344795e+01
   1.859191e+01  -1.522765e+02
   9.281392e+01  -1.254605e+02
   1.032630e+02   3.416890e+01
   2.702285e+01   1.119372e+02
  -3.710869e+00   7.805630e+01
  -8.091207e+01   2.045066e+01
  -4.935975e+01  -3.024473e+01
  -3.672690e+01  -1.232664e+00
   2.756991e+00   3.991552e+01
  -2.651655e+01  -4.828589e+01
  -4.247031e+01  -7.887292e+01
  -4.093815e+01  -9.899836e+01
   5.160592e+01  -6.609204e+01
   1.026023e+02   5.274409e+01
   1.311176e+02   7.903700e+01
   1.220366e+01   6.167294e+01
  -8.298837e+01   2.961874e+01
  -7.502688e+01   2.654126e+01
  -3.317530e+01   4.768775e+00
   4.327796e+01  -3.237791e+01
   2.097932e+01  -2.448843e+01
   7.624854e+00   1.968945e+01
   1.541577e+01   1.154987e+01
   5.296506e+01   1.144739e+01
   7.118432e+01   1.607974e+01
  -2.744896e+01   9.353622e+01
  -1.056405e+02   1.021480e+02
  -1.527122e+02   3.765593e+01
  -1.248242e+02  -8.016338e+01
  -4.000155e+01  -1.027384e+02
   5.819689e+01  -8.288863e+01
   7.548899e+01  -4.825461e+01
   5.507479e+01  -6.977550e+00
   3.451782e+01   4.649351e+01
  -6.944195e+00   1.744483e-01
  -1.023226e+01   7.929098e+00
   3.357154e+01   2.158840e+01
  -8.741224e+00   8.291623e+01
  -3.922327e+01   4.231217e+01
  -9.191278e+01  -4.552640e+01
  -6.150098e+01  -1.068026e+02
  -1.314174e+01  -1.120729e+02
   8.290060e+01  -1.855612e+01
   6.369508e+01   6.691864e+01
   3.542385e+01   1.009757e+02
  -7.990461e+01   3.503362e+01
  -7.289006e+01  -1.257622e+01
  -3.706295e+01  -3.765140e+01
   2.266919e+01  -4.659974e+01
   2.155742e+01  -2.958695e+01
  -4.064799e+01   1.040581e+01
  -4.104333e+01  -7.596631e+00
  -2.799409e+01  -5.369913e+00
   3.987832e+01  -7.671557e+01
   8.843958e+01  -5.289433e+01
   5.764537e+01   3.281113e+01
  -1.099186e+01   5.991136e+01
  -3.945811e+01   4.367491e+01
  -2.112027e+01   4.686328e+00
   9.529747e+00  -4.181337e+01
   2.353298e+01  -3.346403e+01
   1.534249e+01   6.634471e+00
   2.262370e+01   6.153752e+01
  -8.021384e+00   7.980682e+00
  -3.162941e+01  -1.912586e+01
  -2.263500e+01  -7.589599e+00
  -1.145904e+01   2.008561e+01
  -7.104019e+00   2.827931e+01
   1.120193e+01  -6.339118e+00
   6.178410e-01  -4.607711e+01
   5.326062e+00  -7.433289e+01
   3.353251e+01   6.494087e+00
   1.034544e+01   6.857390e+01
   3.571861e+00   5.457651e+01
  -3.565856e+01   4.883306e+00
  -4.611953e+01  -4.381376e+01
  -2.365291e+01  -5.538895e+01
   4.964617e+01  -3.989683e+01
   1.031376e+02   2.087896e+01
   5.506592e+01   4.404241e+01
  -2.467343e+01   4.954245e+01
  -4.888505e+01   2.206632e+01
  -8.732751e+00  -1.792664e+01
   2.448804e+01  -7.024343e+00
  -1.900560e+00   2.896750e+01
  -5.563370e+01   4.178414e+01
  -9.219148e+01   1.445356e+01
