
 $NMID
 id='ANONYMOUS ', fmtdat='(2E16.6)'
 volume=1.0
 tramp=1.0
 $END
  -3.247864e+03   3.166655e+02
  -1.928064e+03  -1.843152e+03
   7.063882e+01  -1.929849e+03
   1.406411e+03  -7.905371e+02
   7.931347e+02   3.467649e+02
  -4.215919e+02   3.972703e+02
  -7.189377e+02  -2.452053e+02
  -3.729404e+01  -7.393612e+02
   5.218841e+02  -5.750220e+02
   6.776947e+02   6.570747e+01
   3.311283e+02   5.577596e+02
  -9.743480e+01   6.584802e+02
  -4.043924e+02   1.147151e+02
  -2.230832e+02  -4.423100e+02
   1.503153e+02  -4.818739e+02
   3.821712e+02  -8.696977e+00
   2.437180e+02   5.073331e+02
  -1.477000e+02   4.997651e+02
  -4.321618e+02   1.625718e+02
  -3.123797e+02  -2.199032e+02
  -6.256234e+01  -2.894189e+02
   1.566955e+02  -2.017118e+02
   7.367190e+01  -5.226866e+01
  -1.391288e+02   7.976067e+00
  -2.532814e+02  -1.069968e+02
  -1.076816e+02  -2.980109e+02
   3.521572e+02  -2.399875e+02
   6.356660e+02   1.271898e+02
   2.723328e+02   3.304578e+02
  -3.026077e+02   2.854505e+02
  -5.048944e+02  -5.907574e+01
  -1.928983e+02  -2.839964e+02
   1.696893e+02  -3.220793e+02
   3.766246e+02  -1.301034e+02
   3.140249e+02   1.017565e+02
   6.634913e+01   3.427584e+02
  -7.505886e+01   1.878366e+02
  -7.973449e+01  -9.483310e+01
   9.254104e+01  -2.719795e+02
   2.989892e+02   7.871781e+00
   1.051868e+02   4.299391e+02
  -2.291212e+02   5.065569e+02
  -3.627863e+02   2.800757e+01
  -1.847849e+02  -3.202655e+02
   1.785032e+02  -1.759351e+02
   2.461096e+02   2.135191e+02
  -6.447049e+01   3.664837e+02
  -3.283586e+02   1.096939e+02
  -4.319987e+02  -2.483346e+02
  -1.444025e+02  -3.605254e+02
   2.498015e+02  -2.354018e+02
   4.251887e+02   3.623118e+01
   3.088806e+02   2.235571e+02
  -9.801392e+01   2.826737e+02
  -2.595786e+02   8.637727e+01
  -1.967295e+02  -1.031484e+02
   1.892730e+01  -7.560627e+01
   8.768119e+01   4.517196e+01
  -5.521604e+01   1.523292e+02
  -2.234908e+02  -6.841774e+00
  -1.323482e+02  -1.680004e+02
   1.110752e+02  -1.889866e+02
   2.524557e+02  -1.126069e+02
   1.805798e+02   7.702080e+01
  -4.066535e+01   1.966116e+02
  -1.896463e+02   2.166181e+02
  -2.525973e+02   1.654706e+02
  -2.025374e+02  -1.027390e+02
  -1.048960e+02  -2.884090e+02
   4.855144e+01  -2.842412e+02
   4.699168e+01  -1.073962e+02
   2.875533e+01  -1.865019e+01
   5.367727e+01  -7.596737e+01
   1.592544e+02  -5.978279e+01
   1.935204e+02   4.998942e+01
   1.167443e+02   1.579502e+02
  -6.909093e+01   1.573174e+02
  -1.064682e+02  -1.252839e+01
  -9.026403e+01  -1.293936e+02
   2.506469e+01  -1.837042e+02
   1.921559e+02  -7.458695e+01
   2.424683e+02   1.221004e+02
   1.435565e+02   2.675542e+02
  -7.001611e+01   2.267633e+02
  -1.636872e+02   9.103796e+01
  -1.605895e+02   6.108030e+01
  -9.690865e+01   3.028457e+01
  -1.698228e+02   3.028828e+01
  -2.386897e+02  -5.557013e+01
  -2.115672e+02  -2.509285e+02
   2.053370e+01  -2.943655e+02
   2.502922e+02  -2.432325e+02
   3.172852e+02  -1.787750e+02
   2.308511e+02   2.006670e+01
   2.783940e+01   1.776815e+02
  -6.689735e+01   1.670351e+02
  -4.129325e+01   4.364037e+01
   8.035130e+01  -7.807543e+01
   1.135110e+02  -1.222144e+01
   3.286576e+01   1.228761e+02
  -1.246726e+02   1.254522e+02
  -1.132965e+02   2.482122e+00
   6.887259e+00  -1.353717e+02
   1.445915e+02  -2.831930e+01
   1.212703e+02   1.771831e+02
  -3.289827e+01   2.557345e+02
  -1.296647e+02   1.209459e+02
  -2.269004e+02  -4.237093e+01
  -2.084234e+02  -1.462768e+02
  -7.366420e+01  -1.932677e+02
   6.773754e+01  -9.711845e+01
   1.346084e+02  -1.916656e+01
   1.117695e+01   6.253698e+00
  -2.471371e+01  -3.957491e+01
  -4.041868e+00  -7.792630e+01
   9.418603e+01  -6.705397e+01
   9.082099e+01   2.007115e+01
   2.761092e+01   3.605505e+01
  -9.111372e+01   7.387720e+00
  -8.606222e+00  -7.487795e+01
   1.018951e+02  -5.853228e+01
   2.400025e+02   3.924357e+01
   1.430953e+02   1.587714e+02
   1.668024e+01   1.751300e+02
  -9.614917e+01   1.817786e+02
  -2.121377e+02   9.791805e+01
  -1.062159e+02  -5.870382e+00
  -2.805568e+01  -8.772731e+01
   5.428139e+01  -8.392506e+00
  -3.820264e+01   7.519504e+01
  -1.357805e+02   3.546038e+01
  -1.440642e+02  -7.158601e+01
  -5.478204e+01  -1.409386e+02
   3.469542e+01  -1.286992e+02
   8.072835e+01  -3.671220e+00
   2.528320e+01  -1.354020e+01
   7.396742e+00  -4.689907e+01
   9.509552e+00  -8.421223e+01
   8.473398e+01  -3.910969e+01
   1.503959e+02  -2.876201e+01
   1.528855e+02   8.319255e+01
   1.877056e+01   1.064790e+02
  -1.050488e+02   1.212570e+02
  -9.979336e+01   1.442337e+01
  -3.672960e+01  -3.987541e+01
   7.796023e+00  -1.033080e+02
   5.057570e+01  -1.577838e+01
  -8.953658e+00  -2.356187e+01
  -5.424593e+00  -3.084986e+01
   8.282104e+00  -2.585282e+01
   7.071583e+01   3.717719e+01
   7.384529e+01   3.780854e+01
   2.420971e+01   1.271691e+02
  -9.390147e+01   9.730597e+01
  -1.789518e+02   1.336295e+01
  -1.741771e+02  -1.018715e+02
  -3.266478e+01  -1.614296e+02
   6.358004e+01  -1.254281e+02
   1.098209e+02  -5.843979e+01
   5.542586e+01   1.027130e+01
   4.647373e+01   3.240885e+01
   3.952649e+01   3.056342e+01
   5.422366e+01  -2.488173e+01
   2.172163e+01   5.852037e+01
  -2.325723e+01   6.329795e+01
  -9.728217e+01   2.715171e+01
  -8.712871e+01  -2.779035e+01
   4.097196e-01  -9.394525e+01
   1.207147e+02  -8.588029e+01
   1.368750e+02   1.383387e+01
   6.387241e+01   1.364240e+02
  -5.443588e+01   1.050476e+02
  -1.882706e+02   6.049607e+01
  -1.774262e+02  -6.601627e+01
  -9.037884e+01  -1.058648e+02
  -7.024483e+00  -6.377907e+01
   7.180172e+01  -4.378419e+01
   2.374417e+01  -7.520984e+01
   3.774956e+01  -9.741694e+01
   8.835692e+01  -6.557019e+01
   8.007167e+01   3.483804e+01
   7.100626e+01   1.378660e+02
   1.789201e+01   1.574444e+02
  -1.218310e+02   1.023439e+02
  -1.140156e+02  -2.860622e+00
  -1.218551e+02  -6.035273e+01
  -4.138396e+00  -1.119779e+02
   4.789928e+01  -8.526076e+01
   3.759156e+01  -2.535502e+01
   1.406436e+01   3.626125e+01
  -1.793630e+01   3.365098e+01
   4.705147e+00   7.379741e+00
   5.869854e+01   2.281130e+01
   3.049725e+01  -3.853660e-01
  -3.513852e+01   2.746628e+01
  -1.552008e+02   1.502961e+01
  -9.734483e+01  -1.276515e+01
  -2.163168e+01  -6.778314e+01
   7.367732e+01  -6.159598e+01
   1.281067e+02   2.868014e+00
   1.028827e+01   3.517240e+01
  -3.732894e+01   2.570768e+01
  -7.374586e+01  -4.733334e+01
  -8.225313e+00  -7.512604e+01
   3.868640e+01  -2.484149e+01
   4.272902e+01  -2.824167e+01
   4.443939e+01   6.141367e+01
   2.908477e+01  -3.594304e-01
   3.054647e+01  -1.799129e+01
   5.546424e+01   7.279727e+00
   1.924181e+01   5.166001e+01
  -2.359863e+01   1.332735e+02
  -1.021709e+02   1.156272e+02
  -1.245934e+02   1.153233e+01
  -8.821575e+01  -3.811362e+01
   2.328332e+01  -8.949232e+01
   5.382898e+01  -4.781908e+01
   5.434696e+01   2.526641e+01
  -5.130237e+01   1.040061e+01
  -9.422185e+01  -2.419541e+01
  -5.914086e+01  -5.174445e+01
   7.689362e+01  -7.782217e+01
   1.353795e+02  -4.524517e+01
   1.123155e+02   9.270783e+00
   2.243340e+01   5.185044e+01
  -2.348992e+01   8.138076e+01
  -2.706414e+01  -3.330679e-01
   8.906593e-01  -4.368608e+01
   5.959956e+01  -1.914176e+01
   4.333388e+01   7.670431e+01
  -4.787762e+01   1.293160e+02
  -1.016072e+02   5.351061e+01
  -1.112513e+02  -7.277671e+01
  -1.570481e+01  -1.310725e+02
   7.851899e+01  -9.889521e+01
   1.024695e+02   2.955721e+01
   5.175456e+01   9.688054e+01
   2.159081e+01   5.605667e+01
  -1.489869e+01   9.660395e+00
  -2.382955e+00  -8.580977e+00
  -4.369446e+00  -2.194350e+01
   4.625851e-01   3.884825e+00
   4.691373e+00  -1.775235e+01
  -5.444568e+01  -3.864289e+01
  -3.286311e+01  -5.043857e+01
   1.475506e+01  -3.834939e+01
   8.595400e+01   1.672998e+01
   9.898824e+01   5.849953e+01
   1.530311e+01   5.958834e+01
  -4.712558e+01   1.640869e+01
  -6.838108e+01  -2.823639e+01
   1.842611e+01  -1.393828e+01
   3.142429e+01  -5.685575e+00
  -1.288994e+01  -2.445356e+00
  -8.556590e+00  -8.859677e+00
   2.483165e+00  -5.007133e+00
   4.787146e+01   2.994768e+01
   8.742220e+01   2.211213e+01
   3.250587e+01   5.314983e+01
  -8.890365e+01   8.296615e+01
  -1.499202e+02   4.139888e+01
  -1.172876e+02  -3.754649e+01
  -4.879454e+01  -1.289946e+02
   8.693149e+01  -1.022691e+02
   9.243925e+01  -4.088855e+01
   5.257808e+01  -8.245419e+00
  -8.855041e+00   4.898200e+01
  -1.140672e+01   1.836345e+01
  -4.944612e+00   1.121954e+00
   2.648465e+01   4.536679e+01
  -3.199826e+00   6.895099e+01
  -3.548543e+01   4.177371e+01
  -5.223791e+01  -2.868901e+01
  -5.518819e+01  -5.510072e+01
  -2.080129e+01  -5.613798e+01
   5.213643e+01  -4.781500e+01
   9.756180e+01   6.226196e+01
   5.061372e+01   8.326479e+01
  -3.092355e+01   4.869258e+01
  -6.478394e+01  -5.716639e+00
  -3.669913e+01  -2.117430e+01
   3.148719e+01  -4.474724e+01
   5.595672e+00  -6.284580e+01
  -1.900954e+01  -1.376523e+01
  -3.700968e+01  -9.411073e+00
  -3.095647e+01  -2.871244e+01
   7.444660e+01  -7.189200e+01
   9.199145e+01  -2.572202e+01
   4.590623e+01  -8.859760e+00
   1.423323e+01   8.475965e+01
  -3.653264e+01   9.565269e+01
  -3.398221e+01   2.665542e+01
  -3.661860e+00  -5.448346e+01
   7.979746e+00  -3.781880e+01
   5.054651e+00   1.532309e+01
   1.380876e+01   2.365348e+01
  -1.403569e+00   5.274004e+01
  -3.229706e+01   1.559986e+01
  -4.900362e+01  -3.312540e+00
  -1.032544e+01   2.212614e+00
   2.794126e+00  -6.180987e+00
  -2.302590e+01   3.228314e+01
  -1.010544e+01  -3.699961e+01
   2.313908e+01  -3.268674e+01
   6.964957e+00  -1.798471e+01
   6.471675e-01   2.315732e+01
   3.963508e+01   3.472284e+01
  -2.597184e+01   1.936850e+01
  -2.525350e+01  -4.779929e+01
  -1.606242e+01  -3.123916e+01
   2.790290e+01  -6.711507e+00
   7.601468e+01   3.946037e+01
   3.651710e+01   1.010297e+01
  -2.449544e+00   1.039680e+01
  -5.970390e+01  -8.038222e+00
  -2.148422e+01   2.449169e+01
   1.477721e+01  -5.737473e+00
   5.324057e+00  -1.327373e+01
  -1.145096e+01   5.074907e+00
  -6.098041e+01   3.222054e+01
