
 $NMID
 id='ANONYMOUS ', fmtdat='(2E16.6)'
 volume=1.0
 tramp=1.0
 $END
   3.814684e+03   1.501928e+02
   2.262852e+03   2.423179e+03
  -8.781076e+02   2.347590e+03
  -1.967016e+03   7.643409e+02
  -8.486520e+02  -5.213660e+02
   7.025682e+02  -4.299987e+02
   9.187083e+02   4.446774e+02
  -1.105862e+02   1.023854e+03
  -8.767042e+02   7.358899e+02
  -8.701472e+02  -1.894147e+02
  -4.191262e+02  -8.735974e+02
   2.958769e+02  -8.550151e+02
   6.891963e+02  -1.312527e+02
   3.767202e+02   6.757579e+02
  -2.465202e+02   7.009341e+02
  -5.759802e+02  -3.455783e+01
  -2.648516e+02  -6.643740e+02
   3.186602e+02  -6.427920e+02
   6.017753e+02  -1.104491e+02
   4.159980e+02   3.245980e+02
  -1.415061e+01   4.590292e+02
  -2.715589e+02   2.496194e+02
  -2.713404e+02  -5.479086e+01
   9.831820e+01  -1.051325e+02
   4.013096e+02   7.368366e+01
   2.181687e+02   4.575549e+02
  -4.419631e+02   3.716623e+02
  -8.325069e+02  -1.235489e+02
  -4.340370e+02  -5.367864e+02
   3.309147e+02  -4.491878e+02
   6.860651e+02   2.374405e+01
   3.402934e+02   4.933698e+02
  -2.762725e+02   4.812241e+02
  -5.481344e+02   1.903779e+02
  -3.675514e+02  -2.450122e+02
   1.905353e+00  -4.739729e+02
   2.446496e+02  -3.106679e+02
   2.023624e+02   2.089183e+02
  -1.929031e+02   4.078173e+02
  -4.111783e+02  -3.049014e+01
  -2.272602e+02  -6.310103e+02
   3.211597e+02  -6.291968e+02
   5.435007e+02  -1.965692e+01
   3.042821e+02   5.421190e+02
  -2.792659e+02   2.977323e+02
  -3.400875e+02  -2.579857e+02
   3.016298e+01  -4.917864e+02
   4.678053e+02  -1.303170e+02
   5.416033e+02   3.480774e+02
   1.249707e+02   5.001540e+02
  -3.224173e+02   3.513410e+02
  -5.267085e+02  -8.228052e+01
  -3.472872e+02  -3.480069e+02
   1.626207e+02  -3.328233e+02
   4.373007e+02  -3.030887e+01
   2.443718e+02   1.870977e+02
  -1.007996e+02   1.168478e+02
  -1.349904e+02  -1.878089e+02
   1.873984e+02  -2.108315e+02
   3.582057e+02   4.768142e+01
   1.525703e+02   2.967733e+02
  -1.680584e+02   2.211762e+02
  -2.850972e+02   1.007930e+02
  -1.830647e+02  -5.342509e+01
  -1.187984e+01  -1.639287e+02
   1.873048e+02  -2.532246e+02
   3.134850e+02  -1.485528e+02
   2.696927e+02   1.366783e+02
   7.852438e+01   4.019114e+02
  -9.793725e+01   3.015899e+02
  -1.130252e+02   9.950797e+01
  -5.763886e+01  -2.182385e+01
  -3.459963e-01   5.403801e+01
  -1.642546e+02   9.088266e+01
  -2.533957e+02  -5.137525e+01
  -1.240626e+02  -2.631912e+02
   7.856131e+01  -2.652081e+02
   2.114471e+02  -1.341665e+01
   1.979158e+02   1.948821e+02
  -1.500585e+01   2.688796e+02
  -2.339260e+02   1.051126e+02
  -2.780005e+02  -1.627789e+02
  -1.533795e+02  -3.226095e+02
   1.260849e+02  -2.759507e+02
   1.802262e+02  -7.629052e+01
   1.296965e+02   4.074708e+01
   6.339449e+01  -1.381803e+01
   1.782511e+02  -7.460338e+01
   3.129358e+02   5.204738e+01
   2.933878e+02   2.859547e+02
  -3.526509e+00   3.941538e+02
  -3.210102e+02   3.547865e+02
  -4.749571e+02   1.356908e+02
  -2.929635e+02  -1.097624e+02
  -2.893360e+01  -2.611120e+02
   1.382641e+02  -1.875243e+02
   6.441546e+01  -2.555937e+00
  -1.035110e+02   7.275789e+01
  -1.964134e+02  -2.209657e+01
  -2.240420e+01  -1.459414e+02
   1.543644e+02  -1.580428e+02
   1.758632e+02   8.597610e+01
   6.482847e+00   1.778321e+02
  -1.581855e+02   3.481510e+01
  -1.485577e+02  -1.877268e+02
  -1.731156e+01  -2.699117e+02
   1.684171e+02  -1.441333e+02
   3.047451e+02   7.354110e+01
   2.259553e+02   2.346270e+02
   9.340118e+01   1.988671e+02
  -1.130848e+02   1.500034e+02
  -1.686087e+02   2.386627e+01
  -7.500290e+01  -1.147610e+01
   6.048739e+01   2.650976e+01
   3.157992e+01   1.174745e+02
  -9.721969e+01   1.097664e+02
  -1.586860e+02  -1.509340e+01
  -6.183140e+01  -8.995154e+01
   7.104001e+01  -3.018775e+01
   7.654310e+01   4.008947e+01
  -8.960571e+01   7.326937e+01
  -2.078016e+02  -3.072602e+01
  -2.242016e+02  -7.954174e+01
  -5.750151e+01  -2.083098e+02
   1.573088e+02  -2.414739e+02
   2.667742e+02  -1.496364e+02
   1.577832e+02   6.899447e+01
  -1.679893e+01   1.190296e+02
  -4.420535e+01   8.202719e+00
   1.048247e+01  -6.988273e+01
   1.394858e+02  -3.747136e+01
   1.901731e+02   8.944293e+01
   6.174734e+01   1.839824e+02
  -9.413316e+01   1.301636e+02
  -1.328265e+02   1.648089e+01
  -6.539049e+01  -5.309057e+01
  -6.776234e-01  -9.646409e+00
   2.475917e+01   6.221485e+01
  -6.894239e+01   8.682383e+01
  -1.772225e+02   1.637192e+01
  -1.686175e+02  -1.132196e+02
   2.591529e+01  -1.849651e+02
   1.462079e+02  -1.224735e+02
   1.563771e+02  -1.059672e+01
   3.757403e+01   1.058594e+02
  -8.332014e+01   8.565613e+01
  -1.045283e+02   3.453108e+01
  -5.101107e+01  -5.807851e+00
   1.752173e+01   4.981475e+00
  -7.259287e-01  -1.974189e-01
  -5.183202e+01   3.455779e+00
  -7.410106e+01  -8.737706e+01
   1.751711e+00  -1.302571e+02
   9.365114e+01  -1.333088e+02
   1.969933e+02  -2.224428e+01
   1.440544e+02   1.502157e+02
   5.599374e+01   2.007194e+02
  -1.012084e+02   1.286927e+02
  -1.064810e+02   1.448668e+01
  -5.314241e+01  -4.951985e+01
  -1.964137e+01  -1.166390e+01
  -5.289320e+01   2.699069e+01
  -6.508520e+01  -1.297540e+01
  -8.025930e+01  -4.349622e+01
   7.964902e+00  -8.146954e+01
   7.795853e+01  -1.587911e+01
   9.071314e+01   3.788551e+01
  -8.989316e+00   8.113379e+01
  -1.014205e+02   8.786439e+01
  -1.787086e+02  -5.582231e+01
  -9.379033e+01  -1.722375e+02
   1.101370e+02  -1.739068e+02
   2.466698e+02  -8.795161e+01
   2.284328e+02   9.114599e+01
   7.910868e+01   1.644437e+02
  -4.209248e+01   1.174577e+02
  -7.212300e+01   9.116467e+01
  -7.081304e+01   6.304665e+01
  -8.065196e+01   1.101383e+02
  -7.477392e+01   8.840184e+01
  -1.150602e+02   1.429172e+01
  -1.086790e+02  -1.283713e+02
  -3.791529e+01  -1.746763e+02
   7.531386e+01  -1.677766e+02
   1.354777e+02  -8.486131e+00
   1.087841e+02   9.931906e+01
   3.883583e+01   1.534168e+02
  -5.182908e+01   8.846322e+01
  -7.438471e+01   8.480569e+00
  -1.871665e+01  -4.241933e+01
   4.501320e+01  -2.871065e+01
  -6.239864e+00  -3.203680e+01
  -6.211284e+01   2.247794e+00
  -4.561703e+01  -4.353523e+01
   4.048968e+01  -3.572509e+01
   1.257648e+02   1.089093e+01
   1.202950e+02   5.593333e+01
   2.058565e+01   1.136000e+02
  -1.298420e+02   6.282950e+01
  -1.263928e+02  -8.654139e+00
  -4.189633e+01  -4.596071e+01
   4.570077e+01  -3.047386e+01
   8.184931e+01   1.444210e+01
   1.778573e+01   8.347988e+01
  -2.968992e+01   5.780380e+01
  -5.910075e+01  -1.020251e+01
  -3.547300e+01  -3.430646e+01
  -2.925863e+01  -4.014777e+01
  -2.882186e+01   3.245830e+01
  -5.064125e+01   2.394410e+01
  -2.399025e+01  -4.060296e+01
   1.391710e+01  -1.033365e+02
   1.042402e+02  -1.370751e+02
   1.484321e+02  -3.083240e+01
   1.336955e+02   6.229483e+01
  -2.114236e+00   1.222781e+02
  -8.480087e+01   6.349477e+01
  -7.579926e+01  -3.637555e+01
   6.349544e+01  -4.237094e+01
   1.210824e+02   3.268951e+01
   3.870246e+01   8.267954e+01
  -4.463414e+01   9.053561e+01
  -1.510209e+02   3.989009e+01
  -1.523891e+02  -2.961718e+01
  -2.667566e+01  -7.293917e+01
   5.207834e+01  -5.855077e+01
   5.175960e+01   2.536057e+00
  -3.597470e+01   3.182917e+01
  -7.444991e+01  -3.578091e+01
  -5.396753e+01  -1.004228e+02
   6.631270e+01  -1.121408e+02
   1.421064e+02  -7.689224e+01
   1.136777e+02   5.857906e+01
   2.042825e+01   1.956563e+02
  -7.545015e+01   1.217987e+02
  -9.614646e+01   1.359977e+01
  -3.854706e+01  -1.081029e+02
  -7.413945e+00  -1.189665e+02
   6.213711e+01   2.395981e+01
   2.179379e+01   3.727512e+01
  -1.528435e+00   3.691382e+00
  -1.022085e+01  -4.105032e+01
   2.476460e+01   8.833055e+00
   3.019703e+01   7.179070e+01
   4.304283e+01   1.083053e+02
  -5.104152e+01   2.914457e+01
  -8.565158e+01  -3.884112e+01
  -9.874749e+01  -8.256554e+01
  -3.127850e+01  -2.275334e+01
   7.462080e+01  -4.027036e+01
   6.145703e+01  -1.198517e+01
   1.081224e+01  -7.235195e+00
  -4.069928e+01  -2.756999e+00
  -1.927080e+01   8.483842e+00
   1.333827e+01   2.173159e+01
   4.653178e+00   1.067544e+01
  -7.645133e+01  -1.337776e+00
  -5.989901e+01  -1.065337e+01
  -1.373945e+01  -9.024361e+01
   1.147354e+02  -8.433069e+01
   1.722969e+02  -4.875255e+01
   1.276308e+02   9.431446e+01
   2.925281e+01   1.741345e+02
  -9.529955e+01   1.298312e+02
  -1.007652e+02   3.564004e+01
  -5.967062e+01  -4.245221e+01
   1.016718e+01  -3.354329e+01
   1.199451e+01   2.072824e+01
  -3.776515e+00   6.525313e+00
  -2.992210e+01  -1.482489e+01
  -1.949386e+01  -5.810379e+01
  -6.304847e+00  -5.417339e+01
   5.462648e+01  -6.551358e+00
   6.492090e+01   1.007143e+02
  -4.413399e-01   1.013028e+02
  -7.026197e+01   1.300970e+01
  -8.654739e+01  -7.517335e+01
  -2.588616e+01  -1.192579e+02
   2.304859e+01  -3.377817e+01
   9.650657e+01   6.522421e+00
   3.155677e+01   7.671102e+01
  -5.658956e+00   5.731436e+01
  -4.184488e+01   1.571429e+00
   2.531485e+01  -2.087283e+01
   5.621105e+01  -1.873467e+00
   1.837654e+01   8.178821e+00
  -1.616131e+01   6.329994e+01
  -1.095906e+02   6.256373e+01
  -7.127034e+01  -2.086576e+01
   1.600981e+01  -7.598614e+01
   7.173293e+01  -8.227502e+01
   2.041491e+01  -9.097281e+00
  -1.131738e+00   7.324371e+01
  -1.874206e+01   5.186518e+01
  -2.252272e+01  -3.540784e+01
  -1.972251e+01  -5.133955e+01
   2.472880e+01  -3.500936e+01
   3.021904e+01   2.079578e+01
   3.520488e+01   1.794655e+01
   2.272362e+01   5.770993e+00
  -1.257891e+01  -4.249482e+01
  -2.173569e+01  -9.129116e+00
  -1.764234e+01   1.716171e+01
   1.397151e+01   2.175002e+01
  -3.164887e+01   1.679090e+01
  -5.828212e+01  -4.144921e+01
   6.218371e+00  -6.108355e+01
   3.434119e+01  -3.029185e+01
   2.444033e+01   2.601569e+01
   1.806140e+01   6.890001e+01
  -3.026327e+01   6.004790e+01
  -9.078143e+01   1.044150e+01
  -7.258798e+01  -4.678979e+01
   9.643162e+00  -7.667592e+01
   2.978946e+01  -2.491152e+00
   2.219028e+01  -2.183419e+01
   2.276712e+00  -1.589498e+01
  -2.755177e+01  -2.229745e+01
   4.993698e+01  -2.674373e+01
   8.121898e+01  -8.421400e+00
