
 $NMID
 id='ANONYMOUS ', fmtdat='(2E16.6)'
 volume=1.0
 tramp=1.0
 $END
  -4.605171e+03  -1.048046e+01
  -2.387863e+03  -2.746193e+03
   8.361024e+02  -2.599918e+03
   2.113869e+03  -7.905574e+02
   8.327343e+02   6.466167e+02
  -6.824866e+02   5.050002e+02
  -7.888935e+02  -5.440184e+02
   1.614996e+02  -1.139117e+03
   9.596969e+02  -7.826347e+02
   1.004242e+03   2.296048e+02
   4.203159e+02   9.343554e+02
  -3.343439e+02   8.493600e+02
  -7.026532e+02   1.132581e+02
  -3.795305e+02  -7.904827e+02
   3.064330e+02  -7.107595e+02
   6.543962e+02  -5.148851e-01
   2.508371e+02   7.344957e+02
  -3.542905e+02   6.508286e+02
  -6.156382e+02   1.005003e+02
  -4.280706e+02  -3.684994e+02
  -3.281765e+01  -4.814748e+02
   2.856321e+02  -2.606030e+02
   2.253431e+02   2.481170e+01
  -1.442260e+02   5.143614e+01
  -4.427518e+02  -1.535280e+02
  -1.972432e+02  -4.055303e+02
   4.738230e+02  -4.512939e+02
   8.799611e+02   1.081399e+02
   4.327206e+02   5.588874e+02
  -3.877084e+02   4.355290e+02
  -7.660567e+02  -3.669002e+00
  -3.895923e+02  -4.846169e+02
   2.875560e+02  -4.816594e+02
   5.575165e+02  -2.142366e+02
   4.239725e+02   2.317875e+02
   2.290883e+01   4.644796e+02
  -2.425025e+02   2.626566e+02
  -1.900684e+02  -2.364853e+02
   1.989489e+02  -4.099431e+02
   4.657830e+02   4.860524e+01
   2.446695e+02   6.970299e+02
  -3.102352e+02   7.183084e+02
  -6.401287e+02   4.935855e+01
  -2.856098e+02  -5.768395e+02
   3.224118e+02  -3.408838e+02
   4.101585e+02   2.912103e+02
  -6.594462e+01   5.646285e+02
  -6.177659e+02   1.345386e+02
  -5.694404e+02  -4.175278e+02
  -1.529604e+02  -5.827875e+02
   3.638216e+02  -3.211797e+02
   5.825705e+02   1.125770e+02
   3.482003e+02   3.581130e+02
  -1.464169e+02   3.257448e+02
  -4.550524e+02   1.815232e+01
  -2.266189e+02  -2.002167e+02
   1.524305e+02  -1.361975e+02
   1.388575e+02   1.495188e+02
  -1.736596e+02   2.116774e+02
  -3.699040e+02  -8.238618e+01
  -1.750967e+02  -3.305080e+02
   2.063808e+02  -2.790470e+02
   3.429981e+02  -9.716975e+01
   2.170515e+02   4.750394e+01
  -3.972562e+00   2.022624e+02
  -2.037851e+02   3.207454e+02
  -3.160729e+02   1.863952e+02
  -2.509308e+02  -1.294003e+02
  -2.915251e+01  -4.377658e+02
   1.406756e+02  -3.225878e+02
   1.258449e+02  -1.427124e+02
   6.620061e+01   5.342778e+00
   2.405235e+01  -8.308740e+01
   1.727270e+02  -1.203411e+02
   2.301059e+02   7.336529e+01
   1.379866e+02   2.593083e+02
  -1.048765e+02   2.464637e+02
  -2.153535e+02   3.061729e+01
  -2.319592e+02  -2.236038e+02
   8.479160e+00  -2.750071e+02
   2.501079e+02  -1.107048e+02
   3.517622e+02   1.543978e+02
   1.852895e+02   3.388733e+02
  -8.852073e+01   2.637360e+02
  -2.150186e+02   9.160964e+01
  -1.740163e+02  -1.491446e+01
  -6.701839e+01   3.545805e+01
  -2.115898e+02   6.819485e+01
  -3.871438e+02  -5.177078e+01
  -3.430962e+02  -2.730704e+02
   3.782036e+01  -4.037764e+02
   4.000497e+02  -4.182422e+02
   5.031302e+02  -1.612391e+02
   3.180859e+02   1.300544e+02
  -2.101075e-01   2.823309e+02
  -1.362483e+02   2.248582e+02
  -6.576883e+01   2.502287e+01
   1.024732e+02  -1.207476e+02
   1.893529e+02   2.756412e+01
   5.369013e+01   1.840898e+02
  -1.503293e+02   1.567728e+02
  -1.717354e+02  -5.590382e+01
  -1.475915e+01  -1.942881e+02
   1.958059e+02  -3.098783e+01
   1.616064e+02   2.413924e+02
  -2.005023e+01   3.325749e+02
  -2.270391e+02   1.499297e+02
  -3.149163e+02  -7.069206e+01
  -2.682030e+02  -2.315678e+02
  -1.140211e+02  -2.573507e+02
   1.094627e+02  -1.361941e+02
   1.723552e+02  -8.736352e+00
   9.045764e+01   5.503672e+01
  -8.672755e+01  -2.015247e+01
  -5.312631e+01  -1.238720e+02
   1.420292e+02  -9.545593e+01
   1.906539e+02   4.525757e+01
   6.730112e+01   1.065727e+02
  -9.435959e+01   1.707973e+01
  -7.481143e+01  -6.520470e+01
   1.056744e+02  -1.033460e+02
   2.196619e+02   6.024860e+00
   2.559293e+02   1.374383e+02
   6.607174e+01   2.386095e+02
  -1.529195e+02   2.910295e+02
  -2.762673e+02   1.473329e+02
  -1.341736e+02  -5.101835e+01
   1.548573e+01  -1.235725e+02
   7.694443e+01   6.179860e+00
  -2.785331e+01   8.366557e+01
  -2.362628e+02   7.815670e+01
  -1.960566e+02  -1.037875e+02
  -5.435875e+01  -1.851870e+02
   1.036625e+02  -1.532038e+02
   1.302693e+02  -2.057386e+01
   8.508195e+01   5.726251e+01
  -3.662382e+01   4.788858e+00
  -4.038343e+01  -8.437842e+01
   6.661604e+01  -1.261980e+02
   1.860284e+02  -4.839579e+01
   1.825628e+02   1.230119e+02
   2.147324e+01   2.048615e+02
  -1.403780e+02   1.802540e+02
  -1.897635e+02   1.599893e+01
  -6.316203e+01  -1.179198e+02
   4.154903e+01  -1.083373e+02
   7.610033e+01  -4.641027e+01
   1.964552e+01   4.152332e+01
  -2.218245e+01   2.602713e-01
   9.823115e+00  -2.354678e+01
   6.712735e+01   3.372715e+01
   8.386901e+01   9.184048e+01
   1.471619e+01   1.525592e+02
  -1.452290e+02   1.361631e+02
  -2.286431e+02   2.600324e+01
  -2.115544e+02  -1.557047e+02
  -2.668265e+01  -2.580704e+02
   1.188069e+02  -1.783516e+02
   1.373217e+02  -3.321867e+01
   7.927659e+01   6.162928e+01
   1.826359e+01   2.281181e+01
   5.481280e+01  -1.821142e+01
   6.114278e+01   3.076266e+01
   4.597735e+01   2.213658e+01
  -4.526955e+01   6.825421e+01
  -9.350988e+01   4.921197e+01
  -1.132098e+02  -2.004219e+01
  -1.206268e+01  -1.010308e+02
   1.183910e+02  -7.632059e+01
   2.406734e+02   4.406801e+01
   9.634122e+01   2.282501e+02
  -9.781088e+01   2.111926e+02
  -2.698601e+02   1.120524e+02
  -2.431569e+02  -1.014205e+02
  -1.091064e+02  -1.802002e+02
   2.754982e+01  -1.698933e+02
   7.864565e+01  -8.435838e+01
   6.633695e+01  -6.440206e+01
   4.770123e+01  -6.062496e+01
   8.200151e+01  -6.362923e+01
   1.244156e+02   7.014531e-01
   1.226916e+02   1.410692e+02
   6.677283e+01   1.759796e+02
  -6.633259e+01   1.821562e+02
  -1.726556e+02   4.397384e+01
  -1.632118e+02  -9.830218e+01
  -6.894015e+01  -1.637031e+02
   7.461353e+01  -9.818134e+01
   5.450110e+01  -3.737460e+01
   1.460175e+01   5.444910e+01
   7.492146e+00   1.967023e+01
   2.369347e+01   2.941833e+01
   7.696070e+01  -2.753945e+00
   3.624249e+01   4.947674e+01
  -7.821108e+01   4.004471e+01
  -1.560985e+02   8.774423e+00
  -1.538271e+02  -6.884109e+01
  -1.974846e+01  -9.887300e+01
   1.022558e+02  -6.826704e+01
   1.639442e+02  -2.662687e+01
   3.237392e+01   2.059621e+01
  -5.943943e+01   5.571667e+01
  -8.207614e+01  -5.380537e+00
  -2.815421e+01  -6.847413e+01
   8.380555e+01  -5.496900e+01
   7.441787e+01  -7.998823e+00
   4.552565e+01   6.565464e+01
   4.837335e+01   4.858127e+01
   2.324074e+01  -2.493285e+01
   8.491407e+01  -6.456249e+00
   1.838125e+01   3.252952e+01
  -3.116662e+01   1.419079e+02
  -1.003206e+02   1.407921e+02
  -1.441840e+02   1.961750e+01
  -1.318048e+02  -6.757144e+01
   2.690104e+00  -1.194045e+02
   7.224807e+01  -5.854855e+01
   6.385371e+01   2.004065e+01
  -7.122941e+01  -1.274279e+00
  -1.470398e+02  -5.998439e+01
  -7.829121e+01  -8.626390e+01
   7.630369e+01  -8.480411e+01
   1.940597e+02  -3.349311e+01
   1.775975e+02   5.465064e+01
   3.528708e+01   7.017119e+01
  -5.353473e+01   1.084913e+02
  -4.624780e+01   5.380189e-01
   3.731819e+01  -3.823788e+01
   9.562730e+01   1.756172e+01
   1.236193e+01   9.997241e+01
  -9.527466e+01   1.548574e+02
  -1.964842e+02   9.607644e+01
  -1.195671e+02  -1.103491e+02
  -3.994867e+01  -2.105154e+02
   6.928264e+01  -1.481173e+02
   9.398354e+01  -6.833574e+00
   4.197968e+01   1.041014e+02
   7.129180e+00   8.924301e+01
  -3.673207e+01   1.382945e+01
  -1.476552e+01  -3.636548e+01
   2.664975e+00   8.156296e+00
   4.521696e+01   3.515772e+01
  -1.425203e+01  -1.124451e+00
  -3.682327e+01  -7.747740e+01
  -4.913063e+01  -9.069371e+01
   4.531398e+01  -3.818203e+01
   1.119617e+02   2.532868e+01
   1.182125e+02   7.337805e+01
   3.186234e+01   4.689430e+01
  -7.834447e+01   2.737648e+00
  -8.847747e+01  -3.061292e+01
  -1.943651e+00   4.454326e+00
   4.273254e+01   7.489702e-01
   2.088366e+01  -2.206857e+01
  -3.889180e+01  -1.317466e+01
  -1.057629e+01   6.678707e-01
   8.243860e+01   9.241644e+00
   8.494755e+01   2.238165e+01
   2.419844e+01   9.759671e+01
  -1.350107e+02   6.358478e+01
  -1.837075e+02   3.013968e+01
  -1.566468e+02  -9.437231e+01
  -4.219719e+00  -1.744200e+02
   1.149471e+02  -1.623740e+02
   1.180262e+02  -3.434724e+01
   9.783976e+01   4.459125e+01
   2.228441e+01   3.527677e+01
   2.390041e+00   1.237075e+01
  -3.585634e+01   7.013282e+00
   2.257590e+01   3.578816e+01
   2.438724e+01   8.727337e+01
  -3.147271e+01   5.192101e+01
  -6.054525e+01  -2.987349e+01
  -9.174446e+01  -1.411352e+02
   2.618943e+00  -8.506925e+01
   7.769609e+01  -2.926216e+01
   9.821437e+01   8.810738e+01
   4.474712e+01   7.307447e+01
  -4.741578e+01   5.535552e+01
  -7.568802e+01  -1.329020e+01
  -1.961586e+01  -3.757764e+01
   3.509033e+01  -3.968609e+01
   5.655993e+01  -3.497112e+01
  -4.292379e+01   1.115686e+01
  -6.029073e+01   5.945972e+00
  -1.494980e+01  -6.978374e+00
   1.009040e+02  -5.183578e+01
   1.081609e+02  -3.529289e+01
   6.397339e+01   8.916544e+00
  -3.264137e+01   7.674954e+01
  -6.572974e+01   5.250672e+01
  -5.435108e+01  -3.036054e+01
  -2.666206e+00  -6.129988e+01
   3.837360e+01  -4.679717e+01
   5.095805e+01   2.641020e+01
   1.169333e+01   5.451946e+01
  -1.552440e+01   2.002152e+01
  -3.496857e+01  -2.869729e+01
  -1.737459e+01  -2.010145e+01
  -9.353358e-01  -5.578423e+00
   7.987006e+00   2.321939e+01
  -7.476011e+00   3.029504e+01
   7.199270e+00  -2.668244e+01
   1.822678e+01  -3.934147e+01
   4.231408e+01  -2.890931e+01
   4.219437e+01   2.729494e+01
   1.711353e+00   7.167713e+01
  -4.914803e+01   1.368975e+01
  -4.927355e+01  -5.568839e+01
  -1.935491e+01  -6.978020e+01
   1.515096e+01  -6.586988e+01
   8.907874e+01  -1.068063e+00
   5.147654e+01   4.037598e+01
  -2.757970e+01   6.597670e+01
  -7.376310e+01   5.777274e+01
  -4.509986e+01   1.058121e+01
   2.902049e+01   3.200667e+01
   3.253033e+01   3.680047e+01
  -3.157841e+01   2.828890e+01
  -8.978743e+01   1.466589e+01
