
 $NMID
 id='ANONYMOUS ', fmtdat='(2E16.6)'
 volume=1.0
 tramp=1.0
 $END
  -3.054961e+03   4.424462e+01
  -2.133553e+03  -1.679304e+03
   1.053084e+02  -2.041907e+03
   1.376215e+03  -9.306819e+02
   8.331589e+02   2.377992e+02
  -2.789288e+02   3.396502e+02
  -6.343981e+02  -2.309671e+02
  -2.014406e+01  -7.725102e+02
   5.783261e+02  -5.560185e+02
   6.471547e+02   2.774819e+01
   3.792954e+02   5.533912e+02
  -7.770885e+01   6.397951e+02
  -4.063746e+02   1.013274e+02
  -2.224350e+02  -5.429949e+02
   1.508327e+02  -5.498400e+02
   4.447399e+02  -2.697443e+01
   2.140699e+02   5.434382e+02
  -2.208535e+02   5.617527e+02
  -5.345789e+02   2.044031e+02
  -4.285326e+02  -2.474979e+02
  -4.728494e+01  -3.719223e+02
   1.780068e+02  -2.021612e+02
   1.132633e+02  -2.636775e+01
  -1.684858e+02  -1.332277e+01
  -2.948057e+02  -1.895882e+02
  -8.900171e+01  -3.721316e+02
   4.061214e+02  -2.374427e+02
   6.275644e+02   9.775142e+01
   2.062049e+02   4.552835e+02
  -3.465572e+02   3.350581e+02
  -5.906010e+02  -5.722392e+01
  -2.257201e+02  -4.164962e+02
   2.471828e+02  -4.243109e+02
   4.613366e+02  -1.557220e+02
   3.314239e+02   2.097022e+02
   5.238804e+01   3.408874e+02
  -8.176356e+01   1.854928e+02
   3.283879e+00  -1.397871e+02
   1.710680e+02  -2.376234e+02
   2.360590e+02   3.941593e+01
   1.128155e+02   4.975489e+02
  -2.545149e+02   4.919869e+02
  -4.126683e+02  -1.312016e+00
  -1.449856e+02  -3.833094e+02
   2.374399e+02  -2.552098e+02
   2.686457e+02   2.852851e+02
  -8.512474e+01   4.367785e+02
  -4.427076e+02   8.839422e+01
  -5.158373e+02  -3.547591e+02
  -1.014976e+02  -4.783583e+02
   3.107628e+02  -2.495188e+02
   4.949255e+02   1.168346e+02
   3.101951e+02   2.810383e+02
  -8.626133e+01   2.537672e+02
  -3.070908e+02   8.554321e+01
  -1.837191e+02  -1.006421e+02
   4.419340e+01  -3.646558e+01
   9.863259e+01   8.695014e+01
  -1.261326e+02   9.387561e+01
  -2.143517e+02  -2.307654e+01
  -1.545435e+02  -1.942348e+02
   1.691675e+02  -2.486249e+02
   2.501860e+02  -1.234905e+02
   2.099604e+02   9.246316e+01
  -3.759452e+01   2.778714e+02
  -2.281815e+02   3.261506e+02
  -2.809197e+02   1.732300e+02
  -2.176311e+02  -1.286381e+02
  -9.297698e+01  -3.923605e+02
   2.528474e+01  -2.627233e+02
   5.681373e+01  -1.157631e+02
   3.268030e+01  -2.552029e+01
   5.099030e+01  -1.191663e+02
   1.796348e+02  -7.760817e+01
   2.262207e+02   5.503353e+01
   1.402981e+02   2.109682e+02
  -8.343511e+01   1.906253e+02
  -1.914156e+02  -3.878926e+00
  -1.601071e+02  -2.332562e+02
   1.677365e+01  -2.144599e+02
   2.389709e+02  -6.617193e+01
   2.994166e+02   1.353224e+02
   1.405094e+02   2.658001e+02
  -5.373392e+01   2.402862e+02
  -1.745841e+02   1.488113e+02
  -1.236926e+02   6.057296e+01
  -7.406073e+01   4.677159e+01
  -1.942833e+02   7.078543e+01
  -3.765645e+02  -7.886825e+00
  -3.001693e+02  -2.482064e+02
  -2.787097e+00  -4.030679e+02
   3.546264e+02  -3.567517e+02
   4.339698e+02  -1.556008e+02
   2.600573e+02   7.420731e+01
   5.294434e+01   2.209610e+02
  -9.353143e+01   1.917185e+02
  -1.905625e+01   1.579653e+01
   8.624958e+01  -5.167741e+01
   1.622983e+02   1.780106e+01
   3.562753e+01   1.445617e+02
  -1.401017e+02   1.289636e+02
  -1.389926e+02  -3.143762e+01
   1.391297e+01  -1.588510e+02
   1.567294e+02  -2.700631e+01
   1.379156e+02   1.855262e+02
  -3.716215e+00   3.358095e+02
  -2.079292e+02   1.885734e+02
  -2.901862e+02  -4.806650e+01
  -2.520496e+02  -2.628308e+02
  -4.210367e+01  -2.562797e+02
   1.016594e+02  -1.417851e+02
   1.538308e+02  -4.120823e+00
   3.965108e+01   3.578740e+01
  -7.246760e+01  -3.925801e+01
  -3.970207e+01  -1.067963e+02
   9.911255e+01  -7.597826e+01
   1.306503e+02   6.492464e+00
   2.881979e+01   6.005992e+01
  -8.117920e+01  -2.244770e+00
  -3.814613e+01  -6.902726e+01
   1.261077e+02  -9.131219e+01
   3.069768e+02   6.168638e+00
   2.496204e+02   1.463497e+02
   1.785128e+01   2.322396e+02
  -1.561092e+02   2.491506e+02
  -2.526594e+02   1.281212e+02
  -1.435058e+02  -4.390079e+01
   4.419490e+01  -7.097501e+01
   7.893083e+01   3.665763e+00
  -3.486945e+01   9.763696e+01
  -1.568749e+02   4.954623e+01
  -1.778456e+02  -8.016444e+01
  -7.340669e+01  -2.052000e+02
   9.570188e+01  -1.157150e+02
   1.195877e+02  -3.210005e+01
   6.079542e+01   5.625448e+01
  -4.304978e+01   1.656031e-01
  -2.624936e+01  -9.822071e+01
   1.076401e+02  -1.148171e+02
   1.959423e+02  -4.123717e+01
   1.914391e+02   1.187217e+02
   4.471769e+01   1.801576e+02
  -1.409700e+02   1.698431e+02
  -1.603674e+02   6.268420e+01
  -5.038902e+01  -9.174075e+01
   4.516607e+01  -1.051320e+02
   3.846402e+01  -3.540986e+01
  -1.429809e+01   2.255932e+01
  -6.049860e+01   2.240878e+01
   1.146056e+01  -8.030581e+00
   9.134129e+01  -5.235742e+01
   1.077971e+02   4.824589e+01
   5.058287e+01   1.283666e+02
  -1.171985e+02   1.440542e+02
  -2.128187e+02  -3.539206e+00
  -1.802676e+02  -1.532098e+02
  -3.984370e+01  -2.168728e+02
   9.669859e+01  -1.317795e+02
   1.209061e+02  -6.455601e+00
   6.162434e+01   5.151713e+01
   3.062174e+01   1.993774e+01
   5.186934e+01   2.969920e+01
   8.653587e+01  -2.289428e+01
   5.371982e+01   3.304423e+01
  -3.840468e+01   9.177493e+01
  -1.117609e+02   4.339154e+01
  -7.074570e+01  -4.192080e+01
   8.028086e+00  -1.299270e+02
   1.034328e+02  -6.929871e+01
   1.963715e+02   4.288507e+01
   1.118024e+02   1.870912e+02
  -6.192396e+01   2.400162e+02
  -2.570980e+02   5.840152e+01
  -2.209091e+02  -6.213430e+01
  -8.072887e+01  -1.699832e+02
   4.089034e+01  -1.523808e+02
   7.372780e+01  -6.901139e+01
   6.290280e+01  -6.143154e+01
   7.235822e+01  -8.794349e+01
   5.311523e+01  -9.315206e+01
   1.173313e+02   1.359792e+00
   1.425946e+02   1.206161e+02
   2.952901e+01   1.994803e+02
  -1.034534e+02   1.691102e+02
  -1.473899e+02  -8.989605e+00
  -1.215739e+02  -1.038802e+02
  -4.302523e+01  -1.332824e+02
   7.612337e+01  -7.115316e+01
   4.512161e+01   2.668025e+01
   1.098504e+01   4.464126e+01
  -5.325497e+00   4.321109e+01
   4.102166e+01  -1.529419e+01
   8.680848e+01   1.563199e+01
   5.422102e+01   2.207682e+01
  -8.077982e+01   4.318256e+01
  -1.418460e+02   1.772089e+01
  -1.239080e+02  -4.986477e+01
   2.096184e+01  -1.018986e+02
   1.049854e+02  -8.127029e+01
   1.322562e+02   7.064421e+00
   2.701296e+01   4.855213e+01
  -5.782195e+01   6.593449e+01
  -5.037389e+01  -1.827079e+01
   3.319479e-01  -6.248673e+01
   5.469883e+01  -5.189011e+01
   5.308560e+01   2.635181e+01
   4.266007e+01   5.429846e+01
   3.955188e+01   5.249659e+01
   2.544490e+01   7.053049e+00
   6.148547e+01  -5.790992e+00
   4.813629e+01   7.866767e+01
  -5.480851e+00   1.180950e+02
  -1.198154e+02   1.607737e+02
  -1.634665e+02   1.831308e+01
  -1.069494e+02  -7.217883e+01
  -3.922866e+01  -1.203992e+02
   9.094068e+01  -8.094927e+01
   3.902397e+01   2.956871e+01
  -5.123241e+01   3.068489e+01
  -1.363229e+02  -2.270290e+01
  -6.914474e+01  -1.223129e+02
   7.901791e+01  -1.062808e+02
   2.012425e+02  -5.099961e+01
   1.597603e+02   2.450259e+01
   4.206562e+01   1.227975e+02
  -7.992800e+01   7.916289e+01
  -4.145092e+01   4.155179e-01
   2.997993e+01  -3.730883e+01
   9.995073e+01  -1.502730e+01
   6.318481e+01   1.006643e+02
  -7.745432e+01   1.181218e+02
  -1.441492e+02   5.805832e+01
  -1.121027e+02  -1.021558e+02
   1.940940e+01  -1.679788e+02
   1.114475e+02  -1.270203e+02
   9.965000e+01   6.722161e+00
   5.496233e+01   9.294215e+01
  -2.057314e+01   1.003228e+02
  -5.399195e+01   4.806402e+01
  -7.435316e+01  -4.699985e+01
   8.898758e+00  -8.483275e+00
   1.667172e+01   1.026889e+01
  -1.829171e+01   1.900367e+01
  -7.540787e+01  -7.869912e+01
  -5.179474e+01  -1.042670e+02
   6.870279e+01  -8.209731e+01
   1.218802e+02   3.635337e+01
   1.283922e+02   5.332904e+01
  -3.070081e+01   4.467347e+01
  -6.781120e+01   4.704305e+01
  -7.849158e+01   1.501297e+00
  -2.425255e+01   2.729359e+00
   3.745763e+01  -2.292941e+01
   3.582226e+01  -1.879427e+01
  -9.557328e+00   4.184079e+01
   1.473331e+01   3.705635e+01
   4.242657e+01  -2.463335e+01
   7.307221e+01   1.458176e+01
   1.951786e+01   7.430267e+01
  -5.431403e+01   1.147324e+02
  -1.687280e+02   4.950202e+01
  -1.083492e+02   5.856998e+00
  -3.114836e+01  -9.019750e+01
   5.649646e+01  -1.585831e+02
   9.678847e+01  -8.599410e+01
   4.685778e+01  -6.716830e-01
   4.148031e+01   1.624715e+01
  -1.694890e+01   3.729012e+01
   1.570655e+01   3.437368e+01
   3.276560e+01   3.466799e+01
   1.865574e+01   1.037608e+02
  -3.380356e+01   3.904741e+01
  -5.603967e+01  -1.054189e+01
  -6.192432e+01  -1.090542e+02
   8.536575e-01  -8.674972e+01
   9.955362e+01  -1.829495e+01
   8.071331e+01   5.604071e+01
   2.117271e+01   1.353291e+02
  -8.024751e+01   3.406383e+01
  -1.192996e+02   9.398163e+00
  -5.122612e+01  -4.983351e+01
   2.827612e+01  -5.136425e+01
   2.105703e+01  -3.066943e+01
  -4.467210e+01  -1.380837e+01
  -4.327804e+01  -5.398448e+00
  -1.362219e+01  -3.056675e+01
   4.519926e+01  -7.882262e+01
   1.222268e+02  -2.706038e+01
   7.573257e+01   1.803540e+01
  -1.352970e+00   9.834206e+01
  -4.956990e+01   8.078553e+01
  -2.083709e+01  -1.777758e+01
  -7.585741e+00  -4.991703e+01
   2.588707e+01  -4.566750e+01
   3.496652e+01   7.867944e+00
   2.526557e+01   6.839534e+01
  -1.092584e+01   2.443847e+01
  -4.297017e+01  -9.906265e+00
  -2.281222e+01  -1.134207e+01
  -1.629908e+01   2.326240e+00
   3.643558e+01   2.354518e+01
   6.123012e+00   2.191655e+01
  -7.574117e+00  -8.236496e+00
   1.179250e+01  -4.387439e+01
   4.903452e+01  -2.423857e+01
   4.451894e+01   4.382388e+01
   2.602447e+01   5.571428e+01
  -3.956654e+01   5.144505e+01
  -7.568702e+01  -4.945081e+01
  -3.763329e+01  -3.956355e+01
   5.261592e+01  -4.163013e+01
   1.090563e+02  -8.591812e+00
   4.705296e+01   6.908055e+01
  -1.058311e+01   4.110970e+01
  -5.254720e+01   1.804260e+01
  -1.130592e+01  -1.806217e+00
   3.529010e+01  -1.033542e+01
   1.314242e+01   1.754963e+01
  -2.540556e+01   3.237983e+01
  -6.394580e+01   1.257530e+01
