
 $NMID
 id='ANONYMOUS ', fmtdat='(2E16.6)'
 volume=1.0
 tramp=1.0
 $END
   2.973459e+03  -2.168266e+01
   1.866849e+03   1.883710e+03
  -4.308240e+02   2.011295e+03
  -1.504177e+03   7.571528e+02
  -8.490296e+02  -4.135043e+02
   3.349698e+02  -3.809311e+02
   5.793996e+02   8.766117e+01
   1.008575e+02   7.470007e+02
  -4.533829e+02   5.913793e+02
  -6.763022e+02  -2.318370e+01
  -3.739527e+02  -5.361644e+02
   7.137888e+01  -6.390743e+02
   3.586315e+02  -1.825243e+02
   3.023480e+02   3.835116e+02
  -1.350385e+02   5.743293e+02
  -4.622460e+02   5.927134e+01
  -2.213462e+02  -5.146925e+02
   2.166792e+02  -5.640163e+02
   4.759482e+02  -9.461636e+01
   3.703573e+02   2.522063e+02
   3.603044e+01   3.153048e+02
  -1.742091e+02   2.176257e+02
  -2.100659e+02   1.263071e+01
   1.156004e+01  -6.458942e+01
   2.611300e+02   1.059791e+02
   1.278850e+02   2.848498e+02
  -2.847608e+02   3.105486e+02
  -5.666769e+02  -1.177990e+02
  -3.338756e+02  -3.187292e+02
   2.433499e+02  -3.412222e+02
   5.159038e+02   2.332551e+00
   2.512025e+02   3.222254e+02
  -1.678320e+02   3.788468e+02
  -3.847958e+02   1.552525e+02
  -3.126913e+02  -1.761600e+02
  -5.862336e+01  -3.461719e+02
   1.353746e+02  -2.293588e+02
   1.259366e+02   1.218111e+02
  -5.297001e+01   3.040167e+02
  -2.407259e+02  -1.824293e+01
  -1.257499e+02  -4.029639e+02
   1.473258e+02  -4.433180e+02
   3.474734e+02  -8.123527e+01
   1.709809e+02   3.351380e+02
  -1.583464e+02   2.664790e+02
  -2.827934e+02  -1.976645e+02
  -1.669848e+01  -3.582766e+02
   3.442730e+02  -1.344314e+02
   4.147214e+02   2.786538e+02
   1.410340e+02   4.488947e+02
  -2.750415e+02   2.766268e+02
  -4.236084e+02  -3.147649e+01
  -2.796543e+02  -2.574083e+02
   6.178258e+01  -2.781434e+02
   3.179350e+02  -4.019021e+01
   2.288804e+02   1.050499e+02
  -6.910455e+01   1.055006e+02
  -6.766394e+01  -6.648593e+01
   1.400484e+02  -1.280133e+02
   2.134129e+02   5.239158e+01
   1.116993e+02   1.724482e+02
  -1.228220e+02   1.789932e+02
  -2.576023e+02   5.329158e+01
  -1.647261e+02  -3.091751e+01
   1.215695e+01  -2.023179e+02
   1.643367e+02  -2.492239e+02
   2.821826e+02  -1.688591e+02
   2.468338e+02   1.056863e+02
   6.965649e+01   3.022315e+02
  -9.145169e+01   2.219965e+02
  -1.126995e+02   9.778140e+01
  -7.955239e+01  -1.929827e+01
  -2.466648e+01   7.740473e+01
  -1.449001e+02   8.794844e+01
  -1.799138e+02  -4.117713e+01
  -9.644141e+01  -2.168194e+02
   5.375420e+01  -1.569781e+02
   1.495120e+02  -3.823071e+01
   1.378853e+02   1.833944e+02
   7.231590e+00   1.990623e+02
  -1.909506e+02   7.126697e+01
  -2.518815e+02  -1.344450e+02
  -1.543057e+02  -2.529444e+02
   6.666262e+01  -2.413867e+02
   1.549623e+02  -9.573376e+01
   8.850025e+01  -1.162350e+01
   8.972166e+01   4.367990e+00
   1.330664e+02  -4.944363e+01
   2.785968e+02   4.811242e+01
   2.169044e+02   2.377918e+02
   9.440675e+00   2.823238e+02
  -2.370468e+02   2.570589e+02
  -3.416251e+02   1.310335e+02
  -2.199576e+02  -6.050502e+01
  -3.632035e+01  -2.092101e+02
   9.448938e+01  -1.512792e+02
   7.235776e+01  -2.082303e+01
  -7.101735e+01   7.789178e+01
  -8.186962e+01   4.792618e+00
   2.375956e+00  -1.242580e+02
   9.830399e+01  -1.168221e+02
   1.202044e+02   5.359668e+01
  -7.574938e+00   1.178037e+02
  -9.714872e+01   4.548823e+01
  -9.319101e+01  -1.671185e+02
   5.899658e+00  -2.354265e+02
   1.738061e+02  -1.502806e+02
   2.547693e+02   5.622052e+01
   2.106091e+02   1.861527e+02
   2.348005e+01   1.969375e+02
  -7.870670e+01   1.279088e+02
  -1.225698e+02   8.889928e+00
  -3.985747e+01  -1.534196e+01
   4.058065e+01   3.958917e+01
   1.554919e+01   8.458691e+01
  -7.400257e+01   1.004591e+02
  -1.224252e+02  -6.748373e+00
  -3.267114e+01  -7.106522e+01
   4.093277e+01  -5.624526e+01
   7.378006e+01   2.112990e+01
  -7.423667e+01   5.957977e+01
  -1.483671e+02   6.265365e+00
  -1.603287e+02  -7.961872e+01
  -4.998329e+01  -1.583790e+02
   1.178035e+02  -1.991592e+02
   2.311193e+02  -1.015320e+02
   7.310262e+01   7.124208e+01
  -3.055149e+01   9.427765e+01
  -8.170456e+01   2.090387e+01
   2.119466e+01  -5.819565e+01
   1.062456e+02  -3.636094e+01
   1.295069e+02   7.914793e+01
   5.368261e+01   1.386485e+02
  -6.066218e+01   1.032986e+02
  -9.951800e+01   2.516913e+01
  -4.441040e+01  -5.465330e+01
   1.545264e+01  -3.078377e+00
   2.897891e+01   5.429897e+01
  -4.578585e+01   7.386292e+01
  -1.403965e+02   2.334908e+01
  -1.372497e+02  -8.247377e+01
  -2.411663e+01  -1.603839e+02
   1.074293e+02  -1.056897e+02
   1.638405e+02  -3.786809e+01
   5.182896e+01   8.813446e+01
  -6.210208e+01   8.476213e+01
  -7.691931e+01   1.802314e+01
  -5.247088e+01  -2.162064e+01
   2.058979e+01  -2.915362e+01
  -6.440772e+00  -9.664231e+00
  -1.718016e+01  -1.069817e+01
  -7.294610e+01  -6.370210e+01
   8.196521e+00  -8.734769e+01
   9.186284e+01  -8.829065e+01
   1.404727e+02  -8.557687e+00
   1.415301e+02   9.088694e+01
   2.757593e+01   1.950195e+02
  -7.095009e+01   1.665631e+02
  -9.995184e+01   2.048085e+01
  -6.435877e+01  -3.951268e+01
  -4.048535e-01  -3.729586e+01
  -4.886129e+01  -8.119118e+00
  -4.107928e+01  -1.998091e+01
  -2.023174e+00  -1.583962e+01
   2.092070e+01  -5.683736e+01
   9.623363e+01  -2.186212e+01
   5.606329e+01   3.241503e+01
   1.489345e+00   7.329045e+01
  -9.386187e+01   5.035862e+01
  -1.568509e+02  -2.071659e+01
  -6.118749e+01  -1.447822e+02
   4.295671e+01  -1.816097e+02
   1.875960e+02  -8.525012e+01
   1.740487e+02   4.641196e+01
   3.675769e+01   1.039763e+02
  -1.913775e+01   8.706594e+01
  -4.967548e+01   4.873113e+01
  -4.868777e+01   2.169224e+01
  -6.406795e+01   8.819049e+01
  -7.033762e+01   3.530365e+01
  -8.281951e+01  -2.727786e+01
  -5.996493e+01  -1.175743e+02
  -5.180935e+00  -1.470331e+02
   7.587258e+01  -1.463802e+02
   1.103987e+02   2.311355e+00
   9.503726e+01   1.032249e+02
   1.890561e-01   1.326288e+02
  -5.182731e+01   6.114888e+01
  -5.004306e+01   1.418934e+01
  -4.937496e+00  -3.784410e+01
  -3.190303e+00  -7.944557e+00
  -1.112052e+01  -3.440704e+01
  -4.266382e+01  -1.552292e+01
  -1.674902e+01  -2.843995e+01
   3.233704e+01  -1.878299e+01
   1.051600e+02  -1.724771e+01
   1.018776e+02   7.675668e+01
   1.461562e+01   4.862131e+01
  -8.920977e+01   5.267721e+01
  -1.422680e+02   1.213750e+01
  -3.150927e+01  -3.489657e+01
   4.163208e+00  -2.709740e+01
   3.480503e+01  -1.115809e+01
   1.870929e+01   4.992106e+01
  -3.178766e+01   2.278738e+01
  -6.500246e+01  -2.571354e+01
  -2.702693e+01  -3.574604e+01
  -1.899775e+01   1.040745e+01
  -5.261998e+01  -1.791034e+01
  -3.909495e+01  -3.419586e+00
  -3.642946e+01  -4.881050e+01
   2.676798e+01  -9.601939e+01
   7.468873e+01  -1.071138e+02
   9.796578e+01  -4.701087e+01
   1.001916e+02   6.388902e+01
   9.453731e+00   9.495079e+01
  -6.195315e+01   4.936311e+01
  -3.629421e+01  -3.112685e+01
   2.543094e+01  -1.944179e+01
   7.024963e+01   1.795802e+01
   7.640713e+01   7.463590e+01
  -2.826062e+01   7.765669e+01
  -1.138062e+02   5.221837e+01
  -7.865424e+01  -3.989650e+01
  -1.969319e+01  -5.515210e+01
   5.234375e+01  -4.323133e+01
   5.512854e+01   5.148209e+00
  -3.216812e+01   2.179430e+01
  -4.533097e+01   1.916911e+01
  -2.262095e+01  -1.012325e+02
   4.561695e+01  -1.054039e+02
   1.389298e+02  -4.484265e+01
   1.052382e+02   5.209889e+01
   2.018623e+01   1.525889e+02
  -6.608649e+01   1.275981e+02
  -8.352173e+01  -1.473899e+01
  -1.927813e+01  -6.570657e+01
   1.872270e+00  -6.296120e+01
   4.532881e+01  -7.099263e+00
   4.792598e+01   3.843512e+01
   1.807905e+01  -1.538197e-01
  -9.646855e-01  -2.158125e+01
   2.707764e+01  -8.541103e+00
   4.505682e+01   2.790436e+01
   3.482302e+01   8.909462e+01
  -4.417784e+01   3.681608e+01
  -1.122579e+02  -2.780826e+01
  -8.371809e+01  -6.241129e+01
  -1.372538e+01  -4.464724e+01
   5.898051e+01  -3.250944e+01
   8.377370e+01   1.153687e+01
   2.120371e+00   3.215430e+01
   2.787232e+00   4.149276e+01
  -9.617083e+00   1.867450e+01
  -4.036738e+00   2.410079e+01
  -5.800266e+00  -2.720249e+01
  -3.912818e+01  -2.066610e+01
  -3.612981e+01  -1.937143e+01
   1.410446e+01  -5.790818e+01
   8.305334e+01  -5.443190e+01
   9.939815e+01  -1.833082e+01
   1.374123e+02   5.406391e+01
   6.434026e+00   1.066742e+02
  -1.549678e+01   9.701953e+01
  -9.158022e+01   1.628122e+01
  -5.881056e+01  -1.437685e+01
  -7.086905e-01  -3.402549e+01
   1.744147e+00  -2.467598e+01
   1.023749e+01  -1.543371e+01
  -2.297412e+01  -1.932093e+01
  -1.780624e+01  -6.869619e+01
   1.658246e+01  -4.552582e+01
   4.116079e+01   1.692975e+01
   6.222315e+01   7.496504e+01
   4.076855e+01   5.928568e+01
  -7.425466e+01   2.491525e+01
  -6.873447e+01  -4.688812e+01
  -3.115917e+01  -6.462692e+01
   6.215368e+01  -3.563648e+01
   8.037667e+01   2.565959e+01
   3.142315e+00   5.470848e+01
  -2.608994e+01   1.640868e+01
  -4.003788e+01   4.517128e+00
   1.648607e+01  -2.174507e+01
   6.082844e+01   1.903513e+01
   3.230226e+01   1.974256e+01
  -2.840798e+01   5.096541e+01
  -9.724424e+01   3.308449e+01
  -5.182449e+01  -8.431682e+00
  -1.772895e+01  -5.811976e+01
  -8.299730e+00  -5.396081e+01
   3.986484e+01  -7.189490e+00
   2.027077e+01   2.138945e+01
   9.278868e+00   3.960863e+01
  -3.007606e+01   1.493369e+01
  -1.740512e+01  -2.953579e+00
   4.701051e+00  -3.886762e+01
   2.224920e+01   2.875795e+01
   1.901374e+01   1.522230e+01
   3.937337e+01  -2.069702e+01
   2.198414e+01   4.256948e+00
  -5.872977e+00  -2.193154e+01
  -1.980369e+01   1.756073e+01
   9.274801e+00   5.360971e+01
   4.110651e+00  -4.285680e+00
  -5.084609e+01  -4.005484e+01
   2.687598e+01  -5.342852e+01
   4.724086e+01   1.467415e+01
   1.587437e+01   2.373457e+01
   5.310615e-01   2.358930e+01
  -2.940374e+01   1.062321e+01
  -4.650804e+01   7.924664e+00
  -3.317044e+01  -2.294167e+01
   1.301722e+01  -3.279579e+01
   4.971096e+01  -1.413324e+01
   1.524714e-01  -1.435353e+01
  -1.061097e+01   4.414433e+00
  -4.865881e+01  -2.971126e+01
   3.125928e+01  -2.023341e+01
   6.379019e+01  -5.018991e+01
