
 $NMID
 id='ANONYMOUS ', fmtdat='(2E16.6)'
 volume=1.0
 tramp=1.0
 $END
  -3.746367e+03   1.736466e+02
  -2.485009e+03  -2.344995e+03
   4.465386e+02  -2.515597e+03
   1.818485e+03  -1.003529e+03
   1.072838e+03   4.470101e+02
  -4.797881e+02   4.728649e+02
  -8.107476e+02  -2.093471e+02
  -5.217885e+01  -8.786618e+02
   6.863361e+02  -7.956676e+02
   8.639240e+02   5.406029e+01
   5.386315e+02   7.117248e+02
  -1.599432e+02   8.191213e+02
  -5.926825e+02   2.081252e+02
  -4.454382e+02  -5.630574e+02
   1.847747e+02  -6.842726e+02
   6.142309e+02  -3.885868e+01
   3.205396e+02   6.298942e+02
  -2.519253e+02   6.780953e+02
  -5.754995e+02   1.549925e+02
  -4.413714e+02  -4.061125e+02
  -4.299847e+01  -4.744841e+02
   2.593863e+02  -2.312767e+02
   2.214047e+02  -4.033014e+00
  -1.061932e+02   8.908811e+01
  -3.633499e+02  -1.300034e+02
  -1.657590e+02  -3.853253e+02
   3.897793e+02  -3.821181e+02
   7.338827e+02   6.706074e+01
   4.390129e+02   4.943220e+02
  -3.419496e+02   4.531522e+02
  -6.881189e+02  -1.056289e+01
  -3.794564e+02  -4.122687e+02
   2.501169e+02  -4.936100e+02
   5.391944e+02  -2.124619e+02
   3.803245e+02   1.957681e+02
   4.150445e+01   4.623045e+02
  -2.184219e+02   2.730426e+02
  -1.688777e+02  -1.476610e+02
   1.482518e+02  -3.279702e+02
   3.702968e+02   2.603336e+01
   2.287860e+02   5.876455e+02
  -2.787862e+02   5.862760e+02
  -4.823607e+02   7.258143e+01
  -2.804671e+02  -4.790327e+02
   2.355994e+02  -3.227909e+02
   3.197075e+02   2.734462e+02
   2.699176e+00   4.619168e+02
  -4.564918e+02   1.395790e+02
  -5.438682e+02  -3.641562e+02
  -1.862158e+02  -5.681202e+02
   2.894718e+02  -3.548392e+02
   5.807812e+02  -2.273545e+01
   3.882760e+02   2.925617e+02
  -1.010079e+02   3.269103e+02
  -3.870329e+02   8.878614e+01
  -2.267057e+02  -1.538626e+02
   6.191699e+01  -1.142488e+02
   1.145614e+02   9.782341e+01
  -1.621304e+02   1.502526e+02
  -2.834169e+02  -5.188784e+01
  -1.646840e+02  -2.462703e+02
   1.767494e+02  -2.536722e+02
   3.035100e+02  -1.008855e+02
   2.538307e+02   5.575564e+01
  -1.346166e+01   2.556069e+02
  -1.968719e+02   3.125457e+02
  -3.219324e+02   2.187885e+02
  -2.810404e+02  -1.297337e+02
  -7.455472e+01  -3.471949e+02
   8.870628e+01  -3.195603e+02
   1.193009e+02  -1.165805e+02
   5.935014e+01  -3.039438e+01
   5.842793e+01  -8.799570e+01
   2.095172e+02  -1.317570e+02
   2.313803e+02   6.779669e+01
   1.681855e+02   2.611461e+02
  -5.760821e+01   2.493188e+02
  -2.029998e+02   6.783271e+01
  -2.143517e+02  -2.041186e+02
  -2.679845e+01  -2.596677e+02
   2.319118e+02  -1.310479e+02
   3.093154e+02   1.433076e+02
   1.839877e+02   2.919577e+02
  -1.069944e+02   2.600291e+02
  -1.942855e+02   1.088966e+02
  -1.115808e+02  -1.266685e-01
  -9.646365e+01   4.749080e+01
  -2.128960e+02   8.598857e+01
  -4.074225e+02  -4.919870e+01
  -3.168034e+02  -2.694561e+02
  -2.802068e+01  -3.805429e+02
   3.178312e+02  -3.596922e+02
   4.335136e+02  -1.817530e+02
   3.179999e+02   1.019239e+02
   5.201021e+01   2.728980e+02
  -1.001179e+02   2.011270e+02
  -6.704266e+01   1.389046e+01
   6.841615e+01  -5.902184e+01
   1.411558e+02   2.203100e+01
   4.378559e+01   1.624321e+02
  -1.559983e+02   1.052307e+02
  -1.449426e+02  -4.033327e+01
  -4.851018e-01  -1.649344e+02
   1.363620e+02  -3.071438e+01
   1.409275e+02   1.790443e+02
  -5.506234e+00   3.083070e+02
  -1.762574e+02   1.983873e+02
  -2.898421e+02  -2.871879e+01
  -2.622907e+02  -1.906871e+02
  -5.803788e+01  -2.116387e+02
   9.857505e+01  -1.508655e+02
   1.875958e+02  -3.050088e+01
   6.259604e+01   4.565280e+01
  -7.054478e+01  -4.514139e+01
  -4.081546e+01  -1.247914e+02
   1.215946e+02  -1.132170e+02
   1.531592e+02   9.961946e+00
   4.756765e+01   7.563703e+01
  -5.378139e+01   2.338189e+01
  -5.987974e+01  -3.764735e+01
   9.193524e+01  -1.086697e+02
   1.886456e+02  -2.290708e+01
   1.978182e+02   1.180082e+02
   7.427096e+01   2.560231e+02
  -1.942617e+02   2.362744e+02
  -2.579726e+02   1.220066e+02
  -1.691542e+02  -6.748316e+01
  -4.033780e+00  -1.154324e+02
   9.456893e+01  -1.068986e+01
  -1.876930e+01   1.081016e+02
  -1.726383e+02   6.856389e+01
  -1.928389e+02  -9.272816e+01
  -8.542135e+01  -2.002660e+02
   1.076762e+02  -1.339755e+02
   1.354180e+02  -2.642661e+01
   6.953412e+01   4.461052e+01
  -3.625725e+01   1.583689e+01
  -5.384100e+01  -8.530495e+01
   6.205100e+01  -1.199556e+02
   2.053513e+02  -4.482960e+01
   1.726633e+02   1.311867e+02
  -1.006062e+01   2.041452e+02
  -1.509895e+02   1.375495e+02
  -1.710688e+02   3.010818e+01
  -6.158535e+01  -1.352083e+02
   5.561491e+01  -1.092311e+02
   8.296128e+01  -1.056680e+01
   4.534425e+01   1.700337e+01
  -4.095696e+01   3.406681e+01
  -1.375920e+01  -1.363454e+01
   9.319844e+01   1.341782e+01
   1.128064e+02   9.181436e+01
   1.744420e+01   1.623884e+02
  -1.299990e+02   1.341278e+02
  -2.395373e+02   1.464598e+01
  -1.869073e+02  -1.675001e+02
  -3.235865e+01  -2.399912e+02
   1.207455e+02  -1.606671e+02
   1.306123e+02  -2.832293e+01
   8.079490e+01   5.818742e+01
   2.277985e+01   4.539251e+01
   3.468609e+01  -1.200830e+01
   9.522931e+01  -2.251502e+01
   4.839063e+01   4.152360e+01
  -3.075759e+01   5.779046e+01
  -1.114830e+02   3.380223e+01
  -7.447477e+01  -1.026410e+01
  -2.221226e+01  -8.329088e+01
   1.329848e+02  -5.483724e+01
   1.914130e+02   2.283560e+01
   7.560323e+01   1.983350e+02
  -9.589440e+01   2.153795e+02
  -2.504344e+02   1.133407e+02
  -2.086997e+02  -5.699416e+01
  -8.381603e+01  -1.623443e+02
   3.073998e+01  -1.432162e+02
   8.044844e+01  -8.981010e+01
   5.147611e+01  -4.272295e+01
   4.306906e+01  -1.038629e+02
   8.145971e+01  -9.594929e+01
   1.332604e+02   8.469686e+00
   7.597643e+01   1.483739e+02
   5.514799e+01   1.971574e+02
  -1.103920e+02   1.565857e+02
  -1.592222e+02   1.527346e+00
  -1.310022e+02  -1.256443e+02
  -1.502921e+01  -1.316570e+02
   6.099335e+01  -6.621102e+01
   9.019591e+01   9.705807e+00
   7.180574e+00   3.825274e+01
  -2.402726e+01   1.456236e+01
   7.668616e+00   9.941446e+00
   4.986513e+01  -7.445841e+00
   4.428112e+01   2.947417e+01
  -1.043791e+01   2.465706e+01
  -1.389973e+02   1.771656e+01
  -1.150816e+02  -4.354460e+01
  -2.099147e+00  -9.540192e+01
   9.437072e+01  -9.837414e+01
   1.515231e+02  -1.864567e+01
   3.475236e+01   3.635650e+01
  -3.549347e+01   4.368323e+01
  -8.892935e+01   6.657693e-01
  -2.175115e+01  -7.433593e+01
   6.971775e+01  -8.430523e+01
   7.614513e+01  -1.045737e+01
   1.930488e+01   6.765046e+01
   5.593190e+01   3.053698e+01
   4.674634e+01   9.757754e-01
   5.914040e+01  -7.190443e+00
   5.688563e+01   3.197584e+01
  -8.595428e+00   1.586566e+02
  -1.146129e+02   1.319075e+02
  -1.263100e+02   6.018909e+01
  -1.276492e+02  -8.546200e+01
  -2.481254e+01  -1.272131e+02
   1.081861e+02  -8.721694e+01
   8.447728e+01   3.326458e+01
  -1.050743e+01   1.798510e+01
  -1.115776e+02  -3.987451e+01
  -5.220547e+01  -8.872752e+01
   4.323770e+01  -7.897166e+01
   1.652726e+02  -5.963401e+01
   1.558843e+02   4.883134e+01
   3.156018e+01   6.953218e+01
  -6.106621e+01   4.857040e+01
  -3.061459e+01  -8.611101e+00
   5.589736e+01  -5.569892e+01
   1.041545e+02   1.678691e+01
   4.370421e+01   1.301876e+02
  -6.836146e+01   1.453492e+02
  -1.576834e+02   6.908999e+01
  -1.148299e+02  -5.129529e+01
  -2.418342e+01  -1.760824e+02
   8.200758e+01  -1.940676e+02
   1.184489e+02  -1.148933e+01
   4.867914e+01   1.240976e+02
  -1.018545e+01   1.127809e+02
  -3.124566e+01   3.769559e+00
  -5.320731e+01  -4.624210e+01
   7.749302e+00  -2.166695e+01
   5.103948e+00   4.878230e+01
  -1.888870e+01  -6.182154e+00
  -4.874022e+01  -7.867590e+01
  -1.796922e+01  -8.396704e+01
   5.469216e+01  -2.145711e+01
   1.172080e+02   3.096560e+01
   8.418822e+01   6.915910e+01
   9.272368e+00   6.763451e+01
  -9.853225e+01   2.468929e+01
  -9.871439e+01  -1.255299e+00
  -3.854370e+01  -2.942652e+01
   4.110495e+01  -4.516701e+01
   5.020619e+01  -3.037653e+01
  -8.160117e-01  -7.194022e+00
   9.876444e+00   2.261861e+01
   8.568106e+01   1.730245e+01
   6.965224e+01   7.853964e+00
  -1.071598e+01   7.738523e+01
  -9.926382e+01   9.426912e+01
  -1.770703e+02   6.065431e+01
  -1.524708e+02  -7.940706e+01
  -3.414791e+01  -1.836487e+02
   7.736736e+01  -1.452434e+02
   1.242695e+02  -5.087436e+01
   8.239407e+01   3.230319e+01
   1.746427e+01   3.584161e+01
   3.221095e+00   4.443639e+00
  -5.259106e+00   8.902203e-02
   5.371323e+01   1.942075e+01
   2.739768e+01   6.270615e+01
  -2.065930e+01   8.947136e+01
  -7.181870e+01  -6.412755e+00
  -9.279739e+01  -9.137527e+01
  -1.468416e+01  -1.086688e+02
   7.810336e+01  -2.665220e+01
   6.934801e+01   8.979734e+01
   4.175774e+01   8.361918e+01
  -5.834402e+01   8.590899e+01
  -9.045318e+01  -2.312470e+01
  -6.140622e+01  -4.355917e+01
   2.568311e+01  -6.557926e+01
   6.654557e+01  -1.922580e+01
  -2.334907e+01   1.190523e+01
  -6.161840e+01   4.502793e+00
  -1.574727e+01  -3.356325e+01
   7.923769e+01  -4.916603e+01
   1.181093e+02  -3.179778e+01
   3.833441e+01   1.601311e+01
   1.561485e+01   8.091476e+01
  -3.845211e+01   7.353465e+01
  -3.981992e+01  -4.827590e+00
  -1.173905e+00  -3.884948e+01
   2.206378e+01  -2.072401e+01
   3.448932e+01   3.244336e+01
   1.581781e+01   5.830717e+01
  -3.815413e+01   4.837042e+01
  -5.241757e+01  -8.660862e-01
  -2.308537e+01  -2.221760e+01
  -3.728932e+01  -2.295418e+01
   1.438181e+01   1.364883e+01
   3.740576e+01   2.078784e+01
   2.734318e+00  -1.997324e+01
  -1.338055e+01  -4.659329e+01
   6.939263e+00  -1.953192e+00
   5.311262e+01   3.810228e+01
  -4.357414e+00   7.799440e+01
  -2.959292e+01   4.465114e-01
  -3.949157e+01  -4.090119e+01
  -1.318453e+01  -7.636774e+01
   5.401829e+01  -4.879118e+01
   6.680688e+01  -4.690750e+00
   5.955308e+01   2.772040e+01
  -2.723857e+01   6.042124e+01
  -5.345593e+01   3.648856e+01
  -2.369610e+01   5.512457e+01
   5.636334e+00  -4.756791e+00
   1.459270e+00   3.869518e+00
  -2.934416e+01   2.484163e+01
  -7.771017e+01   8.814151e+00
