
 $NMID
 id='ANONYMOUS ', fmtdat='(2E16.6)'
 volume=1.0
 tramp=1.0
 $END
  -2.824809e+03   2.552112e+02
  -2.392721e+03  -1.720185e+03
   1.447814e+02  -2.000777e+03
   1.460174e+03  -1.068668e+03
   7.833701e+02   5.788700e+01
  -2.360395e+02   3.726383e+02
  -5.091263e+02  -2.815571e+02
  -4.377293e+01  -6.575338e+02
   4.855823e+02  -6.543883e+02
   7.555162e+02  -4.083226e+01
   4.738147e+02   5.808091e+02
  -8.297897e+01   6.542398e+02
  -4.311442e+02   1.323887e+02
  -2.410313e+02  -4.882731e+02
   1.719004e+02  -5.860406e+02
   4.820019e+02  -5.697087e+01
   3.183486e+02   5.424569e+02
  -1.794630e+02   5.751563e+02
  -5.521344e+02   2.414484e+02
  -3.780188e+02  -2.619157e+02
  -7.614663e+01  -3.506400e+02
   1.545431e+02  -2.459087e+02
   9.285719e+01  -9.042267e+01
  -1.906795e+02  -2.943871e+01
  -3.286986e+02  -2.053314e+02
  -4.947115e+01  -3.907120e+02
   4.575806e+02  -2.516701e+02
   6.930419e+02   1.344690e+02
   2.500760e+02   3.602940e+02
  -2.978747e+02   3.139967e+02
  -5.106275e+02  -8.604649e+01
  -2.184032e+02  -3.823579e+02
   3.070951e+02  -3.536282e+02
   4.550513e+02  -1.401936e+02
   3.333941e+02   1.997502e+02
   6.066565e+01   3.267896e+02
  -4.829256e+01   1.732159e+02
  -3.606932e+01  -1.238793e+02
   1.376832e+02  -2.325558e+02
   2.823342e+02   7.683781e+01
   1.363387e+02   5.290689e+02
  -2.375526e+02   5.242004e+02
  -4.260128e+02   7.184899e+01
  -1.485664e+02  -3.556315e+02
   1.761883e+02  -1.796028e+02
   2.713406e+02   2.358951e+02
  -1.014605e+02   4.326245e+02
  -5.273315e+02   9.835060e+01
  -5.117391e+02  -3.893840e+02
  -1.578624e+02  -5.025593e+02
   3.290947e+02  -2.661398e+02
   5.702895e+02   3.899379e+01
   3.110054e+02   2.304153e+02
  -5.425019e+01   2.889645e+02
  -3.050593e+02   1.027271e+02
  -2.021339e+02  -1.209191e+02
   6.121372e+01  -5.891987e+01
   1.018401e+02   9.099811e+01
  -9.385520e+01   1.173501e+02
  -2.763179e+02  -3.728630e+01
  -1.267696e+02  -2.183488e+02
   1.680282e+02  -2.566280e+02
   3.363305e+02  -1.042468e+02
   2.323103e+02   9.466301e+01
  -2.580598e+01   3.094587e+02
  -2.580997e+02   3.642916e+02
  -3.176525e+02   2.107632e+02
  -2.559114e+02  -1.574570e+02
  -1.063455e+02  -3.535903e+02
   2.893710e+01  -3.111464e+02
   2.187948e+01  -1.335219e+02
   6.305770e+01  -3.180536e+01
   1.044205e+02  -1.009229e+02
   2.148721e+02  -8.117327e+01
   2.297843e+02   7.586588e+01
   1.341696e+02   2.212793e+02
  -4.792194e+01   1.996202e+02
  -1.955158e+02  -4.237346e+01
  -1.581698e+02  -2.287261e+02
   3.253745e+01  -2.826234e+02
   2.396696e+02  -8.364290e+01
   3.255107e+02   1.286669e+02
   1.536091e+02   2.539810e+02
  -3.869829e+01   2.616518e+02
  -1.514417e+02   1.471659e+02
  -1.256098e+02   6.539616e+01
  -1.378689e+02   6.940002e+01
  -2.532132e+02   8.761540e+01
  -3.884280e+02  -1.116331e+02
  -3.700872e+02  -2.808152e+02
   1.722773e+01  -4.565940e+02
   3.467336e+02  -4.276842e+02
   4.361122e+02  -1.644488e+02
   3.110534e+02   1.041247e+02
   4.437485e+01   2.480704e+02
  -1.007394e+02   2.045903e+02
   1.964837e+01   5.359374e+01
   9.942162e+01  -3.797105e+01
   1.631505e+02   2.486779e+01
   2.686033e+00   1.371905e+02
  -9.446578e+01   1.640404e+02
  -1.275728e+02  -2.568318e+01
   1.658214e+01  -1.341355e+02
   1.661512e+02   9.514269e+00
   1.412171e+02   2.410657e+02
  -3.635166e+01   3.640966e+02
  -2.481674e+02   2.019720e+02
  -3.707919e+02  -5.793858e+01
  -2.870165e+02  -2.610302e+02
  -7.043220e+01  -3.108214e+02
   1.343629e+02  -1.560958e+02
   1.487247e+02  -2.721027e+01
   2.672418e+01   1.068086e+01
  -7.424344e+01  -6.411818e+01
  -6.248190e+00  -1.091851e+02
   1.340353e+02  -8.468072e+01
   1.661948e+02   3.790949e+01
   4.797885e+01   5.964564e+01
  -9.601127e+01   1.235713e+01
  -3.957269e+01  -7.900822e+01
   1.235265e+02  -9.794815e+01
   3.302218e+02   2.861508e+01
   2.904586e+02   1.986896e+02
   4.730638e+01   3.018663e+02
  -1.894317e+02   2.558705e+02
  -3.005794e+02   9.576075e+01
  -1.584156e+02  -4.859523e+01
   2.929382e+00  -1.187291e+02
   9.661881e+01  -1.217500e+01
  -4.564288e+01   9.409578e+01
  -1.648463e+02   6.698550e+01
  -1.877464e+02  -1.116010e+02
  -6.848205e+01  -1.762509e+02
   6.439700e+01  -1.520051e+02
   1.296370e+02  -9.569942e-01
   4.760579e+01   2.699330e+01
  -4.363540e+01  -3.354050e+01
  -1.533976e+01  -1.127743e+02
   1.340679e+02  -1.243405e+02
   2.084579e+02  -3.689004e+01
   1.866944e+02   1.292795e+02
   2.000370e+01   2.327345e+02
  -1.509634e+02   1.341708e+02
  -1.672535e+02  -1.377028e+00
  -7.459089e+01  -8.958409e+01
   3.991711e+01  -1.065512e+02
   7.769378e+01   4.868466e+00
   1.036674e+01   2.440451e+01
  -5.497121e+01  -4.311542e+00
  -1.067244e+01  -3.020270e+01
   7.413997e+01   1.457514e+00
   9.346424e+01   8.895905e+01
   1.534959e+01   1.601430e+02
  -1.387187e+02   1.582899e+02
  -2.485560e+02   1.974835e+01
  -2.152901e+02  -1.693542e+02
  -6.083580e+00  -2.540811e+02
   1.440903e+02  -2.125210e+02
   1.433349e+02  -2.168481e+01
   5.591504e+01   7.465876e+01
   2.536775e+01   2.416150e+01
   9.711190e+00  -1.506623e+01
   7.435988e+01  -7.427664e+00
   8.416049e+01   4.617370e+01
  -3.522983e+01   1.003874e+02
  -1.344095e+02   6.019662e+01
  -7.062900e+01  -5.089718e+01
   4.379040e+01  -1.075180e+02
   1.617451e+02  -8.832646e+01
   2.217167e+02   7.383023e+01
   8.148222e+01   2.105284e+02
  -1.189014e+02   1.975906e+02
  -2.740352e+02   6.873538e+01
  -2.787700e+02  -9.280849e+01
  -7.448718e+01  -1.674531e+02
   3.765917e+01  -1.378610e+02
   1.027851e+02  -7.192773e+01
   6.268830e+01  -7.485104e+01
   2.623947e+01  -8.179786e+01
   7.815734e+01  -8.443883e+01
   1.295653e+02   8.663824e+00
   1.311583e+02   1.092787e+02
   3.863976e+01   1.862972e+02
  -7.219284e+01   1.875027e+02
  -2.019860e+02   1.973106e+01
  -1.340748e+02  -1.172232e+02
  -1.807569e+01  -1.326033e+02
   6.510392e+01  -1.071767e+02
   7.084788e+01  -1.112536e+01
  -1.807698e+01   6.860943e+01
  -4.306106e+01   5.017680e+01
   4.348340e+01   2.279842e+01
   6.835415e+01   1.948911e-01
   4.103990e+01   4.119964e+01
  -6.865678e+01   6.126943e+01
  -1.675911e+02   2.197321e+01
  -1.521090e+02  -5.856900e+01
  -1.682392e+01  -1.275856e+02
   1.221865e+02  -6.676474e+01
   1.781232e+02  -3.233335e+01
   2.311424e+01   4.843633e+01
  -6.171773e+01   5.509018e+01
  -6.810633e+01  -2.463216e+01
  -1.510569e+01  -8.313903e+01
   2.681726e+01  -6.257301e+01
   7.427550e+01  -2.155342e+00
   5.468223e+01   3.697381e+01
   2.547227e+01   4.337223e+01
   4.848536e+01  -3.798897e+01
   7.129610e+01  -1.721297e+01
   4.875703e+01   7.734768e+01
  -9.437292e+00   1.643599e+02
  -1.350729e+02   1.481837e+02
  -1.917467e+02   1.385394e+01
  -1.248451e+02  -7.966188e+01
   1.272066e+01  -1.180808e+02
   5.758585e+01  -1.086456e+02
   9.008189e+01  -9.444711e+00
  -5.638578e+01   3.727444e+01
  -1.358124e+02  -2.417171e+01
  -4.885769e+01  -5.472438e+01
   7.127290e+01  -9.801275e+01
   1.787580e+02  -6.317325e+01
   1.670443e+02   2.014275e+01
   4.754177e+01   6.997016e+01
  -3.962823e+01   8.396764e+01
  -2.769781e+01  -1.293445e+01
   5.787578e+01  -4.501069e+01
   1.048501e+02  -1.261376e+00
   3.596267e+01   1.104068e+02
  -8.054672e+01   1.656625e+02
  -1.398000e+02   1.030527e+02
  -1.618036e+02  -9.630618e+01
  -2.792233e+01  -1.547093e+02
   9.007699e+01  -1.527633e+02
   9.754671e+01  -8.452910e-01
   4.542810e+01   1.000964e+02
  -4.594141e+00   9.925766e+01
  -5.631081e+01   2.181342e+01
  -6.094801e+01  -1.895118e+01
  -5.910178e+00  -2.776638e+01
   2.755853e+01  -8.516725e+00
  -2.860327e+01  -2.021272e+01
  -6.030747e+01  -6.134557e+01
  -3.943062e+01  -1.092429e+02
   5.884539e+01  -2.039918e+01
   1.346879e+02   5.689519e+01
   1.247913e+02   8.406536e+01
   2.409473e+01   7.510678e+01
  -8.554531e+01   5.032875e+00
  -8.031322e+01  -3.011093e+00
  -2.029604e+01  -3.190406e+01
   1.074274e+01  -5.229082e+01
   1.701435e+01  -2.106006e+01
  -2.250657e+01  -1.014914e+01
   1.628157e+01   2.981921e+00
   7.558912e+01  -5.892222e+00
   1.190551e+02   1.789682e+01
   4.034372e+01   9.856573e+01
  -1.056962e+02   1.347871e+02
  -2.025385e+02   7.467375e+01
  -1.762232e+02  -3.813943e+01
  -5.908370e+01  -1.536355e+02
   7.140241e+01  -1.826477e+02
   1.359322e+02  -1.317825e+02
   1.051788e+02   3.252705e+01
   4.967574e+01   2.516211e+01
  -2.699349e+00  -2.840422e+00
   3.527611e+01  -5.947029e+00
   3.269610e+01   3.886578e+01
   5.691217e+01   7.909588e+01
  -4.726387e+01   1.132908e+02
  -1.075514e+02  -1.948405e+00
  -9.821425e+01  -1.152592e+02
  -2.321286e+01  -9.672359e+01
   8.644324e+01  -4.246519e+01
   1.149302e+02   6.420545e+01
   2.178717e+01   8.331232e+01
  -6.146626e+01   8.534384e+01
  -1.036373e+02   2.234839e+01
  -4.247456e+01  -7.164669e+01
   1.591485e+01  -5.714639e+01
   2.440589e+01  -5.159786e+01
  -4.007787e+01   3.415350e+00
  -6.969644e+01   4.256897e+01
  -2.978929e+01  -2.194682e+01
   8.119045e+01  -7.814536e+01
   1.063876e+02  -4.982088e+01
   8.931203e+01   3.043961e+01
  -1.309611e-01   8.109416e+01
  -8.363665e+01   8.003692e+01
  -1.147319e+01  -8.659182e+00
  -4.193165e+01  -4.836147e+01
   3.148831e+01  -4.992053e+01
   1.715910e+01   1.291411e+01
   2.560347e+01   3.939836e+01
  -1.226716e+01   4.760533e+01
  -2.181922e+00  -5.526130e+00
  -6.173286e+01  -2.735236e+01
   9.638642e+00  -1.505184e+01
  -1.312584e+01   1.541699e+01
  -2.103932e+01   7.768147e+00
  -2.454454e+01  -4.651497e+01
   1.306410e+00  -7.147785e+01
   3.282595e+01  -3.184974e+01
   2.946378e+01   6.482851e+01
   4.884053e+00   5.354438e+01
  -6.201534e+01   2.717898e+01
  -3.614472e+01  -5.788652e+01
  -1.331997e+01  -5.739118e+01
   4.970580e+01  -5.439220e+01
   1.071706e+02   1.690504e+01
   7.535288e+01   6.140902e+01
  -9.009073e+00   3.813036e+01
  -6.840349e+01   2.280221e+01
  -2.356885e+01   3.933187e+01
   5.982137e+01   4.833549e+00
   4.520542e+01   2.559265e+01
  -2.049887e+01   8.337562e+00
  -6.145399e+01   3.742345e+01
