
 $NMID
 id='ANONYMOUS ', fmtdat='(2E16.6)'
 volume=1.0
 tramp=1.0
 $END
   3.382534e+03  -1.868068e+02
   2.145783e+03   1.657735e+03
   2.469556e+02   2.373117e+03
  -1.385311e+03   1.313562e+03
  -1.135833e+03   1.437329e+02
  -6.901745e+01  -2.777413e+02
   3.742017e+02  -4.125408e+01
   1.723070e+01   5.480584e+02
  -3.562787e+02   6.726315e+02
  -7.143592e+02   1.961315e+02
  -4.627108e+02  -5.176842e+02
  -6.849757e+01  -7.348265e+02
   3.517537e+02  -3.043239e+02
   3.622926e+02   4.601409e+02
  -6.289585e+01   6.118534e+02
  -4.614530e+02   9.283058e+01
  -3.982329e+02  -5.250947e+02
   9.264223e+01  -6.759937e+02
   4.611172e+02  -2.854578e+02
   4.808365e+02   1.435797e+02
   1.586318e+02   3.506907e+02
  -1.046980e+02   2.390812e+02
  -9.336109e+01   7.487819e+01
   7.542403e+01   6.264809e+01
   2.691925e+02   1.682206e+02
  -7.638860e-01   3.205377e+02
  -4.054560e+02   2.211246e+02
  -6.053035e+02  -3.824515e+01
  -3.424225e+02  -3.344274e+02
   2.393513e+02  -2.709327e+02
   4.703786e+02   3.828238e+01
   2.487491e+02   3.162484e+02
  -1.700186e+02   3.677375e+02
  -4.402760e+02   1.788098e+02
  -3.520271e+02  -1.128622e+02
  -9.113762e+01  -3.311315e+02
   4.211915e+01  -1.862185e+02
   4.990469e+01   7.663636e+01
  -1.506282e+02   1.342402e+02
  -2.329878e+02  -5.824336e+01
  -1.278656e+02  -4.640057e+02
   1.881999e+02  -4.375817e+02
   3.322871e+02  -7.319506e+01
   1.792010e+02   2.713599e+02
  -1.651043e+02   1.448645e+02
  -1.850176e+02  -2.235911e+02
   8.078714e+01  -4.309962e+02
   4.069943e+02  -5.873956e+01
   5.369605e+02   3.370328e+02
   2.101238e+02   4.955653e+02
  -2.499226e+02   2.766151e+02
  -5.216075e+02  -1.145428e+01
  -3.342132e+02  -2.200600e+02
   1.476411e-01  -2.596018e+02
   3.188422e+02  -1.389833e+02
   2.693056e+02   1.707116e+01
   1.103138e+01   5.543371e+01
  -1.037311e+02  -2.741642e+01
   1.043992e+02  -9.643883e+01
   2.814541e+02   3.056646e+01
   1.488456e+02   1.874663e+02
  -1.448313e+02   2.700500e+02
  -3.124228e+02   1.259585e+02
  -2.540279e+02  -6.924206e+01
   2.456916e+01  -3.092935e+02
   2.776702e+02  -3.573899e+02
   3.231091e+02  -1.720326e+02
   2.308511e+02   8.040594e+01
   7.170810e+01   3.291822e+02
   1.443836e+01   3.303568e+02
  -6.091739e+01   1.687913e+02
  -7.307538e+01   9.978796e+01
  -1.059773e+02   1.161821e+02
  -2.046937e+02   8.985997e+01
  -2.151640e+02  -8.878093e+01
  -1.062457e+02  -2.359518e+02
   8.556828e+01  -2.253511e+02
   1.627327e+02   6.707053e+00
   1.594255e+02   2.210998e+02
  -7.421396e+00   2.648538e+02
  -2.507098e+02   1.003879e+02
  -3.145957e+02  -9.200940e+01
  -1.810249e+02  -2.858844e+02
   5.179768e+01  -2.330440e+02
   1.213602e+02  -1.507556e+02
   1.359465e+02  -7.584670e+01
   1.358701e+02  -8.310574e+01
   2.885248e+02  -6.928867e+01
   4.200725e+02   8.750611e+01
   2.887516e+02   2.330204e+02
  -8.601450e+00   3.594227e+02
  -3.383300e+02   3.720441e+02
  -4.376597e+02   1.882694e+02
  -2.726896e+02  -1.017365e+02
  -3.997772e+01  -2.519081e+02
   1.045787e+02  -1.877592e+02
   5.364910e+00  -2.489637e+01
  -9.931649e+01   6.201386e+01
  -1.120327e+02  -3.214391e+01
  -1.893541e+01  -1.194060e+02
   6.501904e+01  -9.037075e+01
   8.288220e+01   4.602613e+01
   4.213298e+00   1.343180e+02
  -1.474526e+02   5.472411e+01
  -1.702792e+02  -2.099536e+02
   2.163943e+01  -3.368076e+02
   2.243899e+02  -2.236063e+02
   3.260664e+02   4.099601e+01
   2.763485e+02   2.359063e+02
   7.542822e+01   2.699168e+02
  -1.013175e+02   1.217388e+02
  -1.437895e+02   2.520365e+01
  -2.931412e+01  -4.994938e+00
   3.195913e+01   5.240511e+01
  -1.224928e+01   9.327943e+01
  -1.187137e+02   8.002465e+01
  -1.171309e+02  -6.802066e+00
  -3.133354e+01  -6.471251e+01
   8.989623e+01  -2.168667e+00
   4.554957e+01   6.336921e+01
  -1.295392e+02   8.455410e+01
  -2.430380e+02  -5.932917e+00
  -2.150824e+02  -1.278409e+02
  -5.848018e+01  -2.573485e+02
   1.686838e+02  -2.205220e+02
   2.400288e+02  -8.766133e+01
   1.363061e+02   2.572640e+01
  -1.868153e+01   5.916301e+01
  -7.819074e+01  -4.912325e+00
   4.767333e+01  -5.497424e+01
   1.787961e+02  -2.409283e+01
   1.522999e+02   9.486895e+01
   2.541708e+01   1.641552e+02
  -7.554095e+01   1.150596e+02
  -8.804578e+01   1.898239e+01
  -3.582722e+01  -5.003496e+01
   8.746195e+00   2.322805e+01
   2.235632e+01   1.037697e+02
  -8.922312e+01   1.099315e+02
  -1.902146e+02   1.624125e+01
  -1.894736e+02  -1.027132e+02
  -2.979969e+01  -1.828281e+02
   1.619759e+02  -1.363074e+02
   1.887503e+02   7.267206e-01
   4.951796e+01   8.559489e+01
  -4.743650e+01   1.098795e+02
  -6.099659e+01   3.510720e+01
   2.100073e+01  -1.502912e+01
   2.653898e+01   2.225795e+00
  -4.003379e+01   3.662619e+01
  -1.098285e+02   1.889538e+01
  -9.854673e+01  -1.176507e+02
  -1.151165e+01  -1.852577e+02
   1.313423e+02  -1.343903e+02
   2.466845e+02  -3.907392e+01
   1.931843e+02   1.428184e+02
   3.492978e+01   2.536048e+02
  -1.022608e+02   1.549623e+02
  -1.380581e+02   3.211347e+01
  -7.318730e+01  -7.277612e+01
  -4.334964e+01  -4.701156e+01
  -5.192880e+01   2.560753e+01
  -7.118499e+01   3.072368e+01
  -4.428953e+01  -6.940418e+01
   1.722979e+01  -1.381470e+02
   1.214760e+02  -7.486477e+01
   1.177190e+02   5.491158e+01
   2.119196e+01   1.141132e+02
  -1.288419e+02   9.539387e+01
  -1.748637e+02  -3.915427e+01
  -8.342480e+01  -1.807294e+02
   6.745658e+01  -2.356132e+02
   2.596874e+02  -9.735365e+01
   2.490581e+02   8.236472e+01
   1.285604e+02   1.765463e+02
  -4.066659e+01   1.541167e+02
  -5.057541e+01   7.113856e+01
  -3.312694e+01   7.969529e+01
  -2.072632e+01   9.119485e+01
  -7.329500e+01   8.599526e+01
  -1.441279e+02  -2.410196e+01
  -1.212631e+02  -1.501756e+02
  -2.851725e+01  -2.472209e+02
   1.223204e+02  -1.190305e+02
   1.678317e+02  -1.087087e+01
   1.105473e+02   1.092789e+02
   1.042318e+01   1.639503e+02
  -5.648172e+01   7.975292e+01
  -8.010831e+01   1.354456e+00
  -2.415585e+01  -6.027429e+01
   5.033298e+00  -4.313639e+01
  -2.810089e+01  -3.783371e+01
  -7.785822e+01  -4.326920e+01
  -6.686497e+01  -7.622497e+01
   5.470778e+01  -7.118059e+01
   1.726807e+02  -1.692554e+01
   1.643276e+02   6.120299e+01
  -2.302099e+01   7.684029e+01
  -1.464581e+02   6.396236e+01
  -1.362568e+02  -3.554944e+01
  -4.314474e+01  -6.493362e+01
   4.715705e+01  -3.328718e+01
   5.064176e+01   3.727239e+01
   1.143544e+01   6.475992e+01
  -3.661809e+01   3.497193e+01
  -8.092977e+01  -7.345967e+00
  -5.062204e+01  -6.819589e+01
  -3.671437e+01  -7.505745e+01
  -7.134990e+01  -1.456610e+01
  -4.483335e+01  -4.052704e+00
  -4.575069e+01  -6.391313e+01
   1.950472e+01  -1.570170e+02
   1.127371e+02  -1.595688e+02
   1.576933e+02  -2.655562e+01
   1.410790e+02   8.227286e+01
  -2.156705e+00   1.341720e+02
  -9.107600e+01   6.992031e+01
  -7.053439e+01   4.569422e+00
   5.732327e+01  -2.457912e+00
   1.251339e+02   2.485576e+01
   8.609953e+01   1.119829e+02
  -8.065658e+01   7.619906e+01
  -1.991610e+02   1.669977e+01
  -1.533483e+02  -5.825097e+01
  -3.659700e+01  -8.298229e+01
   7.563380e+01  -4.671176e+01
   4.317124e+01  -2.034411e+01
  -3.753647e+01   8.422477e+00
  -1.009929e+02  -1.280366e+01
  -1.662177e+01  -1.054690e+02
   6.411621e+01  -1.500697e+02
   1.524854e+02  -7.049219e+01
   1.103532e+02   8.628234e+01
   8.978283e+00   1.717041e+02
  -3.267368e+01   1.265263e+02
  -9.454995e+01   8.856481e+00
  -5.457646e+01  -9.979815e+01
   3.080445e+01  -9.813919e+01
   2.870182e+01  -6.244030e+00
   5.608358e+01   1.872128e+01
   2.937867e+01   1.386995e+00
  -1.900781e+01  -3.858042e+00
   4.404009e+01   4.410111e+01
   6.385340e+01   9.915368e+01
   2.379546e+01   9.265605e+01
  -2.688851e+01   3.953127e+01
  -9.663103e+01  -1.043770e+01
  -1.023401e+02  -3.503745e+01
  -2.130299e+01  -1.827902e+01
   8.642653e+01  -3.213613e+00
   9.305050e+01  -1.794106e+01
   6.508781e+00   2.565620e+01
  -5.456781e+00   2.557472e+01
  -5.059173e+01   5.209390e+00
   4.349687e+01  -1.355385e+01
  -1.257966e+01  -1.830185e+01
  -7.437499e+01  -1.614486e+00
  -8.572552e+01  -2.409983e+01
  -3.725638e+01  -9.423044e+01
   1.149631e+02  -1.233024e+02
   1.994529e+02  -7.520363e+01
   1.541719e+02   5.505066e+01
   2.039804e+01   1.460649e+02
  -6.154092e+01   1.479002e+02
  -1.403619e+02   6.772498e+01
  -5.561699e+01  -2.814455e+01
  -1.485189e+01  -2.881511e+01
   1.503830e-01  -1.448403e+01
  -1.285602e+01  -2.481039e+01
  -4.435956e+01  -1.814266e+01
  -2.839872e+01  -9.837901e+01
   6.148395e+01  -6.484778e+01
   9.555015e+01   4.068159e+00
   9.308074e+01   1.025284e+02
   2.581148e+01   1.151550e+02
  -9.238983e+01   1.957029e+01
  -1.319437e+02  -6.350265e+01
  -2.831673e+01  -1.165730e+02
   9.890848e+01  -7.111412e+01
   7.658650e+01  -1.247038e+01
   5.457041e+01   3.227794e+01
  -1.997877e+01   2.287610e+01
  -2.699436e+01   1.050171e+01
   4.222244e+01   1.150775e+01
   4.369644e+01  -6.809214e+00
   8.677421e+00  -7.121334e+00
  -6.950260e+01   5.468016e+01
  -1.077212e+02   5.650654e+01
  -7.644104e+01  -5.002214e+00
  -4.122877e+00  -1.187816e+02
   4.536931e+01  -8.863024e+01
   3.570924e+01  -1.831986e+01
   6.591519e+00   6.519910e+01
   1.485982e+00   4.044299e+01
  -6.065667e+01  -4.357443e+00
  -4.013510e+01  -8.946482e+01
  -4.841998e+00  -4.250083e+01
   5.736602e+01  -2.616483e+01
   3.328293e+01   4.693868e+01
   9.970351e+00   2.775203e+01
  -4.716256e+01  -2.523292e+01
  -3.774646e+00  -1.617598e+01
  -2.953752e+01   5.293537e+01
   1.979519e+01   4.264029e+01
  -5.593057e+01   2.976294e+01
  -5.016819e+01  -4.047791e+01
  -3.217953e+01  -5.558410e+01
   2.675351e+01  -2.949152e+01
   5.415119e+01   1.869975e+01
   1.799027e+01   5.081290e+01
  -7.140153e+01   3.962311e+01
  -8.817018e+01  -4.879535e+00
  -4.213870e+01  -4.580128e+01
   3.987226e-01  -4.892859e+01
   8.046579e+01  -3.180891e+01
   4.603237e+00   7.743423e+00
  -3.113819e+01  -1.023793e+01
  -1.090323e+01  -6.072828e+00
  -4.689126e+00  -1.016203e+01
   9.888862e+01  -4.152445e+00
