
 $NMID
 id='ANONYMOUS ', fmtdat='(2E16.6)'
 volume=1.0
 tramp=1.0
 $END
  -2.758942e+03   2.996320e+02
  -2.141994e+03  -1.054274e+03
  -3.785695e+02  -1.852053e+03
   9.011654e+02  -1.424609e+03
   9.180393e+02  -3.459493e+02
   1.750793e+02   1.665393e+02
  -3.007538e+02   2.685453e+01
  -1.292640e+02  -4.280716e+02
   3.264664e+02  -5.458607e+02
   5.759216e+02  -2.435518e+02
   5.369913e+02   4.079829e+02
   2.050989e+02   5.930450e+02
  -2.429569e+02   3.140149e+02
  -3.200787e+02  -3.413356e+02
   1.092939e+01  -4.935431e+02
   3.605252e+02  -1.291416e+02
   2.937042e+02   4.573726e+02
  -5.519899e+01   5.614976e+02
  -4.032313e+02   3.083160e+02
  -4.503968e+02  -1.070132e+02
  -1.669604e+02  -2.966398e+02
   7.034821e+01  -2.105629e+02
   4.945318e+01  -6.824757e+01
  -1.495259e+02  -9.136315e+01
  -2.361963e+02  -2.083262e+02
  -4.955496e+01  -2.891021e+02
   3.635033e+02  -1.826326e+02
   5.782081e+02  -1.619224e+01
   2.852037e+02   2.528962e+02
  -2.672121e+02   2.155021e+02
  -4.104207e+02   2.070005e+01
  -2.483040e+02  -2.308855e+02
   1.805239e+02  -3.478965e+02
   3.391696e+02  -1.598083e+02
   2.646441e+02   1.075907e+02
   1.106172e+02   2.190823e+02
   1.611116e+00   1.771890e+02
   1.798662e+01  -3.445476e+01
   1.059114e+02  -1.115784e+02
   1.850686e+02   1.004105e+02
   8.528454e+01   3.890436e+02
  -1.402031e+02   4.629675e+02
  -3.059365e+02   8.367757e+01
  -1.282685e+02  -2.116499e+02
   1.053443e+02  -1.126958e+02
   1.579780e+02   2.195931e+02
  -6.802580e+01   3.707590e+02
  -3.954955e+02   8.899262e+01
  -4.197924e+02  -2.716482e+02
  -1.755415e+02  -4.772665e+02
   2.412270e+02  -2.634469e+02
   4.463371e+02  -1.368410e+00
   3.291119e+02   1.802103e+02
  -5.353099e+00   2.237011e+02
  -2.551560e+02   1.568372e+02
  -2.183193e+02  -1.973272e+01
   6.465454e-01  -5.365290e+01
   7.866288e+01   4.491113e+01
  -9.343596e+01   8.043868e+01
  -1.876461e+02   5.126462e+00
  -1.552351e+02  -1.579630e+02
   1.098920e+02  -2.215014e+02
   2.934558e+02  -1.151595e+02
   2.321623e+02   5.721878e+01
  -2.685717e+01   3.067502e+02
  -2.332581e+02   3.398204e+02
  -3.335138e+02   1.638450e+02
  -2.269710e+02  -1.292748e+02
  -3.913606e+01  -2.985240e+02
  -3.556323e+01  -2.562909e+02
  -5.097224e-01  -1.210668e+02
   1.968693e+01  -1.156278e+02
   1.437615e+02  -1.655209e+02
   2.353544e+02  -8.385531e+01
   2.240639e+02   8.591048e+01
   1.249902e+02   2.058701e+02
  -9.186542e+01   1.948590e+02
  -1.812518e+02  -1.072048e+01
  -1.537449e+02  -2.175980e+02
   1.657193e+01  -2.381167e+02
   2.153226e+02  -6.202761e+01
   2.745976e+02   1.126390e+02
   1.488966e+02   2.474795e+02
   4.835195e+00   2.329593e+02
  -1.056114e+02   1.498324e+02
  -1.061984e+02   1.127861e+02
  -1.177343e+02   1.417603e+02
  -2.823353e+02   1.074695e+02
  -4.032477e+02  -3.479874e+01
  -3.235811e+02  -2.664609e+02
  -9.101318e+00  -4.160135e+02
   3.449364e+02  -3.524315e+02
   3.708209e+02  -1.779124e+02
   2.533236e+02   7.324553e+01
   6.021152e+01   2.220272e+02
  -5.594560e+01   1.808914e+02
  -1.218597e+01   4.098753e-01
   1.050997e+02  -6.851742e+01
   9.274359e+01   1.952685e+01
  -2.570605e+00   1.476982e+02
  -8.463512e+01   8.658029e+01
  -9.952376e+01  -2.625386e+01
   1.399634e+01  -1.106817e+02
   1.314238e+02  -3.178075e+01
   1.674505e+02   1.821278e+02
  -2.185161e+01   3.457814e+02
  -1.993897e+02   2.144641e+02
  -3.265392e+02  -5.826684e+01
  -2.999826e+02  -2.108745e+02
  -6.733270e+01  -2.359989e+02
   1.001254e+02  -1.138708e+02
   1.304118e+02   4.628292e+00
   4.688286e+01   4.000902e-02
  -2.925008e+01  -3.603145e+01
  -4.280475e+00  -7.598555e+01
   9.578786e+01  -7.455884e+01
   1.234383e+02   1.952667e+01
   3.827423e+01   5.132502e+01
  -8.408823e+01  -2.212941e+01
  -4.279898e+01  -8.281428e+01
   1.332553e+02  -8.629571e+01
   2.894949e+02  -1.893846e+01
   2.297799e+02   9.478633e+01
   4.874103e+01   2.585041e+02
  -1.728821e+02   2.179124e+02
  -2.147314e+02   8.165188e+01
  -1.364488e+02  -3.338975e+01
   4.308353e+01  -7.928586e+01
   6.035073e+01   1.630821e+01
  -5.670341e+01   7.390844e+01
  -1.542266e+02   9.824706e+00
  -1.603202e+02  -9.327463e+01
  -3.605900e+01  -1.405873e+02
   5.752067e+01  -1.068798e+02
   8.301894e+01  -3.176978e+01
   3.529609e+01   2.619639e+01
  -1.367864e+01  -3.485778e+00
  -4.035608e+01  -1.027919e+02
   7.519626e+01  -7.933302e+01
   1.980122e+02   3.223389e+00
   1.749544e+02   9.761875e+01
  -1.136911e+00   1.977045e+02
  -1.617746e+02   1.107142e+02
  -1.337692e+02   1.639689e+01
  -5.875737e+01  -8.990990e+01
   6.152110e+01  -8.062178e+01
   4.171907e+01  -2.876177e+01
  -1.068332e+01   2.532930e+01
  -3.774789e+01  -8.616115e+00
   4.049731e+01  -8.609295e+00
   7.590818e+01  -2.149531e-01
   8.700166e+01   5.339268e+01
   1.983706e+01   1.633446e+02
  -1.338808e+02   1.433981e+02
  -2.216819e+02   3.078658e+01
  -1.467485e+02  -1.495450e+02
  -1.001972e+01  -2.301721e+02
   8.651660e+01  -1.367151e+02
   9.839616e+01  -2.165878e+01
   6.381450e+01   2.548699e+01
   6.022959e+01   1.441294e+01
   5.694615e+01  -1.070570e+01
   6.458218e+01  -4.098651e+01
   5.579882e+01   6.498438e+01
  -7.528177e+00   9.538998e+01
  -1.155280e+02   6.391216e+01
  -7.958976e+01  -3.984907e+01
  -9.269331e+00  -1.280606e+02
   1.268141e+02  -8.648939e+01
   1.995206e+02   5.835291e+01
   1.057779e+02   2.033031e+02
  -7.263056e+01   2.344568e+02
  -2.338132e+02   1.161748e+02
  -2.317962e+02  -5.039370e+01
  -1.119712e+02  -1.495168e+02
   3.763878e+01  -1.363119e+02
   6.523640e+01  -5.395693e+01
   2.926523e+01  -4.958638e+01
   4.079999e+01  -6.549004e+01
   9.008012e+01  -1.139822e+02
   1.188213e+02  -2.160666e+01
   1.102983e+02   1.178973e+02
   1.869846e+01   2.168510e+02
  -8.936767e+01   1.431820e+02
  -1.208275e+02  -9.745016e+00
  -7.704618e+01  -1.173864e+02
  -6.624829e+00  -1.291840e+02
   7.321595e+01  -3.760828e+01
   5.494714e+01   4.941492e+01
  -1.601169e+01   3.402680e+01
  -1.815558e+01   1.407398e+01
   4.178419e+01   2.562839e+00
   8.151558e+01   7.823575e+00
   6.595954e+01   6.610844e+01
  -5.094991e+01   5.237437e+01
  -1.620920e+02  -1.629834e+01
  -1.276521e+02  -4.137119e+01
   7.087928e+00  -7.709292e+01
   1.110118e+02  -7.123917e+01
   1.116024e+02   2.490925e+01
   3.229664e+01   7.111082e+01
  -6.348626e+01   3.508588e+01
  -5.458732e+01  -3.959097e+01
  -2.085034e+01  -7.754596e+01
   2.964544e+01  -6.365013e+01
   6.248880e+01   4.226482e-01
   3.899539e+01   3.123473e+01
   2.152756e+01   2.943354e+01
   8.030163e+01  -5.053248e+00
   5.836471e+01  -2.369671e+01
   5.087761e+01   6.915014e+01
  -3.486538e+01   1.273251e+02
  -1.137693e+02   1.221004e+02
  -1.809403e+02   4.163381e+01
  -1.186032e+02  -1.022532e+02
   8.622679e+00  -1.489073e+02
   1.007424e+02  -7.352772e+01
   6.456012e+01   1.018702e+01
  -7.683038e+01   3.143193e+01
  -1.246432e+02  -2.308852e+01
  -1.161108e+02  -1.065162e+02
   9.521670e+01  -8.388607e+01
   1.831583e+02  -1.195246e+01
   1.419555e+02   3.299094e+01
   3.534370e+01   7.327225e+01
  -4.686666e+01   4.509981e+01
  -2.333476e+01  -4.503159e+00
   3.038437e+01  -3.539739e+01
   1.024386e+02   3.325540e+01
   3.865205e+01   8.854434e+01
  -6.752573e+01   1.486139e+02
  -1.489406e+02   5.557136e+01
  -1.217495e+02  -6.116487e+01
  -4.549659e+01  -1.586034e+02
   6.555182e+01  -1.497646e+02
   7.753986e+01   4.541267e+01
   6.272830e+01   1.154890e+02
  -2.108847e+01   1.017259e+02
  -3.987245e+01   8.653751e+00
  -6.394022e+01  -4.635580e+01
  -2.666556e+01  -1.005983e+01
   9.811007e+00  -5.328732e+00
   1.758255e+00  -3.168000e+01
  -4.765323e+01  -1.055650e+02
  -2.937788e+01  -7.614703e+01
   6.561837e+01  -7.429939e+01
   1.217455e+02   2.536850e+00
   1.016749e+02   3.349827e+01
  -7.645855e+00   2.829358e+01
  -5.982750e+01   2.230708e+01
  -7.576492e+01   2.561360e+01
  -2.124966e+01  -4.372088e+00
   7.366774e+00  -3.788872e+01
   4.475273e+01  -1.038484e+01
  -1.295456e+01  -2.508929e+01
  -6.156231e+00   2.618316e+01
   7.639903e+01  -1.680736e+01
   6.777417e+01   1.251228e+01
   2.730831e+01   7.143711e+01
  -8.966306e+01   1.285505e+02
  -1.591475e+02   4.818041e+01
  -1.285770e+02  -2.944448e+01
  -3.121942e+00  -1.358561e+02
   6.315110e+01  -1.524269e+02
   1.055519e+02  -7.354311e+01
   6.366435e+01   2.668048e+01
   4.278242e+01   3.688264e+01
   1.625942e-01  -1.030577e+01
   2.333077e+01   1.535411e+01
   3.495956e+01   5.816924e+01
   2.677007e+01   9.939232e+01
  -2.331275e+01   7.048231e+01
  -8.602225e+01  -3.204110e+01
  -7.019205e+01  -1.119529e+02
   2.130412e+00  -1.020396e+02
   9.022876e+01  -2.379878e+01
   1.060188e+02   4.619807e+01
   3.519082e+01   1.007231e+02
  -6.658563e+01   5.621485e+01
  -9.690440e+01  -1.595192e+00
  -5.966742e+01  -5.758202e+01
   2.273738e+01  -6.740683e+01
   1.442962e+01  -3.529660e+01
  -3.022862e+01  -2.072021e+01
  -4.269831e+01   1.988909e+01
  -7.365937e+00   6.248916e+00
   5.865958e+01  -3.695306e+01
   1.055092e+02  -3.002098e+01
   4.956801e+01   4.159603e+01
   1.387025e+01   7.980989e+01
  -5.850404e+01   8.180160e+01
  -5.608931e+01   1.640689e+01
  -1.203789e+00  -4.180084e+01
   4.338811e+01  -3.802504e+01
   3.650877e+01   1.522377e+00
   1.501447e+01   5.328558e+01
  -4.128026e+00   2.229187e+01
  -7.391109e+01  -1.277190e+01
  -5.674574e+01  -1.564664e+01
   1.295015e+01  -2.828263e+01
   4.027018e+01  -4.067761e+00
   1.877268e+01  -2.454777e+00
   6.126878e+00  -3.165539e+01
   2.765185e+00  -2.385480e+01
   2.806186e+01  -2.051097e+01
   1.909899e+01   3.798622e+01
   1.271376e+01   4.097631e+01
  -5.207574e+01   2.122532e+01
  -5.772862e+01  -4.335891e+00
  -3.274196e+01  -3.162025e+01
   5.803476e+01  -4.239096e+01
   6.929564e+01   1.218832e+01
   2.674473e+01   5.843954e+01
  -3.625273e+01   1.444335e+01
  -4.928021e+01   5.098233e+01
  -3.314465e+01   1.608252e+01
   2.690942e+01  -1.497345e+01
   2.992009e+01   1.518973e+01
  -2.039296e+00   1.993613e+01
  -5.739071e+01   1.432648e+01
