
 $NMID
 id='ANONYMOUS ', fmtdat='(2E16.6)'
 volume=1.0
 tramp=1.0
 $END
  -2.443756e+03  -3.456286e+01
  -1.653605e+03  -1.489130e+03
   2.052275e+02  -1.736807e+03
   1.080325e+03  -8.687607e+02
   6.363271e+02  -1.165703e+02
   6.965297e+01   2.909599e+01
  -1.895078e+02  -1.112573e+02
  -1.166236e+02  -4.025059e+02
   2.539507e+02  -5.468452e+02
   5.323398e+02  -1.594052e+02
   4.695677e+02   3.661348e+02
   7.613438e+01   5.849877e+02
  -2.288333e+02   2.131399e+02
  -2.407972e+02  -3.234373e+02
   4.042760e+01  -5.071763e+02
   3.130532e+02  -1.269715e+02
   2.448082e+02   3.526993e+02
  -3.635945e+01   5.399039e+02
  -3.573608e+02   2.662181e+02
  -3.905018e+02  -1.024413e+02
  -1.406276e+02  -3.128677e+02
   6.865235e+01  -2.405185e+02
   9.723198e+01  -1.063772e+02
  -1.322369e+02  -7.028509e+01
  -2.417588e+02  -2.455025e+02
  -1.915907e+01  -3.106538e+02
   3.796460e+02  -1.696441e+02
   5.523062e+02   1.574832e+02
   2.126534e+02   3.430253e+02
  -2.707442e+02   2.003820e+02
  -3.762135e+02  -1.005301e+02
  -1.455616e+02  -2.714387e+02
   1.958485e+02  -2.947001e+02
   3.616180e+02  -6.412028e+01
   2.903529e+02   1.258157e+02
   7.428482e+01   2.672320e+02
  -4.999544e+01   1.303043e+02
   1.299120e+01  -6.214344e+01
   1.649019e+02  -1.653875e+02
   1.851819e+02   1.048174e+02
   6.113356e+01   4.773983e+02
  -2.338899e+02   3.789804e+02
  -2.694485e+02  -2.640399e+00
  -1.303163e+01  -2.533349e+02
   1.291780e+02  -1.426572e+02
   1.647062e+02   2.437285e+02
  -9.499187e+01   2.895922e+02
  -3.613104e+02   5.582032e+01
  -3.422570e+02  -2.818839e+02
  -1.712710e+02  -3.740863e+02
   2.296422e+02  -2.305108e+02
   4.510680e+02   2.430846e+01
   3.301531e+02   1.835556e+02
  -1.491085e+01   1.771983e+02
  -2.531603e+02   1.090415e+02
  -2.017764e+02  -1.688187e+01
  -1.761401e+01  -5.590208e+01
   5.584215e+01  -3.605333e+00
  -6.162044e+01  -2.590650e-01
  -1.795095e+02  -4.396422e+01
  -1.075123e+02  -1.140692e+02
   1.209543e+02  -1.613394e+02
   2.766752e+02  -1.206712e+02
   2.339593e+02   6.062520e+01
   1.022527e+01   2.724956e+02
  -2.488705e+02   3.260748e+02
  -3.486186e+02   1.533351e+02
  -2.544894e+02  -1.480809e+02
  -4.474912e+01  -2.985120e+02
   2.048021e+01  -3.162682e+02
   4.104771e+01  -1.370167e+02
   1.580877e+01  -4.841070e+01
   1.024985e+02  -9.101474e+01
   2.094681e+02  -1.781207e+00
   2.108245e+02   9.123103e+01
   9.015748e+01   2.526473e+02
  -1.011222e+02   1.525534e+02
  -1.778002e+02  -2.991211e+01
  -1.175891e+02  -2.087955e+02
   6.702148e+01  -2.285807e+02
   2.184142e+02  -8.100134e+01
   2.627570e+02   1.947838e+02
   1.694228e+02   2.751066e+02
  -5.018963e+01   2.467501e+02
  -8.561500e+01   1.043047e+02
  -1.282239e+02   7.816082e+01
  -1.225434e+02   4.766125e+01
  -2.120630e+02   4.362886e+01
  -2.671365e+02  -1.863193e+01
  -3.057996e+02  -1.980014e+02
  -3.770880e+01  -3.950429e+02
   3.185078e+02  -3.991690e+02
   4.270464e+02  -1.821588e+02
   2.739172e+02   9.286505e+01
   3.261463e+01   2.189976e+02
  -5.579753e+01   1.871351e+02
  -1.126340e+01   2.971240e+01
   1.035988e+02  -2.741862e+01
   1.253536e+02   7.157464e+00
   1.067183e+01   1.024620e+02
  -4.014473e+01   1.272350e+02
  -1.092151e+02  -1.606925e-01
  -1.470644e+01  -1.103332e+02
   1.525035e+02  -4.099156e+01
   1.053321e+02   2.030976e+02
   1.627161e+01   2.477963e+02
  -1.934882e+02   1.693591e+02
  -2.958593e+02  -3.426291e+01
  -2.803790e+02  -2.467270e+02
  -5.174449e+01  -2.470313e+02
   1.136256e+02  -1.766355e+02
   1.200239e+02  -4.625227e-01
   2.514380e+01   4.298931e+01
  -2.123254e+01  -6.210117e+01
   6.229177e+00  -9.271017e+01
   7.127683e+01  -5.467214e+01
   1.208253e+02   1.748512e+01
   2.876742e+01   2.922413e+01
  -5.394867e+01  -4.152335e+00
  -2.613268e+01  -6.405011e+01
   1.192824e+02  -5.000106e+01
   2.722918e+02   1.741323e+01
   2.279298e+02   1.621364e+02
   5.437203e+01   2.168695e+02
  -1.729459e+02   2.213334e+02
  -2.048423e+02   8.777036e+01
  -1.356137e+02  -2.927498e+01
   5.028277e+00  -7.642429e+01
   1.468467e+01   1.256426e+01
  -4.587680e+01   6.728093e+01
  -1.423706e+02   1.018845e+01
  -1.714996e+02  -7.885379e+01
  -6.939679e+01  -1.418347e+02
   8.486212e+01  -1.225052e+02
   1.102460e+02  -1.154572e+01
   4.325026e+01   3.753227e+01
  -4.027326e+01  -2.133289e+01
  -3.023618e+01  -8.277511e+01
   6.934838e+01  -5.562780e+01
   1.404463e+02   4.533116e+00
   1.738090e+02   8.171182e+01
   4.317214e+01   1.631200e+02
  -1.339695e+02   1.265844e+02
  -1.428997e+02   1.775607e+01
  -4.363651e+01  -9.332780e+01
   2.867352e+01  -6.751574e+01
   8.847348e+01  -1.277837e+01
   1.283065e+01   4.116283e+01
  -5.178336e+01   1.859047e+01
  -1.518580e+01  -4.595526e+01
   5.336454e+01  -1.965050e+01
   9.836778e+01   5.443995e+01
   2.515176e+01   1.473701e+02
  -1.249205e+02   1.877017e+02
  -2.021199e+02   1.320920e+01
  -1.686854e+02  -1.433540e+02
  -3.181976e+01  -2.153703e+02
   1.152703e+02  -1.242238e+02
   1.100869e+02  -3.636033e+01
   8.065530e+01   4.017781e+01
   1.275187e+01   2.501113e+01
   4.581735e+01   6.974421e+00
   6.534980e+01  -2.262025e+01
   6.949485e+01   5.551281e+01
  -4.295151e+01   1.070310e+02
  -1.073994e+02   9.176965e+01
  -7.540472e+01  -3.307475e+01
   4.266663e+00  -1.188568e+02
   1.033695e+02  -7.743333e+01
   1.879868e+02   3.562797e+01
   7.351399e+01   1.633327e+02
  -1.132685e+02   1.784325e+02
  -2.198765e+02   5.838070e+01
  -2.052815e+02  -7.788552e+01
  -9.708752e+01  -1.293995e+02
   4.671839e+01  -1.278054e+02
   8.022107e+01  -4.108325e+01
   4.572172e+01  -4.150094e+01
   4.320653e+01  -9.410930e+01
   4.997975e+01  -8.214471e+01
   1.222264e+02   8.897320e+00
   1.515361e+02   1.347105e+02
   1.066870e+01   2.264333e+02
  -9.652404e+01   1.613242e+02
  -1.467862e+02   6.397862e+01
  -1.396405e+02  -9.984159e+01
   1.020503e+01  -1.555348e+02
   6.505415e+01  -9.088918e+01
   7.509013e+01   3.342242e+00
  -2.321477e+00   2.483846e+01
  -2.358605e+01   2.737083e+01
   1.915179e+01   4.636042e+00
   6.077161e+01   1.676823e+01
   5.394362e+01   4.490475e+01
  -5.441175e+01   4.672130e+01
  -1.584402e+02   1.985481e+01
  -1.556352e+02  -4.851301e+01
   1.337145e+01  -5.710436e+01
   9.487108e+01  -6.954841e+01
   1.520786e+02  -1.959767e+01
   4.189801e+01   4.839830e+01
  -3.034377e+01   7.672255e+01
  -8.440752e+01   6.120729e+00
  -1.332900e+01  -6.453337e+01
   2.506791e+01  -6.260950e+01
   4.902572e+01  -1.971598e+01
   6.860710e+01   4.137597e+01
   4.489666e+01   3.378379e+01
   4.626815e+01   7.955299e+00
   4.105637e+01  -3.022220e+00
   4.633841e+01   5.323906e+01
  -2.768115e+01   1.128574e+02
  -1.066972e+02   1.357244e+02
  -1.695530e+02   2.065338e+01
  -1.338176e+02  -5.033132e+01
  -2.193481e+01  -1.157885e+02
   4.997580e+01  -6.095101e+01
   5.529012e+01  -5.938383e+00
  -5.976696e+01   1.614174e+01
  -1.126376e+02  -3.654975e+01
  -7.842231e+01  -6.002385e+01
   3.316833e+01  -9.615472e+01
   1.559985e+02  -5.106799e+01
   1.298086e+02   3.018461e+01
   2.509312e+01   8.339282e+01
  -4.329027e+01   7.561290e+01
  -3.613052e+01  -2.370091e+01
   1.804932e+01  -2.596958e+01
   1.019468e+02   1.589005e+01
   3.514328e+01   8.483275e+01
  -8.888919e+01   1.408989e+02
  -1.174326e+02   4.488369e+01
  -1.308448e+02  -8.121765e+01
  -2.546511e+01  -1.266337e+02
   8.210934e+01  -1.362295e+02
   1.194865e+02   9.711219e+00
   3.665023e+01   9.082570e+01
   5.152349e+00   9.208232e+01
  -8.344345e+01   2.366397e+01
  -3.154957e+01  -1.429785e+01
   2.178649e+00  -3.283082e+01
   1.225638e+01  -9.714440e-02
  -1.110488e+01  -2.739928e+01
  -4.490917e+01  -4.505910e+01
  -3.174947e+01  -8.557062e+01
   2.714914e+01  -4.187911e+01
   1.073247e+02   2.883488e+01
   1.235766e+02   5.277719e+01
   2.986263e+01   4.708275e+01
  -9.505565e+01   2.707087e+01
  -4.758864e+01   1.607896e+01
  -1.787068e+01  -1.685888e+01
   8.269627e+00  -1.235269e+01
   5.919836e+00  -3.976185e+00
  -4.281582e+00   1.710343e+01
  -7.782729e+00  -4.543685e+00
   5.541881e+01   3.325322e+00
   8.693464e+01   2.524336e+01
   2.285600e+00   9.475129e+01
  -9.638743e+01   1.046059e+02
  -1.671979e+02   6.622204e+01
  -1.191546e+02  -1.761485e+01
  -3.028906e+01  -1.200244e+02
   6.871186e+01  -1.566614e+02
   1.294912e+02  -7.882884e+01
   8.018727e+01   1.026231e+01
  -6.551895e-01   3.243908e+01
   2.636567e+01   2.368319e+01
   1.798488e+01   1.047306e+01
   4.092576e+01   5.225460e+01
   3.636954e+01   7.365553e+01
  -7.715100e-01   6.967093e+01
  -8.757736e+01  -3.413494e+01
  -7.880602e+01  -7.478432e+01
  -1.669877e+01  -1.029300e+02
   7.234353e+01  -1.984157e+01
   1.053639e+02   5.891230e+01
   4.368896e+01   8.309932e+01
  -5.413080e+01   6.671268e+01
  -9.234791e+01  -9.450115e+00
  -4.451941e+01  -6.752603e+01
   8.927580e+00  -3.159217e+01
  -7.859252e+00  -4.188818e+01
  -4.364452e+01  -3.641072e+00
  -3.469822e+01   1.364811e+01
  -1.150866e+01  -3.088286e+01
   8.742334e+01  -6.693153e+01
   8.042525e+01  -5.094082e+01
   8.989035e+01   3.701326e+00
  -1.043962e+01   7.786183e+01
  -5.248002e+01   8.994946e+01
  -2.423524e+01   4.400810e+01
  -1.235080e+01  -5.162497e+01
   4.079722e+01  -3.577976e+01
   3.995209e+01   3.576543e+00
   1.883276e+01   4.638644e+01
   1.492169e+01   2.469231e+01
  -4.340714e+01  -2.182460e+01
  -1.706933e+01  -7.175035e+00
  -2.368723e+01  -9.658575e+00
   9.437099e+00   1.255501e+01
   8.128358e+00   1.882030e+00
   1.055578e+01  -4.119284e+01
   9.105666e+00  -5.546438e+01
   6.418382e+00  -9.670846e+00
   5.460015e+01   2.791119e+01
   7.348207e-01   3.203949e+01
  -2.662146e+01   2.513282e+01
  -6.572918e+01  -1.450283e+01
   1.966028e+01  -5.764899e+01
   4.308304e+01  -3.172892e+01
   7.800133e+01   2.853342e+01
   4.505380e+01   8.454505e+00
  -4.060192e+00   5.823304e+01
  -3.602439e+00   1.829027e+01
  -2.055709e+01   1.598073e+01
   2.711401e+01   4.179087e+00
   4.208925e+01   1.277680e+01
  -5.403515e+00   2.398914e+01
  -7.195648e+01   3.021282e+01
