
 $NMID
 id='ANONYMOUS ', fmtdat='(2E16.6)'
 volume=1.0
 tramp=1.0
 $END
  -2.601606e+03   4.325278e+01
  -1.713741e+03  -1.862129e+03
   3.473970e+02  -1.927315e+03
   1.542053e+03  -8.930652e+02
   8.696190e+02   3.926394e+02
  -3.232765e+02   5.596921e+02
  -6.322218e+02  -7.259202e+01
  -1.510779e+02  -7.360588e+02
   4.995775e+02  -6.720307e+02
   7.257278e+02  -4.460553e+01
   4.086208e+02   5.607180e+02
  -1.351896e+02   6.876237e+02
  -4.521572e+02   1.795976e+02
  -3.596111e+02  -4.697682e+02
   1.659129e+02  -5.929889e+02
   4.793874e+02  -7.259910e+01
   2.543249e+02   5.632116e+02
  -2.517693e+02   5.574478e+02
  -5.245053e+02   1.279775e+02
  -3.572720e+02  -2.432148e+02
  -1.798486e+01  -3.551640e+02
   2.291300e+02  -2.058924e+02
   2.023572e+02  -1.904763e+01
  -7.695338e+01   6.648471e+01
  -2.430001e+02  -7.688244e+01
  -1.453436e+02  -3.109372e+02
   3.123325e+02  -2.472283e+02
   5.740853e+02   9.437302e+01
   3.210653e+02   3.398762e+02
  -1.859662e+02   3.458895e+02
  -5.156357e+02  -4.970074e+01
  -2.988118e+02  -3.238892e+02
   1.508432e+02  -3.862849e+02
   4.055749e+02  -1.673594e+02
   3.469708e+02   1.478601e+02
   7.850980e+01   3.765373e+02
  -1.416272e+02   2.405046e+02
  -1.057687e+02  -1.083087e+02
   3.756909e+01  -3.356691e+02
   2.617212e+02  -1.239049e+01
   1.876859e+02   4.587787e+02
  -1.618654e+02   5.474401e+02
  -4.132974e+02   1.182647e+02
  -2.413645e+02  -3.441547e+02
   1.165645e+02  -2.773570e+02
   2.933719e+02   2.221486e+02
   1.753322e+01   3.732092e+02
  -3.485443e+02   1.167052e+02
  -4.674382e+02  -3.064509e+02
  -1.633300e+02  -4.281291e+02
   2.400903e+02  -3.078754e+02
   4.757872e+02  -6.674287e+00
   3.098252e+02   3.045242e+02
  -3.668550e+01   3.364825e+02
  -3.182434e+02   7.229178e+01
  -2.510762e+02  -1.098915e+02
   1.994361e+01  -1.078791e+02
   1.291701e+02   7.339146e+01
  -7.594076e+01   1.465540e+02
  -2.228196e+02  -1.383619e+01
  -1.497207e+02  -1.600045e+02
   1.142536e+02  -2.233439e+02
   2.510099e+02  -7.850213e+01
   2.145142e+02   6.807534e+01
   2.320690e+01   2.400685e+02
  -1.775849e+02   2.561574e+02
  -2.802826e+02   1.373473e+02
  -2.494952e+02  -1.098381e+02
  -5.652556e+01  -2.874328e+02
   7.577801e+01  -2.702307e+02
   8.636217e+01  -7.665216e+01
   1.543866e+01  -1.074296e+01
   2.507544e+01  -6.082381e+01
   1.263436e+02  -8.921340e+01
   1.797044e+02   6.407959e+01
   1.226180e+02   1.911044e+02
  -4.140193e+01   1.828311e+02
  -1.494372e+02   7.462520e+00
  -1.641858e+02  -1.726378e+02
  -2.280675e+01  -2.158371e+02
   1.796805e+02  -6.271371e+01
   2.706172e+02   1.370069e+02
   1.323806e+02   2.727967e+02
  -5.158627e+01   2.422501e+02
  -2.014689e+02   1.048043e+02
  -1.211869e+02  -1.840542e+01
  -6.092925e+01   1.730672e+01
  -1.622021e+02   6.033835e+01
  -2.877142e+02  -3.256441e+01
  -2.487579e+02  -2.187786e+02
  -2.218217e+01  -3.705508e+02
   1.940449e+02  -3.161581e+02
   3.691355e+02  -1.740904e+02
   2.694536e+02   4.141698e+01
   4.149846e+01   2.343995e+02
  -6.628103e+01   1.753698e+02
  -7.913607e+01   1.909454e+01
   5.661028e+01  -8.456808e+01
   1.079453e+02  -2.192514e+00
   5.263072e+01   1.209515e+02
  -9.994152e+01   1.438463e+02
  -1.483047e+02  -3.320133e+01
   2.251840e+01  -1.388895e+02
   1.496575e+02  -5.304172e+01
   1.261485e+02   2.084951e+02
   2.844673e+01   2.754777e+02
  -1.912210e+02   1.528886e+02
  -2.777106e+02  -4.598729e+01
  -2.034385e+02  -1.733251e+02
  -3.997544e+01  -2.355223e+02
   8.349676e+01  -1.280874e+02
   1.625278e+02   8.730917e+00
   3.169580e+01   1.706829e+01
  -6.210348e+01  -2.472257e+01
  -1.496777e+01  -8.762019e+01
   8.077558e+01  -7.638425e+01
   1.210099e+02   2.783899e+01
   4.687804e+01   6.877283e+01
  -7.393465e+01   3.500191e+01
  -6.723887e+01  -2.579871e+01
   8.147335e+01  -8.445771e+01
   2.146730e+02  -1.705556e+01
   1.895366e+02   1.076005e+02
   5.591238e+01   1.730127e+02
  -1.202085e+02   2.341919e+02
  -2.305281e+02   5.670748e+01
  -1.235146e+02  -5.554900e+01
   1.072977e+01  -7.315992e+01
   6.609042e+01  -7.592346e+00
  -1.430052e+01   8.237592e+01
  -1.481134e+02   5.002529e+01
  -1.613953e+02  -7.709238e+01
  -5.473696e+01  -1.980484e+02
   6.582198e+01  -1.276598e+02
   1.225136e+02  -1.686250e+01
   3.605281e+01   4.993618e+01
  -8.373610e+00   7.511736e+00
  -1.833784e+01  -5.504869e+01
   5.707229e+01  -9.561024e+01
   1.378426e+02  -4.414195e+01
   1.223593e+02   9.656705e+01
   3.104674e+01   1.396598e+02
  -1.181247e+02   1.343697e+02
  -1.511356e+02   1.067383e+01
  -5.859253e+01  -9.523706e+01
   6.741954e+01  -8.110346e+01
   7.300974e+01   1.647694e+01
   3.216816e+01  -2.480043e+00
  -1.166666e+01   2.790969e+01
  -8.432903e+00   7.139696e+00
   3.702650e+01  -3.175476e+00
   8.443126e+01   6.358961e+01
   1.772273e+01   8.809616e+01
  -9.428277e+01   9.895364e+01
  -1.379985e+02   1.613925e+01
  -1.212652e+02  -9.678721e+01
  -3.376101e+01  -1.726820e+02
   7.806982e+01  -1.614781e+02
   9.795065e+01  -2.643780e+01
   5.647399e+01   4.467900e+01
   2.400513e+01   2.344787e+01
   2.403203e+01  -4.908042e+01
   3.135534e+01   8.567172e+00
   5.776905e+01   3.488947e+01
  -7.465444e+00   7.527961e+01
  -6.663641e+01   4.550798e+01
  -5.670829e+01  -3.137786e+00
  -2.610002e+01  -9.022172e+01
   1.059897e+02  -5.640013e+01
   1.758460e+02   3.519036e+00
   6.373403e+01   1.771847e+02
  -8.870059e+01   1.819037e+02
  -1.911954e+02   6.702663e+01
  -1.955033e+02  -6.175642e+01
  -8.084773e+01  -1.203395e+02
   3.123460e+01  -1.104995e+02
   5.457259e+01  -5.315909e+01
   4.282118e+01  -3.643899e+01
   6.964452e+01  -8.092270e+01
   6.745089e+01  -5.442567e+01
   1.034193e+02  -2.974223e+01
   1.093109e+02   1.013501e+02
   4.576072e+01   1.639894e+02
  -6.178188e+01   1.570307e+02
  -1.173535e+02  -1.049037e+01
  -1.143123e+02  -9.124502e+01
  -3.007662e+01  -1.251834e+02
   5.794564e+01  -4.979683e+01
   4.675076e+01  -5.622666e+00
   3.574695e+00   3.174838e+01
  -4.086895e+00   4.548615e+01
   1.000938e+01  -6.183140e+00
   6.806985e+01  -3.047533e-01
   1.777049e+01   1.724606e+01
  -4.140993e+01   3.315038e+01
  -1.259261e+02  -1.355732e+01
  -9.978290e+01  -4.398625e+01
  -2.688340e+01  -7.298051e+01
   8.441753e+01  -5.240488e+01
   1.173977e+02  -2.696706e+01
   5.640977e+01   3.029151e+01
  -4.390025e+01   3.596134e+01
  -5.760967e+01  -4.515774e+00
  -5.002768e+01  -2.387581e+01
   5.965010e+01  -4.068134e+01
   6.713301e+01   2.140449e+00
   3.980369e+01   2.944971e+01
   9.506326e+00   4.513875e+01
   6.053726e+01   3.124817e+01
   1.990364e+01   1.175941e+01
   9.717236e+00   5.284513e+01
  -4.152209e+01   7.832198e+01
  -6.853599e+01   7.674465e+01
  -1.099710e+02   4.437691e+01
  -8.907548e+01  -7.829811e+01
  -1.783992e+00  -8.488447e+01
   7.082356e+01  -3.962986e+01
   6.125664e+01   1.987627e+01
  -3.148601e+01   2.595676e+01
  -1.172992e+02  -2.969813e+01
  -6.068246e+01  -7.884232e+01
   4.570441e+01  -8.456776e+01
   1.413756e+02  -3.812909e+01
   1.316546e+02   4.891135e+00
   3.821457e+01   6.527301e+01
  -5.661954e+01   6.444696e+01
  -3.562022e+01   6.253549e+00
   2.706671e+01  -1.536449e+01
   4.082924e+01   2.814874e+00
   2.409293e+01   7.181847e+01
  -5.284044e+01   9.591552e+01
  -1.194918e+02   5.775402e+01
  -8.224749e+01  -5.069668e+01
   1.985149e+01  -1.813325e+02
   7.664665e+01  -1.232483e+02
   8.080596e+01   1.169939e+01
   3.894829e+01   8.694051e+01
   4.950587e+00   6.927470e+01
  -4.910549e+01  -6.664920e+00
  -2.732382e+01  -1.134518e+01
  -3.230315e+00  -1.917416e+01
  -1.660141e+01   4.539940e+01
  -2.714004e+01   2.049582e+00
  -2.314234e+01  -5.818833e+01
  -4.109758e+01  -8.828805e+01
   5.083573e+01  -9.223631e+00
   1.319790e+02  -2.617560e-01
   1.299818e+02   7.012594e+01
   3.452192e+01   5.384011e+01
  -7.421799e+01   3.577757e+01
  -7.695380e+01  -1.523008e+01
   2.010503e+01  -5.758490e+01
   4.848586e+01  -3.731619e+01
   1.719802e+01  -3.755400e+01
  -1.142509e+01   9.984297e+00
   1.138901e+01  -7.317894e+00
   3.077656e+01  -4.852209e+00
   5.537895e+01   7.723066e+00
   3.902811e+01   7.595971e+01
  -6.209312e+01   6.875408e+01
  -1.313064e+02   5.730883e+01
  -1.265987e+02  -3.730487e+01
  -4.553599e+01  -1.188782e+02
   6.277229e+01  -1.068771e+02
   1.033509e+02  -3.154478e+01
   7.944496e+01   4.643867e+01
   3.990844e+00   4.805934e+01
   1.104157e+01  -3.048309e+01
  -1.447197e+01   7.367992e-01
   3.888291e+01   2.519197e+01
   2.174735e+01   7.995775e+01
  -1.174795e+01   6.475871e+01
  -3.918108e+01  -4.804392e+01
  -9.075824e+01  -9.984169e+01
  -9.284686e+00  -6.710968e+01
   8.717344e+01  -1.220679e+01
   8.175283e+01   6.451433e+01
   2.220599e+01   6.537562e+01
  -4.198327e+01   6.114901e+01
  -7.888903e+01  -1.756305e+01
  -3.931325e+01  -5.015878e+01
   2.124378e+01  -6.096372e+01
   2.946746e+01  -5.179347e+00
  -2.386329e+01   1.321849e+01
  -5.510112e+01  -1.250944e+01
   9.040343e+00  -1.658847e+01
   2.622017e+01  -5.300078e+01
   7.972154e+01  -3.783366e+01
   3.723407e+01   2.509798e+00
   3.078926e+00   3.110143e+01
  -2.578972e+01   7.357654e+01
  -1.618973e+01  -1.784468e+00
  -1.758852e+01  -2.544812e+01
   9.664011e+00  -3.920172e+01
   2.650567e+01   7.308696e+00
   4.075515e+01   5.394955e+01
   6.230835e+00   5.181793e+01
  -7.296545e+01   1.662245e+01
  -4.547768e+01  -5.602531e+00
  -3.694992e+01  -1.630648e+01
  -1.668786e+01   1.052394e+01
  -2.013888e+01  -3.197066e+00
   5.545892e+00  -1.097622e+01
  -1.954597e+01  -2.728923e+01
  -1.037008e+01   7.768654e+00
   4.465028e+01   4.615817e+01
  -1.845809e+01   7.126260e+01
  -3.660046e+01   1.609370e+01
  -4.570213e+01  -2.851062e+01
  -3.144400e+01  -3.131948e+01
   5.977241e+01  -1.460102e+01
   5.522456e+01   3.288007e+01
   2.034040e+01   3.175415e+01
  -1.616770e+01   5.957817e+01
  -7.298701e+01   3.144301e+01
  -3.282274e+01   6.756888e+00
   1.063386e+01   7.564741e+00
   3.636686e+01   1.512770e+00
  -5.014253e+01   1.031827e+01
  -6.949375e+01   1.341122e+01
