
 $NMID
 id='ANONYMOUS ', fmtdat='(2E16.6)'
 volume=1.0
 tramp=1.0
 $END
   2.740127e+03  -1.072798e+02
   1.798415e+03   1.601451e+03
  -2.104358e+02   1.809334e+03
  -1.354956e+03   8.370954e+02
  -7.495093e+02   1.604996e+01
   1.228186e+02  -3.074521e+02
   5.057601e+02  -1.531559e+01
   9.710619e+01   5.343625e+02
  -4.422703e+02   6.029444e+02
  -5.689315e+02   1.144500e+02
  -3.740720e+02  -4.867066e+02
  -3.890167e+01  -5.844545e+02
   3.166617e+02  -1.928050e+02
   2.789892e+02   3.424261e+02
  -8.871946e+01   5.121546e+02
  -3.681855e+02   8.093492e+01
  -2.372267e+02  -4.067741e+02
   1.471293e+02  -5.413062e+02
   3.902592e+02  -2.014546e+02
   3.732979e+02   1.518099e+02
   1.105514e+02   3.365915e+02
  -9.358362e+01   2.195349e+02
  -1.153298e+02   5.974690e+01
   8.243532e+01  -2.235826e+01
   2.286769e+02   1.404773e+02
   6.013606e+01   2.595244e+02
  -3.312445e+02   1.341625e+02
  -5.000804e+02  -9.284474e+01
  -2.760662e+02  -2.546354e+02
   2.249851e+02  -2.470538e+02
   4.297929e+02   6.429839e+01
   2.554767e+02   3.025251e+02
  -1.637185e+02   3.322867e+02
  -3.905789e+02   1.605866e+02
  -3.105292e+02  -1.273061e+02
  -6.504270e+01  -3.034794e+02
   4.283440e+01  -2.135633e+02
   4.161456e+01   1.744818e+01
  -6.229744e+01   1.897900e+02
  -2.111562e+02   2.959701e+00
  -1.111672e+02  -4.259995e+02
   1.580398e+02  -4.435674e+02
   3.641167e+02  -8.207839e+01
   1.541414e+02   2.640707e+02
  -9.708813e+01   1.668573e+02
  -1.991839e+02  -1.820313e+02
   2.915459e+01  -3.532002e+02
   3.335717e+02  -8.598926e+01
   3.803753e+02   2.756301e+02
   1.481668e+02   4.150655e+02
  -2.379251e+02   2.660310e+02
  -4.758520e+02   5.060453e+01
  -3.590757e+02  -2.383706e+02
   1.852365e+01  -2.310556e+02
   2.668033e+02  -1.393493e+02
   2.470615e+02   6.930650e+01
   4.786621e+00   8.178097e+01
  -7.396044e+01  -4.401711e+01
   1.138110e+02  -9.337620e+01
   1.973226e+02   1.944541e+01
   1.390040e+02   1.915511e+02
  -1.512638e+02   1.963551e+02
  -2.812110e+02   1.093472e+02
  -2.117029e+02  -8.501751e+01
  -7.545903e+00  -2.291502e+02
   1.762178e+02  -2.518429e+02
   2.154809e+02  -1.434577e+02
   2.254243e+02   1.057646e+02
   1.169832e+02   2.829484e+02
  -3.749937e+01   3.151427e+02
  -8.983246e+01   1.280098e+02
  -5.695514e+01   6.182195e+01
  -6.457375e+01   5.261896e+01
  -1.857609e+02   4.582708e+01
  -1.507445e+02  -5.960613e+01
  -9.572173e+01  -1.878405e+02
   3.718833e+01  -1.771675e+02
   1.439488e+02   5.310202e-01
   1.006571e+02   1.503358e+02
   8.786268e+00   1.709615e+02
  -1.685491e+02   7.326924e+01
  -2.381906e+02  -1.163854e+02
  -1.505360e+02  -2.124614e+02
   4.490068e+01  -2.526262e+02
   1.318077e+02  -1.376786e+02
   1.296085e+02  -7.244400e+01
   1.273509e+02  -6.272801e+01
   2.551684e+02  -2.801049e+01
   3.078452e+02   1.282966e+02
   2.050027e+02   2.236243e+02
  -1.682216e+01   3.636851e+02
  -2.767888e+02   3.053627e+02
  -3.557193e+02   1.045375e+02
  -2.395718e+02  -1.107724e+02
  -2.913088e+01  -2.281377e+02
   4.518435e+01  -1.847320e+02
   4.922963e+01  -5.965026e+01
  -2.812040e+01   4.374485e+01
  -8.312773e+01  -1.945220e+01
  -2.137998e+01  -1.082329e+02
   6.838699e+01  -8.621716e+01
   6.129872e+01   3.426788e+01
  -1.987742e+01   1.065512e+02
  -1.258667e+02  -2.296516e+01
  -1.357428e+02  -1.986583e+02
   5.307332e+00  -3.115552e+02
   1.722958e+02  -1.869815e+02
   2.623916e+02   3.535558e+01
   2.263185e+02   1.915580e+02
   8.271191e+01   1.685875e+02
  -7.789567e+01   1.187572e+02
  -1.228193e+02   3.765532e+01
  -6.407186e+01   1.377646e+00
   4.270484e+01   3.026353e+01
   2.025111e+01   9.028973e+01
  -8.589582e+01   6.850084e+01
  -1.367357e+02   2.318504e+00
  -2.737159e+01  -2.839116e+01
   4.961745e+01   2.295094e+01
   3.906428e+01   5.802325e+01
  -1.102949e+02   7.056323e+01
  -2.317813e+02  -6.815976e+00
  -1.959748e+02  -1.350365e+02
  -2.009015e+01  -2.002231e+02
   1.514665e+02  -1.858655e+02
   2.113735e+02  -5.960057e+01
   1.293193e+02   2.035597e+01
  -3.027300e+01   5.542375e+01
  -3.908817e+01   1.362693e+01
  -9.698361e+00  -5.803952e+01
   1.273284e+02  -5.701765e+01
   1.102879e+02   8.200603e+01
   3.444530e+01   1.491185e+02
  -5.460355e+01   1.164118e+02
  -1.089436e+02  -6.252915e-01
  -5.044307e+01  -2.721046e+01
   4.089281e+01   1.678195e+01
   2.759097e+01   8.408854e+01
  -6.658904e+01   1.173672e+02
  -1.236130e+02   1.620179e+01
  -1.260734e+02  -1.258866e+02
  -1.324528e+00  -1.725673e+02
   1.062177e+02  -1.176419e+02
   1.344862e+02   8.684312e+00
   7.643037e+01   8.836486e+01
  -2.752481e+01   8.827717e+01
  -7.060871e+01   8.272215e+00
   5.997254e+00   1.867875e+01
   2.767226e+01   9.371469e+00
  -2.040247e+01   1.771221e+01
  -5.086382e+01  -1.245478e+01
  -8.103772e+01  -4.891938e+01
  -1.764254e-01  -1.297592e+02
   9.917751e+01  -1.276924e+02
   1.936839e+02  -2.564240e+01
   1.604728e+02   1.133536e+02
   4.721236e+01   1.826672e+02
  -5.774653e+01   1.430295e+02
  -1.064401e+02   3.193349e+01
  -7.717115e+01  -2.107697e+01
  -3.803072e+01  -4.261784e+01
  -6.140441e+01   3.619314e+01
  -9.906975e+01  -2.991718e+01
  -5.784626e+01  -4.223434e+01
   3.185325e+01  -8.634177e+01
   9.315914e+01  -4.939893e+01
   7.843890e+01   1.499553e+01
   8.918856e+00   9.681726e+01
  -1.282403e+02   5.563141e+01
  -1.894250e+02  -1.509914e+01
  -9.950080e+01  -1.665592e+02
   1.059105e+02  -1.767730e+02
   1.950806e+02  -7.163833e+01
   1.891983e+02   6.835162e+01
   7.653104e+01   9.323107e+01
  -2.175883e+01   1.088061e+02
  -4.560557e+01   5.948753e+01
  -4.893246e+01   5.170123e+01
  -4.790098e+01   8.617811e+01
  -1.034944e+02   4.173104e+01
  -1.154752e+02  -3.192245e+01
  -7.159193e+01  -1.330364e+02
  -1.202492e+01  -1.594254e+02
   8.557100e+01  -1.202796e+02
   1.343344e+02  -1.202682e+01
   9.270916e+01   8.848337e+01
   6.344688e+00   1.182741e+02
  -8.759414e+01   7.105051e+01
  -5.759504e+01   1.384527e+01
  -1.014601e+01  -2.932122e+01
   2.268122e+01  -3.084535e+01
  -1.398814e+01  -2.270770e+01
  -3.966482e+01   6.993184e+00
  -1.723512e+01  -4.052889e+01
   5.035456e+01  -2.381883e+01
   1.256672e+02   1.245968e+01
   1.032232e+02   4.939992e+01
   1.602604e+01   6.827128e+01
  -7.236807e+01   4.341360e+01
  -1.271194e+02  -5.719150e+00
  -2.439187e+01  -8.407259e+00
   6.211335e+01  -4.298418e+01
   5.410314e+01   2.455088e+01
   1.050931e+01   4.664839e+01
  -5.203102e+01   5.834572e+01
  -8.600957e+01   3.352786e+01
  -2.727860e+01  -4.519190e+01
  -3.884401e+01  -4.628577e+01
  -4.434739e+01  -7.869367e+00
  -5.749705e+01  -2.621429e+01
  -1.978009e+01  -1.055023e+02
   2.266731e+01  -1.077189e+02
   1.008238e+02  -1.069369e+02
   1.271237e+02  -5.969284e+01
   9.648247e+01   8.679314e+01
   3.716578e+01   1.119082e+02
  -5.650978e+01   3.900242e+01
  -6.598848e+01  -3.642289e+00
   2.626024e+01  -2.764590e+01
   1.153756e+02   2.480866e+01
   4.488936e+01   6.646562e+01
  -5.078237e+01   5.853059e+01
  -1.535504e+02   6.352886e+01
  -1.287288e+02  -2.829401e+01
  -3.452829e+01  -7.011126e+01
   4.547744e+01  -3.893479e+01
   3.991638e+01   3.435461e+00
  -3.644398e+01   4.077289e+00
  -7.780776e+01  -1.118263e+01
  -3.316254e+01  -8.306977e+01
   5.681476e+01  -1.452859e+02
   1.371235e+02  -5.829011e+01
   1.002938e+02   5.849619e+01
   1.970058e+01   1.556888e+02
  -5.976700e+01   1.423991e+02
  -9.262320e+01   2.170657e+01
  -4.598640e+01  -9.441132e+01
  -1.903078e+00  -7.291828e+01
   2.845692e+01  -2.242193e+01
   3.754391e+01   1.096200e+01
  -6.776852e+00   2.938790e+01
  -2.341752e+01  -3.561218e+01
   4.394770e+01   1.487474e+00
   4.179117e+01   7.773329e+01
   2.563658e+01   8.049770e+01
  -2.275690e+01   1.825064e+01
  -8.497460e+01  -3.150838e+01
  -8.331944e+01  -5.947140e+01
  -2.892822e+01  -5.316861e+01
   6.993144e+01  -6.090923e+01
   1.052568e+02  -1.163608e+01
  -2.034262e-01   3.572034e+01
  -2.254689e+01   3.215814e+01
  -8.601023e+00   3.544777e+00
   3.524718e+01  -8.577417e-01
  -4.971907e+00  -2.154970e+01
  -3.571526e+01  -7.633243e+00
  -4.326276e+01  -3.793036e+01
   6.270491e+00  -5.069430e+01
   9.306580e+01  -8.277536e+01
   1.305485e+02  -7.655679e+01
   1.471125e+02   4.805761e+01
   6.095782e+01   1.276774e+02
  -8.446483e+01   1.281078e+02
  -9.274960e+01   6.643302e+01
  -6.722646e+01  -3.386400e+01
  -1.674869e+00  -6.151815e+01
   2.404392e+01  -1.580326e+01
  -8.611027e-01  -1.772757e+01
  -3.322808e+01  -3.830125e+01
  -8.362960e+00  -5.714674e+01
   3.656623e+01  -6.604682e+01
   7.215688e+01   6.205652e+00
   1.024767e+02   9.856420e+01
   3.267456e+01   7.446263e+01
  -4.921644e+01   3.754046e+01
  -7.704846e+01  -5.224722e+01
  -2.986609e+01  -6.229706e+01
   5.380043e+01  -5.721588e+01
   1.087008e+02   1.251421e+01
   3.354326e+01   2.364643e+01
  -2.912074e+01   4.708607e+01
  -1.389788e+01   2.927440e+01
   1.521224e+01  -8.366365e+00
   2.970410e+01  -7.095793e+00
   1.249188e+01   2.033715e+01
  -5.905386e+01   3.344391e+01
  -6.909913e+01   4.761915e+01
  -4.111163e+01   1.134638e+01
  -2.095797e+01  -5.637413e+01
   3.703634e+01  -7.755756e+01
   2.897487e+01   1.255427e+01
   2.539849e+00   3.870323e+01
  -2.968744e+01   5.463203e+01
  -2.230358e+01  -2.192928e+01
  -2.177688e+01  -8.783166e+01
   2.838190e+01  -5.961176e+01
   5.178991e+01  -3.473581e+00
   2.517873e+01   2.933338e+01
   1.882972e+01   2.540044e+01
   1.577888e+01  -2.609805e+01
   2.603431e+01  -2.915226e+01
  -1.409101e+01  -5.689409e-01
   1.225947e+01   3.438225e+01
  -2.394111e+01   1.875223e+01
  -3.436615e+01  -4.250802e+01
  -3.206297e+01  -5.642534e+01
   2.917947e+01  -1.111826e+01
   6.060922e+01   3.553134e+01
   2.000530e+01   6.138744e+01
  -2.548781e+01   2.112387e+01
  -6.699795e+01   6.636697e+00
  -3.749722e+01  -2.700253e+01
   1.031836e+01  -5.113892e+01
   2.965495e+01  -3.890366e+01
   1.092970e+01  -2.100411e+01
  -1.264030e+01  -1.362300e+01
  -2.197924e+01  -4.438902e+00
   5.323555e+01  -1.433516e+01
   5.937621e+01  -3.587952e+01
