
 $NMID
 id='ANONYMOUS ', fmtdat='(2E16.6)'
 volume=1.0
 tramp=1.0
 $END
  -3.282593e+03   1.688213e+02
  -1.999989e+03  -1.837752e+03
   2.717381e+02  -1.991350e+03
   1.457637e+03  -9.447722e+02
   9.514616e+02  -1.426487e+01
  -1.750273e+02   3.055144e+02
  -4.856506e+02  -5.637389e+01
  -4.053527e+01  -6.201522e+02
   4.945820e+02  -6.715348e+02
   6.382254e+02   1.887894e+01
   4.077305e+02   5.540736e+02
  -5.737618e+01   7.031321e+02
  -3.564316e+02   1.587527e+02
  -2.756214e+02  -4.848497e+02
   8.688515e+01  -6.009503e+02
   4.506849e+02  -5.457544e+01
   2.574223e+02   5.081549e+02
  -1.939155e+02   6.275843e+02
  -4.619166e+02   2.053582e+02
  -4.357789e+02  -2.606137e+02
  -8.178484e+01  -3.803664e+02
   1.273451e+02  -2.364064e+02
   1.049892e+02  -2.793088e+01
  -1.457382e+02  -2.881923e+01
  -2.548145e+02  -2.396219e+02
  -4.648267e+01  -3.738125e+02
   3.813180e+02  -1.491867e+02
   5.671957e+02   1.810347e+02
   2.818909e+02   3.570435e+02
  -3.182621e+02   2.740803e+02
  -4.658854e+02  -1.039552e+02
  -2.178196e+02  -3.480666e+02
   2.349110e+02  -3.293722e+02
   4.608002e+02  -1.184083e+02
   2.809561e+02   1.743226e+02
   4.905115e+01   3.286583e+02
  -7.946880e+01   1.796312e+02
  -3.749923e+01  -1.067877e+02
   9.228732e+01  -2.192006e+02
   2.817242e+02   4.788613e+01
   9.678880e+01   4.254273e+02
  -2.192338e+02   4.459666e+02
  -3.307344e+02   6.214655e+01
  -1.193630e+02  -3.524163e+02
   1.590653e+02  -1.638352e+02
   1.798193e+02   2.292057e+02
  -6.819527e+01   3.861547e+02
  -3.955761e+02   9.496856e+01
  -4.366681e+02  -2.959654e+02
  -1.243326e+02  -4.936802e+02
   3.106184e+02  -2.988945e+02
   4.892962e+02   1.901674e+01
   2.952933e+02   2.557752e+02
  -3.813214e+01   2.508308e+02
  -2.919248e+02   8.429612e+01
  -2.366807e+02  -4.396276e+01
   2.045829e+01  -5.805513e+01
   7.066297e+01   7.599664e+01
  -1.043072e+02   7.829075e+01
  -2.404062e+02  -7.761080e+01
  -1.434397e+02  -2.169401e+02
   1.305531e+02  -2.172191e+02
   3.084955e+02  -1.005894e+02
   2.208430e+02   8.831933e+01
  -6.065751e+01   2.724809e+02
  -2.313672e+02   2.993385e+02
  -2.699337e+02   1.013261e+02
  -2.192554e+02  -1.330786e+02
  -3.486666e+01  -3.230180e+02
   4.594667e+01  -2.861343e+02
   7.699911e+01  -1.423935e+02
   5.737806e+01  -8.711496e+01
   8.819943e+01  -9.171170e+01
   2.187562e+02  -6.154604e+01
   1.637071e+02   9.380237e+01
   7.759110e+01   2.047519e+02
  -7.456320e+01   1.661835e+02
  -1.905032e+02  -1.639834e+01
  -1.343854e+02  -1.628367e+02
   2.248206e+01  -1.964708e+02
   2.020971e+02  -6.478794e+01
   2.655005e+02   1.443417e+02
   1.664499e+02   2.796438e+02
  -8.548209e+01   2.299890e+02
  -1.374803e+02   8.521774e+01
  -1.649549e+02   5.711769e+01
  -1.196050e+02   7.710729e+01
  -2.451127e+02   3.631828e+01
  -3.750647e+02  -8.635683e+01
  -2.810357e+02  -2.769506e+02
   9.172223e+00  -3.547217e+02
   3.070471e+02  -3.436328e+02
   4.033575e+02  -1.257297e+02
   2.337113e+02   8.412598e+01
   5.523751e+01   2.309425e+02
  -3.713955e+01   1.839938e+02
  -3.150092e+00   4.584339e+01
   6.916785e+01  -2.803938e+01
   1.326877e+02   1.360114e+00
   7.583861e+00   1.072181e+02
  -1.244817e+02   8.219557e+01
  -8.666100e+01  -2.867864e+01
   3.084649e+01  -1.250754e+02
   1.673736e+02   1.292224e+01
   1.572042e+02   1.975731e+02
  -1.126232e+01   3.012757e+02
  -2.279185e+02   1.742626e+02
  -2.751164e+02  -4.671720e+01
  -2.346109e+02  -2.107506e+02
  -7.213378e+01  -2.060339e+02
   1.177900e+02  -1.120414e+02
   1.195949e+02   4.987278e+00
   3.767920e+01  -3.663687e+00
  -4.000581e+01  -6.159049e+01
  -2.865966e+01  -7.758033e+01
   9.821125e+01  -6.272932e+01
   1.526514e+02   2.596016e+01
   3.494212e+01   3.874660e+01
  -8.196551e+01  -2.485132e+01
  -3.068646e+01  -7.737696e+01
   1.232895e+02  -7.946695e+01
   2.478529e+02   1.824922e+01
   2.035150e+02   1.440214e+02
   4.320230e+00   2.498052e+02
  -1.760810e+02   2.036440e+02
  -2.342426e+02   6.644841e+01
  -1.320002e+02  -2.178042e+01
   2.305984e+01  -5.727318e+01
   5.817683e+01   1.134937e+01
  -3.145004e+01   5.689677e+01
  -1.910770e+02   5.977668e+01
  -1.440155e+02  -1.292640e+02
  -3.702410e+01  -1.346513e+02
   6.597428e+01  -1.012077e+02
   1.071095e+02  -2.302775e+01
   6.918628e+01   1.950917e+01
  -2.465799e+01  -4.511523e+01
  -2.028228e+01  -9.738823e+01
   7.364031e+01  -1.208919e+02
   1.796494e+02  -1.624115e+01
   1.615873e+02   1.468739e+02
   1.372959e+00   2.049371e+02
  -1.041140e+02   1.130865e+02
  -1.364135e+02   1.508930e+01
  -4.702892e+01  -8.531533e+01
   3.684261e+01  -7.756191e+01
   5.598804e+01  -1.341642e+01
   2.001591e+01   2.063192e+01
  -4.165727e+01   1.646432e+01
   1.657145e+01  -3.028689e+01
   7.209950e+01  -7.562280e+00
   8.324470e+01   7.149922e+01
   2.254731e+01   1.546223e+02
  -1.344483e+02   1.335123e+02
  -2.034550e+02   3.765535e+01
  -1.449259e+02  -1.181134e+02
  -5.157279e+01  -1.868658e+02
   5.225297e+01  -1.554110e+02
   1.078899e+02  -4.760151e+01
   9.121457e+01   1.137151e+01
   4.188409e+01   2.703025e+01
   3.226287e+01   1.245945e+01
   8.883921e+01  -2.192686e+00
   5.061647e+01   4.244743e+01
  -2.415371e+01   1.155403e+02
  -1.063539e+02   1.369886e+01
  -1.033920e+02  -1.219972e+01
  -1.401645e+01  -8.581791e+01
   1.444568e+02  -8.082993e+01
   2.000488e+02   7.546613e+01
   8.114399e+01   1.694394e+02
  -1.239512e+02   1.771961e+02
  -2.372910e+02   6.421158e+01
  -2.186952e+02  -7.414026e+01
  -1.021560e+02  -1.617599e+02
   2.151225e+01  -7.279358e+01
   8.418316e+01  -1.088268e+02
   4.735012e+01  -8.327626e+01
   7.603742e+01  -7.785543e+01
   9.056293e+01  -5.611295e+01
   1.146165e+02   3.422420e+01
   1.112807e+02   1.232614e+02
   3.770866e+01   1.817075e+02
  -8.979717e+01   1.817865e+02
  -1.532386e+02  -1.727166e+00
  -1.080828e+02  -1.040647e+02
  -4.164355e+00  -1.273555e+02
   5.816412e+01  -7.379564e+01
   6.107987e+01  -4.042395e+00
  -7.214607e-01   5.193350e+01
  -1.218285e+01   3.434756e+01
   1.211803e+01  -8.096276e-02
   6.527823e+01   1.433259e+01
   5.199444e+01   2.657178e+01
  -4.432751e+01   2.626048e+01
  -1.259789e+02   1.325096e+01
  -1.342372e+02  -6.401699e+01
  -5.231617e+00  -7.319489e+01
   9.882394e+01  -4.735654e+01
   1.123380e+02  -2.605073e+01
   3.898340e+01   3.867615e+01
  -6.587859e+01   3.817455e+01
  -6.615752e+01   1.653765e+01
  -3.027115e+01  -6.494078e+01
   8.139731e+01  -9.472704e+01
   9.022803e+01  -4.033345e+01
   5.605440e+01   4.734764e+01
   3.775428e+01   5.032010e+01
   5.618851e+01   3.006811e+01
   5.387930e+01   4.038407e+01
   5.918544e+01   6.811672e+01
  -5.068812e+01   1.337983e+02
  -1.356588e+02   1.441777e+02
  -1.555914e+02   5.548611e+01
  -1.261886e+02  -8.789573e+01
   2.057738e+01  -1.008966e+02
   8.641485e+01  -7.080424e+01
   6.117643e+01   9.588522e+00
  -4.204448e+01   1.977875e+01
  -1.157199e+02  -4.942309e+01
  -3.755573e+01  -9.538892e+01
   8.024796e+01  -9.317132e+01
   1.627792e+02  -2.950178e+01
   1.259803e+02   7.088738e+01
   7.291966e+00   8.665833e+01
  -7.161399e+01   6.726507e+01
  -4.558252e+01   1.526434e+01
   7.499854e+00  -3.194405e+01
   8.452215e+01   6.732679e-01
   3.576623e+01   9.507398e+01
  -1.111427e+02   1.253250e+02
  -1.410959e+02   6.606333e+01
  -7.417202e+01  -9.611510e+01
  -1.975988e+01  -1.546554e+02
   8.146313e+01  -1.501442e+02
   9.728248e+01   5.226917e+00
   3.413186e+01   1.124573e+02
   1.461718e+01   8.131398e+01
  -7.170367e+01  -4.987090e+00
  -5.013920e+01  -3.992425e+01
   6.498595e+00  -1.749788e+01
   8.521125e+00   1.552415e+01
  -2.799944e+01   1.490285e+00
  -5.030945e+01  -7.496099e+01
  -1.811900e+01  -1.163086e+02
   4.664593e+01  -2.796284e+01
   1.418227e+02   4.919649e+01
   1.206519e+02   7.170185e+01
   1.315055e+01   4.258248e+01
  -9.154644e+01   3.883333e+00
  -8.768684e+01   1.092692e+01
  -7.588522e+00  -2.358447e+01
   3.857311e+01   6.443677e+00
   1.322580e+01   1.219793e+00
  -1.203217e+01   1.341606e+01
  -3.081878e+01   6.374678e+00
   6.155676e+01  -3.139865e+01
   7.435934e+01   9.748828e+00
   3.145296e+00   8.788795e+01
  -1.169200e+02   8.360963e+01
  -1.658785e+02   4.767846e+01
  -1.295718e+02  -5.073355e+01
  -4.154806e+01  -1.407587e+02
   9.129223e+01  -1.095164e+02
   1.034011e+02  -4.851750e+01
   5.265661e+01   1.516131e+01
   2.755113e+01   3.050163e+01
   7.611276e+00   1.967948e+01
   8.071286e+00   2.289259e+01
   1.770418e+01   4.485543e+01
   3.427226e+01   1.130103e+02
  -3.914208e+01   6.190015e+01
  -6.982788e+01  -2.352442e+01
  -8.420783e+01  -1.176572e+02
  -1.862087e+01  -7.529745e+01
   7.553322e+01  -2.793778e+01
   1.164585e+02   6.072491e+01
   3.053062e+01   7.963774e+01
  -7.880821e+01   2.734699e+01
  -1.234170e+02  -2.980175e+01
  -4.509071e+00  -7.046463e+01
   3.853651e+01  -1.652210e+01
   2.848995e+01  -8.200712e+01
  -1.713951e+01  -1.632748e+01
  -5.954996e+01  -7.455555e+00
  -8.407382e+00  -1.766597e+01
   6.539309e+01  -3.604816e+01
   8.577831e+01  -9.257002e+00
   4.524237e+01   1.055236e+01
  -3.596385e+01   6.327881e+01
  -5.215064e+01   5.674985e+01
  -3.748769e+01   2.304537e+00
   2.657990e+00  -2.645713e+01
   1.793190e+01  -2.527001e+01
  -7.750624e+00   3.145929e+01
  -1.923921e+01   5.633483e+01
  -7.554507e+00   6.880862e+01
  -3.113345e+01  -1.827832e+01
  -2.770524e+01  -1.853937e+01
  -3.992038e+00   1.855535e+00
  -8.461593e+00   2.792601e+01
  -8.035645e+00   6.606600e+00
  -2.115476e+01  -2.533774e+01
   1.873331e+01  -4.466630e+01
   1.032960e+01   8.944152e-01
   2.740447e+01   6.384473e+01
   6.978385e+00   7.307352e+01
  -5.931799e+01  -1.703929e+01
  -4.039318e+01  -4.105536e+01
  -9.110567e-01  -5.727091e+01
   4.924939e+01  -2.765963e+01
   7.932344e+01   3.224997e+01
   2.974941e+01   3.155481e+01
   2.275740e+00   6.230838e+01
  -5.724329e+01   4.515464e+01
   6.797363e-01   3.888051e+01
  -2.064421e+00   4.691831e+01
   3.578491e+01  -6.603923e+00
  -4.346883e+01   3.822142e+01
  -8.245157e+01   2.920972e+01
