
 $NMID
 id='ANONYMOUS ', fmtdat='(2E16.6)'
 volume=1.0
 tramp=1.0
 $END
   2.442722e+03  -9.659680e+01
   1.898515e+03   1.159698e+03
   1.727512e+02   1.523284e+03
  -7.406670e+02   9.831421e+02
  -6.765625e+02   2.976428e+02
  -1.170977e+02   7.204348e+01
   8.192195e+01   7.429110e+01
   2.042598e+01   2.778355e+02
  -1.717636e+02   4.283018e+02
  -4.241412e+02   1.038311e+02
  -3.735946e+02  -3.070785e+02
  -1.333130e+02  -4.143804e+02
   1.502749e+02  -1.717051e+02
   1.846072e+02   2.677955e+02
   1.021673e+01   4.019816e+02
  -2.787435e+02   9.570620e+01
  -2.354795e+02  -3.236134e+02
   2.603739e+01  -4.532233e+02
   3.629453e+02  -3.199697e+02
   3.789179e+02   6.859801e+01
   1.468661e+02   2.709333e+02
  -4.291522e+01   1.982493e+02
  -2.974965e+01   1.190181e+02
   1.783927e+02   1.554876e+02
   2.332650e+02   2.442781e+02
  -1.852384e+01   2.778261e+02
  -3.624882e+02   1.201718e+02
  -4.639119e+02  -1.221445e+02
  -1.834303e+02  -2.471455e+02
   2.033123e+02  -1.739758e+02
   3.637927e+02   4.467171e+01
   1.461673e+02   2.751752e+02
  -1.921913e+02   2.351247e+02
  -3.588960e+02   1.286472e+02
  -2.549175e+02  -1.067821e+02
  -1.157781e+02  -2.057340e+02
  -6.874654e+01  -1.205620e+02
  -8.626623e+01   2.827322e+01
  -1.317267e+02   8.933195e+01
  -1.717189e+02  -1.230883e+02
  -7.171501e+01  -3.678136e+02
   2.132687e+02  -3.532365e+02
   2.402324e+02  -2.365754e+01
   5.030300e+01   2.371832e+02
  -8.499524e+01   1.332964e+02
  -1.115736e+02  -1.808835e+02
   5.973247e+01  -2.806231e+02
   3.906217e+02  -9.898628e+00
   3.207205e+02   2.564227e+02
   1.961628e+02   4.010434e+02
  -2.432441e+02   1.717206e+02
  -4.345868e+02   9.706540e+00
  -2.851413e+02  -1.137865e+02
   1.291863e+01  -1.420824e+02
   2.501179e+02  -2.949397e+01
   1.663141e+02  -1.709160e+01
   3.837597e+01   2.138136e+01
  -3.608667e+01  -5.000203e+00
   5.004103e+01  -5.743502e+01
   1.714863e+02   5.653906e+00
   1.031924e+02   1.651609e+02
  -1.024945e+02   1.903838e+02
  -2.610504e+02   1.546488e+02
  -2.285298e+02  -5.364746e+01
  -2.986457e+01  -2.350069e+02
   2.117097e+02  -3.507518e+02
   2.849553e+02  -1.401395e+02
   2.222864e+02   1.124949e+02
   7.553065e+01   2.709031e+02
   1.913296e+01   2.857828e+02
   1.576988e+01   1.777081e+02
  -1.471177e+01   9.526057e+01
  -1.086610e+02   8.858886e+01
  -1.917351e+02   9.726014e+01
  -2.152617e+02  -7.992449e+01
  -1.080295e+02  -2.199450e+02
   5.605468e+01  -1.567154e+02
   1.618060e+02   9.598869e+00
   1.163073e+02   1.899050e+02
  -3.761631e+01   2.106231e+02
  -1.981085e+02   5.649160e+01
  -2.903233e+02  -1.125628e+02
  -1.544726e+02  -2.414428e+02
   4.549230e+00  -2.142608e+02
   1.251071e+02  -1.304280e+02
   1.269821e+02  -1.259716e+02
   1.452088e+02  -8.375218e+01
   2.327211e+02  -6.371422e+01
   2.858231e+02   7.010435e+01
   3.205525e+02   2.123211e+02
   1.011632e+01   3.695781e+02
  -3.536490e+02   3.726414e+02
  -3.705886e+02   1.696341e+02
  -2.608812e+02  -4.745609e+01
  -4.258182e+01  -1.754855e+02
   9.428791e+00  -1.967786e+02
  -8.537371e+00  -4.181663e+01
  -1.007358e+02  -9.741637e+00
  -8.014744e+01  -3.793119e+01
  -1.556142e+01  -1.180338e+02
   1.010168e+02  -9.447212e+01
   7.993205e+01   2.760459e+01
  -1.227748e+01   1.008057e+02
  -1.291850e+02  -3.773234e+00
  -1.502968e+02  -1.851878e+02
   2.895359e+01  -2.906758e+02
   2.090772e+02  -1.778322e+02
   3.295349e+02   4.361686e+01
   2.491998e+02   2.463554e+02
   6.341720e+01   2.251212e+02
  -1.054437e+02   1.349796e+02
  -1.043193e+02   3.033641e+00
  -2.529749e+01  -3.678014e+01
   5.192771e+01   6.089152e+01
  -9.613109e-01   9.765013e+01
  -1.002129e+02   4.573799e+01
  -1.540834e+02  -1.794196e+01
  -4.568843e+01  -4.285655e+01
   6.583385e+01   2.287141e+01
   3.424186e+01   7.515358e+01
  -1.501578e+02   1.042042e+02
  -2.826988e+02  -1.717629e+01
  -2.585275e+02  -1.549324e+02
  -4.405821e+01  -2.268055e+02
   1.842487e+02  -2.088877e+02
   2.299318e+02  -7.374329e+01
   1.212982e+02   2.726670e+01
  -2.556577e+01   8.258002e+01
  -3.101121e+01   5.842517e+00
   3.550922e+01  -5.456049e+01
   1.523313e+02  -1.560713e+01
   1.416047e+02   9.071129e+01
   3.660011e+01   1.459337e+02
  -6.779659e+01   1.071303e+02
  -1.099126e+02  -4.571899e+00
  -2.323243e+01  -3.042679e+01
   4.759125e+01   4.049873e+00
   1.968982e+01   1.058206e+02
  -8.186742e+01   9.323269e+01
  -2.082346e+02   2.595083e+01
  -1.493039e+02  -1.105469e+02
   7.643405e+00  -1.856431e+02
   1.268894e+02  -1.578065e+02
   1.607998e+02  -1.578691e+01
   3.905791e+01   6.826236e+01
  -4.501155e+01   5.975314e+01
  -6.221155e+01   1.664046e+01
   2.622355e+01  -6.894065e+01
   6.866614e+01  -1.356018e+01
   9.080086e+00   2.298454e+01
  -5.321501e+01   1.738946e+01
  -8.818137e+01  -5.237107e+01
  -2.515064e+01  -1.340915e+02
   9.730840e+01  -1.398632e+02
   2.152569e+02  -4.699720e+01
   1.771707e+02   1.501645e+02
   2.712958e+01   1.884124e+02
  -7.492785e+01   1.321474e+02
  -1.068720e+02   2.699377e+01
  -4.974070e+01  -2.481808e+01
  -3.151200e+01  -2.610581e+01
  -4.697322e+01   2.569484e+00
  -7.647199e+01   2.861967e+01
  -7.590047e+01  -4.511663e+01
   1.725898e+01  -9.991566e+01
   1.115295e+02  -7.645859e+01
   1.065975e+02   4.659518e+01
  -2.169375e+01   8.294805e+01
  -1.378317e+02   8.572044e+01
  -1.838278e+02  -4.285645e+01
  -7.027372e+01  -1.637186e+02
   1.072379e+02  -1.667987e+02
   2.025162e+02  -3.508548e+01
   2.164303e+02   5.675440e+01
   8.707949e+01   1.468866e+02
  -3.143160e+01   1.281293e+02
  -8.565670e+01   7.779221e+01
  -7.926177e+01   6.389052e+01
  -4.294011e+01   7.585806e+01
  -7.867614e+01   8.821853e+01
  -1.186996e+02   2.252713e+00
  -1.161163e+02  -9.475205e+01
  -2.963358e+01  -1.920967e+02
   8.750823e+01  -1.598170e+02
   1.576390e+02  -4.727424e+01
   1.210914e+02   6.366363e+01
   1.778485e+01   1.247292e+02
  -2.830217e+01   9.723988e+01
  -5.608999e+01  -1.002247e+01
   3.399979e+00  -4.474892e+01
   2.556252e+01  -2.686356e+01
  -1.804603e+01   2.554963e+00
  -6.671142e+01  -6.463494e+00
  -5.297441e+01  -4.129511e+01
   3.493167e+01  -4.537603e+01
   1.565191e+02  -5.644627e+00
   1.132935e+02   3.440691e+01
   6.665959e-01   5.861402e+01
  -1.192964e+02   5.776273e+01
  -1.095738e+02   2.885055e+01
  -5.328478e+01  -2.743750e+01
   5.990198e+01  -4.570913e+01
   8.451831e+01   5.326452e+00
   1.494290e+01   2.314868e+01
  -3.472808e+01   5.920578e+01
  -4.966840e+01   2.447166e+00
  -7.108689e+01  -6.249272e+01
  -5.207225e+01  -6.378052e+01
  -5.247298e+01   1.094645e+01
  -6.928420e+01   1.677248e+01
  -3.670235e+01  -6.152103e+01
   6.252230e+00  -1.248722e+02
   9.015650e+01  -1.283800e+02
   1.500042e+02  -3.390592e+01
   1.128384e+02   7.442268e+01
   3.463625e+00   9.954869e+01
  -4.064947e+01   8.307870e+01
  -3.977876e+01   3.409816e+01
   3.127958e+01   1.130559e+01
   9.982168e+01   4.592797e+01
   8.240577e+01   9.358983e+01
  -7.329599e+01   6.575874e+01
  -1.475532e+02   3.160398e+01
  -1.639927e+02  -8.245432e+00
  -2.922617e+01  -8.028070e+01
   4.756894e+01  -5.907726e+01
   9.096799e+01   3.790641e+01
  -2.537814e+01   3.943312e+01
  -7.798229e+01  -8.893378e+00
  -2.991115e+01  -8.446680e+01
   5.596101e+01  -1.512829e+02
   1.092608e+02  -6.908111e+01
   1.157393e+02   4.951385e+01
   2.676291e+01   1.329903e+02
  -4.187595e+01   1.170299e+02
  -1.032834e+02   4.653893e+00
  -6.684904e+01  -9.270014e+01
  -3.506745e+00  -9.304843e+01
   4.984475e+01  -2.526175e-01
   2.939781e+01   9.147889e+00
   1.013419e+01   3.384619e+01
  -4.379856e+00  -4.183501e+01
   1.393562e+01   4.059842e-01
   4.789387e+01   4.444730e+01
   2.681300e+01   7.643588e+01
  -5.665827e+01   8.298029e-01
  -1.313512e+02  -2.916488e+01
  -9.297896e+01  -5.291472e+01
  -6.291737e+00  -4.988488e+01
   7.620636e+01  -2.295308e+01
   9.002922e+01  -1.470428e+01
   1.342318e+01   1.845365e+01
  -3.912101e+00   2.149440e+01
  -2.563601e+01   1.265595e+01
   1.237633e+01   1.105978e+01
   1.530605e+00   1.036544e+01
  -6.529723e+01   3.635105e+00
  -1.022039e+02  -4.074915e+00
  -3.782116e+01  -3.484330e+01
   8.211165e+01  -1.176068e+02
   1.750916e+02  -8.504962e+01
   1.412867e+02   1.845536e+01
   3.790290e+01   1.536113e+02
  -4.364190e+01   1.534552e+02
  -1.103103e+02   1.145000e+02
  -8.271517e+01  -1.507017e+01
  -1.046113e+01  -4.173018e+01
   5.109232e-01  -9.083146e+00
  -7.540583e-02  -2.624000e+01
  -3.506378e+00  -5.169597e+01
  -2.610643e+01  -6.867578e+01
   2.207517e+01  -6.348821e+01
   7.504980e+01   2.813800e+01
   5.769587e+01   6.838717e+01
   3.532317e+01   8.856442e+01
  -6.612909e+01   2.941079e+01
  -8.478827e+01  -3.833995e+01
  -4.871478e+01  -7.401716e+01
   3.379319e+01  -8.332450e+01
   7.687231e+01  -2.760356e+01
   5.270275e+01   3.844460e+01
   9.986545e+00   5.048309e+01
  -4.145636e+01   2.450267e+01
   3.746439e+01   8.257766e+00
   5.654287e+01  -2.558031e+01
   5.602261e+01   4.484273e+01
  -4.430249e+01   5.329664e+01
  -7.741363e+01   6.083721e+01
  -7.483868e+01   6.570526e+00
   3.490250e+00  -8.691295e+01
   3.693317e+01  -7.728479e+01
   2.321261e+01  -1.215027e+01
   1.156932e+01   3.150438e+01
  -2.858472e+01   5.663207e+01
  -5.021592e+01  -2.223059e+01
  -2.706520e+01  -3.380537e+01
   1.082671e+01  -2.546315e+01
   1.823601e+01  -2.044913e+01
   5.474456e+01  -1.754047e+00
   9.144777e+00   1.275030e+01
  -9.310799e+00  -2.871707e+01
  -7.896360e+00   1.784052e+00
  -1.250593e+01   5.652374e+01
   1.662180e+01   4.442760e+01
  -1.669841e+01   4.545064e+01
  -4.951550e+01  -1.333364e+01
  -3.270974e+01  -6.690026e+01
   2.624994e+01  -2.687336e+01
   7.789887e+01   1.111901e+01
  -4.786932e+00   4.053840e+01
  -4.609472e+01   9.454883e+00
  -1.011927e+02   1.796241e+01
  -5.825829e+01  -6.819511e+00
   1.594386e+01  -4.800455e+01
   3.095509e+01  -5.875387e+01
   2.843475e+01  -4.448819e+01
  -4.944315e+01  -2.319523e+01
  -4.811012e+01  -2.698730e+01
   9.293708e+00  -2.585205e+01
   7.809942e+01  -3.395624e+01
