
 $NMID
 id='ANONYMOUS ', fmtdat='(2E16.6)'
 volume=1.0
 tramp=1.0
 $END
  -3.327170e+03  -2.683474e+02
  -1.775635e+03  -1.737954e+03
   3.481187e+02  -1.811092e+03
   1.329704e+03  -1.173577e+03
   8.626232e+02  -9.390772e+01
   3.970474e+01   1.744448e+02
  -4.630470e+02  -1.728052e+02
   2.522984e+01  -6.325127e+02
   5.268825e+02  -5.352992e+02
   7.278101e+02  -4.696669e+01
   3.541453e+02   5.612732e+02
  -5.571972e+01   6.422579e+02
  -3.638107e+02   1.903193e+02
  -2.534964e+02  -4.002297e+02
   1.401800e+02  -5.994229e+02
   4.342289e+02  -1.036476e+02
   2.968091e+02   5.155613e+02
  -1.610728e+02   6.197358e+02
  -5.052104e+02   2.260709e+02
  -4.262382e+02  -2.291303e+02
  -9.441014e+01  -3.584176e+02
   1.651861e+02  -2.642197e+02
   8.118195e+01  -5.549037e+01
  -1.316554e+02  -7.766996e+01
  -2.344561e+02  -2.139029e+02
  -1.953404e+01  -3.487602e+02
   4.405837e+02  -1.648920e+02
   6.013023e+02   2.226398e+02
   2.499243e+02   3.436028e+02
  -2.983452e+02   1.195009e+02
  -4.876056e+02  -1.542309e+02
  -2.017062e+02  -3.776297e+02
   2.504536e+02  -3.914884e+02
   4.519406e+02  -1.498522e+02
   3.682759e+02   1.527416e+02
   1.113497e+02   3.173520e+02
  -7.941711e+01   2.019539e+02
  -5.035421e+01  -7.077527e+01
   1.667298e+02  -1.732324e+02
   2.245246e+02   1.870389e+02
   1.085122e-02   4.985224e+02
  -2.868059e+02   3.946713e+02
  -3.238143e+02   2.999460e+01
  -1.175845e+02  -3.167451e+02
   1.654361e+02  -1.649609e+02
   2.152511e+02   2.641573e+02
  -8.453524e+01   3.838841e+02
  -3.761176e+02   5.946328e+01
  -4.633570e+02  -3.704966e+02
  -1.585318e+02  -5.455495e+02
   2.784012e+02  -3.175820e+02
   5.418037e+02   5.800753e+01
   3.867803e+02   3.083831e+02
  -6.155983e+01   2.788803e+02
  -3.129788e+02   8.936018e+01
  -2.230723e+02  -8.106002e+01
   1.499160e+01  -5.243263e+01
   6.549644e+01   4.293451e+01
  -6.899321e+01   9.123556e+01
  -2.581303e+02  -4.202041e+01
  -1.217596e+02  -1.823039e+02
   1.428455e+02  -2.233787e+02
   3.483078e+02  -8.883768e+01
   2.295852e+02   1.278499e+02
  -1.734401e+01   3.592507e+02
  -3.461888e+02   3.626132e+02
  -3.854684e+02   1.149376e+02
  -2.285025e+02  -2.171713e+02
  -3.233421e+01  -3.323290e+02
   6.900806e+01  -2.450025e+02
   3.998400e+01  -1.427650e+02
  -1.534961e+01  -7.521250e+01
   1.254310e+02  -1.353657e+02
   2.409609e+02  -4.428686e+01
   2.340356e+02   8.879274e+01
   8.407226e+01   2.859249e+02
  -7.937797e+01   2.031758e+02
  -1.886290e+02  -1.285205e+01
  -1.198414e+02  -2.091317e+02
   5.528204e+01  -2.523142e+02
   2.522402e+02  -6.135755e+01
   2.710259e+02   2.048487e+02
   1.305857e+02   3.261175e+02
  -7.276745e+01   2.542974e+02
  -1.721379e+02   1.459538e+02
  -1.574330e+02   4.821345e+01
  -1.349193e+02   5.263580e+01
  -2.452475e+02   2.602456e+01
  -3.834025e+02  -8.529537e+01
  -3.033296e+02  -3.337436e+02
   4.796445e+01  -4.481948e+02
   3.834677e+02  -3.393065e+02
   4.468492e+02  -1.372977e+02
   2.838653e+02   1.012133e+02
   3.731110e+01   2.515072e+02
  -1.091986e+02   1.848631e+02
  -3.145338e+01   3.276657e+01
   1.044357e+02  -5.925860e+01
   1.147089e+02   2.354302e+01
  -7.344238e+00   1.760376e+02
  -1.129188e+02   8.231343e+01
  -8.798458e+01  -6.744672e+01
   5.042105e+01  -1.570643e+02
   1.700066e+02   1.742907e+00
   1.351478e+02   2.379910e+02
  -4.007889e+01   3.167311e+02
  -2.662399e+02   2.071462e+02
  -3.553352e+02  -7.605984e+01
  -2.596548e+02  -2.631546e+02
  -2.444571e+01  -3.024360e+02
   1.041568e+02  -1.163355e+02
   1.763809e+02  -1.132401e-01
   1.868111e+01   1.211765e+01
  -3.942262e+01  -6.135883e+01
   2.808057e+01  -1.130107e+02
   9.518036e+01  -5.843522e+01
   1.225703e+02   2.269356e+01
   2.199624e+01   5.202677e+01
  -6.279022e+01  -1.768512e+00
  -3.832867e+01  -7.679381e+01
   1.222646e+02  -8.152653e+01
   2.968512e+02   4.210343e+01
   2.656003e+02   2.037905e+02
   4.058535e+01   2.836711e+02
  -2.025411e+02   2.269833e+02
  -2.547203e+02   9.643142e+01
  -1.166329e+02  -5.531514e+01
   3.754628e+01  -6.253053e+01
   6.342244e+01   5.135795e+01
  -5.364307e+01   7.744199e+01
  -1.691868e+02  -1.006762e+01
  -1.961412e+02  -9.712151e+01
  -3.967451e+01  -2.245752e+02
   7.950498e+01  -1.149186e+02
   1.054087e+02  -1.726352e+01
   3.346656e+01   4.992128e+01
  -4.227206e+01  -2.660044e+01
  -2.917781e+01  -1.440072e+02
   1.123072e+02  -1.082959e+02
   2.382897e+02  -2.256970e+01
   1.778934e+02   1.258259e+02
  -2.625916e+01   1.845185e+02
  -2.195880e+02   1.169062e+02
  -1.762448e+02  -1.820554e+01
  -3.839272e+01  -8.278317e+01
   9.635777e+01  -7.781600e+01
   6.326946e+01  -3.682505e+00
  -9.885653e-01   2.573724e+01
  -3.892279e+01  -2.203803e+01
   8.252045e+00  -6.321208e+01
   1.188179e+02   2.004270e+01
   8.910366e+01   5.579492e+01
  -2.098365e+00   2.022587e+02
  -1.557947e+02   1.204709e+02
  -2.286473e+02  -1.447758e+01
  -1.864844e+02  -1.853163e+02
  -2.243772e+01  -2.241314e+02
   1.257963e+02  -1.703783e+02
   1.242365e+02  -1.665771e+01
   3.386505e+01   5.608517e+01
   1.453015e+01   2.493970e+01
   7.409799e+01  -1.586677e+01
   9.055990e+01   7.506546e+00
   8.384150e+01   6.942712e+01
  -2.426240e+01   1.311312e+02
  -1.378451e+02   3.873588e+01
  -9.674522e+01  -6.539278e+01
   1.800263e+01  -1.212515e+02
   1.586377e+02  -7.547462e+01
   1.888608e+02   9.849728e+01
   7.037253e+01   2.055197e+02
  -1.182915e+02   2.082386e+02
  -2.440526e+02   8.106557e+01
  -2.026087e+02  -1.029338e+02
  -1.166605e+02  -1.705623e+02
   6.146639e+01  -1.483360e+02
   8.833990e+01  -8.159076e+01
   7.184624e+01  -6.943514e+01
   5.611521e+01  -8.111855e+01
   8.598887e+01  -8.398149e+01
   1.057158e+02   5.222188e+01
   8.370120e+01   1.178155e+02
  -4.047474e+00   2.091016e+02
  -1.097467e+02   1.371814e+02
  -1.513067e+02  -2.548608e+01
  -1.021838e+02  -1.199047e+02
  -3.146722e+00  -1.446868e+02
   7.292476e+01  -6.228819e+01
   6.977418e+01   2.371584e+01
  -6.524965e+00   4.327909e+01
  -2.801384e+01   3.753162e+01
   1.783577e+01   2.188650e+01
   7.432119e+01   4.358868e+01
   4.253387e+01   6.844575e+01
  -5.674071e+01   2.945315e+01
  -1.529069e+02   2.714381e+01
  -1.293676e+02  -6.804674e+01
   1.815059e+00  -1.106501e+02
   1.391478e+02  -7.415650e+01
   1.648980e+02   8.206244e+00
   5.709901e+01   5.802749e+01
  -6.675518e+01   7.122070e+01
  -4.839469e+01  -5.845993e+01
  -7.127288e-01  -4.382970e+01
   5.603044e+01  -3.152525e+01
   5.079069e+01  -1.678653e+01
   6.529539e+01   2.529259e+01
   1.223061e+01   3.420637e+01
   4.994202e+01   9.201745e-01
   6.152917e+01   1.258977e+01
   2.355418e+01   9.280987e+01
  -2.698182e+01   1.525745e+02
  -1.193432e+02   1.206215e+02
  -1.846517e+02   2.282307e+01
  -1.319041e+02  -1.109059e+02
   1.304158e+01  -1.456049e+02
   1.203138e+02  -6.876831e+01
   7.632517e+01   9.618855e+00
  -5.872523e+01   4.952656e+00
  -1.240966e+02  -2.058273e+01
  -9.537834e+01  -9.999198e+01
   1.085290e+02  -8.600366e+01
   1.784680e+02  -4.034440e+01
   1.473562e+02   6.263814e+01
   3.068088e+01   6.404130e+01
  -4.056614e+01   5.000928e+01
  -2.722294e+01  -2.082079e+00
   3.196615e+01  -3.674603e+01
   8.934176e+01   1.385065e+01
   5.156426e+01   1.063274e+02
  -1.091661e+02   1.515449e+02
  -1.518904e+02   4.579246e+01
  -1.049108e+02  -5.018621e+01
   1.511598e+01  -2.028730e+02
   8.312091e+01  -1.577117e+02
   1.102575e+02   1.782054e+01
   2.872919e+01   1.200621e+02
  -2.648433e+01   9.273134e+01
  -2.212894e+01   2.770688e+01
  -2.729731e+01  -4.546045e+01
  -7.081048e+00  -3.192003e+01
  -2.104589e+00   3.708117e+01
  -5.030998e+01  -3.369086e+01
  -4.578078e+01  -8.928300e+01
   2.941311e+00  -1.172853e+02
   5.427966e+01  -2.277343e+01
   1.376606e+02   5.317825e+01
   9.127465e+01   9.678584e+01
   2.413180e+01   6.552034e+01
  -7.606149e+01   1.719293e+01
  -9.099355e+01  -2.320175e+01
  -1.510692e+01  -4.768237e-01
   1.970698e+00  -3.514180e+01
   4.856617e+01  -1.439545e+01
  -1.501417e+01   2.398345e+01
   2.184426e+01   1.461872e+01
   6.748847e+01   5.087712e+00
   8.856156e+01   2.613826e+01
   1.785353e+01   8.266222e+01
  -1.056713e+02   9.580015e+01
  -1.653797e+02   3.378953e+01
  -1.672304e+02  -6.492011e+01
  -4.629645e+01  -1.845376e+02
   1.008853e+02  -1.319129e+02
   1.197309e+02  -5.000610e+01
   7.415617e+01   1.059866e+01
   3.821555e+01   5.609259e+01
   1.682977e+01   8.510590e+00
   3.099626e+01  -6.500093e+00
   2.084153e+01   4.024088e+01
   1.705771e+01   8.935471e+01
  -5.194366e+01   6.065407e+01
  -9.810679e+01  -2.083986e+01
  -6.145357e+01  -1.007688e+02
   1.966068e+01  -1.327397e+02
   1.016511e+02  -4.681395e+01
   7.666448e+01   8.121446e+01
   5.067390e+01   1.181139e+02
  -6.890112e+01   6.436467e+01
  -1.089828e+02   1.062310e+01
  -5.853455e+01  -5.137067e+01
   2.334785e+01  -4.597838e+01
   3.470585e+01  -5.803081e+01
  -3.409130e+01  -7.266077e+00
  -4.152231e+01   6.343641e+00
   1.046892e+01  -3.534024e+01
   6.638932e+01  -4.330281e+01
   1.095953e+02  -1.243964e+01
   9.090213e+01  -7.339766e+00
  -3.003960e+00   1.058272e+02
  -7.172508e+01   8.660378e+01
  -5.670545e+01   1.718744e+01
  -1.249572e+01  -5.024271e+01
   4.668110e+01  -7.889065e+01
   3.785196e+01   1.925564e+01
   3.026385e+01   7.194751e+01
   1.457142e+01   3.709442e+01
  -3.897407e+01   2.354676e+00
  -3.785899e+01  -2.134775e+01
  -4.398939e+01  -4.246636e+00
  -1.385549e+00   6.875778e+00
   1.356287e+01   2.139079e+01
   2.167269e+01  -2.660673e+01
  -6.524702e+00  -2.401240e+01
   3.519990e+01  -3.191513e+00
   5.877192e+01   7.716973e+00
  -5.516466e+00   6.572425e+01
  -3.659174e+01   2.607513e+01
  -5.794966e+01  -2.125850e+01
  -1.241173e+01  -8.715724e+01
   8.005657e+01  -1.882039e+01
   8.951878e+01   5.131676e+01
   3.507920e+01   6.462552e+01
  -8.965453e+00   4.256125e+01
  -6.923126e+01   2.768181e+01
  -4.061094e+01   2.414373e+01
   2.061824e+01  -9.033048e-01
   1.471847e+01   3.165578e+01
  -4.451562e+01   2.399565e+01
  -8.307108e+01   9.993898e+00
