
 $NMID
 id='ANONYMOUS ', fmtdat='(2E16.6)'
 volume=1.0
 tramp=1.0
 $END
   1.776549e+03  -4.363294e+02
   1.585796e+03   7.492165e+02
   1.826204e+02   1.076572e+03
  -3.038820e+02   9.994500e+02
  -6.518812e+02   5.382881e+02
  -1.989411e+02   6.854690e+01
   2.499574e+01  -1.470745e+02
   8.992253e+01   2.218662e+02
  -1.417133e+02   3.560704e+02
  -2.587379e+02   2.174398e+02
  -3.207144e+02  -1.398711e+02
  -1.604254e+02  -3.518572e+02
   6.315827e+01  -2.723056e+02
   1.944698e+02   1.702185e+02
   2.671594e+01   3.184821e+02
  -1.702044e+02   1.282109e+02
  -2.232982e+02  -2.668227e+02
  -5.117898e+01  -3.862379e+02
   2.397368e+02  -2.402579e+02
   3.504594e+02   1.174742e+01
   1.479128e+02   1.805755e+02
   3.534562e+01   1.928203e+02
   2.789129e+01   8.451323e+01
   8.430139e+01   7.412741e+01
   1.354097e+02   1.531764e+02
  -3.310121e+00   1.972326e+02
  -2.520952e+02   4.199263e+01
  -3.547465e+02  -7.391296e+01
  -2.324678e+02  -1.378024e+02
   1.661155e+02  -6.018918e+01
   2.476176e+02   2.761919e+01
   1.225056e+02   1.491646e+02
  -1.315975e+02   2.411916e+02
  -2.566329e+02   9.977585e+01
  -2.167844e+02  -5.550734e+01
  -1.169366e+02  -1.768970e+02
  -7.047975e+01  -1.444978e+02
  -4.571589e+01   1.711784e+01
  -6.751383e+01   5.473163e+01
  -6.987321e+01  -4.223906e+01
  -8.762366e+01  -2.451039e+02
   3.590562e+01  -3.341382e+02
   1.533078e+02  -7.254370e+01
   1.243277e+02   9.776880e+01
  -2.859030e+01   2.826420e+01
  -6.199028e+01  -1.145857e+02
   4.648448e+01  -2.273911e+02
   2.688720e+02  -3.445757e+01
   3.065934e+02   2.185024e+02
   1.112659e+02   3.193534e+02
  -1.623651e+02   2.101664e+02
  -3.303043e+02   1.521360e+01
  -2.562329e+02  -9.290296e+01
   5.640316e+00  -1.261095e+02
   1.335593e+02  -9.398960e+01
   1.755379e+02  -5.769504e+01
   1.122053e+01  -2.202854e+01
  -2.917459e+01   2.238875e+01
   6.162657e+01  -1.966122e+01
   1.424374e+02   2.590929e+00
   9.781149e+01   9.617338e+01
  -8.292244e+01   1.311535e+02
  -2.206204e+02   9.676606e+01
  -1.881288e+02  -4.940282e+01
   1.999580e+01  -2.462869e+02
   1.738115e+02  -2.699197e+02
   2.486521e+02  -8.751824e+01
   1.294030e+02   6.649339e+01
  -5.087682e+00   2.274290e+02
   5.467938e+01   2.132606e+02
  -5.149120e+00   1.138614e+02
  -4.469594e+01   1.319203e+02
  -1.211456e+02   1.178173e+02
  -1.794960e+02   3.796949e+01
  -1.616324e+02  -7.086658e+01
  -4.482401e+01  -1.581789e+02
   8.278911e+01  -1.260282e+02
   1.068801e+02   2.185164e+01
   1.063489e+02   1.246688e+02
  -4.133774e+01   1.534975e+02
  -1.413404e+02   2.314361e+01
  -2.244406e+02  -5.375421e+01
  -1.384588e+02  -1.654812e+02
  -4.192061e+01  -1.760174e+02
   4.995247e+01  -1.313617e+02
   7.408160e+01  -1.108756e+02
   1.116568e+02  -9.004966e+01
   2.069659e+02  -5.357818e+01
   3.171870e+02   4.843078e+01
   2.235701e+02   1.994557e+02
   3.635137e+01   2.647102e+02
  -2.537325e+02   2.505695e+02
  -2.579812e+02   1.102059e+02
  -1.577330e+02  -3.546393e+01
  -3.015840e+01  -9.854472e+01
   4.032146e+01  -9.478925e+01
  -1.644458e+00  -1.845541e+01
  -6.366185e+01   2.019716e+01
  -7.520359e+01  -6.286853e+01
  -2.050077e+01  -8.050919e+01
   5.943339e+01  -4.244572e+01
   5.245529e+01   5.463396e+01
  -4.368631e+01   5.643395e+01
  -9.290897e+01  -6.061261e+00
  -1.081503e+02  -1.553619e+02
   1.966046e+01  -2.686821e+02
   1.567463e+02  -1.629207e+02
   2.229334e+02   2.647072e+01
   2.106441e+02   1.616091e+02
   5.895976e+01   1.775397e+02
  -8.642061e+01   6.439542e+01
  -1.049408e+02  -9.848401e+00
  -3.680901e+01   2.027822e+01
   1.572573e+01   1.333335e+01
  -2.647165e+00   4.658450e+01
  -5.239498e+01   7.197084e+01
  -1.048218e+02  -2.592084e+01
  -1.511078e+01  -2.608105e+01
   6.519075e+01   3.134023e+01
   1.085898e+01   7.626733e+01
  -9.679701e+01   8.607274e+01
  -2.251258e+02   6.588776e+00
  -1.762360e+02  -8.098423e+01
  -7.966702e+00  -1.786630e+02
   1.284307e+02  -1.466543e+02
   1.468973e+02  -8.210835e+01
   8.492011e+01   1.301684e+01
  -2.866423e+01   3.628342e+01
  -5.712655e+01  -3.952508e+01
   4.883321e+01  -3.547947e+01
   1.219416e+02  -1.131751e+01
   1.180831e+02   8.219933e+01
   1.263244e+01   1.090603e+02
  -5.731708e+01   7.057829e+01
  -4.543828e+01  -4.460773e+01
   1.073532e+01  -3.078462e+01
   5.361920e+01   1.873693e+01
   7.357071e+00   7.376111e+01
  -9.369023e+01   6.800570e+01
  -1.282478e+02  -1.334198e+01
  -1.128460e+02  -1.010344e+02
   2.788190e+01  -1.458061e+02
   1.127981e+02  -1.060204e+02
   1.030142e+02  -2.071348e+01
   3.663470e+01   4.519013e+01
  -5.216151e+01   7.728891e+01
  -4.370220e+01   8.294810e+00
   5.683517e+00  -1.066359e+01
   2.842725e+01  -2.675121e+01
  -3.415631e+01   3.364707e+01
  -9.834873e+01   1.728816e+01
  -8.548836e+01  -5.388205e+01
  -2.171465e+01  -1.128416e+02
   6.837547e+01  -1.324487e+02
   1.487340e+02  -1.359333e+01
   1.041827e+02   8.965843e+01
   2.953103e+01   1.608901e+02
  -4.717501e+01   1.038606e+02
  -8.419287e+01   9.996177e+00
  -3.061054e+01  -1.933736e+01
  -2.697914e+01  -1.346282e+01
  -2.298937e+01   1.958778e+00
  -7.435144e+01   1.003406e+01
  -5.998207e+01  -5.821328e+01
   2.917539e+01  -1.118143e+02
   9.451348e+01  -6.097573e+01
   8.500101e+01   2.538286e+01
   1.193172e+01   1.046449e+02
  -1.014420e+02   7.119243e+01
  -1.612363e+02  -2.499007e+01
  -6.762820e+01  -1.595044e+02
   6.823820e+01  -1.499891e+02
   1.894787e+02  -3.876214e+01
   1.930140e+02   5.852185e+01
   7.416764e+01   1.057397e+02
  -1.161035e+01   1.116864e+02
  -4.903252e+01   6.086015e+01
  -4.610618e+01   6.839968e+01
  -2.546079e+01   5.645256e+01
  -6.047776e+01   7.608324e+01
  -8.652074e+01   1.961610e+00
  -1.002855e+02  -8.242878e+01
  -4.985378e+01  -1.506114e+02
   6.594696e+01  -1.171505e+02
   1.065771e+02  -1.620856e+01
   7.215679e+01   9.958014e+01
   1.367126e+01   1.061057e+02
  -3.407903e+01   4.139521e+01
  -3.511832e+01  -1.026777e-01
   1.629833e+01  -6.326984e+00
  -1.967369e+01  -2.426096e+01
  -3.908818e+01  -1.091100e+01
  -3.123746e+01  -1.949521e+01
  -4.125669e+01  -2.106110e+01
   3.529589e+01  -3.224307e+01
   1.221125e+02   5.471482e+00
   7.319805e+01   4.595754e+01
  -3.809323e+01   5.513830e+01
  -1.101784e+02   6.193935e+01
  -7.910417e+01  -2.295571e+01
  -1.025951e+01  -4.049496e+01
   4.026839e+01  -1.547556e+01
   2.721322e+01   3.351586e+01
  -5.481425e+00   4.374887e+01
  -3.790756e+01   3.728022e+01
  -2.865223e+01   3.315806e+01
  -5.143728e+01  -3.239184e+01
  -1.268486e+01  -5.030323e+01
  -7.814356e+01  -2.632276e+01
  -3.676422e+01   8.910965e+00
  -2.936526e+01  -8.072939e+01
   3.875357e+00  -9.414604e+01
   6.056309e+01  -9.267359e+01
   1.131561e+02  -1.724801e+01
   7.533739e+01   4.548984e+01
  -3.557731e+00   1.069190e+02
  -8.488886e+01   6.069051e+01
  -2.879344e+01   9.214462e+00
   3.163712e+01  -2.649180e+01
   9.215699e+01   1.194143e+01
   3.720440e+01   5.777816e+01
  -4.248497e+01   5.740809e+01
  -1.102454e+02   2.723041e+01
  -9.652377e+01  -4.685362e+01
   2.839384e-01  -5.708828e+01
   2.580812e+01  -4.129280e+01
   4.819550e+00  -1.011025e+01
  -1.166157e+01   1.522787e+01
  -7.951783e+01  -1.304570e+01
  -3.496053e+01  -8.951807e+01
   5.459235e+01  -9.849449e+01
   1.176496e+02  -6.372598e+01
   7.466602e+01   8.229965e+01
   2.459138e+01   1.165238e+02
  -4.342137e+01   9.189599e+01
  -5.912206e+01  -5.980862e+00
  -4.897257e+01  -8.132070e+01
  -3.391887e+00  -6.684979e+01
   3.743590e+01  -1.011235e+01
   4.755572e+01   4.482410e+01
  -1.169530e+01  -5.537731e+00
   1.364156e+01  -4.098781e+01
   1.517933e+01   1.999850e+01
   3.974362e+01   7.490981e+01
   2.867516e+01   5.894613e+01
  -3.929150e+00   4.092367e+01
  -7.522378e+01  -2.185294e+01
  -6.956327e+01  -3.583304e+01
   2.534463e+01  -3.006491e+01
   4.093773e+01  -3.006029e+01
   5.138387e+01  -1.580433e+01
  -6.160583e+00   4.032383e+00
  -1.718233e+00   2.986082e+01
  -2.769278e+01   6.570007e+00
   1.304178e+01  -1.080453e+01
  -3.351365e+01  -1.919884e+01
  -6.177576e+01   2.187560e+01
  -6.048008e+01   7.684279e+00
  -1.577069e+01  -5.063885e+01
   6.647464e+01  -9.124931e+01
   1.257714e+02  -6.535652e+01
   8.387336e+01   1.061312e+01
   6.039127e+00   9.409974e+01
  -4.802058e+01   1.158573e+02
  -3.558517e+01   5.383989e+01
  -5.081508e+01  -5.489044e+00
  -2.891732e+01  -2.340717e+01
  -1.157568e+01  -2.596040e+01
   9.306269e+00  -1.060366e+01
  -2.966596e+01  -3.516416e+01
  -2.704946e+01  -7.286817e+01
  -1.009646e+01  -1.820397e+01
   6.178555e+01   2.194374e+01
   3.717189e+01   7.690003e+01
  -8.666561e+00   4.944917e+01
  -6.521284e+01   4.740118e+01
  -6.177219e+01  -2.513719e+01
  -9.692301e+00  -8.285943e+01
   3.225406e+01  -4.529699e+01
   7.393299e+01  -1.751414e+01
   2.296450e+01   9.803297e+00
  -2.520091e+01   3.769052e+01
  -3.483762e+01   4.664786e+01
   4.072138e+01   5.663319e+00
   4.090272e+01  -2.264647e+01
   2.840369e+01   5.958318e+00
  -5.094999e+01   4.221987e+01
  -7.685276e+01   2.678707e+01
  -5.848712e+01  -2.686620e+01
  -1.730608e+01  -5.692345e+01
   4.776361e+01  -4.853339e+01
   4.000130e+01  -1.964409e+01
  -7.912617e+00   3.324505e+01
  -1.171750e+01   4.124577e+01
  -5.261989e+01  -4.006763e+00
  -1.926410e+01  -2.476164e+01
  -1.466900e+01  -2.672988e+00
   2.286193e+01  -1.045546e+01
   2.102600e+01   1.216052e+01
   2.528197e+01   1.834911e+00
  -1.417259e+01  -3.652490e+01
  -6.227794e+00  -1.626920e+01
  -2.314897e+01   4.606634e+01
  -6.186221e+00   2.282350e+01
  -7.628900e+00   2.962843e-01
  -7.784650e+00  -2.331359e+01
   1.635001e+00  -3.534675e+01
   3.874726e+01  -1.647774e+01
   5.427779e+01   3.795309e+01
   1.694510e+01   2.901007e+01
  -2.781775e+01   3.347035e+01
  -4.793183e+01   2.031758e+01
  -3.134744e+01  -3.797018e+01
   7.326310e+00  -1.715718e+01
   1.848946e+01  -1.827095e+01
   5.412745e+00   7.331523e+00
  -2.650058e+01  -3.001306e+01
  -1.450780e+01  -1.158294e+01
   4.369712e+01  -1.670438e+01
   5.274300e+01   7.179199e+00
