
 $NMID
 id='ANONYMOUS ', fmtdat='(2E16.6)'
 volume=1.0
 tramp=1.0
 $END
   2.623088e+03  -3.093849e+02
   1.765587e+03   1.258754e+03
   5.886759e+01   1.701932e+03
  -8.629620e+02   9.285683e+02
  -7.730835e+02   2.563656e+02
  -1.837448e+02   5.083673e+01
   2.212574e+02   6.079261e+01
   3.867856e+01   4.811398e+02
  -3.194768e+02   5.290131e+02
  -5.326889e+02   1.540161e+02
  -4.254967e+02  -4.482841e+02
  -8.582743e+01  -6.400132e+02
   2.464529e+02  -1.782692e+02
   2.542008e+02   3.638035e+02
  -7.537915e+01   4.682557e+02
  -3.455914e+02   1.273118e+02
  -2.397274e+02  -3.925887e+02
   5.210511e+01  -5.570543e+02
   3.757525e+02  -2.480520e+02
   3.907278e+02   1.083789e+02
   1.446200e+02   2.737061e+02
  -1.406341e+02   2.665658e+02
  -9.764028e+01   9.477498e+01
   1.171467e+02   2.789981e+01
   2.147329e+02   1.987962e+02
   2.000369e+01   3.365788e+02
  -3.860076e+02   1.518768e+02
  -5.637413e+02  -1.036880e+02
  -1.666572e+02  -2.961249e+02
   3.252268e+02  -2.443998e+02
   4.531914e+02   1.227880e+02
   1.998392e+02   3.245896e+02
  -2.394830e+02   3.155325e+02
  -4.172627e+02   7.746509e+01
  -3.120388e+02  -1.364072e+02
  -8.074117e+01  -2.822321e+02
   3.934405e+01  -1.919262e+02
  -2.463749e+01   1.263595e+02
  -1.775906e+02   1.747117e+02
  -2.249707e+02  -1.034076e+02
  -2.727666e+01  -4.086954e+02
   2.007945e+02  -3.692554e+02
   2.674648e+02   4.071282e+00
   6.816322e+01   2.764174e+02
  -1.019143e+02   1.378299e+02
  -1.244742e+02  -2.020762e+02
   1.056327e+02  -3.044774e+02
   3.589604e+02  -5.806113e+01
   4.166171e+02   2.760087e+02
   1.449475e+02   4.020764e+02
  -2.634675e+02   2.298760e+02
  -4.546625e+02  -5.530798e+01
  -3.445950e+02  -1.909396e+02
   2.616213e+01  -1.712638e+02
   3.010885e+02  -1.075300e+02
   1.902278e+02   4.994968e+01
  -3.300011e+00   4.197868e+01
  -3.253094e+01  -4.393766e+01
   9.761824e+01  -7.268916e+01
   2.130014e+02   4.268000e+01
   1.365630e+02   1.243971e+02
  -1.066838e+02   2.180345e+02
  -2.540041e+02   1.605946e+02
  -2.678886e+02  -1.816549e+01
  -1.890369e+01  -2.537355e+02
   2.732870e+02  -3.157055e+02
   2.667536e+02  -1.342140e+02
   2.210794e+02   1.241016e+02
   3.514877e+01   2.894126e+02
   2.298771e+00   2.787840e+02
   4.253547e+00   1.510849e+02
  -4.326593e+00   7.121325e+01
  -1.137929e+02   1.111097e+02
  -2.170917e+02   6.592638e+01
  -1.948137e+02  -1.246567e+02
  -7.948164e+01  -1.978739e+02
   6.766116e+01  -1.649762e+02
   1.425291e+02   2.743427e+01
   9.189296e+01   1.978803e+02
  -3.341028e+01   2.298901e+02
  -1.751760e+02   5.292552e+01
  -2.966622e+02  -1.619700e+02
  -1.519624e+02  -2.358062e+02
   5.330752e+01  -2.351524e+02
   9.359452e+01  -1.132109e+02
   1.365403e+02  -7.364383e+01
   1.451222e+02  -7.791437e+01
   2.539284e+02  -4.317507e+01
   3.500784e+02   6.081976e+01
   2.785463e+02   2.244951e+02
  -9.129964e+00   3.922259e+02
  -3.162706e+02   3.647179e+02
  -4.111096e+02   1.181237e+02
  -2.098137e+02  -1.199020e+02
  -3.282647e+00  -2.073632e+02
   9.580590e+01  -1.574168e+02
   3.438396e+01  -1.255570e+01
  -1.137828e+02   2.161966e+01
  -1.100218e+02   5.283918e+00
  -2.585581e+00  -1.313861e+02
   1.051136e+02  -1.074914e+02
   1.176254e+02   3.552728e+01
   1.059703e+01   9.725357e+01
  -1.172410e+02   9.356075e+00
  -1.193001e+02  -1.770807e+02
  -9.293111e+00  -2.724315e+02
   1.624393e+02  -1.816203e+02
   3.075056e+02   6.584523e+01
   2.329848e+02   2.351848e+02
   4.000141e+01   2.732878e+02
  -9.481879e+01   1.189427e+02
  -1.040006e+02  -5.741772e+00
  -4.220052e+01  -1.132701e+01
   3.506221e+01   8.582831e+01
   4.995575e+00   8.730515e+01
  -1.034785e+02   2.973126e+01
  -1.138271e+02  -1.413596e+01
  -1.693655e+01  -3.396586e+01
   6.982506e+01   1.331514e+01
   3.979645e+01   8.112455e+01
  -1.057243e+02   5.983962e+01
  -2.753548e+02  -5.597419e+01
  -2.148986e+02  -1.444073e+02
  -4.937401e+01  -2.200525e+02
   1.647285e+02  -2.177393e+02
   2.285386e+02  -1.129991e+02
   1.172239e+02   1.732876e+01
   9.451743e+00   6.738704e+01
  -1.747469e+01  -1.590971e+01
   2.814529e+01  -4.480365e+01
   1.402650e+02   1.265800e+00
   1.564811e+02   8.096305e+01
   5.553654e+01   1.658755e+02
  -6.494380e+01   1.222401e+02
  -1.076506e+02   3.180623e+00
  -4.920076e+01  -2.634409e+01
   1.414808e+01  -6.397665e+00
   2.636185e+01   7.823731e+01
  -6.654331e+01   8.405010e+01
  -1.565110e+02   2.984633e+01
  -1.618966e+02  -8.804001e+01
  -2.543225e+01  -1.542550e+02
   1.035645e+02  -1.421367e+02
   1.681320e+02  -3.413735e+01
   4.456614e+01   5.702617e+01
  -4.606113e+01   8.743018e+01
  -9.270920e+01   1.089229e+01
   4.750966e+00  -1.156821e+01
   6.021121e+01   3.935547e+00
   1.918841e+01   3.313721e+01
  -7.621738e+01   2.622848e+01
  -9.367122e+01  -5.613339e+01
  -2.909437e+01  -1.409200e+02
   8.066844e+01  -1.350489e+02
   1.871752e+02  -4.117916e+01
   1.741666e+02   1.213803e+02
   1.479894e+01   1.912016e+02
  -8.456815e+01   1.122727e+02
  -7.663795e+01   3.038654e+01
  -5.168574e+01  -5.143425e+01
  -3.538699e+01  -1.985568e+01
  -6.556701e+01   5.894694e+00
  -9.181080e+01   1.925023e+01
  -6.814774e+01  -5.101529e+01
   3.580583e+01  -9.347392e+01
   1.152825e+02  -6.898381e+01
   1.339559e+02   1.205405e+01
  -1.130380e+01   1.051889e+02
  -1.033792e+02   7.231569e+01
  -1.995956e+02  -7.511268e+01
  -5.760602e+01  -1.727491e+02
   1.142820e+02  -1.908452e+02
   2.453299e+02  -6.014801e+01
   2.006470e+02   9.149032e+01
   8.006412e+01   1.720990e+02
  -7.191049e+01   1.405354e+02
  -5.799170e+01   4.622309e+01
  -6.964524e+01   7.810956e+01
  -4.967333e+01   7.680635e+01
  -8.495578e+01   6.367920e+01
  -1.247726e+02  -3.308166e+01
  -9.898330e+01  -1.561384e+02
  -4.117716e+00  -1.846705e+02
   6.279209e+01  -1.487749e+02
   1.495900e+02  -4.775044e+01
   1.227998e+02   1.036818e+02
   1.329369e+01   1.644778e+02
  -4.699182e+01   7.762539e+01
  -5.174528e+01  -3.007574e+01
   2.099080e+00  -4.175235e+01
   2.720831e+01  -3.038388e+01
  -2.543603e+01  -2.277781e+01
  -7.718572e+01  -7.531859e-01
  -5.792936e+01  -4.005120e+01
   4.353082e+01  -4.316208e+01
   1.160515e+02  -3.282722e+00
   1.436070e+02   3.602160e+01
   4.469711e+00   6.818161e+01
  -1.265570e+02   7.585283e+01
  -1.208125e+02  -5.586783e+00
  -3.213410e+01  -6.219072e+01
   5.032356e+01  -1.988715e+01
   8.012317e+01  -1.938025e+01
   1.037137e+01   6.067648e+01
  -2.125558e+01   4.062959e+01
  -5.215379e+01   3.713810e+01
  -6.910519e+01  -3.608912e+01
  -5.352661e+01  -8.625542e+00
  -3.816302e+01  -2.824926e+01
  -5.702582e+01  -4.335682e+00
  -1.205393e+01  -7.587242e+01
   3.072119e+01  -1.272240e+02
   1.093781e+02  -1.380769e+02
   1.467327e+02  -2.018341e+01
   9.618821e+01   6.561471e+01
   2.299508e+01   5.782097e+01
  -5.385207e+01   6.796309e+01
  -2.818740e+01   1.876018e+01
   8.056433e+01  -1.805969e+01
   1.201660e+02   4.171647e+01
   5.713928e+01   8.081475e+01
  -4.851668e+01   1.232178e+02
  -1.898975e+02   2.605146e+01
  -1.477782e+02  -4.715123e+01
  -5.271151e+00  -8.224555e+01
   6.997577e+01  -6.010219e+01
   5.177709e+01   6.010499e+00
  -2.305874e+01  -4.864852e+00
  -9.228622e+01   6.474345e+00
  -5.929220e+01  -9.259522e+01
   8.320906e+01  -1.547965e+02
   9.248250e+01  -6.175466e+01
   1.192140e+02   4.697565e+01
   3.549526e-02   1.231281e+02
  -6.649113e+01   1.248476e+02
  -9.411077e+01  -1.633742e+01
  -4.774325e+01  -9.861575e+01
   3.913088e+01  -6.186466e+01
   7.449280e+01  -8.224115e+00
   4.554484e+01   4.435963e+01
  -2.197727e+01   2.166561e+01
  -1.171241e+01  -3.007692e+01
   2.573470e+01   6.176375e+00
   7.143119e+01   6.977288e+01
   4.524061e+01   1.085191e+02
  -4.290852e+01   2.889440e+01
  -1.118475e+02  -3.585294e+01
  -1.259557e+02  -7.416488e+01
  -3.676952e+01  -4.720954e+01
   8.277101e+01  -2.598425e+01
   6.413523e+01  -2.248008e+01
   2.366456e+01  -2.367821e+01
  -1.026332e+01  -5.323225e+00
  -2.816070e+01  -4.179258e+00
   4.577664e+00  -2.909493e+01
  -1.199919e+01   1.289363e+00
  -5.491344e+01  -1.105968e+01
  -8.290095e+01   5.676446e+00
  -4.142328e+01  -5.108578e+01
   1.164602e+02  -9.204974e+01
   1.257569e+02  -3.236063e+01
   9.891341e+01   3.923605e+01
   1.341133e+01   1.354427e+02
  -8.112958e+01   1.063026e+02
  -8.997616e+01   8.128932e+01
  -7.519277e+01  -4.313366e+01
  -2.230034e+01  -9.954134e+00
  -1.388859e+01   3.788873e+00
  -3.491810e+01   2.152197e+01
  -4.362098e+01  -7.015107e+01
  -4.381254e+00  -7.959083e+01
   1.523364e+01  -5.947465e+01
   4.381302e+01   2.434231e+01
   7.269226e+01   8.082908e+01
   1.700713e+01   9.363292e+01
  -8.718032e+01   2.590419e+01
  -7.132554e+01  -3.076270e+01
  -3.777673e+01  -8.982826e+01
   3.865535e+01  -7.942301e+01
   8.546297e+01   2.056725e+00
   6.007934e+01   4.108946e+01
  -7.679032e+00   1.169968e+01
  -1.036838e+01   2.042685e+01
   3.274943e+01  -1.900776e+01
   6.668767e+01  -2.846053e+01
   2.351780e+01   3.291895e+01
  -5.785279e+01   5.792210e+01
  -7.331875e+01   7.342603e+01
  -9.365758e+01  -1.304431e+01
   1.197270e+01  -5.798991e+01
   4.447149e+01  -5.862321e+01
   2.422831e+01  -3.622660e+01
  -3.139035e+00   1.195350e+01
  -6.545808e+00   1.934418e+01
  -1.773324e+01   1.017704e+01
  -2.601497e+01  -3.080244e+01
   2.749152e+00  -4.664918e+00
  -8.609404e+00   3.375859e+01
   1.792306e+01   2.533885e+01
   4.163800e+00  -1.823617e+00
  -3.457864e+01  -3.521067e+00
  -1.892218e+01   1.396156e+01
  -6.530405e+00   3.892672e+01
   1.598613e+01   2.814358e+01
  -2.299237e+01   5.047976e+00
  -3.489165e+01  -3.104892e+01
   1.397868e+00  -3.086515e+01
   5.766579e+01  -3.332319e+00
   3.670545e+01   1.988947e+01
   1.736639e+01   3.160134e+01
  -4.216006e+01   4.696878e+01
  -8.676437e+01   8.183863e+00
  -5.907869e+01  -3.253833e+01
   1.530704e+01  -6.603791e+01
   3.225432e+01  -4.510814e+01
   4.351796e+01  -4.093962e+01
  -3.749265e+01   8.989317e+00
  -3.590194e+01  -2.253513e+01
   3.032024e+01  -1.274087e+01
   7.213074e+01   5.143585e+00
