
 $NMID
 id='ANONYMOUS ', fmtdat='(2E16.6)'
 volume=1.0
 tramp=1.0
 $END
  -2.403112e+03  -5.636486e+01
  -1.458034e+03  -1.180299e+03
   4.247561e+01  -1.457961e+03
   9.613773e+02  -8.744098e+02
   6.002275e+02  -8.668599e+01
  -3.187592e+01   1.515859e+02
  -3.524165e+02  -5.998555e+01
  -1.095486e+02  -4.339270e+02
   3.603642e+02  -4.390175e+02
   4.092763e+02  -6.884028e+01
   3.397766e+02   3.331458e+02
   2.265860e+01   4.396578e+02
  -1.756162e+02   1.231359e+02
  -1.852972e+02  -2.569388e+02
   9.121869e+01  -4.132809e+02
   2.471618e+02  -6.440428e+01
   1.998757e+02   3.183328e+02
  -1.457272e+02   3.755943e+02
  -2.864782e+02   1.496884e+02
  -3.124278e+02  -1.689105e+02
  -5.853190e+01  -2.102982e+02
   7.055191e+01  -1.848511e+02
   2.575473e+01  -9.996613e+01
  -8.368105e+01  -8.585948e+01
  -1.294508e+02  -1.677340e+02
   1.194483e+01  -1.835595e+02
   3.383184e+02  -7.198666e+01
   3.737328e+02   1.228518e+02
   1.807768e+02   2.160780e+02
  -2.554713e+02   1.233384e+02
  -3.289937e+02  -9.687455e+01
  -1.785510e+02  -2.764484e+02
   1.679842e+02  -2.248805e+02
   2.674877e+02  -8.953322e+01
   2.265887e+02   1.242716e+02
   6.579725e+01   2.267980e+02
  -3.114119e+01   1.603092e+02
   8.752241e+00  -3.032681e+01
   1.436890e+02  -1.238080e+02
   1.791970e+02   9.905403e+01
   2.201262e+01   3.938037e+02
  -2.045872e+02   3.120316e+02
  -3.355246e+02   1.598376e-01
  -9.098748e+01  -2.436452e+02
   1.132099e+02  -1.190051e+02
   1.084744e+02   1.885512e+02
  -6.355151e+01   2.553443e+02
  -2.769132e+02   3.220057e+01
  -2.957892e+02  -2.768330e+02
  -5.261154e+01  -3.684589e+02
   2.297738e+02  -2.136229e+02
   3.587788e+02   9.559621e+00
   2.390427e+02   2.014104e+02
  -5.179822e+01   1.738079e+02
  -2.521949e+02   4.600939e+01
  -1.807637e+02  -6.068649e+01
  -1.384827e+00  -5.371606e+01
   5.877411e+01   3.343601e+01
  -6.175958e+01   7.932506e+01
  -1.745957e+02  -2.347049e+01
  -8.519238e+01  -1.644800e+02
   1.097097e+02  -1.603948e+02
   2.528349e+02  -6.486915e+01
   1.650145e+02   9.077105e+01
  -3.614782e+01   1.818091e+02
  -1.906508e+02   2.396706e+02
  -2.281420e+02   8.256751e+01
  -1.576942e+02  -9.302763e+01
  -3.610876e+01  -2.594535e+02
   7.116901e+01  -2.371936e+02
   4.287663e+01  -1.040532e+02
   3.823354e+01  -5.973593e+01
   1.072199e+02  -4.018028e+01
   1.470742e+02  -3.281769e+01
   1.283877e+02   7.269700e+01
   7.026072e+01   1.576489e+02
  -4.675477e+01   9.651742e+01
  -1.286503e+02  -2.394715e+01
  -9.627277e+01  -1.310409e+02
   3.425533e+01  -1.481920e+02
   1.707921e+02  -3.152052e+01
   1.814175e+02   1.194105e+02
   7.237126e+01   1.910718e+02
  -1.225373e+01   1.965361e+02
  -1.061962e+02   1.144414e+02
  -1.248211e+02   6.985985e+01
  -9.850140e+01   5.702820e+00
  -2.008175e+02   9.331593e+00
  -2.421203e+02  -9.684695e+01
  -1.621027e+02  -1.847321e+02
   3.280518e+01  -2.884816e+02
   3.059699e+02  -2.695988e+02
   3.374351e+02  -9.282298e+01
   2.329645e+02   6.836579e+01
  -1.237232e+01   1.807493e+02
  -4.782323e+01   1.288750e+02
  -3.032520e+01   5.454308e+01
   3.385178e+01  -2.512036e+01
   8.403874e+01   2.988739e+01
   4.817595e+00   1.179645e+02
  -7.228543e+01   6.736362e+01
  -7.521180e+01  -2.949873e+01
  -4.649375e+00  -7.668885e+01
   9.170841e+01   2.691173e+01
   7.687302e+01   1.837201e+02
  -5.595118e+01   2.115441e+02
  -1.732416e+02   1.074101e+02
  -2.112635e+02  -7.076108e+01
  -1.591776e+02  -1.775394e+02
  -5.254449e+01  -1.637595e+02
   9.891905e+01  -9.386905e+01
   1.001306e+02  -1.389877e+01
   4.631507e+01   1.581114e+01
  -4.020353e+01  -2.500374e+01
   5.628312e+00  -6.795578e+01
   8.081810e+01  -8.323519e+01
   1.041897e+02  -5.389894e+00
   3.248983e+01   4.462211e+01
  -2.926310e+01  -1.717213e+01
  -1.538388e+01  -5.464644e+01
   1.129790e+02  -4.713574e+01
   2.281356e+02   3.978031e+01
   1.671448e+02   1.372401e+02
   1.933382e+01   1.453662e+02
  -1.677639e+02   1.259021e+02
  -1.650687e+02   4.747402e+01
  -8.630701e+01  -5.978898e+01
   9.735149e+00  -7.196374e+01
   4.327579e+01   2.603913e+01
  -2.899785e+01   7.589704e+01
  -1.163038e+02   1.453730e+01
  -1.192798e+02  -9.913632e+01
  -2.559523e+01  -1.798663e+02
   7.766345e+01  -8.524627e+01
   1.035706e+02  -2.620219e+00
   2.142116e+01   4.395569e+01
  -4.224917e+01  -1.793014e+01
  -1.563972e+01  -5.247808e+01
   7.847425e+01  -8.311510e+01
   1.353546e+02  -3.704583e+00
   9.345102e+01   1.400119e+02
  -6.980883e+00   1.345239e+02
  -1.129224e+02   8.843186e+01
  -1.328739e+02  -1.121192e+01
  -1.748359e+01  -6.767554e+01
   1.996635e+01  -4.886109e+01
   5.751372e+01  -2.369576e+01
  -2.864354e+01  -2.637960e-01
  -2.712956e+01   2.350396e-01
  -1.457387e+01  -2.896376e+01
   4.789341e+01   2.027152e+01
   7.826958e+01   5.962316e+01
   1.254135e+00   1.101788e+02
  -1.175107e+02   8.739808e+01
  -1.733290e+02  -3.983506e+00
  -1.523715e+02  -9.083904e+01
  -2.896454e+01  -1.668613e+02
   7.972483e+01  -1.259236e+02
   9.291135e+01  -3.600817e+01
   6.017327e+01   4.593897e+01
   4.225215e+01   4.742791e+01
   3.326399e+01  -2.672211e+01
   5.876186e+01  -2.424713e+01
   4.654500e+01   4.404385e+01
  -2.381563e+01   7.394718e+01
  -1.040943e+02   3.399073e+01
  -5.236168e+01  -4.850865e+01
  -4.936191e+00  -9.569977e+01
   1.180413e+02  -5.031415e+01
   1.690624e+02   6.372779e+01
   5.562440e+01   1.468045e+02
  -9.459281e+01   1.680737e+02
  -2.090671e+02   9.739398e+01
  -1.871815e+02  -7.307820e+01
  -7.562234e+01  -1.306320e+02
   1.589674e+01  -1.311248e+02
   4.995638e+01  -8.573349e+01
   9.431356e+01  -4.340094e+01
   6.872803e+01  -6.661659e+01
   7.545825e+01  -4.022688e+01
   1.226505e+02   3.406684e+01
   8.360523e+01   1.216992e+02
   2.175886e+01   1.648882e+02
  -8.681243e+01   1.224420e+02
  -1.121560e+02  -6.899869e+00
  -7.787822e+01  -1.208633e+02
   1.720807e+01  -1.301022e+02
   6.268615e+01  -5.675046e+01
   4.485381e+01   2.089511e+01
  -1.814276e+01   3.223498e+01
  -2.544591e+01   2.229417e+01
   2.451715e+01   3.555956e+01
   4.574214e+01   3.228574e+01
   2.021994e+01   5.693446e+01
  -5.607609e+01   5.017465e+01
  -1.362929e+02  -9.214232e+00
  -1.070467e+02  -5.878820e+01
   1.353956e+01  -7.410419e+01
   6.444318e+01  -4.574582e+01
   1.017999e+02  -2.354760e+01
   3.675036e+01   2.639334e+01
  -3.261083e+01   2.994020e+01
  -3.557263e+01   5.536745e+00
   1.178705e+01  -4.302372e+01
   6.093791e+01  -5.206322e+01
   5.355535e+01  -3.350212e+00
   3.895202e+01   4.026808e+01
   4.199428e+01   2.363691e+01
   3.597456e+01   1.403918e+01
   6.011893e+01   4.193570e+01
   2.229993e+01   2.839889e+01
  -4.136334e+01   1.098669e+02
  -7.877524e+01   9.835874e+01
  -1.296525e+02   2.756779e+01
  -7.056635e+01  -7.379062e+01
   1.111975e+00  -7.035861e+01
   6.381800e+01  -3.965391e+01
   3.882828e+01  -1.783134e+00
  -2.637494e+01   2.842551e+01
  -9.067269e+01  -6.346241e+01
  -3.944578e+01  -9.799748e+01
   1.122537e+02  -5.789730e+01
   1.299555e+02  -1.395060e+01
   1.014301e+02   4.059223e+01
   3.149560e+00   7.032151e+01
  -4.466916e+01   3.636098e+01
  -3.638447e+01  -1.355166e+00
   4.258265e+01  -3.160729e+01
   4.560046e+01   1.278010e+01
   3.666473e+00   7.877467e+01
  -4.334525e+01   1.046898e+02
  -9.427197e+01   6.283956e+01
  -8.385638e+01  -5.350631e+01
   1.248204e+01  -1.248571e+02
   4.462312e+01  -1.112186e+02
   6.944547e+01   9.767857e+00
   1.481873e+01   8.060873e+01
  -1.085813e+01   5.868668e+01
  -3.797250e+01   8.427830e+00
  -3.349514e+01  -7.892454e+00
  -2.417813e+01  -5.587982e+00
  -3.469370e+00   3.004756e+01
  -2.485020e+01  -2.857333e+01
  -3.608831e+01  -6.026747e+01
  -1.961560e+01  -9.055238e+01
   6.265825e+01  -2.246008e+01
   9.106908e+01   4.579151e+01
   9.120048e+01   6.213304e+01
   5.004766e+00   4.535713e+01
  -7.035525e+01   1.473840e+01
  -7.549992e+01   1.837087e+01
  -1.502473e+01  -2.254536e+01
  -3.134387e+00  -1.445452e+01
  -1.877833e+00  -2.111990e+01
   1.421497e+00   9.849813e+00
  -6.401524e+00  -1.079932e+01
   5.888956e+01  -2.869880e+01
   6.877642e+01   1.672721e+01
   2.950120e-01   5.360278e+01
  -9.394302e+01   8.118893e+01
  -1.349647e+02   4.491159e+01
  -1.304379e+02  -1.594186e+01
  -3.591620e+01  -1.231250e+02
   8.542971e+01  -1.010644e+02
   1.152989e+02  -5.056795e+01
   6.518480e+01   1.936577e+01
  -1.629673e+00   6.907989e+01
   1.293020e+01   8.565349e+00
   4.435858e-01   1.914406e+01
   3.597421e+01   5.392088e+01
  -6.575678e+00   8.504424e+01
  -2.085969e+01   5.279436e+01
  -4.796340e+01  -3.963189e+01
  -7.683317e+01  -5.832882e+01
  -5.980450e+00  -5.202678e+01
   3.437906e+01  -1.553504e+01
   7.436277e+01   7.262445e+01
   2.275798e+01   8.546700e+01
  -5.125608e+01   5.752929e+01
  -8.380317e+01  -1.236933e+01
  -8.951140e+00  -3.266122e+01
   5.142467e+01  -3.621157e+01
   3.334000e+01  -1.453526e+01
  -2.718095e+01   3.673969e+00
  -3.052777e+01  -2.441505e+01
   1.851028e+01  -2.590790e+01
   5.998878e+01  -4.420488e+01
   7.342048e+01  -6.447694e+00
   3.538558e+01   2.592444e+01
   6.510285e+00   5.843433e+01
  -4.463040e+01   4.770421e+01
  -2.042212e+01   1.838879e+01
  -3.421720e+01  -3.439448e+01
   3.607943e+01  -3.220191e+01
   7.022703e+00   5.487181e+00
   1.689845e+01   5.229948e+01
  -1.911366e+01   6.040836e+01
  -3.979240e+01   1.262545e+01
  -2.124150e+01  -3.304151e+01
  -2.214259e+01  -8.452823e+00
   1.102492e+01   2.480249e+01
   2.622193e+01   3.537095e+00
   7.856412e+00   6.996124e+00
   2.821108e+01  -6.228272e+01
   6.064267e+00  -2.156718e+01
   3.497726e+01   1.360826e+01
   8.660164e+00   6.291003e+01
  -2.219317e+01   5.471569e+00
  -5.927755e+01  -3.915801e+01
  -2.984464e-01  -2.946330e+01
   8.450295e+00  -3.781474e+01
   8.045031e+01   3.824046e+01
   4.053350e+01   5.140869e+01
  -3.028984e+01   3.148224e+01
  -6.202455e+01   2.160962e+01
  -3.596911e+01   5.627104e+00
   2.305745e+01  -5.060478e+00
   3.417405e+01  -1.726658e+01
  -2.984356e+01   2.909999e+01
  -3.475123e+01   4.857718e+01
