
 $NMID
 id='ANONYMOUS ', fmtdat='(2E16.6)'
 volume=1.0
 tramp=1.0
 $END
   2.559641e+03  -2.045192e+02
   1.803630e+03   8.524668e+02
   4.893697e+02   1.516642e+03
  -5.003291e+02   1.285283e+03
  -8.321972e+02   4.947310e+02
  -2.337675e+02  -1.806194e+01
   7.682094e+01  -5.784933e+01
   7.156398e+01   2.798239e+02
  -2.586014e+02   4.035216e+02
  -3.466296e+02   1.996418e+02
  -2.455147e+02  -2.204574e+02
  -1.868627e+02  -3.646147e+02
   1.156206e+02  -1.811372e+02
   2.069821e+02   1.922964e+02
   9.913574e+01   2.863215e+02
  -2.002238e+02   1.028483e+02
  -2.547085e+02  -2.485924e+02
  -3.245320e+01  -4.144451e+02
   3.175674e+02  -2.540658e+02
   3.497759e+02   5.652735e+01
   1.990249e+02   2.563601e+02
  -3.343054e+01   2.461162e+02
   1.615379e+00   1.352804e+02
   8.097394e+01   1.201470e+02
   1.780876e+02   1.687972e+02
  -3.535627e+01   2.008074e+02
  -3.118152e+02  -2.788800e+01
  -3.695810e+02  -8.614500e+01
  -1.398757e+02  -2.259847e+02
   1.679062e+02  -1.050603e+02
   3.192842e+02   6.520140e+01
   1.630063e+02   1.721535e+02
  -1.572137e+02   2.439493e+02
  -3.177057e+02   1.420277e+02
  -2.256323e+02   1.663259e+01
  -1.435927e+02  -1.610009e+02
  -1.035971e+02  -1.163833e+02
  -8.616880e+01   3.692573e+01
  -7.860069e+01   1.922825e+01
  -3.794346e+01  -8.096445e+01
   5.165496e+01  -2.497698e+02
   9.794359e+01  -2.965274e+02
   1.183832e+02   2.414658e+01
   1.305010e+02   1.929130e+02
  -3.593804e+01   6.707318e+01
  -5.528514e+01  -1.014179e+02
   7.338515e+01  -2.252982e+02
   2.839522e+02  -1.114327e+01
   3.148322e+02   2.025476e+02
   8.016165e+01   2.522876e+02
  -2.176608e+02   1.417361e+02
  -3.339832e+02  -5.429045e+00
  -2.682589e+02  -1.133157e+02
  -2.916617e+01  -1.745819e+02
   2.104410e+02  -1.189003e+02
   1.719016e+02  -5.448942e+01
   6.122049e+01  -5.253508e+00
   2.634027e+01  -2.204620e+01
   7.025497e+01  -2.108920e+01
   1.606982e+02   6.675976e+00
   1.378222e+02   1.312825e+02
  -8.447028e+01   1.962880e+02
  -2.483659e+02   1.167810e+02
  -1.947158e+02  -5.740054e+01
   1.287012e+01  -2.280342e+02
   2.128794e+02  -2.714527e+02
   2.381526e+02  -1.035988e+02
   1.694639e+02   6.722729e+01
   1.023933e+02   2.241366e+02
   4.392797e+01   2.570007e+02
   1.862005e+01   1.698086e+02
  -4.356064e+01   1.084359e+02
  -1.445924e+02   1.084525e+02
  -2.046936e+02   3.163045e+01
  -1.759909e+02  -7.286733e+01
  -7.059919e+01  -1.912642e+02
   8.435555e+01  -1.315276e+02
   1.045269e+02   3.972577e+01
   8.912938e+01   1.448545e+02
   1.203832e+01   1.581058e+02
  -1.771523e+02   5.219701e+01
  -2.180846e+02  -8.907034e+01
  -1.188547e+02  -1.916706e+02
   2.932531e+01  -2.001425e+02
   5.767983e+01  -1.582080e+02
   1.214753e+02  -1.072956e+02
   1.304142e+02  -4.977821e+01
   2.372875e+02  -3.283228e+01
   2.528946e+02   7.331689e+01
   2.307966e+02   2.106552e+02
  -3.181850e+00   2.583324e+02
  -2.519670e+02   2.833253e+02
  -3.120120e+02   1.399681e+02
  -1.806011e+02  -1.666585e+01
  -5.145808e+00  -1.336535e+02
   4.375984e+01  -1.671192e+02
  -1.687511e+01  -3.783279e+01
  -9.741911e+01  -1.411845e+01
  -7.874673e+01  -5.810325e+00
  -1.179741e+01  -1.249018e+02
   8.169185e+01  -8.669159e+01
   6.628783e+01   1.220851e+01
   7.208093e+00   6.840714e+01
  -6.664004e+01   9.883979e+00
  -1.268305e+02  -1.748055e+02
  -9.711630e+00  -2.474440e+02
   1.762099e+02  -1.542891e+02
   2.374957e+02   1.502998e+01
   2.246023e+02   1.431151e+02
   8.444180e+01   1.965108e+02
  -7.762848e+01   1.156850e+02
  -8.803925e+01   1.243377e+01
  -3.898893e+01  -1.649683e+01
   2.692903e+01   4.348972e+01
  -5.730745e+00   5.283717e+01
  -6.459114e+01   5.802324e+01
  -1.095340e+02   1.626176e+00
  -2.314045e+01  -6.248443e+00
   5.679531e+01   1.768417e+01
   5.838409e+01   5.338714e+01
  -9.104907e+01   5.277556e+01
  -1.914844e+02   3.417140e+00
  -1.822988e+02  -1.020153e+02
  -2.074301e+01  -1.721997e+02
   1.430284e+02  -1.501099e+02
   1.678677e+02  -5.993659e+01
   7.726687e+01   1.447408e+01
  -1.927935e+01   7.055715e+01
  -5.363298e+01  -2.490975e+00
   2.771352e+01  -4.505110e+01
   1.447067e+02  -2.601480e+01
   1.129159e+02   5.518167e+01
   4.086851e+01   1.070892e+02
  -2.900488e+01   9.607934e+01
  -8.014544e+01   2.835116e+01
  -2.040289e+01  -4.550831e-01
   2.882943e+01   3.937194e+01
   1.186709e+01   9.115360e+01
  -7.268935e+01   7.888253e+01
  -1.626171e+02  -4.618980e+00
  -1.052234e+02  -9.451703e+01
  -3.700357e+01  -1.306045e+02
   1.020218e+02  -9.733367e+01
   1.285434e+02  -1.130305e+01
   4.238496e+01   4.265338e+01
  -4.638615e+01   4.655286e+01
  -5.149822e+01   4.662694e+01
   1.973641e+01  -1.290516e+01
   3.167366e+01  -3.222161e+00
  -2.114838e+01   1.500570e+01
  -6.394107e+01   6.298449e+00
  -7.749405e+01  -6.845170e+01
  -1.131972e+01  -1.239054e+02
   9.561281e+01  -1.229627e+02
   1.588502e+02  -1.816250e+01
   1.301152e+02   1.377212e+02
   4.460887e+00   1.707069e+02
  -6.684453e+01   8.859131e+01
  -6.536451e+01   3.445006e+01
  -4.914407e+01  -1.875519e+01
  -5.133333e+01  -1.081407e+01
  -3.261851e+01   1.133438e+01
  -8.415970e+01  -1.408814e+01
  -4.947652e+01  -3.481866e+01
   3.199330e+01  -8.748048e+01
   1.083552e+02  -6.101323e+01
   8.860755e+01   3.165515e+01
  -3.579651e+01   8.712078e+01
  -9.163098e+01   5.212491e+01
  -1.415633e+02  -5.491172e+01
  -2.324162e+01  -1.606845e+02
   1.219341e+02  -1.608389e+02
   2.118980e+02  -6.408097e+01
   1.907733e+02   3.476922e+01
   9.046354e+01   9.804237e+01
   9.418853e+00   9.940599e+01
  -5.156819e+01   9.515533e+01
  -3.066879e+01   2.814664e+01
  -2.370366e+01   8.111959e+01
  -8.332348e+01   4.370211e+01
  -7.419801e+01  -1.095016e+01
  -1.100013e+02  -1.101939e+02
  -1.981121e+01  -1.412725e+02
   6.233645e+01  -1.086219e+02
   1.253717e+02  -1.084533e+00
   1.010111e+02   8.143168e+01
   3.950976e+01   6.852230e+01
  -8.137029e+00   6.883689e+01
  -1.461969e+01  -2.613581e+01
  -5.289566e+00  -2.206347e+01
   1.447620e+01  -3.467944e+01
  -8.954246e+00   3.082610e+00
  -7.886234e+01   1.005077e+00
  -1.394305e+01  -2.425804e+01
   4.830040e+01  -2.755046e+01
   1.127260e+02  -6.321478e+00
   8.003173e+01   2.851781e+01
  -1.001706e+01   6.568397e+01
  -9.048165e+01   3.547380e+01
  -1.069895e+02   1.197998e+01
  -1.053591e+01  -3.628952e+01
   6.240081e+01  -1.319968e+01
   4.444143e+01  -7.855774e-01
  -1.980565e+01   5.204328e+01
  -2.666299e+01   4.822023e+01
  -2.959345e+01   5.517451e+00
  -1.865719e+01  -3.771379e+01
  -4.172204e+01  -1.104558e+01
  -4.870098e+01   1.895106e+01
  -3.206194e+01  -2.746395e+01
  -4.117713e+01  -8.031641e+01
  -1.095682e+01  -1.057360e+02
   8.848334e+01  -1.067987e+02
   9.368692e+01  -2.310114e+01
   8.327469e+01   8.272384e+01
   3.742504e+00   7.956323e+01
  -7.247922e+01   2.416441e+01
  -4.832060e+01  -1.171466e+01
   3.663430e+01  -3.386614e+01
   8.383595e+01   1.976407e+01
   4.824259e+01   7.860475e+01
  -5.404109e+01   7.746272e+01
  -1.206464e+02   3.985599e+01
  -1.238698e+02  -1.139759e+01
  -2.481163e+01  -7.898522e+01
   5.497829e+01  -3.098841e+01
   2.822902e+01   1.784767e+01
  -2.387598e+01   1.805056e+01
  -5.886958e+01   2.855599e+01
  -5.765846e+01  -7.250881e+01
   6.114050e+01  -1.399460e+02
   9.544062e+01  -5.251762e+01
   9.178265e+01   4.224740e+01
   2.764957e+01   1.347311e+02
  -5.929476e+01   1.114003e+02
  -6.935973e+01   2.457605e+01
  -4.966665e+01  -9.012966e+01
  -4.661348e+01  -6.684744e+01
   2.024469e+01  -2.819948e+00
   2.496289e+01   1.044446e+01
  -6.171968e+00  -3.341038e+00
  -1.638578e+01  -6.367487e+00
   3.179977e+01   2.162734e+01
   3.299679e+01   5.399358e+01
   5.386504e+01   8.224344e+01
  -2.411985e+01   1.745194e+01
  -9.050436e+01  -3.607728e+01
  -5.007786e+01  -3.480814e+01
  -1.341174e+01  -2.556294e+01
   7.633737e+01  -1.168165e+01
   4.910955e+01  -2.596879e+01
   3.324930e+01   9.065292e+00
   7.832739e-01  -2.732945e+00
  -1.734230e+01   2.186427e+01
   1.683161e+01  -7.614304e+00
   7.102591e+00   1.427831e+01
  -4.539421e+01  -2.213376e+01
  -7.650653e+01   1.282196e+01
  -1.652494e+01  -5.450820e+01
   7.499615e+01  -1.074024e+02
   1.212693e+02  -6.000271e+01
   1.078405e+02   4.958204e+01
   2.044998e+01   1.262859e+02
  -4.411619e+01   1.014089e+02
  -7.293457e+01   6.122532e+01
  -3.861191e+01  -1.855661e+01
  -3.011987e+00  -1.585604e+01
  -1.629976e+01   1.143314e+01
  -4.283077e+01  -1.968333e+01
  -3.794178e+01  -4.254683e+01
   1.481724e+01  -4.063168e+01
   4.741367e+00  -3.836370e+01
   5.519177e+01   8.000024e+00
   4.341298e+01   9.341477e+01
   9.604294e-01   5.026936e+01
  -3.738525e+01   2.969792e+01
  -6.261945e+01  -2.613591e+01
  -3.913685e+01  -5.255695e+01
   3.996535e+01  -6.632282e+01
   9.670336e+01   1.481481e+01
   6.545572e+01   6.412666e+01
  -7.912854e+00   1.560132e+01
   6.459181e+00   2.755773e+01
   1.031429e+01  -2.575728e+01
   5.240664e+01  -1.995726e+01
   2.853984e+01  -6.885239e+00
  -7.437439e+01   3.121917e+01
  -4.702665e+01   6.981502e+01
  -3.937636e+01   1.324800e+01
   1.011775e+01  -8.048764e+01
   3.477183e+01  -5.876803e+01
   2.320554e+01  -9.506861e+00
   9.825705e-01   3.964299e+01
   9.401903e+00   3.052664e+01
  -4.765859e+01  -8.408094e+00
  -4.426836e+01  -1.303566e+01
   1.560988e+00  -3.767197e+01
   3.279048e+01  -1.705207e+01
   3.668250e+01  -9.739198e+00
   1.477674e+01  -1.452662e+01
  -1.312940e+01  -2.453448e+01
  -2.122043e+01  -1.356112e+01
  -2.693228e+00   2.417266e+01
   2.944230e+01   3.728862e+01
  -9.672802e+00  -1.874185e+01
  -3.087356e+01  -3.035465e+01
  -3.608287e+01  -4.119966e+01
   4.571399e+01   6.877767e+00
   5.947626e+01   5.921212e+00
  -1.266115e+01   4.253994e+01
  -8.760682e+00   1.887802e+01
  -8.180888e+01   8.262921e+00
  -6.220211e+01  -2.893111e+01
   4.901316e+00  -3.384330e+01
   2.731266e+01  -3.889760e+01
   2.923614e+01  -1.478886e+01
  -1.295099e+01   4.994421e+00
   5.021388e+00   1.234695e-01
   2.908273e+01  -2.983734e+01
   5.688129e+01  -3.409922e+01
