
 $NMID
 id='ANONYMOUS ', fmtdat='(2E16.6)'
 volume=1.0
 tramp=1.0
 $END
  -2.060536e+03   1.989076e+02
  -1.377621e+03  -7.768005e+02
  -4.755211e+02  -1.311878e+03
   5.159952e+02  -9.360479e+02
   6.061296e+02  -5.126340e+02
   2.262967e+02  -1.201912e+02
   1.431699e+01  -3.366547e+01
   8.313413e+01  -1.677776e+02
   1.738717e+02  -2.779893e+02
   2.461385e+02  -1.673404e+02
   2.435837e+02   1.727805e+02
   2.005033e+02   3.421904e+02
  -3.053953e+01   1.641542e+02
  -1.192513e+02  -1.691768e+02
  -3.081210e+01  -3.184917e+02
   1.252738e+02  -9.545085e+01
   1.651333e+02   2.064931e+02
   4.363517e+01   3.654002e+02
  -2.391328e+02   2.086161e+02
  -2.791971e+02   1.243982e+00
  -1.672485e+02  -1.914450e+02
   1.197014e+01  -2.399192e+02
   3.051569e+01  -1.412443e+02
  -7.563827e+01  -1.220753e+02
  -1.565483e+02  -2.065527e+02
   7.626160e-01  -1.948741e+02
   2.547165e+02  -1.860066e+01
   3.468654e+02   5.974076e+01
   1.241670e+02   1.642215e+02
  -1.923579e+02   1.330028e+02
  -2.871739e+02  -6.267252e+01
  -1.672345e+02  -2.152255e+02
   1.343013e+02  -2.255024e+02
   2.855178e+02  -6.640465e+01
   2.213560e+02   4.490924e+01
   1.558929e+02   1.507259e+02
   8.620362e+01   1.315756e+02
   7.844376e+01  -3.187311e+01
   9.405339e+01  -2.597289e+01
   4.633516e+01   8.593702e+01
  -3.067387e+01   2.313679e+02
  -9.102300e+01   2.205915e+02
  -1.202823e+02   1.671356e+01
  -6.741075e+01  -1.691876e+02
   2.530805e+00  -5.614005e+01
   5.743407e+01   1.300605e+02
  -1.003570e+02   1.945263e+02
  -2.413458e+02   1.280189e+01
  -2.681112e+02  -1.909915e+02
  -1.178596e+02  -2.157989e+02
   2.084533e+02  -1.304932e+02
   2.949780e+02   2.249103e+00
   2.095606e+02   9.304806e+01
   1.149203e+01   8.010426e+01
  -1.833510e+02   6.337940e+01
  -1.795122e+02   5.660914e+01
  -6.484839e+01   3.520760e+01
  -1.872532e+01  -8.743380e+00
  -7.043758e+01   7.421303e+00
  -1.582347e+02  -5.124399e+01
  -7.566947e+01  -1.124711e+02
   8.146991e+01  -1.422556e+02
   2.064859e+02  -1.175481e+02
   1.741204e+02   2.806749e+00
  -7.026486e+00   1.783003e+02
  -1.829714e+02   2.951648e+02
  -2.278881e+02   1.040896e+02
  -1.589811e+02  -7.410554e+01
  -4.770611e+01  -2.216610e+02
  -4.887055e+01  -2.321588e+02
  -1.275280e+01  -1.571497e+02
   2.645447e+01  -6.993620e+01
   1.466955e+02  -1.122161e+02
   1.643486e+02  -4.939764e+01
   1.765396e+02   1.041305e+02
   4.394860e+01   2.052697e+02
  -7.942364e+01   1.223282e+02
  -1.080042e+02  -2.475879e+01
  -7.209387e+01  -1.911181e+02
   2.763975e+01  -2.057911e+02
   1.324055e+02  -3.565811e+01
   2.352187e+02   5.876549e+01
   1.378306e+02   1.618291e+02
   9.900090e+00   1.787648e+02
  -6.911251e+01   9.890109e+01
  -1.220005e+02   9.015145e+01
  -1.270112e+02   6.319971e+01
  -2.364304e+02   2.806020e+01
  -2.438101e+02  -8.453602e+01
  -1.854053e+02  -1.852126e+02
  -5.921016e+00  -2.785469e+02
   2.594427e+02  -2.634638e+02
   3.244777e+02  -1.342519e+02
   1.689255e+02   8.073587e+00
   9.931705e-01   1.339251e+02
  -3.415874e+01   1.356038e+02
   3.773466e+01   2.763834e+01
   1.135282e+02   1.395205e+01
   3.849310e+01   5.007558e+01
   7.597158e+00   9.353018e+01
  -8.125265e+01   6.774489e+01
  -7.471000e+01  -3.404145e+01
  -6.268839e+00  -7.262298e+01
   8.928964e+01   4.976409e+01
   6.127529e+01   1.299844e+02
  -1.317507e+01   2.403179e+02
  -1.592176e+02   1.211108e+02
  -2.521033e+02  -3.870180e+01
  -1.801721e+02  -1.775523e+02
  -6.278035e+01  -1.732934e+02
   3.111176e+01  -1.091414e+02
   1.062525e+02  -2.357765e+01
   1.968233e+01   4.797535e+00
  -2.792317e+01  -5.875243e+01
   6.099023e+00  -7.721383e+01
   5.730828e+01  -4.273318e+01
   9.446089e+01  -1.043244e+01
   3.894863e+01   6.694848e+00
  -1.932463e+01  -3.825226e+01
  -1.486932e+00  -6.339864e+01
   1.194338e+02  -4.039962e+01
   2.349598e+02   2.543567e+01
   1.754328e+02   1.265507e+02
   1.587027e+00   1.787897e+02
  -1.671602e+02   1.499356e+02
  -1.504319e+02   7.822397e+01
  -8.749554e+01   1.781481e+01
   2.068812e+00  -3.476537e+01
   3.909442e+01  -5.998226e+00
  -7.690902e+00   4.382348e+01
  -9.957680e+01   1.664932e+01
  -1.211162e+02  -5.511878e+01
  -4.803585e+01  -1.036273e+02
   6.425169e+01  -8.809131e+01
   8.270227e+01  -1.593477e+01
   4.624744e+01   1.020525e+01
  -2.246369e+01  -3.196677e+00
  -1.284610e+01  -8.860740e+01
   6.649149e+01  -7.579585e+01
   1.158767e+02   1.047290e+00
   1.002647e+02   9.296135e+01
   1.979525e+01   1.022451e+02
  -8.920799e+01   9.063583e+01
  -1.066235e+02   1.596716e+01
  -6.765134e+01  -4.874123e+01
   3.783549e+01  -2.796220e+01
   2.384969e+01  -7.898345e+00
  -3.416391e+01   1.348505e+01
  -1.791154e+01   1.573445e+01
  -2.212858e+01  -1.302403e+01
   4.585451e+01  -1.197289e+01
   6.932552e+01   6.272456e+01
   1.434040e+00   1.133121e+02
  -9.954115e+01   9.266133e+01
  -1.310766e+02   6.504530e+00
  -1.362559e+02  -1.260924e+02
  -8.089668e-01  -1.417830e+02
   2.146747e+01  -7.610409e+01
   7.357818e+01  -6.278503e+00
   4.893484e+01   6.891168e-01
   2.781301e+01   2.430113e+00
   5.185876e+01  -2.796436e+01
   5.707191e+01  -3.382353e+01
   1.181267e+01   1.825496e+01
  -4.089117e+01   6.466983e+01
  -8.645573e+01   7.272062e+01
  -7.254189e+01  -2.248487e+01
   1.679055e+01  -8.554001e+01
   7.189609e+01  -4.343620e+01
   1.317120e+02   5.587706e+01
   1.525563e+01   1.578917e+02
  -9.876518e+01   1.575619e+02
  -1.755080e+02   6.571135e+01
  -1.905147e+02  -3.778600e+01
  -8.813341e+01  -1.084251e+02
   3.200035e+01  -1.248588e+02
   8.142260e+01  -7.583389e+01
   3.331281e+01  -8.840926e+01
   2.521635e+01  -6.267137e+01
   4.838073e+01  -6.590748e+01
   9.038865e+01   1.466910e+01
   7.780690e+01   1.044302e+02
   1.297032e+01   1.130921e+02
  -4.650756e+01   1.182836e+02
  -8.800231e+01   2.865424e+01
  -1.005435e+02  -5.245004e+01
  -3.125816e+01  -8.876349e+01
   3.157765e+01  -6.876543e+01
   2.741745e+01   7.949634e+00
   1.247769e+01   5.227660e+01
  -2.589874e+00   5.747295e+01
   3.517301e+01   7.092232e+00
   6.521323e+01   3.367752e+01
   3.104733e+01   2.720439e+01
  -4.355511e+01   9.437252e+00
  -1.214922e+02  -2.877162e+00
  -9.045448e+01  -1.439811e+01
   9.464180e+00  -5.055678e+01
   7.890886e+01  -2.895383e+01
   8.594367e+01  -4.124547e+01
   1.267937e+01   1.988140e+01
  -3.357689e+00   1.569416e+01
  -4.282298e+01   6.134580e+00
  -1.644782e+00  -4.717472e+01
   4.970388e+01  -3.848463e+01
   4.798808e+01  -9.865470e+00
   3.549932e+01   6.775268e+01
   1.904848e+01   3.243149e+01
   4.012930e+01   2.556423e+01
   2.741649e+01  -1.851605e+00
   3.345664e+01   6.741163e+01
  -3.082499e+01   8.947056e+01
  -1.125274e+02   1.052567e+02
  -1.017016e+02   5.131932e+01
  -6.188305e+01  -7.220443e+01
  -2.302360e+00  -6.726778e+01
   7.113379e+01  -3.521883e+01
   3.073950e+01   8.433817e+00
  -3.905648e+01  -2.154965e+01
  -6.684375e+01  -6.202688e+01
  -4.603664e+01  -7.703207e+01
   7.384366e+01  -7.564878e+01
   1.261883e+02  -2.474483e+01
   9.908161e+01   1.451154e+01
   2.807224e+01   6.331784e+01
  -3.659849e+01   3.977759e+01
  -5.474116e+01  -1.144626e+00
   4.101928e+01  -3.444210e+01
   7.343338e+01   2.961774e+01
   4.402484e+01   8.597733e+01
  -6.000131e+01   1.136363e+02
  -4.818087e+01   3.116583e+01
  -9.214629e+01  -4.733205e+01
  -5.552180e+00  -1.120069e+02
   4.765667e+01  -1.087467e+02
   2.361976e+01   1.402882e+01
   5.556414e+01   1.016365e+02
   2.024328e+01   5.374670e+01
  -4.167571e+01   1.549372e+01
  -4.942068e+01  -1.847217e+01
  -2.535595e+01  -5.680846e+00
   1.811341e+01   2.150726e+01
  -3.259720e+01  -1.778499e+01
  -3.597012e+01  -7.245422e+01
  -1.035289e+01  -9.199535e+01
   3.070002e+01  -3.789463e+01
   1.196929e+02   3.678916e+01
   1.104207e+02   2.635211e+01
   5.157177e+00   5.256336e+01
  -6.409779e+01   5.943456e+01
  -7.199647e+01   3.466097e+01
  -3.840471e+01  -2.359563e+01
   4.257862e+00   1.515471e+01
   3.523158e+01  -1.823815e+01
  -2.778952e+01   2.490951e+01
  -9.486855e-01  -2.881803e+01
   3.767975e+01  -1.115716e+01
   8.546477e+01  -2.920976e+01
   6.372103e+00   9.751367e+00
  -6.186512e+01   8.453568e+01
  -1.116600e+02   3.904100e+01
  -9.454413e+01  -2.667170e+01
  -2.999849e+01  -9.488651e+01
   6.983012e+01  -1.038450e+02
   8.793261e+01  -6.597683e+01
   4.310278e+01   1.779653e+01
   9.184179e+00   5.543429e+00
   1.738844e+01  -1.076192e+01
   1.750750e+01   2.136323e+01
   2.934355e+01   4.505149e+01
   1.413899e+01   3.656310e+01
  -6.466887e+00   2.676862e+01
  -3.522252e+01  -8.584003e+00
  -5.691729e+01  -6.694474e+01
  -1.235585e+01  -4.155150e+01
   5.122173e+01  -1.732749e+01
   3.748645e+01   7.983199e+00
   4.233044e+01   8.974374e+01
  -4.205132e+01   3.993068e+01
  -8.884347e+01   9.440670e+00
  -3.928684e+01  -3.727874e+01
   1.714613e+01  -3.003920e+01
   7.296855e+00  -2.819523e+01
  -4.184726e+01   4.806462e+00
  -2.636204e+01  -8.435461e+00
  -3.469389e+01  -3.992225e+01
   4.985305e+01  -2.756300e+01
   6.620431e+01  -6.880295e+01
   5.627428e+01   5.604482e+00
  -1.028779e+01   5.312675e+01
  -3.574150e+01   6.774668e+01
  -1.557211e+01   7.194522e+00
  -1.267662e+01  -1.334701e+01
  -1.393704e+01  -3.576911e+01
   2.937617e+01   1.277953e+01
   3.471202e+01   3.167969e+01
  -1.108193e+01   5.027525e+01
  -6.736997e+00  -7.628174e+00
  -2.857330e+01  -7.068746e+00
  -2.012308e+01   9.778818e-01
   1.547752e+01   1.542430e+01
   2.506045e+01  -2.055046e+01
  -1.989013e+01  -1.819339e+01
  -1.392891e+01  -7.160120e+01
  -1.401140e+00  -4.277202e+01
   5.018442e+01   1.976070e+01
   9.289636e+00   3.154440e+00
  -1.155782e+01   2.648870e+01
  -3.867872e+01  -2.486444e+01
  -1.133643e+00  -5.440606e+01
   4.825403e+01  -2.641327e+01
   9.163253e+01  -6.375571e+00
   7.085566e+01   4.341540e+01
   2.493144e+00   2.707777e+01
  -5.089011e+01   2.087264e+01
  -2.981817e+01   3.443758e+01
  -6.292185e+00   2.675575e+01
   3.788212e+01   1.130443e+01
  -8.932293e+00   2.085685e+01
  -5.669330e+01   1.182366e+01
