
 $NMID
 id='ANONYMOUS ', fmtdat='(2E16.6)'
 volume=1.0
 tramp=1.0
 $END
  -2.994240e+03  -1.967328e+02
  -1.844944e+03  -1.417194e+03
  -6.504585e+01  -1.537805e+03
   1.109187e+03  -9.863216e+02
   8.027904e+02  -2.924050e+02
   1.776451e+02   9.637747e+00
  -1.915411e+02  -8.933186e+01
  -8.495027e+01  -3.240000e+02
   4.057056e+02  -4.722171e+02
   5.583760e+02  -1.316481e+02
   4.503993e+02   4.843437e+02
   2.714467e+01   6.141931e+02
  -3.166656e+02   1.870029e+02
  -2.416497e+02  -3.842175e+02
   1.194323e+02  -5.373218e+02
   4.868352e+02  -1.066355e+02
   3.027632e+02   4.667942e+02
  -1.056631e+02   5.596710e+02
  -4.390471e+02   2.356642e+02
  -3.801166e+02  -1.886022e+02
  -1.019690e+02  -3.117789e+02
   1.449868e+02  -2.409250e+02
   9.624058e+01  -7.960674e+01
  -1.588262e+02  -6.953398e+01
  -2.532394e+02  -2.855791e+02
   2.016713e+01  -3.823786e+02
   3.977070e+02  -1.342572e+02
   6.029967e+02   2.368460e+02
   2.120165e+02   3.971820e+02
  -3.950259e+02   2.257855e+02
  -4.527622e+02  -1.770429e+02
  -1.367745e+02  -3.598659e+02
   2.847878e+02  -3.186092e+02
   4.049678e+02  -6.354522e+01
   2.894143e+02   1.752657e+02
   8.963549e+01   3.461095e+02
  -2.437646e+01   1.448098e+02
   6.796873e+01  -8.674356e+01
   1.724225e+02  -1.463821e+02
   2.362197e+02   1.582608e+02
   5.682981e+00   5.008348e+02
  -2.615630e+02   3.936981e+02
  -3.523834e+02   2.741864e+00
  -9.919769e+01  -2.994043e+02
   1.116873e+02  -1.770065e+02
   1.657291e+02   2.306130e+02
  -1.185469e+02   3.193962e+02
  -4.017751e+02   6.672361e+01
  -4.574671e+02  -3.388633e+02
  -1.180927e+02  -4.592892e+02
   3.029184e+02  -2.009013e+02
   4.608607e+02   8.778050e+01
   3.398628e+02   2.492785e+02
  -2.357564e+01   1.893398e+02
  -2.541211e+02   1.074616e+02
  -2.339785e+02  -8.157333e+01
   1.205491e+01  -1.771631e+01
   6.576422e+01   4.792933e+01
  -6.771857e+01   5.297323e+01
  -2.196583e+02  -4.942292e+01
  -1.361201e+02  -1.611590e+02
   8.552630e+01  -2.246512e+02
   3.022846e+02  -1.266605e+02
   2.523555e+02   8.673967e+01
   5.474302e-01   2.968157e+02
  -2.842843e+02   3.273498e+02
  -3.279320e+02   9.162345e+01
  -1.885659e+02  -2.207365e+02
   1.564707e+01  -3.468708e+02
   5.658668e+01  -2.958802e+02
   3.146170e+01  -1.079490e+02
   8.786896e+00  -6.472093e+01
   1.352563e+02  -1.233601e+02
   2.438615e+02  -7.432131e+01
   2.040688e+02   1.077254e+02
   8.992556e+01   2.681812e+02
  -9.314312e+01   1.649396e+02
  -1.762813e+02  -3.193711e+01
  -9.933541e+01  -2.263242e+02
   4.426447e+01  -2.209519e+02
   2.373563e+02  -2.014556e+01
   2.761493e+02   1.663377e+02
   1.421887e+02   2.976365e+02
  -7.011278e+01   2.426468e+02
  -1.329789e+02   1.040585e+02
  -1.169635e+02   6.521536e+01
  -1.160634e+02   7.239558e+01
  -2.507238e+02   4.628304e+01
  -3.688359e+02  -8.599683e+01
  -2.768736e+02  -3.032612e+02
   3.956750e+01  -4.167483e+02
   4.082376e+02  -4.039815e+02
   4.230269e+02  -1.115678e+02
   2.842730e+02   1.349443e+02
  -3.515273e+01   2.681596e+02
  -1.175684e+02   1.939231e+02
  -6.968741e+00   1.120818e+01
   1.389615e+02  -3.716119e+01
   1.408830e+02   7.008462e+01
   4.778818e+00   1.874471e+02
  -1.036972e+02   9.948521e+01
  -1.217752e+02  -6.926975e+01
   2.659555e+01  -1.510268e+02
   1.424521e+02   4.596766e+00
   8.035514e+01   2.030335e+02
  -2.728579e+01   2.651291e+02
  -2.197915e+02   1.640592e+02
  -3.398257e+02  -9.069324e+01
  -2.154348e+02  -3.064018e+02
  -3.483762e+01  -2.816708e+02
   1.392442e+02  -1.145341e+02
   1.389024e+02   2.141658e+01
   2.572417e+01   2.024130e+01
  -4.062399e+01  -7.947798e+01
   1.870191e+01  -9.055508e+01
   1.325816e+02  -4.559389e+01
   1.354015e+02   5.280485e+01
  -5.757301e-01   5.355375e+01
  -5.350198e+01  -5.801490e+00
  -2.883085e+01  -1.281481e+02
   1.426581e+02  -6.301608e+01
   2.800138e+02   5.996210e+01
   2.701239e+02   1.690147e+02
   8.643662e+00   2.572650e+02
  -1.819832e+02   2.131309e+02
  -2.765356e+02   9.439240e+01
  -1.391129e+02  -5.960577e+01
   3.960652e+01  -6.674101e+01
   4.575277e+01   2.749120e+01
  -4.563585e+01   8.889694e+01
  -1.625878e+02   1.570106e+01
  -1.864109e+02  -1.279789e+02
  -5.100392e+01  -1.872820e+02
   9.523201e+01  -1.155659e+02
   1.377834e+02   1.241548e+01
   2.759885e+01   1.791999e+01
  -2.802370e+01  -2.004026e+01
  -2.516724e+01  -1.198819e+02
   1.150498e+02  -1.323533e+02
   1.689736e+02  -3.302132e+01
   1.875849e+02   1.415864e+02
   1.034291e+00   1.869892e+02
  -1.685160e+02   1.151462e+02
  -1.481587e+02   2.292894e+00
  -2.789983e+01  -8.839068e+01
   8.435531e+01  -5.811294e+01
   5.620570e+01   3.302463e+00
  -1.242379e+01   1.695030e+01
  -5.345375e+01  -2.553778e+01
   1.603023e+01  -1.871069e+01
   1.205553e+02  -1.256721e+01
   1.050981e+02   9.514945e+01
  -2.564798e+01   1.630701e+02
  -1.516535e+02   1.485159e+02
  -2.178475e+02  -1.515679e+00
  -1.833956e+02  -2.156410e+02
   9.286667e+00  -2.022363e+02
   9.926087e+01  -1.051542e+02
   1.275779e+02  -4.827398e+01
   7.173401e+01   5.466962e+01
   2.525661e+01   3.810721e+01
   5.995516e+01  -2.763535e+01
   7.143756e+01  -4.240847e+01
   6.981597e+01   3.528889e+01
  -3.859482e+01   8.615803e+01
  -1.223312e+02   6.003239e+01
  -9.989721e+01  -2.559161e+01
   2.763066e+01  -1.231069e+02
   1.612525e+02  -7.935089e+01
   1.828949e+02   7.979541e+01
   3.649556e+01   1.817894e+02
  -1.070184e+02   2.120878e+02
  -2.816493e+02   4.279608e+01
  -2.304092e+02  -1.183673e+02
  -7.083483e+01  -1.606459e+02
   6.940793e+01  -1.280012e+02
   9.838131e+01  -4.127220e+01
   7.056114e+01  -5.735611e+01
   6.278064e+01  -5.011860e+01
   7.345930e+01  -7.506178e+01
   1.285859e+02   1.079552e+01
   1.010134e+02   1.644016e+02
   4.338515e+00   2.284930e+02
  -1.148690e+02   1.588194e+02
  -1.454608e+02   1.188177e+01
  -9.966908e+01  -1.091642e+02
   3.742722e+00  -1.556659e+02
   6.313241e+01  -8.230113e+01
   5.098219e+01   4.153740e+01
  -2.179764e+00   4.072571e+01
  -1.197749e+01   4.506926e+01
   7.770751e+00   8.606041e+00
   8.119014e+01   3.100376e+01
   5.374099e+01   5.756576e+01
  -6.407287e+01   6.514761e+01
  -1.614457e+02   2.820720e+00
  -1.352181e+02  -6.588424e+01
   7.451723e+00  -1.007056e+02
   1.314925e+02  -6.174291e+01
   1.340757e+02   1.152862e+01
   8.428583e+01   5.296747e+01
  -4.154734e+01   4.872640e+01
  -7.837030e+01  -1.224700e+01
  -2.500349e+01  -5.298977e+01
   2.227350e+00  -5.147058e+01
   8.452445e+01  -3.972759e+00
   7.351117e+01   3.483493e+01
   3.607894e+01   3.688175e+01
   4.449007e+01  -7.714316e+00
   6.751040e+01  -3.385647e+00
   1.761132e+01   7.826796e+01
  -3.248089e+01   1.404327e+02
  -9.116461e+01   1.236950e+02
  -1.533669e+02   3.941663e+01
  -1.254093e+02  -8.325461e+01
   1.259438e+01  -1.271471e+02
   5.583153e+01  -5.356455e+01
   5.464540e+01  -9.556327e+00
  -7.933227e+01  -9.492398e+00
  -1.440047e+02  -3.634936e+01
  -7.533973e+01  -9.828761e+01
   7.677250e+01  -1.147358e+02
   1.936239e+02  -2.302942e+01
   1.414093e+02   6.404809e+01
   4.838852e+01   7.030076e+01
  -4.223173e+01   4.305862e+01
  -3.615023e+01   4.598848e+00
   3.395063e+01  -2.383864e+01
   6.178684e+01   8.617518e+00
   3.840109e+01   8.548132e+01
  -6.964668e+01   1.516096e+02
  -1.362968e+02   7.336041e+01
  -1.456561e+02  -7.435873e+01
  -1.398664e+01  -1.632513e+02
   1.098703e+02  -1.431253e+02
   1.107596e+02   2.532961e+01
   2.493279e+01   1.202659e+02
  -4.599308e+01   1.122830e+02
  -6.834104e+01  -1.199145e+01
  -3.632652e+01  -5.278945e+01
   2.083366e+00  -2.696144e+01
  -1.598377e+01   2.575961e+01
  -3.138740e+01  -1.418518e+01
  -5.483860e+01  -6.171106e+01
  -5.790557e+01  -1.041138e+02
   3.876969e+01  -5.468592e+00
   1.274876e+02   3.125251e+01
   1.345201e+02   8.040286e+01
   1.373086e+01   5.055671e+01
  -7.415342e+01   2.239381e+01
  -8.555924e+01  -1.545878e+01
  -1.373551e+01  -1.226532e+00
  -6.160021e+00  -2.244917e+01
   2.299540e+01   1.921135e+01
  -5.860105e+00   2.035667e+01
   3.105110e+01   5.818065e+00
   5.287674e+01   2.454450e+01
   1.051621e+02   2.202511e+01
   4.168317e+00   8.849141e+01
  -1.079572e+02   1.068741e+02
  -1.765767e+02   4.236951e+01
  -1.472113e+02  -6.520577e+01
  -2.546784e+01  -1.472886e+02
   1.009867e+02  -1.254460e+02
   1.334429e+02  -7.840799e+01
   5.596272e+01   1.048633e+00
   1.174515e+01   2.138843e+01
   2.425009e+01  -5.531716e+00
   3.987268e+01  -1.375275e+00
   2.835297e+01   5.343524e+01
   2.435733e+01   1.120231e+02
  -5.851772e+01   6.324906e+01
  -6.738236e+01  -1.054380e+01
  -8.518454e+01  -9.189861e+01
   1.546043e+01  -1.041284e+02
   6.736729e+01  -1.574089e+01
   7.049054e+01   3.550866e+01
   3.514987e+01   1.294543e+02
  -8.875236e+01   5.009551e+01
  -1.133633e+02  -2.697902e+01
  -4.076530e+01  -7.552959e+01
   2.886819e+01  -4.311383e+01
   4.883825e+01  -2.705142e+01
  -3.349404e+01   7.213016e-01
  -4.912585e+01  -3.007994e+00
  -1.436739e+01  -3.273975e+01
   8.987195e+01  -7.593418e+01
   1.195844e+02  -3.530123e+01
   7.729684e+01   4.374965e+00
  -7.433190e+00   8.686320e+01
  -8.131982e+01   9.390666e+01
  -2.538232e+01  -2.551830e+00
  -1.147475e+01  -6.842087e+01
   1.821514e+01  -2.993638e+01
   3.859736e+01   2.675080e+01
   8.305265e+00   6.275002e+01
   3.563557e+00   4.252109e+01
  -2.277644e+01  -9.753701e+00
  -5.122531e+01  -4.810722e+01
   4.034606e+00  -3.746362e+00
   2.585393e+01   1.288688e+01
   1.214510e+01  -2.921802e+01
   5.741063e+00  -3.533651e+01
   1.738849e+00  -2.113606e+01
   6.360407e+00   2.081119e+00
   4.234754e+01   1.979208e+01
   2.095341e+01   7.658875e+01
  -6.021438e+01   1.142332e+01
  -5.431941e+01  -5.058324e+01
  -1.721181e+01  -5.009866e+01
   5.798921e+01  -3.226955e+01
   9.354516e+01   7.720454e+00
   4.861813e+01   4.322609e+01
  -1.885586e+01   4.938653e+01
  -9.458401e+01   1.647596e+01
  -2.294950e+01   1.644998e+01
   2.563140e+01  -1.850742e+01
   4.244588e+01   2.295974e+00
  -2.105337e+01   1.975270e+01
  -6.559414e+01  -6.564065e+00
