
 $NMID
 id='ANONYMOUS ', fmtdat='(2E16.6)'
 volume=1.0
 tramp=1.0
 $END
   3.096804e+03   8.491553e+01
   1.963731e+03   1.453526e+03
   4.065069e+01   1.727987e+03
  -1.084887e+03   1.239635e+03
  -8.396729e+02   2.492122e+02
  -1.859868e+02  -2.027449e+02
   4.226026e+02   7.179191e+01
   1.018667e+02   4.523180e+02
  -4.883235e+02   5.471114e+02
  -5.966300e+02   3.314371e+01
  -4.131990e+02  -5.288144e+02
   2.488196e+01  -6.646001e+02
   3.223953e+02  -1.677012e+02
   2.413581e+02   4.260754e+02
  -1.543848e+02   5.492007e+02
  -4.743766e+02   9.942321e+01
  -2.918908e+02  -4.993367e+02
   1.593306e+02  -6.274011e+02
   4.324882e+02  -2.602215e+02
   3.621774e+02   2.173876e+02
   1.172107e+02   3.474647e+02
  -1.336598e+02   2.049615e+02
  -8.995671e+01   7.720999e+01
   2.143386e+02   1.127777e+02
   2.560264e+02   2.985795e+02
  -4.035168e+01   3.613036e+02
  -4.352620e+02   1.369084e+02
  -6.447501e+02  -2.304839e+02
  -2.077365e+02  -4.220838e+02
   3.687095e+02  -1.892160e+02
   4.986487e+02   1.478373e+02
   1.874383e+02   4.077646e+02
  -2.054665e+02   3.802771e+02
  -4.325352e+02   1.186302e+02
  -3.114968e+02  -1.608763e+02
  -1.052161e+02  -3.275009e+02
   4.381901e+01  -1.967264e+02
  -3.541522e+01   8.246426e+01
  -1.649893e+02   1.276028e+02
  -2.016660e+02  -2.021827e+02
   6.010423e+01  -4.609010e+02
   2.872465e+02  -4.280543e+02
   3.457264e+02  -3.539614e+01
   1.219132e+02   2.799732e+02
  -1.360060e+02   1.281008e+02
  -2.214577e+02  -2.524285e+02
   8.827616e+01  -3.813592e+02
   4.121588e+02  -8.291655e+01
   4.401938e+02   3.973862e+02
   1.250416e+02   4.796300e+02
  -3.227119e+02   2.620315e+02
  -4.864119e+02  -6.923135e+01
  -3.506525e+02  -2.738132e+02
   4.930655e+01  -2.461561e+02
   3.011588e+02  -5.992911e+01
   2.119640e+02   5.965642e+01
   8.497914e+00   2.362468e+01
  -8.568212e+01  -6.858382e+01
   9.732309e+01  -7.450538e+01
   2.111959e+02   4.489778e+01
   1.445732e+02   1.746876e+02
  -1.121977e+02   2.342865e+02
  -3.303000e+02   1.439840e+02
  -2.809573e+02  -1.139612e+02
  -2.833838e+00  -3.010597e+02
   2.941868e+02  -3.633277e+02
   3.507437e+02  -1.280145e+02
   2.166887e+02   2.164344e+02
   3.997609e+01   3.241522e+02
  -1.102718e+02   2.878914e+02
  -5.671662e+01   1.424765e+02
   1.107212e+01   9.118063e+01
  -1.297817e+02   1.117190e+02
  -2.204920e+02   5.397313e+01
  -2.375244e+02  -1.132535e+02
  -9.009097e+01  -2.606651e+02
   6.983099e+01  -2.039223e+02
   1.918323e+02   1.966593e+01
   1.248747e+02   2.260221e+02
  -8.235207e+01   2.362310e+02
  -2.329313e+02   5.241306e+01
  -2.977738e+02  -2.013801e+02
  -1.510781e+02  -3.183103e+02
   8.271052e+01  -2.648625e+02
   1.420586e+02  -1.396686e+02
   1.288331e+02  -5.295348e+01
   1.375911e+02  -4.429625e+01
   2.561872e+02  -2.390041e+01
   3.499614e+02   1.131222e+02
   2.468400e+02   3.346963e+02
  -5.750977e+01   4.505244e+02
  -3.876389e+02   3.876306e+02
  -4.448758e+02   1.200780e+02
  -3.084792e+02  -9.040311e+01
   6.673263e+00  -2.476826e+02
   1.398225e+02  -1.938394e+02
  -2.947379e+00  -2.924629e+01
  -1.292147e+02   2.790300e+01
  -1.286673e+02  -4.341942e+01
  -6.544447e+00  -1.497935e+02
   1.074814e+02  -1.316026e+02
   1.268217e+02   4.836086e+01
  -4.504447e+01   1.353678e+02
  -1.591832e+02   2.244104e+00
  -1.384825e+02  -2.316594e+02
   4.842312e+01  -3.010882e+02
   2.633088e+02  -1.810216e+02
   3.415818e+02   8.945880e+01
   2.405859e+02   3.065475e+02
   3.706651e+00   2.762340e+02
  -1.182030e+02   1.267881e+02
  -1.574022e+02  -2.205604e+01
  -1.727217e+01   1.936674e+00
   3.772975e+01   8.697811e+01
  -3.189183e+00   9.576261e+01
  -1.000081e+02   4.944638e+01
  -1.385306e+02  -2.443378e+01
  -2.294002e+01  -5.674280e+01
   7.743496e+01   1.690352e+01
   2.613358e+01   9.472761e+01
  -1.389781e+02   7.360312e+01
  -2.985702e+02  -4.907431e+01
  -2.694927e+02  -1.867349e+02
  -1.754340e+01  -2.703151e+02
   2.468290e+02  -1.726575e+02
   2.657483e+02  -8.908364e+01
   1.287346e+02   4.409241e+01
  -4.467001e+01   8.495030e+01
  -5.037682e+01  -3.726357e+01
   5.506779e+01  -7.718046e+01
   1.811934e+02  -1.103668e+01
   1.474772e+02   1.241777e+02
   6.138766e+01   1.951854e+02
  -1.057521e+02   9.710704e+01
  -9.459918e+01  -8.736279e-02
  -9.308114e+00  -3.829437e+01
   5.866382e+01   4.821802e+01
   1.727297e+01   1.459547e+02
  -1.361931e+02   1.338490e+02
  -2.035510e+02   1.615065e+00
  -1.665802e+02  -1.561529e+02
   8.889603e+00  -2.081635e+02
   1.686948e+02  -1.315662e+02
   1.609653e+02   1.660194e+01
   3.790334e+01   9.642163e+01
  -6.059979e+01   1.012718e+02
  -7.212759e+01  -3.584116e+00
  -7.365429e-01  -1.681251e+01
   2.517050e+01   1.557514e+01
  -2.437557e+01   2.833818e+01
  -8.651043e+01  -2.892232e+01
  -6.973693e+01  -7.511967e+01
   6.273679e+00  -1.778522e+02
   1.754548e+02  -1.288226e+02
   2.363326e+02   9.035439e+00
   1.585621e+02   1.797049e+02
   1.471663e+01   2.094346e+02
  -8.529187e+01   1.231377e+02
  -1.022778e+02   2.764849e+01
  -6.601200e+01  -3.760755e+01
  -4.390661e+01  -4.801017e+01
  -9.232803e+01   1.615798e+01
  -7.246900e+01  -2.187313e+01
  -6.309807e+01  -6.579142e+01
   3.456370e+01  -1.215439e+02
   1.254256e+02  -5.108234e+01
   8.514750e+01   5.786919e+01
  -3.276887e+01   1.286888e+02
  -1.632807e+02   7.437089e+01
  -1.970106e+02  -1.308684e+02
  -2.820400e+01  -2.148566e+02
   1.654722e+02  -2.164006e+02
   2.529367e+02  -7.731591e+01
   2.162375e+02   1.237470e+02
   1.039409e+02   1.768207e+02
  -3.063882e+01   1.202321e+02
  -7.741914e+01   6.330102e+01
  -5.267046e+01   5.686519e+01
  -4.888962e+01   8.472106e+01
  -1.036034e+02   5.395031e+01
  -1.163466e+02  -1.540015e+01
  -9.645173e+01  -1.701059e+02
   2.582556e-01  -1.891734e+02
   1.178938e+02  -1.593103e+02
   1.619657e+02   1.879898e+01
   1.413561e+02   1.235737e+02
  -3.528316e+00   1.632908e+02
  -7.867169e+01   6.483238e+01
  -8.840533e+01  -3.804855e+01
   5.105680e-01  -4.564530e+01
   2.706089e+01  -2.914367e+01
  -8.332750e+00  -1.478809e+01
  -8.182230e+01  -3.202924e+01
  -6.000762e+01  -5.936963e+01
   5.912011e+01  -4.322122e+01
   1.626586e+02   1.023729e+01
   1.747669e+02   8.908356e+01
   1.022940e+01   9.079132e+01
  -1.420038e+02   7.301815e+01
  -1.295949e+02  -1.577301e+01
  -3.583527e+01  -7.243613e+01
   7.935930e+01  -7.086232e+01
   5.911408e+01   1.988813e+01
   2.330345e+01   7.425511e+01
  -3.881784e+01   3.822622e+01
  -7.650833e+01   2.657181e+01
  -7.168819e+01  -5.282560e+01
  -4.197333e+01  -5.073231e+01
  -9.251260e+01  -1.949605e+01
  -6.089853e+01  -8.431974e+00
  -1.594513e+01  -7.736757e+01
   3.604081e+01  -1.480118e+02
   1.142472e+02  -1.606790e+02
   2.104963e+02  -3.127709e+01
   1.454736e+02   7.877018e+01
  -7.363453e+00   1.456383e+02
  -9.232796e+01   8.807436e+01
  -3.962065e+01  -3.004207e+01
   8.014350e+01  -4.174954e+01
   1.217033e+02   3.500639e+01
   8.594145e+01   8.208012e+01
  -6.862744e+01   1.233373e+02
  -2.235618e+02   4.610791e+01
  -1.508217e+02  -7.101966e+01
  -2.781152e+01  -9.739714e+01
   4.581640e+01  -3.744580e+01
   5.024735e+01   7.796575e+00
  -5.490019e+01  -5.465651e+00
  -9.687161e+01  -2.194651e+01
  -3.562632e+01  -9.567864e+01
   7.801306e+01  -1.659506e+02
   1.330649e+02  -6.466744e+01
   1.300535e+02   5.846522e+01
   2.250029e+01   1.869942e+02
  -7.983776e+01   1.406262e+02
  -1.102993e+02  -5.171868e+00
  -4.699644e+01  -1.147981e+02
   4.489557e+01  -9.261711e+01
   5.763392e+01  -1.369016e+01
   3.620511e+01   2.199104e+01
  -7.518306e+00   2.515731e+01
   2.031476e+00  -4.938074e+01
   1.999754e+01  -1.201117e+01
   5.461347e+01   8.110098e+01
  -6.695607e+00   8.460174e+01
  -6.789514e+01   2.142113e+01
  -1.121556e+02  -6.745287e+01
  -1.117452e+02  -9.282366e+01
  -2.910630e+00  -6.846217e+01
   1.009171e+02  -8.865731e+00
   8.518122e+01   1.626718e+01
   7.788689e+00  -1.210739e+01
   1.896801e+00   1.375353e+01
  -2.038291e+01  -1.844247e+01
   2.183724e+01  -1.744935e+01
  -3.486060e+01   2.011868e+00
  -7.217001e+01  -3.210757e+01
  -1.178128e+02  -2.539729e+01
  -2.335966e+01  -9.097015e+01
   9.910666e+01  -1.003946e+02
   2.081199e+02  -6.268985e+01
   1.826576e+02   9.965393e+01
   4.713397e+01   1.721373e+02
  -9.098400e+01   1.270829e+02
  -1.259386e+02   6.081990e+01
  -9.977085e+01  -1.609651e+01
  -1.410429e+01  -9.217153e+01
   6.914087e+00  -2.146123e+01
  -2.703802e+01   1.058406e+00
  -2.836397e+01  -4.847058e+01
  -1.459991e+01  -8.809005e+01
   4.101286e+01  -4.221828e+01
   7.193873e+01  -7.429611e+00
   6.406744e+01   1.070571e+02
   2.415435e-02   9.961759e+01
  -7.956651e+01   3.613827e+01
  -9.958731e+01  -3.538637e+01
  -4.561368e+01  -9.838096e+01
   7.077846e+01  -5.881362e+01
   9.716294e+01   2.873696e+01
   5.124394e+01   3.776476e+01
  -2.673245e+01   4.826300e+01
  -5.096159e+01   5.455409e+01
   1.602073e+01   5.659963e+00
   5.988598e+01  -1.142358e+01
   3.070497e+01   3.739194e+01
  -6.943513e+01   7.783567e+01
  -1.202967e+02   3.347259e+01
  -1.137727e+02  -2.491053e+01
  -1.491980e+01  -1.100925e+02
   3.643201e+01  -9.805664e+01
   4.414200e+01  -1.659657e+01
   2.108941e+01   9.196826e+01
  -1.922963e+00   3.792395e+01
  -5.158673e+01  -1.528542e+01
  -1.159618e+01  -4.878566e+01
  -1.210838e+01  -5.477585e+01
   3.616624e+01  -1.623529e+01
   2.562024e+01   3.136652e+01
   1.519943e+01   1.754451e+01
   4.106835e+00  -6.719882e+00
  -5.324918e+00   9.182826e+00
  -1.527764e+00   3.125342e+01
  -2.249005e+01   2.786112e+01
  -1.695624e+01   2.863643e+01
  -6.949071e+01  -3.182724e+01
  -1.948456e+01  -6.732935e+01
   4.180211e+01  -5.391065e+01
   8.409233e+01   3.479001e+01
   8.418595e+00   7.371806e+01
  -8.237562e+01   2.765824e+01
  -9.623629e+01  -3.676975e+01
  -4.167745e+01  -6.613821e+01
   3.651085e+01  -4.600202e+01
   5.696888e+01  -1.435038e+01
   4.288752e+01  -6.573758e+00
  -8.062895e+00   3.023829e+01
  -2.557784e+01   2.479476e+01
   2.518417e+01  -1.792349e+01
   7.939956e+01  -2.411851e+01
