
 $NMID
 id='ANONYMOUS ', fmtdat='(2E16.6)'
 volume=1.0
 tramp=1.0
 $END
  -2.699115e+03  -3.048055e+02
  -1.544973e+03  -1.404690e+03
  -5.970322e+00  -1.754083e+03
   1.049584e+03  -1.194649e+03
   8.413456e+02  -3.906058e+02
   1.315642e+02   3.189104e+02
  -4.115286e+02  -1.379024e+01
  -1.131376e+02  -4.975682e+02
   4.543303e+02  -5.425596e+02
   5.415190e+02  -3.727496e+01
   3.912779e+02   4.625781e+02
  -3.674953e+01   6.394912e+02
  -2.588092e+02   1.643575e+02
  -2.276645e+02  -3.797767e+02
   1.147565e+02  -5.545501e+02
   3.663954e+02  -1.104895e+02
   2.855649e+02   4.830398e+02
  -1.636928e+02   5.912754e+02
  -4.289635e+02   2.363594e+02
  -3.802159e+02  -1.816267e+02
  -1.259807e+02  -3.490489e+02
   1.194872e+02  -2.042225e+02
   4.463758e+01  -7.568808e+01
  -2.024996e+02  -1.263083e+02
  -2.386167e+02  -2.769326e+02
   6.043335e+01  -2.944409e+02
   4.167749e+02  -1.228014e+02
   5.134192e+02   2.694557e+02
   1.803836e+02   3.486227e+02
  -3.112092e+02   1.709342e+02
  -4.294095e+02  -1.368772e+02
  -1.673069e+02  -3.342270e+02
   2.565543e+02  -3.390725e+02
   3.955549e+02  -1.164497e+02
   2.884252e+02   1.721018e+02
   5.133228e+01   3.496377e+02
  -9.311194e+00   1.433934e+02
   6.238384e+01  -2.031484e+01
   1.427411e+02  -1.357442e+02
   9.868846e+01   1.295698e+02
  -5.789295e+01   3.802660e+02
  -2.447438e+02   3.368257e+02
  -2.916930e+02   4.967741e+01
  -1.634246e+02  -2.251417e+02
   1.432029e+02  -8.053058e+01
   1.310463e+02   2.405002e+02
  -9.480002e+01   3.448115e+02
  -3.724673e+02   8.276326e+01
  -4.078017e+02  -3.540289e+02
  -1.133384e+02  -4.505759e+02
   2.694812e+02  -2.410141e+02
   4.398354e+02   4.635576e+01
   2.726847e+02   2.183524e+02
  -6.071167e+01   2.528667e+02
  -2.475393e+02   1.255163e+02
  -1.986823e+02  -2.713712e+01
  -5.488776e+01  -1.633859e+01
   2.621251e+01   2.973960e+01
  -5.774593e+01   4.378007e+01
  -2.086991e+02  -1.430173e+01
  -1.558355e+02  -1.740719e+02
   1.374998e+02  -2.162278e+02
   3.285613e+02  -9.169049e+01
   2.586391e+02   1.216092e+02
  -1.387232e+01   3.264627e+02
  -2.929846e+02   3.173213e+02
  -3.354061e+02   1.436843e+02
  -1.932743e+02  -1.660027e+02
  -3.114160e+00  -3.446213e+02
   7.649089e+01  -2.586642e+02
   7.155500e+01  -1.402887e+02
   5.293886e+01  -6.887593e+01
   1.061168e+02  -9.176714e+01
   2.157602e+02  -2.385383e+01
   2.035459e+02   1.039064e+02
   6.561701e+01   2.327360e+02
  -8.667266e+01   1.698744e+02
  -1.846849e+02  -4.355269e+01
  -1.150262e+02  -1.916837e+02
   5.230804e+01  -1.916919e+02
   2.053729e+02  -4.477946e+01
   2.649105e+02   1.943376e+02
   1.169606e+02   2.814900e+02
  -4.881471e+01   2.365377e+02
  -1.389898e+02   1.357888e+02
  -1.502088e+02   6.942788e+01
  -1.127346e+02   3.777801e+01
  -2.512320e+02  -1.332884e-02
  -3.440343e+02  -1.268435e+02
  -2.461389e+02  -3.052940e+02
   4.628652e+01  -4.213430e+02
   3.808957e+02  -3.236878e+02
   4.303440e+02  -1.469664e+02
   2.613595e+02   1.100650e+02
  -9.135313e+00   2.332627e+02
  -1.034261e+02   1.738996e+02
  -1.288517e+01   3.858374e+01
   1.230948e+02  -3.971294e+01
   1.115249e+02   3.226475e+01
   1.224929e+00   1.693076e+02
  -1.228223e+02   1.121756e+02
  -1.147062e+02  -5.100295e+01
   1.305324e+01  -1.013139e+02
   1.476475e+02   4.828540e+00
   1.531238e+02   2.429633e+02
  -3.172684e+01   3.109379e+02
  -2.351607e+02   1.647029e+02
  -3.382145e+02  -8.345488e+01
  -2.516944e+02  -2.645270e+02
  -4.615646e+01  -2.671084e+02
   1.138119e+02  -6.708078e+01
   9.527884e+01   2.443222e+01
  -1.928213e+00   6.617253e+00
  -6.125860e+01  -8.443532e+01
   8.524333e+00  -9.284092e+01
   9.433972e+01  -7.106679e+01
   1.600219e+02   5.211137e+01
   2.652261e+01   5.379519e+01
  -5.360230e+01  -2.005765e+01
  -1.923766e+01  -7.560277e+01
   1.578770e+02  -6.348055e+01
   3.136336e+02   4.001540e+01
   2.447463e+02   1.948281e+02
  -2.482537e+01   2.478629e+02
  -2.083879e+02   1.978534e+02
  -2.434479e+02   8.387200e+01
  -1.189510e+02  -4.075913e+01
   3.376930e+01  -6.754776e+01
   5.044014e+01  -2.999101e+00
  -7.801380e+01   6.415412e+01
  -1.618378e+02   2.270512e+00
  -1.476976e+02  -1.355337e+02
  -4.567405e+01  -2.032550e+02
   7.024136e+01  -1.022950e+02
   1.085170e+02   3.732494e+00
   3.242675e+01   1.711028e+01
  -4.660229e+01  -5.653280e+01
  -3.872995e+01  -1.294244e+02
   1.218015e+02  -1.216192e+02
   1.801853e+02  -1.866262e+01
   1.638498e+02   1.173024e+02
  -1.167964e+01   1.702765e+02
  -1.776511e+02   1.402661e+02
  -1.296156e+02   1.453686e+01
  -4.694094e+01  -6.613916e+01
   7.216380e+01  -8.161448e+01
   7.244057e+01  -8.599417e+00
   2.991514e+00   3.784964e+01
  -4.659153e+01   1.026817e+01
   1.300435e+01  -5.253911e+01
   9.202644e+01   1.410606e+01
   7.174783e+01   6.624816e+01
   1.262631e+01   1.675120e+02
  -1.504496e+02   1.127777e+02
  -2.245249e+02  -7.873208e+00
  -1.488209e+02  -1.438364e+02
  -3.032230e+01  -2.081461e+02
   8.011430e+01  -9.338224e+01
   1.114872e+02  -2.645359e+01
   4.961512e+01   4.659574e+01
   4.354279e+01   3.534810e+01
   3.806000e+01  -1.426935e+01
   8.902883e+01   3.935138e+00
   5.267869e+01   6.145767e+01
  -4.860122e+01   1.066717e+02
  -1.280956e+02   9.542162e+01
  -9.968837e+01  -5.667600e+01
  -6.769617e+00  -1.249170e+02
   1.507175e+02  -8.413244e+01
   1.747216e+02   8.119280e+01
   3.231337e+01   1.985420e+02
  -1.186006e+02   1.986828e+02
  -2.262836e+02   5.266870e+01
  -1.867974e+02  -1.317273e+02
  -8.542652e+01  -1.529541e+02
  -1.030757e+00  -1.203823e+02
   7.438901e+01  -7.616441e+01
   3.089929e+01  -7.946782e+01
   4.947159e+01  -8.457648e+01
   7.023208e+01  -6.507729e+01
   1.092841e+02   1.791478e+01
   9.717731e+01   1.616782e+02
   1.565241e+01   1.857933e+02
  -1.198685e+02   1.415676e+02
  -1.488991e+02  -2.953932e+01
  -1.187165e+02  -1.508189e+02
   2.330960e+01  -1.391931e+02
   8.519983e+01  -6.954505e+01
   5.070823e+01   6.543460e+01
  -7.740871e+00   7.442840e+01
  -3.592028e+01   2.947326e+01
   9.309657e-01  -3.461591e-01
   7.073552e+01   2.785751e+01
   5.452106e+01   3.276667e+01
  -6.062293e+01   3.434564e+01
  -1.371414e+02   1.127986e+01
  -1.330290e+02  -8.594219e+01
   1.409504e+00  -1.135572e+02
   1.166155e+02  -6.439824e+01
   1.354971e+02   1.661856e+01
   3.242585e+01   6.614578e+01
  -5.165798e+01   4.337972e+01
  -7.184379e+01  -4.158993e+01
   8.022398e+00  -5.059268e+01
   3.852815e+01  -5.557272e+01
   9.175600e+01  -1.546987e+01
   9.221721e+01   5.260550e+01
   4.026856e+01   4.844238e+01
   4.021467e+01  -6.990619e+00
   5.840188e+01  -1.080893e+01
   8.838686e+01   8.438281e+01
  -1.539395e+01   1.487947e+02
  -1.062997e+02   1.640106e+02
  -2.158638e+02   1.328252e+01
  -1.424335e+02  -7.790516e+01
   2.229595e+01  -1.485174e+02
   1.124038e+02  -5.617675e+01
   6.516018e+01   1.553456e+01
  -7.284447e+01   5.240574e+01
  -1.563001e+02  -3.109474e+01
  -8.343159e+01  -1.090043e+02
   8.303088e+01  -9.085250e+01
   1.867604e+02  -2.026673e+01
   1.559038e+02   5.706013e+01
   3.948779e+01   6.869256e+01
  -5.632794e+01   3.693603e+01
  -5.207303e+01   1.346748e+01
   3.174788e+01  -4.803650e+01
   1.281808e+02   8.635490e+00
   4.602005e+01   7.608121e+01
  -8.049436e+01   1.360355e+02
  -1.440662e+02   6.328558e+01
  -8.455322e+01  -6.531240e+01
   2.979132e+01  -1.914956e+02
   1.128142e+02  -1.245252e+02
   1.169675e+02   1.627233e+01
   4.590801e+01   9.775382e+01
  -1.710651e+01   7.546061e+01
  -3.155783e+01  -1.251637e+01
  -2.906140e+01  -1.662551e+01
   3.034807e+00   1.250436e+01
   6.404513e+00   1.988297e+01
  -4.425452e+01  -1.621872e+01
  -4.159751e+01  -6.697000e+01
  -2.635736e+01  -8.023392e+01
   5.110942e+01  -4.889820e+01
   1.165218e+02   3.674148e+01
   1.263830e+02   7.566352e+01
  -1.726077e+01   7.490776e+01
  -6.543858e+01   5.173906e+01
  -9.481847e+01   2.185888e+01
  -9.389730e+00  -5.705415e+00
  -1.601641e+00  -2.222119e+01
   1.538625e+01   1.732870e+01
  -4.058885e+00   1.982182e+01
   3.054553e+01   1.839770e+01
   6.692838e+01   1.474768e+01
   8.393109e+01   5.102079e+01
   2.818116e+01   5.678592e+01
  -9.466772e+01   1.031997e+02
  -1.718204e+02   3.787360e+01
  -1.735133e+02  -5.332445e+01
  -6.907136e+00  -1.353401e+02
   7.221549e+01  -1.206044e+02
   1.070587e+02  -6.183042e+01
   6.125865e+01   2.331590e+01
   1.464696e+01   6.185187e+01
  -2.667569e+01   1.765141e+01
   8.849482e+00   3.561625e+00
   3.310133e+01   4.596909e+01
  -7.034339e+00   6.829913e+01
  -5.247307e+01   3.989027e+01
  -7.176317e+01  -9.430738e+00
  -6.647644e+01  -1.100731e+02
   8.321349e+00  -8.554063e+01
   4.760797e+01  -9.874078e+00
   9.585483e+01   5.732409e+01
   3.332581e+01   7.467945e+01
  -7.914777e+01   5.133821e+01
  -1.061546e+02  -2.854483e+01
  -2.895771e+01  -5.193685e+01
   2.825215e+01  -5.663555e+01
   8.296646e+01  -3.541005e+01
  -1.699865e+01   8.864252e+00
  -5.046587e+01  -2.041655e+00
  -2.858841e+01  -8.553529e-03
   6.538124e+01  -8.729282e+01
   9.574409e+01  -3.890678e+01
   8.792269e+01   6.174200e+00
  -6.290773e+00   9.750388e+01
  -7.897807e+01   8.214856e+01
  -2.351513e+01   2.629679e+01
  -2.077140e+01  -3.025236e+01
   3.876839e+01  -2.031633e+01
   3.893166e+01   2.383545e+01
  -1.453747e+01   5.385983e+01
   5.768964e+00   2.146716e+01
  -4.144667e+01  -2.242856e+00
  -1.945325e+01  -3.157471e+01
  -9.952063e+00  -3.283045e+01
   1.848069e+01   2.678770e+01
   7.594494e+00   4.437135e+00
  -1.255929e+01  -3.751607e+01
   2.443416e+01  -7.290150e+01
   4.216895e+01  -6.332306e+00
   4.028198e+01   3.970374e+01
   3.727359e+01   6.397562e+01
  -5.039816e+01   1.097143e+01
  -6.994530e+01  -4.236837e+01
  -2.114057e+01  -2.835273e+01
   5.160173e+01  -5.514945e+01
   6.972076e+01   3.855349e+01
   5.857179e+01   5.131258e+01
  -2.005687e+01   4.092619e+01
  -6.145625e+01   2.124470e+01
  -3.212632e+01   1.090804e+01
   2.857299e+01   1.018188e+01
   2.462076e+01  -1.471699e+00
  -2.339146e+01   5.192511e+01
  -7.041086e+01   2.528687e+01
