
 $NMID
 id='ANONYMOUS ', fmtdat='(2E16.6)'
 volume=1.0
 tramp=1.0
 $END
  -4.966978e+07  -8.575502e+05
  -2.960838e+07  -3.036860e+07
   6.423033e+06  -3.315389e+07
   2.408965e+07  -1.338404e+07
   1.470755e+07   5.408276e+06
  -2.562062e+06   8.197227e+06
  -8.715244e+06  -5.428954e+05
  -2.901716e+06  -8.488848e+06
   5.139138e+06  -8.731631e+06
   8.559723e+06  -2.149585e+06
   6.326038e+06   5.650323e+06
   6.891788e+05   7.933338e+06
  -3.715601e+06   2.365852e+06
  -2.493453e+06  -5.257337e+06
   3.290917e+06  -6.231850e+06
   7.056210e+06   1.020155e+06
   4.054373e+06   9.126070e+06
  -3.350803e+06   1.057749e+07
  -9.069407e+06   5.160967e+06
  -9.552483e+06  -2.092453e+06
  -5.543168e+06  -6.782642e+06
  -2.933859e+05  -7.419268e+06
   2.426131e+06  -4.985857e+06
   1.036951e+06  -2.424005e+06
  -1.449709e+06  -2.472706e+06
  -6.742122e+04  -4.279716e+06
   5.440169e+06  -4.000717e+06
   9.156420e+06  -1.149097e+05
   6.347203e+06   4.038914e+06
  -1.785604e+05   4.641151e+06
  -3.822279e+06   2.107794e+06
  -2.321223e+06  -4.414317e+05
   1.014214e+06  -1.268943e+06
   2.700753e+06  -4.170399e+05
   2.202190e+06   1.795193e+06
   3.412124e+05   3.986279e+06
  -1.871938e+06   3.390298e+06
  -2.713332e+06  -4.584757e+05
  -1.156777e+06  -3.323163e+06
   7.987632e+05  -1.330012e+06
   1.273953e+05   2.659770e+06
  -2.357502e+06   2.271443e+06
  -2.272117e+06  -2.798085e+06
   1.941344e+06  -5.404690e+06
   5.842716e+06  -8.789519e+05
   4.364936e+06   6.062614e+06
  -1.665655e+06   7.441777e+06
  -6.627639e+06   2.069470e+06
  -6.438228e+06  -4.047380e+06
  -1.890410e+06  -5.574412e+06
   3.164482e+06  -2.666536e+06
   5.021923e+06   1.229949e+06
   2.464127e+06   3.136435e+06
  -2.056187e+06   2.047572e+06
  -4.093147e+06  -7.478030e+05
  -1.830480e+06  -2.387459e+06
   1.521419e+06  -1.234066e+06
   1.696787e+06   9.092476e+05
  -9.797897e+05   9.595524e+05
  -2.210438e+06  -1.245891e+06
   2.611190e+05  -2.793270e+06
   3.817459e+06  -1.699457e+06
   4.672888e+06   1.012344e+06
   2.135200e+06   3.460570e+06
  -1.765900e+06   4.823049e+06
  -4.879770e+06   4.435590e+06
  -5.844292e+06   1.444655e+06
  -4.099767e+06  -3.102586e+06
  -7.410861e+05  -5.789220e+06
   1.628091e+06  -4.501051e+06
   1.487774e+06  -1.373200e+06
   2.699918e+05  -8.581323e+04
   3.661578e+05  -1.076285e+06
   1.898227e+06  -1.557812e+06
   2.838425e+06   9.026566e+04
   1.886854e+06   2.169110e+06
  -1.688771e+05   2.247825e+06
  -1.729617e+06   1.728779e+05
  -1.730862e+06  -2.173308e+06
   6.851769e+04  -2.926152e+06
   2.745477e+06  -1.478909e+06
   4.184966e+06   1.317518e+06
   2.849199e+06   3.584454e+06
  -1.523677e+05   3.814974e+06
  -2.073535e+06   2.376323e+06
  -1.958330e+06   1.038000e+06
  -1.664915e+06   7.320576e+05
  -2.829611e+06   5.492945e+05
  -4.231247e+06  -6.853661e+05
  -3.420669e+06  -2.679728e+06
  -1.408011e+05  -4.063077e+06
   3.199979e+06  -3.843195e+06
   4.193651e+06  -2.015165e+06
   2.611862e+06   5.428184e+05
   1.432448e+05   2.265039e+06
  -1.197027e+06   1.865946e+06
  -5.490462e+05  -8.001188e+04
   1.117540e+06  -1.275797e+06
   1.855924e+06  -3.720847e+05
   8.470551e+05   1.178665e+06
  -5.517283e+05   1.111521e+06
  -4.953420e+05  -3.603745e+05
   9.197775e+05  -7.893118e+05
   1.792170e+06   1.003067e+06
   8.451717e+05   3.226840e+06
  -1.239388e+06   3.444001e+06
  -2.948119e+06   1.386966e+06
  -3.392719e+06  -1.227094e+06
  -2.445936e+06  -2.747289e+06
  -5.163501e+05  -2.674580e+06
   1.268638e+06  -1.469313e+06
   1.596809e+06  -2.012276e+05
   4.908008e+05   4.642975e+04
  -3.570451e+05  -7.440277e+05
   3.885192e+05  -1.296391e+06
   1.838646e+06  -5.601543e+05
   1.984229e+06   8.356584e+05
   4.025210e+05   1.362008e+06
  -1.146776e+06   5.793010e+05
  -9.224659e+05  -4.410470e+05
   8.048626e+05  -5.795102e+05
   2.214380e+06   2.279101e+05
   1.839672e+06   1.334498e+06
  -1.850717e+05   2.024266e+06
  -2.301904e+06   1.701572e+06
  -2.770225e+06   2.883797e+05
  -1.200814e+06  -1.235606e+06
   9.025493e+05  -1.449207e+06
   1.505064e+06  -1.701934e+05
   1.691789e+05   1.051958e+06
  -1.500852e+06   7.196049e+05
  -1.709376e+06  -7.563704e+05
  -3.759041e+05  -1.632720e+06
   1.044815e+06  -1.008489e+06
   1.254892e+06   2.567670e+05
   2.797031e+05   7.530202e+05
  -7.648904e+05   5.587734e+04
  -7.172857e+05  -1.044946e+06
   5.900517e+05  -1.409983e+06
   2.007428e+06  -5.206313e+05
   2.018362e+06   1.059309e+06
   3.769148e+05   2.060156e+06
  -1.420767e+06   1.630993e+06
  -1.710479e+06   2.232349e+05
  -5.156150e+05  -8.528188e+05
   6.447496e+05  -8.085433e+05
   6.544882e+05  -7.771172e+04
  -9.196833e+04   3.971661e+05
  -5.171107e+05   2.559182e+05
  -1.930359e+05  -6.627307e+04
   4.015505e+05   2.326966e+04
   5.279887e+05   6.190987e+05
  -1.750540e+05   1.168893e+06
  -1.365324e+06   8.973921e+05
  -2.072915e+06  -4.099683e+05
  -1.454365e+06  -1.937876e+06
   2.186955e+05  -2.424272e+06
   1.613146e+06  -1.440305e+06
   1.714093e+06   9.724799e+04
   9.095692e+05   9.171629e+05
   3.448156e+05   7.225035e+05
   4.454109e+05   2.725399e+05
   5.756598e+05   3.051542e+05
   7.716566e+04   7.343927e+05
  -8.602474e+05   9.039004e+05
  -1.451593e+06   3.476868e+05
  -1.082354e+06  -7.262307e+05
   2.234490e+05  -1.491764e+06
   1.720319e+06  -1.096187e+06
   2.257461e+06   4.755310e+05
   1.149426e+06   2.085673e+06
  -9.763523e+05   2.349936e+06
  -2.507198e+06   1.046217e+06
  -2.356007e+06  -6.192987e+05
  -1.005406e+06  -1.325529e+06
   1.696510e+05  -9.837269e+05
   4.137873e+05  -5.566792e+05
   1.388119e+05  -7.572255e+05
   1.402521e+05  -1.273444e+06
   6.656212e+05  -1.256129e+06
   1.274686e+06  -3.040500e+05
   1.325884e+06   1.085527e+06
   5.490207e+05   1.895296e+06
  -6.278719e+05   1.435023e+06
  -1.285537e+06   4.152567e+03
  -8.158401e+05  -1.263208e+06
   3.644751e+05  -1.384840e+06
   1.122459e+06  -4.299745e+05
   7.948923e+05   6.473197e+05
  -9.494252e+04   1.038305e+06
  -4.912472e+05   7.773053e+05
  -6.381433e+04   4.295012e+05
   4.263599e+05   3.474733e+05
   5.477111e+04   3.884038e+05
  -1.131227e+06   2.108788e+05
  -2.036641e+06  -3.300433e+05
  -1.609859e+06  -1.022352e+06
   1.737014e+04  -1.406584e+06
   1.558560e+06  -1.121255e+06
   1.813580e+06  -2.922919e+05
   8.342587e+05   4.568073e+05
  -2.507135e+05   5.485404e+05
  -4.987106e+05   4.550176e+04
  -1.530782e+04  -4.024740e+05
   4.553504e+05  -2.545998e+05
   4.773845e+05   3.435855e+05
   2.295693e+05   7.354696e+05
   7.281758e+04   4.856871e+05
   1.367451e+05  -1.123469e+05
   2.940806e+05  -3.167404e+05
   2.788759e+05   2.295421e+05
  -1.529478e+05   9.970774e+05
  -8.998261e+05   1.059344e+06
  -1.336717e+06   1.512858e+05
  -8.232103e+05  -9.219812e+05
   4.208198e+05  -1.116394e+06
   1.246946e+06  -3.105307e+05
   7.317048e+05   5.814696e+05
  -6.953874e+05   6.511798e+05
  -1.595291e+06  -8.194501e+04
  -1.033794e+06  -8.510547e+05
   4.585871e+05  -1.002232e+06
   1.497876e+06  -5.102366e+05
   1.249109e+06   1.709850e+05
   1.463804e+05   5.168066e+05
  -6.447225e+05   2.783566e+05
  -3.757044e+05  -2.895930e+05
   5.977546e+05  -5.156310e+05
   1.186864e+06   9.561314e+04
   6.579937e+05   1.194932e+06
  -6.112994e+05   1.705538e+06
  -1.499538e+06   8.799777e+05
  -1.261595e+06  -7.652807e+05
  -2.038331e+05  -1.802018e+06
   7.393235e+05  -1.308499e+06
   9.281481e+05   1.650790e+05
   4.435453e+05   1.190621e+06
  -2.040056e+05   9.751611e+05
  -5.579782e+05   8.854866e+04
  -4.780124e+05  -3.773660e+05
  -1.754938e+05  -1.371660e+05
  -4.350858e+04   9.739736e+04
  -2.639140e+05  -2.948348e+05
  -5.059223e+05  -9.683670e+05
  -2.052804e+05  -1.079540e+06
   7.025864e+05  -3.937039e+05
   1.483130e+06   4.645195e+05
   1.296473e+06   8.339634e+05
   1.867931e+05   6.984308e+05
  -8.650067e+05   4.254312e+05
  -9.894344e+05   1.890361e+05
  -3.531631e+05  -5.138305e+04
   1.490503e+05  -2.276577e+05
   2.413798e+04  -2.058195e+05
  -2.778840e+05  -9.425664e+04
  -4.781568e+04  -1.362065e+05
   6.751867e+05  -2.408646e+05
   1.051927e+06   1.204401e+04
   4.240882e+05   7.005694e+05
  -8.525432e+05   1.185915e+06
  -1.704319e+06   7.558909e+05
  -1.413482e+06  -4.395636e+05
  -2.790224e+05  -1.415322e+06
   7.666827e+05  -1.380942e+06
   1.056454e+06  -5.396806e+05
   6.630597e+05   2.340065e+05
   1.328493e+05   3.618436e+05
  -7.857450e+04   6.809105e+04
   7.621355e+04  -1.917209e+04
   3.039433e+05   3.645872e+05
   2.529242e+05   8.091754e+05
  -1.796504e+05   6.831017e+05
  -6.892887e+05  -1.205233e+05
  -7.480009e+05  -9.583920e+05
  -1.168512e+05  -1.041313e+06
   7.623124e+05  -2.530512e+05
   1.047530e+06   7.230474e+05
   3.538116e+05   1.096501e+06
  -7.174535e+05   6.836436e+05
  -1.124878e+06  -7.257026e+04
  -5.323721e+05  -6.140736e+05
   2.895649e+05  -6.804114e+05
   3.785450e+05  -3.668436e+05
  -2.525564e+05  -3.993739e+03
  -6.540003e+05   4.373961e+04
  -1.474937e+05  -3.101535e+05
   8.257110e+05  -6.866769e+05
   1.258220e+06  -5.464931e+05
   7.619587e+05   1.777652e+05
  -9.417386e+04   8.741368e+05
  -5.512153e+05   8.589448e+05
  -4.291227e+05   1.596340e+05
  -5.810389e+04  -4.842570e+05
   2.406339e+05  -4.394843e+05
   3.590051e+05   1.462529e+05
   2.589944e+05   5.795670e+05
  -5.426659e+04   4.304893e+05
  -3.951166e+05  -4.278590e+04
  -4.768338e+05  -2.803238e+05
  -2.418349e+05  -9.525655e+04
   3.202065e+04   1.524611e+05
   7.679976e+04   4.255603e+04
  -1.660241e+04  -3.611128e+05
   5.134094e+04  -5.613341e+05
   3.267378e+05  -2.243651e+05
   4.682531e+05   3.835840e+05
   1.629599e+05   6.574829e+05
  -4.102472e+05   3.213939e+05
  -6.730782e+05  -2.788360e+05
  -2.612239e+05  -5.768578e+05
   5.085494e+05  -3.699824e+05
   8.903235e+05   7.179904e+04
   4.847759e+05   3.775317e+05
  -2.955635e+05   4.052014e+05
  -6.449762e+05   2.337273e+05
  -2.531539e+05   1.728230e+04
   3.497792e+05  -7.670147e+04
   4.145257e+05   5.791103e+04
  -1.630149e+05   2.970722e+05
  -7.438193e+05   2.849115e+05
