
 $NMID
 id='ANONYMOUS ', fmtdat='(2E16.6)'
 volume=1.0
 tramp=1.0
 $END
   5.858943e+07  -2.364975e+06
   3.676673e+07   3.533817e+07
  -6.404179e+06   4.027464e+07
  -2.847737e+07   1.608349e+07
  -1.751883e+07  -7.126242e+06
   3.276988e+06  -9.935599e+06
   1.038131e+07   1.183592e+06
   3.060705e+06   1.024160e+07
  -6.388637e+06   9.797561e+06
  -1.005108e+07   2.235410e+06
  -7.405717e+06  -6.167342e+06
  -1.103118e+06  -8.776091e+06
   3.961822e+06  -2.992493e+06
   2.763727e+06   5.401121e+06
  -3.804668e+06   6.756161e+06
  -8.240561e+06  -1.214515e+06
  -4.906430e+06  -1.046043e+07
   3.556969e+06  -1.235960e+07
   1.025024e+07  -6.513074e+06
   1.128487e+07   1.625250e+06
   7.282218e+06   7.429027e+06
   1.227798e+06   9.032516e+06
  -2.813427e+06   6.619291e+06
  -2.128375e+06   2.984034e+06
   8.927309e+05   2.044284e+06
   3.671001e+05   4.036084e+06
  -5.187782e+06   4.585049e+06
  -9.699359e+06   8.899105e+05
  -7.357193e+06  -3.891683e+06
  -6.001582e+05  -5.106878e+06
   3.499363e+06  -2.783722e+06
   2.424366e+06  -2.885927e+05
  -4.674071e+05   7.027202e+05
  -2.043053e+06   4.640259e+05
  -2.117570e+06  -1.224762e+06
  -8.899162e+05  -3.786312e+06
   1.607160e+06  -4.036221e+06
   3.365354e+06  -2.080187e+05
   2.056223e+06   3.603982e+06
  -6.113865e+05   2.179447e+06
  -4.269221e+05  -2.293589e+06
   2.447944e+06  -2.348672e+06
   2.623375e+06   3.275021e+06
  -2.398865e+06   6.528753e+06
  -7.335738e+06   1.375617e+06
  -5.664229e+06  -7.029735e+06
   1.681156e+06  -9.002772e+06
   7.612824e+06  -2.800439e+06
   7.250286e+06   4.404067e+06
   1.973388e+06   6.172895e+06
  -3.545872e+06   2.814124e+06
  -5.402396e+06  -1.537487e+06
  -2.503225e+06  -3.597174e+06
   2.497480e+06  -2.348127e+06
   4.727934e+06   8.505142e+05
   2.088510e+06   2.796932e+06
  -1.744735e+06   1.479100e+06
  -1.782829e+06  -1.042230e+06
   1.457854e+06  -9.824220e+05
   2.702431e+06   1.873341e+06
  -5.849376e+05   3.774811e+06
  -4.874780e+06   2.200550e+06
  -5.621337e+06  -1.298442e+06
  -2.534012e+06  -4.104117e+06
   1.653622e+06  -5.446888e+06
   4.888592e+06  -5.070579e+06
   6.218779e+06  -2.010474e+06
   4.807729e+06   3.004994e+06
   1.178902e+06   6.243393e+06
  -1.838267e+06   4.929108e+06
  -1.890862e+06   1.230897e+06
  -1.958647e+05  -4.141459e+05
   1.865262e+05   8.493877e+05
  -1.400488e+06   1.837899e+06
  -2.720461e+06   4.102949e+05
  -2.058377e+06  -1.768022e+06
  -1.160966e+05  -2.057035e+06
   1.466879e+06  -2.033427e+05
   1.660828e+06   2.021622e+06
   7.410528e+04   2.919536e+06
  -2.710671e+06   1.766383e+06
  -4.569438e+06  -1.015070e+06
  -3.455746e+06  -3.702416e+06
  -1.542247e+05  -4.367270e+06
   2.249808e+06  -2.928596e+06
   2.310605e+06  -1.264767e+06
   1.907308e+06  -7.192867e+05
   3.001890e+06  -5.069564e+05
   4.428669e+06   7.209073e+05
   3.568774e+06   2.755313e+06
   1.851429e+05   4.165104e+06
  -3.161160e+06   3.972403e+06
  -4.127808e+06   2.217706e+06
  -2.662230e+06  -3.250620e+05
  -3.574451e+05  -2.195516e+06
   1.020895e+06  -1.964211e+06
   5.627559e+05   4.801004e+03
  -1.056113e+06   1.336616e+06
  -1.928469e+06   4.463203e+05
  -9.810108e+05  -1.195395e+06
   4.895665e+05  -1.118782e+06
   4.080317e+05   4.159752e+05
  -1.155693e+06   6.993961e+05
  -1.972638e+06  -1.397560e+06
  -6.446552e+05  -3.664077e+06
   1.742989e+06  -3.501965e+06
   3.297266e+06  -1.055145e+06
   3.341847e+06   1.545100e+06
   2.227098e+06   2.794502e+06
   4.339827e+05   2.598695e+06
  -1.219323e+06   1.475821e+06
  -1.568854e+06   2.559870e+05
  -4.978125e+05  -4.021045e+04
   3.704859e+05   7.584623e+05
  -4.077934e+05   1.385978e+06
  -1.951350e+06   6.276225e+05
  -2.098213e+06  -8.938409e+05
  -4.036503e+05  -1.459865e+06
   1.193163e+06  -5.866535e+05
   8.824990e+05   4.684963e+05
  -8.938429e+05   5.049652e+05
  -2.202088e+06  -3.702214e+05
  -1.715250e+06  -1.389435e+06
   2.866805e+05  -1.970217e+06
   2.328101e+06  -1.659088e+06
   2.800124e+06  -2.919092e+05
   1.256670e+06   1.280228e+06
  -9.111841e+05   1.561111e+06
  -1.602373e+06   2.315847e+05
  -2.402314e+05  -1.099093e+06
   1.530361e+06  -7.724244e+05
   1.753229e+06   7.892359e+05
   3.327320e+05   1.687522e+06
  -1.134024e+06   9.836485e+05
  -1.285818e+06  -3.430501e+05
  -2.363443e+05  -8.146077e+05
   8.267771e+05  -6.732315e+04
   7.686735e+05   1.060090e+06
  -5.561274e+05   1.451369e+06
  -2.019222e+06   5.829401e+05
  -2.077339e+06  -1.031501e+06
  -4.152917e+05  -2.102160e+06
   1.451925e+06  -1.686174e+06
   1.757233e+06  -2.216001e+05
   5.083920e+05   8.878851e+05
  -6.701060e+05   8.159702e+05
  -6.230920e+05   7.716364e+04
   1.459134e+05  -3.431910e+05
   4.864873e+05  -1.725635e+05
   7.094620e+04   8.103521e+04
  -5.010711e+05  -1.038161e+05
  -5.327196e+05  -7.174612e+05
   2.194981e+05  -1.222068e+06
   1.403125e+06  -9.181510e+05
   2.114565e+06   4.020177e+05
   1.507000e+06   1.952753e+06
  -1.958163e+05   2.444626e+06
  -1.625958e+06   1.419968e+06
  -1.694831e+06  -1.400454e+05
  -8.297600e+05  -8.929494e+05
  -2.902394e+05  -6.074525e+05
  -4.967657e+05  -1.700082e+05
  -6.770663e+05  -3.064474e+05
  -1.154128e+05  -7.917478e+05
   8.911248e+05  -9.187681e+05
   1.463027e+06  -3.207599e+05
   1.039524e+06   7.255206e+05
  -2.689694e+05   1.456906e+06
  -1.736775e+06   1.078822e+06
  -2.268417e+06  -4.776652e+05
  -1.152928e+06  -2.125932e+06
   1.023011e+06  -2.417136e+06
   2.589990e+06  -1.058668e+06
   2.383648e+06   6.788819e+05
   9.394929e+05   1.364443e+06
  -2.373392e+05   9.335377e+05
  -3.785528e+05   4.760571e+05
  -2.409881e+04   7.454224e+05
  -5.508292e+04   1.339964e+06
  -6.616668e+05   1.334630e+06
  -1.315503e+06   3.501463e+05
  -1.369979e+06  -1.070719e+06
  -5.873533e+05  -1.905023e+06
   6.079610e+05  -1.457789e+06
   1.299152e+06  -4.560729e+03
   8.329870e+05   1.305926e+06
  -4.009635e+05   1.427770e+06
  -1.208747e+06   4.074941e+05
  -8.489224e+05  -7.355899e+05
   1.309145e+05  -1.124162e+06
   5.719834e+05  -8.074843e+05
   1.027110e+05  -4.133005e+05
  -4.452018e+05  -3.230781e+05
  -6.813679e+04  -3.812898e+05
   1.173545e+06  -2.260619e+05
   2.110475e+06   3.121716e+05
   1.652362e+06   1.042191e+06
  -3.723529e+04   1.478236e+06
  -1.617118e+06   1.190744e+06
  -1.865419e+06   2.887029e+05
  -8.529790e+05  -5.248330e+05
   2.634405e+05  -5.980235e+05
   5.306182e+05  -3.072551e+04
   5.385774e+04   4.400796e+05
  -4.314522e+05   2.683724e+05
  -4.948162e+05  -3.369642e+05
  -2.874444e+05  -7.102713e+05
  -1.259286e+05  -4.719975e+05
  -1.415754e+05   7.920909e+04
  -2.678586e+05   2.700325e+05
  -2.774551e+05  -2.360483e+05
   1.209749e+05  -9.849921e+05
   8.940405e+05  -1.094418e+06
   1.397433e+06  -2.241551e+05
   9.035945e+05   8.997931e+05
  -3.944501e+05   1.181515e+06
  -1.274477e+06   3.908152e+05
  -7.504700e+05  -5.584455e+05
   7.101976e+05  -6.612057e+05
   1.599286e+06   9.726412e+04
   9.923412e+05   8.806247e+05
  -5.128375e+05   9.915305e+05
  -1.514671e+06   4.588501e+05
  -1.229290e+06  -2.084115e+05
  -1.243673e+05  -5.160864e+05
   6.612197e+05  -2.670193e+05
   4.048610e+05   2.982495e+05
  -5.644579e+05   5.465649e+05
  -1.192407e+06  -3.928652e+04
  -7.220526e+05  -1.161554e+06
   5.296608e+05  -1.731948e+06
   1.460779e+06  -9.367850e+05
   1.279013e+06   7.308808e+05
   2.360300e+05   1.796259e+06
  -7.318010e+05   1.299757e+06
  -9.361804e+05  -1.874372e+05
  -4.308724e+05  -1.205787e+06
   2.414133e+05  -9.724234e+05
   5.782838e+05  -8.283675e+04
   4.525516e+05   3.748395e+05
   1.404429e+05   1.349498e+05
   5.915801e+04  -9.176429e+04
   3.269003e+05   3.012583e+05
   5.445575e+05   9.708716e+05
   1.771741e+05   1.087379e+06
  -7.513039e+05   4.128340e+05
  -1.489751e+06  -4.462047e+05
  -1.275062e+06  -8.314957e+05
  -1.956867e+05  -7.090408e+05
   8.266535e+05  -4.339281e+05
   9.823807e+05  -1.874971e+05
   3.914913e+05   5.812156e+04
  -1.315334e+05   2.306398e+05
  -6.863144e+04   1.990235e+05
   2.297811e+05   7.953238e+04
   6.708079e+04   1.280392e+05
  -6.218069e+05   2.569316e+05
  -1.059211e+06   2.309623e+04
  -5.067026e+05  -6.836270e+05
   7.839045e+05  -1.222583e+06
   1.718119e+06  -8.351981e+05
   1.476366e+06   3.717523e+05
   3.241893e+05   1.403961e+06
  -7.496925e+05   1.422034e+06
  -1.042575e+06   5.944998e+05
  -6.576604e+05  -1.988597e+05
  -1.603696e+05  -3.559532e+05
   3.189733e+04  -8.434678e+04
  -9.933015e+04  -4.338786e+03
  -2.968923e+05  -3.796644e+05
  -2.537180e+05  -8.140318e+05
   1.544826e+05  -6.973395e+05
   6.782092e+05   7.968869e+04
   7.896563e+05   9.107123e+05
   1.888672e+05   1.034346e+06
  -7.225243e+05   3.040570e+05
  -1.070940e+06  -6.611242e+05
  -4.084231e+05  -1.087806e+06
   6.892361e+05  -7.320737e+05
   1.149079e+06   2.896896e+04
   5.816022e+05   6.261437e+05
  -2.666825e+05   7.292212e+05
  -4.035257e+05   3.969586e+05
   2.118480e+05  -4.561501e+03
   6.444085e+05  -6.189170e+04
   1.705293e+05   3.115728e+05
  -8.161365e+05   7.034859e+05
  -1.293371e+06   5.591190e+05
  -8.165097e+05  -1.795323e+05
   6.683644e+04  -8.946866e+05
   5.626211e+05  -9.014337e+05
   4.566448e+05  -2.091373e+05
   8.472116e+04   4.635486e+05
  -2.180731e+05   4.654513e+05
  -3.515949e+05  -1.056804e+05
  -2.788240e+05  -5.733331e+05
   2.567792e+04  -4.618929e+05
   3.949451e+05   1.835138e+04
   5.049791e+05   2.904106e+05
   2.521545e+05   1.110848e+05
  -6.116459e+04  -1.737042e+05
  -9.581474e+04  -9.574167e+04
   6.559875e+04   3.260355e+05
   4.029289e+04   5.817666e+05
  -2.821943e+05   2.885900e+05
  -5.123283e+05  -3.195550e+05
  -2.384322e+05  -6.324445e+05
   3.816704e+05  -3.444581e+05
   6.988151e+05   2.337160e+05
   2.899842e+05   5.538253e+05
  -5.104428e+05   3.925445e+05
  -9.117928e+05  -2.832173e+04
  -5.063660e+05  -3.632497e+05
   2.789078e+05  -4.401422e+05
   6.416448e+05  -2.852319e+05
   2.790115e+05  -3.745147e+04
  -3.033690e+05   1.017397e+05
  -3.912115e+05  -1.411840e+04
   1.326746e+05  -2.700889e+05
   6.890610e+05  -2.905743e+05
