
 $NMID
 id='ANONYMOUS ', fmtdat='(2E16.6)'
 volume=1.0
 tramp=1.0
 $END
  -3.109053e+07   1.114539e+06
  -2.102558e+07  -1.537630e+07
   4.191663e+05  -2.038611e+07
   1.384299e+07  -1.224738e+07
   1.098813e+07  -6.486305e+04
   1.543582e+05   5.633340e+06
  -6.208786e+06   1.994781e+06
  -4.068249e+06  -5.162997e+06
   1.941625e+06  -7.817414e+06
   5.754379e+06  -3.253592e+06
   4.843600e+06   3.769435e+06
   7.115329e+05   6.047549e+06
  -2.742124e+06   1.469603e+06
  -2.194982e+06  -4.733274e+06
   1.850685e+06  -5.712153e+06
   5.069374e+06  -3.595952e+05
   3.693785e+06   5.964103e+06
  -1.401059e+06   7.543890e+06
  -5.766805e+06   3.782965e+06
  -6.079206e+06  -1.408824e+06
  -3.028220e+06  -4.157533e+06
   9.686475e+03  -3.784614e+06
   3.949790e+05  -2.379261e+06
  -1.380806e+06  -2.240044e+06
  -2.163493e+06  -3.597994e+06
   5.593105e+05  -4.458950e+06
   5.337196e+06  -2.856856e+06
   7.549155e+06   6.820678e+05
   4.469682e+06   3.404114e+06
  -1.141177e+06   3.205255e+06
  -3.838607e+06   7.146453e+05
  -1.585425e+06  -1.623440e+06
   2.382853e+06  -1.876297e+06
   3.802960e+06   1.108710e+05
   1.931883e+06   2.805315e+06
  -7.142772e+05   3.875121e+06
  -1.770189e+06   2.042534e+06
  -1.031171e+06  -1.100282e+06
   1.804428e+05  -2.102950e+06
   4.623453e+05   3.119394e+05
  -6.276711e+05   3.063352e+06
  -2.072732e+06   2.232550e+06
  -2.038988e+06  -1.626356e+06
   1.700822e+05  -3.759061e+06
   2.766072e+06  -1.229750e+06
   2.880617e+06   3.247646e+06
  -3.025586e+05   4.673587e+06
  -4.245107e+06   1.634774e+06
  -5.305972e+06  -2.648116e+06
  -2.290618e+06  -4.373263e+06
   2.306975e+06  -2.730645e+06
   4.566338e+06   2.965515e+05
   2.771411e+06   2.219429e+06
  -1.009531e+06   1.863370e+06
  -3.031740e+06  -1.553613e+04
  -1.700120e+06  -1.421252e+06
   9.177780e+05  -9.851502e+05
   1.645658e+06   5.755874e+05
  -1.000037e+05   1.290532e+06
  -1.819988e+06   2.805192e+05
  -1.100080e+06  -1.289779e+06
   1.509028e+06  -1.671183e+06
   3.188558e+06  -3.071851e+05
   1.963101e+06   1.949357e+06
  -1.379414e+06   3.626697e+06
  -4.250900e+06   3.377801e+06
  -4.675941e+06   8.301957e+05
  -2.799145e+06  -2.634972e+06
  -4.114475e+05  -4.591387e+06
   8.348166e+05  -3.889604e+06
   8.359785e+05  -1.937524e+06
   7.613618e+05  -9.178140e+05
   1.485024e+06  -1.068895e+06
   2.528273e+06  -7.218214e+05
   2.658821e+06   1.008415e+06
   1.310432e+06   2.703625e+06
  -7.789231e+05   2.361585e+06
  -2.162479e+06  -5.060174e+04
  -1.770179e+06  -2.451755e+06
   2.735085e+05  -2.812089e+06
   2.544529e+06  -9.831530e+05
   3.268589e+06   1.473670e+06
   1.908319e+06   2.832730e+06
  -2.038928e+05   2.574444e+06
  -1.277804e+06   1.549929e+06
  -1.121436e+06   9.318301e+05
  -1.214334e+06   9.666323e+05
  -2.523837e+06   8.102654e+05
  -3.890788e+06  -3.791135e+05
  -3.243580e+06  -2.342915e+06
  -2.204693e+05  -3.817133e+06
   3.069362e+06  -3.623423e+06
   4.086376e+06  -1.674892e+06
   2.350351e+06   8.394138e+05
  -2.472856e+05   2.210104e+06
  -1.393881e+06   1.565119e+06
  -4.665614e+05  -1.984726e+05
   1.152319e+06  -1.136203e+06
   1.655421e+06  -3.239269e+05
   6.364313e+05   1.027816e+06
  -6.391536e+05   1.053052e+06
  -7.001924e+05  -3.217615e+05
   5.511623e+05  -1.144384e+06
   1.783519e+06   1.232420e+05
   1.590819e+06   2.562634e+06
  -2.264438e+05   3.720466e+06
  -2.529512e+06   2.287905e+06
  -3.718716e+06  -6.230168e+05
  -2.903577e+06  -2.757990e+06
  -6.550573e+05  -2.840629e+06
   1.310583e+06  -1.433925e+06
   1.587490e+06  -1.112034e+05
   4.693065e+05   4.284002e+04
  -3.571044e+05  -6.983736e+05
   2.602013e+05  -1.153912e+06
   1.567877e+06  -5.575752e+05
   1.830692e+06   6.068265e+05
   4.949811e+05   1.176617e+06
  -1.047124e+06   6.219100e+05
  -1.022677e+06  -4.055090e+05
   6.850913e+05  -7.982317e+05
   2.335788e+06  -6.623369e+04
   2.119045e+06   1.284177e+06
  -2.702930e+03   2.188265e+06
  -2.237751e+06   1.831526e+06
  -2.688797e+06   3.560868e+05
  -1.148875e+06  -1.083883e+06
   7.710103e+05  -1.264366e+06
   1.273412e+06  -1.598519e+05
   9.637984e+04   9.073893e+05
  -1.387130e+06   6.731906e+05
  -1.660596e+06  -6.284080e+05
  -5.210712e+05  -1.551858e+06
   8.826312e+05  -1.133213e+06
   1.264604e+06   5.792592e+04
   4.147794e+05   6.718862e+05
  -6.457042e+05   1.013483e+05
  -6.600354e+05  -9.583728e+05
   5.830544e+05  -1.317541e+06
   1.915305e+06  -4.600476e+05
   1.901396e+06   1.014819e+06
   3.791976e+05   1.935086e+06
  -1.282362e+06   1.572566e+06
  -1.611950e+06   2.903258e+05
  -5.650272e+05  -7.838691e+05
   5.783151e+05  -8.226344e+05
   7.080615e+05  -6.390144e+04
  -2.798312e+04   5.387146e+05
  -6.284469e+05   3.935370e+05
  -4.249799e+05  -1.282859e+05
   2.809961e+05  -2.073233e+05
   6.040534e+05   4.215739e+05
  -2.718039e+04   1.102208e+06
  -1.251758e+06   9.124188e+05
  -1.986489e+06  -3.449387e+05
  -1.402141e+06  -1.826538e+06
   1.934629e+05  -2.356445e+06
   1.565885e+06  -1.506500e+06
   1.769022e+06   2.196764e+03
   1.040820e+06   9.958162e+05
   3.622900e+05   9.542732e+05
   2.768094e+05   4.015456e+05
   3.995161e+05   2.080820e+05
   7.024763e+04   5.931680e+05
  -7.650907e+05   9.113100e+05
  -1.430338e+06   4.346033e+05
  -1.164212e+06  -7.280186e+05
   1.342406e+05  -1.580238e+06
   1.666376e+06  -1.168730e+06
   2.232648e+06   4.115331e+05
   1.209720e+06   1.973497e+06
  -7.867268e+05   2.271499e+06
  -2.312465e+06   1.131765e+06
  -2.348855e+06  -4.415801e+05
  -1.170890e+06  -1.279018e+06
   6.826962e+04  -1.121586e+06
   5.243282e+05  -6.760464e+05
   3.346471e+05  -6.858667e+05
   2.130577e+05  -1.082470e+06
   5.819009e+05  -1.117865e+06
   1.151339e+06  -2.774719e+05
   1.248567e+06   1.043069e+06
   5.227470e+05   1.823945e+06
  -6.127192e+05   1.381774e+06
  -1.252911e+06   3.955457e+04
  -8.390507e+05  -1.149294e+06
   2.360783e+05  -1.335124e+06
   9.712936e+05  -5.570692e+05
   7.763820e+05   4.278556e+05
   5.802702e+04   9.093521e+05
  -3.057119e+05   7.924940e+05
   4.447223e+02   4.870121e+05
   3.769856e+05   3.631666e+05
   3.350976e+04   3.850401e+05
  -1.030469e+06   2.392518e+05
  -1.883053e+06  -2.580895e+05
  -1.559775e+06  -9.134046e+05
  -1.034141e+05  -1.287114e+06
   1.366507e+06  -1.068790e+06
   1.706432e+06  -3.731445e+05
   8.585529e+05   3.026132e+05
  -1.758202e+05   4.720788e+05
  -4.490293e+05   1.068025e+05
   1.479960e+04  -3.004122e+05
   4.768821e+05  -2.168500e+05
   4.432783e+05   3.289548e+05
   1.197607e+05   7.224161e+05
  -2.306029e+04   4.620624e+05
   1.503180e+05  -1.764908e+05
   3.683292e+05  -3.832101e+05
   2.902177e+05   2.093341e+05
  -1.953704e+05   9.875431e+05
  -8.523061e+05   1.004644e+06
  -1.158337e+06   9.914781e+04
  -6.767698e+05  -8.726439e+05
   3.890526e+05  -9.807071e+05
   1.117875e+06  -2.137904e+05
   6.857186e+05   5.876863e+05
  -6.426920e+05   6.536034e+05
  -1.588999e+06  -1.950776e+04
  -1.139143e+06  -8.042165e+05
   3.474655e+05  -1.065147e+06
   1.487148e+06  -6.402400e+05
   1.307927e+06   9.427605e+04
   1.938423e+05   5.289222e+05
  -6.149574e+05   3.224648e+05
  -3.349247e+05  -2.418107e+05
   6.170045e+05  -4.432571e+05
   1.125551e+06   1.658893e+05
   5.373055e+05   1.180484e+06
  -6.957127e+05   1.592465e+06
  -1.493191e+06   7.711885e+05
  -1.208145e+06  -7.811708e+05
  -1.762652e+05  -1.767979e+06
   7.278429e+05  -1.322269e+06
   9.281585e+05   9.925947e+04
   4.988326e+05   1.156234e+06
  -1.189973e+05   1.007535e+06
  -5.210950e+05   1.261989e+05
  -5.253554e+05  -3.899186e+05
  -2.373462e+05  -1.651717e+05
  -1.854148e+04   1.198969e+05
  -1.622365e+05  -2.253669e+05
  -4.552080e+05  -9.158749e+05
  -2.805615e+05  -1.076636e+06
   5.884970e+05  -4.102241e+05
   1.454532e+06   4.588452e+05
   1.338739e+06   8.235549e+05
   1.923105e+05   6.631851e+05
  -9.104042e+05   3.931877e+05
  -9.917354e+05   2.043162e+05
  -2.892741e+05  -9.886477e+02
   1.722529e+05  -2.092118e+05
  -5.285486e+04  -2.521590e+05
  -3.510332e+05  -1.524230e+05
  -1.036836e+04  -1.331698e+05
   7.462316e+05  -1.814646e+05
   1.003387e+06   4.688565e+04
   2.756872e+05   6.500478e+05
  -9.141253e+05   1.073794e+06
  -1.588105e+06   6.552674e+05
  -1.245679e+06  -4.767671e+05
  -2.162777e+05  -1.382346e+06
   7.297341e+05  -1.299737e+06
   1.017722e+06  -4.493980e+05
   6.443092e+05   2.849510e+05
   8.636161e+04   3.448090e+05
  -1.456758e+05   3.066309e+03
   5.343886e+04  -8.073222e+04
   3.338052e+05   3.348831e+05
   2.699536e+05   7.893445e+05
  -1.978453e+05   6.367073e+05
  -6.736388e+05  -1.868567e+05
  -6.496360e+05  -9.871927e+05
  -3.776386e+03  -9.854477e+05
   7.805966e+05  -1.439780e+05
   9.624573e+05   7.871795e+05
   2.695366e+05   1.052232e+06
  -7.088407e+05   5.845176e+05
  -1.039923e+06  -1.066851e+05
  -4.640022e+05  -5.376608e+05
   2.743483e+05  -5.769134e+05
   3.002354e+05  -3.393098e+05
  -3.150486e+05  -4.713930e+04
  -6.501796e+05   1.685522e+04
  -1.131028e+05  -2.835349e+05
   8.092068e+05  -6.604291e+05
   1.165868e+06  -5.734326e+05
   6.649706e+05   1.141454e+05
  -1.078699e+05   8.110378e+05
  -4.755402e+05   7.976730e+05
  -3.339642e+05   1.020599e+05
  -3.555322e+03  -4.942059e+05
   2.486404e+05  -3.768471e+05
   3.392274e+05   2.154361e+05
   2.285424e+05   5.649066e+05
  -7.022858e+04   3.497999e+05
  -3.735237e+05  -7.791567e+04
  -4.373565e+05  -2.283210e+05
  -2.364262e+05  -5.351648e+04
   7.494489e+02   8.973057e+04
   8.666555e+04  -6.835958e+04
   9.115459e+04  -3.801964e+05
   1.848001e+05  -4.478247e+05
   3.462472e+05  -7.976990e+04
   3.426682e+05   4.485355e+05
   2.147421e+04   6.321531e+05
  -4.323316e+05   2.632943e+05
  -5.915821e+05  -3.218847e+05
  -2.014843e+05  -5.845056e+05
   4.756498e+05  -3.391312e+05
   8.120180e+05   1.127405e+05
   4.390131e+05   3.728031e+05
  -2.864822e+05   3.329516e+05
  -5.997236e+05   1.510956e+05
  -1.888273e+05   7.389592e+03
   4.073919e+05  -1.226868e+03
   4.181821e+05   1.455902e+05
  -2.314331e+05   3.211108e+05
  -8.246091e+05   2.430123e+05
