
 $NMID
 id='ANONYMOUS ', fmtdat='(2E16.6)'
 volume=1.0
 tramp=1.0
 $END
  -4.804066e+06   7.897975e+05
  -3.828661e+06  -1.300649e+06
  -9.056313e+05  -2.955011e+06
   1.615580e+06  -2.871353e+06
   1.979938e+06  -9.791505e+05
   5.015680e+05   9.182930e+05
  -1.023869e+06   9.395285e+05
  -1.194851e+06  -6.380923e+05
  -1.627627e+05  -1.729171e+06
   8.814893e+05  -1.017707e+06
   1.007820e+06   5.674863e+05
   2.758729e+05   1.184103e+06
  -5.164452e+05   2.708072e+05
  -5.968172e+05  -1.030955e+06
   1.132591e+05  -1.322304e+06
   8.990500e+05  -3.570728e+05
   9.061364e+05   9.151138e+05
   4.041643e+04   1.380165e+06
  -8.757127e+05   7.717849e+05
  -9.967562e+05  -1.948400e+05
  -4.017881e+05  -6.330110e+05
   5.859062e+04  -4.061072e+05
  -1.813731e+05  -1.528770e+05
  -7.391263e+05  -4.149198e+05
  -7.552330e+05  -9.670345e+05
   1.104551e+05  -1.147049e+06
   1.249616e+06  -6.621497e+05
   1.649622e+06   1.392185e+05
   8.857645e+05   6.803712e+05
  -3.784188e+05   6.302727e+05
  -9.608856e+05   6.978906e+04
  -3.555288e+05  -5.489175e+05
   7.149158e+05  -6.465814e+05
   1.107182e+06  -2.478821e+04
   5.341652e+05   7.915815e+05
  -2.323965e+05   9.806491e+05
  -4.061501e+05   3.458624e+05
  -5.520816e+04  -3.850081e+05
   2.207628e+05  -3.801221e+05
   1.204575e+05   3.130462e+05
  -1.738378e+05   8.446800e+05
  -4.100005e+05   5.832376e+05
  -4.706592e+05  -1.819768e+05
  -2.619939e+05  -6.297943e+05
   1.865717e+05  -3.293383e+05
   4.852105e+05   3.549727e+05
   1.591403e+05   7.052063e+05
  -6.618658e+05   3.715565e+05
  -1.155466e+06  -3.433892e+05
  -6.917175e+05  -8.236333e+05
   3.674464e+05  -7.088382e+05
   1.028269e+06  -1.651737e+05
   7.510907e+05   3.293665e+05
  -5.129172e+04   4.228913e+05
  -5.641615e+05   1.485081e+05
  -4.043149e+05  -1.667431e+05
   1.178542e+05  -2.095708e+05
   3.991501e+05   5.144786e+04
   1.467164e+05   3.393363e+05
  -3.348644e+05   3.252164e+05
  -4.546670e+05  -2.737942e+04
  -8.554445e+03  -3.730080e+05
   5.161722e+05  -3.030086e+05
   4.586496e+05   2.122670e+05
  -2.254881e+05   7.355298e+05
  -8.939226e+05   7.598201e+05
  -9.699615e+05   1.963769e+05
  -5.472701e+05  -5.439138e+05
  -1.330183e+05  -9.468758e+05
   8.426582e+03  -8.590591e+05
   4.415675e+04  -5.577474e+05
   2.104366e+05  -3.793004e+05
   4.992512e+05  -3.301470e+05
   7.154468e+05  -1.363398e+05
   6.752058e+05   3.182577e+05
   3.200236e+05   7.214348e+05
  -2.154294e+05   6.304741e+05
  -5.981709e+05   2.278214e+04
  -5.078663e+05  -5.927021e+05
   2.870961e+04  -6.827476e+05
   5.817327e+05  -2.263300e+05
   7.068441e+05   3.272658e+05
   3.786319e+05   5.625803e+05
  -2.923097e+04   4.554942e+05
  -1.823398e+05   2.672737e+05
  -1.324991e+05   2.155917e+05
  -2.000752e+05   2.871632e+05
  -5.437620e+05   2.898283e+05
  -9.010292e+05   3.923719e+04
  -8.152021e+05  -4.470742e+05
  -1.539831e+05  -8.882924e+05
   6.460461e+05  -9.259052e+05
   9.501736e+05  -4.591939e+05
   5.657286e+05   1.962934e+05
  -6.296395e+04   5.492188e+05
  -3.380213e+05   3.796438e+05
  -1.102352e+05  -5.579899e+04
   2.615427e+05  -2.869247e+05
   3.677960e+05  -1.081453e+05
   1.463183e+05   2.187835e+05
  -1.431957e+05   2.672646e+05
  -2.071230e+05  -4.874471e+04
   4.138298e+04  -3.333186e+05
   4.104932e+05  -1.420619e+05
   5.411826e+05   4.669798e+05
   1.938128e+05   9.240008e+05
  -4.724293e+05   7.405791e+05
  -9.533220e+05   3.882094e+04
  -8.454022e+05  -5.883196e+05
  -2.565027e+05  -6.971316e+05
   2.912023e+05  -3.793423e+05
   3.862505e+05  -5.397787e+04
   1.125657e+05  -1.334462e+03
  -1.032891e+05  -1.546840e+05
   1.999839e+04  -2.634147e+05
   3.291285e+05  -1.670913e+05
   4.327843e+05   7.297694e+04
   1.585242e+05   2.444694e+05
  -2.236156e+05   1.810678e+05
  -2.727278e+05  -6.486231e+04
   1.234924e+05  -2.396842e+05
   5.772644e+05  -1.207520e+05
   5.884157e+05   2.446920e+05
   8.561876e+04   5.525270e+05
  -4.870259e+05   5.203100e+05
  -6.336297e+05   1.621500e+05
  -2.958712e+05  -2.149774e+05
   1.425180e+05  -2.972937e+05
   2.733457e+05  -6.294498e+04
   3.158765e+04   1.999375e+05
  -3.062899e+05   1.890334e+05
  -4.101605e+05  -9.428891e+04
  -1.850975e+05  -3.493871e+05
   1.592784e+05  -3.120722e+05
   3.053062e+05  -4.715093e+04
   1.353483e+05   1.372152e+05
  -1.360181e+05   4.355373e+04
  -1.737613e+05  -2.065776e+05
   1.113516e+05  -3.223616e+05
   4.445156e+05  -1.485452e+05
   4.713015e+05   1.971174e+05
   1.378330e+05   4.446200e+05
  -2.550413e+05   4.036259e+05
  -3.698737e+05   1.185579e+05
  -1.629781e+05  -1.652479e+05
   1.100272e+05  -2.152653e+05
   1.790585e+05  -3.324252e+04
   2.006985e+04   1.503553e+05
  -1.554310e+05   1.347558e+05
  -1.421333e+05  -2.276974e+04
   3.930441e+04  -8.724037e+04
   1.631879e+05   5.720129e+04
   4.022584e+04   2.558680e+05
  -2.660412e+05   2.529017e+05
  -4.792428e+05  -2.766564e+04
  -3.772842e+05  -3.962892e+05
  -1.368290e+04  -5.697186e+05
   3.354976e+05  -4.155200e+05
   4.371730e+05  -5.954381e+04
   3.008971e+05   2.243464e+05
   1.223261e+05   2.570302e+05
   5.732465e+04   1.150644e+05
   7.433066e+04   3.232061e+04
   2.663197e+04   1.231558e+05
  -1.502513e+05   2.401013e+05
  -3.330230e+05   1.538132e+05
  -3.146246e+05  -1.466932e+05
  -2.231419e+04  -3.995700e+05
   3.678113e+05  -3.360217e+05
   5.500327e+05   3.604205e+04
   3.501796e+05   4.333749e+05
  -1.099849e+05   5.571223e+05
  -5.052989e+05   3.408784e+05
  -5.781047e+05  -2.312537e+04
  -3.406454e+05  -2.709152e+05
  -3.049788e+04  -2.923853e+05
   1.233560e+05  -1.989629e+05
   9.498454e+04  -1.716252e+05
   4.114223e+04  -2.443228e+05
   1.060467e+05  -2.650516e+05
   2.571020e+05  -8.909635e+04
   3.186163e+05   2.194901e+05
   1.675454e+05   4.226442e+05
  -1.142262e+05   3.445977e+05
  -2.990120e+05   4.530525e+04
  -2.335625e+05  -2.422823e+05
   7.005550e+03  -3.207444e+05
   1.973049e+05  -1.741176e+05
   1.908139e+05   5.382252e+04
   5.511955e+04   1.971794e+05
  -2.742435e+04   1.975511e+05
   2.351528e+04   1.251872e+05
   9.464745e+04   8.310628e+04
   1.468393e+04   9.349245e+04
  -2.303022e+05   8.529469e+04
  -4.419853e+05  -1.016831e+04
  -3.931917e+05  -1.696567e+05
  -7.127489e+04  -2.905554e+05
   2.806775e+05  -2.817168e+05
   3.892068e+05  -1.424517e+05
   2.158825e+05   2.918431e+04
  -2.265991e+04   1.063352e+05
  -9.790668e+04   4.466759e+04
   3.576964e+03  -6.010170e+04
   1.153556e+05  -6.036645e+04
   1.112784e+05   6.812544e+04
   3.126989e+04   1.750820e+05
  -8.526664e+03   1.130594e+05
   3.228169e+04  -5.660048e+04
   8.899974e+04  -1.146900e+05
   7.710408e+04   4.077954e+04
  -2.944785e+04   2.461886e+05
  -1.778943e+05   2.573108e+05
  -2.563479e+05   4.003123e+04
  -1.645217e+05  -1.936681e+05
   7.008532e+04  -2.287181e+05
   2.521261e+05  -6.232659e+04
   1.758907e+05   1.286138e+05
  -1.328143e+05   1.745590e+05
  -3.857426e+05   4.413054e+04
  -3.122354e+05  -1.576488e+05
   4.001491e+04  -2.745197e+05
   3.414324e+05  -2.122659e+05
   3.278486e+05  -2.283906e+04
   6.789540e+04   1.245208e+05
  -1.363060e+05   9.963624e+04
  -8.041191e+04  -4.498930e+04
   1.445912e+05  -1.139007e+05
   2.723937e+05   2.425896e+04
   1.430890e+05   2.764847e+05
  -1.454995e+05   3.928369e+05
  -3.477653e+05   2.101542e+05
  -3.076026e+05  -1.642794e+05
  -8.261389e+04  -4.233338e+05
   1.423245e+05  -3.429208e+05
   2.270860e+05  -8.627084e+03
   1.578070e+05   2.630841e+05
   9.577963e+03   2.509502e+05
  -1.175537e+05   4.813016e+04
  -1.453013e+05  -8.229404e+04
  -7.188661e+04  -3.639117e+04
   2.843989e+03   3.219911e+04
  -2.840532e+04  -4.418426e+04
  -1.252704e+05  -2.062097e+05
  -1.064458e+05  -2.529786e+05
   1.163805e+05  -1.137496e+05
   3.624905e+05   7.544346e+04
   3.534803e+05   1.645093e+05
   6.334879e+04   1.518920e+05
  -2.200139e+05   1.158162e+05
  -2.368991e+05   7.717802e+04
  -5.986898e+04   1.225651e+04
   4.068428e+04  -5.353653e+04
  -3.186843e+04  -6.449665e+04
  -1.019361e+05  -3.445566e+04
  -3.315729e+02  -3.302969e+04
   1.898236e+05  -5.681635e+04
   2.403183e+05  -7.250294e+03
   6.070819e+04   1.492699e+05
  -2.086051e+05   2.711029e+05
  -3.577870e+05   1.818665e+05
  -2.932777e+05  -9.575696e+04
  -7.758444e+04  -3.294175e+05
   1.427591e+05  -3.229331e+05
   2.345534e+05  -1.211176e+05
   1.634322e+05   6.132801e+04
   2.248917e+04   8.106131e+04
  -4.725920e+04  -2.818624e+03
   5.771673e+03  -2.919621e+04
   9.328886e+04   6.814185e+04
   8.760706e+04   1.825250e+05
  -3.635928e+04   1.543220e+05
  -1.690389e+05  -3.871552e+04
  -1.702684e+05  -2.319624e+05
  -7.717639e+03  -2.361110e+05
   1.931080e+05  -3.973799e+04
   2.447094e+05   1.799115e+05
   7.881382e+04   2.465057e+05
  -1.603197e+05   1.460774e+05
  -2.455172e+05  -7.489279e+03
  -1.145427e+05  -1.108103e+05
   5.361805e+04  -1.323884e+05
   5.436525e+04  -8.390528e+04
  -8.854876e+04  -7.751130e+03
  -1.586940e+05   1.650502e+04
  -2.896907e+04  -6.367830e+04
   1.794205e+05  -1.773880e+05
   2.560818e+05  -1.703640e+05
   1.492698e+05   5.044699e+03
  -9.867594e+03   1.921373e+05
  -8.708162e+04   1.955515e+05
  -6.714554e+04   2.200191e+04
  -5.803938e+03  -1.237992e+05
   5.439457e+04  -8.954915e+04
   8.766535e+04   5.465736e+04
   6.520621e+04   1.310667e+05
  -1.321878e+04   7.609365e+04
  -9.119801e+04  -1.535197e+04
  -1.052114e+05  -3.849600e+04
  -5.697868e+04  -1.265826e+03
  -4.079974e+03   1.385973e+04
   1.729871e+04  -3.517067e+04
   2.757282e+04  -1.013514e+05
   5.668927e+04  -1.019682e+05
   8.999644e+04  -8.031245e+03
   7.900847e+04   1.142752e+05
   6.568412e+00   1.547420e+05
  -1.039951e+05   6.755076e+04
  -1.422448e+05  -7.251539e+04
  -5.558136e+04  -1.406933e+05
   1.038718e+05  -8.931395e+04
   1.911866e+05   1.546994e+04
   1.098707e+05   8.075534e+04
  -6.256536e+04   7.783790e+04
  -1.387729e+05   3.868920e+04
  -3.699343e+04   3.097983e+03
   1.101511e+05  -1.559051e+03
   1.091288e+05   3.749253e+04
  -5.748387e+04   8.990147e+04
  -2.082128e+05   7.671339e+04
