
 $NMID
 id='ANONYMOUS ', fmtdat='(2E16.6)'
 volume=1.0
 tramp=1.0
 $END
  -9.375282e+06  -1.713556e+06
  -5.225149e+06  -5.139959e+06
   9.699464e+05  -5.557410e+06
   4.293413e+06  -3.352110e+06
   3.213516e+06  -2.351730e+05
   8.705395e+04   1.564127e+06
  -1.846787e+06   7.776033e+05
  -1.328632e+06  -1.497984e+06
   5.312737e+05  -2.569081e+06
   1.796098e+06  -1.045845e+06
   1.431827e+06   1.442161e+06
  -1.078078e+04   2.110692e+06
  -1.051950e+06   3.036384e+05
  -6.854827e+05  -1.846050e+06
   6.686565e+05  -1.984600e+06
   1.568750e+06  -4.753744e+04
   9.727668e+05   1.987806e+06
  -7.092733e+05   2.303972e+06
  -1.997095e+06   8.539950e+05
  -1.798890e+06  -9.122836e+05
  -4.935668e+05  -1.567626e+06
   4.834756e+05  -1.001493e+06
   1.761876e+05  -3.480055e+05
  -8.272651e+05  -6.238971e+05
  -1.006923e+06  -1.529815e+06
   3.613449e+05  -1.828201e+06
   2.241347e+06  -8.604814e+05
   2.801748e+06   6.686572e+05
   1.364386e+06   1.510355e+06
  -7.837332e+05   1.132944e+06
  -1.661210e+06   2.178591e+04
  -6.126527e+05  -9.047169e+05
   1.094043e+06  -9.234565e+05
   1.697992e+06   6.513590e+04
   7.785165e+05   1.299845e+06
  -5.016196e+05   1.599615e+06
  -8.507558e+05   5.713892e+05
  -2.151205e+05  -7.114749e+05
   4.196257e+05  -7.867974e+05
   2.987014e+05   3.960283e+05
  -3.601441e+05   1.324992e+06
  -8.120308e+05   8.063768e+05
  -6.180029e+05  -5.286798e+05
   4.867431e+04  -1.054130e+06
   6.336839e+05  -1.674481e+05
   5.747276e+05   1.076334e+06
  -2.894733e+05   1.294968e+06
  -1.399156e+06   2.634808e+05
  -1.731285e+06  -1.043841e+06
  -7.585272e+05  -1.539686e+06
   8.202353e+05  -9.522425e+05
   1.622794e+06   1.057691e+05
   9.980179e+05   7.523629e+05
  -2.966956e+05   5.781038e+05
  -9.611458e+05  -6.207924e+04
  -5.240531e+05  -4.607026e+05
   3.160126e+05  -2.726723e+05
   5.931387e+05   2.101398e+05
   9.818425e+04   4.587053e+05
  -5.038100e+05   2.549406e+05
  -4.455459e+05  -1.697105e+05
   2.960419e+05  -3.868663e+05
   9.082293e+05  -1.011462e+05
   5.569029e+05   6.002230e+05
  -6.681715e+05   1.190401e+06
  -1.740746e+06   1.041130e+06
  -1.744429e+06   4.248135e+04
  -8.225517e+05  -1.146172e+06
   8.321545e+04  -1.670464e+06
   3.409021e+05  -1.341781e+06
   2.078485e+05  -7.578890e+05
   2.959145e+05  -5.161828e+05
   7.578941e+05  -5.101052e+05
   1.178106e+06  -1.891725e+05
   1.095194e+06   5.864827e+05
   4.434076e+05   1.215411e+06
  -4.177336e+05   9.913208e+05
  -9.301714e+05  -4.187186e+04
  -6.877221e+05  -1.024231e+06
   1.934593e+05  -1.102026e+06
   1.035566e+06  -2.531221e+05
   1.143608e+06   7.469575e+05
   4.915781e+05   1.131881e+06
  -2.569062e+05   8.358122e+05
  -4.989225e+05   3.880329e+05
  -3.474699e+05   2.457155e+05
  -4.037132e+05   3.456652e+05
  -9.320187e+05   2.817303e+05
  -1.438821e+06  -2.036012e+05
  -1.173221e+06  -9.412644e+05
  -1.030315e+04  -1.456200e+06
   1.265653e+06  -1.325536e+06
   1.648107e+06  -5.310516e+05
   9.007926e+05   4.357561e+05
  -1.935075e+05   8.943912e+05
  -6.300131e+05   5.683149e+05
  -1.797591e+05  -1.106039e+05
   4.892936e+05  -4.100719e+05
   6.301720e+05  -7.222362e+04
   1.870590e+05   4.133367e+05
  -2.857129e+05   4.024322e+05
  -2.935182e+05  -1.110500e+05
   1.461193e+05  -4.509615e+05
   6.044928e+05  -4.539794e+04
   6.179693e+05   8.590941e+05
   2.236123e+04   1.387829e+06
  -8.757941e+05   9.389543e+05
  -1.430262e+06  -1.851727e+05
  -1.158563e+06  -1.081387e+06
  -2.474474e+05  -1.132501e+06
   5.461289e+05  -5.400506e+05
   6.315821e+05  -4.361330e+03
   1.797103e+05   2.598423e+04
  -1.237078e+05  -2.729990e+05
   1.175351e+05  -4.143678e+05
   5.853752e+05  -1.643630e+05
   6.616734e+05   2.512109e+05
   1.682299e+05   4.330626e+05
  -4.019961e+05   2.218458e+05
  -4.042247e+05  -1.604792e+05
   2.423039e+05  -3.200985e+05
   9.031494e+05  -4.189487e+04
   8.435492e+05   5.016449e+05
   6.023880e+03   8.615413e+05
  -8.839137e+05   6.929139e+05
  -1.040549e+06   9.708029e+04
  -4.093562e+05  -4.270740e+05
   3.231154e+05  -4.429655e+05
   4.696764e+05  -1.646364e+04
  -2.393243e+03   3.440911e+05
  -5.431434e+05   2.227270e+05
  -6.200802e+05  -2.602023e+05
  -1.908802e+05  -5.898144e+05
   3.283720e+05  -4.301074e+05
   4.749831e+05   1.439290e+04
   1.618114e+05   2.444512e+05
  -2.334077e+05   2.293314e+04
  -2.259940e+05  -3.803344e+05
   2.586580e+05  -4.932359e+05
   7.514171e+05  -1.311237e+05
   7.074974e+05   4.343285e+05
   1.045558e+05   7.464114e+05
  -5.143603e+05   5.726778e+05
  -6.151460e+05   8.689010e+04
  -2.082008e+05  -3.012119e+05
   2.291491e+05  -3.076985e+05
   2.871700e+05  -1.691870e+04
   3.573296e+03   2.239454e+05
  -2.543034e+05   1.747184e+05
  -2.034786e+05  -4.214434e+04
   7.288368e+04  -9.682981e+04
   2.203870e+05   1.393514e+05
  -1.449867e+04   4.069559e+05
  -4.877832e+05   3.277633e+05
  -7.539806e+05  -1.670894e+05
  -5.010183e+05  -7.281133e+05
   1.173141e+05  -9.079129e+05
   6.242490e+05  -5.692424e+05
   6.908176e+05   1.035205e+04
   4.182410e+05   4.042093e+05
   1.530279e+05   4.102439e+05
   9.177331e+04   1.972499e+05
   1.186024e+05   9.260001e+04
   2.583688e+03   2.145803e+05
  -3.003014e+05   3.361568e+05
  -5.556663e+05   1.574160e+05
  -4.563575e+05  -2.958080e+05
   5.634798e+04  -6.203576e+05
   6.568287e+05  -4.357708e+05
   8.581268e+05   1.909015e+05
   4.388748e+05   7.708799e+05
  -3.265979e+05   8.466395e+05
  -8.881678e+05   3.978148e+05
  -8.936309e+05  -1.868360e+05
  -4.563390e+05  -4.963520e+05
   1.645293e+04  -4.471025e+05
   2.194804e+05  -2.845290e+05
   1.769653e+05  -2.735334e+05
   1.308557e+05  -4.013788e+05
   2.485695e+05  -4.004947e+05
   4.410052e+05  -7.361738e+04
   4.570575e+05   4.308719e+05
   1.642220e+05   7.157290e+05
  -2.657867e+05   5.223565e+05
  -4.832471e+05  -3.255828e+03
  -3.015746e+05  -4.455314e+05
   1.012719e+05  -4.990130e+05
   3.552838e+05  -2.046633e+05
   2.720197e+05   1.514329e+05
   1.608898e+04   3.233995e+05
  -1.051369e+05   2.884942e+05
   7.207619e+03   1.921470e+05
   1.366383e+05   1.556022e+05
   3.688007e+03   1.531427e+05
  -3.906017e+05   7.074387e+04
  -7.047895e+05  -1.372822e+05
  -5.780995e+05  -3.730324e+05
  -2.416269e+04  -4.768183e+05
   5.312766e+05  -3.694750e+05
   6.511923e+05  -1.187910e+05
   3.188808e+05   1.084292e+05
  -7.393214e+04   1.637280e+05
  -1.643945e+05   3.804618e+04
   2.525878e+04  -1.063236e+05
   1.971034e+05  -7.428468e+04
   1.620979e+05   1.374102e+05
   1.868876e+04   2.944026e+05
  -3.226917e+04   1.872079e+05
   5.700402e+04  -7.712286e+04
   1.540652e+05  -1.611512e+05
   1.099848e+05   8.277292e+04
  -9.930007e+04   3.869295e+05
  -3.492362e+05   3.674171e+05
  -4.360585e+05  -5.502969e+03
  -2.256141e+05  -3.610606e+05
   1.778177e+05  -3.557875e+05
   4.333898e+05  -3.897852e+04
   2.534055e+05   2.468583e+05
  -2.546823e+05   2.405991e+05
  -6.148371e+05  -2.516312e+04
  -4.431722e+05  -3.160024e+05
   1.312778e+05  -4.089986e+05
   5.780084e+05  -2.438631e+05
   5.111594e+05   4.128371e+04
   7.525800e+04   2.071256e+05
  -2.374298e+05   1.194309e+05
  -1.166676e+05  -9.773602e+04
   2.590575e+05  -1.555916e+05
   4.369782e+05   9.929497e+04
   1.731365e+05   4.815601e+05
  -3.216210e+05   6.055576e+05
  -6.076704e+05   2.622334e+05
  -4.548662e+05  -3.331765e+05
  -3.322333e+04  -6.935036e+05
   3.034134e+05  -5.069858e+05
   3.552293e+05   4.469285e+04
   1.809108e+05   4.505364e+05
  -4.775664e+04   3.885401e+05
  -1.972134e+05   4.245079e+04
  -2.073966e+05  -1.581292e+05
  -1.017782e+05  -6.608637e+04
  -3.396657e+03   4.720246e+04
  -3.861414e+04  -9.173779e+04
  -1.510563e+05  -3.640499e+05
  -1.026746e+05  -4.180950e+05
   2.195852e+05  -1.417264e+05
   5.578070e+05   2.053583e+05
   5.159512e+05   3.383950e+05
   6.179872e+04   2.574371e+05
  -3.725964e+05   1.395564e+05
  -3.905432e+05   6.641129e+04
  -9.923951e+04  -4.619856e+03
   7.596145e+04  -7.897649e+04
  -3.214787e+04  -9.812788e+04
  -1.512446e+05  -6.595435e+04
   3.609933e+03  -5.582112e+04
   3.112789e+05  -5.812245e+04
   3.891646e+05   4.442216e+04
   7.167082e+04   2.673710e+05
  -3.955294e+05   3.966399e+05
  -6.268899e+05   2.051085e+05
  -4.607983e+05  -2.293037e+05
  -5.032344e+04  -5.468855e+05
   3.100669e+05  -4.823198e+05
   4.098862e+05  -1.431034e+05
   2.504743e+05   1.310642e+05
   2.004081e+04   1.389282e+05
  -7.316196e+04  -3.269347e+03
   1.273342e+04  -3.698076e+04
   1.264567e+05   1.293853e+05
   9.330990e+04   3.090835e+05
  -9.512537e+04   2.416395e+05
  -2.655340e+05  -9.494086e+04
  -2.278201e+05  -4.113505e+05
   3.590806e+04  -3.899586e+05
   3.218723e+05  -3.051843e+04
   3.590989e+05   3.415575e+05
   7.234755e+04   4.190654e+05
  -2.961174e+05   2.028890e+05
  -3.973781e+05  -7.205979e+04
  -1.557290e+05  -2.145572e+05
   1.253503e+05  -2.056454e+05
   1.150778e+05  -1.161715e+05
  -1.357713e+05  -2.307558e+04
  -2.572217e+05  -7.999121e+03
  -3.222513e+04  -1.127380e+05
   3.280528e+05  -2.403061e+05
   4.503454e+05  -2.000483e+05
   2.386119e+05   5.658557e+04
  -6.374047e+04   3.085992e+05
  -1.949414e+05   2.884943e+05
  -1.251815e+05   1.680328e+04
   1.312286e+04  -2.006519e+05
   1.110385e+05  -1.357458e+05
   1.337941e+05   1.015048e+05
   7.467891e+04   2.260785e+05
  -4.368009e+04   1.263293e+05
  -1.456766e+05  -4.365511e+04
  -1.567936e+05  -9.333534e+04
  -8.670041e+04  -1.952783e+04
  -1.196574e+04   2.967316e+04
   2.499688e+04  -4.180717e+04
   5.485028e+04  -1.612124e+05
   1.098476e+05  -1.704154e+05
   1.545177e+05  -7.582796e+03
   1.162374e+05   2.031850e+05
  -2.404569e+04   2.590323e+05
  -1.826567e+05   9.037654e+04
  -2.196702e+05  -1.500072e+05
  -6.199389e+04  -2.394441e+05
   1.904092e+05  -1.175090e+05
   3.096176e+05   7.101871e+04
   1.591131e+05   1.571789e+05
  -1.237758e+05   1.148234e+05
  -2.395785e+05   3.336526e+04
  -6.615652e+04  -8.140171e+03
   1.753809e+05   1.066355e+04
   1.709871e+05   7.558789e+04
  -1.028771e+05   1.324292e+05
  -3.424782e+05   8.438257e+04
