
 $NMID
 id='ANONYMOUS ', fmtdat='(2E16.6)'
 volume=1.0
 tramp=1.0
 $END
  -3.321080e+07   4.817412e+05
  -2.191762e+07  -1.733116e+07
   1.286482e+06  -2.189081e+07
   1.524306e+07  -1.229653e+07
   1.154405e+07   6.756948e+05
  -2.061210e+05   5.983733e+06
  -6.605560e+06   1.653233e+06
  -3.920081e+06  -5.656901e+06
   2.453296e+06  -7.984124e+06
   6.180070e+06  -3.078627e+06
   4.964201e+06   4.081844e+06
   5.917293e+05   6.299754e+06
  -2.881796e+06   1.513404e+06
  -2.129272e+06  -4.878418e+06
   2.144149e+06  -5.791884e+06
   5.339549e+06  -1.365545e+05
   3.665597e+06   6.407468e+06
  -1.737387e+06   7.899438e+06
  -6.203545e+06   3.860014e+06
  -6.439618e+06  -1.578113e+06
  -3.236683e+06  -4.475303e+06
   1.034472e+04  -4.159185e+06
   6.056613e+05  -2.677054e+06
  -1.106741e+06  -2.357325e+06
  -2.000248e+06  -3.590189e+06
   6.224763e+05  -4.454724e+06
   5.446602e+06  -2.855755e+06
   7.737338e+06   7.775317e+05
   4.612085e+06   3.576835e+06
  -1.116922e+06   3.324191e+06
  -3.864968e+06   7.540317e+05
  -1.606062e+06  -1.552648e+06
   2.332981e+06  -1.747223e+06
   3.717476e+06   1.806483e+05
   1.881624e+06   2.777196e+06
  -7.186881e+05   3.879532e+06
  -1.822539e+06   2.144082e+06
  -1.159592e+06  -1.044103e+06
   8.610324e+04  -2.208616e+06
   4.596489e+05   1.628170e+05
  -6.477077e+05   3.020939e+06
  -2.174788e+06   2.207408e+06
  -2.058569e+06  -1.801795e+06
   4.080985e+05  -3.979472e+06
   3.124219e+06  -1.193634e+06
   3.018000e+06   3.593055e+06
  -5.040022e+05   4.998780e+06
  -4.544981e+06   1.626537e+06
  -5.419487e+06  -2.921283e+06
  -2.181863e+06  -4.593569e+06
   2.481904e+06  -2.704559e+06
   4.660044e+06   4.988814e+05
   2.724698e+06   2.404709e+06
  -1.165364e+06   1.890484e+06
  -3.173953e+06  -1.455714e+05
  -1.707697e+06  -1.568900e+06
   1.005729e+06  -1.005207e+06
   1.656075e+06   6.550296e+05
  -2.260697e+05   1.284338e+06
  -1.909877e+06   9.599712e+04
  -9.736131e+05  -1.500566e+06
   1.786757e+06  -1.693500e+06
   3.391394e+06  -1.287582e+05
   1.974710e+06   2.158643e+06
  -1.499028e+06   3.744000e+06
  -4.414529e+06   3.410086e+06
  -4.837842e+06   7.975291e+05
  -2.888537e+06  -2.750229e+06
  -3.499799e+05  -4.750182e+06
   1.007710e+06  -3.974696e+06
   9.662767e+05  -1.889870e+06
   7.592800e+05  -8.163991e+05
   1.417310e+06  -1.019734e+06
   2.492832e+06  -7.317954e+05
   2.656332e+06   9.943319e+05
   1.297126e+06   2.699476e+06
  -7.911500e+05   2.339947e+06
  -2.134959e+06  -9.417909e+04
  -1.713104e+06  -2.493728e+06
   3.273997e+05  -2.836844e+06
   2.602396e+06  -9.769287e+05
   3.343634e+06   1.538988e+06
   1.955635e+06   2.960799e+06
  -2.439445e+05   2.709051e+06
  -1.389226e+06   1.624283e+06
  -1.232925e+06   9.368369e+05
  -1.297216e+06   9.298041e+05
  -2.600972e+06   7.331750e+05
  -3.953285e+06  -5.054794e+05
  -3.234570e+06  -2.475864e+06
  -1.208121e+05  -3.881278e+06
   3.197974e+06  -3.599382e+06
   4.169106e+06  -1.618353e+06
   2.368641e+06   8.745832e+05
  -2.683458e+05   2.221105e+06
  -1.422466e+06   1.567465e+06
  -4.713698e+05  -2.000182e+05
   1.186268e+06  -1.129267e+06
   1.697148e+06  -2.919061e+05
   6.382525e+05   1.064273e+06
  -6.633910e+05   1.049646e+06
  -6.796515e+05  -3.508636e+05
   6.280179e+05  -1.113695e+06
   1.814161e+06   2.543842e+05
   1.479800e+06   2.704025e+06
  -4.272113e+05   3.739900e+06
  -2.668027e+06   2.164079e+06
  -3.714897e+06  -7.886899e+05
  -2.813130e+06  -2.864775e+06
  -5.708063e+05  -2.869000e+06
   1.354250e+06  -1.414941e+06
   1.603240e+06  -7.963836e+04
   4.742657e+05   5.540537e+04
  -3.431380e+05  -7.183260e+05
   3.020511e+05  -1.173736e+06
   1.622341e+06  -5.273132e+05
   1.850399e+06   6.790371e+05
   4.633086e+05   1.219976e+06
  -1.083470e+06   5.984095e+05
  -1.012913e+06  -4.411554e+05
   7.271506e+05  -7.695200e+05
   2.352130e+06   2.355390e+04
   2.078875e+06   1.360259e+06
  -7.979385e+04   2.195273e+06
  -2.313364e+06   1.778509e+06
  -2.730612e+06   2.845050e+05
  -1.138526e+06  -1.136911e+06
   8.199022e+05  -1.275701e+06
   1.310885e+06  -1.333738e+05
   8.333779e+04   9.306637e+05
  -1.427025e+06   6.498850e+05
  -1.666146e+06  -6.884617e+05
  -4.728958e+05  -1.589758e+06
   9.380747e+05  -1.111485e+06
   1.277429e+06   1.107641e+05
   3.896159e+05   6.994930e+05
  -6.667445e+05   8.397170e+04
  -6.488210e+05  -9.909775e+05
   6.206980e+05  -1.323363e+06
   1.951573e+06  -4.225419e+05
   1.903962e+06   1.074734e+06
   3.346416e+05   1.973888e+06
  -1.346536e+06   1.561310e+06
  -1.644321e+06   2.462421e+05
  -5.460283e+05  -8.133623e+05
   6.117496e+05  -8.149724e+05
   7.109382e+05  -4.615662e+04
  -5.083674e+04   5.309472e+05
  -6.362802e+05   3.658900e+05
  -4.023957e+05  -1.388433e+05
   3.044447e+05  -1.824595e+05
   5.949769e+05   4.607883e+05
  -6.842883e+04   1.120158e+06
  -1.297109e+06   8.889087e+05
  -2.004380e+06  -4.035996e+05
  -1.374369e+06  -1.888183e+06
   2.572314e+05  -2.378847e+06
   1.624405e+06  -1.473565e+06
   1.780873e+06   5.829338e+04
   1.009691e+06   1.026511e+06
   3.341946e+05   9.500553e+05
   2.822294e+05   3.963613e+05
   4.163388e+05   2.257097e+05
   5.914389e+04   6.131195e+05
  -8.041287e+05   9.004590e+05
  -1.457303e+06   3.937849e+05
  -1.147535e+06  -7.654092e+05
   1.862355e+05  -1.583579e+06
   1.717310e+06  -1.130104e+06
   2.244998e+06   4.782223e+05
   1.165847e+06   2.033858e+06
  -8.687694e+05   2.282356e+06
  -2.382223e+06   1.077595e+06
  -2.362167e+06  -5.231092e+05
  -1.133092e+06  -1.328334e+06
   1.103698e+05  -1.118513e+06
   5.382402e+05  -6.547305e+05
   3.352084e+05  -6.859847e+05
   2.321924e+05  -1.103052e+06
   6.211353e+05  -1.127352e+06
   1.179769e+06  -2.550953e+05
   1.240666e+06   1.086963e+06
   4.840297e+05   1.859665e+06
  -6.542484e+05   1.383366e+06
  -1.268785e+06   4.753780e+03
  -8.167910e+05  -1.192375e+06
   2.839106e+05  -1.348022e+06
   1.011200e+06  -5.278129e+05
   7.783662e+05   4.721295e+05
   2.313409e+04   9.341841e+05
  -3.468351e+05   7.939312e+05
  -1.953603e+04   4.871441e+05
   3.751252e+05   3.734427e+05
   2.594538e+04   3.889785e+05
  -1.055620e+06   2.140700e+05
  -1.908702e+06  -3.125704e+05
  -1.556741e+06  -9.709785e+05
  -6.208806e+04  -1.314952e+06
   1.423213e+06  -1.051762e+06
   1.742867e+06  -3.266877e+05
   8.591444e+05   3.427023e+05
  -1.950556e+05   4.804264e+05
  -4.616421e+05   9.133194e+04
   1.773590e+04  -3.115155e+05
   4.837158e+05  -2.093170e+05
   4.420003e+05   3.439598e+05
   1.126853e+05   7.305859e+05
  -2.568801e+04   4.656595e+05
   1.561609e+05  -1.677242e+05
   3.757111e+05  -3.692387e+05
   2.867156e+05   2.205497e+05
  -2.182006e+05   9.908975e+05
  -8.888592e+05   9.975874e+05
  -1.186698e+06   7.894144e+04
  -6.750120e+05  -8.992099e+05
   4.178908e+05  -9.926649e+05
   1.143202e+06  -1.985945e+05
   6.805880e+05   6.089561e+05
  -6.702303e+05   6.434194e+05
  -1.604074e+06  -6.669508e+04
  -1.119095e+06  -8.473223e+05
   3.899222e+05  -1.061658e+06
   1.520332e+06  -5.951154e+05
   1.312850e+06   1.374845e+05
   1.770561e+05   5.383925e+05
  -6.324631e+05   3.057984e+05
  -3.365250e+05  -2.562793e+05
   6.304627e+05  -4.376318e+05
   1.135366e+06   1.885001e+05
   5.231203e+05   1.203441e+06
  -7.326388e+05   1.597100e+06
  -1.524380e+06   7.495163e+05
  -1.202996e+06  -8.166387e+05
  -1.352271e+05  -1.790435e+06
   7.698059e+05  -1.313741e+06
   9.350169e+05   1.303976e+05
   4.687120e+05   1.183608e+06
  -1.548481e+05   1.011997e+06
  -5.331891e+05   1.110917e+05
  -5.150978e+05  -4.067283e+05
  -2.287128e+05  -1.714635e+05
  -2.469576e+04   1.188526e+05
  -1.689466e+05  -2.359133e+05
  -4.413306e+05  -9.395271e+05
  -2.479707e+05  -1.095185e+06
   6.154158e+05  -3.994116e+05
   1.458040e+06   5.004986e+05
   1.325168e+06   8.673069e+05
   1.770213e+05   6.773256e+05
  -9.234616e+05   3.750152e+05
  -1.005715e+06   1.788685e+05
  -2.988681e+05  -1.187462e+04
   1.766202e+05  -2.077799e+05
  -3.845666e+04  -2.529475e+05
  -3.419804e+05  -1.588737e+05
  -1.068863e+04  -1.340633e+05
   7.493659e+05  -1.678047e+05
   1.014727e+06   6.894017e+04
   2.763622e+05   6.643997e+05
  -9.416611e+05   1.068657e+06
  -1.627672e+06   6.317670e+05
  -1.259138e+06  -5.060505e+05
  -1.889420e+05  -1.401655e+06
   7.714504e+05  -1.300543e+06
   1.039864e+06  -4.363266e+05
   6.432060e+05   2.988515e+05
   8.299335e+04   3.506452e+05
  -1.392488e+05   4.041795e+03
   5.947119e+04  -7.471993e+04
   3.258549e+05   3.498836e+05
   2.506798e+05   8.054629e+05
  -2.133595e+05   6.411485e+05
  -6.747308e+05  -1.993199e+05
  -6.383664e+05  -1.007782e+06
   9.872458e+03  -9.969443e+05
   7.870206e+05  -1.348788e+05
   9.570133e+05   8.110720e+05
   2.534931e+05   1.070682e+06
  -7.287881e+05   5.807440e+05
  -1.053447e+06  -1.294895e+05
  -4.622339e+05  -5.600737e+05
   2.908395e+05  -5.849400e+05
   3.184519e+05  -3.388202e+05
  -3.096639e+05  -5.302085e+04
  -6.559953e+05   2.777314e+03
  -1.105525e+05  -2.906739e+05
   8.343428e+05  -6.479886e+05
   1.200165e+06  -5.476016e+05
   6.783107e+05   1.363074e+05
  -1.271994e+05   8.209303e+05
  -5.061778e+05   7.996676e+05
  -3.472322e+05   1.017902e+05
   4.300216e+03  -4.964347e+05
   2.584352e+05  -3.793966e+05
   3.369253e+05   2.191254e+05
   2.190618e+05   5.764422e+05
  -7.664782e+04   3.582846e+05
  -3.760192e+05  -8.449799e+04
  -4.400814e+05  -2.457160e+05
  -2.384912e+05  -6.394632e+04
   2.757345e+03   9.578568e+04
   9.066691e+04  -5.599857e+04
   9.203650e+04  -3.769820e+05
   1.829429e+05  -4.547369e+05
   3.463294e+05  -8.471166e+04
   3.444496e+05   4.524440e+05
   1.918258e+04   6.374939e+05
  -4.395433e+05   2.593669e+05
  -5.951144e+05  -3.341636e+05
  -1.935574e+05  -5.927580e+05
   4.909917e+05  -3.333634e+05
   8.226375e+05   1.292017e+05
   4.375742e+05   3.868766e+05
  -2.969025e+05   3.354331e+05
  -6.113326e+05   1.456226e+05
  -1.965074e+05   4.864422e+03
   4.038942e+05   3.450796e+03
   4.157851e+05   1.495152e+05
  -2.358389e+05   3.141412e+05
  -8.295206e+05   2.259196e+05
