
 $NMID
 id='ANONYMOUS ', fmtdat='(2E16.6)'
 volume=1.0
 tramp=1.0
 $END
  -4.091036e+07   3.037118e+05
  -2.559022e+07  -2.260062e+07
   3.141207e+06  -2.676019e+07
   1.868151e+07  -1.328707e+07
   1.281752e+07   2.121860e+06
  -9.862566e+05   6.824913e+06
  -7.365145e+06   1.033317e+06
  -3.727463e+06  -6.650427e+06
   3.199934e+06  -8.472600e+06
   7.076287e+06  -2.976309e+06
   5.778435e+06   4.686714e+06
   8.741337e+05   7.151112e+06
  -3.298031e+06   1.980830e+06
  -2.591424e+06  -5.147589e+06
   2.387572e+06  -6.226613e+06
   6.116677e+06   1.527933e+05
   4.105830e+06   7.559745e+06
  -2.205694e+06   9.245132e+06
  -7.471446e+06   4.652321e+06
  -7.979881e+06  -1.745664e+06
  -4.322941e+06  -5.592362e+06
  -3.814971e+04  -5.630052e+06
   1.391524e+06  -3.534726e+06
  -4.916009e+05  -2.207039e+06
  -2.227564e+06  -3.159492e+06
   1.021015e+05  -4.710000e+06
   5.648593e+06  -3.752141e+06
   8.768848e+06   1.589321e+05
   5.635174e+06   3.811732e+06
  -7.574462e+05   4.117215e+06
  -4.112121e+06   1.515873e+06
  -2.146702e+06  -1.183504e+06
   1.784777e+06  -1.915450e+06
   3.570221e+06  -3.733735e+05
   2.370754e+06   2.428212e+06
  -9.722293e+04   4.235785e+06
  -1.900449e+06   2.830762e+06
  -1.920628e+06  -9.393682e+05
  -4.027568e+05  -2.858983e+06
   7.748527e+05  -3.941199e+05
  -1.600590e+05   3.141500e+06
  -2.216656e+06   2.454015e+06
  -2.235867e+06  -2.156048e+06
   9.304587e+05  -4.572386e+06
   4.211757e+06  -1.031815e+06
   3.631950e+06   4.674260e+06
  -9.343777e+05   6.089045e+06
  -5.512006e+06   1.931690e+06
  -6.126281e+06  -3.274422e+06
  -2.349161e+06  -5.022722e+06
   2.687330e+06  -2.887001e+06
   4.961773e+06   5.592533e+05
   2.815644e+06   2.586022e+06
  -1.457100e+06   1.990506e+06
  -3.603580e+06  -2.931451e+05
  -1.829828e+06  -1.847661e+06
   1.212683e+06  -1.129951e+06
   1.750990e+06   6.832002e+05
  -4.184633e+05   1.139068e+06
  -1.958035e+06  -3.362427e+05
  -4.864612e+05  -1.872813e+06
   2.553577e+06  -1.668030e+06
   3.914338e+06   2.253768e+05
   2.128609e+06   2.653000e+06
  -1.543960e+06   4.406595e+06
  -4.688466e+06   4.200656e+06
  -5.468385e+06   1.286163e+06
  -3.625455e+06  -2.956121e+06
  -7.067109e+05  -5.381952e+06
   1.092433e+06  -4.352735e+06
   1.026682e+06  -1.788501e+06
   4.718528e+05  -6.857371e+05
   1.028356e+06  -1.296726e+06
   2.433282e+06  -1.296227e+06
   3.007627e+06   5.579353e+05
   1.796027e+06   2.604374e+06
  -4.424668e+05   2.516621e+06
  -2.106458e+06   1.662168e+05
  -1.974336e+06  -2.384228e+06
   8.316422e+04  -3.042287e+06
   2.766720e+06  -1.354315e+06
   3.936497e+06   1.404747e+06
   2.510640e+06   3.304076e+06
  -1.606977e+05   3.283225e+06
  -1.689102e+06   2.010208e+06
  -1.520237e+06   1.029201e+06
  -1.423540e+06   9.438831e+05
  -2.751967e+06   8.336710e+05
  -4.264550e+06  -3.841423e+05
  -3.592239e+06  -2.490764e+06
  -3.516066e+05  -4.129420e+06
   3.156480e+06  -4.060131e+06
   4.314014e+06  -2.099563e+06
   2.654081e+06   6.693260e+05
   4.653149e+03   2.397550e+06
  -1.332430e+06   1.857889e+06
  -5.384013e+05  -1.458625e+05
   1.165150e+06  -1.311050e+06
   1.822081e+06  -4.148181e+05
   7.934946e+05   1.138094e+06
  -5.942670e+05   1.161396e+06
  -6.527853e+05  -3.193050e+05
   6.778367e+05  -1.044453e+06
   1.833478e+06   4.521571e+05
   1.415379e+06   2.880487e+06
  -5.032936e+05   3.741040e+06
  -2.690180e+06   2.099652e+06
  -3.768374e+06  -7.296896e+05
  -2.990482e+06  -2.739204e+06
  -7.723937e+05  -2.887395e+06
   1.301112e+06  -1.595674e+06
   1.679276e+06  -2.307278e+05
   5.053594e+05   2.515750e+04
  -4.022996e+05  -7.442444e+05
   2.961873e+05  -1.283788e+06
   1.753671e+06  -6.349571e+05
   2.006413e+06   6.776384e+05
   5.103839e+05   1.294765e+06
  -1.125654e+06   6.679710e+05
  -1.047921e+06  -4.014883e+05
   7.351874e+05  -7.720831e+05
   2.397839e+06  -5.017510e+04
   2.170765e+06   1.268230e+06
   2.385887e+04   2.228284e+06
  -2.302769e+06   1.973030e+06
  -2.853967e+06   4.608623e+05
  -1.270660e+06  -1.162473e+06
   8.307530e+05  -1.438634e+06
   1.438171e+06  -2.105267e+05
   1.589868e+05   1.022957e+06
  -1.491318e+06   7.815340e+05
  -1.791982e+06  -6.528731e+05
  -5.447130e+05  -1.639334e+06
   9.464402e+05  -1.162791e+06
   1.315253e+06   9.862031e+04
   3.930448e+05   7.183627e+05
  -7.357819e+05   1.009365e+05
  -7.615108e+05  -1.035369e+06
   5.717548e+05  -1.466210e+06
   2.055356e+06  -5.940223e+05
   2.106731e+06   1.017018e+06
   4.770271e+05   2.083950e+06
  -1.349671e+06   1.733548e+06
  -1.724279e+06   3.410297e+05
  -5.982449e+05  -8.273198e+05
   6.060484e+05  -8.779101e+05
   7.189642e+05  -1.030433e+05
  -3.164392e+04   5.056593e+05
  -5.936458e+05   3.886581e+05
  -3.569665e+05  -7.769921e+04
   3.296223e+05  -1.249612e+05
   6.156851e+05   5.013108e+05
  -4.676705e+04   1.190357e+06
  -1.333281e+06   1.010940e+06
  -2.153176e+06  -3.089761e+05
  -1.583086e+06  -1.921640e+06
   1.120906e+05  -2.527266e+06
   1.601091e+06  -1.628355e+06
   1.835670e+06  -4.022450e+04
   1.090028e+06   9.553212e+05
   4.352252e+05   8.804423e+05
   3.989275e+05   3.619144e+05
   5.097378e+05   2.573393e+05
   1.004261e+05   6.905077e+05
  -8.069639e+05   9.939103e+05
  -1.498814e+06   4.904692e+05
  -1.233297e+06  -7.074382e+05
   1.004729e+05  -1.633807e+06
   1.729220e+06  -1.279978e+06
   2.388778e+06   3.626309e+05
   1.333642e+06   2.080065e+06
  -8.222963e+05   2.461154e+06
  -2.476880e+06   1.248363e+06
  -2.492248e+06  -4.425787e+05
  -1.214402e+06  -1.308171e+06
   5.931605e+04  -1.117491e+06
   4.640801e+05  -6.904990e+05
   2.359709e+05  -7.854360e+05
   1.537864e+05  -1.245391e+06
   6.108413e+05  -1.265267e+06
   1.262269e+06  -3.497828e+05
   1.399464e+06   1.069824e+06
   6.422919e+05   1.937918e+06
  -5.955424e+05   1.510591e+06
  -1.334873e+06   7.870236e+04
  -9.204044e+05  -1.228566e+06
   2.518966e+05  -1.436279e+06
   1.063859e+06  -5.636213e+05
   8.355124e+05   5.206015e+05
   2.339001e+04   1.009448e+06
  -3.737146e+05   8.329764e+05
  -4.348646e+03   4.825699e+05
   4.406093e+05   3.604192e+05
   6.499894e+04   4.082056e+05
  -1.123373e+06   2.828392e+05
  -2.071048e+06  -2.275543e+05
  -1.707438e+06  -9.481998e+05
  -1.027488e+05  -1.405369e+06
   1.489295e+06  -1.204866e+06
   1.830345e+06  -4.265964e+05
   8.992288e+05   3.524795e+05
  -2.034993e+05   5.387607e+05
  -4.893557e+05   1.023179e+05
  -8.913745e+03  -3.673613e+05
   4.829034e+05  -2.709793e+05
   4.984385e+05   3.338913e+05
   2.125826e+05   7.685035e+05
   4.136246e+04   5.049912e+05
   1.399639e+05  -1.650367e+05
   3.339566e+05  -3.959583e+05
   3.135683e+05   2.170777e+05
  -1.388424e+05   1.061875e+06
  -8.810367e+05   1.126729e+06
  -1.309579e+06   1.738543e+05
  -8.233412e+05  -9.228073e+05
   3.883643e+05  -1.117491e+06
   1.237546e+06  -3.172398e+05
   7.737413e+05   5.876193e+05
  -6.723637e+05   7.158408e+05
  -1.677515e+06   2.402006e+04
  -1.188005e+06  -8.118998e+05
   3.656421e+05  -1.104907e+06
   1.538184e+06  -6.831110e+05
   1.353578e+06   7.220319e+04
   2.070944e+05   5.411750e+05
  -6.466942e+05   3.453551e+05
  -3.812456e+05  -2.661904e+05
   6.270461e+05  -5.323273e+05
   1.229879e+06   9.386260e+04
   6.784662e+05   1.235565e+06
  -6.266716e+05   1.771755e+06
  -1.548911e+06   9.348433e+05
  -1.337577e+06  -7.632957e+05
  -2.797232e+05  -1.875376e+06
   7.115318e+05  -1.422484e+06
   9.812435e+05   9.324716e+04
   5.519338e+05   1.211746e+06
  -1.189677e+05   1.049921e+06
  -5.612061e+05   1.372317e+05
  -5.509762e+05  -3.796374e+05
  -2.297250e+05  -1.474512e+05
  -2.473450e+04   1.147681e+05
  -2.267718e+05  -2.696702e+05
  -5.438031e+05  -9.739450e+05
  -3.087622e+05  -1.120646e+06
   6.563610e+05  -4.457825e+05
   1.569670e+06   4.214169e+05
   1.430394e+06   8.100513e+05
   2.297240e+05   7.079648e+05
  -9.223439e+05   4.754070e+05
  -1.035639e+06   2.544949e+05
  -3.336545e+05  -1.503857e+04
   1.617953e+05  -2.382743e+05
  -3.345353e+04  -2.369226e+05
  -3.462947e+05  -1.133532e+05
  -3.513465e+04  -1.446204e+05
   7.489243e+05  -2.587847e+05
   1.087118e+06  -1.061553e+04
   3.897624e+05   7.059289e+05
  -8.918292e+05   1.232703e+06
  -1.707368e+06   8.072535e+05
  -1.419820e+06  -4.363695e+05
  -3.210066e+05  -1.468473e+06
   7.323969e+05  -1.443681e+06
   1.077830e+06  -5.633906e+05
   7.058643e+05   2.480263e+05
   1.285679e+05   3.715565e+05
  -1.251561e+05   4.501970e+04
   6.047273e+04  -5.702126e+04
   3.521320e+05   3.512382e+05
   3.116897e+05   8.301870e+05
  -1.741133e+05   7.045146e+05
  -7.310853e+05  -1.359258e+05
  -7.796428e+05  -1.004004e+06
  -1.005003e+05  -1.072675e+06
   8.141068e+05  -2.411575e+05
   1.096399e+06   7.599860e+05
   3.715327e+05   1.123929e+06
  -7.305268e+05   6.973203e+05
  -1.145832e+06  -5.251107e+04
  -5.439643e+05  -5.871058e+05
   2.761197e+05  -6.714406e+05
   3.413194e+05  -3.812122e+05
  -3.064650e+05  -1.057695e+04
  -6.890383e+05   6.098153e+04
  -1.479622e+05  -3.086410e+05
   8.330108e+05  -7.462104e+05
   1.247320e+06  -6.411665e+05
   7.505120e+05   1.254549e+05
  -7.315687e+04   8.919964e+05
  -5.047256e+05   8.895692e+05
  -3.967132e+05   1.462352e+05
  -5.361586e+04  -5.194487e+05
   2.442948e+05  -4.401417e+05
   3.812265e+05   1.791656e+05
   2.813746e+05   5.944069e+05
  -5.442147e+04   4.122779e+05
  -4.100312e+05  -4.926285e+04
  -4.883879e+05  -2.479954e+05
  -2.524193e+05  -6.584629e+04
   1.667811e+04   1.267287e+05
   7.777179e+04  -2.313598e+04
   2.575923e+04  -4.018968e+05
   1.158727e+05  -5.428242e+05
   3.597247e+05  -1.709360e+05
   4.463102e+05   4.326911e+05
   1.189334e+05   6.858040e+05
  -4.365135e+05   3.272264e+05
  -6.810933e+05  -2.958080e+05
  -2.690983e+05  -6.072624e+05
   5.039787e+05  -3.933318e+05
   9.024256e+05   6.584281e+04
   5.024200e+05   3.779812e+05
  -2.952438e+05   3.988985e+05
  -6.519957e+05   2.244792e+05
  -2.301970e+05   1.810768e+04
   4.061001e+05  -5.906609e+04
   4.505886e+05   9.207381e+04
  -1.954469e+05   3.413621e+05
  -8.223359e+05   3.187350e+05
