
 $NMID
 id='ANONYMOUS ', fmtdat='(2E16.6)'
 volume=1.0
 tramp=1.0
 $END
  -3.795527e+03  -9.400562e+00
  -2.314308e+03  -2.105168e+03
   3.649009e+02  -2.257248e+03
   1.705511e+03  -1.074356e+03
   1.125726e+03   3.023815e+01
  -3.526648e+02   4.627987e+02
  -6.813074e+02  -2.520803e+02
   3.151965e+01  -8.673529e+02
   6.367472e+02  -6.890112e+02
   7.456831e+02  -1.624303e+01
   4.813639e+02   7.102818e+02
  -9.770816e+01   8.618163e+02
  -4.017281e+02   1.694849e+02
  -2.448582e+02  -5.230246e+02
   2.218012e+02  -5.491722e+02
   5.329660e+02  -2.829649e+01
   3.640991e+02   5.696520e+02
  -1.817061e+02   6.350835e+02
  -5.509250e+02   2.273908e+02
  -3.928708e+02  -2.708687e+02
  -5.454494e+01  -3.967763e+02
   1.588758e+02  -2.149739e+02
   1.157793e+02  -8.095429e+01
  -1.516166e+02   9.522989e+00
  -3.376070e+02  -1.119550e+02
  -5.033492e+01  -4.555146e+02
   4.687056e+02  -2.627641e+02
   7.404425e+02   1.285643e+02
   3.064360e+02   4.529686e+02
  -4.090029e+02   2.902428e+02
  -7.208856e+02  -8.163585e+01
  -2.611597e+02  -3.908002e+02
   3.480418e+02  -4.753580e+02
   4.854192e+02  -1.743851e+02
   3.312282e+02   2.410352e+02
   6.313985e+01   4.414728e+02
  -1.246200e+02   2.339496e+02
  -8.818849e+01  -1.679004e+02
   1.765150e+02  -2.655805e+02
   2.815820e+02   7.366490e+01
   1.492555e+02   5.500870e+02
  -2.965838e+02   5.584884e+02
  -4.662681e+02  -1.195800e+01
  -2.041788e+02  -4.748174e+02
   2.083792e+02  -2.019745e+02
   2.396543e+02   3.521790e+02
  -6.007231e+01   4.825446e+02
  -4.860545e+02   1.170789e+02
  -5.320781e+02  -3.599328e+02
  -2.176556e+02  -5.534827e+02
   3.597964e+02  -2.743622e+02
   5.725340e+02   9.684057e+01
   3.121918e+02   3.331682e+02
  -1.602843e+02   2.358350e+02
  -3.551649e+02   3.441344e+01
  -1.995222e+02  -1.814573e+02
   4.471914e+01  -7.121732e+01
   6.149092e+01   1.017933e+02
  -1.275022e+02   1.577998e+02
  -2.824166e+02  -5.776129e+01
  -1.509334e+02  -2.412301e+02
   1.466982e+02  -2.661522e+02
   3.452787e+02  -9.121581e+01
   2.450797e+02   8.712413e+01
  -6.269594e+01   2.949005e+02
  -2.606038e+02   3.498147e+02
  -3.208134e+02   1.733161e+02
  -2.635265e+02  -2.175464e+02
  -7.770982e+01  -4.129612e+02
   1.119967e+02  -3.126899e+02
   7.277502e+01  -1.250963e+02
   6.861414e+01  -4.238637e+01
   9.489768e+01  -5.966868e+01
   1.999140e+02  -3.208498e+01
   2.692899e+02   7.950079e+01
   8.072605e+01   2.413413e+02
  -1.158576e+02   2.175463e+02
  -1.941744e+02  -6.666111e+00
  -1.590920e+02  -2.237062e+02
   4.725924e+01  -2.416876e+02
   2.865948e+02  -7.760525e+01
   3.497524e+02   1.767765e+02
   1.619960e+02   3.179031e+02
  -1.030265e+02   2.681257e+02
  -2.127196e+02   1.207770e+02
  -1.191624e+02   1.344548e+01
  -1.072681e+02   3.846855e+01
  -2.617671e+02   8.556193e+01
  -3.771490e+02  -1.075235e+02
  -3.595283e+02  -2.812466e+02
   1.196617e+01  -4.254625e+02
   3.850596e+02  -4.060091e+02
   5.233109e+02  -1.749424e+02
   3.458533e+02   9.545444e+01
   1.636034e+01   2.770831e+02
  -8.194333e+01   2.268864e+02
  -4.464287e+01   6.198505e+00
   1.400750e+02  -9.370347e+01
   1.672570e+02   2.073533e+01
   1.666853e+01   1.979480e+02
  -1.514786e+02   1.701235e+02
  -1.591831e+02  -5.822396e+01
   6.766725e+01  -1.922706e+02
   2.271298e+02  -4.626395e+01
   1.959907e+02   2.385393e+02
  -4.083963e+01   3.494193e+02
  -2.093809e+02   2.564926e+02
  -3.218002e+02  -3.756712e+01
  -2.879150e+02  -2.284436e+02
  -8.681468e+01  -2.455355e+02
   1.264386e+02  -1.444851e+02
   1.372900e+02  -1.304397e+00
   2.898510e+01   2.780363e+01
  -8.485576e+01  -6.552900e+01
  -4.224845e+01  -1.125287e+02
   1.386603e+02  -8.683433e+01
   1.450893e+02   4.157232e+01
   7.150223e+01   5.218240e+01
  -9.286051e+01   3.965999e+01
  -3.999181e+01  -8.243194e+01
   1.645681e+02  -7.764794e+01
   2.828366e+02   3.815333e+00
   2.371146e+02   2.125240e+02
   6.715013e+01   2.956999e+02
  -1.488710e+02   2.302701e+02
  -2.776173e+02   1.232575e+02
  -1.812047e+02  -3.314837e+01
   2.711324e+01  -8.003358e+01
   7.702364e+01   6.638563e+01
  -6.179177e+01   9.304157e+01
  -2.037932e+02   9.552726e+01
  -2.193481e+02  -8.999877e+01
  -1.241464e+02  -1.572201e+02
   7.271517e+00  -1.805709e+02
   1.156368e+02  -5.981158e+01
   7.104623e+01   5.992352e+01
  -4.957982e+01   3.573559e-01
  -3.789754e+01  -7.312094e+01
   9.455635e+01  -1.028790e+02
   2.022223e+02  -3.666423e+01
   1.951224e+02   1.414642e+02
  -1.417267e+01   2.026759e+02
  -1.048545e+02   1.410081e+02
  -1.976467e+02  -2.333149e+01
  -3.969417e+01  -7.139833e+01
   9.026082e+01  -1.134732e+02
   8.998178e+01  -3.130829e+01
   2.608815e+01   1.242178e+01
  -1.313970e+01  -1.898133e+01
   3.647628e+01  -7.610885e+00
   1.665864e+00   6.420812e+01
   1.028291e+01   1.527643e+02
   1.009291e+01   1.661502e+02
  -1.549940e+02   1.684871e+02
  -2.762781e+02   2.573074e+01
  -2.067985e+02  -1.529935e+02
  -6.379466e+01  -2.611412e+02
   8.074089e+01  -1.444972e+02
   1.318206e+02  -2.147443e+01
   9.592233e+01   4.225786e+01
   2.348745e+01   2.781670e+01
   7.971998e+01  -2.395674e+01
   9.239153e+01  -2.574020e+01
   4.302795e+01   5.214054e+01
  -6.613190e+01   1.049302e+02
  -1.103999e+02   7.918130e+01
  -9.934293e+01  -7.164946e+01
   4.046603e+01  -1.017445e+02
   1.604384e+02  -6.652802e+01
   2.356153e+02   3.441970e+01
   6.824106e+01   1.965265e+02
  -1.562660e+02   2.461894e+02
  -2.584506e+02   1.529232e+01
  -2.474208e+02  -1.183093e+02
  -1.295864e+02  -1.342472e+02
   5.724720e+01  -1.172957e+02
   1.234650e+02  -5.643957e+01
   7.154261e+01  -4.646449e+01
   8.260726e+01  -7.758020e+01
   5.126293e+01  -6.413125e+01
   1.188247e+02   1.131315e+01
   1.161500e+02   1.496850e+02
  -7.858827e+00   2.624551e+02
  -1.158869e+02   1.721677e+02
  -1.618505e+02  -1.688442e+01
  -1.484100e+02  -1.264793e+02
  -4.702923e+01  -1.779987e+02
   3.240100e+01  -7.840873e+01
   5.522060e+01   1.301494e+01
   7.373769e+00   3.923126e+01
  -2.595690e+01  -3.282765e+00
   2.622636e+01  -1.411031e+00
   8.792477e+01   1.585492e+01
   4.433527e+01  -1.001343e+01
  -4.400288e+01   4.636130e+00
  -1.437590e+02   2.067193e+01
  -1.275096e+02  -3.541157e+01
   1.118896e+01  -6.157201e+01
   1.061475e+02  -5.947507e+01
   1.640026e+02   1.137138e+01
   5.374319e+01   5.266356e+01
  -4.114735e+01   1.576551e+01
  -6.717034e+01  -3.075459e+01
  -1.878261e+01  -3.803117e+01
   4.104167e+01  -3.486377e+01
   5.310378e+01   1.479138e+01
   5.212550e+01   3.260075e+01
   5.110171e+01   6.727319e+01
   6.755074e+01   1.708514e+01
   5.380148e+01   1.807877e+01
   1.798613e+00   8.517471e+01
  -5.104502e+01   1.418942e+02
  -1.610486e+02   1.096545e+02
  -2.076473e+02   1.056422e+01
  -1.042371e+02  -1.298728e+02
   9.370872e+00  -1.718722e+02
   7.618284e+01  -5.896008e+01
   1.522258e+01   3.689758e+01
  -7.388740e+01   1.299203e+01
  -1.290604e+02  -4.144142e+01
  -4.032028e+01  -1.174089e+02
   1.192644e+02  -9.455631e+01
   2.037937e+02  -5.759245e+01
   1.641401e+02   2.566672e+01
   3.150219e+01   7.729283e+01
  -3.280361e+01   4.586827e+01
  -4.888833e+01  -4.200625e+00
   2.644048e+01  -8.219472e+00
   1.170914e+02  -2.301745e+00
   4.833346e+01   1.224212e+02
  -8.397905e+01   1.188781e+02
  -1.578779e+02   4.889711e+01
  -1.496146e+02  -5.719405e+01
  -4.716798e+01  -2.007450e+02
   1.077530e+02  -1.296828e+02
   9.135260e+01   1.808934e+00
   6.632846e+01   1.282133e+02
   2.546561e+01   1.432052e+02
   2.136460e+01   1.085855e+01
  -4.035806e+01  -1.734917e+01
  -4.607831e+01  -4.956207e+00
  -1.302039e+01   5.280402e+01
  -2.756354e+01  -6.841893e+01
  -3.830078e+01  -9.071402e+01
  -2.675437e+01  -1.238165e+02
   2.441047e+01  -5.186940e+01
   1.194893e+02   2.154581e+01
   1.539426e+02   5.918413e+01
   2.533296e+01   5.883951e+01
  -5.634424e+01   2.682009e+01
  -9.148181e+01   2.624254e+00
  -6.299873e+00  -5.092616e+01
   3.035040e+01  -5.784843e+01
   1.243290e+01  -4.733365e+01
  -7.951938e+00  -9.074794e+00
   1.562534e+01   9.219830e+00
   1.077894e+02   1.439137e+01
   7.677440e+01   4.389691e+01
   3.072166e+00   9.503784e+01
  -9.164683e+01   4.128624e+01
  -1.969301e+02   3.848539e+01
  -1.490666e+02  -7.219343e+01
   1.488401e+01  -1.570962e+02
   7.535076e+01  -1.537660e+02
   1.217641e+02  -6.283602e+01
   7.703745e+01   4.141196e+01
   4.365074e+01   4.024386e+01
   2.651972e+01   2.989707e+01
   4.475498e+01  -2.005315e+01
   9.077899e+01   4.291275e+01
   1.079926e+01   9.037438e+01
  -5.258002e+01   2.211122e+01
  -1.034651e+02  -3.204440e+01
  -3.847848e+01  -1.258739e+02
   8.613312e+00  -9.771033e+01
   3.506548e+01  -2.742898e+01
   6.474185e+01   6.351932e+01
   5.282788e+01   1.251886e+02
  -9.335473e+01   6.309439e+01
  -1.283318e+02  -6.777284e+00
  -3.874765e+01  -9.814606e+01
   7.253827e+00  -7.874957e+01
   4.200042e+01   1.583244e+01
  -1.276719e+01   2.115314e+01
  -6.393749e+01   4.937824e+01
  -7.934939e+00  -1.557747e+01
   6.843739e+01  -1.349679e+01
   1.102501e+02  -1.362792e+01
   9.792384e+01   5.315215e+01
  -3.081005e+01   7.215001e+01
  -8.708801e+01   8.268594e+01
  -2.145529e+01   1.126886e+01
   8.752440e+00  -2.208660e+01
  -9.233568e+00  -6.153871e+01
   4.691469e+01  -4.042732e+01
   4.069257e+01   4.416672e+01
  -1.266304e+01   5.570474e+01
  -1.956230e+01   5.219068e+00
  -6.614708e+01  -1.035055e+01
  -6.884508e+01   2.015857e+01
  -1.045366e+01  -2.916314e+01
   6.132005e+01  -4.610335e+01
   2.559785e+01  -5.973206e+01
   5.273252e+01  -1.001979e+02
   5.807154e+01   2.636011e+01
   6.039505e+01   4.979288e+01
   2.700399e+01   8.391769e+01
  -6.731763e+00   3.504979e+01
  -3.974827e+01  -2.022603e+01
   4.230194e+01  -8.047619e+01
   1.080662e+02  -6.794339e+01
   1.263220e+02   4.856517e+01
   2.355943e+01   3.851136e+01
  -4.321605e+01   4.757462e+01
  -4.393038e+01   3.792861e+01
  -1.944176e+01  -2.017205e+01
   4.651017e+01   9.581872e+00
   1.955184e+01   2.696992e+00
  -3.175007e+01  -6.923849e+00
  -1.095875e+02   5.195308e+00
