
 $NMID
 id='ANONYMOUS ', fmtdat='(2E16.6)'
 volume=1.0
 tramp=1.0
 $END
   3.465721e+03  -3.360435e+01
   2.216602e+03   1.660866e+03
  -3.464695e+01   2.202699e+03
  -1.349713e+03   1.257240e+03
  -1.049710e+03   1.015780e+02
   3.993654e+01  -2.383580e+02
   4.388700e+02   1.389064e+02
   3.058265e+01   5.959671e+02
  -4.499578e+02   6.769009e+02
  -6.718409e+02   4.493244e+01
  -4.580364e+02  -6.368249e+02
  -3.727095e+01  -6.979312e+02
   4.351208e+02  -2.233111e+02
   3.075651e+02   4.309366e+02
  -1.192157e+02   5.117420e+02
  -5.070915e+02   1.047384e+02
  -3.079797e+02  -5.664446e+02
   2.044715e+02  -6.862553e+02
   5.011207e+02  -2.163669e+02
   4.699603e+02   2.086970e+02
   1.595178e+02   4.014431e+02
  -1.789344e+02   2.646884e+02
  -1.453035e+02   2.851024e-01
   2.907524e+02   8.986422e+00
   3.566415e+02   2.091689e+02
   2.944741e+01   4.192348e+02
  -5.271390e+02   2.733044e+02
  -6.881327e+02  -2.266643e+02
  -2.558486e+02  -4.347173e+02
   2.866965e+02  -3.038599e+02
   5.816933e+02   1.030442e+02
   2.633568e+02   4.262817e+02
  -2.503291e+02   3.822080e+02
  -4.977051e+02   1.566711e+02
  -4.203121e+02  -1.772179e+02
  -9.361514e+01  -3.797601e+02
   3.600653e+01  -1.591731e+02
   2.928749e+00   1.591257e+02
  -1.789407e+02   2.010006e+02
  -2.779723e+02  -1.252194e+02
  -4.504644e+01  -5.626985e+02
   2.734955e+02  -5.230631e+02
   4.017539e+02  -4.535553e+01
   1.978292e+02   3.382857e+02
  -1.577279e+02   1.651567e+02
  -2.177500e+02  -2.612011e+02
   1.223739e+02  -4.085939e+02
   5.147136e+02  -7.327103e+01
   5.469031e+02   3.861063e+02
   2.160443e+02   5.238782e+02
  -3.511046e+02   3.011624e+02
  -5.514222e+02  -6.265027e+01
  -3.266131e+02  -2.928481e+02
   4.134224e+01  -2.535466e+02
   3.137272e+02  -1.000882e+02
   2.400986e+02   4.702763e+01
   1.318024e+01   2.596177e+01
  -5.977064e+01  -4.629295e+01
   7.954455e+01  -5.004083e+01
   2.068955e+02   5.288647e+01
   9.870217e+01   2.461998e+02
  -1.428661e+02   2.527553e+02
  -3.312674e+02   1.249610e+02
  -2.748841e+02  -8.689405e+01
   7.599040e+00  -3.082399e+02
   2.963741e+02  -3.453366e+02
   3.622179e+02  -1.671365e+02
   2.297375e+02   1.523876e+02
   4.041120e+01   3.611888e+02
  -1.211856e+01   3.681171e+02
  -3.816278e+01   1.872569e+02
   3.338725e+00   1.022825e+02
  -1.144150e+02   1.004407e+02
  -2.848336e+02   5.872229e+01
  -2.492382e+02  -1.289566e+02
  -1.016342e+02  -2.645535e+02
   9.913332e+01  -2.064626e+02
   2.817914e+02   3.657135e+01
   1.926337e+02   2.803514e+02
  -8.332264e+01   2.894137e+02
  -3.051365e+02   7.051840e+01
  -3.254328e+02  -1.831642e+02
  -2.004887e+02  -2.884716e+02
   2.025034e+01  -2.719351e+02
   1.680331e+02  -1.718258e+02
   1.558590e+02  -1.028284e+02
   1.583702e+02  -7.287510e+01
   2.675336e+02  -8.144394e+01
   4.272461e+02   1.034511e+02
   3.683434e+02   3.157600e+02
   1.718220e+01   4.671100e+02
  -3.944644e+02   4.102677e+02
  -4.924425e+02   2.130328e+02
  -2.686235e+02  -6.884587e+01
  -4.828234e+01  -2.519936e+02
   9.249974e+01  -1.999555e+02
   3.840201e+01  -6.027150e+01
  -1.151307e+02   6.021914e+01
  -1.710803e+02  -2.753934e+01
  -4.011317e+01  -1.813292e+02
   1.108045e+02  -1.236645e+02
   1.324870e+02   6.090043e+01
   7.219264e+00   1.622140e+02
  -2.050419e+02   1.115599e+01
  -1.995570e+02  -2.247923e+02
  -1.347844e+01  -3.645136e+02
   1.955666e+02  -2.524618e+02
   3.579011e+02   3.286518e+01
   2.792579e+02   2.552793e+02
   8.980968e+01   2.760445e+02
  -1.138149e+02   1.312708e+02
  -1.587908e+02  -4.172770e+00
  -3.167756e+00  -4.049053e+01
   6.177796e+01   6.880669e+01
  -1.615486e+01   1.233457e+02
  -1.483907e+02   9.705331e+01
  -1.268771e+02  -2.533261e+01
  -5.351232e+01  -5.216069e+01
   6.545404e+01  -2.082152e+01
   6.818284e+01   8.217016e+01
  -1.132693e+02   9.315788e+01
  -3.021003e+02  -5.463962e+00
  -2.831672e+02  -1.639417e+02
  -7.149795e+01  -2.762656e+02
   2.052698e+02  -2.570045e+02
   2.965591e+02  -7.370476e+01
   1.285119e+02   5.469957e+01
  -6.973799e+00   9.475639e+01
  -6.642128e+01  -2.392874e+01
   5.403733e+01  -1.236019e+02
   2.323493e+02  -2.081021e+01
   2.155251e+02   6.737082e+01
   8.771038e+01   2.061047e+02
  -7.007266e+01   1.705404e+02
  -1.341042e+02   2.052841e+01
  -8.190124e+01  -6.372526e+01
   2.740306e+01   2.659344e+01
   4.678248e+01   1.029135e+02
  -1.136761e+02   1.457157e+02
  -2.570713e+02   1.252912e+01
  -2.171059e+02  -1.477918e+02
   3.938061e+01  -2.259215e+02
   2.083370e+02  -1.815492e+02
   2.377481e+02  -9.481302e+00
   3.935648e+01   1.157301e+02
  -1.090649e+02   1.146596e+02
  -7.971274e+01   2.653090e+01
   1.081379e+01  -4.306285e+01
   2.957497e+01  -2.285125e+01
   2.408261e+01   3.173620e+01
  -9.988804e+01   2.627445e+01
  -1.025860e+02  -9.404260e+01
  -3.183965e+01  -1.622710e+02
   1.383387e+02  -1.680922e+02
   2.471030e+02   1.865600e+01
   2.149798e+02   1.319795e+02
   5.574721e+01   2.364820e+02
  -8.509349e+01   1.966652e+02
  -1.551868e+02   5.761574e+01
  -8.884177e+01  -9.615502e+01
  -5.506823e+01  -3.517119e+01
  -6.612877e+01   4.876249e+00
  -8.640957e+01   3.976511e+01
  -6.676628e+01  -6.644199e+01
   8.272385e+01  -1.297963e+02
   1.842730e+02  -1.128661e+02
   1.157805e+02   3.140212e+01
  -2.564342e+01   1.166013e+02
  -1.607363e+02   1.137164e+02
  -2.141052e+02  -6.562116e+01
  -9.164403e+01  -2.304594e+02
   1.240952e+02  -2.557233e+02
   2.771957e+02  -1.063059e+02
   2.635944e+02   9.017098e+01
   1.438446e+02   1.487056e+02
  -3.323807e+01   1.709969e+02
  -7.742347e+01   8.052693e+01
  -6.860924e+01   8.899644e+01
  -7.685389e+01   9.881614e+01
  -1.216905e+02   8.279147e+01
  -1.844176e+02  -3.039163e+01
  -1.511068e+02  -1.925926e+02
  -2.606375e+01  -2.600152e+02
   9.390184e+01  -1.713654e+02
   2.336444e+02   2.595177e+01
   1.354685e+02   1.434428e+02
   1.626783e+01   1.518520e+02
  -6.870406e+01   1.167935e+02
  -9.197566e+01  -2.929534e+01
   1.454233e+01  -7.050289e+01
   4.627108e+01  -5.450653e+01
  -5.932375e+00  -8.452491e+00
  -8.667254e+01  -2.732436e+00
  -5.411312e+01  -1.159444e+01
   9.868539e+01  -2.111284e+01
   1.739304e+02   1.189719e+01
   1.460735e+02   6.342061e+01
   4.326015e+01   9.430335e+01
  -1.350476e+02   9.170501e+01
  -1.264435e+02  -5.011509e+00
  -2.023753e+01  -7.292172e+01
   5.263463e+01  -2.382523e+01
   3.528186e+01   1.532548e+01
   3.423071e+01   1.078344e+02
  -4.022604e+01   2.669746e+01
  -1.056849e+02  -9.995621e+00
  -8.145752e+01  -6.251769e+01
  -4.199573e+01  -7.261810e+01
  -9.956751e+01  -1.885893e+01
  -4.367733e+01  -1.482106e+01
  -2.915042e+01  -8.764200e+01
   5.575540e+01  -1.486121e+02
   1.341888e+02  -1.825042e+02
   1.899818e+02  -1.703535e+01
   1.350948e+02   6.974736e+01
   6.137079e+01   1.377075e+02
  -6.681686e+01   9.875287e+01
  -6.631597e+01   3.687766e+00
   8.377121e+01  -2.887544e+01
   1.392593e+02   8.449842e+01
   2.212607e+01   1.393785e+02
  -1.055656e+02   1.276162e+02
  -1.985557e+02   6.579765e+01
  -1.998131e+02  -2.172458e+01
  -4.780828e+01  -1.264783e+02
   5.758624e+01  -6.396508e+01
   4.077757e+01   6.003827e+00
  -4.570888e+01   2.017905e+01
  -4.900330e+01  -2.544233e+01
  -2.843396e+01  -1.298133e+02
   9.078390e+01  -1.386732e+02
   1.751416e+02  -6.355667e+01
   1.148468e+02   7.658642e+01
   4.977505e+01   2.599339e+02
  -6.785920e+01   1.628804e+02
  -1.014890e+02  -3.874831e+01
  -6.952700e+01  -1.428869e+02
  -2.395849e+01  -1.163370e+02
   4.277414e+01  -2.743282e+01
   4.026872e+01   4.756035e+01
   9.575660e+00   3.608268e+00
  -2.366372e+01  -1.251432e+01
  -7.220637e+00   3.183259e+01
   4.858913e+01   8.698534e+01
   1.600439e+00   1.208796e+02
  -8.928609e+01   6.514783e+01
  -1.468407e+02  -6.136951e+01
  -9.754206e+01  -6.665216e+01
  -2.544346e+01  -6.744831e+01
   8.321349e+01  -2.441419e+01
   8.106685e+01   2.633071e+01
  -9.877114e+00   5.471217e+00
  -4.857554e+01   1.329381e+01
  -6.550206e+01  -8.413823e-01
   8.132959e+00  -4.442554e+01
   5.966667e+01   4.731543e+00
  -4.063862e+01   4.441200e+01
  -8.361586e+01  -1.742502e+01
  -1.003349e+01  -1.120551e+02
   1.031739e+02  -1.073177e+02
   1.998649e+02  -8.408743e+01
   1.460152e+02   5.555465e+01
   3.622668e+01   1.831606e+02
  -2.661030e+01   1.509193e+02
  -1.144702e+02   8.890423e+01
  -6.574333e+01   9.041105e+00
  -1.771415e+01  -4.195932e+01
  -2.970876e+00  -1.366983e+01
   3.238782e+01  -2.412567e+01
  -8.447014e-01  -3.977201e+01
  -3.820665e+01  -1.062281e+02
   5.088602e+01  -8.147976e+01
   7.716387e+01   1.767320e+01
   8.550967e+01   1.123056e+02
   6.809611e+01   1.327165e+02
  -6.243427e+01   1.011299e+00
  -1.250456e+02  -4.446738e+01
  -5.555075e+01  -1.171463e+02
   8.820886e+01  -5.083066e+01
   1.521595e+02   4.279298e+01
   3.466445e+00   7.415258e+01
  -1.924608e+01   8.032193e+01
  -5.413757e+01   4.461949e+01
   1.575403e+01   5.008145e+00
   3.563003e+01  -3.235779e+01
   3.947445e+00   1.021122e+01
  -9.291060e+01   5.113124e+01
  -8.752864e+01   5.134725e+01
  -6.655138e+01  -3.387586e+01
   2.849921e+01  -9.922248e+01
   8.571805e+01  -3.653543e+01
   5.989485e+01   3.494340e+01
   5.645964e+00   7.898458e+01
  -5.987552e+01   7.543950e+01
  -6.772987e+01  -1.041835e+01
  -7.196575e+01  -7.475806e+01
  -8.641969e+00  -8.907673e+01
   2.421994e+01  -2.358127e+01
   2.193849e+01   9.017196e+00
   1.223042e+01  -5.911997e+00
   5.172973e+01  -3.223379e+01
   1.229627e+01  -9.062654e+00
   1.341770e+00   3.971877e+01
  -1.249002e+01   3.928292e+01
  -3.937866e+01  -1.210585e+01
  -7.119014e+01  -1.382652e+01
  -3.182961e+01  -9.978491e+01
   3.469911e+01  -6.565670e+01
   8.097967e+01  -9.252166e+00
   3.505502e+00   5.667087e+01
  -7.369928e+01   8.165924e+01
  -8.585412e+01   4.873567e+00
  -4.556819e+01  -2.745220e+01
   2.340560e+01  -3.845251e+01
   3.040051e+01  -3.113325e+01
   5.382954e+01   1.887146e+01
  -5.923249e+00   2.761000e+01
  -1.326383e+01   6.142842e+00
   5.571215e+01  -2.052004e+01
   4.520596e+01  -9.856970e+00
