
 $NMID
 id='ANONYMOUS ', fmtdat='(2E16.6)'
 volume=1.0
 tramp=1.0
 $END
   3.608157e+03   5.658252e+01
   2.363130e+03   1.824454e+03
  -1.412169e+02   2.240186e+03
  -1.393678e+03   1.230918e+03
  -9.632293e+02   5.810817e+01
   1.653410e+02  -2.375344e+02
   4.421804e+02   2.529681e+02
   9.075830e+01   6.364378e+02
  -6.007180e+02   6.416205e+02
  -6.698549e+02   2.430060e+01
  -3.922345e+02  -6.804333e+02
   3.901074e+01  -7.206122e+02
   4.334470e+02  -2.257123e+02
   3.723349e+02   5.472671e+02
  -1.822820e+02   5.908937e+02
  -4.542322e+02   1.345440e+02
  -2.887293e+02  -4.980778e+02
   2.480769e+02  -7.065283e+02
   5.758626e+02  -2.551052e+02
   4.958186e+02   2.641031e+02
   7.377551e+01   4.002333e+02
  -1.330809e+02   2.803044e+02
  -1.195892e+02   1.025080e+02
   1.481792e+02   7.545707e+01
   3.615126e+02   2.453988e+02
   4.992953e+01   4.320398e+02
  -4.745967e+02   2.235874e+02
  -7.038599e+02  -9.530149e+01
  -3.427069e+02  -3.996766e+02
   3.093222e+02  -2.726439e+02
   5.667420e+02   9.930217e+01
   1.965114e+02   3.888549e+02
  -2.740538e+02   3.615798e+02
  -5.201298e+02   1.400047e+02
  -3.449860e+02  -1.489748e+02
  -1.192896e+02  -3.540308e+02
   1.211613e+02  -2.093079e+02
   4.003305e+01   1.343660e+02
  -2.248120e+02   2.229292e+02
  -2.715491e+02  -7.840345e+01
  -1.133953e+02  -5.516122e+02
   2.648296e+02  -5.496992e+02
   4.269389e+02  -1.376839e+01
   1.883615e+02   3.693988e+02
  -1.819298e+02   2.140037e+02
  -2.725407e+02  -2.436838e+02
   8.675072e+01  -4.400778e+02
   4.729965e+02  -1.091875e+02
   5.056741e+02   3.527780e+02
   1.146923e+02   5.452651e+02
  -3.581389e+02   3.027322e+02
  -5.686421e+02  -8.412912e+01
  -3.547474e+02  -2.814023e+02
   7.576283e+01  -2.797181e+02
   3.390937e+02  -7.002812e+01
   2.602283e+02   8.291948e+01
  -1.591297e+01   7.377143e+01
  -7.314767e+01  -4.343952e+01
   8.645785e+01  -9.264138e+01
   2.594899e+02   3.682451e+01
   9.516512e+01   1.908780e+02
  -1.447835e+02   2.504350e+02
  -3.413955e+02   7.823225e+01
  -2.624976e+02  -1.135167e+02
   8.508989e+01  -3.117873e+02
   3.387740e+02  -2.925597e+02
   3.787401e+02  -1.417710e+02
   2.393245e+02   1.984380e+02
   3.579130e+01   3.934416e+02
  -8.717240e+01   3.743525e+02
  -2.186672e+01   1.956272e+02
  -1.109289e+01   1.199846e+02
  -1.044178e+02   1.471471e+02
  -2.593814e+02   1.136629e+02
  -2.760598e+02  -1.135793e+02
  -1.604655e+02  -2.782672e+02
   7.365273e+01  -1.945002e+02
   2.432510e+02  -3.147573e+01
   1.501630e+02   1.989353e+02
  -4.146197e+01   1.934970e+02
  -2.342809e+02   4.411048e+01
  -2.788799e+02  -1.899871e+02
  -1.047594e+02  -2.853115e+02
   6.547516e+01  -2.567293e+02
   1.887659e+02  -1.450910e+02
   1.483247e+02  -2.936984e+01
   1.716776e+02  -6.890426e+01
   3.067678e+02  -1.043206e+01
   4.619499e+02   9.192738e+01
   3.119864e+02   3.041181e+02
  -4.479460e+01   4.467231e+02
  -4.362182e+02   4.334591e+02
  -5.188055e+02   1.761645e+02
  -3.007495e+02  -1.211808e+02
  -5.042785e+01  -2.743235e+02
   5.556428e+01  -2.099460e+02
  -2.455245e+01  -5.387796e+01
  -1.594319e+02   3.518950e+01
  -2.025017e+02  -6.550849e+01
  -4.114139e+01  -1.680035e+02
   1.614954e+02  -1.415684e+02
   1.629777e+02   5.702989e+01
  -3.641563e+01   1.369444e+02
  -1.828608e+02   9.552160e+00
  -2.189213e+02  -2.664902e+02
   3.639542e+01  -3.806214e+02
   2.772764e+02  -2.519564e+02
   3.680055e+02   7.360267e+00
   2.677665e+02   2.552515e+02
   7.512923e+01   2.682506e+02
  -8.838754e+01   1.682810e+02
  -1.420284e+02   1.918414e+01
   1.094929e+00  -4.337171e+01
   7.753676e+01   8.633290e+01
   1.623913e+01   1.665418e+02
  -1.369386e+02   1.445375e+02
  -1.697589e+02  -3.480359e+01
  -7.307980e+01  -4.046219e+01
   1.095311e+02   3.045087e+01
   1.766025e+01   7.465621e+01
  -1.183173e+02   6.469086e+01
  -3.094507e+02  -2.127537e+01
  -2.578020e+02  -1.953031e+02
  -5.599246e+01  -2.704237e+02
   2.220728e+02  -2.392356e+02
   2.656896e+02  -1.515282e+02
   1.447171e+02   2.850559e+01
  -2.604121e+01   6.763406e+01
  -6.043921e+01   1.361742e+01
   1.240990e+02  -8.183158e+01
   2.430660e+02  -6.413999e+01
   2.438701e+02   1.028817e+02
   7.895758e+01   2.010472e+02
  -6.573032e+01   1.839570e+02
  -1.702257e+02   6.429855e+01
  -4.812419e+01  -2.579180e+01
   1.391280e+01   4.874320e+01
   1.608105e+01   1.591217e+02
  -1.383133e+02   1.036026e+02
  -2.221679e+02  -5.842452e+00
  -1.887101e+02  -1.443007e+02
  -3.278202e+01  -1.832164e+02
   1.574671e+02  -1.612281e+02
   1.468133e+02  -2.661507e+00
   3.246879e+01   9.654884e+01
  -1.184794e+02   9.578945e+01
  -6.184497e+01   5.018378e+01
   4.504182e-01  -2.860823e+01
   5.207373e+01  -6.207038e+00
  -1.572942e+01   1.057501e+01
  -3.083110e+01   2.304957e+01
  -1.105752e+02  -8.391309e+01
   2.310520e+01  -1.848080e+02
   1.568938e+02  -1.216253e+02
   2.395684e+02   2.220271e+01
   1.916628e+02   1.944151e+02
   1.962304e+01   2.677308e+02
  -1.656137e+02   2.001983e+02
  -1.095305e+02   3.754740e+01
  -6.965501e+01  -1.714881e+01
  -2.588872e+01  -3.377019e+01
  -7.981326e+01   1.850972e+01
  -1.203977e+02  -1.878044e+01
  -8.607907e+01  -7.789898e+01
   4.006623e+01  -1.208550e+02
   1.258189e+02  -7.738103e+01
   7.515730e+01   6.068858e+01
  -1.655657e+01   1.570596e+02
  -1.603483e+02   8.672176e+01
  -2.396282e+02  -9.814251e+01
  -1.030523e+02  -2.279699e+02
   1.171214e+02  -2.438792e+02
   2.482834e+02  -8.566603e+01
   2.415021e+02   1.242657e+02
   8.553426e+01   1.887105e+02
  -3.639681e+01   1.386384e+02
  -8.052704e+01   6.680617e+01
  -5.065542e+01   6.850850e+01
  -4.520730e+01   9.670889e+01
  -8.993440e+01   9.361033e+01
  -1.006319e+02   2.287168e+01
  -1.363129e+02  -1.610580e+02
  -9.476779e+00  -1.818594e+02
   1.018709e+02  -1.464595e+02
   1.956888e+02  -3.286069e+01
   1.278804e+02   9.923174e+01
  -1.797315e+00   1.299514e+02
  -5.950479e+01   1.003890e+02
  -7.222878e+01  -2.424034e+01
   3.290350e-01  -3.488366e+01
   2.637841e+01  -4.956375e+01
  -1.375049e+01   9.416868e+00
  -6.124048e+01  -1.897594e+01
  -3.698319e+01  -3.979154e+01
   1.343340e+02  -4.299507e+01
   1.839075e+02  -2.327435e+01
   1.661443e+02   9.961688e+01
   1.344657e+01   1.435177e+02
  -1.411872e+02   9.280374e+01
  -1.296854e+02  -6.462094e+00
  -5.905400e+01  -6.073464e+01
   6.490644e+01  -4.122758e+01
   7.188013e+01   1.108092e+01
   3.738569e+01   9.475187e+01
  -3.264190e+01   6.224954e+01
  -6.597731e+01  -7.404532e+00
  -1.671840e+01  -6.708217e+01
  -4.667795e+01  -6.641987e+01
  -2.701436e+01  -3.626534e+00
  -3.647905e+01   2.260581e+01
  -8.664568e+01  -7.787185e+01
   6.030246e+00  -1.444434e+02
   1.189801e+02  -1.652293e+02
   2.071667e+02  -3.813277e+01
   1.185789e+02   8.364031e+01
   9.818043e+00   1.688790e+02
  -5.665591e+01   4.673028e+01
  -9.453414e+01  -2.854276e+01
   2.392241e+01  -1.936084e+01
   1.865180e+02   4.304257e+01
   6.909041e+01   8.673420e+01
  -9.220440e+01   9.789207e+01
  -2.069893e+02   5.655553e+01
  -1.504682e+02  -6.505887e+01
  -4.601539e+01  -9.635064e+01
   7.318825e+01  -5.047127e+01
   9.237308e+01   4.002849e+00
  -5.098931e+01   3.814596e+01
  -9.828475e+01  -1.120985e+01
  -4.846989e+01  -8.804004e+01
   6.594264e+01  -1.631335e+02
   1.051818e+02  -1.028266e+02
   1.664402e+02   1.129983e+02
   4.425459e+01   1.726880e+02
  -9.464989e+01   1.023915e+02
  -1.081836e+02  -2.968478e+01
  -3.610800e+01  -1.101028e+02
   2.384339e+01  -1.153946e+02
   6.389071e+01  -3.589265e+01
   3.593632e+01   2.928878e+01
   2.509762e+01  -2.303787e+01
   1.439857e+01  -2.246821e-01
   7.960667e+00   3.221514e+01
   6.759988e+01   9.508488e+01
   3.083578e+01   1.224696e+02
  -6.812804e+01   4.337531e+01
  -1.585550e+02  -4.248758e+01
  -1.136685e+02  -6.477043e+01
   6.804379e+00  -8.356787e+01
   8.840234e+01   3.594668e+00
   9.150562e+01   1.428977e+01
  -7.576398e+00   3.201520e+01
  -2.734239e+01   2.247362e+01
  -2.392019e+01   4.429342e+01
   2.900603e+01   3.201085e+01
  -1.115006e+01   2.303299e+01
  -8.489819e+01   3.505697e+01
  -1.396461e+02   2.646958e+00
  -5.466814e+01  -1.103886e+02
   1.106804e+02  -1.359406e+02
   2.118541e+02  -4.312826e+01
   1.559131e+02   7.597582e+01
   5.982639e+01   1.744488e+02
  -5.624436e+01   1.276017e+02
  -1.414152e+02   3.861751e+00
  -9.381463e+01  -2.913122e+01
  -8.626463e+00  -4.382288e+01
  -7.893666e+00   7.917668e+00
  -9.820711e+00   1.053265e+01
  -4.987641e+01  -5.308685e+01
  -5.132578e+01  -1.146530e+02
   2.711367e+01  -9.075173e+01
   1.126214e+02   3.665986e+00
   9.826402e+01   1.181119e+02
   2.263577e+01   1.369094e+02
  -8.112843e+01   4.693967e+01
  -1.664495e+02  -2.543462e+01
  -5.065956e+01  -5.291497e+01
   8.308301e+01  -7.932998e+01
   6.540273e+01  -1.668786e+01
   7.094838e+01   5.245906e+01
  -4.609991e+00   4.874692e+01
  -4.089782e+01   4.909408e-01
   4.251628e+01  -2.508745e+01
   8.420216e+01   1.693256e+01
   4.431549e+01   5.037434e+00
  -7.950937e+01   3.262011e+01
  -7.418056e+01   5.339132e+01
  -4.962030e+01  -1.370722e+01
   3.211269e+01  -1.083510e+02
   5.967976e+01  -6.920270e+01
   8.610418e+01  -4.366121e+00
   3.363338e+01   3.833799e+01
  -5.754978e+01   8.055838e+01
  -4.357235e+01   4.402444e+01
  -3.165816e+01  -6.227261e+01
   6.289857e+00  -4.233772e+01
   2.527791e+01   1.845331e+01
   3.851953e+01   3.653353e+00
  -4.257649e+00   2.096415e+00
   2.522162e+00  -1.555478e+01
  -6.675067e-01   6.146908e-01
   2.475938e+01   4.503288e+01
  -2.555787e+01   7.147522e+01
  -3.167704e-01   2.214421e+01
  -2.773643e+01  -1.051450e+01
   1.752121e+01  -4.376030e+01
   5.443729e+01  -2.358667e+01
   7.516000e+01   3.496777e+01
  -2.421132e+01   2.747392e+01
  -6.924650e+01   3.587117e+01
  -9.537799e+01  -1.163222e+01
  -4.587077e+01  -5.077957e+01
   2.132606e+01  -4.966380e+01
   6.018346e+01  -5.548143e+01
   2.350898e+01   2.007651e+01
  -2.880978e+01   1.975971e+01
  -8.719071e+00  -1.984354e+01
   3.245562e+01  -4.409352e+01
   6.994224e+01  -2.831687e+01
