
 $NMID
 id='ANONYMOUS ', fmtdat='(2E16.6)'
 volume=1.0
 tramp=1.0
 $END
   3.508738e+03   2.307632e+01
   2.173958e+03   1.956358e+03
  -2.492408e+02   2.296435e+03
  -1.549780e+03   1.129254e+03
  -1.002627e+03   7.102378e+00
   8.125133e+01  -3.935731e+02
   5.876759e+02   1.961858e+02
   1.014299e+02   7.540433e+02
  -5.713955e+02   6.331649e+02
  -8.113212e+02   1.865994e+00
  -4.148898e+02  -6.552392e+02
   1.442572e+02  -7.004500e+02
   3.832263e+02  -1.309358e+02
   3.410074e+02   4.767747e+02
  -1.657527e+02   6.318237e+02
  -4.681526e+02   6.582348e+01
  -2.507871e+02  -5.132745e+02
   2.283906e+02  -5.823291e+02
   5.496700e+02  -2.226135e+02
   4.679789e+02   1.775806e+02
   2.737482e+01   4.963908e+02
  -1.582044e+02   2.680311e+02
  -8.447666e+01  -1.391230e+01
   2.030200e+02   3.688134e+01
   2.759573e+02   2.170980e+02
   3.018361e+01   3.863303e+02
  -5.418415e+02   2.242077e+02
  -6.735417e+02  -1.283462e+02
  -3.287018e+02  -4.274978e+02
   3.272048e+02  -2.862318e+02
   5.106995e+02   1.024645e+02
   2.119415e+02   3.793616e+02
  -2.783533e+02   4.125345e+02
  -5.263345e+02   1.656608e+02
  -3.507391e+02  -1.920826e+02
  -1.347191e+02  -3.580150e+02
   7.829729e+01  -2.119287e+02
   8.483637e+00   1.568489e+02
  -1.771381e+02   2.583513e+02
  -2.961287e+02  -1.123763e+02
  -1.088993e+02  -5.479145e+02
   2.960968e+02  -5.097811e+02
   4.591880e+02   3.124038e+01
   1.757571e+02   3.962050e+02
  -2.404371e+02   2.242231e+02
  -2.824830e+02  -2.663076e+02
   1.049860e+02  -4.298940e+02
   5.506864e+02  -7.042875e+01
   5.614203e+02   3.892605e+02
   1.234090e+02   5.384223e+02
  -3.891810e+02   3.219393e+02
  -5.721945e+02  -4.516837e+01
  -3.271767e+02  -2.753070e+02
   9.185747e+01  -2.767625e+02
   3.284566e+02  -3.676183e+01
   2.536122e+02   1.002257e+02
  -4.532176e+01   9.806123e+01
  -8.000240e+01  -7.953837e+01
   1.333874e+02  -1.577030e+02
   2.987054e+02   4.322991e+01
   1.385027e+02   2.573059e+02
  -1.589929e+02   2.734505e+02
  -3.677771e+02   1.095949e+02
  -2.536330e+02  -1.025114e+02
   3.100801e+01  -2.823815e+02
   2.962980e+02  -3.472263e+02
   3.600758e+02  -1.867182e+02
   2.709844e+02   1.636617e+02
   7.795494e+01   3.999389e+02
  -9.085804e+01   3.630176e+02
  -5.361009e+01   1.933125e+02
  -2.639514e+00   7.715100e+01
  -5.402327e+01   9.079979e+01
  -2.370976e+02   8.118692e+01
  -2.915998e+02  -9.369023e+01
  -1.415605e+02  -2.087456e+02
   7.585421e+01  -1.603589e+02
   2.129454e+02  -3.641494e+01
   1.701705e+02   2.020452e+02
  -3.947796e+01   2.527462e+02
  -2.676010e+02   1.057547e+02
  -3.384980e+02  -1.584561e+02
  -1.937118e+02  -3.584429e+02
   9.403010e+01  -2.897822e+02
   1.738759e+02  -7.364052e+01
   1.666397e+02   2.865465e+00
   1.482720e+02  -1.022224e+02
   2.827282e+02  -5.488728e+01
   3.876821e+02   9.661163e+01
   3.307941e+02   2.828652e+02
  -3.690314e+01   4.270373e+02
  -3.659730e+02   4.682234e+02
  -4.653173e+02   1.597879e+02
  -3.228279e+02  -1.134322e+02
  -7.855865e+01  -2.882797e+02
   7.822065e+01  -2.421277e+02
   4.452993e+01  -2.123286e+01
  -1.302018e+02   5.794358e+01
  -1.644561e+02  -5.249090e+01
  -3.815316e+01  -1.646927e+02
   1.307726e+02  -1.668555e+02
   1.432122e+02   7.715252e+01
  -2.610422e+01   1.382945e+02
  -2.227333e+02  -3.596086e+01
  -1.385876e+02  -2.606369e+02
   5.510871e+01  -3.712923e+02
   2.753119e+02  -2.203421e+02
   3.389393e+02   4.088701e+01
   2.868820e+02   2.194924e+02
   6.698117e+01   2.704415e+02
  -1.510841e+02   1.818704e+02
  -1.456443e+02  -3.673379e+00
  -5.916332e+01  -1.517948e+01
   3.662507e+01   2.743992e+01
   7.553377e+00   1.339479e+02
  -1.029160e+02   1.116663e+02
  -1.463825e+02  -3.273325e+01
  -6.297751e+01  -3.876549e+01
   6.277556e+01   7.417199e+01
   4.964957e+01   8.440076e+01
  -1.365892e+02   4.957802e+01
  -3.109379e+02  -5.006099e+01
  -2.920073e+02  -1.855848e+02
  -2.842400e+01  -2.557816e+02
   1.830748e+02  -2.139727e+02
   3.091285e+02  -6.815059e+01
   1.808343e+02   4.670433e+01
  -2.003711e+01   9.363670e+01
  -5.363885e+01  -2.026751e+01
   6.937574e+01  -5.594196e+01
   1.884936e+02  -1.090003e+01
   1.811846e+02   9.751775e+01
   4.841071e+01   1.928237e+02
  -6.590113e+01   1.504639e+02
  -1.171694e+02   1.885216e+01
  -7.260401e+01  -5.256924e+01
   4.896490e+01  -2.927369e+01
   2.404131e+01   8.148287e+01
  -1.266854e+02   1.146486e+02
  -2.323129e+02   4.370343e+01
  -1.613168e+02  -5.867059e+01
   1.076982e+01  -1.940434e+02
   1.224216e+02  -1.879554e+02
   1.413979e+02  -4.709388e+01
   4.103580e+01   2.979195e+01
  -7.035485e+01   8.721465e+01
  -4.249394e+01   3.405076e+01
  -1.898866e+00  -1.277991e+01
   4.504240e+01  -2.896338e+01
  -9.465367e+00  -7.427599e-02
  -1.097690e+02   1.566148e+01
  -1.645225e+02  -9.958742e+01
  -3.462120e+01  -1.605749e+02
   1.380712e+02  -1.802989e+02
   2.543463e+02  -2.444624e+01
   2.261280e+02   1.840405e+02
   3.424537e+01   2.668800e+02
  -7.898387e+01   1.595673e+02
  -1.622002e+02   4.522774e+01
  -6.705216e+01  -6.646017e+01
  -1.921842e+01  -2.327440e+01
  -6.901097e+01   1.238705e+01
  -8.867150e+01   1.268053e+01
  -4.914529e+01  -2.379249e+01
   1.379439e+01  -1.140561e+02
   9.523246e+01  -1.265177e+02
   9.920418e+01   4.574729e+01
  -2.467555e+00   1.257139e+02
  -1.598546e+02   6.947007e+01
  -2.040014e+02  -7.246409e+01
  -6.402347e+01  -1.729466e+02
   9.112453e+01  -2.412735e+02
   2.558152e+02  -1.230289e+02
   2.756460e+02   6.103815e+01
   1.227997e+02   1.721001e+02
  -8.066005e+00   1.378575e+02
  -1.132307e+02   4.431512e+01
  -5.904383e+01   7.822259e+01
  -4.756417e+01   1.204529e+02
  -1.242064e+02   8.254465e+01
  -1.645993e+02  -4.824351e+00
  -1.385348e+02  -1.207230e+02
  -3.092656e+01  -2.087997e+02
   3.948920e+01  -1.598155e+02
   1.621958e+02  -2.211062e+01
   1.301197e+02   1.620798e+02
  -2.651704e+01   1.644153e+02
  -1.304797e+02   9.747530e+01
  -7.294704e+01  -2.301516e+01
   1.140084e+00  -3.644246e+01
   5.564992e+01  -4.950491e+01
  -2.806269e+01  -5.346594e+01
  -6.952077e+01   4.598658e+01
  -6.184307e+01   2.017376e+01
   5.656845e+01  -5.051195e+01
   1.683969e+02  -2.641020e+00
   1.692341e+02   6.311084e+01
   3.349348e+00   1.160044e+02
  -1.108223e+02   8.711830e+01
  -1.406193e+02   8.325119e+00
  -1.721449e+01  -8.072186e-01
   8.636788e+01  -9.559247e+00
   1.057116e+02   2.106631e+01
   2.727455e+01   7.986977e+01
  -8.673585e+01   4.667400e+01
  -5.893744e+01  -2.750058e+01
  -3.445136e+00  -7.523464e+01
  -3.789169e+01  -7.995347e+01
  -2.907418e+01   7.869849e+00
  -6.015061e+01  -8.214407e-01
  -5.893130e+01  -7.928079e+01
   2.248941e+01  -1.826026e+02
   9.447544e+01  -1.623738e+02
   1.895509e+02  -7.842024e+01
   1.251392e+02   1.266217e+02
  -2.151686e+01   1.550706e+02
  -1.383460e+02   7.389800e+01
  -6.339795e+01  -6.855127e+01
   3.193413e+01  -4.369779e+01
   1.233042e+02   1.576684e+01
   6.416881e+01   1.060810e+02
  -8.968520e+01   1.207456e+02
  -1.924928e+02   1.970388e+01
  -1.306146e+02   8.116057e+00
  -5.282327e+01  -8.750153e+01
   8.521640e+00  -6.796601e+01
   4.435434e+01   9.646269e+00
  -5.394449e+01   1.443350e+01
  -1.272235e+02   2.065444e+00
  -4.592203e+01  -1.036089e+02
   1.108649e+02  -1.574084e+02
   1.859429e+02  -5.230967e+01
   1.357498e+02   8.725730e+01
   9.051601e+00   1.975992e+02
  -1.190797e+02   1.628864e+02
  -1.097356e+02  -5.973659e+00
  -1.597577e+01  -1.158502e+02
   7.115027e+01  -7.252304e+01
   3.487146e+01  -1.127130e+01
   2.697950e+01   1.231101e+01
   3.056839e+01   1.660617e+01
   2.640859e+01   4.015213e+01
   4.276981e+01   5.471926e+01
   6.182750e+01   7.553513e+01
   1.879878e+01   9.279702e+01
  -8.112305e+01   3.547466e+01
  -1.294617e+02  -4.901041e+01
  -9.594939e+01  -7.644043e+01
  -9.056715e+00  -4.219856e+01
   4.873194e+01  -7.653255e+01
   7.539306e+01  -3.090749e+01
   6.986902e+01   2.849292e+01
   3.219268e+00   2.492811e+01
  -2.975847e+01  -4.186208e+00
   1.555257e+01   1.270307e+01
   2.454941e+01  -1.284158e+01
  -1.036873e+02  -1.337429e+01
  -9.416146e+01  -4.194056e+01
  -1.559318e+01  -9.255221e+01
   1.187830e+02  -1.258166e+02
   1.383687e+02  -3.691902e+01
   1.558529e+02   4.802168e+01
   3.011995e+01   1.307640e+02
  -4.382818e+01   1.815472e+02
  -1.465944e+02   7.313966e+01
  -6.621111e+01  -1.007695e+01
  -1.939651e+01  -8.181070e+01
   5.132516e+00   1.869350e+01
   2.008962e+01  -5.924631e-01
  -4.510319e+01  -5.189345e+01
   4.117020e+00  -1.010330e+02
   2.070827e+01  -1.155084e+02
   1.230617e+02   1.547722e+01
   5.508172e+01   1.285090e+02
   4.967930e+00   1.104904e+02
  -1.062901e+02   4.509486e+01
  -1.018172e+02  -9.543595e+01
  -5.114581e+01  -1.321175e+02
   4.366293e+01  -3.920243e+01
   9.420316e+01   2.324441e+01
   9.996091e+00   2.281580e+01
  -1.223705e+01   3.838747e+01
  -2.201094e+01  -9.324096e+00
   2.705256e+01   2.025517e+00
   5.744185e+01  -4.011498e+01
   3.313550e+01   1.183252e+01
  -6.848960e+01   6.914452e+01
  -1.433709e+02   5.193630e+01
  -9.690046e+00  -1.835429e+01
   4.114240e+01  -3.991924e+01
   6.494388e+01  -6.268859e+01
   2.974243e+01   5.942812e+00
   4.555224e+00   3.465689e+01
  -5.059500e+01   2.052775e+01
  -3.301258e+01   2.516921e+01
  -5.408942e+01  -2.688910e+01
   7.774201e+00   4.885820e+00
  -3.211994e+01   4.455988e+01
   5.153424e+00   7.931002e+00
  -2.274081e+01  -3.350106e+01
   8.103348e+00  -4.051321e+01
   1.222665e+01   5.868884e+00
   7.626952e-01   6.909386e+01
  -4.755337e+01   7.704716e+01
  -5.683395e+01  -1.342726e+01
  -4.275828e+01  -4.571477e+01
  -9.973786e-01  -7.018164e+01
   5.946281e+01  -5.076822e+01
   7.778390e+01   9.170204e+01
   2.243078e+01   1.052916e+02
  -5.599940e+01   5.588823e+01
  -9.452076e+01   1.725681e+01
  -4.525498e+01  -5.820010e+01
   6.405401e+01  -2.127467e+01
   7.839015e+01  -1.866493e+01
   2.095378e+01   1.517348e+01
  -6.463681e+01   4.062759e+00
  -4.579043e+01  -1.123134e+01
   5.582321e+01  -2.020491e+01
   8.098279e+01  -3.982315e+01
