
 $NMID
 id='ANONYMOUS ', fmtdat='(2E16.6)'
 volume=1.0
 tramp=1.0
 $END
   4.104432e+03   1.427179e+02
   2.350186e+03   2.419281e+03
  -7.395091e+02   2.573391e+03
  -2.047392e+03   8.480483e+02
  -8.431572e+02  -6.724548e+02
   6.212786e+02  -6.521352e+02
   8.900950e+02   3.383233e+02
  -4.284328e+01   1.048641e+03
  -7.671795e+02   7.360076e+02
  -8.679133e+02  -8.322838e+01
  -3.772866e+02  -8.166903e+02
   1.630737e+02  -8.114042e+02
   6.503326e+02  -1.140789e+02
   3.717042e+02   7.482690e+02
  -3.250990e+02   7.841758e+02
  -6.063820e+02  -1.618037e+01
  -2.533704e+02  -6.568333e+02
   3.074876e+02  -6.636342e+02
   5.777704e+02  -6.546440e+01
   3.558689e+02   3.425232e+02
  -2.184895e+01   4.144585e+02
  -2.597112e+02   3.099084e+02
  -2.144449e+02   5.512313e+00
   1.160299e+02  -1.113219e+02
   3.795983e+02   8.334766e+01
   2.226813e+02   4.669168e+02
  -4.713996e+02   4.231937e+02
  -8.014660e+02  -6.582251e+01
  -4.720473e+02  -5.121936e+02
   3.688310e+02  -4.235505e+02
   6.834167e+02   4.902233e+01
   3.288180e+02   4.543330e+02
  -2.336204e+02   5.202391e+02
  -5.640156e+02   1.985511e+02
  -3.599261e+02  -2.354004e+02
  -7.286655e+01  -4.636009e+02
   2.139271e+02  -2.917825e+02
   1.598652e+02   2.286149e+02
  -1.455677e+02   3.875205e+02
  -4.409363e+02  -3.315758e+00
  -2.713863e+02  -6.552268e+02
   3.352708e+02  -6.619115e+02
   5.814531e+02   6.831811e+00
   2.455429e+02   5.302051e+02
  -3.337233e+02   3.464115e+02
  -4.039400e+02  -3.129171e+02
   5.362861e+00  -5.172097e+02
   5.127925e+02  -1.357571e+02
   5.611473e+02   3.646726e+02
   1.545233e+02   5.591420e+02
  -3.604036e+02   3.264982e+02
  -6.145562e+02  -7.669094e+01
  -3.467056e+02  -3.730050e+02
   1.589675e+02  -3.905681e+02
   4.420122e+02  -3.585387e+01
   2.282693e+02   1.821671e+02
  -1.422523e+02   1.118678e+02
  -1.641409e+02  -1.189994e+02
   1.081358e+02  -2.037275e+02
   3.128418e+02   7.380686e+01
   1.419218e+02   2.458080e+02
  -1.966533e+02   2.333696e+02
  -3.355779e+02   2.275004e+01
  -2.385456e+02  -7.955847e+01
   1.860434e+01  -2.036545e+02
   2.182900e+02  -3.231168e+02
   3.297903e+02  -1.956420e+02
   2.535868e+02   1.324518e+02
   5.831520e+01   3.817799e+02
  -8.402901e+01   3.382926e+02
  -8.116463e+01   8.960586e+01
  -2.754423e+01  -3.266187e+01
  -3.767315e+01   4.636038e+01
  -1.812352e+02   1.237525e+02
  -2.483665e+02  -8.067101e+01
  -1.081113e+02  -2.971002e+02
   5.788066e+01  -2.330286e+02
   1.966368e+02  -5.048805e+00
   2.179180e+02   2.421582e+02
   2.109219e+01   2.660075e+02
  -1.939569e+02   8.968574e+01
  -3.597974e+02  -1.629374e+02
  -1.665255e+02  -3.607976e+02
   6.673786e+01  -2.751857e+02
   2.375410e+02  -9.175100e+01
   1.387010e+02  -1.444814e+00
   8.760268e+01  -1.722049e+01
   2.382689e+02  -8.660852e+01
   3.749655e+02   4.439367e+01
   3.103451e+02   2.180218e+02
  -1.289246e+01   4.213211e+02
  -3.334957e+02   3.878576e+02
  -4.534552e+02   1.623593e+02
  -3.124168e+02  -1.165650e+02
  -3.094409e+01  -2.573613e+02
   1.202319e+02  -2.205523e+02
   4.891458e+01  -6.607197e+01
  -1.056461e+02   1.167565e+02
  -1.967922e+02  -2.074414e+01
  -5.527542e+01  -2.159056e+02
   1.757777e+02  -1.532133e+02
   1.679148e+02   8.397058e+01
  -3.830644e+01   1.715933e+02
  -1.897784e+02  -1.222097e+01
  -1.559709e+02  -2.055008e+02
   3.218539e+00  -3.306380e+02
   2.217926e+02  -1.448856e+02
   3.196946e+02   6.709204e+01
   2.852929e+02   2.240246e+02
   8.374962e+01   2.895150e+02
  -1.485035e+02   1.220100e+02
  -1.873244e+02   1.114941e+01
  -8.649812e+01  -9.457121e+00
   4.082212e+01   4.059198e-01
   7.354311e+01   7.191776e+01
  -8.694462e+01   7.152919e+01
  -1.440134e+02  -1.494358e+01
  -5.824950e+01  -5.314896e+01
   1.332705e+02  -1.336893e+01
   5.879973e+01   6.586729e+01
  -1.177888e+02   1.206848e+02
  -2.530075e+02   5.361722e+01
  -2.409635e+02  -7.762718e+01
  -8.476691e+01  -2.309264e+02
   2.283433e+02  -2.157759e+02
   2.943239e+02  -8.445376e+01
   1.737292e+02   4.116735e+01
  -4.271400e+01   1.513290e+02
  -1.060302e+02   5.938379e+01
   4.137143e+00  -5.951410e+01
   1.345085e+02  -9.507887e+01
   1.925443e+02   6.085422e+01
   6.275051e+01   2.193797e+02
  -4.805127e+01   1.707208e+02
  -1.218447e+02   8.221249e+01
  -8.499606e+01   3.965207e+01
  -1.673153e+01   2.011424e+01
  -5.609253e+01   4.327082e+01
  -3.904929e+01   6.119321e+01
  -2.201403e+02   2.932658e+01
  -1.709181e+02  -1.196388e+02
  -3.967673e+01  -1.819403e+02
   9.378948e+01  -1.263403e+02
   1.961389e+02  -5.110349e+00
   8.214855e+01   8.527610e+01
  -1.581349e+01   5.622501e+01
  -5.771733e+01  -7.377543e+00
  -7.751276e-01  -3.000072e+01
   4.318176e+01   1.779361e+01
   4.744553e+01   3.561575e+01
  -2.125532e+01   2.270883e+01
  -8.413932e+01  -3.440258e+01
  -2.187873e+00  -1.400257e+02
   9.857857e+01  -1.344079e+02
   1.720190e+02  -4.842993e+01
   1.717866e+02   1.498390e+02
   8.373285e+01   2.553400e+02
  -1.051001e+02   1.521620e+02
  -1.513500e+02   6.473594e+01
  -7.158985e+01  -5.710428e+01
  -3.698672e+01  -1.944259e+01
  -7.659816e+01  -9.683314e+00
  -3.915824e+01  -4.031334e+01
  -7.608485e+00  -4.305010e+01
   7.524571e+01  -3.955430e+01
   8.306382e+01  -3.782664e+01
   1.127417e+02   1.132540e+01
  -3.710166e+00   9.161360e+01
  -1.472062e+02   6.139501e+01
  -2.159967e+02  -4.952048e+01
  -1.357998e+02  -1.932315e+02
   1.353551e+02  -2.333767e+02
   3.022348e+02  -8.490221e+01
   2.737774e+02   7.082449e+01
   1.384400e+02   1.701935e+02
  -5.677672e+01   1.880618e+02
  -1.300458e+02   6.785447e+01
  -1.181469e+02   7.781374e+01
  -3.577351e+01   9.668210e+01
  -4.466136e+01   1.328209e+01
  -6.889054e+01  -3.725280e+01
  -1.125326e+02  -1.548571e+02
  -5.242966e+01  -1.947139e+02
   8.504176e+01  -1.621694e+02
   1.380078e+02  -4.345663e+01
   1.367831e+02   1.438530e+02
   1.680166e+01   1.571663e+02
  -6.813663e+01   3.626230e+01
  -8.678077e+01  -3.842769e+01
  -2.514917e+01  -5.229978e+01
   1.336917e+01  -4.734767e+01
  -3.693146e+01  -2.950758e+01
  -6.332099e+01  -5.442417e+01
  -4.504278e+01  -4.357500e+01
   5.114096e+01  -3.239896e+01
   1.079502e+02  -4.499688e+00
   1.050870e+02   5.705054e+01
   1.285755e+01   5.062079e+01
  -1.402007e+02   1.247405e+02
  -1.439949e+02   3.767510e+01
  -6.207696e+01  -3.163493e+01
   5.618069e+01  -3.403208e+01
   3.730383e+01  -4.166956e+00
  -7.825980e+00   4.225375e+01
  -5.502540e+01   2.890360e+01
  -5.996125e+01  -2.424291e+01
  -2.570232e+01  -3.119384e+01
  -1.006423e+01  -2.283783e+01
  -1.647518e+01  -2.757263e+01
   1.187923e+00   2.241027e+01
   2.331370e+00  -7.686146e+01
   8.023514e+01  -1.617444e+02
   1.641595e+02  -1.455085e+02
   1.252995e+02  -7.381661e+00
   1.394793e+02   1.148970e+02
   1.716075e+01   1.326590e+02
  -7.305160e+01   6.792747e+01
  -6.327199e+01  -3.747166e+01
   4.176847e+01  -1.682285e+01
   1.572673e+02   1.857133e+01
   8.047023e+01   1.008381e+02
  -7.793134e+01   9.608796e+01
  -1.920974e+02   7.024179e+01
  -1.364144e+02  -1.882908e+01
  -3.767529e+01  -4.092507e+01
   3.837310e+01  -5.847894e+01
   7.240070e+01  -3.808389e+01
  -3.573559e+01   1.366762e+01
  -1.077904e+02   2.471734e+01
  -3.188962e+01  -9.526903e+01
   5.448094e+01  -1.161918e+02
   1.568018e+02  -4.609854e+01
   1.042729e+02   8.224909e+01
   3.289111e+01   1.607412e+02
  -5.953218e+01   1.084900e+02
  -1.210416e+02  -9.292258e+00
  -6.549073e+01  -1.447399e+02
   1.315049e+01  -1.344362e+02
   4.128543e+01  -2.948286e+01
   1.077624e+02   3.912250e+01
   9.210433e+01   1.270491e+00
  -1.737523e+00   8.825066e-01
   1.086287e+01   6.377814e+00
   1.618822e+01   7.621069e+01
   3.693875e+01   9.231398e+01
  -4.474737e+01   6.609068e+01
  -1.515389e+02  -2.468403e+01
  -1.805759e+02  -6.849084e+01
  -2.168654e+01  -6.486513e+01
   7.408550e+01   1.931725e+01
   1.083095e+02  -4.537785e+01
   1.656283e+01   3.109287e+01
  -5.987777e+01   5.087932e+01
  -2.511390e+01   4.590581e+01
   4.157139e+01  -1.047350e+01
  -6.827932e+00  -5.987917e+00
  -4.585415e+01   2.054821e+01
  -4.831345e+01  -7.927486e-01
   3.270448e+01  -4.195845e+01
   8.972842e+01  -1.036563e+02
   1.594754e+02  -4.252273e+01
   1.053659e+02   1.785631e+01
   4.007145e+01   1.303111e+02
  -6.039192e+01   1.504533e+02
  -1.119530e+02   3.641228e+01
  -6.594310e+01  -3.071966e+01
  -4.351792e+01  -7.482864e+01
  -2.961220e+01  -5.972854e+01
  -2.690414e+01  -9.187996e+00
  -3.249914e+01  -4.251363e+01
  -2.055298e+01  -5.566778e+01
  -3.662570e+00  -8.133991e+01
   6.478894e+01   4.326231e+01
   4.899641e+01   1.016400e+02
  -3.324991e+01   7.942252e+01
  -5.787132e+01  -1.587664e+01
  -8.746422e+01  -5.039897e+01
  -1.719061e+01  -7.851161e+01
   3.798708e+01  -3.669916e+01
   1.053474e+02   2.351206e+01
   2.579517e+01   1.341255e+01
  -1.470858e+01   3.560603e+01
  -5.379883e+01   4.477258e+01
   2.488054e+01   4.065043e+01
   6.346517e+01   2.918623e+01
   5.246904e+00   3.625944e+01
  -9.000417e+01   2.080034e+01
  -1.008485e+02   2.129034e+01
  -4.575233e+01  -3.376349e+01
   1.159208e+00  -6.581080e+01
   2.313006e+01  -6.218588e+01
   2.068188e+01   7.704274e+00
  -1.892000e+01   6.711812e+01
  -3.395062e+01   5.908660e+00
  -6.729116e+01  -1.694978e+01
  -3.654262e+01  -7.196149e+01
   4.555359e+00  -5.152154e+01
   2.148610e+01   1.234161e+01
   5.620683e+01   6.252053e+01
  -2.122834e+01   7.679469e+00
   1.504027e+01  -2.266237e+01
  -2.855877e+01  -5.016183e+00
  -6.304806e+00   2.885188e+01
  -1.805992e+01   5.406614e+01
  -3.525559e+01   8.253877e+00
  -1.269794e+01  -1.871098e+00
  -1.914371e+01  -3.261243e+01
   5.820793e+01  -5.086233e+01
   5.659216e+01   3.500997e+01
   3.554441e+00   4.395142e+01
  -3.334736e+01   4.879488e+01
  -4.367278e+01  -3.638372e+01
  -6.921099e+01  -4.090721e+01
   2.208736e+01  -2.212405e+01
   2.776387e+01  -2.719337e+00
   3.735456e+01   4.517329e+00
  -5.854313e+01   1.376695e+01
  -1.792002e+01  -3.671058e+00
  -1.139787e+01  -1.443294e+01
   8.442158e+01  -2.721647e+01
