
 $NMID
 id='ANONYMOUS ', fmtdat='(2E16.6)'
 volume=1.0
 tramp=1.0
 $END
  -4.189616e+03   7.679043e+01
  -2.616950e+03  -2.527093e+03
   6.127857e+02  -2.643928e+03
   1.804019e+03  -9.921227e+02
   1.017837e+03   4.378949e+02
  -5.203949e+02   5.408750e+02
  -7.289521e+02  -3.815660e+02
  -7.390860e-01  -9.526146e+02
   8.043909e+02  -7.363585e+02
   8.674369e+02   6.334134e+01
   4.270399e+02   7.921098e+02
  -2.166288e+02   8.518570e+02
  -5.232351e+02   1.732309e+02
  -4.005147e+02  -7.339097e+02
   2.395944e+02  -7.982718e+02
   5.347991e+02  -4.493083e+01
   2.506201e+02   7.445694e+02
  -3.290864e+02   7.725545e+02
  -5.112509e+02   1.374062e+02
  -4.380079e+02  -3.291394e+02
  -1.408210e+00  -4.409032e+02
   2.207012e+02  -3.047676e+02
   1.351159e+02   6.591828e+01
  -1.595044e+02  -1.357774e+01
  -3.666340e+02  -2.196064e+02
  -1.495938e+02  -5.123274e+02
   5.210680e+02  -3.937958e+02
   8.139806e+02   9.131123e+01
   4.155266e+02   4.927655e+02
  -4.917028e+02   4.031181e+02
  -6.658953e+02  -8.980418e+01
  -3.663894e+02  -4.743554e+02
   2.552957e+02  -5.013526e+02
   5.844801e+02  -1.884548e+02
   3.670735e+02   1.320042e+02
   1.379568e+02   4.531624e+02
  -1.498253e+02   2.961672e+02
  -1.808634e+02  -1.973397e+02
   8.877410e+01  -4.409611e+02
   4.020909e+02  -1.247721e+01
   2.281697e+02   6.242564e+02
  -3.090544e+02   6.423184e+02
  -5.582289e+02  -2.301424e+00
  -2.280807e+02  -6.085535e+02
   2.441607e+02  -3.745910e+02
   3.619543e+02   2.753012e+02
  -6.842236e+01   5.707467e+02
  -5.206758e+02   1.618661e+02
  -5.821779e+02  -3.766465e+02
  -1.706290e+02  -5.820129e+02
   3.147975e+02  -3.338569e+02
   6.207011e+02   1.006721e+02
   3.585816e+02   3.510813e+02
  -1.104485e+02   3.224028e+02
  -4.374761e+02   1.659350e+01
  -2.498927e+02  -1.689614e+02
   6.796666e+01  -8.867678e+01
   1.470311e+02   1.381591e+02
  -1.147825e+02   1.959815e+02
  -3.158086e+02  -6.962560e+01
  -1.130850e+02  -2.530870e+02
   2.100631e+02  -2.760604e+02
   3.739603e+02  -6.675146e+01
   1.886441e+02   1.350794e+02
  -3.812933e+00   2.672136e+02
  -2.406348e+02   3.843848e+02
  -3.805119e+02   2.500707e+02
  -2.888385e+02  -1.266928e+02
  -6.995652e+01  -4.165964e+02
   1.007707e+02  -3.673055e+02
   1.049287e+02  -9.773660e+01
  -2.078322e+01   2.562997e+01
   1.569965e+01  -1.056891e+02
   2.106606e+02  -1.432407e+02
   2.973914e+02   3.913917e+01
   1.512107e+02   2.599334e+02
  -6.856691e+01   2.532172e+02
  -2.106539e+02  -4.929242e+01
  -1.785825e+02  -2.705707e+02
   6.291264e+01  -2.973919e+02
   2.274830e+02  -1.511566e+02
   3.693762e+02   1.683653e+02
   1.751328e+02   3.527582e+02
  -5.336506e+01   2.696232e+02
  -1.835162e+02   1.695532e+02
  -1.700842e+02   3.214550e+01
  -8.463185e+01   4.558640e+01
  -3.009643e+02   6.338072e+01
  -4.520752e+02  -9.338265e+01
  -3.285315e+02  -2.758285e+02
  -1.032328e+01  -4.236195e+02
   3.800171e+02  -3.914585e+02
   4.659567e+02  -2.369158e+02
   3.112594e+02   6.604886e+01
   1.345360e+01   2.903220e+02
  -1.268994e+02   2.744439e+02
  -4.990900e+01   3.338582e+01
   1.040865e+02  -1.030199e+02
   2.569391e+02   5.057702e+01
   5.443424e+01   1.810122e+02
  -1.088672e+02   1.767550e+02
  -1.917937e+02  -3.684663e+01
  -1.634765e+01  -1.872806e+02
   1.817682e+02  -1.578976e+01
   1.417608e+02   2.313843e+02
   7.820820e+00   3.602839e+02
  -2.209373e+02   2.270832e+02
  -2.978875e+02  -6.888931e+01
  -2.711558e+02  -2.555347e+02
  -9.184561e+01  -2.563442e+02
   1.398719e+02  -1.589143e+02
   1.766266e+02  -3.024719e+01
   3.516988e+01   4.177395e+01
  -8.950592e+01  -3.416024e+01
  -1.664433e+01  -1.354131e+02
   1.403353e+02  -1.732869e+02
   1.726061e+02   1.621998e+01
   4.832008e+01   8.438661e+01
  -7.512511e+01   1.998288e+01
  -3.906386e+01  -5.112181e+01
   1.237871e+02  -7.967945e+01
   2.752172e+02  -1.212821e+00
   2.374334e+02   1.436325e+02
   7.143872e+01   3.266754e+02
  -1.772399e+02   1.920159e+02
  -2.898368e+02   1.203409e+02
  -1.948541e+02  -4.896001e+01
   8.194640e-01  -8.809514e+01
   9.780828e+01  -4.601156e-01
  -4.530765e+00   1.184541e+02
  -1.796956e+02   5.653109e+01
  -2.438442e+02  -1.143526e+02
  -5.559278e+01  -2.446371e+02
   1.248343e+02  -1.706606e+02
   1.522080e+02  -6.281755e+01
   6.296998e+01   5.572773e+01
  -3.618307e+01   4.794585e+01
   1.169226e+00  -3.572007e+01
   6.730626e+01  -8.929699e+01
   2.006145e+02  -6.229336e+01
   1.665017e+02   1.087536e+02
   1.464279e+01   1.855700e+02
  -1.294433e+02   1.536029e+02
  -1.765326e+02   6.259099e+01
  -3.639954e+01  -1.152130e+02
   6.541610e+01  -6.283305e+01
   8.307192e+01  -1.583902e+01
   1.416679e+01   3.146584e+01
  -3.320144e+01  -3.098711e+01
   1.040644e+01  -5.143479e+01
   3.323636e-01   1.347559e+01
   9.555818e+01   9.060573e+01
   3.558102e+01   2.101371e+02
  -1.041283e+02   1.277653e+02
  -2.121560e+02   3.058234e+00
  -2.372504e+02  -1.833121e+02
  -4.621717e+01  -2.117763e+02
   8.579386e+01  -1.738291e+02
   1.782800e+02   2.202141e+01
   6.702357e+01   4.809140e+01
  -2.976356e+00   4.589977e+01
   7.019471e+01  -9.413479e+00
   9.545700e+01   8.144448e+00
   5.557397e+01   4.506451e+01
  -4.988069e+01   8.807448e+01
  -1.641520e+02   5.854316e+01
  -7.602164e+01  -4.382124e+01
   2.851981e+01  -1.130596e+02
   1.893958e+02  -9.907173e+01
   2.210374e+02   2.828755e+01
   1.020322e+02   1.739427e+02
  -1.258497e+02   3.097210e+02
  -3.047853e+02   1.449308e+02
  -2.573816e+02  -1.003781e+02
  -1.216828e+02  -1.443069e+02
   6.013454e+01  -1.208939e+02
   8.268795e+01  -5.857331e+01
   8.564743e+01  -5.778950e+01
   7.851349e+01  -1.069972e+02
   7.238362e+01  -1.298368e+02
   1.273711e+02  -2.146429e+01
   1.010058e+02   1.345597e+02
   8.338950e+01   1.907642e+02
  -6.599474e+01   1.719750e+02
  -1.962854e+02  -4.337637e+00
  -1.336323e+02  -1.221642e+02
  -1.067595e+01  -1.495521e+02
   1.230026e+02  -8.924609e+01
   8.345912e+01   4.316471e+01
  -1.671005e+01   1.156520e+02
  -2.390379e+01   4.489177e+01
   1.206104e+01  -1.372879e+01
   3.815993e+01   1.385165e+01
   4.197320e+01   7.526149e+01
  -7.800889e+01   5.121745e+01
  -1.553296e+02   4.455076e+00
  -1.505203e+02  -5.626267e+01
  -1.815512e+01  -9.591797e+01
   9.615971e+01  -8.651732e+01
   1.300147e+02   3.573624e+00
   6.302040e+01   6.137941e+01
  -2.608231e+01   5.082857e+01
  -8.697398e+01  -3.101615e+01
  -1.920584e+01  -6.233819e+01
   6.151987e+01  -7.743894e+01
   3.370104e+01   1.051038e+01
   1.317932e+01   4.601873e+01
   3.455131e+01   3.452562e+01
   2.043362e+01   1.203430e+01
   5.836438e+01  -6.521502e+00
   6.352021e+01   6.959912e+01
  -2.297401e+01   1.469649e+02
  -1.203731e+02   1.407581e+02
  -1.835175e+02   2.611725e+01
  -1.529957e+02  -7.958002e+01
   7.248598e+00  -7.709590e+01
   8.590569e+01  -5.423493e+01
   3.245884e+01   2.334333e+01
  -8.552723e+01   1.287930e+01
  -1.871897e+02  -4.884044e+01
  -1.044491e+02  -8.859471e+01
   7.466817e+01  -1.564400e+02
   1.788860e+02  -2.993950e+01
   1.687536e+02   6.412810e+01
   5.592319e+01   1.283400e+02
  -8.396125e+01   6.863716e+01
  -9.694273e+01   1.532673e+01
  -2.328468e+00  -3.612524e+01
   1.257686e+02   2.871836e+01
   6.255151e+01   1.265008e+02
  -7.472234e+01   1.756913e+02
  -1.385536e+02   1.049483e+02
  -1.362550e+02  -9.149360e+01
  -1.836471e+01  -1.971756e+02
   1.194807e+02  -1.303383e+02
   1.325767e+02   3.005338e+01
   7.155596e+01   8.345586e+01
  -3.070927e+01   1.228190e+02
  -1.525446e+01   5.393112e+01
  -5.778626e+01  -2.660768e+01
  -1.042794e+01  -4.150617e+01
   8.760564e+00   3.966167e+01
  -2.656491e+01   2.903298e-01
  -5.070838e+01  -8.498871e+01
  -5.266406e-01  -1.049820e+02
   2.532646e+01  -4.632359e+01
   1.590211e+02   3.204970e+01
   1.356478e+02   7.459188e+01
  -8.609598e+00   1.067651e+02
  -1.016936e+02   2.419001e+01
  -1.225716e+02  -9.084315e-01
  -3.237267e+00  -2.050014e+01
   2.130899e+01  -1.134520e+01
   1.836362e+01   2.736021e+01
  -2.024234e+00   5.689038e+01
   8.200858e-01  -3.530365e+01
   3.288411e+01  -6.031460e+01
   6.236682e+01   1.925051e+01
   1.635384e+01   1.279650e+02
  -1.139349e+02   1.452820e+02
  -1.835529e+02   6.549167e+01
  -1.633977e+02  -6.922720e+01
  -3.244738e+01  -1.272440e+02
   5.959903e+01  -1.741896e+02
   1.457524e+02  -8.930798e+01
   1.013316e+02   6.556252e+00
   5.783614e+01   4.920046e+01
   4.530864e+01  -7.194377e+00
  -5.428583e+00  -3.040701e+01
   6.080741e+01   7.207420e+01
  -1.084196e+00   7.809710e+01
  -4.636826e+01   7.797049e+01
  -9.877205e+01  -2.236757e+01
  -4.791440e+01  -9.154084e+01
   2.152854e+01  -9.505523e+01
   3.964807e+01  -2.746259e+01
   9.401513e+01   5.098774e+01
   1.957121e+01   6.503962e+01
  -6.670915e+01   8.551929e+01
  -1.142398e+02  -1.528316e+01
  -4.311346e+00  -3.605751e+01
   4.183552e+01  -6.506318e+01
   1.087765e+01  -3.333346e+01
  -2.311762e+01   3.112924e+00
  -7.345358e+01   5.448084e+00
  -1.718837e+01  -8.947393e+01
   1.100332e+02  -1.027418e+02
   1.481839e+02  -4.164388e+01
   8.418732e+01   1.800397e+01
  -3.624160e+00   8.197730e+01
  -1.912973e+01   1.027798e+02
  -5.422803e+01   1.431042e+01
  -3.127659e+00  -2.843015e+01
   1.706930e+01  -4.839658e+00
   4.842169e+01   7.842295e+00
   1.486255e+01   8.614298e+01
  -5.072059e+01   5.555746e+01
  -3.851184e+01   2.809843e+00
  -2.737674e+01  -2.944669e+01
  -1.085301e+01   2.260772e+01
   3.031121e+00   2.341313e+01
   2.622085e+00  -1.943192e+01
  -1.178482e+01  -5.282018e+01
  -9.381986e+00  -4.542576e+01
   1.878663e+01   3.837325e+00
  -3.180377e-01   4.650024e+01
  -2.270624e+01   4.529782e+01
  -4.741670e+01   1.140389e+01
  -2.985592e+01  -6.638689e+01
  -2.395371e+01  -6.827506e+01
   4.502053e+01  -3.976137e+01
   1.030381e+02   2.243815e+00
   4.218990e+01   5.074705e+01
  -4.219954e+01   3.324948e+01
  -2.763164e+01   3.331332e+01
  -6.571632e+01   2.616981e+01
   7.263391e+00  -2.466496e+01
   2.602853e+01  -1.551110e+01
   3.800728e+01   2.029606e+01
  -4.633158e+01   5.189785e+00
