
 $NMID
 id='ANONYMOUS ', fmtdat='(2E16.6)'
 volume=1.0
 tramp=1.0
 $END
   4.155084e+03  -4.382483e+01
   2.463634e+03   2.482838e+03
  -6.358822e+02   2.664788e+03
  -2.065712e+03   8.914093e+02
  -9.375172e+02  -6.311703e+02
   6.712949e+02  -6.236188e+02
   9.328866e+02   4.115697e+02
   6.050048e+01   1.038411e+03
  -7.798884e+02   7.645507e+02
  -7.997467e+02  -8.046192e+01
  -3.894772e+02  -8.120875e+02
   2.907732e+02  -9.070920e+02
   5.539912e+02  -1.074057e+02
   4.179677e+02   7.176270e+02
  -2.612120e+02   7.071554e+02
  -5.059497e+02  -5.027682e+01
  -2.763675e+02  -6.256228e+02
   3.521662e+02  -6.951596e+02
   5.707506e+02  -5.551887e+01
   4.307857e+02   3.109161e+02
   3.648984e+01   3.989730e+02
  -2.192893e+02   2.993867e+02
  -1.857427e+02   4.416914e+01
   6.540534e+01  -1.194627e+02
   3.830496e+02   1.263125e+02
   1.739105e+02   4.395412e+02
  -4.355389e+02   3.993242e+02
  -7.692716e+02  -9.326308e+01
  -3.492845e+02  -4.935830e+02
   3.714123e+02  -4.494724e+02
   6.838557e+02   5.750154e+01
   3.138286e+02   4.835012e+02
  -2.533250e+02   5.100091e+02
  -5.859896e+02   1.482861e+02
  -3.860318e+02  -2.272408e+02
  -5.186080e+01  -4.503623e+02
   1.924277e+02  -2.616357e+02
   1.627611e+02   2.329770e+02
  -1.779470e+02   3.886194e+02
  -3.992419e+02  -5.172584e+01
  -2.282200e+02  -6.705376e+02
   3.672850e+02  -6.222673e+02
   5.607308e+02   7.802344e+01
   2.059858e+02   5.882581e+02
  -3.308164e+02   2.944388e+02
  -4.160349e+02  -3.287499e+02
   2.915587e+01  -5.285473e+02
   5.380558e+02  -1.345440e+02
   6.070020e+02   3.835309e+02
   1.600532e+02   5.533406e+02
  -3.840918e+02   3.152601e+02
  -6.314274e+02  -1.160778e+02
  -3.507342e+02  -3.945018e+02
   1.719187e+02  -3.326322e+02
   4.377600e+02  -2.756477e+00
   2.665369e+02   2.251716e+02
  -9.173481e+01   9.543994e+01
  -9.824198e+01  -1.693890e+02
   1.744810e+02  -1.725535e+02
   3.626043e+02   6.954157e+01
   1.589048e+02   3.248095e+02
  -2.034792e+02   2.622345e+02
  -3.463602e+02   1.047995e+02
  -1.893077e+02  -7.713620e+01
   4.459478e+01  -1.761106e+02
   2.517545e+02  -3.040714e+02
   3.495376e+02  -2.046127e+02
   2.163246e+02   1.487357e+02
   1.664771e+01   4.307746e+02
  -1.534747e+02   3.460157e+02
  -1.271205e+02   3.393505e+01
   1.012045e+01  -4.344617e+01
  -1.504842e+01   8.020863e+01
  -1.893152e+02   1.287001e+02
  -2.312093e+02  -8.116020e+01
  -1.363976e+02  -2.517653e+02
   8.059125e+01  -2.427503e+02
   2.263901e+02  -8.464430e+00
   1.937316e+02   2.281483e+02
   2.776776e+01   2.836137e+02
  -2.728454e+02   1.144080e+02
  -3.236662e+02  -1.728188e+02
  -1.892966e+02  -3.600224e+02
   9.528778e+01  -3.201891e+02
   2.061186e+02  -1.208602e+02
   1.533340e+02   2.315081e+01
   6.880911e+01  -4.259289e+01
   2.109241e+02  -7.661866e+01
   3.605396e+02   8.585076e+01
   3.069673e+02   2.863641e+02
  -1.407813e+01   3.936996e+02
  -3.576680e+02   3.315590e+02
  -4.854576e+02   1.532786e+02
  -3.499368e+02  -1.157341e+02
   1.087553e+01  -2.958256e+02
   1.631114e+02  -2.595181e+02
   1.158102e+02  -2.260722e+01
  -7.637842e+01   1.152293e+02
  -2.028454e+02  -8.128694e+00
  -5.483567e+01  -2.306644e+02
   1.583935e+02  -1.980677e+02
   1.756965e+02   3.361495e+01
  -7.835271e+00   1.386910e+02
  -1.443923e+02   7.026395e+00
  -1.340682e+02  -2.399615e+02
   7.433754e+01  -3.506836e+02
   2.180081e+02  -2.217301e+02
   3.298904e+02   6.543442e+01
   2.821701e+02   2.454383e+02
   1.411148e+02   3.061063e+02
  -8.678904e+01   1.793635e+02
  -2.099926e+02   1.276820e+01
  -4.992250e+01  -4.430443e+01
   1.016757e+02   2.294097e+01
   4.789510e+01   1.455406e+02
  -1.263710e+02   1.207155e+02
  -1.960284e+02  -6.135539e+01
  -8.473176e+01  -7.623238e+01
   1.018311e+02  -3.127677e+01
   7.418125e+01   1.004415e+02
  -1.303033e+02   1.147249e+02
  -2.645590e+02  -5.659194e+00
  -2.589165e+02  -1.457407e+02
  -4.822764e+01  -2.536979e+02
   1.936419e+02  -2.383207e+02
   2.654309e+02  -1.212837e+02
   1.358968e+02   5.598240e+01
  -5.100821e+01   1.126499e+02
  -1.032804e+02   9.453964e+00
   4.325474e+01  -9.329488e+01
   1.811014e+02  -3.269074e+01
   1.880682e+02   8.144758e+01
   6.438773e+01   2.016685e+02
  -9.441670e+01   1.461586e+02
  -1.413670e+02   2.726057e+01
  -9.631927e+01  -2.362002e+01
   2.172619e+01   1.232232e+01
   1.658688e+01   9.398276e+01
  -7.180734e+01   1.134428e+02
  -2.184108e+02   6.484821e+01
  -1.922567e+02  -1.559952e+02
  -6.038446e+01  -2.522182e+02
   1.643191e+02  -1.507992e+02
   1.612167e+02   1.796281e+01
   3.703871e+01   1.434522e+02
  -1.171268e+02   9.006245e+01
  -7.260666e+01   9.525054e+00
   1.247552e+01  -4.366005e+01
   4.108969e+01  -1.591471e+00
  -3.622296e+01  -8.189897e+00
  -8.741104e+01  -1.800559e+01
  -9.734217e+01  -5.587859e+01
  -4.103752e+01  -1.336826e+02
   1.250266e+02  -1.677845e+02
   1.930545e+02  -5.086400e+01
   2.141487e+02   1.160514e+02
   4.524636e+01   2.359893e+02
  -1.099993e+02   1.824868e+02
  -1.465748e+02  -1.341298e+01
  -5.844049e+01  -9.444637e+01
  -3.204932e+01  -4.225735e+01
  -5.599616e+01   3.102968e+01
  -8.975035e+01   1.663078e+01
  -2.044411e+01  -1.925532e+01
   7.159715e+01  -9.120809e+01
   1.089101e+02  -8.118474e+01
   5.210202e+01   9.432749e+01
  -5.039987e+01   1.246582e+02
  -1.351185e+02   1.060273e+02
  -2.348979e+02  -6.253898e+01
  -8.485392e+01  -2.179871e+02
   1.151518e+02  -2.322286e+02
   2.758136e+02  -7.900137e+01
   2.617935e+02   1.442983e+02
   9.398899e+01   2.092242e+02
  -5.490148e+01   1.048531e+02
  -9.248560e+01   4.330890e+01
  -8.160514e+01   5.985239e+01
  -4.421323e+01   9.461367e+01
  -7.665253e+01   9.370207e+01
  -7.966831e+01   3.634308e+01
  -1.560529e+02  -1.345999e+02
  -3.370506e+01  -2.219165e+02
   7.980596e+01  -1.926816e+02
   1.505455e+02  -6.886904e+01
   1.554667e+02   1.140162e+02
   2.531942e+01   1.647107e+02
  -8.294532e+01   4.715849e+01
  -5.173050e+01  -2.838521e+01
   1.649982e+01  -6.627780e+01
   4.463976e+01  -3.219067e+01
  -3.047492e+00  -1.377703e+00
  -2.055900e+01   4.093772e+01
  -3.935132e+01  -3.956118e+01
   5.656329e+01  -1.207104e+01
   1.449268e+02   9.669079e+00
   1.028748e+02   5.817852e+01
   4.109541e+01   9.537999e+01
  -1.139656e+02   1.104543e+02
  -1.153644e+02   7.196824e+01
  -6.535437e+01  -2.988279e+01
   2.675655e+01  -6.939553e+01
   5.824220e+01  -1.279313e+01
  -8.453114e+00   1.265543e+01
  -4.468819e+01   5.779192e+01
  -3.174499e+01  -1.958891e-01
  -3.634155e+01  -7.904589e+01
  -4.348743e+01  -3.480815e+01
  -1.542026e+01  -2.295045e+01
  -4.942101e+01   9.055891e+00
   1.634233e+00  -4.585341e+01
  -5.550497e-01  -1.570915e+02
   1.337382e+02  -1.374491e+02
   1.686157e+02  -5.483480e+01
   1.358705e+02   6.940568e+01
  -4.608599e+01   1.175950e+02
  -1.074419e+02   5.144653e+01
  -7.256655e+01   4.921209e+00
   9.059604e+01  -1.256460e+01
   1.036004e+02   6.523799e+01
   7.777403e+01   5.560771e+01
  -6.785563e+01   6.223256e+01
  -1.951489e+02   1.469191e+01
  -1.422013e+02  -1.221288e+01
  -9.207217e+00  -5.242578e+01
   6.504869e+01  -2.192169e+01
   5.498427e+01  -8.651662e+00
  -1.980775e+01   1.763515e+01
  -1.115141e+02  -2.458285e+01
  -3.359954e+01  -8.422325e+01
   5.033355e+01  -1.556204e+02
   1.567742e+02  -2.949104e+01
   1.555272e+02   1.213240e+02
   2.892359e+00   2.186531e+02
  -9.849166e+01   1.572351e+02
  -7.769189e+01   2.209955e+01
  -7.819710e+01  -1.587125e+02
  -2.909965e+01  -1.374459e+02
   1.840887e+01  -4.414484e+01
   7.982402e+01   5.838905e+01
   9.324240e+01   2.549446e+01
  -1.918350e+01   1.128440e+01
   8.752949e+00   7.460641e+01
   2.177077e+01   6.831360e+01
   6.979792e+01   8.594931e+01
   3.608980e+00   3.282299e+01
  -1.383920e+02  -4.248205e+01
  -6.346700e+01  -3.672538e+01
  -3.539376e+01  -5.581906e+01
   6.374998e+01  -3.571016e+01
   8.076526e+01  -3.167599e+01
   4.533355e+01  -2.630652e+01
  -2.501474e+01   7.753291e+00
   1.568173e+00  -1.149146e+01
   2.987026e+01  -9.078462e+00
  -1.536712e+01   1.624545e+00
  -8.750695e+01  -6.176670e+01
  -1.060356e+02  -2.479788e-01
  -3.781272e-01  -8.697074e+01
   1.311799e+02  -9.014882e+01
   2.106685e+02  -5.221589e+01
   1.544260e+02   2.574891e+01
   5.377689e-01   1.685792e+02
  -7.911962e+01   1.562440e+02
  -1.176055e+02   4.666840e+01
  -7.627940e+01  -2.549988e+01
  -5.872991e+01  -3.668802e+01
   4.099547e+01   6.803728e+00
  -1.618631e+01  -1.948569e+01
  -3.273352e+01  -6.633839e+01
  -6.017486e+01  -1.197049e+02
   1.038425e+01  -5.198911e+01
   7.993993e+01   1.982322e+01
   9.680030e+01   1.082591e+02
  -5.771265e+00   1.547844e+02
  -9.197593e+01   1.015708e+01
  -1.175532e+02  -8.647671e+01
  -2.793531e+01  -1.194611e+02
   1.095226e+02  -4.678199e+00
   9.275148e+01   1.999502e+01
   3.716634e+01   6.309746e+01
  -8.895804e+00   5.228815e+01
  -2.898101e+01   6.300711e+00
   2.098020e+01   1.277642e-01
   3.299445e+01  -4.638352e+01
   1.512797e+01   5.763052e+00
  -4.148722e+01   8.201480e+01
  -9.079420e+01   3.184500e+01
  -5.008905e+01  -1.639642e+01
   1.164976e+01  -6.575696e+01
   4.112701e+01  -9.718152e+01
   3.797838e+01  -4.268448e+00
  -4.334776e+00  -5.056365e+00
   4.117183e+01  -6.543246e+00
  -1.563725e+01  -2.372336e+00
  -1.191811e+01  -6.304729e+01
   3.519599e+00  -6.831067e+01
   3.323808e+01  -2.599098e+01
   5.366804e+01  -9.853107e+00
   9.281065e+01  -2.904431e+01
   1.357926e+01  -3.968698e+01
  -5.795851e+00   1.343813e+01
   1.276424e+01   5.963097e+01
  -1.183046e+01   8.534197e+01
  -1.832928e+01   1.211220e+01
  -8.498187e+01  -4.951681e+01
   3.430170e+00  -4.150865e+01
  -6.172380e+00   4.169052e+01
   6.996097e+01   4.698342e+01
  -1.434279e+01   7.540890e+01
  -4.763270e+01   3.674718e+01
  -1.046841e+02  -1.188975e+01
  -4.946983e+01  -1.748684e+01
   3.184954e+01  -3.302794e+01
   8.916060e+01  -2.166684e+01
   5.099183e+01  -1.877646e+01
  -6.041119e+01   3.131541e+01
  -1.663860e+01  -3.490629e+00
   2.268192e+01  -1.175987e+01
   1.014045e+02  -2.159934e+01
