
 $NMID
 id='ANONYMOUS ', fmtdat='(2E16.6)'
 volume=1.0
 tramp=1.0
 $END
  -4.328357e+03   1.040994e+02
  -2.710483e+03  -2.545289e+03
   6.669508e+02  -2.725320e+03
   2.065423e+03  -9.450882e+02
   8.498703e+02   6.169401e+02
  -7.427697e+02   5.471259e+02
  -8.213134e+02  -3.307146e+02
   1.187998e+01  -1.000737e+03
   8.396802e+02  -7.152112e+02
   9.200567e+02   3.023389e+01
   4.148637e+02   7.636083e+02
  -2.199995e+02   8.706794e+02
  -5.634414e+02   2.081640e+02
  -3.761420e+02  -7.025547e+02
   2.555838e+02  -8.246421e+02
   5.513386e+02  -9.310057e+01
   2.398513e+02   6.036183e+02
  -2.867517e+02   6.041193e+02
  -6.130379e+02   1.511533e+02
  -5.089036e+02  -3.464123e+02
  -5.247942e+01  -4.426885e+02
   2.759370e+02  -3.138049e+02
   2.827119e+02   3.578284e+01
  -9.909262e+01   9.723510e+01
  -4.820271e+02  -1.067497e+02
  -2.405613e+02  -4.338352e+02
   4.910571e+02  -4.067478e+02
   8.948839e+02   1.257393e+02
   4.567147e+02   5.948548e+02
  -4.178807e+02   4.733379e+02
  -7.844746e+02  -8.262570e+01
  -2.878264e+02  -4.631143e+02
   3.160813e+02  -5.165629e+02
   5.776486e+02  -1.576928e+02
   3.906275e+02   1.909093e+02
   1.192139e+02   4.546646e+02
  -2.170531e+02   2.643820e+02
  -1.323226e+02  -2.422867e+02
   1.378830e+02  -4.422607e+02
   4.489242e+02   4.168249e+01
   2.061277e+02   7.050020e+02
  -3.470970e+02   6.716838e+02
  -6.387274e+02  -1.507991e+01
  -2.379289e+02  -5.651649e+02
   2.988029e+02  -3.623896e+02
   4.230539e+02   3.077206e+02
  -5.906580e+01   5.600692e+02
  -5.361021e+02   1.616427e+02
  -5.796666e+02  -4.048826e+02
  -1.167990e+02  -5.948841e+02
   4.257674e+02  -3.543127e+02
   6.742291e+02   1.061098e+02
   3.471220e+02   4.312371e+02
  -1.923107e+02   3.791340e+02
  -4.415405e+02   4.902818e+01
  -2.188360e+02  -2.024385e+02
   1.618000e+02  -1.015269e+02
   1.598523e+02   1.386298e+02
  -1.869659e+02   1.872466e+02
  -3.254175e+02  -6.982199e+01
  -1.291306e+02  -2.629966e+02
   2.043980e+02  -2.997423e+02
   3.422523e+02  -1.049018e+02
   2.162019e+02   8.738977e+01
   1.418499e+01   2.670506e+02
  -2.512436e+02   3.430063e+02
  -3.593859e+02   2.145986e+02
  -2.714541e+02  -1.678023e+02
  -3.008424e+01  -4.159385e+02
   1.266829e+02  -3.702670e+02
   9.126310e+01  -4.895858e+01
  -6.129269e+01  -4.043378e+01
   5.160135e+01  -1.394365e+02
   2.378064e+02  -1.723600e+02
   3.007028e+02   4.544262e+01
   1.233418e+02   2.525823e+02
  -1.095562e+02   2.988498e+02
  -2.490194e+02   2.636104e+01
  -1.451632e+02  -2.541691e+02
   2.605128e+01  -3.036576e+02
   2.639026e+02  -8.432420e+01
   3.442784e+02   1.845417e+02
   1.322976e+02   3.719608e+02
  -1.431989e+02   2.984935e+02
  -2.752335e+02   1.292720e+02
  -1.338440e+02   1.125998e+01
  -3.124789e+01   2.101386e+01
  -2.225790e+02   7.086469e+01
  -4.247705e+02  -5.472156e+01
  -3.457219e+02  -2.812960e+02
  -4.064169e+01  -4.493401e+02
   4.052822e+02  -4.455899e+02
   4.915373e+02  -2.430324e+02
   3.624252e+02   7.431467e+01
   8.778046e+01   3.152114e+02
  -1.622602e+02   3.132393e+02
  -1.086833e+02   5.178927e+01
   1.421330e+02  -1.080580e+02
   2.184287e+02   3.166126e+01
   7.145270e+01   2.067613e+02
  -2.183077e+02   2.034865e+02
  -2.140371e+02  -4.229356e+01
   1.720127e+01  -2.153348e+02
   1.617847e+02  -6.020024e+01
   1.709508e+02   2.070874e+02
  -1.404383e+01   2.774223e+02
  -1.952865e+02   2.092235e+02
  -3.380278e+02  -1.014029e+02
  -2.652472e+02  -2.589200e+02
  -8.178812e+01  -2.713105e+02
   1.303869e+02  -1.501928e+02
   1.990034e+02   1.049523e+01
   4.401297e+01   2.944003e+01
  -9.408056e+01  -4.790461e+01
  -5.708800e+01  -1.358792e+02
   1.677999e+02  -9.221370e+01
   1.923471e+02   6.909436e+01
   6.077888e+01   1.016141e+02
  -8.211799e+01   1.582583e+01
  -8.377724e+01  -3.678061e+01
   6.207651e+01  -1.002765e+02
   3.114930e+02   5.890812e+00
   3.155242e+02   1.357290e+02
   8.197818e+01   2.621736e+02
  -1.828879e+02   2.739880e+02
  -2.979454e+02   1.271317e+02
  -2.098972e+02  -3.017815e+01
  -3.091212e+01  -1.422284e+02
   1.167655e+02  -2.290006e+01
  -2.187288e+01   1.489222e+02
  -2.740020e+02   4.021265e+01
  -2.435995e+02  -1.287015e+02
  -7.927302e+01  -2.482377e+02
   9.076849e+01  -1.791919e+02
   1.698777e+02  -2.785144e+01
   5.392834e+01   7.535646e+01
  -2.501024e+01   1.093220e+01
  -4.112494e+01  -1.006391e+02
   6.769508e+01  -9.350671e+01
   2.306811e+02  -4.655403e+01
   2.018024e+02   1.192747e+02
   4.123439e+01   2.112035e+02
  -1.119897e+02   2.005963e+02
  -2.237691e+02   4.711484e+01
  -7.972193e+01  -8.621825e+01
   6.988200e+01  -1.011159e+02
   7.031873e+01  -3.880159e+01
   4.215469e+01  -1.247558e+01
   4.941597e+00   2.549600e+00
   1.008604e+01   1.420468e+00
   4.644268e+01   3.029697e+01
   9.774267e+01   1.033895e+02
   1.668911e+01   1.694185e+02
  -1.034453e+02   1.547561e+02
  -2.319509e+02   3.939700e+01
  -2.298653e+02  -1.444611e+02
  -6.456508e+01  -2.352801e+02
   1.090320e+02  -1.609752e+02
   1.277249e+02  -3.018365e+01
   9.767190e+01   5.974773e+01
   1.755958e+01   2.390771e+01
   4.713831e+01  -4.717936e+01
   1.158647e+02  -7.273730e+01
   7.220443e+01   2.797113e+01
   1.661792e-01   5.788623e+01
  -1.214359e+02   1.206239e+02
  -1.035176e+02  -1.634854e+01
  -2.410150e+00  -6.514779e+01
   1.379180e+02  -9.605574e+01
   2.128161e+02   2.591043e+01
   9.441033e+01   1.917646e+02
  -1.119318e+02   2.236148e+02
  -2.831008e+02   7.645308e+01
  -2.314523e+02  -8.144196e+01
  -1.090330e+02  -1.894125e+02
   6.068694e+01  -1.545397e+02
   1.092639e+02  -5.915868e+01
   8.558888e+01  -6.782193e+01
   9.259688e+01  -7.599518e+01
   7.403668e+01  -8.658427e+01
   1.162341e+02   1.810976e+01
   1.291890e+02   1.708942e+02
   2.784947e+01   2.237641e+02
  -8.232949e+01   1.715400e+02
  -1.870320e+02   1.350294e+01
  -1.694548e+02  -1.096673e+02
  -3.747418e+01  -1.734389e+02
   3.965820e+01  -1.103399e+02
   9.492885e+00  -1.587231e+01
  -5.500207e+00   1.191172e+00
   1.394136e+01   3.527196e+01
   7.433118e+00   1.398662e+01
   7.162558e+01   3.231375e+00
   8.147243e+01   7.229219e+01
  -4.817573e+01   4.402036e+01
  -1.606180e+02   4.396243e+00
  -1.698466e+02   8.676452e+00
  -3.819262e+01  -1.027198e+02
   1.127630e+02  -9.269326e+01
   1.414488e+02  -1.921847e+01
   6.913111e+01   1.239215e+01
  -7.350191e+01   2.653906e+01
  -7.098029e+01  -3.965362e+01
  -2.254795e+01  -4.376858e+01
   4.131842e+01  -2.233768e+01
   5.255959e+01   3.894604e+01
   3.255955e+01   8.567888e+01
   1.584943e+01   2.215483e+01
   6.806558e+01  -5.748588e+00
   7.851240e+01   2.402335e+01
   3.425457e+01   7.633246e+01
  -2.226808e+01   1.211034e+02
  -1.312063e+02   1.448297e+02
  -1.333772e+02   3.242376e+01
  -1.123493e+02  -1.442492e+02
  -6.228269e+00  -1.087756e+02
   5.617678e+01  -4.611774e+01
   6.167653e+01   1.551813e+01
  -1.056316e+01   6.607619e+00
  -1.168193e+02  -5.414750e+01
  -6.316038e+01  -1.291049e+02
   1.258562e+02  -1.162433e+02
   1.527610e+02  -4.522008e+01
   2.100018e+02   1.046003e+01
   5.783923e+01   8.133092e+01
  -8.160054e+01   8.645862e+01
  -8.247304e+01  -8.606086e+00
   1.076724e+01  -9.182917e+00
   4.690350e+01  -1.680260e+01
   3.747130e+01   8.842957e+01
  -8.940232e+01   1.863261e+02
  -1.319155e+02   5.414761e+01
  -1.395328e+02  -8.742868e+01
   3.606562e+00  -1.940276e+02
   8.411747e+01  -1.299932e+02
   6.272337e+01   4.965007e+00
   7.890235e+01   1.408808e+02
   7.606771e+00   6.400578e+01
  -5.249086e+00   3.115502e+00
  -4.327396e+01  -7.029932e+01
  -3.422744e+01   3.950529e+00
  -1.456835e+01   2.016656e+01
   6.914467e-01  -1.083764e+01
  -9.170656e+01  -7.495769e+01
  -6.245835e+01  -1.250378e+02
   4.797214e+01  -5.497786e+01
   1.314643e+02   1.420114e+01
   1.488705e+02   8.112483e+01
   6.248410e+01   3.169058e+01
  -9.002217e+01   2.997755e+01
  -9.411150e+01   2.889894e+01
   2.780844e+01   2.509798e+01
   2.001774e+01  -2.565375e+01
  -6.491336e+00  -1.090803e+01
  -3.600909e+01   1.685742e+01
   1.411367e+00  -5.601250e+00
   6.101672e+01   6.768108e+00
   1.177702e+02   3.548895e+01
  -1.153314e+01   9.469321e+01
  -1.533333e+02   1.356014e+02
  -2.169923e+02   4.723787e+01
  -1.367570e+02  -7.858317e+01
   1.556255e+01  -1.910058e+02
   8.785232e+01  -1.207907e+02
   1.031931e+02  -9.816154e+00
   4.897366e+01   1.202403e+01
   1.203779e+01   4.215598e+01
   3.414047e+01  -3.948261e+00
   1.669848e+01   2.068830e+01
   9.337758e+01   2.606401e+01
   2.526894e+01   8.420426e+01
  -4.266968e+01   8.830821e+01
  -6.451915e+01   1.224612e+01
  -1.001812e+02  -1.212635e+02
  -8.702198e+00  -1.337030e+02
   8.141717e+01  -4.348669e+01
   9.197878e+01   4.102054e+01
   4.165700e+01   7.078735e+01
  -4.971681e+01   3.817058e+01
  -9.502552e+01  -2.411974e+01
  -4.907096e+01  -2.825439e+01
   5.442377e+01  -4.429079e+01
   5.842947e+01  -1.790131e+01
  -6.798494e+01   1.101036e+01
  -5.908723e+01   8.247892e+00
  -2.704251e+01  -1.718516e+01
   6.411213e+01  -9.615349e+01
   1.694277e+02  -6.630323e+01
   7.367685e+01   4.288529e+01
  -9.116030e+00   1.042705e+02
  -4.739809e+01   9.023999e+01
  -2.199840e+01   5.770124e+00
  -2.129352e+01  -5.596124e+01
  -3.200749e+00  -4.700811e+01
   1.932979e+01  -3.828403e-01
   4.476029e+01   6.326767e+01
   2.182589e+01   2.357368e+01
  -2.550889e+01  -3.893628e+01
  -4.720030e+01  -3.818553e+01
  -2.817084e+00  -1.568004e+00
   4.563991e+01   2.609566e+00
   1.314302e+00   2.675144e+01
  -6.047977e+00   6.608448e+00
  -1.124649e+01  -2.091748e+01
   6.753752e+00  -1.191906e+01
   4.145617e+01   2.473063e+01
  -7.486123e+00   7.310010e+01
  -5.215752e+01  -6.959668e+00
  -2.574605e+01  -6.688844e+01
  -2.098975e+01  -7.481261e+01
   3.435088e+01  -4.335437e+01
   9.288394e+01   2.702572e+01
   6.485311e+01   4.062530e+01
  -4.297982e+01   6.791177e+01
  -7.644760e+01   3.474348e+01
   2.994036e+00   1.046394e+01
   4.340622e-01   1.282113e+01
   1.775883e+01   4.566275e+01
  -1.488843e+01   2.323027e+01
  -1.162272e+02   3.914583e+01
