
 $NMID
 id='ANONYMOUS ', fmtdat='(2E16.6)'
 volume=1.0
 tramp=1.0
 $END
   4.394955e+03   2.890289e+01
   2.558897e+03   2.641878e+03
  -8.750337e+02   2.763096e+03
  -2.205043e+03   8.525074e+02
  -9.063400e+02  -7.949743e+02
   6.994372e+02  -6.382281e+02
   8.824555e+02   5.245547e+02
   5.609738e+01   1.085767e+03
  -8.814754e+02   7.245741e+02
  -9.708296e+02  -1.620019e+02
  -2.911158e+02  -8.914772e+02
   2.474065e+02  -8.796521e+02
   6.438192e+02  -7.995896e+01
   3.704522e+02   8.099518e+02
  -3.316753e+02   7.550322e+02
  -6.222466e+02  -6.906816e+01
  -1.198926e+02  -6.444688e+02
   4.489225e+02  -5.601172e+02
   5.229300e+02  -4.492699e+01
   3.811673e+02   2.961009e+02
   2.131227e+01   4.889146e+02
  -2.150079e+02   2.276577e+02
  -2.630261e+02   1.154202e+01
   8.809157e+01  -1.486329e+02
   4.893424e+02   3.074258e+01
   1.415338e+02   4.294880e+02
  -4.412333e+02   3.792564e+02
  -8.560133e+02  -1.203830e+02
  -4.545474e+02  -5.620017e+02
   4.684559e+02  -5.589437e+02
   7.778724e+02  -5.406874e+00
   3.782468e+02   5.246204e+02
  -2.650250e+02   5.660088e+02
  -5.670386e+02   2.097992e+02
  -3.769425e+02  -2.345191e+02
  -1.209372e+02  -5.138915e+02
   2.469431e+02  -2.740097e+02
   2.214116e+02   2.855561e+02
  -2.029923e+02   4.823205e+02
  -5.129769e+02  -1.607664e+00
  -3.172252e+02  -7.164487e+02
   3.372707e+02  -7.091993e+02
   6.540716e+02   2.924351e+01
   2.723666e+02   5.646496e+02
  -2.771291e+02   3.543231e+02
  -4.474150e+02  -3.485381e+02
   6.915778e+01  -5.894427e+02
   5.764984e+02  -1.605548e+02
   6.153765e+02   4.775523e+02
   1.355092e+02   6.160798e+02
  -4.071832e+02   3.305532e+02
  -6.218765e+02  -1.128403e+02
  -3.423792e+02  -4.411058e+02
   1.871774e+02  -3.791827e+02
   4.370984e+02  -9.791491e+00
   2.063798e+02   2.294735e+02
  -1.454921e+02   1.072983e+02
  -1.617771e+02  -1.418885e+02
   1.307672e+02  -2.256863e+02
   3.630183e+02   5.852879e+01
   1.234013e+02   3.132384e+02
  -2.370123e+02   2.793811e+02
  -3.607197e+02   3.593028e+01
  -1.890465e+02  -1.126024e+02
   8.635757e-02  -2.347255e+02
   1.812454e+02  -3.513770e+02
   3.571878e+02  -2.907512e+02
   3.235382e+02   1.275095e+02
   1.137877e+02   4.574240e+02
  -8.087361e+01   4.324959e+02
  -1.310621e+02   1.281695e+02
  -4.056568e+01  -2.448519e+01
  -3.460402e+01   6.051511e+01
  -1.882604e+02   1.453399e+02
  -2.801023e+02  -6.578582e+01
  -1.923160e+02  -2.861494e+02
   5.842156e+01  -2.838575e+02
   2.670911e+02  -3.850319e+01
   2.088637e+02   2.685876e+02
  -6.366188e+01   2.739015e+02
  -3.304940e+02   1.261092e+02
  -3.284881e+02  -1.711298e+02
  -1.985127e+02  -3.282314e+02
   1.027654e+02  -3.441409e+02
   2.429335e+02  -1.314479e+02
   1.821375e+02  -1.339726e+01
   6.847916e+01  -1.531353e+00
   1.835186e+02  -1.151422e+02
   3.393966e+02   4.603574e+01
   3.038414e+02   2.061880e+02
   8.111845e+00   4.067769e+02
  -3.313465e+02   4.042278e+02
  -4.634409e+02   1.664185e+02
  -3.637569e+02  -8.420206e+01
  -5.850972e+01  -3.573995e+02
   1.535365e+02  -2.434914e+02
   1.052651e+02  -1.625322e+01
  -7.854588e+01   1.302933e+02
  -1.944615e+02  -1.885509e+01
   7.959886e+00  -2.533367e+02
   1.893391e+02  -1.644695e+02
   2.048558e+02   9.012118e+01
  -1.091427e+01   2.337144e+02
  -1.952934e+02   6.680421e+01
  -1.611019e+02  -2.449073e+02
  -1.378588e+00  -3.247477e+02
   2.396593e+02  -2.010689e+02
   3.195138e+02   5.666652e+01
   2.757786e+02   2.242222e+02
   1.122846e+02   2.380165e+02
  -1.029070e+02   1.503856e+02
  -1.278227e+02   4.705775e+01
  -9.718693e+01  -9.210632e+00
   4.115224e+01  -6.709303e+00
   3.631242e+01   9.349537e+01
  -1.194712e+02   9.147478e+01
  -1.783610e+02   9.489309e+00
  -2.449577e+01  -5.753399e+01
   1.564033e+02   3.102363e+01
   9.734036e+01   8.826795e+01
  -1.187225e+02   1.210629e+02
  -2.610730e+02   8.372770e+01
  -2.905230e+02  -1.137361e+02
  -1.310728e+02  -2.545213e+02
   1.468200e+02  -2.903383e+02
   3.037350e+02  -1.652635e+02
   1.723597e+02   2.424129e+01
  -4.152697e+01   1.672797e+02
  -1.381151e+02   5.082607e+01
  -6.641875e+01  -8.996220e+01
   1.911086e+02  -8.774671e+01
   2.249627e+02   8.096757e+01
   1.143605e+02   2.383536e+02
  -6.217817e+01   1.864296e+02
  -1.440885e+02   4.156384e+01
  -1.076311e+02  -1.146319e+01
   1.035959e+01  -1.085462e+01
  -8.483341e+00   8.560951e+01
  -9.509319e+01   1.239276e+02
  -2.120475e+02   5.017789e+01
  -2.187408e+02  -1.470696e+02
  -4.260914e+01  -2.552732e+02
   1.554106e+02  -1.834738e+02
   1.499592e+02  -2.650277e+01
   7.344026e+01   1.176631e+02
  -6.350067e+01   1.247910e+02
  -4.339343e+01  -5.121233e+00
  -5.602361e+01  -4.156999e+01
  -2.275640e+01  -3.812627e+01
  -6.505180e+01   1.515451e-01
  -6.995927e+01  -1.400052e+01
  -7.974665e+01  -7.743112e+01
  -5.779186e+01  -1.560677e+02
   1.274968e+02  -1.603843e+02
   2.544441e+02  -1.940464e+01
   2.293299e+02   1.426933e+02
   7.305094e+00   2.342440e+02
  -1.241719e+02   1.567476e+02
  -1.313316e+02   1.732098e+01
  -4.904908e+01  -1.051594e+02
  -4.879079e+01  -4.281918e+01
   2.339459e+00   2.708996e+01
  -6.194339e+01  -2.782092e+00
  -7.034048e+01  -4.382656e+01
   9.332287e+00  -7.100564e+01
   7.892018e+01  -6.794198e+01
   9.064020e+01   4.687094e+01
  -1.845640e+01   9.723957e+01
  -1.295512e+02   7.962494e+01
  -2.140581e+02  -7.682106e+01
  -1.102713e+02  -2.318488e+02
   9.079138e+01  -2.574497e+02
   2.657276e+02  -1.282389e+02
   2.907158e+02   9.131506e+01
   1.421592e+02   1.330861e+02
  -2.217987e+01   1.193407e+02
  -7.659275e+01   8.283645e+01
  -4.749568e+01   8.720910e+01
  -6.615861e+01   1.006561e+02
  -6.947734e+01   1.038274e+02
  -1.569636e+02   3.751037e+00
  -1.199971e+02  -1.623524e+02
  -3.568975e+01  -2.067197e+02
   1.071606e+02  -1.823050e+02
   1.917950e+02  -3.137728e+01
   1.595625e+02   1.708776e+02
   6.247328e+01   2.169085e+02
  -3.291475e+01   1.042265e+02
  -6.364253e+01   1.552487e+00
  -3.578013e+01  -7.663886e+01
  -2.668796e+00  -5.535197e+01
   2.554553e+00  -1.707116e+01
  -1.015433e+02   1.354183e+01
  -6.154752e+01  -6.455198e+01
   4.507805e+01  -4.576532e+01
   1.642521e+02   1.776952e+01
   1.327268e+02   4.741362e+01
   6.560092e+01   8.472560e+01
  -1.043572e+02   7.125889e+01
  -1.429040e+02   3.163507e+01
  -2.456879e+01  -3.359844e+01
   7.094423e+01   8.426732e+00
   8.053060e+01   3.104894e+01
   9.943167e+00   4.786183e+01
  -7.999069e+01   4.225714e+01
  -5.851638e+01  -2.009567e+01
  -7.043811e+01  -7.785545e+01
  -7.331841e+01  -4.292561e+01
  -6.765451e+01  -7.344744e-01
  -7.946593e+01  -1.380687e+01
  -1.351588e+01  -5.143842e+01
   4.676574e+01  -1.435493e+02
   9.341547e+01  -1.123382e+02
   1.462618e+02  -5.856751e+01
   8.801760e+01   9.509539e+01
   2.040501e+01   1.302549e+02
  -8.457591e+01   3.621857e+01
  -7.958131e+01  -4.183561e+01
   6.350113e+01  -5.544322e+01
   1.306177e+02   8.252730e+00
   8.181321e+01   1.257123e+02
  -6.221038e+01   1.378961e+02
  -1.752249e+02   5.119987e+01
  -1.569911e+02  -1.316116e+01
  -1.667488e+01  -7.771328e+01
   9.370012e+01  -6.084339e+01
   9.526627e+01   3.023423e+01
  -1.177671e+01   5.372980e+01
  -6.295571e+01   3.328583e+01
  -5.451717e+01  -7.458345e+01
   7.476147e+01  -1.672714e+02
   1.331953e+02  -3.366553e+01
   1.455740e+02   1.500268e+02
   1.812540e+01   2.295617e+02
  -9.445888e+01   1.396920e+02
  -8.719846e+01   6.379182e+00
  -4.183389e+01  -1.062799e+02
   3.626244e+01  -1.253603e+02
   6.185454e+01  -3.647829e+01
   3.532062e+01   3.361455e+01
  -8.449786e-02   4.910514e+01
   8.099035e+00  -3.176789e+01
   6.086586e+01  -1.499151e+01
   7.454694e+01   9.423238e+01
   5.119775e+01   1.247537e+02
  -3.392237e+01   4.807285e+01
  -1.560112e+02  -2.891660e+00
  -1.297331e+02  -1.259571e+02
   1.630854e+01  -6.970147e+01
   1.199844e+02  -1.724125e+01
   9.564075e+01  -1.364478e+00
   3.689666e+01   2.136589e+01
  -4.172919e+01   4.336550e+01
  -4.514683e+01   5.528225e+00
   5.456375e+00  -1.044367e+01
  -1.587153e+01   2.841045e-01
  -1.114905e+02  -3.618826e+01
  -6.130018e+01  -1.256852e+01
   2.729817e+01  -7.475958e+01
   1.345560e+02  -1.351359e+02
   1.562602e+02  -7.268027e+01
   1.511145e+02   3.473743e+01
   1.448591e+01   1.309636e+02
  -9.179603e+01   1.087571e+02
  -8.673748e+01   4.612290e+01
  -6.710571e+01  -1.896833e+00
   4.495927e+00  -3.257852e+01
   1.235296e+01   5.035741e+00
  -3.121301e+00   2.135482e+01
  -4.161331e+01   5.401710e+00
  -6.145210e+01  -8.491654e+01
   2.651190e+01  -2.525577e+01
   2.948150e+01   6.826800e+01
   5.839711e+01   1.239318e+02
   1.594756e+00   8.023422e+01
  -1.007573e+02  -7.121314e+00
  -1.030558e+02  -5.949851e+01
  -2.526389e+01  -1.167552e+02
   6.268081e+01  -9.467323e+01
   5.272335e+01  -1.842336e+00
   2.680356e+01   6.664393e+01
  -3.219943e+01   5.029956e+01
  -1.544015e+01   1.493299e+01
   5.591652e+01   4.003130e+00
   7.529456e+01   2.931360e+01
   2.624868e+01   8.427935e+01
  -1.023236e+02   9.889792e+01
  -1.360822e+02   1.098190e+02
  -4.954685e+01  -2.534265e+00
   5.675556e+01  -9.941958e+01
   5.434347e+01  -2.389868e+01
   3.955714e+01   4.378872e+01
  -1.132011e+01   7.322178e+01
  -3.012712e+01   4.482673e+01
  -6.203318e+01   1.376812e+01
  -4.511311e+01  -2.159584e+01
   2.239040e+01  -5.497233e+00
   2.420507e+01   2.599393e+01
   8.999981e+01   4.385840e+01
   4.418762e+01  -2.285569e+01
  -1.259992e+01  -5.046761e+01
  -3.254723e+01  -2.187595e+00
  -5.983854e+00   7.558811e+01
   1.290044e+01   3.718345e+01
  -6.510297e+01  -1.687654e+01
  -1.226825e+01  -9.353310e+01
   3.068772e+01  -5.965726e+01
   7.474637e+01  -7.022760e+00
   6.588079e+01   4.195990e+01
  -5.076382e+00   7.614667e+01
  -9.798896e+01   4.857409e+01
  -9.397130e+01  -5.241545e+01
  -4.074105e+01  -5.294861e+01
   5.597839e+01  -3.703505e+01
   6.494727e+01  -1.634841e+01
   2.592301e+01   2.636249e+01
  -4.618904e+01   2.615147e+01
  -5.739300e+01  -1.392835e+01
   1.403606e+01  -6.383961e+01
   8.889909e+01  -1.596571e+01
