
 $NMID
 id='ANONYMOUS ', fmtdat='(2E16.6)'
 volume=1.0
 tramp=1.0
 $END
   3.791017e+03   7.931751e+01
   2.248304e+03   2.217726e+03
  -6.075433e+02   2.317150e+03
  -1.766148e+03   6.190894e+02
  -7.223796e+02  -6.664690e+02
   6.750974e+02  -4.069110e+02
   7.364844e+02   4.160223e+02
  -3.228386e+01   9.240574e+02
  -7.431923e+02   6.243892e+02
  -8.023977e+02  -1.601352e+02
  -3.366346e+02  -7.068831e+02
   1.942335e+02  -7.232859e+02
   4.805250e+02  -5.905847e+01
   3.552752e+02   6.120226e+02
  -2.409049e+02   5.845784e+02
  -5.110720e+02   1.573334e+01
  -2.276781e+02  -6.255918e+02
   2.810786e+02  -4.895839e+02
   4.779427e+02  -2.971482e+01
   2.545753e+02   3.543078e+02
  -6.432886e+01   4.281504e+02
  -2.741509e+02   2.108855e+02
  -2.307874e+02  -6.925158e+01
   5.739154e+01  -1.189981e+02
   4.182793e+02   6.622869e+01
   1.994672e+02   3.263813e+02
  -4.174941e+02   3.924731e+02
  -6.707216e+02  -8.235723e+01
  -2.844786e+02  -3.990657e+02
   3.380903e+02  -3.475254e+02
   6.485762e+02   5.111770e+01
   2.752958e+02   3.428245e+02
  -2.450487e+02   4.682394e+02
  -4.321341e+02   1.387055e+02
  -3.386438e+02  -1.900900e+02
  -5.548815e+01  -4.109957e+02
   2.122635e+02  -2.769995e+02
   1.594024e+02   1.516247e+02
  -1.449356e+02   3.530642e+02
  -3.942184e+02  -1.878363e+01
  -2.308455e+02  -6.064204e+02
   3.574604e+02  -5.488544e+02
   5.126345e+02   6.629344e+01
   1.663845e+02   4.939955e+02
  -2.762200e+02   2.935689e+02
  -3.624623e+02  -2.567479e+02
   5.495394e+01  -4.903611e+02
   5.171155e+02  -1.276925e+02
   4.900704e+02   3.136263e+02
   1.033110e+02   5.236063e+02
  -3.354268e+02   3.431296e+02
  -4.841439e+02  -2.325234e+01
  -2.935737e+02  -2.843399e+02
   9.899699e+01  -3.104868e+02
   3.475476e+02  -7.929551e+01
   1.842363e+02   1.518480e+02
  -1.281267e+02   6.077215e+01
  -1.194521e+02  -1.243951e+02
   1.541043e+02  -1.765670e+02
   3.125030e+02   3.757716e+01
   1.250833e+02   2.407973e+02
  -1.637554e+02   2.638891e+02
  -2.623955e+02   8.071605e+01
  -1.843021e+02  -4.262496e+01
  -2.486754e+01  -1.605013e+02
   1.579604e+02  -2.489310e+02
   2.681454e+02  -1.823293e+02
   2.272179e+02   6.041500e+01
   9.427322e+01   3.853423e+02
  -1.373634e+02   3.094340e+02
  -1.276254e+02   9.986574e+01
  -4.421142e+01  -4.617937e+01
  -1.011402e+01  -1.672824e+00
  -1.298393e+02   1.281642e+02
  -2.516612e+02  -3.174582e+01
  -1.621999e+02  -1.959202e+02
   4.939094e+01  -2.134913e+02
   1.801680e+02   1.209171e+01
   1.483958e+02   1.739548e+02
   3.535657e+00   1.894568e+02
  -2.538154e+02   9.856256e+01
  -2.793180e+02  -9.830579e+01
  -1.396820e+02  -2.314357e+02
   8.222911e+01  -2.420292e+02
   1.904177e+02  -9.418460e+01
   1.217859e+02  -4.951840e+01
   8.034046e+01  -2.740854e+01
   2.058191e+02  -4.492828e+01
   3.163470e+02  -2.488706e+00
   3.200978e+02   2.358996e+02
  -1.059094e+01   3.593462e+02
  -3.102553e+02   3.228334e+02
  -3.882790e+02   1.781958e+02
  -2.398891e+02  -4.336086e+01
  -4.785173e+00  -2.362008e+02
   9.114038e+01  -2.122494e+02
   9.917968e+01  -2.110608e+01
  -8.610643e+01   4.931507e+01
  -1.703868e+02  -3.866389e+00
  -8.783391e+01  -1.394723e+02
   1.175181e+02  -1.762723e+02
   1.843007e+02   1.190153e+01
   1.687626e+01   1.746966e+02
  -1.819990e+02   1.199567e+01
  -1.486079e+02  -1.836702e+02
   1.940865e+01  -2.784498e+02
   1.700982e+02  -1.768099e+02
   2.721209e+02   1.790798e+01
   2.356888e+02   1.672727e+02
   7.828663e+01   2.268703e+02
  -9.709621e+01   1.022707e+02
  -1.466568e+02   2.902190e+01
  -1.053422e+01  -2.960606e+01
   7.332877e+01   2.847619e+01
   4.520920e+01   5.680082e+01
  -8.797760e+01   9.883236e+01
  -1.311587e+02   1.236441e+01
  -4.824773e+01  -8.597577e+00
   5.605952e+01  -2.352203e+01
   1.418571e+01   3.067237e+01
  -1.119930e+02   3.424822e+01
  -2.224988e+02   2.354493e+01
  -2.209651e+02  -1.087317e+02
  -6.295715e+01  -1.857920e+02
   1.706070e+02  -2.781223e+02
   2.335625e+02  -1.255466e+02
   1.481037e+02   1.806816e+01
   5.963305e+00   6.986052e+01
  -9.613988e+01   1.955049e+01
   5.629045e+01  -1.001103e+02
   1.926691e+02  -5.504612e+01
   1.855441e+02   9.825907e+01
   7.223759e+01   1.878380e+02
  -6.733939e+01   1.430858e+02
  -1.558422e+02   4.720427e+01
  -4.620644e+01  -3.383435e+01
   2.714845e+01   1.640173e+01
   2.708819e+01   6.883808e+01
  -6.520296e+01   5.671891e+01
  -1.543246e+02   5.971982e+01
  -2.024736e+02  -6.713076e+01
  -2.357416e+01  -1.488343e+02
   1.245265e+02  -1.328172e+02
   1.599185e+02   5.867371e+00
   5.073725e+01   7.396467e+01
  -6.394217e+01   7.061823e+01
  -2.476772e+01   4.425602e+01
  -2.459661e+01  -1.163172e+01
   1.744507e+01  -4.130371e+01
  -2.216803e+01   6.612337e+00
  -5.786153e+01  -3.219040e+01
  -6.826919e+01  -5.714323e+01
  -3.568233e+01  -1.479110e+02
   9.198784e+01  -1.246411e+02
   2.138225e+02   5.910663e+00
   1.336207e+02   9.051028e+01
   3.860801e+01   2.009671e+02
  -1.268764e+02   1.174888e+02
  -1.016110e+02   4.384848e+01
  -5.269845e+01  -7.818076e+01
   4.415061e+00  -4.354169e+01
  -4.795171e+01   2.021160e+00
  -8.830998e+01   7.010914e+00
  -1.922951e+01  -6.638145e+01
   9.745579e+01  -8.030486e+01
   7.281720e+01  -1.361779e+01
   1.064517e+02   4.458480e+01
   1.009805e+01   8.036926e+01
  -1.116118e+02   7.987704e+01
  -1.482595e+02  -5.826823e+00
  -8.658623e+01  -1.629516e+02
   1.078921e+02  -1.562348e+02
   2.227495e+02  -1.198303e+02
   1.830148e+02   5.690716e+01
   1.078334e+02   1.212905e+02
  -1.647901e+01   1.505456e+02
  -7.633915e+01   7.690760e+01
  -6.267236e+01   3.291077e+01
  -5.228965e+00   5.892088e+01
  -6.219579e+01   4.498493e+01
  -1.126808e+02  -5.227260e-01
  -1.099299e+02  -8.978816e+01
  -4.537849e+00  -1.433022e+02
   9.451152e+01  -1.595448e+02
   1.439807e+02  -3.350693e+01
   1.057876e+02   1.139067e+02
  -6.505526e+00   1.117652e+02
  -4.700364e+01   5.090843e+01
   4.259117e+01  -3.244987e+01
  -1.399206e+00  -4.862723e+01
   3.084646e+01  -3.514278e+01
  -2.349100e+00  -1.093328e+01
  -3.184313e+01  -2.404875e+01
  -4.787749e+01  -3.121452e+01
   8.000492e+01  -5.529930e+01
   2.224253e+02  -1.679452e+01
   1.145710e+02   8.437801e+01
   1.842547e+01   9.326989e+01
  -8.844566e+01   4.969281e+01
  -1.185632e+02   2.405240e+01
  -3.803443e+01  -4.241589e+01
   9.350785e+01  -1.632915e+01
   9.726471e+01   4.003684e+01
  -2.307832e+01   7.329821e+01
  -4.772684e+01   7.283445e+01
  -5.658319e+01  -2.908525e+01
  -3.075198e+01  -4.149208e+01
   9.828006e+00  -4.733329e+01
  -2.953236e+01   7.240948e+00
  -9.041095e+00   5.205001e+00
  -6.430455e+01  -4.450522e+01
   1.950718e+01  -9.702741e+01
   1.001028e+02  -1.533514e+02
   1.772261e+02  -3.143804e+01
   1.107268e+02   1.043183e+02
  -2.044480e+00   1.055153e+02
  -6.887861e+01   1.002859e+02
  -6.875785e+01   3.402120e+01
   1.230314e+01   8.074160e+00
   9.435626e+01   2.506389e+01
   4.699521e+01   6.357948e+01
  -3.115730e+01   8.122730e+01
  -1.426830e+02   3.222406e+01
  -1.428612e+02  -2.571601e-01
  -5.339954e+01  -1.019162e+02
   3.032323e+01  -8.052532e+01
   3.348358e+01  -5.200590e+01
  -4.534623e+01   3.518285e+01
  -7.184582e+01   3.169797e+00
  -3.523003e+01  -1.073712e+02
   4.329256e+01  -8.866970e+01
   1.159531e+02  -5.609161e+01
   6.214107e+01   4.702337e+01
  -7.726807e+00   1.755106e+02
  -9.236180e+01   1.075021e+02
  -6.133662e+01  -7.350451e+00
  -5.166259e+00  -1.027943e+02
   3.443548e+00  -9.143170e+01
   5.544618e+01   1.646454e+01
   2.168604e+01   2.764344e+01
   6.566810e+00   4.201994e+01
   3.785995e+00  -1.313065e+01
   4.817353e+00   1.310045e+01
   2.249076e+01   1.069074e+02
   1.450869e+01   6.172718e+01
  -4.220960e+01   8.006566e+00
  -1.416934e+02  -3.735325e+01
  -7.385561e+01  -6.304146e+01
  -9.549259e+00  -4.208241e+01
   8.155315e+01  -1.928543e+01
   9.587279e+01   4.100147e+00
  -6.809076e-02   1.966521e+01
  -3.785316e+01   4.410065e+01
   1.736757e+01   2.499812e+01
   4.830932e+01   1.520148e+01
  -1.749337e+01  -5.731891e+00
  -8.354559e+01   1.570920e+01
  -6.890011e+01  -2.713617e+01
  -1.706640e+01  -6.685325e+01
   9.556393e+01  -1.256848e+02
   1.600509e+02  -1.971255e+01
   1.072131e+02   4.670212e+01
   1.974625e+01   1.535223e+02
  -9.298663e+01   1.170086e+02
  -1.152320e+02   3.132482e+01
  -6.784164e+01  -2.088793e+01
  -8.315545e+00  -3.520684e+01
  -5.383908e+00   6.356865e+00
  -6.786520e+00  -1.140462e+01
  -2.491822e+01  -3.343545e+01
  -4.184331e+00  -4.918753e+01
   3.284768e+01  -3.302609e+01
   5.577459e+01   3.463511e+01
   5.255929e+01   1.111561e+02
  -3.201460e+01   9.118055e+01
  -9.074610e+01   2.064235e+01
  -1.008256e+02  -5.269957e+01
  -2.943885e+01  -1.483555e+02
   5.647938e+01  -3.012265e+01
   1.148831e+02   1.886478e+01
   1.934001e+01   7.757778e+01
  -1.849449e+01   9.172718e+01
  -2.551360e+00   9.715188e+01
   4.182441e+01   1.183104e+01
   4.973140e+01  -3.883214e+01
  -1.070095e+01   7.288420e+00
  -3.891789e+01   5.858335e+01
  -5.662413e+01   2.160126e+01
  -8.916922e+01   6.316621e-02
  -2.036967e+00  -8.204326e+01
   6.291042e+01  -8.952037e+01
   5.101810e+01  -2.128302e+01
  -3.767304e+01   6.609861e+01
  -2.873646e+01   4.177497e+01
  -7.421044e+01  -3.190970e+01
  -3.309917e+01  -3.031777e+01
  -1.708693e+01   1.992568e+01
   3.611774e+01  -3.112204e+00
   2.552564e+01   1.584884e+01
   6.159960e+01   1.295913e+01
   4.030821e+01  -6.646542e+00
   3.786594e+00   2.729956e+01
   3.336035e+01   6.350002e+00
  -2.409409e+01   2.710142e+01
  -7.966439e-01   2.412377e+01
  -7.476786e+01  -1.018349e+01
   1.608864e+01  -6.720659e+01
   1.418795e+01  -7.120966e+01
   3.554088e+01   1.673714e+01
  -2.258285e+00   3.921071e+01
  -4.177407e+01   8.337093e+01
  -1.058409e+02  -1.440434e+01
  -2.373256e+01  -3.353467e+01
   2.629637e+01  -1.453386e+01
   5.951422e+01  -1.988196e+01
  -3.292821e+00   2.996127e+01
   5.406454e+00   1.584041e+00
  -5.898972e+01  -5.365992e-01
   4.182486e+01   2.258643e+00
   7.833662e+01   7.471045e+00
