
 $NMID
 id='ANONYMOUS ', fmtdat='(2E16.6)'
 volume=1.0
 tramp=1.0
 $END
   4.185825e+03  -1.143440e+02
   2.648576e+03   2.490110e+03
  -5.457073e+02   2.671294e+03
  -2.016956e+03   9.899286e+02
  -9.081501e+02  -4.471348e+02
   5.603023e+02  -4.583874e+02
   7.202619e+02   4.781153e+02
  -9.163666e+01   1.013624e+03
  -8.668060e+02   7.828867e+02
  -8.953055e+02  -1.635125e+02
  -4.113541e+02  -7.527311e+02
   2.464424e+02  -8.117165e+02
   6.014285e+02  -1.228697e+02
   3.752428e+02   6.725852e+02
  -2.656194e+02   6.894076e+02
  -5.186322e+02   8.847743e+00
  -3.770747e+02  -6.719358e+02
   3.235615e+02  -6.218433e+02
   5.653669e+02  -1.500401e+02
   4.046771e+02   3.709955e+02
   2.617698e+01   5.596632e+02
  -2.458150e+02   2.703722e+02
  -1.451826e+02  -7.983965e+00
   1.379655e+02  -4.888625e+00
   2.899325e+02   1.828895e+02
   1.116332e+02   4.202897e+02
  -5.644508e+02   3.282901e+02
  -8.280457e+02  -1.574899e+02
  -3.911826e+02  -5.238070e+02
   3.563849e+02  -3.815104e+02
   7.401005e+02   8.065866e+01
   3.402034e+02   5.133414e+02
  -3.132128e+02   4.690989e+02
  -5.401088e+02   1.734052e+02
  -4.355892e+02  -2.250856e+02
  -7.152984e+01  -4.855957e+02
   1.262525e+02  -2.795252e+02
   9.187401e+01   1.799298e+02
  -1.421296e+02   4.077045e+02
  -4.272329e+02  -3.112433e+01
  -2.182668e+02  -6.962979e+02
   3.007601e+02  -6.591287e+02
   5.432833e+02  -1.303577e+01
   2.791977e+02   5.073665e+02
  -2.399400e+02   2.960017e+02
  -3.712557e+02  -3.360739e+02
   7.375001e+01  -5.281519e+02
   5.274529e+02  -7.958296e+01
   6.163833e+02   3.986599e+02
   1.791035e+02   5.593616e+02
  -3.789419e+02   3.145891e+02
  -5.995461e+02  -1.060575e+02
  -3.531865e+02  -3.328038e+02
   1.031440e+02  -3.204185e+02
   4.475223e+02  -3.223317e+01
   2.500778e+02   1.945631e+02
  -8.328531e+01   1.043751e+02
  -1.804152e+02  -1.576870e+02
   1.263056e+02  -1.955149e+02
   3.257810e+02   8.605648e+00
   2.205496e+02   3.259895e+02
  -1.830610e+02   3.109838e+02
  -3.396976e+02   1.230326e+02
  -2.589540e+02  -1.004204e+02
   1.398507e+01  -3.061725e+02
   2.498946e+02  -3.532704e+02
   4.135387e+02  -2.039694e+02
   3.067644e+02   1.774460e+02
   5.946484e+01   4.071518e+02
  -1.051080e+02   4.013351e+02
  -1.334128e+02   1.573558e+02
  -6.334623e+01   3.996652e+01
  -9.278366e+01   8.934031e+01
  -2.550198e+02   7.915842e+01
  -2.905370e+02  -1.158460e+02
  -1.402702e+02  -2.581505e+02
   1.245030e+02  -2.559429e+02
   2.495692e+02   9.693317e+00
   1.652466e+02   2.626588e+02
  -2.847881e+01   2.624390e+02
  -2.744683e+02   8.595519e+01
  -3.386439e+02  -2.250258e+02
  -2.046623e+02  -3.413288e+02
   6.719817e+01  -2.832196e+02
   1.857059e+02  -1.138947e+02
   1.468408e+02  -2.437601e+01
   1.584510e+02  -8.967136e+01
   3.362431e+02  -7.475834e+01
   4.483301e+02   9.574146e+01
   3.265339e+02   3.185267e+02
  -5.713573e+01   4.822268e+02
  -3.969376e+02   4.238233e+02
  -4.539546e+02   2.070218e+02
  -2.437494e+02  -8.655275e+01
  -5.804913e+01  -2.632150e+02
   1.314816e+02  -2.308947e+02
   2.691504e+01  -4.208053e+01
  -1.298514e+02   4.610874e+01
  -2.035724e+02  -4.079829e+01
  -6.858899e+01  -1.721423e+02
   1.547874e+02  -1.624322e+02
   1.748166e+02   5.482421e+01
  -3.437458e+01   1.636184e+02
  -2.143583e+02   3.793281e+00
  -2.128691e+02  -2.827746e+02
   1.090476e+01  -3.820148e+02
   2.320280e+02  -2.440230e+02
   2.879377e+02   1.964027e+01
   2.479838e+02   2.480543e+02
   1.065958e+02   2.627267e+02
  -1.175068e+02   1.416731e+02
  -1.573927e+02  -3.779504e+01
  -6.576505e+01  -1.500351e+01
   6.266846e+01   6.758379e+01
   1.740037e+01   1.619635e+02
  -1.121655e+02   7.827622e+01
  -1.793977e+02  -3.290518e+00
  -1.560264e+01  -7.217875e+01
   4.832695e+01  -1.075653e+01
   4.226948e+01   6.735620e+01
  -1.909850e+02   6.513752e+01
  -2.900537e+02  -6.073583e+01
  -2.892537e+02  -1.532011e+02
  -2.911377e+01  -3.020886e+02
   1.986166e+02  -2.722280e+02
   2.995890e+02  -1.094828e+02
   1.777652e+02   2.836449e+01
  -6.156521e+01   8.688441e+01
  -1.087861e+02   1.073820e+01
   1.267475e+01  -9.447851e+01
   2.445967e+02  -4.858197e+01
   1.891051e+02   1.220752e+02
   4.840047e+01   2.011700e+02
  -1.525111e+02   1.619426e+02
  -1.451327e+02   4.033466e+01
  -1.340819e+02  -2.671868e+01
  -1.009060e+01  -1.498187e+01
   2.463108e+01   7.509105e+01
  -6.354197e+01   9.282752e+01
  -2.057599e+02  -1.150015e+01
  -1.932219e+02  -1.314242e+02
  -2.624129e+01  -2.587870e+02
   1.218009e+02  -1.724107e+02
   1.870497e+02   1.102267e+01
   2.525556e+01   1.305793e+02
  -6.060686e+01   7.945982e+01
  -8.657954e+01   1.165882e+01
  -1.128085e+00  -7.343595e+00
   4.359341e+01   2.149836e+01
  -3.826884e+00   4.609267e+01
  -3.616154e+01  -1.177025e+01
  -1.003796e+02  -7.081157e+01
  -1.334941e+01  -1.140264e+02
   1.577116e+02  -1.368857e+02
   2.595305e+02  -5.366493e+01
   1.949253e+02   1.235790e+02
   4.825759e+01   2.453185e+02
  -1.484362e+02   1.953150e+02
  -1.407994e+02   3.214409e+01
  -7.636168e+01  -6.087844e+01
  -2.356694e+01  -3.001006e+01
  -5.178419e+01   1.154482e+01
  -1.012030e+02   2.584393e+01
  -5.950286e+01  -9.895169e+01
   2.490003e+00  -1.151198e+02
   1.095493e+02  -6.204265e+01
   1.162955e+02   6.311472e+01
   2.907364e+01   1.241106e+02
  -1.742833e+02   7.035008e+01
  -2.607980e+02  -4.322159e+01
  -1.307486e+02  -2.525920e+02
   1.321956e+02  -2.488644e+02
   2.843175e+02  -9.694103e+01
   2.855332e+02   5.634152e+01
   1.336907e+02   1.585606e+02
  -3.035663e+01   1.911206e+02
  -9.699004e+01   7.757469e+01
  -1.088278e+02   4.998398e+01
  -6.708222e+01   8.055587e+01
  -7.923014e+01   8.102343e+01
  -1.456659e+02  -3.971662e+01
  -1.002515e+02  -1.796186e+02
   7.912553e+00  -2.190046e+02
   1.167352e+02  -1.648511e+02
   1.655946e+02  -1.000976e+00
   8.688755e+01   1.518892e+02
   1.006967e+01   1.464645e+02
  -4.470525e+01   6.130848e+01
  -5.648330e+01   1.597421e+01
   1.101673e+01  -6.443935e+01
  -2.846204e+01  -6.261468e+00
  -1.317903e+01   8.915121e-01
  -1.224754e+02  -1.880024e+01
  -4.570519e+01  -7.838739e+01
   7.989269e+01  -4.836740e+01
   1.699140e+02  -1.913651e+01
   1.996220e+02   2.849515e+01
   2.328063e+01   8.484793e+01
  -1.643276e+02   8.762256e+01
  -2.030039e+02   5.616935e+00
  -4.681903e+01  -5.469310e+01
   1.055111e+02  -1.287793e+01
   1.260807e+02   5.134447e+01
  -1.283867e+01   5.584258e+01
  -5.205920e+01   5.356705e+01
  -5.242228e+01  -4.507243e+01
  -6.527975e+00  -4.637139e+01
  -2.932593e+01  -9.935913e+00
  -3.181921e+01   3.921728e+01
  -2.082288e+01   3.241428e+01
  -4.200542e+01  -7.880443e+00
   4.283865e+01  -1.648047e+02
   9.394989e+01  -1.584471e+02
   1.852641e+02  -5.253258e+01
   1.430550e+02   8.044558e+01
  -1.232874e+00   1.299409e+02
  -9.169984e+01   8.789892e+01
  -6.177916e+01  -1.745245e+01
   7.004098e+01  -7.665444e+01
   1.813597e+02   6.252102e+00
   1.141356e+02   9.487006e+01
  -6.032773e+01   1.268197e+02
  -1.781321e+02   6.828503e+01
  -1.672117e+02  -8.774812e+00
  -6.942578e+01  -8.791806e+01
   3.992219e+01  -7.042474e+01
   7.899174e+01  -3.607194e+00
  -3.696229e+00  -1.372856e+01
  -8.161692e+01  -3.849634e+01
  -2.566015e+01  -1.420435e+02
   1.249406e+02  -1.675361e+02
   1.974372e+02  -4.127673e+01
   1.122662e+02   1.481388e+02
  -2.016198e+01   2.087905e+02
  -1.151343e+02   1.345183e+02
  -7.519446e+01  -2.443134e-02
  -5.906237e+01  -7.990240e+01
   3.026551e+01  -1.119413e+02
   2.679154e+01   2.104063e+00
   3.458961e+01   5.485961e+01
   1.926626e+00   1.420852e+01
   5.238304e+00  -3.701880e+01
   8.793348e+00   4.913993e+00
   8.258547e+01   7.582912e+01
   3.598867e+01   1.027598e+02
  -2.060299e+01   7.153498e+01
  -1.391080e+02  -2.998125e+01
  -1.159530e+02  -4.909394e+01
  -2.097592e+01  -2.844293e+01
   1.084485e+02  -1.891233e+01
   9.658227e+01  -4.062840e+00
   3.173514e+01   4.398176e+01
  -3.805983e+00  -1.649155e+01
  -7.366319e-01   4.600195e+01
   5.461331e+00  -2.373735e+01
  -3.760643e+01   1.806673e+01
  -8.656569e+01  -2.296035e+01
  -9.906467e+01   1.753683e+01
  -3.370081e+01  -8.426033e+01
   1.320695e+02  -1.144855e+02
   1.790746e+02  -8.861767e+01
   1.295180e+02   5.874252e+01
   2.745531e+01   1.726023e+02
  -9.224444e+01   1.568784e+02
  -1.531724e+02   6.053411e+01
  -6.851439e+01  -2.955196e+01
  -2.898513e+01  -6.309087e+01
   7.664224e+00  -1.506447e+01
  -7.976503e+00  -3.918623e+01
  -2.933665e+01  -3.972416e+01
  -9.133257e+00  -7.694649e+01
   2.401108e+01  -6.856404e+01
   9.006204e+01   9.328671e-01
   4.344022e+01   1.245056e+02
  -6.777451e+00   7.972265e+01
  -6.325724e+01   9.981427e+00
  -5.799319e+01  -8.729715e+01
  -3.751914e+01  -8.889486e+01
   7.358850e+01  -6.987399e+01
   7.823783e+01   3.012382e+01
   5.397456e+01   4.203685e+01
  -6.375927e+01   6.047691e+01
  -2.398717e+01   6.768746e+01
   5.701748e+01  -3.514903e+00
   5.199845e+01  -1.851024e+01
  -1.735889e+01   2.415466e+01
  -1.256538e+02   6.422702e+01
  -1.303443e+02   3.632064e+01
  -1.031778e+02  -3.080995e+01
  -2.285057e+01  -1.041078e+02
   2.048153e+01  -5.275861e+01
   3.607410e+01  -2.860154e+00
   1.548884e+01   7.228527e+01
  -3.336186e+01   4.393270e+01
  -1.790159e+01  -2.442416e+01
  -1.474589e+01  -5.245691e+01
   1.307541e+01  -3.675817e+01
   6.001076e+00  -1.133799e+00
   2.143435e+01   5.012107e+00
   9.150075e+00   2.004721e+01
  -6.498912e+00  -2.343231e+01
  -1.419579e+00  -3.496263e+01
   9.445253e+00   2.136039e+01
  -3.800936e+01   1.548724e+01
  -9.631591e+00   8.821184e+00
  -3.977187e+01  -1.573424e+01
   2.161073e+01  -8.567390e+01
   3.265586e+01   1.500312e+01
   7.256243e+01   7.562405e+00
   4.748733e+01   7.090438e+01
  -3.676066e+01   2.294661e+01
  -1.203571e+02   1.265209e+01
  -7.779425e+01  -9.670644e+00
   5.854154e+01  -3.435358e+01
   7.358256e+01  -3.325542e+01
   9.239194e+00   1.813356e+01
  -1.907372e+01  -2.513088e+01
  -4.861466e+01   2.768881e+01
   1.272613e+00  -1.137016e+01
   5.793574e+01  -4.007827e+01
