
 $NMID
 id='ANONYMOUS ', fmtdat='(2E16.6)'
 volume=1.0
 tramp=1.0
 $END
  -4.616435e+03   7.647516e+00
  -2.791099e+03  -2.829786e+03
   7.320599e+02  -3.067997e+03
   2.196867e+03  -1.003463e+03
   9.567840e+02   6.908347e+02
  -6.455110e+02   5.374758e+02
  -9.459556e+02  -5.844619e+02
  -2.938715e+01  -1.190422e+03
   8.321165e+02  -7.457962e+02
   1.042050e+03  -1.222439e+01
   4.525422e+02   8.840425e+02
  -2.578750e+02   9.533815e+02
  -6.511360e+02   1.414548e+02
  -3.950033e+02  -7.290868e+02
   1.938014e+02  -8.329038e+02
   5.953231e+02  -5.404183e+01
   2.848878e+02   6.835923e+02
  -3.743755e+02   6.279901e+02
  -5.734187e+02   2.020846e+02
  -4.455568e+02  -4.050381e+02
  -5.069449e+01  -4.756182e+02
   2.947851e+02  -2.680502e+02
   1.973952e+02  -1.991864e+01
  -1.326436e+02   1.453494e+02
  -4.651176e+02  -1.236046e+02
  -1.652925e+02  -5.401143e+02
   5.110027e+02  -4.504880e+02
   9.031019e+02   1.495781e+02
   4.490782e+02   5.967819e+02
  -4.450011e+02   5.375627e+02
  -7.970238e+02  -1.176990e+01
  -3.671347e+02  -5.585735e+02
   3.463206e+02  -5.833112e+02
   6.502581e+02  -2.385584e+02
   4.457746e+02   2.400489e+02
   4.078181e+00   5.139034e+02
  -2.518799e+02   2.809440e+02
  -1.658077e+02  -2.473452e+02
   1.967141e+02  -4.586951e+02
   4.497148e+02  -1.351455e+01
   3.216078e+02   6.977168e+02
  -3.387056e+02   7.541012e+02
  -6.318771e+02   3.612836e+01
  -3.214922e+02  -5.888284e+02
   3.241084e+02  -3.403501e+02
   4.575056e+02   3.116800e+02
  -4.691671e+01   5.494203e+02
  -6.428201e+02   1.745275e+02
  -6.798894e+02  -3.753219e+02
  -1.576473e+02  -5.732847e+02
   4.309715e+02  -3.773150e+02
   6.555657e+02   1.147917e+02
   4.162004e+02   4.072919e+02
  -1.349928e+02   4.001183e+02
  -4.703088e+02   1.586230e+01
  -2.612622e+02  -2.046741e+02
   1.099479e+02  -1.284559e+02
   1.535234e+02   1.781248e+02
  -1.796928e+02   1.920420e+02
  -3.744515e+02  -7.622436e+01
  -1.263382e+02  -3.496233e+02
   2.159186e+02  -2.795263e+02
   3.558981e+02  -6.667753e+01
   2.425273e+02   1.304116e+02
  -2.399747e+01   2.319062e+02
  -2.046034e+02   3.238131e+02
  -3.215950e+02   2.484466e+02
  -2.815235e+02  -9.336369e+01
  -9.926986e+01  -3.798604e+02
   1.126806e+02  -3.646337e+02
   1.236334e+02  -8.423937e+01
   3.698454e+01  -1.996123e+01
  -1.307237e+01  -1.390745e+02
   1.770544e+02  -1.274984e+02
   2.745325e+02   7.649742e+01
   1.719759e+02   3.225982e+02
  -1.080226e+02   2.563646e+02
  -2.540560e+02   1.819697e+01
  -2.392244e+02  -2.589512e+02
  -2.342839e+01  -3.137725e+02
   2.586835e+02  -1.289665e+02
   3.772720e+02   1.758879e+02
   2.094972e+02   3.721892e+02
  -7.940161e+01   3.040479e+02
  -2.090615e+02   1.261965e+02
  -1.107357e+02  -2.902257e+01
  -7.594332e+01   3.792940e+01
  -2.522189e+02   8.210620e+01
  -4.055469e+02  -2.737677e+01
  -3.817597e+02  -2.803499e+02
   3.513344e-01  -4.240513e+02
   3.331221e+02  -3.896069e+02
   4.349417e+02  -1.942013e+02
   3.229626e+02   6.188512e+01
   7.454011e+01   3.135225e+02
  -1.564507e+02   2.777233e+02
  -1.086826e+02   4.142489e+01
   1.087356e+02  -1.129391e+02
   2.370988e+02  -2.847542e+01
   5.377267e+01   2.222068e+02
  -1.710515e+02   2.119636e+02
  -1.911852e+02  -4.333986e+01
   5.884271e+00  -2.378306e+02
   1.903516e+02  -5.622165e+01
   1.855821e+02   2.250665e+02
   2.003065e+01   3.164991e+02
  -1.970978e+02   1.900352e+02
  -3.105064e+02  -1.145798e+01
  -2.951031e+02  -2.121735e+02
  -5.908108e+01  -2.094741e+02
   1.595985e+02  -1.531480e+02
   1.629301e+02  -7.863106e+00
   4.509152e+01   6.101361e+01
  -1.467298e+02  -3.617601e+01
  -5.625021e+01  -1.324918e+02
   1.495718e+02  -1.361544e+02
   1.962630e+02  -8.844461e+00
   7.191394e+01   8.736797e+01
  -1.039867e+02  -4.099772e+00
  -7.268900e+01  -5.488597e+01
   1.221483e+02  -1.096909e+02
   2.721096e+02  -2.673556e+01
   2.677366e+02   1.384840e+02
   6.013257e+01   2.806858e+02
  -2.020813e+02   2.694174e+02
  -3.294703e+02   1.082736e+02
  -1.492267e+02  -7.412847e+01
  -3.602408e+00  -9.356943e+01
   1.120964e+02  -2.912947e+01
  -4.952602e+01   9.225370e+01
  -2.232978e+02   6.361451e+01
  -1.911290e+02  -1.096644e+02
  -3.562985e+01  -2.340516e+02
   1.136178e+02  -2.072483e+02
   1.775264e+02  -3.225903e+01
   5.484856e+01   5.251061e+01
  -2.418829e+01   2.715650e+01
  -4.385126e+01  -6.897870e+01
   5.764258e+01  -1.059231e+02
   2.139297e+02  -3.229539e+01
   2.280110e+02   1.288403e+02
   3.920454e+01   2.396256e+02
  -1.339944e+02   1.718683e+02
  -2.122742e+02  -6.898173e+00
  -8.051807e+01  -6.392080e+01
   1.039264e+02  -1.106879e+02
   9.083141e+01  -2.804794e+01
  -2.395454e+01   4.633391e+01
  -3.196486e+01   3.545052e+01
  -5.628109e+00  -2.404532e+01
   4.063887e+01  -8.093383e+00
   9.591877e+01   1.026937e+02
   9.171113e+00   1.302794e+02
  -1.397974e+02   1.219742e+02
  -2.281097e+02   2.548066e+00
  -1.829514e+02  -1.549744e+02
  -4.088776e+01  -2.591332e+02
   1.316173e+02  -1.367782e+02
   1.636751e+02  -1.001246e+01
   4.137128e+01   8.074945e+01
  -1.579001e+01   2.691016e+01
   6.847030e+01  -9.032466e+00
   1.362374e+02   1.933789e+01
   7.848959e+01   4.977194e+01
  -5.649895e+01   9.353958e+01
  -1.574813e+02   8.222304e+01
  -9.540467e+01  -1.733536e+01
   1.573151e+01  -9.855650e+01
   1.034120e+02  -1.109952e+02
   1.730183e+02   2.062765e+01
   1.198258e+02   1.755279e+02
  -7.969614e+01   2.304476e+02
  -2.767841e+02   7.645124e+01
  -2.580229e+02  -9.865947e+01
  -8.837519e+01  -1.828956e+02
   1.989839e+01  -1.445699e+02
   1.243470e+02  -9.741917e+01
   1.015322e+02  -7.007699e+01
   1.029671e+02  -1.016107e+02
   1.067842e+02  -9.092422e+01
   1.110202e+02   2.301683e+01
   1.505830e+02   1.440633e+02
   3.602613e+01   2.226262e+02
  -1.073420e+02   1.502252e+02
  -1.962983e+02   1.008634e+02
  -1.700135e+02  -8.794955e+01
  -1.280409e+01  -1.866236e+02
   5.426935e+01  -9.668783e+01
   4.907578e+01   5.987129e-01
  -2.304679e+01   1.053175e+01
  -1.252316e+01   3.631523e+01
   4.759774e+01  -9.240888e+00
   9.405655e+01   2.676570e+01
   5.032143e+01   2.380409e+01
  -8.815778e+01   1.551959e+01
  -1.487164e+02  -2.708640e+01
  -1.640033e+02  -2.960521e+01
  -3.980584e+01  -7.862479e+01
   1.041354e+02  -1.114430e+02
   1.444281e+02  -1.880932e+01
   7.068105e+01   6.080449e+01
  -6.138897e+01   9.074592e+00
  -8.976035e+01  -5.280766e+01
  -1.376122e+01  -5.505087e+01
   6.913077e+01  -6.913883e+01
   6.175125e+01   1.570671e+01
   4.305368e+01   6.996910e+01
   8.302925e+01   4.140567e+01
   7.366371e+01   1.883185e+00
   1.033186e+02   6.328609e+01
   4.079215e+01   8.209714e+01
  -4.253636e+01   1.281021e+02
  -1.310029e+02   2.075686e+02
  -1.900882e+02   7.206661e+01
  -1.145728e+02  -6.466802e+01
  -2.049516e+01  -1.216238e+02
   6.725660e+01  -4.905884e+01
   8.247319e+01   3.123206e+01
  -1.067547e+02  -9.691034e+00
  -1.853013e+02  -4.821292e+01
  -7.314312e+01  -1.082336e+02
   1.289455e+02  -1.095423e+02
   1.846252e+02  -7.386762e+01
   1.168736e+02   2.408032e+01
   8.123285e+00   1.089510e+02
  -6.615556e+01   1.084067e+02
  -7.069314e+01  -4.643690e+01
   5.163166e+01  -3.281965e+01
   5.609445e+01   3.110350e+01
   4.202555e+01   1.120487e+02
  -2.955547e+01   1.323563e+02
  -1.514706e+02   8.100245e+01
  -1.208583e+02  -7.647535e+01
  -5.089372e+01  -1.786268e+02
   6.796681e+01  -1.480858e+02
   8.500064e+01   1.631326e+01
   9.652756e+01   9.478483e+01
   2.114578e+01   9.124267e+01
  -1.148603e+00   5.260683e+01
  -1.022317e+01  -7.208068e+00
  -1.638354e+01  -4.036103e+00
  -3.536985e+01   8.115227e+01
  -4.310105e+01   1.024507e+01
  -7.443943e+01  -9.832280e+01
  -4.867229e+01  -1.390804e+02
   6.399944e+01  -2.574781e+01
   2.119005e+02   7.369105e+01
   1.391638e+02   3.644100e+01
  -9.897375e+00   5.087997e+01
  -1.399954e+02   6.284908e+00
  -9.058715e+01  -2.936086e+01
   2.783276e+01  -2.394537e+01
   1.775326e+01  -1.223266e+01
   4.005594e+01   5.866112e+00
  -2.131418e+01   1.885727e+01
   1.651385e+01  -7.926298e+00
   1.423815e+02   1.099894e+01
   1.431614e+02  -2.581516e+01
   4.114525e+01   7.229869e+01
  -9.603892e+01   1.354247e+02
  -1.510225e+02   8.262017e+01
  -1.434734e+02  -1.540954e+01
  -5.517831e+01  -1.746808e+02
   2.699735e+01  -1.469839e+02
   8.727359e+01  -7.701934e+01
   7.370002e+01   6.622367e+00
   7.644321e+01   2.850846e+01
   2.381039e+01  -3.084057e-01
   2.341607e+00   1.465466e+01
   5.019525e+01   3.784393e+01
   1.858876e+01   9.122086e+01
  -2.328015e+01   7.615065e+01
  -1.371263e+02   2.937106e+01
  -9.572603e+01  -1.368062e+02
  -2.455633e+01  -1.380723e+02
   8.555007e+01  -5.080989e+01
   1.762738e+02   7.978930e+01
   2.334160e+01   5.675896e+01
  -9.658035e+01   7.007314e+01
  -6.820253e+01   2.541100e+01
  -3.682530e+01  -4.664069e+01
   3.347350e+01  -5.846090e+01
   2.392171e+01   1.254449e+01
  -7.739830e+01  -1.016517e+01
  -9.190011e+01  -3.004407e+00
   3.610010e+01  -1.718185e+01
   8.133372e+01  -8.166897e+01
   1.142127e+02  -8.454158e+01
   9.515638e+01   3.492016e+01
  -2.893205e+01   1.056669e+02
  -4.636861e+01   1.030269e+02
  -5.978883e+01   1.562353e+01
  -3.104881e+01  -5.672572e+01
   1.338360e+01  -3.624222e+01
   3.727909e+01   2.544430e-01
   4.094153e+01   6.255652e+01
  -4.341277e+01   9.377112e+01
  -2.894743e+01  -1.348885e+01
  -1.877479e+01  -4.163943e+01
  -8.376655e+01  -1.034206e+01
   3.035191e+01   2.370666e+01
   3.270679e+01   2.722722e+01
  -1.264255e+01  -4.010402e+00
  -2.163070e+01  -6.439314e+01
   4.547825e+01   1.235591e+01
   6.150376e+01   7.655906e+01
  -3.439721e+01   9.356439e+01
  -6.043911e+01   4.579806e+01
  -9.016754e+01  -2.628793e+01
  -4.254578e+01  -4.057608e+01
   4.556418e+01  -4.312004e+01
   1.014225e+02   3.862460e+01
   1.666013e+01  -8.573914e+00
  -7.583968e+01  -3.986060e+01
  -1.015457e+02  -4.500199e+00
   4.182292e+01   1.086959e+01
   5.513483e+01  -2.673857e+01
   5.558126e+01   1.201638e+01
  -5.735490e+01   6.479307e+01
  -6.888551e+01   3.076286e+01
