
 $NMID
 id='ANONYMOUS ', fmtdat='(2E16.6)'
 volume=1.0
 tramp=1.0
 $END
  -2.820887e+03   1.461238e+02
  -1.630530e+03  -1.659628e+03
   4.312416e+02  -1.780621e+03
   1.380427e+03  -5.843416e+02
   5.420969e+02   4.759547e+02
  -5.206418e+02   3.649159e+02
  -6.009539e+02  -2.850358e+02
   4.127239e+00  -7.266343e+02
   4.624465e+02  -3.940343e+02
   5.870049e+02   7.716203e+01
   3.500687e+02   3.980496e+02
  -1.055033e+02   4.794245e+02
  -3.614383e+02   5.154127e+01
  -2.522343e+02  -4.429347e+02
   1.332892e+02  -4.850707e+02
   3.379779e+02  -1.739844e+01
   1.482276e+02   4.195217e+02
  -1.850107e+02   3.121493e+02
  -3.248408e+02   1.194149e+02
  -2.213058e+02  -2.355213e+02
   3.312412e-02  -2.394892e+02
   1.716822e+02  -1.782755e+02
   1.580483e+02  -8.337957e+01
  -1.072197e+01   1.356722e+02
  -3.113327e+02  -1.532039e+01
  -1.397476e+02  -2.377462e+02
   3.116907e+02  -2.455403e+02
   5.394687e+02   2.655117e+01
   2.253279e+02   3.291778e+02
  -2.448605e+02   3.891314e+02
  -4.899138e+02   9.018225e+00
  -1.912072e+02  -3.453212e+02
   1.960955e+02  -3.008189e+02
   3.816356e+02  -1.002678e+02
   2.561467e+02   1.199289e+02
   7.007132e+00   3.209514e+02
  -1.689136e+02   1.490747e+02
  -1.179773e+02  -2.024147e+02
   7.014884e+01  -3.380693e+02
   2.836787e+02   6.305562e+00
   1.663448e+02   4.118779e+02
  -2.230019e+02   4.322501e+02
  -3.707782e+02  -3.335948e+01
  -1.822054e+02  -3.713554e+02
   1.867999e+02  -1.713335e+02
   2.530813e+02   1.649781e+02
  -2.045556e+01   3.265667e+02
  -3.423831e+02   9.123857e+01
  -3.402215e+02  -2.449146e+02
  -6.703743e+01  -3.793716e+02
   2.919218e+02  -2.087088e+02
   3.699389e+02   4.123829e+01
   1.988171e+02   2.174532e+02
  -9.391931e+01   2.212316e+02
  -2.616452e+02   2.265729e+01
  -1.574489e+02  -1.145315e+02
   7.954226e+01  -8.288272e+01
   5.375678e+01   9.807889e+01
  -1.154066e+02   6.621930e+01
  -1.777346e+02  -7.150067e+01
  -6.114490e+01  -2.396559e+02
   1.450690e+02  -1.178366e+02
   1.759643e+02  -4.931926e+01
   1.133426e+02   7.687862e+01
  -4.336838e+01   1.495626e+02
  -1.135839e+02   1.657246e+02
  -2.070304e+02   1.189135e+02
  -1.779423e+02  -9.582482e+01
  -8.987873e+01  -2.627158e+02
   7.238172e+01  -2.356154e+02
   9.066526e+01  -4.363836e+01
  -4.464287e+00   4.440714e+00
   2.451712e+01  -7.909948e+01
   1.038470e+02  -3.898102e+01
   1.583756e+02  -2.891300e+01
   7.661403e+01   1.445364e+02
  -5.611688e+01   1.548203e+02
  -1.735446e+02  -7.370013e+01
  -6.793763e+01  -1.483204e+02
   5.762050e+01  -1.839315e+02
   1.892795e+02  -1.109496e+02
   2.532262e+02   1.212526e+02
   1.184803e+02   1.847486e+02
  -9.847387e+01   2.111063e+02
  -1.229111e+02   8.566993e+01
  -1.040571e+02   1.119501e+01
  -4.894358e+01  -1.174970e+01
  -1.076461e+02   5.071717e+01
  -2.334995e+02  -1.667487e+01
  -1.842402e+02  -1.384793e+02
  -6.170981e+00  -2.487042e+02
   1.777556e+02  -2.598334e+02
   2.849505e+02  -1.299945e+02
   2.119269e+02   7.405758e+01
   3.342199e+01   2.119402e+02
  -8.887121e+01   1.449738e+02
  -3.284833e+01  -1.835540e+01
   4.383583e+01  -1.162811e+02
   9.642717e+01   1.524227e+01
   1.530465e+01   1.469574e+02
  -1.099032e+02   1.166216e+02
  -1.111807e+02  -6.939714e+01
  -1.183762e+01  -9.857326e+01
   1.112317e+02  -2.613800e+01
   1.267563e+02   1.414077e+02
  -2.468907e+01   1.978411e+02
  -1.132613e+02   7.827530e+01
  -1.615774e+02  -1.727469e+01
  -7.231480e+01  -1.155872e+02
  -3.769904e+01  -1.372824e+02
   3.210567e+01  -1.166352e+02
   1.146480e+02  -3.609871e+00
   1.586192e+01  -1.067936e+01
  -4.977025e+01  -2.168648e+01
  -1.383432e+01  -6.469478e+01
   1.009612e+02  -7.719286e+01
   1.307146e+02   1.419559e+01
   2.121537e+01  -4.069055e+00
  -3.883299e+01   5.929548e+00
   2.770644e+01  -3.461289e+01
   1.201453e+02  -2.763402e+01
   1.834974e+02  -2.526184e+01
   1.363745e+02   1.068406e+02
   1.251699e+01   1.322666e+02
  -1.114972e+02   1.604933e+02
  -1.748017e+02   5.776116e+01
  -8.905833e+01  -5.040610e+01
   2.133585e+01  -5.373940e+01
   6.835350e+01   8.842325e+00
   3.060151e+00   6.086627e+01
  -1.249316e+02   4.701909e+01
  -1.801886e+02  -2.315420e+01
  -2.895036e+01  -1.418061e+02
   1.096204e+02  -7.013090e+01
   9.101482e+01  -3.462746e+01
   6.085336e+01  -2.482961e+00
  -3.478279e+01   4.741203e+01
  -6.373319e+01  -2.608959e+01
   3.982468e+01  -6.173453e+01
   1.292289e+02  -1.955097e+01
   1.258962e+02   2.415432e+01
  -5.972977e+00   1.662643e+02
  -1.177152e+02   7.389181e+01
  -1.274059e+02   1.524331e+01
  -2.264830e+01  -4.284953e+01
   4.132454e+01  -7.736161e+01
   6.713828e+01  -1.341813e+01
   3.916739e+01  -1.154757e+01
  -3.119096e+01   5.180616e+01
   2.985650e+01   3.495693e+01
   5.106379e+01  -6.172153e+00
   5.817449e+01   2.083693e+01
   3.311399e+01   1.180651e+02
  -6.683077e+01   1.177539e+02
  -1.279672e+02   4.413512e+01
  -9.669418e+01  -8.631444e+01
  -2.077400e+01  -1.549633e+02
   4.976506e+01  -1.035820e+02
   3.661301e+01  -8.055315e+00
   7.512408e+01   1.465270e+00
   2.799821e+01  -7.828658e+00
   5.924488e+01   9.802914e+00
   2.426426e+01   1.513843e+00
   1.262475e+01   6.010405e+01
  -8.294938e+00   7.323078e+01
  -6.261221e+01  -3.385806e+00
  -7.328940e+01  -1.874729e+01
   2.632495e+01  -4.175250e+01
   4.302408e+01  -4.524761e+01
   1.295928e+02   2.022098e+01
   4.529264e+01   1.307727e+02
  -7.932502e+01   1.076912e+02
  -1.628863e+02   7.787291e+01
  -1.091673e+02  -1.031711e+02
  -6.599569e+01  -1.007816e+02
   3.517701e+01  -4.538596e+01
   7.175467e+01  -1.632722e+01
   3.579245e+01  -2.187253e+01
   4.554939e+01  -1.949761e+01
   6.145909e+00  -3.585678e+01
   4.829694e+01  -8.857024e+00
   1.098812e+02   7.383890e+01
   1.606455e+01   1.194218e+02
  -3.999063e+00   1.171981e+02
  -8.627049e+01  -1.143123e+01
  -8.983932e+01  -5.844609e+01
   5.781341e+00  -7.373387e+01
   7.105782e+01  -2.179358e+01
   3.271922e+01  -1.145941e+00
   3.957805e+00  -1.360924e+01
   3.274666e-01   3.661097e+01
   1.305970e+01   1.723683e+01
   7.679499e-01   3.552613e+01
  -2.274804e+01   3.351615e+00
  -3.703926e+01  -3.450202e+01
  -1.139971e+02  -1.356462e+01
  -8.465316e+01  -4.938287e+01
  -1.798692e+01  -6.739655e+01
   1.157755e+02  -1.816346e+01
   1.094134e+02  -3.682803e+01
   7.948212e+00  -2.080376e+00
  -6.403457e+01  -2.073793e+01
  -5.914170e+01  -2.886035e+00
  -1.617999e+01  -5.775877e+01
   4.684933e+01   3.401510e+00
   2.083514e+01  -6.069325e+01
  -1.285090e+01   2.126529e+00
   3.721711e+01   1.074315e+01
   2.358953e+01   6.097341e+00
   5.493724e+01   1.066623e+01
   2.499899e+01   3.343980e+01
   2.046580e+00   1.130609e+02
  -9.386126e+01   6.621385e+01
  -9.080098e+01  -3.612340e+01
  -6.442439e+01  -4.339855e+01
  -2.561146e+01  -7.574491e+01
  -2.930294e-01  -2.166007e+01
   1.311815e+01   3.204249e+01
  -6.552866e+01   7.728093e+00
  -1.078498e+02  -2.334013e+01
  -2.687826e+01  -7.814049e+01
   4.236170e+01  -6.746024e+01
   1.434886e+02  -5.768151e+01
   5.708512e+01   1.501422e+01
   7.680899e+00   1.061678e+02
  -5.643733e+01   4.591454e+01
   7.638154e+00  -4.548600e-02
   1.860074e+01  -6.626640e+01
   5.668337e+01   4.348704e+01
   1.005570e+01   6.172261e+01
  -5.805884e+01   4.329414e+01
  -9.258143e+01   1.983662e+01
  -6.097184e+01  -6.927866e+01
  -2.781705e+00  -1.202379e+02
   6.592580e+01  -8.914508e+01
   5.475411e+01   5.726755e+01
   2.268566e+01   7.624105e+01
  -1.820626e+00   8.587458e+01
  -2.081352e+01   9.904144e+00
  -3.481047e+01   2.175657e+01
  -3.354311e+01  -1.627840e+01
   2.419777e+00   3.186500e+01
  -1.909499e+01  -1.452478e+00
  -5.676208e+01  -6.332331e+01
  -2.132357e+01  -6.835029e+01
   2.540434e+01  -2.987160e+01
   8.286062e+01   1.728195e+01
   6.301626e+01   5.687592e+01
   3.387442e+01   6.090911e+01
  -7.403521e+01  -1.548316e+01
  -9.217375e+01   3.302821e+00
  -1.200754e+01  -2.461408e+01
   3.243885e+01   7.508026e+00
   3.095513e+01  -2.718727e+01
  -6.011090e+00  -1.985044e+01
   5.616220e+01  -2.035869e+01
   8.692023e+01   2.483342e+01
   5.526312e+01   3.541514e+01
  -4.835765e+00   9.305305e+01
  -5.824709e+01   7.883979e+01
  -1.053959e+02   2.989885e+01
  -1.062365e+02  -2.962909e+01
  -3.407946e+01  -8.080986e+01
   3.210668e+01  -4.175837e+01
   4.502280e+01  -6.830545e+01
   6.249190e+01   4.915842e-01
   2.518980e+01   2.934263e+01
  -3.958542e+01   1.100424e+01
  -1.176392e+01  -4.947931e+00
   3.121895e+01   2.279504e+01
   3.802902e+01   5.877890e+00
  -4.883667e+01   4.262034e+01
  -5.105836e+01  -4.792250e+00
  -4.199415e+01  -3.545634e+01
  -1.184714e+01  -2.760698e+01
   3.452821e+01  -1.958753e+01
   4.868318e+01   2.429960e+01
   1.208475e+01   4.270693e+01
  -2.156982e+01   7.053199e+01
  -4.708277e+01  -8.177817e+00
  -2.287333e+01  -2.219951e+01
   8.135747e+00  -6.753456e+01
  -7.584176e+00  -7.697986e+00
  -1.855593e+01   8.770438e+00
  -1.636725e+01   3.700009e+01
  -7.222544e+00  -8.354756e+00
   2.833619e+01  -1.934573e+01
   4.728963e+01  -3.366621e+01
   8.878261e+00   3.649740e+01
  -1.369812e+01   4.726504e+01
   3.002010e+00   7.069766e+01
  -1.207437e-01   1.633663e+01
   3.852808e+01  -4.233575e+01
   2.352252e+01  -7.100294e+00
   1.144139e+01   2.968297e+01
  -8.052983e+00   7.095638e+01
  -1.154878e+01   4.754671e+01
  -3.273419e+01  -4.305382e+00
  -1.757712e+01  -5.222455e+01
  -3.101155e+01   7.561368e+00
  -1.042649e+01   2.139284e+01
   7.239694e+00  -3.409129e+01
   1.371170e+01  -4.047862e+01
   2.902268e+01  -9.603212e+00
   4.709024e+01   1.813100e+01
  -1.905452e+01   3.819711e+01
  -7.474873e+00   2.129735e+01
   6.874127e+00   1.459997e+01
  -2.469762e+01   3.690300e+01
  -1.048649e+01  -6.921241e+00
   4.098104e+01  -3.777097e+01
   8.369351e+01   8.650622e+00
   3.314838e+01   2.160148e+01
  -2.754563e+01  -1.044876e+01
  -5.072772e+01   2.599586e+00
  -3.188174e+01  -2.120084e+01
  -1.798697e+01  -2.551583e+01
   3.431331e+01   2.819770e+01
  -9.357992e+00   3.587907e+01
  -6.758423e+01  -1.445025e+01
