
 $NMID
 id='ANONYMOUS ', fmtdat='(2E16.6)'
 volume=1.0
 tramp=1.0
 $END
  -2.380669e+03  -1.292268e+00
  -1.489904e+03  -1.403200e+03
   3.901472e+02  -1.521512e+03
   1.253742e+03  -4.800091e+02
   5.448741e+02   5.002727e+02
  -3.853491e+02   3.390985e+02
  -4.557118e+02  -3.102531e+02
   3.613583e+01  -5.659686e+02
   4.632580e+02  -4.122562e+02
   5.296505e+02   1.844893e+01
   3.086098e+02   4.346095e+02
  -1.387505e+02   5.059142e+02
  -2.861440e+02   1.223925e+02
  -1.908109e+02  -4.173228e+02
   1.163809e+02  -3.909053e+02
   2.672004e+02   3.364536e+01
   1.446620e+02   3.443113e+02
  -1.577265e+02   3.020556e+02
  -3.634905e+02   9.420918e+01
  -2.259390e+02  -1.961153e+02
  -1.104696e+02  -2.981858e+02
   7.313603e+01  -1.907793e+02
   1.152965e+02  -1.685712e+01
  -5.698209e+01   5.478607e+01
  -2.726397e+02  -1.281127e+01
  -1.120658e+02  -2.435588e+02
   2.429592e+02  -2.678695e+02
   4.530973e+02   3.861703e+01
   1.906286e+02   2.694264e+02
  -1.885664e+02   2.209799e+02
  -4.200807e+02  -2.899612e+01
  -1.912186e+02  -2.814419e+02
   1.291106e+02  -2.820504e+02
   3.141795e+02  -1.272062e+02
   2.508461e+02   1.255130e+02
   3.990484e+01   2.709954e+02
  -9.120313e+01   1.836747e+02
  -1.072503e+02  -5.486127e+01
   2.768288e+01  -2.332566e+02
   1.873846e+02  -3.913844e+00
   1.566687e+02   3.684044e+02
  -1.731475e+02   3.796416e+02
  -3.401791e+02  -5.036237e+00
  -1.550007e+02  -3.057550e+02
   1.884509e+02  -1.703359e+02
   1.919964e+02   1.883318e+02
  -3.049269e+01   3.174513e+02
  -2.797547e+02   8.315526e+01
  -3.007297e+02  -1.914101e+02
  -8.683474e+01  -2.950194e+02
   1.809321e+02  -2.020980e+02
   2.998224e+02   3.528346e+01
   1.961697e+02   2.130524e+02
  -9.261544e+01   2.197345e+02
  -2.143073e+02   2.880899e+01
  -1.008090e+02  -1.122836e+02
   5.481361e+01  -4.709772e+01
   9.620201e+01   9.988241e+01
  -8.256615e+01   1.183243e+02
  -1.871144e+02   2.402802e+00
  -7.666175e+01  -1.407739e+02
   8.120203e+01  -1.274136e+02
   1.550305e+02  -2.394441e+01
   1.056696e+02   3.118870e+01
  -1.084220e+01   1.084561e+02
  -1.277387e+02   1.718998e+02
  -1.569514e+02   1.252347e+02
  -2.018731e+02  -7.018757e+01
  -6.557623e+01  -2.305082e+02
   9.812769e+01  -2.128428e+02
   9.922704e+01  -4.747452e+01
   2.172351e+01   1.355709e+00
   3.880699e+01  -6.646466e+01
   1.281057e+02  -9.524669e+01
   1.821993e+02   5.296915e+00
   1.381232e+02   1.657701e+02
  -5.350907e+01   1.703759e+02
  -1.019809e+02   4.601683e+00
  -1.177046e+02  -1.536542e+02
   5.894257e+00  -1.661083e+02
   1.359511e+02  -9.085900e+01
   2.513812e+02   9.578917e+01
   1.201053e+02   1.949052e+02
  -3.574011e+01   1.770789e+02
  -1.485903e+02   6.105881e+01
  -1.169272e+02  -1.434317e+01
  -6.584466e+01   1.253247e+01
  -1.196415e+02   5.153047e+01
  -2.238528e+02  -2.979567e+01
  -1.776602e+02  -1.200900e+02
   2.623566e+00  -2.518220e+02
   1.943162e+02  -2.494025e+02
   2.468157e+02  -1.135244e+02
   1.608758e+02   1.708378e+01
   3.324348e+01   1.263681e+02
  -8.921652e+01   1.564243e+02
  -5.373925e+01   1.057784e+01
   4.064432e+01  -5.826212e+01
   9.682525e+01  -1.663845e+01
   6.120805e+01   7.952802e+01
  -1.133199e+02   1.478013e+02
  -1.339492e+02  -1.395268e+01
  -1.476883e+01  -1.025679e+02
   8.578056e+01   1.592356e+01
   8.310550e+01   1.536603e+02
   4.689839e-01   1.904948e+02
  -1.457899e+02   1.387915e+02
  -1.795276e+02  -1.837462e+01
  -1.373103e+02  -1.135328e+02
  -6.892229e+01  -1.550367e+02
   6.322001e+01  -8.527992e+01
   1.125616e+02   3.564968e+00
   4.824836e+01  -5.538726e+00
  -6.815973e+00  -2.184771e+01
  -1.353580e+01  -3.275284e+01
   5.547526e+01  -4.934876e+01
   4.364346e+01   7.856593e+00
   3.093339e+01   1.382373e+01
  -2.361739e+01   4.149864e+00
   8.626583e+00  -3.834937e+01
   5.648732e+01  -6.198571e+01
   1.563958e+02  -8.843707e+00
   1.547235e+02   8.109384e+01
   3.812734e+01   1.263809e+02
  -1.198696e+02   1.658328e+02
  -1.417064e+02   5.112375e+01
  -6.126660e+01  -3.654880e+01
   3.788300e+01  -6.511374e+01
   4.545144e+01   2.328201e+01
   1.088943e+01   4.112690e+01
  -1.393418e+02   2.531462e+01
  -9.899747e+01  -6.947388e+01
  -1.296587e+01  -1.136975e+02
   4.967893e+01  -8.476003e+01
   6.095312e+01   9.059707e+00
   1.966085e+01   1.601060e+01
   3.733246e+00  -1.546359e+01
  -3.375583e+01  -8.785812e+01
   3.047389e+01  -5.796110e+01
   8.436813e+01   6.785014e+00
   8.465866e+01   5.750550e+01
  -1.029098e+01   1.034988e+02
  -5.871725e+01   1.007562e+02
  -1.155137e+02   3.881052e+01
  -2.559047e+01  -7.827034e+01
   9.327018e+01  -7.132845e+01
   6.077845e+01  -1.294612e+01
   4.098472e+01   4.935681e+01
  -1.117706e+01   3.673842e+01
  -5.218784e+01  -1.160281e+01
   2.188821e+01  -3.651298e+01
   4.413282e+01  -7.446809e+00
   5.826102e+00   6.999168e+01
  -5.010937e+01   8.855167e+01
  -1.056643e+02   3.171405e+01
  -1.224049e+02  -5.069900e+01
  -3.299928e+01  -1.375304e+02
   5.273562e+01  -9.835958e+01
   4.688766e+01   5.604048e-01
   3.766407e+01   5.777211e+01
   6.485738e+00  -6.094072e+00
  -7.041327e+00   3.500369e+00
   4.992115e+01   4.748857e+00
  -6.592887e+00   3.106728e+01
  -1.868054e+01   3.010403e+01
  -6.610314e+01   2.643775e+01
  -6.031464e+01  -1.686192e+01
  -2.821127e+01  -6.396213e+01
   8.926712e+01  -4.172349e+01
   1.155438e+02   3.021212e+01
   5.585101e+01   5.882135e+01
  -5.084282e+01   1.156726e+02
  -1.335807e+02   2.997526e+01
  -1.571285e+02  -4.111735e+01
  -9.299136e+01  -8.033325e+01
   3.792858e+01  -9.439043e+01
   5.876492e+01  -3.079219e+01
   3.576603e+01  -3.555735e+01
   3.244638e+01  -3.615980e+01
   7.011937e+01  -2.478922e+00
   6.624446e+01   3.274033e+01
   5.621034e+01   8.081328e+01
  -8.407835e+00   1.417243e+02
  -7.179010e+01   8.906532e+01
  -8.139653e+01  -2.397810e+00
  -6.546283e+01  -3.783915e+01
   8.384178e+00  -1.007852e+02
   1.872607e+01  -2.510966e+01
   8.057720e+00  -4.664855e+00
   2.470854e+01   8.388566e+00
  -1.194883e+01   1.849866e+01
   2.452749e+01  -1.185413e+01
   5.868980e+01  -5.297950e+00
   3.401881e+01   6.933783e+00
  -2.972774e+01   2.459923e+01
  -4.997186e+01   1.179314e+01
  -6.588921e+01  -1.880628e+01
   1.513548e+01  -6.585850e+01
   7.127712e+01  -2.816564e+01
   7.904739e+01  -6.387870e+00
   8.011623e+01   2.940950e+01
  -4.311613e+01   7.782024e+01
  -3.538705e+01  -6.028847e+00
  -1.296564e+01  -3.540508e+01
   1.612597e+01  -1.688623e+01
   5.743496e+01  -7.409344e+00
   2.431715e+01  -2.124889e+00
   3.897764e+01   3.265318e+01
   3.164439e+01   2.073633e+01
   3.708370e+01  -1.147539e+01
  -4.550268e-01   3.348781e+01
  -1.356866e+01   6.287649e+01
  -9.993209e+01   6.964064e+01
  -5.422549e+01  -2.270456e+01
  -3.290787e+01  -2.493044e+01
  -2.598984e+01  -5.679355e+01
   3.716332e+01  -2.221235e+01
   4.525425e+01  -1.302144e+01
  -5.067667e+01   2.896354e+01
  -6.896094e+01  -5.177134e+01
  -2.229752e+01  -7.860811e+01
   6.553759e+01  -7.608669e+01
   1.107595e+02  -3.743695e+01
   8.103491e+01  -1.776077e+01
   2.113209e+01   4.735992e+01
  -4.273528e+01   4.307431e+01
  -2.541741e+01   1.466101e+00
   2.103776e+01  -1.285266e+01
   4.710817e+01   1.652601e+01
   4.700600e+00   7.581503e+01
  -6.794644e+01   1.027836e+02
  -9.053165e+01  -1.501878e+00
  -5.761609e+01  -8.140759e+01
  -2.805524e+00  -9.400620e+01
   3.539516e+01  -9.913640e+01
   5.746172e+01   1.182174e+01
   1.032092e+01   7.394113e+01
  -1.409123e+01   3.959467e+01
   2.761237e+00   7.148923e+00
  -2.122849e+01  -3.576023e+01
   1.979883e+01  -4.286515e+01
   2.561376e+01   4.480881e+01
  -1.305894e+01  -9.948236e-01
  -1.438625e+01  -5.725804e+01
  -2.129018e+01  -7.341145e+01
   4.315608e+01  -5.101476e+01
   4.493144e+01   1.177044e+01
   9.688129e+01   7.642892e+01
   6.920662e+00   5.094934e+01
  -7.450916e+01   3.853569e+01
  -1.002539e+02  -1.958232e+01
  -1.774437e-01  -3.152268e+01
   1.211071e+01  -3.564672e+01
  -1.482154e+01  -2.727558e+01
   4.564684e+01  -4.952795e+00
   3.856391e+01  -3.234061e+01
   3.924794e+01  -3.082188e+01
   5.300521e+01  -9.394422e+00
   2.028390e+01   5.190589e+01
  -7.863175e+01   6.337939e+01
  -8.753445e+01   3.746352e+01
  -6.891513e+01  -4.164675e-01
  -2.853476e+01  -1.212337e+02
   5.832378e+01  -1.051795e+02
   6.282896e+01  -5.197265e+01
   1.875225e+01   4.159914e+01
   2.360801e+01   1.092128e+01
   2.351205e+00   1.406910e+01
  -7.460575e+00   3.712329e+01
   3.631703e+01   1.758301e+01
   2.256405e+00   5.925254e+01
  -4.051141e+01   3.344016e+01
  -5.155886e+01  -1.696574e+01
  -7.901126e+01  -5.112323e+01
   1.348037e-01  -3.480989e+01
   6.582910e+01  -6.426804e+00
   3.281515e+01   2.239087e+01
   1.050450e+01   5.470893e+01
  -6.144966e+01  -5.550362e+00
  -5.667602e+01  -1.355825e+01
  -3.037607e+01  -1.231300e+01
   3.042693e+01  -2.306909e+01
   4.326865e+00  -1.098716e+01
  -1.083657e+01   2.277482e+01
  -3.283780e+01   1.505295e+01
   1.423600e+00  -2.513756e+01
   3.986845e+01  -2.635626e+01
   4.723709e+01  -1.345879e+01
   1.651915e+01   1.380107e+01
  -1.244664e+01   7.016995e+01
  -3.031147e+01   3.883333e+01
  -3.991532e+01  -2.123335e+01
   2.561173e+01  -6.482403e+01
   3.069115e+01  -2.694597e+01
   4.556451e+01  -2.054401e-02
   8.484001e+00   1.327705e+01
  -1.438341e+01   6.296714e+01
  -5.337929e+00  -3.719258e+00
  -5.393838e+01  -1.550603e+01
   1.723448e+01  -2.618250e+01
   2.545289e-01  -1.451726e+01
  -3.705818e-01  -2.544644e+01
   1.549920e+00  -3.103443e+01
   2.795721e+01  -2.459819e+01
  -1.116082e+01   6.145451e+00
   3.091473e+01   1.852031e+01
  -1.382569e+01   2.987074e+01
  -4.228326e+01   2.719058e+01
  -5.699733e+01  -1.853393e+01
  -1.210222e+01  -6.378854e+01
   3.653324e+01  -6.430319e+00
   6.819727e+01   3.150703e+01
   2.720358e+01   2.378451e+01
  -1.773205e+01   2.691677e+01
  -1.330709e+01   4.015686e+00
  -8.786107e-01  -2.396577e+01
   4.655311e+01   9.231749e+00
   6.718117e+00   3.815402e+01
   8.457784e+00  -2.657708e+01
  -6.073222e+01   2.527873e+01
