
 $NMID
 id='ANONYMOUS ', fmtdat='(2E16.6)'
 volume=1.0
 tramp=1.0
 $END
  -4.587857e+03   4.027393e+01
  -2.617040e+03  -2.874562e+03
   8.569500e+02  -2.866311e+03
   2.202301e+03  -8.418119e+02
   9.962077e+02   7.968072e+02
  -7.941138e+02   7.106636e+02
  -9.945822e+02  -4.876285e+02
   4.236289e+01  -1.154887e+03
   9.248547e+02  -7.613930e+02
   9.875767e+02   7.393781e+01
   5.647639e+02   9.528025e+02
  -3.075267e+02   9.607314e+02
  -6.333531e+02   1.211068e+02
  -4.598803e+02  -7.721920e+02
   2.696176e+02  -8.192067e+02
   6.042974e+02   6.987436e+01
   3.428447e+02   6.626134e+02
  -3.387420e+02   6.636551e+02
  -5.825749e+02   4.928626e+01
  -4.119491e+02  -4.423915e+02
  -2.127562e+01  -4.157539e+02
   2.898033e+02  -2.722880e+02
   2.450128e+02   6.476764e+00
  -1.221407e+02   1.674418e+02
  -4.591199e+02  -1.552873e+02
  -2.578936e+02  -4.470323e+02
   4.792051e+02  -4.546015e+02
   9.420187e+02   6.309891e+01
   4.902384e+02   6.065938e+02
  -3.917939e+02   5.148679e+02
  -8.105433e+02  -3.603431e+01
  -4.079081e+02  -4.520687e+02
   2.595838e+02  -6.153806e+02
   5.691456e+02  -2.069885e+02
   4.179896e+02   2.470892e+02
   9.935825e+01   4.316608e+02
  -1.502941e+02   2.703272e+02
  -1.997640e+02  -2.375104e+02
   1.145814e+02  -4.760049e+02
   4.369132e+02  -3.888992e+01
   2.824997e+02   7.008773e+02
  -3.188115e+02   7.292284e+02
  -6.468427e+02   3.449761e+00
  -2.829865e+02  -6.426380e+02
   2.925100e+02  -3.590748e+02
   4.413339e+02   3.400461e+02
  -3.300032e+01   5.788795e+02
  -5.462836e+02   1.939021e+02
  -6.478434e+02  -4.061807e+02
  -1.603022e+02  -6.409799e+02
   4.199207e+02  -3.791589e+02
   6.462542e+02   6.406797e+01
   3.383312e+02   3.837280e+02
  -1.650204e+02   3.273675e+02
  -4.782701e+02   2.417948e+01
  -2.547879e+02  -2.812884e+02
   1.297645e+02  -1.572759e+02
   1.557198e+02   1.976908e+02
  -1.732869e+02   2.342403e+02
  -3.660784e+02  -9.016310e+01
  -1.183333e+02  -3.436878e+02
   2.243091e+02  -2.599017e+02
   2.962168e+02  -8.938232e+01
   1.666732e+02   9.473070e+01
  -6.235930e+01   2.265068e+02
  -2.537465e+02   3.362160e+02
  -3.618249e+02   2.526448e+02
  -3.004134e+02  -1.669658e+02
  -6.360230e+01  -4.923029e+02
   1.645833e+02  -3.532994e+02
   1.058622e+02  -6.584357e+01
  -7.640705e+00   8.318565e+01
  -5.637866e+01  -8.588917e+01
   1.482598e+02  -1.713357e+02
   2.672697e+02  -5.748338e+00
   2.042602e+02   2.627613e+02
  -7.626711e+01   3.090857e+02
  -2.728130e+02   4.233818e+01
  -1.975529e+02  -2.599950e+02
  -3.668605e+01  -3.218028e+02
   2.616016e+02  -1.231900e+02
   3.178484e+02   1.526731e+02
   2.096440e+02   3.505367e+02
  -7.869759e+01   3.376811e+02
  -2.356918e+02   1.582060e+02
  -1.537037e+02  -2.683237e+01
  -1.105281e+02   9.091421e+00
  -2.235706e+02   8.200616e+01
  -3.816082e+02  -2.173728e+01
  -2.975866e+02  -2.872078e+02
   8.109075e+00  -4.243249e+02
   3.560347e+02  -4.466702e+02
   4.685323e+02  -1.678126e+02
   3.066717e+02   1.282132e+02
   5.357356e+01   3.264659e+02
  -1.386288e+02   2.710021e+02
  -9.783827e+01   8.125244e+01
   1.265179e+02  -1.060930e+02
   2.018146e+02   3.245369e+01
   8.540666e+01   2.345009e+02
  -1.586745e+02   2.111127e+02
  -2.484900e+02  -3.286910e+01
   1.551729e+00  -1.914299e+02
   1.585293e+02  -6.114508e+01
   1.779890e+02   2.149941e+02
  -3.627389e+01   3.670209e+02
  -2.107604e+02   1.602780e+02
  -3.057218e+02  -3.319377e+01
  -2.471796e+02  -2.493776e+02
  -1.057807e+02  -2.607966e+02
   1.582114e+02  -1.425179e+02
   1.770374e+02   8.875759e+00
   3.479284e+01   7.405963e+01
  -7.617868e+01  -3.486339e+01
  -1.583820e+01  -1.771117e+02
   1.501088e+02  -1.469746e+02
   2.240985e+02  -2.621425e+00
   1.099819e+02   1.428484e+02
  -9.408178e+01   8.524235e+01
  -5.569165e+01  -6.579197e+01
   1.156787e+02  -7.532983e+01
   2.921508e+02   6.638660e+00
   2.262609e+02   1.450914e+02
   5.146595e+01   2.672950e+02
  -1.642495e+02   2.715135e+02
  -3.301941e+02   1.203216e+02
  -1.855714e+02  -8.563312e+01
   1.419382e+01  -1.526520e+02
   1.143647e+02  -3.722233e+01
   2.627995e+01   1.130950e+02
  -1.384442e+02   2.629649e+01
  -1.709639e+02  -1.392940e+02
  -1.060805e+02  -1.893325e+02
   8.769170e+01  -1.590593e+02
   1.570139e+02  -1.542787e+01
   9.321775e+01   8.463674e+01
  -5.109984e+01   2.146230e+01
  -7.502435e+01  -7.506323e+01
   4.042001e+01  -1.740511e+02
   1.747725e+02  -8.023368e+01
   1.923011e+02   6.655190e+01
   3.823564e+01   2.251030e+02
  -1.500439e+02   1.803080e+02
  -2.164451e+02   1.540102e+01
  -8.909534e+01  -1.051032e+02
   6.956775e+01  -1.055864e+02
   8.418589e+01  -9.626840e+00
  -2.881884e+01  -1.529579e+00
  -1.574298e+01   5.625160e+01
  -9.354151e+00   1.760607e+01
   4.630794e+01   1.032767e+01
   7.480943e+01   6.396797e+01
   1.257446e+00   1.424851e+02
  -1.203617e+02   1.197006e+02
  -2.266356e+02   2.504812e+01
  -1.643987e+02  -1.369066e+02
  -7.867891e+01  -2.484278e+02
   9.097683e+01  -1.584931e+02
   9.317256e+01  -1.932108e+01
   9.024794e+01   6.580975e+01
   4.523894e+01   1.995695e+01
   8.715086e+01  -4.384992e+01
   5.212632e+01  -3.598539e+01
   4.484312e+01   4.335310e+01
  -2.244814e+01   3.214128e+01
  -8.463279e+01   4.630908e+01
  -8.313834e+01  -3.929641e+01
  -2.298353e+01  -9.639316e+01
   9.939686e+01  -8.016563e+01
   2.000097e+02   5.234650e+01
   1.415527e+02   2.147811e+02
  -1.140546e+02   2.242381e+02
  -2.648412e+02   6.921576e+01
  -2.514594e+02  -7.528482e+01
  -1.024138e+02  -1.459565e+02
   4.811224e+01  -1.361714e+02
   1.258276e+02  -5.298033e+01
   6.609784e+01  -5.008109e+01
   3.690208e+01  -7.544126e+01
   5.750524e+01  -7.382101e+01
   1.109245e+02   2.754815e+01
   1.384309e+02   1.486925e+02
   6.409251e+01   2.028288e+02
  -9.131487e+01   1.873128e+02
  -1.706034e+02   1.876174e+01
  -1.034567e+02  -1.446889e+02
  -1.055814e+01  -1.318126e+02
   3.216638e+01  -6.307406e+01
   4.927490e+01   2.482356e+01
   3.944068e+00   2.170564e+01
   1.796496e+01   3.076977e+01
   5.217875e+01   8.641745e+00
   9.012749e+01  -1.270915e+01
   2.848775e+01   1.092627e+01
  -9.257861e+01   3.582982e+01
  -1.380874e+02  -3.552347e+01
  -1.386744e+02  -1.066700e+02
  -1.641849e+01  -5.166331e+01
   1.303209e+02  -6.646125e+01
   1.399749e+02  -2.103214e+01
   5.566272e+01   5.666385e+01
  -6.302300e+01   3.418322e+01
  -9.116643e+01  -1.992111e+01
   2.076541e+01  -6.284430e+01
   7.590281e+01  -5.712185e+01
   7.610215e+01   2.673901e+01
   5.395501e+01   2.103519e+01
   3.588622e+01   5.764606e+01
   5.020564e+01   5.039822e+01
   3.784152e+01   2.052421e+01
   1.584957e+01   2.311132e+01
  -3.239669e+01   1.177852e+02
  -9.964507e+01   1.384945e+02
  -1.340205e+02  -3.453480e+01
  -1.346908e+02  -9.419555e+01
  -6.027006e+00  -1.075115e+02
   5.300574e+01  -8.049062e+01
   4.827772e+01  -2.491635e+01
  -6.497867e+01   2.631560e+01
  -1.231410e+02  -3.393200e+01
  -8.721235e+01  -1.270016e+02
   7.672125e+01  -1.215080e+02
   1.795744e+02  -2.323795e+01
   1.411318e+02   4.224417e+01
   4.487924e+01   5.556898e+01
  -4.382852e+01   6.846702e+01
  -3.514266e+01  -1.914222e+01
   8.598920e+01  -2.857749e+01
   1.025494e+02   6.671816e+01
   3.213187e+01   1.438163e+02
  -7.741296e+01   1.713678e+02
  -1.537078e+02   8.503296e+01
  -9.700518e+01  -9.718893e+01
  -3.129943e+01  -1.860047e+02
   1.112457e+02  -1.351385e+02
   1.018062e+02  -1.143166e+01
   2.250420e+01   1.080658e+02
  -7.567692e+01   1.066130e+02
  -5.546195e+01   5.948291e-01
  -5.597612e+01  -5.787548e+01
  -4.961870e+01  -3.689204e+01
   2.546818e+01   1.516786e+01
   9.682182e+00  -6.309368e+01
  -5.459180e+01  -1.219732e+02
  -1.784355e+01  -1.010350e+02
   3.899748e+01  -2.992060e+01
   1.315698e+02   2.771855e+01
   9.689243e+01   1.176629e+02
   4.109868e+01   4.135682e+01
  -5.601295e+01  -2.101864e+01
  -6.215170e+01  -1.929166e+01
  -1.066722e+01  -1.397443e+01
   4.517628e+01  -3.393626e+01
   4.589650e+01  -3.096516e+01
  -4.373216e+01  -3.128029e+01
   1.176528e+01  -1.222182e+01
   6.045605e+01   2.233224e+01
   7.160123e+01   3.151807e+01
   1.698028e+01   7.247755e+01
  -1.281172e+02   8.006661e+01
  -1.697372e+02   6.410763e+01
  -1.449023e+02  -2.513548e+01
  -4.078206e+01  -1.843500e+02
   7.561322e+01  -1.575611e+02
   1.344935e+02  -5.827180e+01
   8.960563e+01   3.009172e+01
   3.257390e+01   5.259801e+01
  -1.711526e+01   4.420743e+01
   1.049864e+01   2.477031e+01
   7.384425e+01   7.471292e+01
   3.008168e+01   8.678043e+01
   2.174881e+00   6.083094e+01
  -1.070171e+02  -7.883384e+00
  -7.150585e+01  -1.389244e+02
  -3.114606e+01  -8.522119e+01
   8.424969e+01  -3.510586e+01
   8.357852e+01   1.133088e+02
   9.469869e+00   1.179043e+02
  -7.633899e+01   3.734260e+01
  -1.326181e+02  -3.912775e+01
  -3.235186e+01  -8.704632e+01
   3.005252e+01  -5.258988e+01
   6.336050e+01  -2.582396e+01
  -5.837667e+01   1.839438e+01
  -6.811933e+01  -3.060731e+01
   1.261381e+01  -6.980500e+01
   1.030558e+02  -8.771412e+01
   1.320203e+02  -9.877417e+01
   1.106851e+02   1.305284e+01
  -6.533266e-01   9.913672e+01
  -3.704867e+01   8.920721e+01
  -6.116670e+01   2.484751e+01
   1.327217e+01  -6.034533e+01
   3.715863e+01   3.818642e+00
   1.359036e+01  -2.865719e+01
   2.703984e+01   5.953942e+01
  -2.468339e+01   5.143291e+00
  -3.218015e+01  -4.036652e+00
  -7.653505e+01   1.020328e-01
  -3.133464e+01  -2.383525e+01
   2.258897e+01   2.624190e+01
  -1.128810e+01  -7.008525e+00
   2.241995e+01  -4.422604e+01
  -8.240100e+00   9.362942e+00
   3.416604e+01  -9.478453e+00
   1.501615e+01   6.173624e+01
   4.490609e+00   3.212065e+01
  -3.993899e+01   6.365087e+01
  -7.535167e+01  -2.343248e+01
  -3.271201e+01  -8.900843e+01
   4.047302e+01  -7.592197e+01
   7.750395e+01   2.197902e+01
   3.084655e+01   4.180032e+01
   1.838042e+01   1.816994e+01
  -1.011641e+02   5.608866e+01
  -4.369365e+01   1.205982e+01
   1.054024e+01  -6.468046e+00
   4.160165e+01   4.640468e+00
  -2.945725e+01   5.898389e+01
  -8.311479e+01   2.654131e+01
