
 $NMID
 id='ANONYMOUS ', fmtdat='(2E16.6)'
 volume=1.0
 tramp=1.0
 $END
  -4.283351e+03   1.141303e+02
  -2.465049e+03  -2.663049e+03
   7.459526e+02  -2.610105e+03
   2.043725e+03  -7.926209e+02
   8.891337e+02   6.916287e+02
  -7.061157e+02   5.653059e+02
  -7.808167e+02  -4.845720e+02
   3.141056e+01  -1.091793e+03
   8.555279e+02  -8.024953e+02
   9.142311e+02   1.325467e+02
   4.938640e+02   8.720260e+02
  -1.819022e+02   8.357767e+02
  -6.216888e+02   1.307932e+01
  -3.477549e+02  -6.598339e+02
   2.506468e+02  -7.083587e+02
   5.364203e+02   3.099227e+01
   2.410177e+02   6.854483e+02
  -2.905629e+02   5.765970e+02
  -5.268649e+02   7.575422e+01
  -3.103109e+02  -3.412279e+02
  -6.124779e+01  -3.804216e+02
   2.579889e+02  -2.399209e+02
   2.775720e+02   2.389763e+01
  -7.499825e+01   1.280174e+02
  -4.330317e+02  -1.378331e+02
  -2.190268e+02  -4.619754e+02
   4.434058e+02  -3.861350e+02
   7.762913e+02   8.565348e+01
   4.254316e+02   5.207813e+02
  -3.958291e+02   3.999054e+02
  -7.350507e+02  -1.377081e+01
  -3.675874e+02  -5.017583e+02
   2.840082e+02  -5.291029e+02
   5.880468e+02  -2.407308e+02
   3.921050e+02   2.320442e+02
   4.977116e+01   4.337765e+02
  -2.101125e+02   2.601412e+02
  -1.435760e+02  -1.946573e+02
   1.353415e+02  -4.355296e+02
   4.293955e+02   2.811584e+01
   2.484556e+02   6.604141e+02
  -3.034524e+02   6.990003e+02
  -6.159315e+02  -1.902208e+01
  -2.561397e+02  -5.882944e+02
   2.959362e+02  -4.046714e+02
   3.753295e+02   3.011697e+02
  -4.085545e+01   6.124712e+02
  -5.324164e+02   1.388592e+02
  -6.117469e+02  -3.789442e+02
  -1.380984e+02  -6.209681e+02
   3.694828e+02  -3.491041e+02
   6.230060e+02   3.077006e+01
   3.703238e+02   3.409975e+02
  -1.332710e+02   3.354990e+02
  -4.480963e+02   3.902725e+01
  -2.130434e+02  -1.770249e+02
   1.783856e+02  -7.185698e+01
   1.347675e+02   1.982329e+02
  -2.096688e+02   1.713360e+02
  -3.785702e+02  -5.091699e+01
  -1.510029e+02  -2.848510e+02
   1.970199e+02  -2.386057e+02
   3.220649e+02  -7.738189e+01
   1.743134e+02   7.741646e+01
  -2.329051e+01   2.156969e+02
  -1.782808e+02   2.966305e+02
  -3.325956e+02   2.098111e+02
  -3.126353e+02  -1.593095e+02
  -8.660795e+01  -4.876941e+02
   1.588235e+02  -4.032914e+02
   1.520216e+02  -6.174321e+01
   3.306395e+01   5.030609e+01
   4.012659e+00  -1.133955e+02
   1.763077e+02  -1.726132e+02
   2.926178e+02   2.112455e+01
   1.846615e+02   2.784772e+02
  -2.808170e+01   2.761517e+02
  -2.254651e+02   6.673653e+01
  -1.949285e+02  -2.367031e+02
   1.889049e+01  -3.255736e+02
   2.710555e+02  -9.175706e+01
   3.550958e+02   1.725146e+02
   1.503218e+02   3.287052e+02
  -1.106923e+02   2.777478e+02
  -2.072000e+02   1.009716e+02
  -1.013424e+02   2.962285e+00
  -8.744434e+01   3.889538e+01
  -1.872455e+02   9.252856e+01
  -3.870281e+02  -3.047801e+01
  -3.443854e+02  -2.643921e+02
  -3.893305e+01  -4.461820e+02
   3.032575e+02  -4.197017e+02
   4.888935e+02  -2.210041e+02
   3.285770e+02   7.888515e+01
   6.762721e+01   3.323070e+02
  -1.202105e+02   2.637768e+02
  -8.523574e+01   7.214754e+01
   1.132124e+02  -8.473412e+01
   2.276442e+02  -1.749260e+01
  -1.017721e+01   2.045082e+02
  -1.802412e+02   1.838133e+02
  -1.246358e+02  -1.504185e+01
   1.571210e+01  -1.748755e+02
   2.044827e+02  -4.289069e+01
   1.854665e+02   2.459561e+02
  -4.028101e+01   3.582870e+02
  -1.719261e+02   1.779744e+02
  -2.561426e+02  -7.346350e+01
  -2.178101e+02  -1.646833e+02
  -9.616316e+01  -2.085601e+02
   1.015420e+02  -1.419295e+02
   1.600841e+02  -2.342991e+01
   2.689344e+01   2.773616e+01
  -1.134328e+02  -3.713506e+01
  -3.108062e+01  -1.331968e+02
   1.738267e+02  -1.296022e+02
   1.934440e+02   1.728925e+00
   3.472009e+01   7.043930e+01
  -5.421854e+01   4.044557e+01
  -5.854755e+01  -6.602249e+01
   1.628245e+02  -1.030543e+02
   2.430636e+02  -3.353167e+01
   2.504440e+02   1.556414e+02
   4.674241e+01   2.192483e+02
  -1.360162e+02   2.574840e+02
  -2.428586e+02   1.507857e+02
  -2.175993e+02  -1.267827e+01
  -1.145680e+01  -1.164908e+02
   4.862542e+01   1.998589e+01
  -1.500656e+01   9.019579e+01
  -2.296396e+02   4.064033e+01
  -1.619070e+02  -1.552945e+02
  -1.008742e+02  -2.690522e+02
   1.023891e+02  -1.574861e+02
   1.539949e+02  -1.487816e+01
   1.228520e+02   6.137036e+01
  -2.619020e+01   1.058857e+01
  -6.778222e+01  -5.932023e+01
   5.861461e+01  -8.120722e+01
   1.788875e+02   3.672827e+00
   1.711326e+02   1.221608e+02
   1.677323e+01   2.392946e+02
  -1.881967e+02   1.526978e+02
  -2.186493e+02  -9.940948e+00
  -5.285909e+01  -1.368172e+02
   5.467396e+01  -1.511277e+02
   5.722473e+01  -3.347892e+01
   2.074590e+01  -3.029507e+01
   6.014992e+01   5.828547e+01
   1.655015e+01  -5.436939e+01
   6.398989e+01   2.865566e+01
   5.547759e+01   9.460110e+01
   2.784796e+01   1.666153e+02
  -1.021713e+02   1.302907e+02
  -2.301410e+02   4.037873e+01
  -2.071596e+02  -1.516720e+02
  -6.999516e+01  -2.116109e+02
   1.128800e+02  -1.457127e+02
   1.285107e+02   1.154046e+00
   8.147044e+01   3.212162e+01
  -3.219005e+01  -4.895060e+00
   2.309990e+01  -1.382422e+01
   7.984065e+01  -6.511886e-01
   5.790105e+01   5.740364e+01
  -1.412772e+01   9.622267e+01
  -9.748191e+01   5.111766e+01
  -8.202130e+01  -6.279741e+01
   4.235250e+01  -1.201228e+02
   1.778407e+02  -6.515987e+01
   1.838634e+02   6.007922e+01
   8.305725e+01   2.579364e+02
  -1.433284e+02   2.490153e+02
  -2.684980e+02   7.702825e+01
  -2.291652e+02  -9.444819e+01
  -1.076941e+02  -1.616889e+02
   7.292367e+01  -1.246268e+02
   9.063503e+01  -7.485844e+01
   2.657172e+01  -7.187592e+01
   5.723084e+01  -1.043140e+02
   7.074556e+01  -9.658261e+01
   1.133179e+02  -2.730749e+01
   1.525431e+02   1.588686e+02
   4.754984e+01   2.192492e+02
  -1.381274e+02   1.713880e+02
  -1.948640e+02  -6.239780e+00
  -1.695508e+02  -1.178042e+02
   2.954228e+01  -2.294882e+02
   8.900095e+01  -8.550949e+01
   6.994638e+01   6.533825e+00
  -6.409954e+00   3.946643e+01
   2.793082e+01   5.666876e+01
   4.618855e+01  -2.149282e+01
   1.029237e+02   2.171120e+01
   3.035768e+01   5.146950e+01
  -8.284839e+01   9.406888e+01
  -1.360633e+02   3.190493e+01
  -1.310647e+02  -2.608414e+01
  -2.547705e+01  -1.091316e+02
   9.430808e+01  -7.390971e+01
   1.320460e+02   3.509296e+00
   9.871267e+00   3.227765e+01
  -9.265333e+01   3.855506e+01
  -9.992188e+01  -8.751517e+01
  -1.001442e+01  -8.927330e+01
   5.260500e+01  -7.808523e+00
   8.295323e+01   5.132609e+01
   4.646515e+01   3.153486e+01
   3.012044e+01   6.029465e+01
   4.606445e+01  -4.398712e+00
   8.084243e+01  -1.586565e+01
   4.345135e+01   7.138833e+01
  -9.377483e+00   1.227244e+02
  -1.270953e+02   1.338784e+02
  -1.485806e+02   4.183489e+01
  -1.261939e+02  -7.356327e+01
  -3.690706e+01  -1.154460e+02
   6.686097e+01  -9.297359e+01
   5.802591e+01  -1.019085e+01
  -5.600238e+01  -1.527194e+01
  -1.199458e+02  -4.795823e+01
  -1.253275e+02  -1.334578e+02
   7.220917e+01  -1.434973e+02
   2.206084e+02  -5.557172e+01
   1.679329e+02   4.319432e+01
   4.764078e+01   9.089417e+01
  -1.138398e+02   9.207167e+01
  -4.751154e+01  -1.335092e+01
   2.737490e+01  -5.012688e+01
   9.194452e+01  -1.305665e+01
   3.656041e+01   1.111232e+02
  -1.055736e+02   1.431365e+02
  -1.742414e+02   4.479760e+01
  -1.170279e+02  -1.282467e+02
  -2.263372e+01  -2.185399e+02
   1.331110e+02  -1.846766e+02
   1.080625e+02   1.695120e+01
   6.549711e+01   1.092480e+02
  -1.737430e+01   1.147572e+02
  -2.982360e+01   5.623671e+01
  -6.536104e+01  -2.494319e+01
   4.511897e+00   3.313758e+00
   9.041640e+00   2.553540e+01
  -8.902375e-01  -1.454664e+00
  -9.199837e+01  -4.242192e+01
  -4.269028e+01  -7.378042e+01
   3.987729e+01  -4.856061e+01
   1.488687e+02   2.991233e+01
   1.090122e+02   7.070641e+01
   2.109355e+01   1.614462e+01
  -6.810942e+01   1.428936e+01
  -5.142322e+01  -1.610805e+00
   2.123649e+01   3.362638e-01
   6.991454e+01   3.780667e+01
   5.165843e+01  -1.754138e+00
   4.109217e+00   1.405811e+01
  -3.326549e+01   3.603912e+01
   5.229746e+01  -2.090311e+01
   8.818701e+01   2.417495e+00
  -1.192338e+01   7.676406e+01
  -9.786407e+01   9.791002e+01
  -1.660253e+02   2.815865e+01
  -9.734878e+01  -4.138596e+01
  -6.085413e+01  -1.608731e+02
   5.608709e+01  -1.332480e+02
   1.205708e+02  -6.088632e+01
   4.710151e+01   5.617244e+01
   1.942292e+01  -4.991173e+00
  -1.167764e+01   2.444034e+01
   1.951017e+01  -4.313537e+00
   3.730801e+01   4.581490e+01
  -1.630044e+00   1.152172e+02
  -1.059437e+01   4.448790e+01
  -4.935785e+01  -3.935141e+00
  -7.462018e+01  -9.899443e+01
  -2.014376e+01  -1.158222e+02
   9.450712e+01  -7.981265e+01
   1.132236e+02   5.418155e+01
   7.413794e+01   1.128596e+02
  -4.834884e+01   1.232372e+02
  -9.579391e+01   2.133363e+01
  -3.714134e+01  -4.487129e+01
   3.598830e+01   3.219894e+00
   8.568430e-01  -2.984904e+01
   1.322718e+01   2.472285e+01
  -5.939154e+01   2.184318e+01
  -1.597026e+01  -4.310955e+01
   5.139021e+01  -7.959970e+01
   1.172062e+02  -7.819654e+01
   9.698341e+01   2.812264e+01
  -2.846525e+00   7.375874e+01
  -2.780453e+01   6.253985e+01
  -4.143615e+00  -4.007373e+01
  -2.776853e+01  -5.822811e+01
   1.399785e+01  -7.173287e+01
   2.956701e+01  -1.454663e+01
   4.222780e+01   4.165069e+01
  -2.163236e+01   1.383045e+01
  -1.059794e+00  -1.759516e+01
  -1.901581e+01  -7.370608e+01
  -2.203245e+01  -4.847201e+00
  -9.548616e-01   5.974759e+00
  -7.295092e+00  -1.006860e+01
  -2.061317e+01  -2.226737e+01
  -4.340051e+00  -2.387388e+01
   5.313914e+01   2.722130e+01
   7.054795e+01   7.993872e+01
   1.681243e+01   7.071644e+01
  -2.987867e+01   9.763284e+00
  -8.771979e+01  -3.571629e+01
  -6.648565e+01  -6.549748e+01
   1.089406e+01  -3.944022e+01
   4.988570e+01   4.014256e+00
   4.441405e+01   5.333990e+00
  -8.924961e+00   2.709101e+01
  -1.635085e+01   3.591522e+01
   6.575261e+00   2.957402e+01
   5.876910e+01  -2.268148e+01
   3.339549e+01  -3.878459e+01
  -6.344550e+01   1.886131e+01
  -7.433100e+01   3.745093e+01
