
 $NMID
 id='ANONYMOUS ', fmtdat='(2E16.6)'
 volume=1.0
 tramp=1.0
 $END
   4.661716e+03   8.271621e+01
   2.660979e+03   2.994240e+03
  -8.405074e+02   3.039617e+03
  -2.243534e+03   8.130012e+02
  -9.812245e+02  -8.988878e+02
   8.414924e+02  -6.989366e+02
   1.062689e+03   5.534746e+02
   1.762078e+01   1.120704e+03
  -9.220871e+02   8.424836e+02
  -1.058162e+03  -4.592642e+01
  -4.481247e+02  -9.394818e+02
   3.150146e+02  -9.315045e+02
   7.649279e+02  -8.950317e+01
   3.879457e+02   8.160586e+02
  -3.174560e+02   7.612362e+02
  -6.169467e+02   1.020032e+01
  -2.616819e+02  -7.914316e+02
   2.881075e+02  -5.941172e+02
   5.203171e+02  -6.286071e+01
   3.644947e+02   3.855495e+02
  -9.160149e+01   4.474713e+02
  -2.783312e+02   2.588201e+02
  -1.289494e+02  -4.446459e+00
   5.893067e+01  -1.358339e+02
   4.468270e+02   1.265888e+01
   1.824243e+02   4.546781e+02
  -4.821505e+02   4.278643e+02
  -8.889231e+02  -1.035465e+02
  -4.909627e+02  -6.343162e+02
   4.471449e+02  -6.171638e+02
   8.680784e+02  -4.378748e+01
   4.075918e+02   5.134849e+02
  -2.521934e+02   5.539006e+02
  -5.572192e+02   2.166512e+02
  -3.759226e+02  -2.561718e+02
  -5.907660e+01  -4.518996e+02
   2.193229e+02  -3.014575e+02
   2.491058e+02   2.651895e+02
  -1.607135e+02   4.475135e+02
  -4.856330e+02   1.666917e+01
  -2.700243e+02  -7.087766e+02
   3.987314e+02  -7.056738e+02
   6.246555e+02   2.720134e+01
   2.478245e+02   6.024933e+02
  -3.571672e+02   3.834412e+02
  -4.487186e+02  -3.884200e+02
   9.777606e+01  -5.762772e+02
   5.948362e+02  -1.286829e+02
   6.272572e+02   4.442582e+02
   1.317554e+02   6.914759e+02
  -4.873984e+02   4.063666e+02
  -6.676748e+02  -9.399899e+01
  -3.993471e+02  -3.970363e+02
   1.466418e+02  -3.551768e+02
   4.477923e+02  -2.706844e+01
   2.420679e+02   2.606064e+02
  -1.845755e+02   8.841100e+01
  -1.498736e+02  -1.965192e+02
   1.666144e+02  -1.532705e+02
   3.243313e+02   7.579533e+01
   8.813505e+01   2.964118e+02
  -2.113781e+02   2.479904e+02
  -3.389703e+02   3.699004e+01
  -2.032275e+02  -1.141402e+02
   3.465449e+01  -2.599615e+02
   2.219602e+02  -2.998653e+02
   3.404927e+02  -1.986670e+02
   2.932295e+02   1.455239e+02
   4.364081e+01   4.590520e+02
  -1.108542e+02   3.715932e+02
  -1.291474e+02   1.427451e+02
  -2.489085e+01  -2.453122e+01
  -4.123790e+01   6.158871e+01
  -1.448740e+02   1.072209e+02
  -2.953279e+02  -5.457767e+01
  -1.686365e+02  -2.814676e+02
   9.677652e+01  -3.321112e+02
   2.749941e+02  -3.201220e+01
   1.910322e+02   2.350493e+02
   2.040093e+01   3.332447e+02
  -3.087901e+02   1.454651e+02
  -3.803344e+02  -1.721070e+02
  -1.618375e+02  -3.717876e+02
   1.187223e+02  -2.940162e+02
   2.445422e+02  -1.597456e+02
   1.867684e+02   2.990168e+01
   1.042911e+02  -1.511089e+01
   2.065033e+02  -7.811060e+01
   4.394763e+02   2.238349e+01
   3.168943e+02   2.988947e+02
   1.640472e+01   4.936046e+02
  -3.656764e+02   4.603327e+02
  -5.186405e+02   1.973846e+02
  -3.501875e+02  -1.159142e+02
  -4.933807e+01  -2.908268e+02
   1.571310e+02  -2.651737e+02
   1.277677e+02  -5.778715e+01
  -7.045408e+01   1.082373e+02
  -2.385690e+02   8.482278e+00
  -3.667419e+01  -2.013748e+02
   1.586507e+02  -1.814102e+02
   1.897528e+02   5.164357e+01
  -1.806231e+01   1.873304e+02
  -2.653323e+02  -2.191265e+00
  -1.535005e+02  -2.889504e+02
   6.343770e+01  -3.642342e+02
   2.650390e+02  -2.245264e+02
   3.551761e+02   6.116566e+01
   2.832153e+02   2.679567e+02
   1.115607e+02   2.393517e+02
  -3.550574e+01   1.882827e+02
  -1.798762e+02   3.953870e+01
  -2.049543e+01  -2.674691e+01
   5.439068e+01   6.220206e+01
   2.652245e+01   1.738791e+02
  -1.485198e+02   5.373085e+01
  -1.764321e+02  -1.173795e+01
  -1.179076e+02  -9.195098e+01
   1.083125e+02  -6.340663e+01
   4.740325e+01   4.414462e+01
  -1.148219e+02   7.114329e+01
  -2.891924e+02   1.257517e+01
  -2.505164e+02  -7.630013e+01
  -4.259142e+01  -2.586110e+02
   2.134879e+02  -2.701286e+02
   2.764050e+02  -1.887409e+02
   1.950999e+02   9.847586e+01
  -7.880730e-01   1.224463e+02
  -9.175445e+01  -2.889498e+01
   2.860257e+01  -1.579983e+02
   2.104695e+02  -4.843083e+01
   2.344381e+02   1.125532e+02
   1.006790e+02   2.146761e+02
  -6.051324e+01   1.715816e+02
  -1.023932e+02   4.071960e+01
  -1.008283e+02  -2.345738e+01
   3.335221e+01   1.686856e+01
   3.596803e+01   4.961681e+01
  -5.496793e+01   1.094731e+02
  -2.064512e+02   4.956079e+01
  -2.062031e+02  -1.588904e+02
  -5.002639e+01  -2.454195e+02
   1.622256e+02  -1.833865e+02
   2.396521e+02  -2.723446e+01
   7.289959e+01   1.357565e+02
  -7.365208e+01   8.195776e+01
  -4.799348e+01   5.101462e+01
  -4.254465e+01  -3.529088e+01
   2.280765e+01  -1.970169e+01
  -2.138825e+01   2.873597e+01
  -8.978467e+01   3.801616e-01
  -3.170274e+01  -5.542166e+01
  -4.063921e+01  -1.596339e+02
   1.163407e+02  -1.491820e+02
   1.840977e+02  -1.389479e+01
   1.567400e+02   1.608575e+02
   5.411874e+01   2.654501e+02
  -1.407037e+02   1.491955e+02
  -1.754484e+02   4.172025e+01
  -5.980493e+01  -7.691871e+01
  -4.213209e+01  -5.843007e+01
  -4.596436e+01   8.267540e+00
  -3.821108e+01   6.133539e+00
  -4.137634e+00  -6.642707e+01
   4.283378e+01  -4.153783e+01
   8.498237e+01  -1.870436e+01
   7.492374e+01   6.740050e+01
  -4.645440e+01   1.014598e+02
  -1.011097e+02   4.404622e+01
  -1.768038e+02  -2.262168e+01
  -8.100629e+01  -2.049314e+02
   1.054196e+02  -2.400909e+02
   2.531407e+02  -1.226687e+02
   2.714605e+02   7.293870e+01
   1.255904e+02   1.455561e+02
  -2.521978e+01   1.697028e+02
  -1.114757e+02   1.070634e+02
  -1.155104e+02   7.429459e+01
  -9.678252e+01   6.265346e+01
  -1.362018e+02   6.251537e+01
  -1.640082e+02  -7.822650e+01
  -1.342243e+02  -1.012260e+02
  -5.426361e+01  -2.551549e+02
   9.315431e+01  -1.978640e+02
   2.033260e+02  -3.037782e+01
   1.426996e+02   1.007893e+02
   2.439540e+01   1.757685e+02
  -9.822528e+01   1.653783e+02
  -8.239326e+01   3.687988e+01
  -3.150449e+01  -2.965035e+00
   7.224299e+00  -1.364880e+01
  -3.500828e+01  -8.803388e+01
  -8.201321e+01  -2.724439e+01
  -3.502054e+01  -6.395047e+01
   4.813874e+01  -1.285066e+01
   1.448436e+02  -4.003304e+01
   1.532874e+02   3.227224e+01
   6.994839e+01   7.520375e+01
  -1.092101e+02   9.987815e+01
  -1.430868e+02   4.170267e+01
  -3.948858e+01  -4.883852e+01
   1.690266e+01  -4.415055e+01
   1.199000e+02   1.516130e+01
   1.672688e+00   2.631016e+01
  -5.731079e+01   6.738019e+01
  -3.095540e+01  -2.165188e+01
  -4.762437e+01  -1.881238e+01
  -2.341132e+01  -2.983007e+01
  -9.836849e+01   9.346604e+00
  -6.571883e+01  -2.179836e+01
  -7.379340e+00  -9.137206e+01
   4.135622e+01  -1.472799e+02
   1.673016e+02  -1.178502e+02
   1.678415e+02  -2.141053e+01
   1.354613e+02   7.806513e+01
  -5.764913e+00   1.072467e+02
  -2.478170e+01   6.621882e+01
  -2.901220e+01  -2.664189e+01
   1.038718e+02  -9.506541e-01
   1.605620e+02   6.746575e+01
   7.062543e+01   1.297740e+02
  -1.026905e+02   1.398649e+02
  -1.613995e+02   5.809696e+01
  -1.717157e+02  -1.842202e+01
  -6.762365e+01  -8.047068e+01
   8.152581e+01  -8.197433e+01
   5.981884e+01  -2.745297e+01
  -8.072066e+01   5.084858e+01
  -1.016666e+02  -4.570913e+01
  -4.379420e+01  -1.250235e+02
   3.766683e+01  -1.800694e+02
   1.819802e+02  -7.772021e+01
   1.510593e+02   1.117298e+02
  -6.580369e+00   2.084571e+02
  -1.058320e+02   1.221000e+02
  -8.591209e+01  -1.186964e+01
  -1.290614e+02  -1.314348e+02
  -1.627023e+01  -1.281869e+02
   2.197198e+01  -3.476293e+01
   6.710093e+01   3.117007e+01
   5.094409e+01   5.085125e+00
   2.043483e+01  -1.247230e+01
   2.944925e+01  -2.814745e+01
   6.519143e+01   1.003350e+02
   6.908770e+01   1.099399e+02
  -4.863789e+01   2.761742e+01
  -1.504335e+02  -1.833623e+01
  -1.061284e+02  -3.896375e+01
   3.959825e+01  -4.579509e+01
   8.569070e+01  -4.173455e+01
   9.076782e+01  -9.502703e+00
  -3.130266e+00  -1.757275e+01
  -6.856050e+01   3.142829e+01
  -2.710727e+00   4.828367e+01
   1.196752e+01   1.362488e+01
  -3.923097e+01   1.303454e+01
  -5.830290e+01   9.505328e+00
  -9.234940e+01  -3.952854e+01
   7.181666e+00  -1.061014e+02
   9.452970e+01  -1.163950e+02
   1.665719e+02  -5.925027e+01
   1.564392e+02   6.103630e+01
   6.148616e+01   1.744576e+02
  -3.392007e+01   1.429956e+02
  -5.298497e+01   6.046189e+01
  -7.960467e+01  -2.423495e+01
  -7.678322e+01  -4.325127e+01
  -1.716164e+01  -1.876394e+00
  -2.639974e+00  -4.136720e+01
   8.664189e-01  -7.625895e+01
  -4.814622e+00  -9.538559e+01
   1.825083e+01  -6.268789e+01
   9.303160e+01   1.669768e+01
   3.952723e+01   1.194197e+02
  -1.235769e+01   9.355752e+01
  -8.188595e+01   1.670451e+01
  -1.097089e+02  -3.907831e+01
  -3.929617e+01  -1.006554e+02
   8.268102e+01  -7.495381e+01
   5.735657e+01  -1.248999e+00
   6.925797e+01   4.811741e+01
   6.511965e+00   7.797360e+01
  -1.147807e+01   9.911387e-01
   3.315221e+01   5.946500e+00
   5.163189e+01   4.026227e-01
  -3.659594e+00   4.730678e+01
  -1.045556e+02   8.436189e+01
  -6.160632e+01   2.852640e+01
  -3.803429e+01  -1.518010e+01
   7.364753e+00  -6.886803e+01
   2.551604e+01  -4.639214e+01
   5.172405e+01  -2.895124e+01
   6.483518e+00   4.910697e+01
   2.628778e+01   8.415426e+01
  -3.916393e+01  -1.710427e+01
  -6.054117e+01  -4.890030e+01
  -1.560261e+01  -2.127090e+01
   5.514516e+01   1.688781e+01
   1.922429e+01   3.119094e+01
   3.835874e+01   1.751479e+01
  -1.506791e+00  -2.049406e+00
  -1.354609e+01   2.704206e+00
  -1.397356e+01   4.606831e+01
  -1.225750e+01   7.901967e+01
  -3.382020e+01  -1.254457e+01
  -1.517848e+00  -6.967179e+01
   1.999896e+01  -4.627312e+01
   6.913648e+01  -1.648728e+01
   7.655563e+01   4.817875e+01
   3.494467e+01   5.460599e+01
  -3.448105e+01   3.379603e+01
  -8.729742e+01  -7.689028e+00
  -5.731038e+01   2.978546e-01
   3.406028e+01  -2.282729e+01
   7.562075e+01  -3.599400e+01
   2.061515e+01   6.131481e+00
  -1.121204e+01   2.233491e+01
  -4.910032e+01  -4.148945e+01
   2.773228e+01  -3.275129e+01
   1.077313e+02  -2.816321e+01
