
 $NMID
 id='ANONYMOUS ', fmtdat='(2E16.6)'
 volume=1.0
 tramp=1.0
 $END
   4.644038e+03  -2.691922e+01
   2.613638e+03   2.953864e+03
  -7.817640e+02   2.861470e+03
  -2.234215e+03   9.425866e+02
  -9.659261e+02  -8.532443e+02
   7.793980e+02  -6.312281e+02
   9.287974e+02   5.916856e+02
  -1.086188e+02   1.183439e+03
  -8.871410e+02   8.779229e+02
  -9.446213e+02  -4.849613e+01
  -5.398231e+02  -8.680203e+02
   2.588726e+02  -9.152717e+02
   6.525637e+02  -5.456285e+01
   4.458987e+02   8.418404e+02
  -3.133412e+02   8.514055e+02
  -6.482379e+02  -5.930032e+01
  -2.171451e+02  -7.159608e+02
   4.461376e+02  -5.895422e+02
   6.465854e+02  -1.566772e+02
   3.110909e+02   4.023041e+02
   3.184435e+01   4.291190e+02
  -3.001781e+02   3.121683e+02
  -2.729450e+02   1.992990e+01
   1.226236e+02  -1.350628e+02
   4.694453e+02   7.691857e+01
   2.688245e+02   4.377608e+02
  -4.449906e+02   5.082445e+02
  -9.028651e+02  -2.031573e+01
  -4.619111e+02  -5.538479e+02
   4.242807e+02  -4.543116e+02
   7.749851e+02   2.374067e+01
   3.520857e+02   5.117901e+02
  -3.206579e+02   5.741278e+02
  -5.477614e+02   1.965779e+02
  -4.075003e+02  -3.070881e+02
  -4.740627e+01  -5.561878e+02
   2.270331e+02  -3.240959e+02
   2.233578e+02   2.293633e+02
  -1.699122e+02   5.314106e+02
  -5.580639e+02   1.285767e+01
  -3.148535e+02  -7.469436e+02
   2.868507e+02  -7.882190e+02
   6.277751e+02  -8.441479e+01
   3.116137e+02   5.731346e+02
  -3.096701e+02   3.424687e+02
  -3.929293e+02  -3.029657e+02
   5.228111e+01  -5.650217e+02
   5.926322e+02  -1.681367e+02
   6.447518e+02   4.157739e+02
   1.506777e+02   6.026720e+02
  -3.794443e+02   3.844275e+02
  -6.657020e+02  -4.952063e+01
  -3.925054e+02  -4.346881e+02
   1.692506e+02  -3.723886e+02
   4.573230e+02  -3.176742e+01
   2.222329e+02   2.780796e+02
  -1.703454e+02   1.352765e+02
  -1.970255e+02  -1.999149e+02
   1.226366e+02  -2.094617e+02
   3.715047e+02   7.978679e+01
   1.057244e+02   3.359739e+02
  -2.612688e+02   2.520238e+02
  -3.436527e+02   9.066400e+01
  -1.503851e+02  -8.909976e+01
   2.635169e+01  -2.208511e+02
   2.019874e+02  -3.522697e+02
   3.543053e+02  -2.571694e+02
   3.778793e+02   1.575493e+02
   8.965737e+01   4.965610e+02
  -1.074590e+02   3.841647e+02
  -1.332193e+02   1.467436e+02
  -3.096128e+01  -3.767251e+00
  -1.524349e+01   1.208196e+02
  -1.934906e+02   1.582820e+02
  -2.826975e+02  -2.263054e+01
  -1.899681e+02  -2.768522e+02
   5.020749e+01  -2.525082e+02
   2.428153e+02  -4.739732e+01
   2.581763e+02   2.507087e+02
   2.599637e+01   3.223888e+02
  -2.646977e+02   1.422070e+02
  -3.772076e+02  -1.987646e+02
  -2.022897e+02  -3.650708e+02
   9.883824e+01  -3.124712e+02
   2.474894e+02  -1.454489e+02
   1.740352e+02   2.674058e+01
   7.834982e+01  -2.470568e+01
   2.764005e+02  -7.937772e+01
   3.880397e+02   6.991479e+01
   3.889302e+02   2.797518e+02
  -2.355015e+00   4.702816e+02
  -3.421905e+02   4.597280e+02
  -4.998922e+02   2.193875e+02
  -3.420578e+02  -8.895449e+01
  -1.030645e+02  -2.984602e+02
   1.923208e+02  -2.690277e+02
   1.605583e+02  -9.842282e+00
  -7.046844e+01   1.585549e+02
  -2.162011e+02   3.546956e+01
  -8.248258e+01  -1.844231e+02
   1.376507e+02  -1.752375e+02
   1.750546e+02   5.783738e+01
  -3.427219e+01   2.228769e+02
  -1.780043e+02  -2.582554e+01
  -7.906612e+01  -2.993165e+02
   8.246289e+01  -3.575342e+02
   2.889460e+02  -1.817008e+02
   3.434035e+02   7.463583e+01
   2.799137e+02   2.779161e+02
   1.312788e+02   2.938708e+02
  -6.300285e+01   1.995237e+02
  -2.037719e+02   5.051662e+00
  -3.522699e+01  -3.261343e+01
   5.097250e+01   3.070678e+01
  -9.001170e+00   1.588077e+02
  -1.548879e+02   1.182400e+02
  -1.801791e+02   1.330387e+01
  -3.221899e+01  -1.031468e+02
   7.121286e+01   1.080822e+01
   3.269377e+01   7.060236e+01
  -1.524891e+02   1.019881e+02
  -3.042329e+02  -3.668089e+00
  -2.910601e+02  -1.587744e+02
  -8.276805e+01  -2.805750e+02
   1.691939e+02  -3.133638e+02
   2.948043e+02  -1.157121e+02
   1.866666e+02   9.124552e+01
  -4.087960e+01   1.126853e+02
  -1.000279e+02  -2.325902e+01
   3.360321e+01  -1.252678e+02
   2.126708e+02  -3.458022e+01
   2.300358e+02   1.449283e+02
   1.416340e+02   2.133898e+02
  -6.927498e+01   1.442246e+02
  -1.294609e+02   2.789280e+01
  -3.431594e+01  -2.370673e+01
   5.613678e+01  -8.517273e+00
   5.329810e+01   7.527069e+01
  -7.201423e+01   1.318195e+02
  -1.810880e+02   6.770881e+01
  -1.986902e+02  -1.334336e+02
  -1.177715e+01  -2.304129e+02
   1.285567e+02  -1.652451e+02
   1.751673e+02  -4.801239e+00
   5.981143e+01   1.169123e+02
  -2.011094e+01   1.021916e+02
  -4.426599e+01   2.523365e+01
  -4.922450e+00  -3.172690e+01
   9.353358e+00  -1.810167e+01
  -4.384391e+01   3.651177e+01
  -8.907929e+01  -3.718701e+01
  -6.245628e+01  -8.410083e+01
   1.371516e+01  -1.426318e+02
   1.107371e+02  -1.734059e+02
   2.324954e+02  -1.271850e+01
   1.835077e+02   1.221117e+02
   3.348811e+01   2.407396e+02
  -1.192585e+02   1.814960e+02
  -1.611262e+02   4.859871e+01
  -6.628517e+01  -2.260174e+01
  -6.803829e+01  -5.538162e+01
  -3.244287e+01   1.839082e+01
  -4.649366e+01   2.202103e+01
  -3.038335e+01  -3.734306e+01
   3.118459e+00  -5.406367e+01
   9.019957e+01  -4.948245e+01
   4.791049e+01   1.735176e+01
  -1.346260e+01   1.297920e+02
  -1.211787e+02   1.159923e+02
  -2.232022e+02  -1.829817e+01
  -1.161656e+02  -1.752711e+02
   9.375565e+01  -2.747358e+02
   2.717107e+02  -1.074379e+02
   2.969069e+02   8.136151e+01
   1.465404e+02   1.326101e+02
  -1.616178e+01   1.752908e+02
  -1.106959e+02   9.026868e+01
  -5.621910e+01   5.149275e+01
  -2.382759e+01   5.951296e+01
  -8.700697e+01   5.496419e+01
  -1.525951e+02  -4.409775e+01
  -1.035816e+02  -1.311919e+02
  -3.636095e+01  -1.880415e+02
   1.076437e+02  -1.956020e+02
   1.812583e+02  -4.529302e+01
   1.578036e+02   1.130073e+02
   3.957857e+01   1.614624e+02
  -5.728295e+01   1.180362e+02
  -3.800272e+01   1.167222e+01
  -1.965171e+01  -3.671962e+01
   1.765936e+01  -2.122902e+01
  -4.252700e+01  -2.408679e+00
  -6.090657e+01  -5.148644e+01
  -2.671582e+01  -4.646541e+01
   8.533832e+01  -1.566647e+01
   8.891289e+01   1.384372e+01
   1.554559e+02   4.162455e+01
  -2.212962e+01   1.423288e+02
  -9.937764e+01   7.601399e+01
  -1.387799e+02   7.675679e+01
  -6.929344e+01  -2.841750e+01
   5.350555e+01  -1.885289e+01
   1.799385e+01   4.489209e+01
  -2.237218e+01   8.254886e+01
  -4.103730e+01   5.469574e+01
  -7.484947e+01  -4.533875e+01
  -4.899088e+01  -4.681919e+01
  -8.298112e+01  -6.719904e+01
  -6.277371e+01   3.354811e+01
  -4.451846e+01   3.422942e+01
  -5.560737e+01  -4.155371e+01
   1.429209e-01  -1.962154e+02
   9.006547e+01  -1.514394e+02
   1.355506e+02  -3.246755e+01
   1.460278e+02   9.267374e+01
   1.673598e+01   9.238910e+01
  -1.301075e+02   8.082162e+01
  -1.816098e+01   1.391694e+01
   7.653803e+01  -2.636283e+01
   1.230726e+02   1.784503e+01
   7.452446e+01   1.449584e+02
  -6.157628e+01   9.309006e+01
  -1.917675e+02   4.615287e+01
  -1.658449e+02  -1.459715e+01
  -9.653538e+00  -1.133004e+02
   6.563671e+01  -9.876514e+01
   4.815943e+01  -4.985885e+01
  -2.276479e+01  -1.732926e+01
  -7.505213e+01  -4.258990e+01
   2.280632e+00  -9.416887e+01
   6.843703e+01  -1.417455e+02
   1.745372e+02  -4.482114e+01
   9.488433e+01   1.393184e+02
   4.343979e+00   1.789343e+02
  -1.088989e+02   1.501219e+02
  -9.108300e+01  -1.713050e+01
  -4.792398e+01  -1.342236e+02
  -4.663685e+01  -1.315486e+02
   5.507477e+01  -4.310042e+01
   7.576198e+01   2.771418e+01
   7.192717e+01   1.404811e+01
   2.955912e+01  -3.516776e+00
   2.066816e+01   3.470457e+01
   3.867516e+01   1.134531e+02
   7.932282e+01   8.889652e+01
  -4.011258e+01   3.447617e+00
  -1.473416e+02  -4.275294e+01
  -1.267241e+02  -6.348545e+01
  -5.816057e+00  -3.602349e+01
   1.034754e+02   1.987626e-01
   1.135586e+02   3.529861e+01
  -4.096497e+00   6.134231e+00
  -6.244472e+01   3.164063e+01
  -1.172053e+01  -1.193680e+01
   7.350397e+01  -1.735518e+01
   3.394813e+01  -2.401853e+01
  -1.069673e+02  -2.630436e+01
  -1.187964e+02  -2.181710e+01
  -1.738629e+01  -6.912741e+01
   1.365526e+02  -1.655228e+02
   1.889007e+02  -9.996537e+01
   1.371841e+02   8.869932e+01
   3.542306e+01   1.715468e+02
  -8.286430e+01   1.524763e+02
  -1.007503e+02   4.996268e+01
  -5.902593e+01   1.295015e+00
  -2.825937e+01  -6.310447e+01
   1.812191e+01   2.114134e+01
   2.766763e+00  -2.977628e+01
   2.307288e+00  -9.030192e+01
  -1.664829e+01  -1.152772e+02
   6.530335e+00  -6.714112e+01
   6.052270e+01   5.659234e+01
   7.190487e+01   1.318880e+02
   1.424712e+01   1.019988e+02
  -7.772837e+01   1.269356e+01
  -9.899746e+01  -4.060040e+01
  -1.007125e+01  -9.607743e+01
   6.367703e+01  -1.392777e+01
   7.148055e+01  -2.394928e+01
   6.129190e+00   7.075714e+01
  -6.384619e+01   7.120376e+01
  -3.416208e+01   6.717195e+01
   5.612422e+01   1.291343e+01
   8.462068e+01   1.453738e+01
   1.163804e+01   3.979983e+01
  -1.009814e+02   1.051437e+02
  -9.484581e+01   7.282054e+01
  -7.158344e+01  -1.501251e+01
   1.742073e+01  -6.398888e+01
   7.933203e+01  -7.803585e+01
   6.173829e+01  -1.277237e+01
  -8.059013e-01   4.632265e+01
  -2.444604e+01   1.339658e+01
  -1.982020e+01  -5.246186e+01
  -6.901618e+01  -1.720945e+01
   2.027670e+00  -2.561597e+01
   3.222148e+01   1.559642e+01
   5.578335e+01   1.736931e+01
   4.736848e+00  -2.058812e+01
   3.597353e+00  -1.872459e+01
   2.044528e+01   1.416570e+01
  -1.847542e+01   2.488211e+01
   2.232590e+01   1.737901e+01
  -1.212306e+01   1.225443e+01
  -5.118997e+01  -8.315833e+01
  -2.534222e+00  -2.687481e+01
   5.295874e+01  -1.509397e+01
   2.243553e+01   2.730697e+01
   8.819957e-01   2.428789e+01
  -2.052713e+01   1.385026e+01
  -8.542677e+01  -3.596398e+01
  -6.289557e+01  -4.023197e+01
   4.377714e+01  -2.589406e+01
   5.408020e+01  -1.071867e+01
   9.838114e+00  -1.544275e+01
  -4.149240e+01  -3.074123e+01
   3.118711e+00   2.088104e+00
   1.004707e+02  -2.227909e+01
   1.220683e+02  -1.403588e+01
