
 $NMID
 id='ANONYMOUS ', fmtdat='(2E16.6)'
 volume=1.0
 tramp=1.0
 $END
  -4.532280e+03   8.193331e+01
  -2.551102e+03  -2.821889e+03
   9.615090e+02  -2.952491e+03
   2.229045e+03  -8.601785e+02
   1.020564e+03   7.938425e+02
  -8.727272e+02   6.854087e+02
  -9.363032e+02  -4.755282e+02
  -4.062154e+01  -1.210340e+03
   8.797755e+02  -8.187616e+02
   9.957161e+02   2.062288e+02
   4.323309e+02   9.152774e+02
  -3.364355e+02   9.737434e+02
  -7.846938e+02   1.603777e+02
  -4.086440e+02  -8.604159e+02
   3.149395e+02  -7.924548e+02
   6.078685e+02   6.650549e+01
   3.745597e+02   7.086425e+02
  -3.464830e+02   6.742378e+02
  -6.700463e+02   1.022520e+02
  -4.776592e+02  -3.873531e+02
   5.256459e+01  -4.006202e+02
   2.313208e+02  -2.548193e+02
   1.890225e+02   2.204947e+01
  -1.793924e+02   1.723818e+02
  -4.244600e+02  -1.296425e+02
  -2.400637e+02  -4.509112e+02
   4.867226e+02  -4.445031e+02
   9.220818e+02   4.860845e+01
   4.608281e+02   6.047210e+02
  -3.796527e+02   5.516394e+02
  -7.814149e+02  -8.573898e+01
  -3.513136e+02  -5.274977e+02
   3.014737e+02  -5.532335e+02
   6.298367e+02  -2.114349e+02
   4.707979e+02   2.475788e+02
   1.094408e+02   5.387863e+02
  -2.379735e+02   3.425846e+02
  -2.109369e+02  -2.589973e+02
   1.803468e+02  -5.167224e+02
   5.179175e+02   1.275450e+01
   2.797140e+02   6.951857e+02
  -3.437664e+02   7.980788e+02
  -6.774600e+02   5.202999e+01
  -2.893131e+02  -6.171194e+02
   3.027688e+02  -3.226505e+02
   4.044335e+02   3.389551e+02
  -8.760218e+01   5.530042e+02
  -5.686699e+02   1.293119e+02
  -6.194366e+02  -4.092940e+02
  -1.356714e+02  -6.015312e+02
   4.136279e+02  -3.822010e+02
   6.677332e+02   4.051014e+01
   4.057392e+02   4.183539e+02
  -1.223124e+02   4.514850e+02
  -4.631143e+02   1.131971e+02
  -3.336195e+02  -2.034041e+02
   1.308802e+02  -1.436163e+02
   1.500875e+02   1.504506e+02
  -1.711424e+02   2.364647e+02
  -3.409542e+02  -6.806825e+01
  -1.682685e+02  -3.517762e+02
   2.187538e+02  -2.774525e+02
   3.316846e+02  -4.365296e+00
   1.881049e+02   1.507405e+02
  -2.483653e+01   1.983710e+02
  -1.908050e+02   3.108099e+02
  -3.381995e+02   2.377631e+02
  -3.309570e+02  -1.320622e+02
  -1.096611e+02  -4.207470e+02
   9.458745e+01  -3.538558e+02
   1.366041e+02  -1.223977e+02
   3.177278e+01  -1.831395e+00
   2.496984e+01  -8.007776e+01
   1.895889e+02  -1.353554e+02
   3.176221e+02   1.722617e+01
   1.713497e+02   2.986603e+02
  -5.482217e+01   3.170467e+02
  -2.198116e+02   6.192954e+01
  -2.059541e+02  -2.691183e+02
   3.162730e+01  -3.639080e+02
   3.026363e+02  -1.670727e+02
   3.846583e+02   1.955837e+02
   1.812301e+02   4.031483e+02
  -1.903344e+02   3.357756e+02
  -2.619931e+02   1.413131e+02
  -1.653052e+02  -2.765328e+01
  -1.132832e+02   5.855938e+01
  -2.149580e+02   6.210289e+01
  -4.067121e+02  -3.995267e+01
  -3.369850e+02  -2.960819e+02
   1.780372e+01  -4.992423e+02
   3.334882e+02  -4.593278e+02
   5.097884e+02  -2.087959e+02
   3.926063e+02   9.261713e+01
   9.105980e+01   2.964297e+02
  -7.654411e+01   1.973452e+02
  -6.341617e+01   5.726834e+01
   1.170474e+02  -9.766711e+01
   1.688448e+02   1.681311e+01
   5.315599e+01   2.480579e+02
  -1.824585e+02   2.135736e+02
  -1.619031e+02  -6.466444e+01
   1.300291e+01  -2.362244e+02
   1.729255e+02  -6.150034e+01
   1.130524e+02   2.277821e+02
  -3.004435e+01   3.448166e+02
  -2.381496e+02   1.783193e+02
  -3.467307e+02  -5.018414e+01
  -2.800890e+02  -2.210130e+02
  -1.034410e+02  -2.736917e+02
   1.728725e+02  -1.776645e+02
   1.948739e+02  -4.817624e+01
   7.949935e+01   2.556361e+01
  -4.132516e+01   1.641113e+01
   1.275590e+01  -5.047407e+01
   1.298762e+02  -1.390929e+02
   2.035594e+02   3.683989e+00
   3.674926e+01   1.079298e+02
  -6.483823e+01   4.072009e+01
  -5.708079e+01  -8.462739e+01
   1.250520e+02  -1.224200e+02
   2.321859e+02  -2.644781e+01
   2.427718e+02   1.270539e+02
   5.758839e+01   2.041716e+02
  -1.519151e+02   2.283272e+02
  -2.592994e+02   1.435868e+02
  -1.788006e+02  -1.947310e+01
   1.883301e+01  -1.214971e+02
   1.212396e+02  -1.476026e+01
  -6.176413e+00   1.238907e+02
  -2.026249e+02   1.070276e+02
  -2.405908e+02  -1.194309e+02
  -7.006868e+01  -2.464111e+02
   8.942147e+01  -1.210728e+02
   1.529828e+02  -9.946592e+00
   6.477041e+01   6.451146e+01
  -3.038503e+01  -8.572538e+00
  -6.478699e+01  -6.881585e+01
   6.174306e+01  -1.093393e+02
   2.005482e+02  -2.147153e+01
   1.620608e+02   1.033997e+02
   1.184828e+01   2.294686e+02
  -1.850310e+02   1.087702e+02
  -2.093557e+02   1.115536e+01
  -8.858415e+01  -1.499063e+02
   8.540102e+01  -1.045484e+02
   8.272051e+01   1.765745e+01
  -2.238004e+01   7.110376e+01
  -2.239925e+01   8.477449e+00
   1.807118e+01  -6.472426e+01
   6.398621e+01  -6.893223e+01
   1.081381e+02   5.516115e+01
   6.882881e+01   1.386104e+02
  -9.214326e+01   1.915218e+02
  -1.929346e+02   5.184034e+01
  -1.946364e+02  -1.213069e+02
  -5.678888e+01  -2.432435e+02
   1.261472e+02  -1.147481e+02
   8.995935e+01  -3.342350e+01
   3.985076e+01  -1.093205e+00
   1.418471e+01  -1.488038e+01
   7.959180e+01  -3.380748e+01
   7.316290e+01   2.936121e+00
   3.771418e+01   5.980662e+01
  -6.071137e+01   1.085629e+02
  -8.921619e+01   4.660837e+01
  -1.156152e+02  -3.919912e+01
   5.250914e+01  -8.976077e+01
   1.343991e+02  -5.096691e+01
   1.645814e+02   3.769306e+01
   9.103459e+01   2.416226e+02
  -7.599198e+01   2.485868e+02
  -2.384130e+02   1.100176e+02
  -2.457715e+02  -8.410321e+01
  -1.682793e+02  -1.824685e+02
   3.205305e+01  -1.191530e+02
   7.664789e+01  -9.885903e+01
   5.847746e+01  -6.917022e+01
   6.763111e+01  -7.274363e+01
   1.348481e+02  -5.719152e+01
   1.036455e+02   2.845956e+01
   1.233482e+02   1.805921e+02
   4.017425e+01   2.216466e+02
  -1.585547e+02   1.617715e+02
  -1.634864e+02   2.947096e+01
  -9.709426e+01  -1.356722e+02
  -7.386217e+01  -1.315413e+02
   5.985211e+01  -1.323846e+02
   8.809610e+01  -3.604137e+01
   2.699351e+01   1.458088e+01
   2.401390e+01   3.413603e+01
   5.112131e+01   2.982816e+00
   5.560270e+01   4.402857e+01
   2.222587e+00   6.181471e+01
  -6.427666e+01   4.589212e+01
  -1.696385e+02   3.302241e+00
  -1.461214e+02  -6.499652e+01
   1.524501e+01  -1.208378e+02
   1.211372e+02  -4.836039e+01
   1.520128e+02   2.451974e-01
   5.539513e+01   2.149550e+01
  -7.928645e+01   5.969959e+01
  -9.757422e+01  -5.048951e+01
  -1.523013e+01  -8.042591e+01
   3.535430e+01  -3.857959e+01
   7.104555e+01  -1.148870e+01
   5.208197e+01   5.867140e+01
  -4.186011e+00   5.148745e+01
   5.868589e+01  -4.926918e+01
   7.341111e+01  -8.814879e+00
   9.249559e+01   5.391730e+01
  -2.770280e+01   1.236032e+02
  -1.196381e+02   1.105674e+02
  -1.714972e+02   3.550178e+01
  -1.170244e+02  -8.434860e+01
   1.222819e+01  -9.215673e+01
   5.865869e+01  -5.400883e+01
   3.828767e+01   2.227411e+01
  -8.667287e+01   7.648098e+00
  -1.498659e+02  -2.467066e+01
  -3.993706e+01  -8.924666e+01
   1.051665e+02  -1.128104e+02
   2.199338e+02  -4.102872e+01
   1.364458e+02   3.642354e+01
   3.946357e+01   7.564538e+01
  -1.024122e+01   1.140475e+02
  -3.008723e+01   2.577424e+01
  -2.750160e+01  -3.750065e+01
   6.725469e+01   3.765001e+01
   3.675465e+01   1.005690e+02
  -7.725472e+01   1.359954e+02
  -2.013460e+02   6.719155e+01
  -1.331459e+02  -1.057104e+02
  -8.128949e+00  -1.735319e+02
   9.917591e+01  -9.299855e+01
   1.478810e+02   5.097394e+00
   5.414928e+01   8.569106e+01
  -1.521498e+01   3.924284e+01
  -5.528158e+01   3.891054e+01
  -8.948948e+00  -6.825769e+01
  -1.511853e+01  -4.848287e+01
  -3.671165e+01   6.461100e+00
  -5.559177e+01  -4.710095e+01
  -7.969953e+01  -9.573239e+01
  -4.068874e+01  -1.006030e+02
   6.232532e+01  -2.778193e+01
   1.468357e+02   2.196877e+01
   1.135450e+02   1.008872e+02
   3.960619e+01   3.389307e+01
  -8.916843e+01   2.290520e+01
  -1.138073e+02   1.292914e+01
  -1.870632e+01   9.970092e+00
   2.823649e+01  -1.933804e+01
   5.366889e+01  -1.700532e+01
  -2.494083e+01  -5.598856e+01
  -1.308210e+01  -6.763064e+00
   9.314590e+01   1.828354e+01
   1.352397e+02   2.604987e+01
   1.267413e+01   1.381266e+02
  -1.083887e+02   9.966869e+01
  -1.747399e+02   5.114344e+01
  -1.607283e+02  -6.123930e+01
  -3.389970e+01  -1.501721e+02
   5.491534e+01  -1.177057e+02
   1.047672e+02  -2.757322e+01
   7.243921e+01   2.843709e+01
   2.140439e+01  -5.087925e+00
   2.032188e+01  -3.595895e+01
   3.325512e+01  -1.229883e+01
   6.754385e+01   7.877278e+01
   4.700887e+01   1.156442e+02
  -2.940924e+01   8.356103e+01
  -9.225046e+01  -1.767171e+01
  -1.005669e+02  -1.068798e+02
  -1.850358e+01  -1.156460e+02
   8.184531e+01  -3.505875e+01
   8.245874e+01   1.104728e+02
   4.227197e+01   1.082670e+02
  -4.949123e+01   4.401191e+01
  -9.000986e+01  -1.817327e-01
  -4.518305e+01  -2.398431e+01
   2.424372e+01  -7.814661e+01
   4.744125e+01   9.823788e+00
  -3.751513e+01   4.222012e+01
  -1.057699e+02   2.325113e+00
  -2.071343e+01  -4.445034e+00
   4.791810e+01  -7.115010e+01
   1.055111e+02  -9.486410e+01
   3.697472e+01   1.419314e+01
  -3.797973e+01   7.382343e+01
  -7.086596e+01   7.412038e+01
  -2.840688e+01  -2.171741e+00
  -8.429497e+00  -7.494960e+01
   2.312026e+01  -4.349298e+01
   6.403509e+01   3.248707e+01
   2.584315e+01   4.100145e+01
   1.898715e+01   5.580639e+01
  -4.540468e+01   4.745861e+00
  -3.075845e+01  -4.251582e+01
  -3.892117e+01  -5.061351e+00
   4.289698e+01  -2.018088e+01
   1.416047e+01  -7.487278e+00
  -2.050944e+01   1.024644e+01
   1.728651e+01  -2.313901e+01
   6.713271e+01   4.468994e+00
   2.575445e+01   5.509575e+01
  -3.538751e+01   7.009630e+01
  -3.290039e+01   2.020373e+01
  -3.459601e+01  -2.645825e+01
  -3.124338e+00  -6.897946e+01
   5.372538e+01  -3.304942e+01
   5.226958e+01   2.777620e+01
   5.780560e+01   6.334860e+01
  -5.378123e+01   3.132818e+01
  -6.848912e+01   2.746997e+01
  -3.328893e+01   1.237435e+00
   6.063241e+01   2.973615e+00
   5.646158e+01   4.832422e+01
  -3.731376e+01   2.224364e+01
  -9.274760e+01   2.433558e+01
