
 $NMID
 id='ANONYMOUS ', fmtdat='(2E16.6)'
 volume=1.0
 tramp=1.0
 $END
   4.545175e+03  -1.031847e+02
   2.576328e+03   2.960986e+03
  -8.386001e+02   2.903881e+03
  -2.186082e+03   7.419947e+02
  -9.323786e+02  -8.671479e+02
   8.722944e+02  -6.582372e+02
   9.877234e+02   5.869426e+02
  -7.930977e+01   1.240453e+03
  -9.678228e+02   7.103173e+02
  -9.586896e+02  -1.886383e+02
  -3.470233e+02  -9.557140e+02
   3.959413e+02  -9.248639e+02
   6.048421e+02  -4.658413e+01
   3.994402e+02   8.527989e+02
  -3.631268e+02   7.500515e+02
  -6.550476e+02  -8.174318e+01
  -2.358828e+02  -7.424589e+02
   4.118301e+02  -7.606264e+02
   6.854066e+02  -1.111520e+01
   3.673112e+02   4.308292e+02
  -5.770900e+01   5.089036e+02
  -2.554487e+02   2.268131e+02
  -3.105888e+02   4.778025e+00
   7.919892e+01  -1.293424e+02
   4.445095e+02   6.579231e-01
   2.599697e+02   4.061254e+02
  -4.145315e+02   4.647374e+02
  -9.334866e+02  -9.111593e+00
  -4.551130e+02  -5.915708e+02
   4.399334e+02  -5.866099e+02
   8.101521e+02   2.652671e+01
   3.701715e+02   5.589517e+02
  -3.027403e+02   6.170112e+02
  -6.261893e+02   2.113753e+02
  -4.592989e+02  -2.683331e+02
  -1.928466e+01  -5.501266e+02
   2.286519e+02  -2.889069e+02
   1.948547e+02   2.710700e+02
  -2.228453e+02   4.957618e+02
  -5.427224e+02  -1.763021e+01
  -2.390849e+02  -7.378835e+02
   3.404591e+02  -6.969087e+02
   6.554898e+02   5.587808e+01
   1.980142e+02   5.672970e+02
  -3.547750e+02   2.777329e+02
  -3.954344e+02  -3.927188e+02
   1.015895e+02  -5.911662e+02
   6.075203e+02  -1.564505e+02
   6.681726e+02   4.015255e+02
   1.935758e+02   6.298545e+02
  -4.038578e+02   3.791167e+02
  -7.009153e+02  -6.258780e+01
  -3.991913e+02  -4.204150e+02
   1.646336e+02  -4.353771e+02
   4.981155e+02  -7.572028e+01
   2.529124e+02   2.132051e+02
  -1.468691e+02   1.544667e+02
  -1.791984e+02  -1.966619e+02
   2.527197e+02  -2.282901e+02
   4.398131e+02   9.884439e+01
   1.049810e+02   3.696715e+02
  -2.248078e+02   2.726403e+02
  -3.879358e+02   6.892329e+01
  -1.825540e+02  -1.070802e+02
   4.839836e+01  -2.356456e+02
   2.397790e+02  -2.988143e+02
   3.598470e+02  -2.172309e+02
   3.173933e+02   1.087724e+02
   7.118279e+01   4.675640e+02
  -1.879808e+02   4.103690e+02
  -1.708307e+02   1.024136e+02
   2.713778e+01  -3.259168e+01
  -5.495294e+00   7.784779e+01
  -1.894910e+02   1.179693e+02
  -3.009433e+02  -3.183086e+01
  -1.630110e+02  -3.001205e+02
   4.218069e+01  -2.695604e+02
   2.375469e+02  -5.347510e+01
   1.845418e+02   2.347683e+02
  -9.840899e+00   3.103554e+02
  -2.483520e+02   8.881017e+01
  -3.209093e+02  -1.696920e+02
  -1.826452e+02  -3.721089e+02
   8.680588e+01  -3.113157e+02
   2.160162e+02  -1.179501e+02
   1.245861e+02  -7.851213e-01
   7.367483e+01  -4.839612e+01
   2.522919e+02  -4.828482e+01
   4.142886e+02   6.151319e+01
   2.890000e+02   2.999781e+02
  -8.261808e-01   4.176619e+02
  -3.823007e+02   4.308967e+02
  -5.124315e+02   2.612516e+02
  -3.776704e+02  -8.165945e+01
  -5.670774e+01  -3.377577e+02
   1.849352e+02  -2.648063e+02
   7.989371e+01  -4.304184e+01
  -5.968825e+01   8.710052e+01
  -2.480806e+02  -1.032271e+01
  -1.013172e+02  -1.971423e+02
   1.439866e+02  -2.111148e+02
   1.364016e+02   5.458901e+01
  -2.369085e+00   1.697958e+02
  -1.565121e+02  -6.741953e+00
  -1.278801e+02  -2.984567e+02
   6.087129e+01  -3.355299e+02
   2.552940e+02  -1.921295e+02
   3.526439e+02   1.068836e+02
   3.380049e+02   2.544046e+02
   1.244883e+02   2.802011e+02
  -8.272679e+01   2.206018e+02
  -2.199350e+02   1.757615e+01
  -9.054548e+01  -5.506419e+00
   4.601550e+01   6.772740e+01
   2.726479e+01   1.147887e+02
  -7.738473e+01   1.060458e+02
  -1.770235e+02  -6.820409e+01
  -5.874905e+01  -8.006350e+01
   4.253561e+01  -1.750780e+01
   5.251085e+01   8.317931e+01
  -1.243792e+02   6.398614e+01
  -2.712986e+02  -1.145354e+01
  -3.036439e+02  -1.295475e+02
  -6.763611e+01  -2.820476e+02
   2.001453e+02  -3.013482e+02
   2.611340e+02  -1.458761e+02
   1.620959e+02   1.199380e+01
  -3.130837e+01   1.078809e+02
  -9.611109e+01   3.222351e+01
   4.219387e+01  -1.318380e+02
   1.417003e+02  -9.270837e+01
   2.231561e+02   1.167957e+02
   7.736304e+01   2.460196e+02
  -1.033757e+02   1.581313e+02
  -1.169456e+02   4.030750e+01
  -6.211772e+01  -6.365858e+01
   3.381083e+01  -2.236861e+01
   7.357774e+01   5.424758e+01
  -7.789658e+01   1.050385e+02
  -2.120579e+02   2.610218e+01
  -2.380799e+02  -1.311616e+02
  -5.964705e+01  -2.377928e+02
   1.666347e+02  -1.516686e+02
   2.386352e+02  -1.292676e+01
   5.274180e+01   1.091473e+02
  -7.954023e+01   1.453840e+02
  -9.630520e+01   4.409323e+00
  -4.948814e+01  -1.035947e+02
   2.663206e+01  -4.207302e+01
   1.103609e+01  -1.710291e+01
  -1.097990e+02  -1.080491e+01
  -7.643401e+01  -4.016458e+01
  -1.318566e+01  -2.071757e+02
   1.335927e+02  -1.291115e+02
   2.513638e+02  -7.065484e+00
   1.799023e+02   1.494102e+02
   3.605723e+01   2.609141e+02
  -1.195134e+02   1.681383e+02
  -1.353697e+02   3.591670e+01
  -3.807698e+01  -2.821254e+01
  -4.218089e+01  -4.583557e+01
  -9.647790e+01  -3.693266e+00
  -1.195190e+02   7.797298e-01
  -2.802349e+01  -5.762125e+01
   3.757890e+01  -4.132215e+01
   7.565472e+01  -4.087194e+01
   1.173971e+02   6.701221e+01
  -1.181985e+01   1.721619e+02
  -1.640966e+02   1.012398e+02
  -1.890027e+02  -9.279479e+01
  -1.706065e+02  -2.280094e+02
   9.738139e+01  -2.427854e+02
   2.404244e+02  -1.460270e+02
   2.820664e+02   5.044438e+01
   1.834941e+02   1.643942e+02
  -3.904602e+01   1.867379e+02
  -1.032041e+02   1.277232e+02
  -9.891109e+01   6.710497e+01
  -6.408494e+01   3.750749e+01
  -8.128978e+01   8.069592e+01
  -1.435053e+02  -2.640176e+01
  -8.822411e+01  -2.024006e+02
   1.858196e+01  -2.638704e+02
   1.268305e+02  -1.521518e+02
   1.758064e+02   2.424086e+01
   1.170141e+02   1.333057e+02
  -1.826000e+01   1.470375e+02
  -9.455862e+01   4.393146e+01
  -6.616692e+01  -1.735470e+01
  -1.610691e+01  -4.308401e+01
   1.345382e+01  -4.299381e+01
   1.692318e+00  -2.357483e+01
  -7.000363e+01  -1.558352e+01
  -2.947868e+01  -3.273063e+01
   5.565328e+01  -3.486901e+01
   1.404702e+02  -1.596409e+01
   1.539691e+02   8.170690e+01
   2.216797e+01   1.295239e+02
  -1.355490e+02   8.031546e+01
  -1.538198e+02   4.874990e+00
  -1.034935e+01  -3.071225e+01
   7.597482e+01  -3.056229e+01
   6.777797e+01   2.570283e+01
   1.842473e+01   6.125993e+01
  -4.368487e+01   5.276729e+01
  -5.478788e+01   3.834582e+00
  -6.373647e+01  -6.739104e+01
  -4.757054e+01  -6.111442e+01
  -9.653767e+01  -1.703931e+01
  -5.051315e+01  -1.621366e+01
  -1.633110e+01  -8.613880e+01
   1.299806e+01  -1.780055e+02
   1.204322e+02  -1.510872e+02
   1.727019e+02   1.175248e+01
   1.101677e+02   1.442939e+02
   9.797402e+00   1.060252e+02
  -1.111780e+02   2.616558e+01
  -7.677872e+01  -1.645576e+01
   2.103839e+01   1.085555e+01
   1.052806e+02   4.836971e+01
   4.631078e+01   8.896749e+01
  -7.392564e+01   7.266720e+01
  -1.756540e+02   6.274162e+01
  -1.695919e+02  -2.186841e+01
   9.705166e+00  -7.240560e+01
   7.550321e+01  -5.687011e+01
   2.259294e+01   7.700134e+00
  -4.788469e+01   1.878532e+01
  -8.201535e+01  -4.476425e-01
  -4.253937e+01  -1.150776e+02
   7.308613e+01  -1.693485e+02
   1.742681e+02  -8.891799e+01
   1.116861e+02   9.091345e+01
   1.497313e+01   1.603136e+02
  -1.037314e+02   1.253978e+02
  -1.195756e+02  -2.152604e+01
  -5.897527e+01  -1.030011e+02
   2.271153e+01  -7.124762e+01
   1.331174e+01  -2.823342e+01
   5.898293e+01   3.922810e+01
   3.710881e+01  -2.063808e-01
   9.684181e-01   1.310542e+01
   3.261083e+01   3.080424e+01
   6.654521e+01   8.584303e+01
   3.303058e+01   1.630106e+02
  -6.908216e+01   6.878328e+01
  -1.677072e+02   1.585586e+01
  -1.200463e+02  -6.395615e+01
  -2.645439e+01  -7.432539e+01
   1.061912e+02  -2.652131e+01
   7.227017e+01  -1.449622e+01
  -4.010659e+01  -1.660560e+01
  -8.407257e+00   3.516294e+01
  -6.717879e+00   1.362689e+01
  -1.475150e+01  -5.169068e+01
   1.528201e+01  -8.818612e+00
  -9.010074e+01  -3.344009e+01
  -8.524297e+01  -5.586634e+01
  -6.968542e+00  -1.015575e+02
   1.443097e+02  -1.298442e+02
   1.854466e+02  -3.334065e+01
   1.206911e+02   8.383169e+01
   2.692583e+00   1.742030e+02
  -1.044416e+02   1.319141e+02
  -1.109975e+02   3.265290e+01
  -7.769435e+01  -3.743688e+00
  -2.708875e+01  -6.019346e+00
  -2.328838e+01   5.651077e+00
  -8.366894e-01   2.964804e+01
  -2.847568e+01  -4.794026e+01
  -2.739887e+01  -9.073683e+01
   2.538414e+01  -4.473619e+01
   6.885613e+01   5.475993e+01
   2.166683e+01   9.798619e+01
  -2.382993e+01   1.281720e+02
  -7.510773e+01   4.394414e+01
  -7.520795e+01  -1.103059e+02
  -1.205562e+01  -1.193474e+02
   9.594533e+01  -6.252445e+01
   7.913619e+01   5.419121e+00
  -1.923047e+00   5.818755e+01
  -1.314186e+01   6.601375e+01
  -9.051997e+01   1.370833e+01
   2.765417e+01  -3.926264e+01
   4.166231e+01   1.103911e+01
  -3.102731e+01  -3.143186e+01
  -5.204766e+01   8.302802e+01
  -1.423313e+02   9.683550e+01
  -5.711387e+01   1.068932e+01
   7.110456e+00  -8.947093e+01
   7.495483e+01  -6.609830e+01
   8.222272e+01  -3.575676e+01
   1.346102e+01   6.636802e+01
  -3.383675e+01   4.963495e+01
  -3.095294e+01  -3.804272e+01
   1.995725e+00  -4.964616e+01
   1.135983e+01  -1.217924e+00
   4.290311e+01   7.546158e+00
   1.684320e+01   6.481087e+01
   3.257382e+00   3.944637e+01
  -3.515980e+01  -1.274813e+01
   4.567405e+00   2.984537e+00
  -1.055890e+01   3.594594e+01
  -2.388605e+01   5.323736e+01
  -2.371454e+01  -7.370297e+00
   1.341087e+01  -3.382492e+01
   3.692774e+01  -8.732599e+01
   7.485621e+01  -3.907224e+01
   7.550183e+01   4.844078e+01
   4.224292e+01   6.150508e+01
  -3.032398e+01   5.919387e+01
  -7.996089e+01  -1.833361e+01
  -5.499995e+01  -5.763646e+01
   2.620147e+01  -4.431155e+01
   8.646853e+01  -1.428882e+01
  -2.545873e+01   1.994184e+01
  -2.743149e+01  -1.340306e+01
  -3.944101e+01  -4.391677e+00
   3.278499e+01  -2.201467e+01
   8.106460e+01  -2.912483e+01
