
 $NMID
 id='ANONYMOUS ', fmtdat='(2E16.6)'
 volume=1.0
 tramp=1.0
 $END
   4.604182e+03   7.485572e+00
   2.576581e+03   2.787383e+03
  -9.137982e+02   2.938974e+03
  -2.243311e+03   8.787919e+02
  -9.821525e+02  -7.903485e+02
   8.525716e+02  -6.268395e+02
   9.757894e+02   5.682654e+02
   6.447912e+01   1.218583e+03
  -9.572900e+02   8.194878e+02
  -8.866817e+02  -2.223332e+02
  -4.223049e+02  -1.065302e+03
   4.090677e+02  -1.025710e+03
   7.444082e+02  -1.055704e+02
   3.857022e+02   8.520487e+02
  -3.414901e+02   8.526547e+02
  -6.687501e+02  -2.840463e+01
  -2.609126e+02  -7.547262e+02
   4.421945e+02  -6.682035e+02
   6.650276e+02  -7.832204e+01
   3.320733e+02   3.709449e+02
  -1.463614e+01   4.581815e+02
  -3.133209e+02   2.863249e+02
  -2.715064e+02  -1.452441e+01
   1.060637e+02  -4.201689e+01
   4.097462e+02   2.500452e+01
   1.962392e+02   4.115948e+02
  -4.334989e+02   4.423610e+02
  -9.454259e+02  -1.094644e+02
  -4.791526e+02  -6.056596e+02
   3.986392e+02  -5.434683e+02
   8.150755e+02   5.216263e+01
   3.621521e+02   4.318673e+02
  -2.784562e+02   5.880596e+02
  -5.590007e+02   2.224926e+02
  -4.532886e+02  -2.121415e+02
  -1.068087e+02  -5.160254e+02
   2.016356e+02  -3.498397e+02
   2.594425e+02   2.151434e+02
  -1.166832e+02   4.822937e+02
  -4.707690e+02   3.773568e+01
  -2.858488e+02  -7.674918e+02
   3.322886e+02  -7.645235e+02
   7.147091e+02  -4.023372e+01
   3.302540e+02   6.169934e+02
  -2.658916e+02   3.636912e+02
  -4.048563e+02  -2.938046e+02
   4.518055e+01  -5.612766e+02
   5.832471e+02  -1.692840e+02
   6.636301e+02   3.919032e+02
   1.797663e+02   5.916531e+02
  -4.103326e+02   4.105626e+02
  -6.805379e+02  -2.920873e+01
  -3.756775e+02  -3.835794e+02
   1.937733e+02  -3.444652e+02
   4.628976e+02  -3.464946e+01
   2.508469e+02   2.625583e+02
  -1.752493e+02   1.271965e+02
  -1.498519e+02  -2.185027e+02
   2.114947e+02  -2.335621e+02
   4.009697e+02   3.675234e+01
   1.495271e+02   3.891414e+02
  -2.599594e+02   2.484697e+02
  -3.412201e+02   6.417597e+01
  -1.238362e+02  -7.155184e+01
   1.821751e+01  -1.742603e+02
   2.126360e+02  -3.105527e+02
   3.142235e+02  -2.527601e+02
   3.455545e+02   1.486998e+02
   6.947772e+01   4.892321e+02
  -1.915037e+02   4.220928e+02
  -1.846248e+02   1.073728e+02
  -3.705879e+01  -7.657587e+01
   5.488900e+00   3.137024e+01
  -1.574911e+02   1.537198e+02
  -3.231716e+02  -2.588209e+01
  -1.818708e+02  -2.949896e+02
   5.539833e+00  -2.357714e+02
   2.334191e+02  -1.148159e+01
   1.830327e+02   2.237842e+02
  -3.364746e-01   2.871142e+02
  -2.849677e+02   1.666625e+02
  -3.432053e+02  -1.596337e+02
  -1.776936e+02  -3.718635e+02
   9.089680e+01  -3.461113e+02
   2.256376e+02  -1.158293e+02
   1.438643e+02   6.710950e+01
   3.813504e+01   4.020898e+01
   2.182835e+02  -8.241724e+01
   4.091343e+02  -2.855801e+00
   3.255770e+02   2.751692e+02
  -1.277024e+01   4.144804e+02
  -3.312910e+02   4.072463e+02
  -4.659927e+02   1.977930e+02
  -3.399595e+02  -6.577264e+01
  -7.549317e+01  -3.246429e+02
   1.319186e+02  -2.905240e+02
   1.325731e+02  -1.901048e+01
  -6.445686e+01   1.263676e+02
  -1.816980e+02   1.492837e+01
  -1.168165e+02  -2.561419e+02
   2.032838e+02  -2.174974e+02
   2.324129e+02   6.469084e+01
   3.209811e+01   2.683910e+02
  -1.672460e+02   7.477656e+01
  -1.936662e+02  -2.500396e+02
   4.700890e+01  -4.067426e+02
   2.419808e+02  -2.019788e+02
   3.190845e+02   4.770151e+01
   2.844088e+02   2.244081e+02
   1.005641e+02   3.156006e+02
  -8.595090e+01   1.153752e+02
  -1.995999e+02   2.395884e+01
  -2.783142e+01  -5.197686e+01
   6.874953e+01   7.298625e+00
   8.967801e+01   1.256883e+02
  -8.039606e+01   1.751321e+02
  -2.031826e+02  -3.660717e+00
  -6.605619e+01  -1.040587e+02
   7.276452e+01  -4.949656e+01
   7.643733e+01   2.318184e+01
  -1.009980e+02   8.724292e+01
  -2.326992e+02  -4.794873e+00
  -2.320587e+02  -1.023815e+02
  -1.042620e+02  -2.420571e+02
   1.436909e+02  -2.057325e+02
   2.619638e+02  -1.137072e+02
   1.777472e+02   5.372072e+01
  -1.002306e+01   1.337875e+02
  -1.012932e+02   1.555724e+01
  -2.660902e+01  -7.679253e+01
   1.871138e+02  -8.433195e+00
   1.921780e+02   1.516922e+02
   7.995561e+01   1.827864e+02
  -8.973130e+01   1.253341e+02
  -1.559669e+02   1.547057e+01
  -9.572676e+01  -2.603960e+01
  -5.508683e+00  -9.878003e+00
   1.469903e+01   1.074014e+02
  -4.509384e+01   1.046644e+02
  -1.659256e+02   1.982354e+01
  -2.099658e+02  -1.514949e+02
  -2.516600e+01  -2.313227e+02
   2.000245e+02  -1.884443e+02
   2.250068e+02  -2.171711e+01
   5.914265e+01   1.067884e+02
  -3.520551e+01   9.277661e+01
  -8.377012e+01   3.404374e+01
  -1.224062e+01  -3.679931e+01
   3.852214e+01  -2.815343e+01
  -3.154873e+01  -2.394766e+01
  -5.742103e+01  -8.746505e+00
  -9.875284e+01  -5.068450e+01
  -3.179754e+01  -1.511433e+02
   7.508650e+01  -1.516398e+02
   2.075004e+02  -3.340097e+01
   2.023670e+02   1.508870e+02
   2.758717e+01   2.382934e+02
  -1.434868e+02   2.260712e+02
  -1.718913e+02   8.173808e+00
  -7.380597e+01  -7.974071e+01
  -2.455870e+01  -5.741144e+01
  -4.786243e+01   4.757977e+01
  -7.287704e+01   5.456710e+00
  -2.890339e-01  -3.684875e+01
   2.416596e+01  -8.510671e+01
   1.169500e+02  -4.576227e+01
   4.776063e+01   2.411451e+01
   9.001691e-01   1.008905e+02
  -1.138306e+02   1.187423e+02
  -1.556979e+02  -6.280237e+01
  -1.220400e+02  -1.854272e+02
   9.729691e+01  -2.881784e+02
   2.746098e+02  -7.501457e+01
   2.593059e+02   7.312552e+01
   1.189697e+02   1.537700e+02
  -5.389915e+01   1.601993e+02
  -1.153565e+02   1.158973e+02
  -8.537541e+01   7.219814e+01
  -7.288386e+01   9.485219e+01
  -1.270268e+02   8.511513e+01
  -1.434468e+02  -1.710586e+01
  -8.272545e+01  -1.216285e+02
  -8.362666e+01  -2.523645e+02
   9.358292e+01  -2.188202e+02
   1.766728e+02   1.054178e+01
   1.600618e+02   1.429860e+02
   3.428573e+01   1.696103e+02
  -6.051577e+01   1.144780e+02
  -5.622766e+01  -1.059666e+01
  -4.920339e+01  -2.475185e+01
  -4.808062e+00  -9.084882e+00
  -3.489622e+01  -1.477204e+01
  -5.852771e+01  -2.956787e+01
  -3.176841e+01  -4.339496e+01
   1.111764e+02  -3.383785e+01
   1.609220e+02  -2.601174e+01
   1.837191e+02   6.498274e+01
   5.683332e+01   8.365154e+01
  -1.390157e+02   7.567313e+01
  -1.978612e+02   3.853039e+01
  -6.014731e+01  -5.132719e+01
   7.597290e+01  -4.097527e+01
   1.039957e+02   7.669155e-01
   2.609299e+01   6.456610e+01
  -5.307899e+01   7.323290e+01
  -1.021546e+02   3.531745e+00
  -6.464413e+01  -6.344052e+01
  -8.587259e+01  -2.282040e+01
  -4.201866e+01   3.809660e+01
  -7.172345e+01   1.736459e+00
  -6.481733e+01  -1.973499e+01
   3.124499e+01  -1.395112e+02
   1.157047e+02  -1.195513e+02
   1.207646e+02  -5.278096e+01
   1.244437e+02   1.272749e+02
   3.411638e+01   1.800230e+02
  -3.630222e+01   1.269873e+02
  -3.547166e+01   1.976971e+01
   4.463595e+01   1.051035e+01
   1.122468e+02   1.653001e+01
   5.057761e+01   1.060809e+02
  -1.120200e+02   1.183038e+02
  -1.710594e+02   6.360848e+01
  -1.911366e+02   1.808700e+01
  -4.374373e+01  -1.208978e+02
   9.244533e+00  -1.249533e+02
   4.489384e+01  -7.153324e+00
  -2.932717e+01   2.504885e+01
  -4.625308e+01  -3.678494e+01
  -1.030793e+01  -9.877548e+01
   7.055210e+01  -1.221386e+02
   1.182505e+02  -4.096358e+01
   1.033728e+02   1.001535e+02
   1.628584e+01   2.056497e+02
  -9.283445e+01   1.855478e+02
  -1.002572e+02   5.181476e+00
  -4.769271e+01  -1.426680e+02
  -1.049627e+01  -1.346334e+02
   5.376100e+01  -4.694352e+01
   2.638029e+01   4.046923e+01
   5.720824e+01   6.076511e+01
   5.647554e+01  -2.236278e+01
   3.806432e+01  -1.149105e+00
   5.246053e+01   5.784445e+01
   3.575393e+01   8.325345e+01
   1.659681e+00   6.196173e+01
  -1.649135e+02   1.052982e+01
  -1.359674e+02  -6.619994e+01
  -9.664383e+01  -7.112100e+01
   6.791275e+01  -3.859527e+01
   1.286957e+02  -4.455681e+01
   3.433146e+01   2.774059e+01
  -7.378962e+01   9.119534e+00
  -5.958655e+01   9.554318e+00
   3.707300e+01   7.746746e-01
   8.642405e+00  -7.791298e+00
  -7.085455e+01  -8.074086e-01
  -1.035142e+02  -2.690614e+01
   2.045475e+01  -6.952176e+01
   1.499512e+02  -1.211047e+02
   1.385479e+02  -5.552727e+01
   1.209057e+02   2.910116e+01
   4.721324e+01   1.433652e+02
  -7.905290e+01   1.476263e+02
  -1.172146e+02   1.117198e+02
  -9.288930e+01   1.177329e+01
  -2.837232e+01  -5.143398e+01
  -2.457941e+01  -8.822504e+00
  -5.012388e+00   6.010860e+01
  -4.734433e+01  -4.044961e+01
  -4.609940e+01  -8.708931e+01
   1.372539e+01  -3.661898e+01
   5.890699e+01   2.299027e+01
   9.938539e+01   8.191728e+01
   3.861871e+00   8.506914e+01
  -3.314437e+01   1.519736e+00
  -1.122828e+02  -1.128174e+02
   4.639436e+00  -6.917123e+01
   9.051753e+01  -5.320646e+01
   9.597924e+01   1.236954e+01
   8.631654e+01   7.633563e+01
  -3.716572e+01   5.569067e+01
  -2.141234e+01   6.860085e+01
   3.782854e+01   2.893889e+01
   8.697835e+01   2.889579e+01
  -2.783016e+01   1.340803e+01
  -4.275308e+01   7.582917e+01
  -1.146882e+02   5.874414e+01
  -6.510636e+01  -3.366887e+00
   4.623006e+00  -5.047462e+01
   2.965109e+01  -8.201092e+01
   1.869836e+01   1.730289e+00
   1.585651e+01   7.153058e+01
   2.860556e+00   1.788578e+01
  -6.701632e+01  -3.457486e+01
   2.195497e+01  -3.971897e+01
   5.486576e+01  -2.347159e+01
   4.221272e+01   1.834282e+01
   4.416337e+01   5.783623e+01
  -5.633548e+01   2.082808e+01
   1.584560e+01  -4.278580e+00
   2.766377e+00  -9.497902e+00
   3.076422e+01   1.633074e+01
  -3.663774e+00   4.540190e+01
   1.822203e+01   3.377069e+01
  -1.926086e+01  -3.247406e+01
  -3.992524e+01  -3.311906e+01
   4.016434e+01   6.127080e+00
   7.655791e+01   7.087367e+01
   3.565978e+01   5.657138e+01
  -3.331315e+01   2.727687e+01
  -7.644626e+01  -8.688383e+00
  -5.620468e+01  -6.071982e+01
  -4.963591e+00  -4.065762e+01
   3.002531e+01   1.428926e+01
   1.134913e+01   3.822884e+01
  -1.336596e+01   8.971942e+00
  -1.628218e+01  -3.531902e+01
   4.524130e+01  -6.001098e+01
   9.091670e+01  -1.625252e+01
