
 $NMID
 id='ANONYMOUS ', fmtdat='(2E16.6)'
 volume=1.0
 tramp=1.0
 $END
   4.650356e+03   3.845285e+01
   2.543295e+03   2.775960e+03
  -7.789448e+02   2.910582e+03
  -2.205125e+03   8.726071e+02
  -9.801742e+02  -6.837848e+02
   8.923491e+02  -6.004479e+02
   9.577196e+02   5.004762e+02
  -5.135151e+01   1.188797e+03
  -8.485093e+02   8.558486e+02
  -1.092067e+03  -1.367786e+02
  -4.819865e+02  -9.101831e+02
   2.670800e+02  -9.941135e+02
   6.786044e+02  -1.488602e+02
   4.130408e+02   8.474290e+02
  -4.242873e+02   7.910083e+02
  -6.225939e+02  -2.400234e+01
  -3.180979e+02  -8.022674e+02
   3.089278e+02  -5.920825e+02
   6.409507e+02  -4.156321e+01
   2.983834e+02   4.152285e+02
   6.506474e+01   4.346483e+02
  -2.813429e+02   2.353391e+02
  -2.004377e+02  -1.657723e+01
   1.381360e+02  -9.202055e+01
   4.293977e+02   1.322941e+02
   1.912480e+02   4.870587e+02
  -4.820749e+02   4.505226e+02
  -9.377962e+02  -1.217001e+02
  -4.600380e+02  -5.883356e+02
   4.482458e+02  -5.407582e+02
   9.125983e+02   1.626049e+01
   3.987448e+02   5.629035e+02
  -3.554073e+02   5.457973e+02
  -5.313851e+02   2.440383e+02
  -4.307531e+02  -2.730328e+02
  -4.093758e+01  -5.400544e+02
   2.412320e+02  -2.971835e+02
   1.758165e+02   2.641319e+02
  -1.612777e+02   5.129033e+02
  -4.230313e+02  -4.017683e+01
  -2.297587e+02  -7.485188e+02
   3.737481e+02  -7.735596e+02
   6.316102e+02  -1.386515e+01
   3.087090e+02   6.473386e+02
  -3.115715e+02   3.806518e+02
  -3.648059e+02  -3.427722e+02
   4.230106e+01  -5.462874e+02
   5.905962e+02  -1.115885e+02
   5.881354e+02   4.615285e+02
   1.849868e+02   6.127349e+02
  -4.442396e+02   3.898547e+02
  -6.551818e+02  -5.552357e+01
  -4.178947e+02  -3.888074e+02
   1.398878e+02  -3.789024e+02
   4.409693e+02  -5.712318e+01
   2.176709e+02   2.250934e+02
  -8.703623e+01   1.160753e+02
  -1.378932e+02  -2.081952e+02
   2.148511e+02  -1.939846e+02
   3.512148e+02   1.055389e+02
   1.771634e+02   3.604692e+02
  -1.759076e+02   2.839699e+02
  -3.079929e+02   3.096439e+01
  -1.320861e+02  -9.210587e+01
   7.262169e+01  -2.114692e+02
   2.166164e+02  -3.313392e+02
   3.840224e+02  -1.879010e+02
   2.874233e+02   1.941646e+02
   9.580259e+01   5.040444e+02
  -1.728860e+02   4.516842e+02
  -1.875723e+02   1.247445e+02
  -4.958391e+01  -4.891636e+01
  -2.356863e+01   7.851597e+01
  -2.041356e+02   1.257056e+02
  -2.971519e+02  -7.614240e+01
  -1.910252e+02  -2.967183e+02
   5.967170e+01  -2.969956e+02
   2.415920e+02  -4.479925e+01
   2.525166e+02   2.774030e+02
   3.836241e+01   3.296488e+02
  -2.821934e+02   1.354669e+02
  -3.988540e+02  -1.482570e+02
  -2.114146e+02  -3.507726e+02
   1.034824e+02  -3.151007e+02
   2.889602e+02  -1.847793e+02
   1.620498e+02   1.675720e+01
   8.067854e+01   6.655362e+00
   2.266411e+02  -4.457726e+01
   4.225908e+02   2.586320e+01
   3.542493e+02   3.023978e+02
  -1.064324e+01   4.628584e+02
  -4.044184e+02   4.766934e+02
  -5.536225e+02   2.327230e+02
  -3.555121e+02  -7.801021e+01
  -9.977217e+01  -3.550215e+02
   1.516960e+02  -2.862096e+02
   1.104621e+02  -4.071910e+01
  -1.029936e+02   1.043559e+02
  -2.000674e+02   1.666454e+01
  -6.738068e+01  -2.031735e+02
   1.277991e+02  -1.796699e+02
   1.366746e+02   5.602858e+01
  -1.753857e+01   1.969391e+02
  -2.081967e+02   2.401710e+01
  -1.471571e+02  -2.822388e+02
   6.191656e+01  -3.402752e+02
   2.147850e+02  -2.015404e+02
   3.252348e+02   4.369390e+01
   2.831278e+02   2.168549e+02
   1.442803e+02   2.405245e+02
  -7.906587e+01   2.070932e+02
  -2.105393e+02   2.314663e+01
  -7.047344e+01  -4.555744e+01
   8.400352e+01   6.956493e+01
   4.579553e+01   1.223316e+02
  -1.232500e+02   1.199484e+02
  -1.674463e+02   8.141084e+00
  -1.638838e+01  -8.471415e+00
   8.792236e+01   1.978441e+01
   4.920674e+01   8.291171e+01
  -1.476248e+02   7.773935e+01
  -2.667858e+02   1.320079e+01
  -2.607326e+02  -8.995452e+01
  -6.518818e+01  -2.416989e+02
   1.746431e+02  -2.532593e+02
   2.714150e+02  -1.131985e+02
   1.894413e+02   3.400307e+01
  -4.983746e+01   1.141916e+02
  -1.110770e+02   1.646687e+01
   5.060009e+01  -1.506799e+02
   1.842806e+02  -1.033761e+02
   2.275634e+02   8.505700e+01
   9.524622e+01   2.381799e+02
  -3.261158e+01   2.490290e+02
  -1.457613e+02   1.000674e+02
  -1.238748e+02  -1.942775e+01
   2.680728e+01  -2.823572e+00
   6.986550e+01   2.159088e+01
  -6.842144e+01   1.125232e+02
  -2.135723e+02   9.806259e+01
  -2.177329e+02  -1.032188e+02
  -5.475370e+01  -2.149761e+02
   1.533370e+02  -2.037025e+02
   2.475235e+02  -5.204324e+01
   8.165760e+01   1.292327e+02
  -1.088413e+02   1.574934e+02
  -1.345757e+02   7.512260e+01
  -2.179368e+01  -2.884222e+01
   1.768036e+01  -2.415166e+01
  -1.519847e+01   5.089266e+00
  -7.991977e+01  -4.512502e+01
  -1.277795e+02  -8.861591e+01
  -2.159849e+01  -1.740946e+02
   1.444195e+02  -1.061154e+02
   2.483636e+02   9.474524e-02
   1.885959e+02   1.322497e+02
   5.659651e+01   2.650066e+02
  -7.952162e+01   1.774774e+02
  -1.174536e+02   2.268970e+01
  -6.214082e+01  -5.471105e+01
  -2.839330e+01  -1.975600e+01
  -1.011199e+02   1.221925e+01
  -9.477039e+01   2.336662e+01
  -7.859700e+01  -6.239519e+01
   4.349434e+01  -8.908976e+01
   1.098237e+02  -7.469955e+01
   6.567106e+01   4.825113e+01
  -1.121591e+01   1.079249e+02
  -1.312381e+02   7.749570e+01
  -1.910381e+02  -3.375065e+01
  -1.139196e+02  -2.153004e+02
   1.017484e+02  -2.804299e+02
   2.783088e+02  -1.107106e+02
   2.514284e+02   5.710798e+01
   1.887730e+02   1.735991e+02
  -1.967250e+01   1.271383e+02
  -8.052599e+01   5.700774e+01
  -3.226693e+01   1.050658e+02
  -4.689390e+01   1.293237e+02
  -1.011679e+02   6.038365e+01
  -1.101109e+02  -2.428169e+01
  -1.712478e+02  -1.498606e+02
  -2.852754e+01  -2.045306e+02
   9.172516e+01  -1.627818e+02
   2.030922e+02  -3.504808e+01
   1.660027e+02   1.196330e+02
   1.683909e+01   1.806219e+02
  -1.128806e+02   9.165937e+01
  -8.073676e+01  -5.308664e+01
   3.198460e+01  -1.044151e+02
   3.517605e+01  -3.856217e+01
   1.585673e+01   6.274271e+00
  -3.888805e+01  -2.389372e+01
  -1.934570e+01  -3.137354e+01
   2.417624e+01  -7.820207e+01
   1.103098e+02  -1.938920e+01
   1.633695e+02   1.896396e+01
   7.469247e+01   9.517676e+01
  -8.101687e+01   1.134587e+02
  -1.231262e+02   4.712922e+01
  -4.448826e+01  -4.710406e+01
   6.987898e+01  -2.977700e+01
   9.669154e+01   3.273675e+01
   1.344315e+01   7.622955e+01
  -5.869227e+01   5.695971e+01
  -9.591565e+01  -1.067729e+01
  -4.103072e+01  -4.108315e+01
  -4.982548e+01  -5.158611e+01
  -7.049509e+01   6.477426e+00
  -9.139818e+01  -1.052317e+01
  -6.119743e+01  -5.372495e+01
   3.671207e+01  -1.383438e+02
   1.026729e+02  -1.209467e+02
   1.857761e+02  -5.551542e+01
   1.694855e+02   9.217136e+01
   2.879118e+01   1.109971e+02
  -9.511671e+01   2.688897e+01
  -4.782642e+01  -8.518003e+00
   3.159524e+01  -1.687032e+01
   1.084955e+02   5.987094e+01
   9.048393e+01   1.464465e+02
  -8.440974e+01   9.328838e+01
  -2.130078e+02   5.776479e+01
  -1.801043e+02  -3.627223e+01
  -3.934593e+01  -9.344392e+01
   5.865043e+01  -7.719618e+01
   3.183989e+01  -2.932319e+01
  -6.538516e+01   2.889415e+01
  -6.166641e+01  -6.833046e+00
  -4.618414e+01  -1.302331e+02
   6.674564e+01  -1.659943e+02
   1.521977e+02  -8.498942e+01
   1.737427e+02   1.178816e+02
   1.432882e+01   1.599758e+02
  -6.068701e+01   1.164986e+02
  -7.085633e+01  -5.326037e+01
  -3.978290e+01  -1.372550e+02
  -1.159375e+01  -7.841092e+01
   3.760882e+01   5.749538e+00
   4.578336e+01   5.622075e+01
   3.837670e+01  -2.355928e+01
  -1.959363e+00  -3.666412e+01
   3.753649e+00   6.181547e+01
   1.105971e+02   1.047436e+02
   3.899069e+01   1.095478e+02
  -3.347118e+01   6.809668e+01
  -1.806285e+02  -4.185418e+01
  -1.268404e+02  -6.121236e+01
  -2.105948e+01  -2.037624e+01
   1.053611e+02   6.337438e+00
   7.896435e+01   2.231126e+01
  -6.544671e+00   1.655965e+01
  -2.799963e+01   3.584373e+01
  -2.739964e+01   3.820685e+00
   1.673458e+01   1.024782e+01
  -3.224730e+00  -3.054218e+01
  -5.346865e+01   1.650935e+01
  -1.346469e+02  -2.994275e+01
  -2.764155e+01  -1.156379e+02
   1.030342e+02  -1.560016e+02
   1.892287e+02  -2.754679e+01
   1.038228e+02   7.917568e+01
   6.832220e+00   1.375029e+02
  -4.270527e+01   1.128740e+02
  -6.274812e+01   3.568342e+01
  -7.932498e+01  -1.633637e+00
  -8.979304e+00  -3.093648e+01
   5.285642e+01   5.286499e+00
   1.106974e+01  -1.033253e+01
  -4.175623e+01  -2.086002e+01
  -1.476525e+01  -1.044460e+02
   2.889397e+01  -7.017166e+01
   9.060648e+01   5.210414e+01
   8.139234e+01   1.236488e+02
  -2.301005e+01   9.325816e+01
  -9.876504e+01   1.555211e+01
  -1.022566e+02  -6.757806e+01
  -4.011562e+01  -6.952690e+01
   1.778935e+01  -7.790748e+01
   4.756532e+01   1.022229e+01
   2.798992e+01   6.130128e+01
  -2.898238e+01   3.513677e+01
  -2.855766e+01   2.390274e+01
   2.741853e+01  -8.787549e+00
   5.207189e+01   1.718682e+00
  -8.837956e+00   3.511129e+01
  -7.433193e+01   4.517008e+01
  -7.965647e+01   3.681873e+01
  -6.359916e+01   6.628053e+00
   6.772611e+00  -9.292943e+01
   2.497559e+01  -1.093720e+02
   5.314225e+01  -5.951062e+00
   1.206977e+01   9.616348e+00
  -2.954108e+01   4.192796e+01
  -4.317292e+01   4.255005e+00
  -9.805340e+00  -4.234918e+01
  -4.417365e+01  -8.067943e+00
   3.367735e+01  -3.923926e-02
   2.473596e+01  -3.182028e+01
   4.811815e+01  -1.221591e+01
  -2.110591e+01  -5.122106e+01
  -1.273440e+01   2.032417e+01
  -4.485504e+01   7.195020e+01
   1.377316e+01   4.701806e+01
  -1.029139e+01   1.608683e+01
  -3.444902e+01  -3.949065e+01
  -1.072931e+01  -2.422106e+01
   5.849985e+01  -1.700986e+01
   1.090373e+02   5.264737e+01
   3.947316e+01   3.586317e+01
  -5.550182e+01   7.464168e+01
  -6.712516e+01  -7.357520e+01
  -7.936424e+01  -3.553088e+01
   3.496730e+01  -2.523239e+01
   5.677133e+01  -6.864195e+01
   2.591983e+01   8.152312e+00
  -3.483606e+01  -1.018876e+01
  -2.873004e+01  -1.593266e+01
   4.234755e+01  -6.552840e-01
   7.463479e+01  -9.788453e+00
