
 $NMID
 id='ANONYMOUS ', fmtdat='(2E16.6)'
 volume=1.0
 tramp=1.0
 $END
  -4.576863e+03  -6.830884e+01
  -2.604545e+03  -2.851263e+03
   9.198248e+02  -2.943737e+03
   2.320173e+03  -8.570722e+02
   9.597750e+02   8.051372e+02
  -7.964796e+02   5.901532e+02
  -1.031895e+03  -5.537222e+02
   6.222348e+01  -1.165821e+03
   9.226783e+02  -8.777058e+02
   9.981065e+02   1.295247e+02
   4.616727e+02   9.439377e+02
  -2.934621e+02   9.650840e+02
  -7.566283e+02   1.969160e+02
  -3.800902e+02  -8.963264e+02
   3.141088e+02  -8.940790e+02
   7.284379e+02  -2.565765e+01
   1.967689e+02   7.239755e+02
  -3.449552e+02   5.573396e+02
  -6.037756e+02  -4.952792e+01
  -3.720111e+02  -4.269572e+02
   8.513709e+01  -5.420664e+02
   2.594084e+02  -2.351889e+02
   1.753656e+02  -3.603367e+01
  -7.231925e+01   1.428071e+02
  -4.184415e+02  -1.345054e+02
  -2.629879e+02  -4.970146e+02
   5.002262e+02  -5.160207e+02
   9.085203e+02   4.212713e+01
   5.048098e+02   5.963762e+02
  -4.131173e+02   5.150229e+02
  -7.766156e+02  -3.268983e+01
  -3.607781e+02  -5.260938e+02
   3.236884e+02  -5.940825e+02
   6.306148e+02  -1.826392e+02
   4.873547e+02   2.775270e+02
   1.275890e+02   4.957904e+02
  -2.297420e+02   3.109279e+02
  -1.957971e+02  -2.511887e+02
   1.961732e+02  -5.265165e+02
   5.684743e+02   8.894088e+01
   2.826372e+02   7.895207e+02
  -3.837344e+02   7.864412e+02
  -6.723540e+02  -1.521287e+01
  -2.433120e+02  -5.590021e+02
   2.934725e+02  -3.517544e+02
   4.123162e+02   4.009975e+02
  -7.333693e+01   5.979790e+02
  -5.651861e+02   2.134968e+02
  -6.265386e+02  -4.034609e+02
  -1.931067e+02  -5.988962e+02
   3.657202e+02  -4.046563e+02
   6.326308e+02   9.887528e+01
   3.924736e+02   4.525199e+02
  -1.634939e+02   4.386955e+02
  -4.908855e+02   4.531871e+01
  -2.194984e+02  -2.588892e+02
   1.239165e+02  -1.182629e+02
   1.624002e+02   2.122874e+02
  -2.046615e+02   2.218087e+02
  -3.958432e+02  -8.060211e+01
  -1.743241e+02  -3.613530e+02
   2.246093e+02  -2.630644e+02
   3.496974e+02  -4.007649e+01
   1.895210e+02   1.030449e+02
  -3.958082e+01   2.255738e+02
  -2.034524e+02   3.168997e+02
  -3.451050e+02   2.086951e+02
  -2.853731e+02  -1.245866e+02
  -1.080580e+02  -4.329150e+02
   9.633360e+01  -4.006429e+02
   9.832813e+01  -1.323883e+02
   1.520690e+01   6.974774e+00
   2.125797e+01  -1.281931e+02
   1.932662e+02  -1.477523e+02
   3.152697e+02  -2.490806e+01
   2.368212e+02   3.068782e+02
  -6.212906e+01   3.211696e+02
  -2.509889e+02   2.646794e+01
  -2.283029e+02  -2.556341e+02
   2.681172e+01  -3.977546e+02
   3.275166e+02  -1.611716e+02
   4.013237e+02   1.968375e+02
   1.807422e+02   3.676266e+02
  -1.087873e+02   3.016258e+02
  -2.276506e+02   8.611913e+01
  -1.109400e+02  -1.119483e+01
  -5.181476e+01   8.730908e+01
  -2.254569e+02   1.256325e+02
  -4.547641e+02  -4.252533e+01
  -3.530952e+02  -2.178741e+02
  -6.173320e+01  -4.776148e+02
   3.351960e+02  -4.609711e+02
   4.926443e+02  -2.815846e+02
   3.718004e+02   5.505503e+01
   7.883687e+01   3.326412e+02
  -1.569315e+02   3.068004e+02
  -1.380732e+02  -2.081700e+01
   9.804296e+01  -1.521769e+02
   2.188516e+02  -7.299331e+01
   3.766466e+01   2.088183e+02
  -1.310893e+02   2.144468e+02
  -1.740736e+02  -7.093688e+01
   2.075976e+01  -2.073869e+02
   1.828022e+02  -8.310771e+00
   1.747268e+02   3.096731e+02
  -6.640768e+01   4.001604e+02
  -1.940624e+02   1.756986e+02
  -3.349440e+02  -1.198896e+02
  -2.458427e+02  -2.713779e+02
  -1.068000e+02  -2.649651e+02
   7.176748e+01  -1.828705e+02
   1.997187e+02  -7.297165e+01
   1.043046e+02   4.714700e+01
  -7.559134e+01  -7.523138e+00
  -2.419740e+01  -1.131260e+02
   1.227134e+02  -9.670380e+01
   1.946414e+02  -2.625142e+00
   4.603653e+01   4.413019e+01
  -4.957008e+01   7.557084e+01
  -5.017731e+01  -6.857146e+01
   1.226262e+02  -1.112287e+02
   3.088023e+02  -3.281678e+01
   2.852430e+02   1.103272e+02
   5.543672e+01   2.831692e+02
  -1.693934e+02   2.707734e+02
  -2.846221e+02   1.223779e+02
  -1.975419e+02  -3.978746e+01
   6.127917e+01  -7.876613e+01
   1.190045e+02   3.878526e+01
  -7.196384e+01   1.333170e+02
  -2.278239e+02   5.701686e+01
  -2.697626e+02  -8.406918e+01
  -5.972473e+01  -2.321043e+02
   1.369375e+02  -1.725181e+02
   1.938302e+02  -5.208025e+01
   3.194870e+01   8.182797e+01
  -4.227931e+01   2.178233e+01
  -9.353430e+01  -7.524999e+01
   4.188274e+01  -1.178958e+02
   2.177058e+02  -1.054641e+02
   1.871791e+02   1.287964e+02
   3.902205e+00   2.142023e+02
  -1.504418e+02   1.554824e+02
  -1.631067e+02  -1.221427e+00
  -5.938934e+01  -1.240224e+02
   6.064322e+01  -1.295864e+02
   1.124600e+02  -2.447186e+01
  -1.398261e+01   4.101688e+01
  -7.982392e+00   1.702789e+01
   1.331582e+01  -5.836201e+00
   8.232704e+01   2.040570e+01
   6.867986e+01   4.413732e+01
   4.180468e+01   1.789001e+02
  -1.180718e+02   1.859854e+02
  -2.422780e+02   3.288103e+01
  -1.989445e+02  -1.820484e+02
  -3.504884e+01  -2.125489e+02
   1.012892e+02  -1.850643e+02
   9.426062e+01  -3.540793e+01
   4.921293e+01   4.567418e+01
  -3.974059e+00   1.929902e+01
   6.399342e+01  -5.479191e+01
   8.547394e+01   2.093003e+01
   4.492157e+01   4.447202e+01
  -6.738629e+00   4.912641e+01
  -4.933457e+01   6.312767e+01
  -7.541221e+01  -1.675562e+01
   1.256896e+01  -6.640929e+01
   1.483864e+02  -7.209702e+01
   2.153364e+02   8.071730e+01
   1.192989e+02   2.047560e+02
  -6.252961e+01   2.147784e+02
  -2.625125e+02   1.148670e+02
  -2.609329e+02  -8.920887e+01
  -1.131910e+02  -1.578087e+02
   3.231659e+01  -1.413856e+02
   8.945682e+01  -6.874067e+01
   6.147687e+01  -9.352845e+01
   7.597881e+01  -5.049102e+01
   9.635545e+01  -1.017999e+02
   1.343741e+02   3.987785e+01
   1.481575e+02   1.439025e+02
   1.563967e+01   2.177764e+02
  -1.423813e+02   1.634047e+02
  -1.837358e+02   1.793714e+01
  -1.369589e+02  -1.061811e+02
  -1.079833e+00  -1.595714e+02
   6.657820e+01  -8.926316e+01
   1.852722e+01   2.681896e+01
  -2.092454e+01   2.598731e+01
   7.904589e+00   5.333157e+01
   9.722191e+00   2.499409e+01
   4.450044e+01   3.470216e+01
   5.879344e+01   2.444220e+00
  -3.896043e+01   2.967162e+01
  -1.533249e+02   2.484536e+01
  -9.306752e+01  -4.499919e+01
   4.108314e+01  -7.077040e+01
   1.428869e+02  -4.091778e+01
   1.938488e+02   2.513093e+01
   2.545314e+01   7.078461e+01
  -9.720157e+01   7.841884e+01
  -6.875942e+01  -2.055994e+01
  -2.724433e+01  -3.679231e+01
   4.786428e+01  -2.385917e+01
   5.210918e+01  -3.211261e+01
   5.410380e+01   5.080880e+01
   5.356455e+01   4.482944e+01
   8.924199e+01  -1.618368e+01
   1.280945e+02   2.423684e+01
   4.439192e+01   1.177127e+02
  -6.894741e+01   1.184909e+02
  -1.405984e+02   1.347202e+02
  -1.409918e+02   2.587437e+01
  -1.051239e+02  -1.339228e+02
   5.146235e+01  -8.447866e+01
   4.957612e+01   2.623445e+01
   6.246476e+01   1.438477e+01
  -7.659317e+01   5.833471e+01
  -1.580320e+02  -7.023439e+01
  -1.169277e+02  -1.039251e+02
   7.702130e+01  -9.546426e+01
   1.529731e+02  -5.913678e+01
   1.663459e+02   5.328607e+00
   2.010841e+01   3.583113e+01
  -6.162813e+01   7.124330e+01
  -6.189133e+01   1.410363e+01
   6.032794e+01  -1.498509e+01
   1.112588e+02   1.634579e+01
   1.024582e+02   1.261886e+02
  -6.332929e+01   1.447823e+02
  -2.096667e+02   6.805156e+01
  -1.600972e+02  -1.488465e+02
  -5.322778e+01  -2.075373e+02
   9.966954e+01  -1.639234e+02
   1.432705e+02  -1.269546e+00
   9.970376e+01   9.156351e+01
  -2.927051e+00   1.097794e+02
  -5.166588e+01   2.814598e+00
  -5.663273e+01  -5.380700e+01
  -4.210716e+01  -2.009919e+01
   2.277465e+01  -8.061569e+00
   7.766077e+00  -4.111977e+01
  -2.376024e+01  -8.699171e+01
  -4.697744e+01  -1.027531e+02
   5.022997e+01   6.612718e+00
   1.538891e+02   7.701144e+00
   1.278464e+02   7.601261e+01
  -7.451260e+00   2.495285e+01
  -9.250200e+01   3.745495e+01
  -7.804335e+01   4.998711e+01
   1.328590e+01  -9.989021e+00
   5.859933e+01  -5.219323e+01
   3.328760e+01  -1.893240e+01
  -5.462027e+01   1.132012e-01
  -3.691485e+01   3.696784e+00
   8.397145e+01  -3.331529e+01
   1.259300e+02   2.880842e+01
   2.619518e+01   1.060820e+02
  -1.318843e+02   1.532691e+02
  -2.159519e+02   2.116099e+01
  -1.882196e+02  -8.833573e+01
  -4.755645e+01  -2.048320e+02
   3.329797e+01  -1.177736e+02
   9.279614e+01  -9.449163e+01
   7.155342e+01  -3.772424e+01
   2.869120e+01   5.628716e+01
  -2.338463e+01  -2.013402e+00
   5.381835e+00   2.017959e+00
   1.946535e+01   7.637549e+01
   8.995166e+00   9.684217e+01
  -4.683496e+01   3.188808e+01
  -7.231244e+01  -1.969946e+01
  -6.886892e+01  -1.326161e+02
  -1.116346e-02  -9.763438e+01
   8.629416e+01  -4.274173e+00
   9.984936e+01   7.305835e+01
   1.876031e+01   9.224589e+01
  -9.400844e+01   5.626620e+01
  -1.210098e+02  -8.838383e+00
  -1.402696e+01  -4.978401e+01
   1.898010e+01  -6.044251e+01
   5.933741e+01  -2.315285e+01
  -4.851314e+01  -6.250040e+00
  -8.343028e+01  -3.181012e+01
   1.759308e+01  -2.990043e+01
   6.736856e+01  -1.123041e+02
   9.532598e+01  -6.768836e+01
   1.032915e+02  -8.798159e+00
   2.310442e+01   8.761689e+01
  -4.879609e+01   7.791281e+01
  -6.024210e+01  -2.643012e+01
  -1.261079e+01  -6.965186e+01
   5.292332e+00  -3.684282e+01
   7.608675e+01   3.063869e+01
  -7.660473e+00   1.059144e+02
  -1.104549e+01   4.329458e+01
  -2.839831e+01   3.474011e+01
  -7.681888e+01  -5.657805e+00
  -4.461016e+01   8.710331e+00
   5.380324e+00  -8.942837e-01
   2.446567e+01  -2.101624e+01
   2.082197e+01  -4.576602e+01
   1.658312e+00  -5.108693e+01
   2.787639e+01  -1.547196e+01
   1.785447e+01   5.310502e+01
   2.714403e+01   4.754548e+01
  -6.012413e+01   1.930590e+01
  -6.568449e+01  -2.267349e+01
  -2.755844e+01  -5.117310e+01
   4.922389e+01  -4.966072e+01
   1.128038e+02  -2.306527e+00
   4.631905e+01   2.128693e+01
  -3.280264e+01   7.458208e+01
  -9.347273e+01   3.183191e+01
  -1.359502e+00  -3.215805e+01
   5.350324e+01   2.317386e+01
   2.314026e+01   1.811339e+01
  -6.136361e+01   7.371150e+01
  -1.223152e+02  -6.201156e+00
