
 $NMID
 id='ANONYMOUS ', fmtdat='(2E16.6)'
 volume=1.0
 tramp=1.0
 $END
  -4.802274e+03   7.557950e-01
  -2.484141e+03  -3.003949e+03
   8.101685e+02  -2.929139e+03
   2.372020e+03  -8.983959e+02
   8.643719e+02   8.338081e+02
  -8.086398e+02   6.737787e+02
  -1.040101e+03  -4.368380e+02
   1.031365e+01  -1.145714e+03
   9.301169e+02  -7.065807e+02
   1.068532e+03   1.359390e+02
   5.148194e+02   9.882099e+02
  -3.044006e+02   1.022367e+03
  -7.671892e+02   1.348569e+02
  -4.788359e+02  -8.097433e+02
   3.786967e+02  -8.473179e+02
   7.360639e+02   4.686552e+01
   3.213102e+02   8.215258e+02
  -3.928036e+02   6.769640e+02
  -6.268018e+02   7.820637e+01
  -5.015172e+02  -4.209014e+02
  -4.685368e+01  -4.335435e+02
   2.798301e+02  -3.333474e+02
   3.118239e+02   9.668383e+00
  -7.590314e+01   1.513946e+02
  -4.057449e+02  -3.569892e+01
  -2.601210e+02  -4.310190e+02
   4.292341e+02  -4.163638e+02
   9.011171e+02   4.561309e+01
   4.818639e+02   5.870906e+02
  -3.851942e+02   5.498066e+02
  -7.998510e+02  -5.952264e+01
  -3.321065e+02  -5.227787e+02
   3.417560e+02  -5.705588e+02
   6.201990e+02  -2.346900e+02
   4.642581e+02   2.864104e+02
   2.321960e+01   5.356288e+02
  -2.337172e+02   3.414747e+02
  -2.022419e+02  -2.733162e+02
   1.388243e+02  -5.077581e+02
   4.762228e+02  -3.235850e+01
   2.546778e+02   7.280250e+02
  -3.220044e+02   7.473125e+02
  -6.545510e+02   1.874967e+01
  -2.559094e+02  -6.321028e+02
   3.071592e+02  -3.602842e+02
   4.269509e+02   2.881474e+02
  -5.326492e+00   5.801168e+02
  -5.672414e+02   1.961957e+02
  -6.347786e+02  -3.971973e+02
  -2.198165e+02  -6.367215e+02
   3.858888e+02  -4.073325e+02
   6.791744e+02   3.812487e+01
   4.277538e+02   4.103934e+02
  -2.026739e+02   4.427043e+02
  -4.960653e+02   7.099116e+01
  -3.444657e+02  -2.126352e+02
   1.289026e+02  -1.664803e+02
   1.574336e+02   1.465019e+02
  -1.003117e+02   1.796324e+02
  -3.366289e+02  -8.407794e+01
  -1.408625e+02  -3.231766e+02
   2.277489e+02  -2.563761e+02
   3.183574e+02  -6.100654e+01
   2.265908e+02   7.623522e+01
  -3.747527e+01   2.270255e+02
  -1.731649e+02   3.424635e+02
  -3.677470e+02   2.191196e+02
  -2.821008e+02  -1.545686e+02
  -7.672113e+01  -4.547459e+02
   1.527260e+02  -3.793592e+02
   1.376039e+02  -8.125621e+01
   4.256885e+00   5.862515e+01
   3.038781e+01  -5.519567e+01
   2.065768e+02  -1.152315e+02
   3.542876e+02   3.616554e+01
   2.334740e+02   3.162989e+02
  -7.764018e+01   3.296414e+02
  -2.654771e+02   5.555091e+01
  -2.166275e+02  -2.446187e+02
   1.585479e+01  -3.405105e+02
   3.066538e+02  -1.355673e+02
   3.698801e+02   1.352839e+02
   2.143422e+02   3.880828e+02
  -1.268873e+02   3.354854e+02
  -2.477542e+02   1.440518e+02
  -1.488499e+02  -4.419195e+01
  -2.028852e+01   5.246554e+01
  -1.794133e+02   1.124674e+02
  -3.995941e+02   2.952280e+01
  -3.579556e+02  -2.785599e+02
  -2.575921e+01  -4.305779e+02
   4.188741e+02  -3.915267e+02
   5.498317e+02  -1.708337e+02
   3.667861e+02   1.115436e+02
   8.034046e+01   3.289916e+02
  -2.053385e+02   2.315417e+02
  -1.060970e+02  -1.440584e+01
   8.702399e+01  -1.096874e+02
   1.980041e+02  -1.307847e+01
   7.561067e+01   2.106006e+02
  -1.336228e+02   1.380614e+02
  -1.501771e+02  -4.753770e+01
   3.258093e+01  -1.704927e+02
   2.228317e+02  -2.160033e+01
   1.896589e+02   2.768255e+02
   1.103157e+01   3.424389e+02
  -2.444369e+02   2.052903e+02
  -3.649918e+02  -3.427102e+01
  -2.782722e+02  -1.661428e+02
  -1.440888e+02  -2.415509e+02
   9.571691e+01  -2.456801e+02
   1.471297e+02  -7.953505e+01
   7.646762e+01   1.204447e+01
  -1.103564e+02  -3.790789e+01
  -5.376379e+01  -1.474328e+02
   1.532021e+02  -1.478549e+02
   1.891359e+02   1.179996e+01
   7.139955e+01   5.760793e+01
  -7.202063e+01   1.991732e+01
  -7.747228e+01  -6.404003e+01
   1.274976e+02  -7.629091e+01
   2.346927e+02   1.879891e+01
   2.679625e+02   1.409689e+02
   9.770729e+01   2.498343e+02
  -1.950082e+02   2.423271e+02
  -3.505657e+02   1.453681e+02
  -1.734654e+02  -8.990087e+01
   1.733353e+01  -1.430479e+02
   8.274318e+01  -3.848600e+01
   1.326148e+01   1.440852e+02
  -1.596371e+02   1.951929e+01
  -2.626841e+02  -9.936611e+01
  -8.231936e+01  -1.695838e+02
   7.569960e+01  -1.611928e+02
   1.745031e+02  -6.423220e+01
   9.086683e+01   6.402655e+01
  -2.331604e+01  -3.167342e+01
  -1.010550e+02  -5.304677e+01
  -2.426135e+00  -1.440355e+02
   1.979625e+02   3.992793e+00
   2.116611e+02   6.253938e+01
   6.451584e+01   2.640263e+02
  -2.035634e+02   2.071582e+02
  -1.963256e+02   2.762339e+01
  -8.382680e+01  -1.397341e+02
   7.283866e+01  -1.416590e+02
   8.226455e+01   1.835043e+00
   4.844840e+01   3.107030e+01
   2.207886e+01   3.855001e+00
   7.022409e+01   7.930536e+00
   6.837409e+01  -2.864949e+01
   4.698904e+01   8.122080e+01
  -3.291955e+01   2.072121e+02
  -1.423637e+02   1.952068e+02
  -2.336569e+02   5.544890e+01
  -1.979983e+02  -1.416057e+02
  -5.138806e+01  -2.745331e+02
   6.187156e+01  -1.830677e+02
   1.036380e+02  -1.566579e+01
   5.203910e+01   6.368447e+01
   1.209734e+01   4.443272e+01
   5.176202e+01   2.814913e+01
   1.047166e+02  -5.881031e+00
   4.470547e+01   8.415579e+01
  -2.216212e+01   7.000030e+01
  -4.842535e+01  -1.877949e-01
  -9.829091e+01   1.817315e+01
  -1.545016e+01  -7.874629e+01
   1.038363e+02  -1.002862e+02
   1.999993e+02   5.306342e+00
   7.551433e+01   1.825239e+02
  -8.090782e+01   2.018318e+02
  -2.504494e+02   1.225670e+02
  -2.708456e+02  -9.522210e+01
  -1.290218e+02  -1.496371e+02
   1.675501e+01  -1.526126e+02
   3.915897e+01  -8.266743e+01
   4.761707e+01  -9.274952e+01
   6.130455e+01  -1.047704e+02
   8.921318e+01  -8.131313e+01
   1.446032e+02   1.391735e+01
   1.245979e+02   1.424039e+02
   2.360839e+01   2.473953e+02
  -1.179422e+02   1.566730e+02
  -1.757906e+02   7.738942e+01
  -1.487164e+02  -1.147646e+02
  -1.986971e+01  -1.644066e+02
   4.727405e+01  -9.038524e+01
   6.586785e+01  -9.575332e-01
   5.321973e+00   2.969315e+01
   3.123788e+00   3.904994e+01
   2.557266e+01   1.192705e+01
   9.776789e+01   3.665016e+01
   5.137149e+01   8.142375e+01
  -5.088236e+01   9.373771e+01
  -1.410548e+02   1.559350e+01
  -1.542563e+02  -9.228875e+01
  -1.942010e+01  -1.113611e+02
   1.404531e+02  -7.515599e+01
   1.528084e+02  -1.572748e+00
   2.598066e+01   6.101850e+01
  -9.182040e+01   4.754069e+01
  -8.814921e+01  -7.509968e+01
   9.492298e+00  -8.886475e+01
   1.387974e+02  -1.674287e+01
   9.003141e+01   3.259834e+01
   4.281567e+01   8.719521e+00
  -2.364114e+01   2.572865e+01
   8.657647e+01   2.477627e+01
   7.418668e+01   2.566769e+01
   1.876451e+01   5.684769e+01
  -1.793295e+01   1.098287e+02
  -1.140954e+02   1.072580e+02
  -1.599800e+02   3.173132e+01
  -1.296542e+02  -9.075607e+01
   3.872898e+01  -1.712662e+02
   1.020473e+02  -8.904535e+01
   6.496021e+01  -1.171738e+01
  -5.492231e+01   3.484430e+01
  -1.713273e+02  -3.046201e+01
  -1.251326e+02  -1.395676e+02
   4.761235e+01  -9.359991e+01
   1.956161e+02  -4.201321e+01
   1.758817e+02   3.075838e+01
  -1.661284e+01   1.037736e+02
  -5.847645e+01   8.089841e+01
  -8.522552e+01   2.763281e+01
  -2.559584e+00  -1.195593e+01
   1.050288e+02   7.125348e+01
   5.703607e+01   1.078432e+02
  -1.062485e+02   1.458286e+02
  -1.757600e+02   3.515516e+01
  -1.567025e+02  -1.490999e+02
   1.480255e+01  -1.830241e+02
   1.251666e+02  -1.876677e+02
   1.396778e+02   2.297773e+01
   7.196823e+01   1.136963e+02
  -1.164453e+01   1.106211e+02
  -8.665412e+01   1.864689e+00
  -5.645583e+01  -3.742103e+01
  -2.340890e+01   2.934174e+01
  -8.098485e+00  -1.227853e+01
  -4.012622e+01   1.346363e+01
  -5.610633e+01  -1.042768e+02
  -3.561781e+00  -1.397361e+02
   4.045974e+01  -6.152304e+01
   1.852201e+02   4.170622e+01
   1.278613e+02   1.008680e+02
   2.043823e+01   5.060499e+01
  -8.089405e+01   5.455607e+01
  -1.271968e+02   3.287701e+01
  -3.979903e+01   8.614166e+00
   3.534131e+01  -2.784548e+01
  -3.416455e+01  -1.735007e+01
  -8.334380e+00  -1.410865e+01
  -4.405786e+01   1.879802e+01
   7.385271e+01   2.444459e+00
   6.563935e+01   8.786749e+00
   9.848626e+00   4.889123e+01
  -8.324457e+01   1.305044e+02
  -1.915122e+02   6.387530e+01
  -1.786989e+02  -7.372734e+01
  -7.621858e+01  -1.993777e+02
   7.085666e+01  -1.560475e+02
   1.465496e+02  -4.877106e+01
   7.190967e+01  -1.625052e+01
   4.297119e+01   1.966786e+01
   2.018649e+01   2.078957e+01
   3.387947e+01  -2.091639e+00
   3.549034e+01   4.412142e+01
   5.369978e+01   7.709596e+01
  -7.616314e+01   8.724976e+01
  -1.044630e+02   1.617728e+01
  -7.974131e+01  -1.087718e+02
   6.293343e+00  -1.381438e+02
   1.033697e+02  -4.188876e+01
   1.000529e+02   8.145495e+01
   2.256288e+01   9.517879e+01
  -9.155710e+01   3.172698e+01
  -6.785470e+01  -5.146349e+01
   9.220627e-01  -9.342756e+01
   6.504382e+01  -1.192264e+02
   6.003253e+01  -5.997336e+00
  -4.438507e+01   1.237642e+01
  -5.766994e+01   3.440104e+01
  -2.231947e+01  -1.878822e+01
   4.742818e+01  -4.086279e+01
   9.910607e+01  -9.291495e+01
   9.448716e+01   1.282449e+01
  -2.588858e+01   9.683741e+01
  -7.739079e+01   1.413445e+02
  -5.500870e+01  -2.285585e+01
  -4.751429e+00  -5.408187e+01
  -5.642718e+00  -1.343921e+01
   3.457067e+01  -1.062015e+01
  -9.108237e+00   4.399422e+01
  -3.817747e+01  -1.023410e+01
  -1.175860e+01  -4.607274e+00
  -5.375375e+01  -2.032538e+01
  -4.550663e+01  -3.020865e+01
   5.535095e+00   5.819308e+00
   2.427234e+01   2.004231e-01
   5.443232e+00  -1.891960e+01
   5.526207e+00  -5.292520e+01
   3.734585e+01  -1.519363e+00
  -1.338240e+00   3.763539e+01
   3.087110e+01   7.670662e+01
  -2.522815e+01  -3.925809e+00
  -7.513537e+01  -3.520863e+01
   9.271555e+00  -7.471214e+01
   6.487038e+01  -1.919254e+01
   9.520681e+01  -4.041738e+00
   4.778739e+01   6.701595e+01
  -5.061665e+01   1.754105e+01
  -4.625429e+01   4.895290e+01
  -2.973676e+01  -1.187170e+01
   5.542305e+01  -4.091953e+00
   2.721239e+01  -2.752600e-02
  -3.026146e+01   4.426968e+01
  -9.245183e+01   5.825007e+01
