
 $NMID
 id='ANONYMOUS ', fmtdat='(2E16.6)'
 volume=1.0
 tramp=1.0
 $END
  -4.572155e+03   1.443377e+02
  -2.718410e+03  -2.844504e+03
   7.815031e+02  -2.980878e+03
   2.235357e+03  -8.760247e+02
   8.128798e+02   7.365775e+02
  -8.338921e+02   5.441313e+02
  -9.433455e+02  -5.753611e+02
   4.286697e+01  -1.172273e+03
   8.432868e+02  -8.085685e+02
   9.120087e+02   1.509526e+02
   4.620139e+02   9.102211e+02
  -3.651601e+02   9.397560e+02
  -7.614833e+02   1.660579e+02
  -3.655469e+02  -7.108917e+02
   3.303148e+02  -7.509500e+02
   6.564949e+02   6.237501e+01
   1.969172e+02   7.405381e+02
  -3.390379e+02   6.971350e+02
  -6.750495e+02   4.275121e+01
  -3.993327e+02  -3.591505e+02
   2.794877e+01  -4.736652e+02
   2.376391e+02  -2.397194e+02
   2.179550e+02   1.148213e+00
  -5.975607e+01   1.023170e+02
  -4.239761e+02  -7.696061e+01
  -1.975012e+02  -4.912983e+02
   4.741875e+02  -5.411558e+02
   9.301868e+02   1.033755e+02
   5.679285e+02   6.161528e+02
  -3.951361e+02   5.678958e+02
  -8.247217e+02   9.412567e+00
  -4.176961e+02  -5.292379e+02
   2.870789e+02  -5.423721e+02
   6.486042e+02  -2.117046e+02
   4.881389e+02   2.243282e+02
   8.960300e+01   5.655744e+02
  -2.286302e+02   3.060783e+02
  -2.568164e+02  -2.138754e+02
   1.999705e+02  -5.117427e+02
   4.644868e+02   3.048900e+01
   2.986258e+02   7.070421e+02
  -3.198721e+02   7.547031e+02
  -6.282956e+02  -3.479741e+01
  -2.472424e+02  -6.129599e+02
   2.929290e+02  -3.102169e+02
   4.326715e+02   3.229774e+02
  -7.493388e+01   6.226658e+02
  -6.125351e+02   1.290202e+02
  -6.237097e+02  -4.304178e+02
  -1.935244e+02  -6.226210e+02
   4.760514e+02  -4.098005e+02
   6.456527e+02   6.854982e+01
   3.611910e+02   3.670397e+02
  -1.978438e+02   3.695673e+02
  -4.703722e+02   4.722019e+01
  -2.228904e+02  -1.845640e+02
   1.405621e+02  -1.108488e+02
   1.582664e+02   1.842881e+02
  -1.528447e+02   2.226611e+02
  -3.646614e+02  -5.892636e+01
  -1.448345e+02  -3.234140e+02
   2.323307e+02  -2.628388e+02
   3.005320e+02  -8.523027e+01
   1.681652e+02   1.375148e+02
  -1.787075e+01   2.288301e+02
  -2.382301e+02   3.569159e+02
  -3.328976e+02   2.527981e+02
  -2.883565e+02  -1.210139e+02
  -9.918163e+01  -4.105469e+02
   8.632858e+01  -4.241339e+02
   1.671291e+02  -1.219667e+02
  -1.444356e+00   5.568272e+01
   5.828420e+01  -5.927495e+01
   2.238111e+02  -1.204796e+02
   3.049999e+02   4.568223e+01
   1.759066e+02   3.034597e+02
  -9.241608e+01   3.021508e+02
  -2.664339e+02   2.030579e+01
  -2.501961e+02  -2.494080e+02
   1.993997e+01  -3.480346e+02
   3.153641e+02  -1.176886e+02
   3.815924e+02   1.928201e+02
   1.715497e+02   3.758156e+02
  -1.057824e+02   3.400467e+02
  -2.334917e+02   1.552083e+02
  -1.276652e+02  -4.568017e+01
  -1.113155e+02   5.690441e+01
  -2.229130e+02   6.569317e+01
  -3.959116e+02  -3.132273e+01
  -3.339364e+02  -3.058871e+02
   3.400634e+01  -4.206199e+02
   3.327391e+02  -3.832363e+02
   5.047803e+02  -1.835950e+02
   4.018088e+02   1.159226e+02
   9.108150e+01   3.123431e+02
  -1.594567e+02   2.915745e+02
  -1.347965e+02   3.612072e+01
   5.009933e+01  -1.445871e+02
   1.997110e+02  -1.468670e+01
   5.562409e+01   2.411980e+02
  -1.750959e+02   1.924006e+02
  -1.635821e+02  -4.463001e+01
   4.051145e+01  -2.478913e+02
   2.028249e+02  -5.096484e+01
   1.851166e+02   2.777533e+02
  -8.372392e+01   3.557991e+02
  -2.540069e+02   2.224540e+02
  -3.327526e+02  -8.264031e+01
  -2.203476e+02  -1.798379e+02
  -1.422389e+02  -2.870826e+02
   1.345421e+02  -1.617483e+02
   1.476471e+02  -3.388606e+01
   7.483330e+01   8.609091e+00
  -5.048717e+01  -8.688842e+01
  -5.545826e+01  -1.173155e+02
   1.177720e+02  -7.387257e+01
   2.041977e+02   5.617110e+01
   2.541409e+01   5.850512e+01
  -8.995194e+01  -4.530805e+00
  -2.776170e+01  -1.090951e+02
   9.562371e+01  -1.053422e+02
   3.200442e+02   3.968491e+01
   2.748139e+02   1.468032e+02
   9.935173e+01   2.789238e+02
  -2.063561e+02   2.669279e+02
  -3.091638e+02   1.280999e+02
  -2.013333e+02  -4.852294e+01
   3.499112e+01  -1.046092e+02
   1.017994e+02  -3.108639e+01
  -2.514170e+01   9.766916e+01
  -1.942500e+02   6.067901e+01
  -2.290041e+02  -9.081411e+01
  -4.620150e+01  -2.274335e+02
   8.903663e+01  -1.419535e+02
   1.720948e+02  -6.134809e+01
   1.011331e+02   6.758747e+01
  -3.849060e+01   4.433155e+01
  -2.939571e+01  -7.770391e+01
   9.933813e+01  -1.035812e+02
   2.143134e+02  -1.792051e+01
   2.312269e+02   1.101809e+02
   4.748459e+01   2.353479e+02
  -2.010880e+02   2.108217e+02
  -2.175426e+02   2.609714e+01
  -7.202786e+01  -1.024909e+02
   9.453892e+01  -1.079557e+02
   5.687700e+01  -3.906183e+01
  -2.003392e+01  -1.852701e+01
   2.225292e+01  -1.875253e+01
   7.737365e+01  -2.088542e+00
   8.609789e+01   3.634309e+01
   5.170197e+01   6.740153e+01
   2.802910e+01   1.891069e+02
  -1.355006e+02   1.589993e+02
  -2.172843e+02   1.521863e+01
  -2.199169e+02  -1.393490e+02
  -3.592298e+01  -2.933346e+02
   9.874860e+01  -1.749485e+02
   1.553082e+02  -1.351881e+01
   1.011506e+02   7.684575e+01
   4.524422e+01   4.046442e+01
   3.077229e+01   1.001465e+01
   3.412845e+01  -2.319421e+01
   9.112184e+00   7.178397e+01
  -3.905244e+01   5.120399e+01
  -1.002875e+02   3.887338e+01
  -8.260915e+01  -5.171249e+01
   3.025154e+01  -1.231061e+02
   1.839756e+02  -6.543174e+01
   2.138350e+02   7.331284e+01
   1.392121e+02   2.174074e+02
  -1.115799e+02   2.308951e+02
  -2.740073e+02   1.007025e+02
  -2.696184e+02  -4.101828e+01
  -1.213380e+02  -1.850793e+02
   1.616530e+01  -1.746756e+02
   5.944493e+01  -1.047214e+02
   5.897731e+01  -1.059431e+02
   5.755510e+01  -1.320619e+02
   1.352756e+02  -7.511955e+01
   1.432967e+02   3.816901e+01
   1.534456e+02   1.789323e+02
   2.961957e+01   2.193678e+02
  -1.071733e+02   1.761938e+02
  -1.809696e+02   4.825462e+01
  -1.270060e+02  -1.005008e+02
  -2.476367e+01  -1.699986e+02
   5.810403e+01  -4.088646e+01
   3.717487e+01   3.354640e+01
   2.102806e+00  -4.940403e+00
   4.442067e+01   2.707239e+01
   1.235868e+01   5.051256e+01
   4.435237e+01   8.150663e+01
   2.761014e+01   3.901154e+01
  -7.049046e+01   6.484390e+01
  -1.762453e+02   1.681225e+01
  -1.378179e+02  -4.810445e+01
  -5.831749e+00  -8.636938e+01
   1.603370e+02  -4.417742e+01
   1.666219e+02   6.874547e+00
   2.481391e+01   3.008402e+01
  -8.374888e+01   1.210763e+01
  -8.766748e+01  -2.033750e+01
   1.955056e+01  -1.079488e+02
   7.426558e+01  -6.501612e+01
   3.758244e+01   1.054806e+01
   4.522324e+01   7.870134e+01
   6.127296e+01   6.917009e+01
   7.694309e+01  -1.599638e+00
   7.365522e+01  -3.308427e+00
   5.025145e+01   4.048099e+01
  -1.878361e+01   1.472925e+02
  -1.065189e+02   1.533700e+02
  -1.935859e+02   1.236604e+01
  -1.080287e+02  -9.124204e+01
   2.616892e+01  -8.524393e+01
   1.271226e+02  -9.265568e+01
   6.190035e+01   2.645618e+01
  -6.095066e+01   2.623336e+01
  -1.351158e+02  -2.442535e+01
  -6.810465e+01  -1.495181e+02
   8.149300e+01  -1.396514e+02
   2.077472e+02  -5.388173e+01
   1.442165e+02   2.583543e+01
   6.095006e+01   1.055946e+02
  -7.825001e+01   1.244704e+02
  -4.531461e+01   1.228055e+01
   3.036994e+01  -2.236451e+01
   1.000648e+02   7.650720e+01
  -4.808828e+00   8.749475e+01
  -7.892543e+01   1.141846e+02
  -1.752745e+02   5.063318e+01
  -9.744345e+01  -1.313614e+02
  -2.071858e+01  -2.252107e+02
   8.886057e+01  -1.964854e+02
   6.691466e+01   2.988703e+01
   5.043225e+01   1.087646e+02
   3.251114e+01   8.374073e+01
  -3.965869e+01   3.463559e+01
  -5.209518e+01  -2.586808e+01
  -3.257941e+01  -2.559313e+01
  -6.274496e+01  -2.134815e+01
  -6.561121e+00  -7.329105e-01
  -3.806306e+01  -6.905786e+01
  -2.641687e+01  -1.170276e+02
   2.511144e+01  -1.188625e+01
   1.351596e+02   4.280923e+01
   1.428676e+02   6.453907e+01
   2.845199e+01   2.218457e+01
  -4.277409e+01   2.060008e+01
  -6.872522e+01  -2.805353e+01
  -1.183393e+01  -1.314541e+01
   4.070700e+01  -3.958904e+00
  -9.994163e+00   2.431031e+01
   9.344541e+00  -1.930541e+00
   2.010356e+01   3.703028e+00
   6.331009e+01  -4.370786e-03
   1.093063e+02   2.649296e+01
   4.294116e+01   5.466378e+01
  -7.928139e+01   1.129241e+02
  -2.378132e+02   5.717290e+01
  -1.917092e+02  -7.693638e+01
  -9.161675e+00  -1.560705e+02
   8.790288e+01  -1.496477e+02
   1.741298e+02  -9.261516e+01
   8.181759e+01  -3.690070e+00
  -9.438726e+00   2.362697e+01
  -1.931186e+01   5.518597e+00
   2.991841e+01  -2.065987e+01
   2.300617e+01   3.564062e+01
   2.100833e+01   1.055933e+02
  -1.654931e+01   8.129735e+01
  -9.786784e+01   6.954851e+00
  -8.906993e+01  -1.139249e+02
  -2.872016e+01  -1.658386e+02
   6.514553e+01  -8.183794e+00
   8.535578e+01   4.216006e+01
   5.139193e+01   1.343954e+02
  -7.802709e+01   6.408970e+01
  -7.980907e+01  -6.659756e+01
  -3.773046e+01  -8.905067e+01
  -1.804985e+01  -9.296804e+01
   4.568514e+01  -6.464996e-01
  -2.784537e+00  -9.845067e+00
  -2.364827e+01   5.647358e+00
  -5.936738e+01  -2.015370e+01
   7.047090e+01  -8.715714e+01
   7.545167e+01  -7.675818e+01
   6.580360e+01   1.323060e+01
  -9.958680e+00   1.052616e+02
  -7.208562e+01   1.073715e+02
  -5.187484e+01   2.946979e+01
   7.643675e+00  -4.190769e+01
   3.127358e+01  -5.075812e+01
  -1.177884e+01   1.403293e+01
   3.774291e+01   4.143339e+01
  -1.086384e+01   2.263931e+01
  -2.397875e+01  -4.909781e+01
  -4.401816e+01  -3.770030e+01
  -4.238852e+01  -5.026227e+01
  -1.513075e+01  -3.232737e+01
   3.360177e+01   3.785175e+00
   4.998193e+01  -6.099086e+01
   6.772605e+01  -7.866184e+01
   8.853690e+01   5.718781e+00
   5.113265e+01   4.608480e+01
  -2.053004e+01   1.020901e+02
  -6.822626e+01   5.875125e+00
  -2.538355e+01  -6.037134e+01
  -1.749623e+01  -2.970906e+01
   3.223414e+01  -4.299438e+01
   1.367051e+02  -2.178320e+01
   7.586373e+01   2.721585e+01
  -2.257450e+01   4.235573e+01
  -8.378295e+01  -2.417034e+00
  -5.152016e+01   8.369481e+00
  -9.181526e+00   7.226732e+01
   3.593386e+01   2.202968e+01
  -1.534008e+01  -6.455706e+00
  -7.450229e+01   4.781398e+01
