
 $NMID
 id='ANONYMOUS ', fmtdat='(2E16.6)'
 volume=1.0
 tramp=1.0
 $END
   4.679208e+03   3.511638e+01
   2.759433e+03   2.901014e+03
  -7.268997e+02   3.047593e+03
  -2.402888e+03   8.924382e+02
  -1.039905e+03  -8.934978e+02
   7.239023e+02  -6.299495e+02
   1.076787e+03   3.703401e+02
   1.699960e+01   1.116851e+03
  -1.024212e+03   8.431657e+02
  -1.094647e+03  -1.391825e+02
  -4.819412e+02  -1.055105e+03
   3.011902e+02  -1.031065e+03
   7.443573e+02  -7.892586e+01
   4.386360e+02   8.141664e+02
  -3.429464e+02   8.658453e+02
  -7.707194e+02  -2.257901e+01
  -2.843068e+02  -7.045023e+02
   3.252190e+02  -6.944563e+02
   6.303677e+02  -1.454021e+02
   4.621136e+02   4.796121e+02
  -2.147215e+01   5.073296e+02
  -2.708773e+02   3.400067e+02
  -1.621147e+02   2.954726e+00
   1.126030e+02  -6.557663e+01
   3.858833e+02   6.484670e+01
   2.515612e+02   4.946766e+02
  -4.584218e+02   4.369301e+02
  -9.252193e+02   6.876889e-01
  -4.532460e+02  -5.653883e+02
   4.273913e+02  -4.780637e+02
   7.756851e+02   5.604391e+01
   4.293943e+02   5.140233e+02
  -2.500009e+02   5.239190e+02
  -5.923937e+02   2.205602e+02
  -3.590967e+02  -2.637294e+02
  -5.365402e+01  -5.099732e+02
   1.964571e+02  -3.435500e+02
   2.035124e+02   1.994431e+02
  -1.596059e+02   4.330158e+02
  -5.205998e+02  -4.280587e+00
  -3.257737e+02  -7.125011e+02
   3.858927e+02  -7.606373e+02
   7.033700e+02  -3.369594e+01
   2.570738e+02   6.037953e+02
  -3.036753e+02   3.859051e+02
  -3.980861e+02  -2.896825e+02
   4.065754e+01  -6.018800e+02
   5.814615e+02  -1.471216e+02
   6.090749e+02   4.451658e+02
   1.320879e+02   6.271844e+02
  -4.200486e+02   3.238803e+02
  -6.867729e+02  -1.012369e+02
  -4.041125e+02  -4.646742e+02
   1.876685e+02  -4.305599e+02
   5.073245e+02  -9.258483e+01
   2.868424e+02   2.253634e+02
  -1.647901e+02   1.366650e+02
  -2.154574e+02  -1.892770e+02
   1.666706e+02  -2.150752e+02
   3.977571e+02   8.643151e+01
   2.098316e+02   3.406485e+02
  -1.849591e+02   2.635727e+02
  -3.360738e+02   7.998608e+01
  -2.061981e+02  -9.723581e+01
   5.755024e+01  -2.257600e+02
   2.685525e+02  -3.442028e+02
   3.631329e+02  -2.346616e+02
   3.000799e+02   1.361750e+02
   3.946229e+01   5.183631e+02
  -1.590548e+02   4.456304e+02
  -9.270213e+01   1.437423e+02
   3.262651e+01  -2.275544e+01
  -5.866095e+01   2.236303e+01
  -2.332266e+02   9.603912e+01
  -3.309086e+02   8.849647e+00
  -1.927235e+02  -2.872458e+02
   4.686113e+01  -3.031095e+02
   2.572244e+02  -5.593123e+01
   1.860418e+02   2.206757e+02
  -1.501489e+01   2.711852e+02
  -2.622644e+02   1.152895e+02
  -3.499271e+02  -1.897617e+02
  -1.566070e+02  -3.734633e+02
   1.177653e+02  -3.133446e+02
   2.339707e+02  -9.151321e+01
   1.491020e+02   1.526261e+01
   1.014673e+02  -4.458726e+01
   2.470494e+02  -6.739955e+01
   4.690508e+02   4.694507e+01
   3.409877e+02   3.186557e+02
   5.327865e+00   4.614999e+02
  -3.617910e+02   4.690986e+02
  -4.521550e+02   1.887753e+02
  -3.557731e+02  -8.927937e+01
  -3.682978e+01  -2.842106e+02
   1.061116e+02  -2.367782e+02
   5.074692e+01  -1.240735e+01
  -1.489313e+02   1.039303e+02
  -2.116991e+02  -4.640034e+01
  -5.482360e+01  -2.034062e+02
   1.490945e+02  -1.998266e+02
   1.778887e+02   2.186271e+01
   4.385737e+00   1.956978e+02
  -1.511451e+02   1.291188e+01
  -1.251127e+02  -2.297638e+02
   2.981935e+01  -3.390836e+02
   2.393948e+02  -1.819237e+02
   3.516187e+02   5.643966e+01
   2.787218e+02   2.844643e+02
   1.361339e+02   2.522798e+02
  -1.032955e+02   1.520238e+02
  -1.906834e+02   4.120449e+00
  -2.212578e+01  -1.459210e+01
   5.458912e+01   3.662596e+01
   1.500001e+01   1.523283e+02
  -1.229374e+02   1.364219e+02
  -1.863232e+02  -1.073291e+00
  -6.372791e+01  -4.131205e+01
   2.379870e+01   1.361954e+01
   2.731471e+01   4.826313e+01
  -9.284777e+01   8.654382e+01
  -2.810590e+02  -4.794970e+01
  -2.436109e+02  -1.834483e+02
  -5.221489e+01  -2.524908e+02
   1.813703e+02  -2.341903e+02
   2.732079e+02  -1.298146e+02
   1.782501e+02   6.355237e+01
  -1.256449e+01   1.084474e+02
  -7.955694e+01   3.368482e+01
   1.686371e+01  -7.219457e+01
   2.052054e+02  -5.194924e+01
   2.233223e+02   8.916318e+01
   7.756329e+01   2.063033e+02
  -1.032662e+02   1.661304e+02
  -1.406820e+02   2.161744e+01
  -1.136335e+02  -1.656794e+01
   2.486668e+00  -4.021679e+00
   2.997510e+01   5.760047e+01
  -9.986586e+01   1.194683e+02
  -1.937898e+02   2.914501e+01
  -1.741228e+02  -1.138211e+02
  -3.726401e+01  -2.339259e+02
   1.406142e+02  -1.954891e+02
   1.911667e+02  -4.601286e+01
   3.290461e+01   1.715124e+02
  -9.755708e+01   1.364875e+02
  -9.331206e+01   3.417497e+01
  -3.907206e+01  -5.984733e-01
   3.153522e+01  -3.860097e+01
   1.231009e+01  -1.868279e+01
  -6.397956e+01   4.262786e+01
  -6.188250e+01  -6.167284e+01
  -7.865603e+00  -1.911159e+02
   1.027025e+02  -1.518874e+02
   2.546866e+02  -3.391897e+01
   2.329271e+02   1.381058e+02
   4.873214e+01   2.628247e+02
  -1.193062e+02   1.014838e+02
  -9.294103e+01   7.806796e+00
  -6.753251e+01  -7.538574e+01
  -3.642553e+01  -4.914338e+01
  -4.249761e+01  -1.986226e+01
  -1.012515e+02   2.801219e+01
  -6.774138e+01  -3.106969e+01
   2.218295e+01  -2.747209e+01
   6.857263e+01  -8.642049e+01
   9.444268e+01   9.269124e+00
  -2.268345e+01   8.328317e+01
  -1.135984e+02   8.754532e+01
  -1.762506e+02  -3.176483e+01
  -8.382477e+01  -1.785030e+02
   1.042740e+02  -2.776677e+02
   2.829931e+02  -9.861946e+01
   2.940521e+02   8.578711e+01
   1.550686e+02   1.563561e+02
  -1.984101e+01   1.732673e+02
  -9.724566e+01   9.406576e+01
  -9.021578e+01   6.100591e+01
  -5.915340e+01   8.380722e+01
  -7.321900e+01   8.136214e+01
  -1.866573e+02   1.481216e+01
  -1.150485e+02  -1.982890e+02
  -4.765746e+01  -2.192355e+02
   9.593655e+01  -1.883096e+02
   1.335620e+02  -3.800081e+01
   1.354387e+02   8.040111e+01
   1.488432e+01   1.860686e+02
  -7.637530e+01   5.922700e+01
  -7.469995e+01  -1.499200e+01
  -9.089818e+00  -8.858103e+01
   1.578258e+01  -3.300755e+01
  -8.363647e-01  -4.449363e+01
  -3.841441e+01  -3.422016e+01
   1.029798e+01  -2.614219e+01
   9.614031e+01  -1.017834e+01
   1.571903e+02   2.098471e+01
   1.655111e+02   8.691504e+01
   1.097407e+01   9.420320e+01
  -8.924099e+01   8.033288e+01
  -1.258681e+02   2.001271e+01
  -7.083157e+01  -4.837065e+01
   3.971954e+01  -6.550124e+01
   5.994265e+01   3.581366e+01
   1.540690e+01   1.035615e+02
  -4.334561e+01   6.178297e+01
  -3.038417e+01   3.729578e+00
  -2.775188e+01  -4.581165e+01
  -3.495008e+01  -9.269890e+01
  -8.579675e+01   4.500438e+00
  -9.970120e+01  -3.983164e+00
  -4.360450e+01  -7.482288e+01
   2.907513e+01  -1.225443e+02
   1.250278e+02  -1.261251e+02
   1.692597e+02  -7.488671e+01
   1.210791e+02   4.655933e+01
   3.143347e+01   8.657318e+01
  -7.571275e+01   8.361370e+01
  -6.210006e+01   1.158171e+00
   7.995637e+01  -2.362896e+01
   1.202982e+02   4.528068e+01
   6.776783e+01   1.078930e+02
  -2.548403e+01   8.916568e+01
  -1.948187e+02   2.346839e+01
  -1.658161e+02  -4.933765e+01
  -2.690061e+01  -1.025883e+02
   6.999153e+01  -2.369532e+01
   3.865837e+01   4.996003e+01
  -2.665818e+01   6.591062e+01
  -7.433941e+01   2.112396e+01
  -6.087448e+01  -1.402371e+02
   7.726743e+01  -1.444596e+02
   1.797712e+02  -5.447409e+01
   1.140339e+02   1.170011e+02
   3.221318e+01   1.890637e+02
  -1.027313e+02   1.917370e+02
  -6.726566e+01  -8.043178e+01
  -3.423500e+01  -1.028581e+02
  -7.234452e-01  -1.467338e+02
   4.312190e+01  -2.435820e+01
   1.866634e+01   4.133841e+01
   3.207664e+01   2.700102e+01
   1.695722e+01  -4.868832e+01
   6.153070e+01  -2.489171e+01
   9.529437e+01   8.597102e+01
   5.015235e+01   1.323724e+02
  -4.754885e+01   8.948417e+01
  -1.784386e+02  -4.174501e+01
  -1.270698e+02  -1.025135e+02
  -3.269690e+01  -4.248055e+01
   1.025338e+02  -2.226410e+01
   1.115999e+02   1.757192e+01
  -1.714596e+01   1.754402e+01
  -4.197660e+01  -1.197089e+01
  -2.727253e+01  -2.350020e+00
   3.129115e+01  -3.410182e+01
  -1.744381e+01   1.060907e+01
  -6.520427e+01  -1.631052e+01
  -4.756259e+01  -1.864650e+01
   5.198298e+01  -7.888276e+01
   1.151884e+02  -1.015784e+02
   1.707212e+02  -4.867462e+01
   1.235593e+02   4.605692e+01
   3.495166e+01   1.624829e+02
  -8.982764e+01   1.312382e+02
  -1.045346e+02   1.176956e+02
  -7.860525e+01  -3.913106e+01
   1.157575e+01  -2.662984e+01
   2.143233e+01   2.062070e+01
  -3.107066e+01   1.672238e+01
  -4.879025e+00  -2.503293e+01
  -9.187972e+01  -1.060130e+02
   1.106145e+01  -8.429662e+01
   8.493212e+01  -7.727042e+00
   4.775475e+01   6.980623e+01
  -3.163657e+01   1.434825e+02
  -1.077388e+02  -2.509501e+01
  -1.406575e+02  -6.258364e+01
  -1.656859e+01  -1.432458e+02
   7.375689e+01  -1.085146e+02
   1.131570e+02   2.023965e+01
   2.565109e+01   7.299580e+01
  -5.880299e+01   6.244706e+01
  -3.343473e+01   6.144483e+01
   6.735471e+01   2.027087e+01
   5.166205e+01   3.729838e+01
   8.479030e+00   4.679105e+01
  -4.265552e+01   8.829411e+01
  -1.459323e+02   6.207862e+01
  -5.256345e-01   3.256670e+00
   5.775223e+01  -7.943532e+01
   7.975080e+01  -7.844475e+01
   1.929369e+01  -1.439660e+01
  -1.701071e+01   7.179066e+01
  -2.364266e+01   5.503667e+01
  -3.824092e+01  -3.259803e+01
  -1.570670e-01  -6.140810e+01
   1.090874e+01  -4.655940e+01
   5.656481e+01  -2.536573e+01
   7.445676e+00  -4.654208e+00
   3.878862e+01   1.328738e+01
   3.217256e+01  -2.060728e+01
   1.438318e+00   2.721196e+01
  -3.312770e+00   4.154530e+01
  -2.296925e+01   1.933216e+01
  -5.754415e+01   2.720152e+01
  -6.102152e+01  -7.191299e+01
  -3.900444e+00  -5.375800e+01
   6.410818e+01  -5.666960e+01
   4.897632e+01   1.966510e+01
   6.012154e+01   1.024165e+01
  -3.539702e+01  -1.268992e+01
  -3.743856e+01  -3.684848e+01
  -3.148588e+01  -1.790195e+01
   2.374798e+01  -2.761256e+01
   7.016571e+01  -9.395386e+00
   1.042861e+01   1.595674e+01
  -4.453964e+01  -3.009799e+01
  -2.157132e+01  -4.808575e+01
   7.647636e+01  -3.166011e+01
   8.044006e+01   4.244061e+01
