
 $NMID
 id='ANONYMOUS ', fmtdat='(2E16.6)'
 volume=1.0
 tramp=1.0
 $END
  -4.692054e+03   4.302797e+01
  -2.779948e+03  -2.971496e+03
   9.379822e+02  -3.107692e+03
   2.406643e+03  -8.908970e+02
   1.025963e+03   9.494220e+02
  -8.419912e+02   7.163485e+02
  -1.094444e+03  -5.123651e+02
  -3.724416e+01  -1.240161e+03
   9.992506e+02  -9.295915e+02
   1.124673e+03   1.982548e+02
   5.434619e+02   1.081424e+03
  -2.560784e+02   9.525674e+02
  -8.385170e+02   1.224232e+02
  -5.401846e+02  -8.293778e+02
   3.802935e+02  -8.184675e+02
   6.807517e+02   6.907199e+01
   2.345871e+02   7.702486e+02
  -3.819113e+02   6.130237e+02
  -6.073552e+02   5.383970e+01
  -4.291209e+02  -4.202650e+02
  -2.409006e+01  -4.340181e+02
   2.524608e+02  -2.674092e+02
   2.979229e+02  -1.278716e+01
  -1.492921e+02   1.706356e+02
  -4.885622e+02  -1.083849e+02
  -2.345211e+02  -5.388629e+02
   4.389172e+02  -4.400713e+02
   8.828867e+02   4.093412e+01
   4.938883e+02   5.895525e+02
  -3.376594e+02   5.738203e+02
  -7.987291e+02  -5.094005e+00
  -4.134900e+02  -5.075156e+02
   2.319804e+02  -5.659155e+02
   6.109170e+02  -2.291984e+02
   5.507543e+02   2.259264e+02
   1.098102e+02   4.854771e+02
  -2.982931e+02   3.432565e+02
  -2.280019e+02  -2.828077e+02
   2.330518e+02  -4.879720e+02
   5.311409e+02  -2.418818e+01
   3.273457e+02   7.330524e+02
  -3.563188e+02   7.610478e+02
  -6.989791e+02   2.798262e+01
  -3.145821e+02  -5.617990e+02
   3.649071e+02  -3.660673e+02
   4.277913e+02   3.499452e+02
  -1.029739e+01   6.135975e+02
  -6.372398e+02   1.502731e+02
  -6.543907e+02  -4.240150e+02
  -1.754066e+02  -6.045825e+02
   4.193268e+02  -3.911614e+02
   6.871208e+02   9.677069e+01
   4.383221e+02   4.411350e+02
  -2.255445e+02   4.849618e+02
  -4.772047e+02   4.202126e+01
  -2.457145e+02  -2.542208e+02
   1.171912e+02  -1.261535e+02
   1.922044e+02   2.070427e+02
  -1.750927e+02   1.824866e+02
  -4.099290e+02  -3.944460e+01
  -2.166160e+02  -3.432640e+02
   1.963525e+02  -2.955231e+02
   3.691616e+02  -3.916975e+01
   2.416173e+02   8.808596e+01
  -6.207152e+00   2.188752e+02
  -1.734206e+02   3.402257e+02
  -3.706036e+02   2.394192e+02
  -2.924309e+02  -1.139397e+02
  -6.295639e+01  -4.940135e+02
   8.945324e+01  -3.947352e+02
   1.464971e+02  -6.074812e+01
   1.564371e+01   8.531835e+01
  -8.236798e+00  -9.758169e+01
   2.253967e+02  -2.254797e+02
   2.935983e+02  -1.030825e+01
   1.844321e+02   2.697011e+02
   8.295026e+00   3.144826e+02
  -1.983156e+02   2.359622e+01
  -2.225612e+02  -2.156947e+02
   4.123801e+01  -3.038112e+02
   2.989816e+02  -9.642773e+01
   4.223750e+02   1.971686e+02
   2.232345e+02   3.807053e+02
  -1.483111e+02   2.992415e+02
  -2.863171e+02   1.249812e+02
  -1.271502e+02   4.200705e+01
  -8.495594e+01   3.593799e+01
  -2.039822e+02   4.848259e+01
  -3.994906e+02  -6.073376e+01
  -3.630564e+02  -3.036808e+02
   4.113464e+00  -3.909365e+02
   3.595857e+02  -4.384672e+02
   5.091671e+02  -2.623122e+02
   3.189150e+02   8.043604e+01
   3.903106e+01   2.953018e+02
  -9.464548e+01   2.558458e+02
  -8.409240e+01   6.081600e+01
   1.127836e+02  -1.086403e+02
   1.794916e+02   9.892437e+00
   1.341611e+01   2.490804e+02
  -1.494676e+02   1.978801e+02
  -1.765380e+02  -9.541146e+01
   2.023919e+01  -2.104753e+02
   1.987456e+02  -5.132829e+01
   1.943298e+02   2.036189e+02
  -2.082499e+01   3.170595e+02
  -1.942604e+02   2.542355e+02
  -3.037075e+02  -5.986811e+01
  -2.766998e+02  -2.577726e+02
  -8.742390e+01  -2.641892e+02
   1.053178e+02  -1.312035e+02
   1.797770e+02  -2.272776e+01
   5.555484e+01   3.725897e+01
  -1.164778e+02  -4.126559e+01
  -3.145976e+01  -7.974779e+01
   1.159834e+02  -6.683129e+01
   1.996757e+02   1.998173e+01
   3.218096e+01   4.949532e+01
  -8.325988e+01   3.963769e+01
  -8.095680e+01  -6.118106e+01
   1.353248e+02  -7.527300e+01
   2.226928e+02  -1.998790e+01
   2.719416e+02   9.662049e+01
   3.601139e+01   2.631756e+02
  -2.299568e+02   2.775362e+02
  -3.127365e+02   1.417091e+02
  -1.944267e+02  -3.177715e+01
   3.114602e+01  -1.211399e+02
   8.113247e+01  -2.157547e+01
  -4.751116e+01   1.301815e+02
  -1.554098e+02   3.578999e+01
  -2.230119e+02  -7.745292e+01
  -5.648390e+01  -2.539686e+02
   8.586354e+01  -1.726594e+02
   1.767549e+02  -5.708512e+01
   1.175192e+02  -9.543385e+00
   1.085450e+01   4.055759e+01
  -3.062359e+01  -7.839622e+01
   3.987238e+01  -1.054614e+02
   2.231237e+02  -3.727956e+01
   1.764663e+02   1.271857e+02
   1.500382e+01   2.502055e+02
  -1.514507e+02   1.558153e+02
  -2.059442e+02   2.139989e+01
  -7.839553e+01  -1.473929e+02
   4.771433e+01  -1.339339e+02
   9.687626e+01  -6.499753e+01
   4.076396e+01  -6.687748e+00
   1.015271e+01   4.477911e+01
  -9.826529e+00  -3.098144e+00
   8.110462e+01   5.276134e+01
   7.848109e+01   1.011804e+02
   3.480785e+01   1.597569e+02
  -1.070509e+02   1.168541e+02
  -2.488807e+02   1.912284e+01
  -2.014990e+02  -1.328736e+02
  -3.481839e+01  -2.571100e+02
   1.378531e+02  -1.658258e+02
   1.673126e+02  -2.276240e+01
   5.541461e+01   4.046854e+01
   5.748160e+01   4.751328e+01
   7.309282e+01   1.212851e+01
   7.646596e+01   3.791553e+01
   1.302900e+01   8.114366e+01
  -5.041886e+01   7.957538e+01
  -1.003920e+02   4.186077e+01
  -1.169027e+02  -1.187982e+01
   3.405895e+01  -8.475328e+01
   9.569728e+01  -8.010967e+01
   1.457829e+02   1.043609e+01
   8.669652e+01   1.748359e+02
  -9.816132e+01   2.099982e+02
  -2.641912e+02   8.629854e+01
  -2.645026e+02  -5.007192e+01
  -1.019392e+02  -1.538640e+02
   3.370715e+01  -1.375421e+02
   1.035341e+02  -1.048653e+02
   8.702836e+01  -6.922666e+01
   9.064084e+01  -4.582030e+01
   8.095670e+01  -8.500539e+00
   1.376701e+02   5.118371e+01
   1.087572e+02   1.860864e+02
   7.443953e+01   2.186795e+02
  -1.264809e+02   2.023205e+02
  -1.617457e+02   2.093416e+01
  -1.469401e+02  -9.698849e+01
  -3.485134e+01  -1.608147e+02
   6.694676e+01  -9.326780e+01
   4.607010e+01   2.636520e+01
  -8.364643e+00   4.230158e+01
  -6.657460e+00   1.008990e+01
   2.118213e+01   1.675158e+00
   6.412573e+01   2.383131e+01
   9.122157e+00   2.075138e+01
  -2.035212e+01   3.854177e+01
  -1.833073e+02   1.642535e+01
  -1.414425e+02  -5.880244e+01
  -1.257033e+00  -7.866386e+01
   1.152532e+02  -9.160283e+01
   1.535474e+02  -4.110640e+01
   5.957703e+01   2.805140e+01
  -1.755885e+01   2.509832e+01
  -6.518296e+01  -5.580187e+00
   6.152343e+00  -5.332029e+01
   5.038966e+01  -3.746083e+01
   7.260954e+01   4.807042e+01
   6.586000e+01   2.106435e+01
   2.479708e+01   4.913277e+01
   5.550823e+01   3.348394e+01
   7.696661e+01   2.018867e+01
   1.008355e+01   9.647913e+01
  -6.041979e+00   1.159039e+02
  -1.128031e+02   1.375033e+02
  -1.304077e+02   4.588763e+01
  -1.244632e+02  -6.777411e+01
   1.916535e+01  -1.439955e+02
   1.111615e+02  -2.582754e+01
   3.787695e+01   1.053243e+01
  -8.842710e+01   3.761471e+00
  -1.148289e+02  -6.922399e+01
  -8.263104e+01  -1.300797e+02
   5.908111e+01  -1.068401e+02
   1.842154e+02  -5.428925e+01
   1.731869e+02   3.767944e+01
   4.690808e+01   9.657290e+01
  -8.200466e+01   9.508343e+01
  -3.887553e+01  -5.764487e-01
   2.573504e+01  -6.433759e+00
   1.310234e+02  -7.880421e+00
   2.567015e+01   9.843891e+01
  -6.866153e+01   1.307996e+02
  -1.191257e+02   3.361814e+01
  -1.177133e+02  -7.506247e+01
  -9.982828e-01  -1.650941e+02
   6.071261e+01  -1.276455e+02
   1.154122e+02   2.231937e+00
   6.633029e+01   1.077351e+02
   7.573528e+00   1.595818e+02
  -3.874463e+01   1.561814e+00
  -8.048148e+01  -5.291700e+01
  -6.320014e+01  -4.370014e+01
  -6.637847e+00   1.767550e+01
  -8.909970e+00  -7.639618e-01
  -8.577883e+01  -1.197127e+02
  -5.582114e+01  -1.169824e+02
   2.530213e+01  -7.925977e+01
   1.153853e+02   3.392788e+01
   1.275332e+02   3.076637e+01
  -4.860903e+01   5.390443e+01
  -1.018235e+02   5.511036e+01
  -7.019860e+01   1.054065e+01
  -2.978752e+01  -4.182513e+01
   9.183461e-01  -5.640222e+01
   3.367380e+01  -1.417413e+01
  -1.505433e+01  -1.981381e+01
   2.580684e+01  -2.114563e+01
   6.396553e+01   5.014334e+01
   5.244688e+01   2.870489e+01
  -1.674601e+01   9.839428e+01
  -1.101834e+02   7.573395e+01
  -1.815133e+02   5.592735e+01
  -1.176206e+02  -7.733665e+01
  -2.627084e+01  -1.702819e+02
   7.102935e+01  -1.398177e+02
   9.561148e+01  -7.124424e+01
   7.639598e+01   8.826132e+00
   5.187486e+01   4.422863e+01
   3.524658e+01  -1.858568e+01
   4.380641e+01   2.427975e+01
   7.363630e+01   6.387263e+01
   3.769853e+00   1.145058e+02
  -4.664459e+01   8.342156e+01
  -9.201462e+01   2.279742e+01
  -7.465225e+01  -8.083946e+01
  -2.897353e+01  -8.673149e+01
   9.034988e+01  -9.856815e+00
   9.878377e+01   1.116361e+02
   4.693496e+01   1.097125e+02
  -6.854570e+01   3.712312e+01
  -8.607142e+01   3.201881e+00
  -8.686780e+00  -4.732899e+01
  -2.634640e+01  -3.868222e+01
   6.589051e+01  -5.580997e+00
  -4.059956e+01   1.857599e+01
  -7.651816e+01   3.980305e+00
  -1.151707e+01  -2.383439e+01
   7.844013e+01  -6.133610e+01
   9.204013e+01  -5.066414e+01
   9.815696e+01  -5.853158e+00
  -1.657296e+01   7.721079e+01
   1.804569e+00   6.320277e+01
  -5.766401e+00   6.345755e+01
  -2.508225e+01  -1.624689e+01
   2.901269e+01  -2.919537e+01
  -1.568174e+00   3.440387e+01
  -1.189865e+01   5.993324e+01
  -1.768391e+01   3.020331e+01
  -4.004996e+01  -4.890940e+01
  -3.252229e+01   8.212825e+00
   3.280261e+00  -4.506041e+00
  -2.055105e+01   2.635483e+01
   3.786463e+01   4.451341e+00
   3.014471e+00  -5.384286e+01
   3.241414e+01  -6.154910e+01
   3.455095e+01  -2.145725e+01
   2.870872e+01   6.127015e+01
   1.893261e+01   3.862525e+01
  -4.812709e+01  -1.523972e+01
  -7.605657e+01  -5.423315e+01
   2.127743e+01  -1.141379e+02
   5.567641e+01  -1.750311e+01
   1.110345e+02   4.928271e+01
   4.589375e+01   5.163057e+01
  -6.696219e+01   3.585209e+01
  -3.764950e+01  -4.752434e+00
  -2.468694e+00   5.805424e+00
   3.004548e+01   3.435774e+01
   6.536062e+01  -1.531055e+01
  -3.995201e+01   3.097049e+00
  -1.113940e+02   1.886236e+01
