
 $NMID
 id='ANONYMOUS ', fmtdat='(2E16.6)'
 volume=1.0
 tramp=1.0
 $END
   4.594728e+03  -9.486177e+01
   2.657923e+03   2.902161e+03
  -9.301311e+02   3.013855e+03
  -2.356000e+03   9.012707e+02
  -1.026154e+03  -8.246848e+02
   8.386530e+02  -6.194385e+02
   1.112206e+03   4.993247e+02
  -6.074113e+00   1.121036e+03
  -8.901798e+02   7.860867e+02
  -9.920376e+02  -1.666561e+02
  -4.871803e+02  -8.870762e+02
   2.626897e+02  -9.299608e+02
   7.758829e+02  -1.132959e+02
   4.351247e+02   8.112174e+02
  -3.022439e+02   7.654802e+02
  -6.804471e+02  -4.776682e+01
  -2.860368e+02  -6.590972e+02
   3.800752e+02  -5.801404e+02
   6.171332e+02  -1.319770e+02
   3.698246e+02   4.018692e+02
   4.562840e+01   4.609520e+02
  -1.673939e+02   2.874225e+02
  -2.667836e+02   7.487101e+01
   8.437945e+01  -1.658784e+02
   3.747087e+02   7.012680e+01
   2.028484e+02   4.052592e+02
  -4.413928e+02   4.560024e+02
  -9.143464e+02  -7.729846e+01
  -4.113012e+02  -6.147326e+02
   4.492948e+02  -5.401085e+02
   8.006633e+02   7.111816e+01
   3.944803e+02   5.077410e+02
  -2.883041e+02   5.411735e+02
  -5.990065e+02   1.718867e+02
  -4.442334e+02  -1.834885e+02
  -6.591493e+01  -4.312137e+02
   2.057705e+02  -3.529060e+02
   2.216516e+02   1.928831e+02
  -1.374385e+02   4.610298e+02
  -4.280429e+02   4.033389e+01
  -2.891988e+02  -6.123399e+02
   2.822726e+02  -7.107952e+02
   6.250195e+02  -1.186514e+01
   2.504793e+02   5.566953e+02
  -3.262294e+02   3.569353e+02
  -4.159372e+02  -3.172740e+02
   6.772548e+01  -6.241657e+02
   5.519345e+02  -1.875633e+02
   6.149823e+02   4.501749e+02
   1.495257e+02   6.474374e+02
  -4.027257e+02   3.716856e+02
  -6.801598e+02  -9.416920e+01
  -4.175565e+02  -4.215468e+02
   1.870685e+02  -3.898919e+02
   4.536887e+02  -8.695434e+01
   2.308417e+02   1.868605e+02
  -1.662058e+02   1.427882e+02
  -1.373740e+02  -1.429246e+02
   1.901251e+02  -1.913369e+02
   3.743361e+02  -4.839298e+00
   1.363585e+02   2.981136e+02
  -2.130986e+02   2.951284e+02
  -2.926440e+02   8.130341e+01
  -1.315783e+02  -6.047624e+01
   3.419409e+01  -2.279320e+02
   1.982668e+02  -3.089499e+02
   3.236139e+02  -1.903308e+02
   3.307697e+02   1.745795e+02
   1.090597e+02   4.062120e+02
  -1.263112e+02   4.162495e+02
  -1.724261e+02   1.728316e+02
  -6.518757e+01   1.066285e+01
  -6.950209e+01   7.528941e+01
  -2.306382e+02   9.736295e+01
  -3.041212e+02  -6.819994e+01
  -1.948338e+02  -3.097402e+02
   7.371384e+01  -2.318607e+02
   1.972937e+02   2.930707e+00
   1.633989e+02   2.267909e+02
  -7.396446e+01   2.684037e+02
  -2.745640e+02   8.846057e+01
  -3.484510e+02  -1.730037e+02
  -1.806412e+02  -3.461689e+02
   1.064893e+02  -3.624977e+02
   2.169696e+02  -1.549408e+02
   1.890040e+02   1.082982e+01
   1.130157e+02  -3.802792e+01
   2.517305e+02  -4.502527e+01
   4.221623e+02   9.178136e+01
   3.554751e+02   2.936903e+02
  -2.912143e+01   4.648468e+02
  -3.909301e+02   4.238623e+02
  -5.077466e+02   2.199803e+02
  -3.502241e+02  -5.821069e+01
  -1.185575e+02  -2.855982e+02
   1.105215e+02  -2.399761e+02
   7.676870e+01  -4.658097e+01
  -1.051527e+02   7.533701e+01
  -2.332312e+02  -2.805212e+01
  -7.116422e+01  -2.178263e+02
   1.612778e+02  -2.231896e+02
   2.128630e+02   7.822502e+00
   3.067660e+00   1.521886e+02
  -2.123534e+02   6.809915e+00
  -1.399324e+02  -2.388936e+02
   4.496277e+01  -3.275739e+02
   2.563540e+02  -1.822871e+02
   2.919837e+02   7.734322e+01
   2.913579e+02   1.848030e+02
   8.331100e+01   2.164513e+02
  -1.195751e+02   1.971810e+02
  -1.831379e+02   8.558767e+01
  -4.875002e+01  -5.387909e+01
   1.438188e+02   1.070187e+01
   3.880692e+01   8.986904e+01
  -1.229597e+02   9.817491e+01
  -2.029071e+02   3.219352e+01
  -3.086128e+01  -1.046257e+02
   7.070711e+01  -2.343429e+01
   5.436164e+01   5.905283e+01
  -8.894055e+01   7.804859e+01
  -2.481261e+02   3.599776e+00
  -1.924524e+02  -1.179868e+02
  -1.007179e+01  -2.484564e+02
   1.915837e+02  -2.476189e+02
   3.230183e+02  -1.058471e+02
   1.760354e+02   4.873285e+01
  -5.308389e+01   1.454626e+02
  -1.446636e+02  -4.833363e+00
   4.619341e+01  -1.438643e+02
   2.114072e+02  -8.849624e+01
   1.989120e+02   7.410580e+01
   7.095857e+01   2.199822e+02
  -9.587623e+01   1.127798e+02
  -1.336124e+02   1.512758e+01
  -4.719005e+01  -2.098905e+01
   2.622976e+01   1.593467e+01
   6.376706e+01   5.713527e+01
  -8.630406e+00   1.095257e+02
  -2.050314e+02   4.620427e+01
  -1.636917e+02  -9.973370e+01
  -3.125558e+01  -2.705216e+02
   1.858742e+02  -1.785496e+02
   2.286726e+02   8.153246e+00
   6.016653e+01   1.672346e+02
  -9.661022e+01   1.385311e+02
  -7.627046e+01   3.794393e+00
  -1.185042e+01  -2.328899e+01
   4.511420e+01  -1.680098e+01
   1.564367e+01   3.010488e+01
  -5.688055e+01  -3.673802e+01
  -9.861012e+01  -8.075172e+01
  -2.004208e+01  -1.725088e+02
   1.249866e+02  -1.539801e+02
   2.288963e+02  -2.791243e+01
   2.546208e+02   1.235647e+02
   6.547951e+01   2.382810e+02
  -1.064449e+02   1.816283e+02
  -1.495039e+02   2.326802e+01
  -8.043746e+01  -4.557787e+01
  -3.221779e+01  -3.296467e+01
  -5.928473e+01   3.655501e+00
  -7.705530e+01  -5.300232e+00
  -2.247858e+00  -5.048748e+01
   2.345474e+01  -5.967121e+01
   9.864752e+01  -3.487268e+01
   1.040388e+02   3.698412e+01
  -2.474002e+01   7.265776e+01
  -1.838070e+02   7.629889e+01
  -2.016922e+02  -5.533670e+01
  -6.702556e+01  -2.077379e+02
   1.416288e+02  -2.599710e+02
   3.303257e+02  -8.432200e+01
   2.996950e+02   6.825493e+01
   1.286672e+02   1.769215e+02
  -1.752815e+01   1.675483e+02
  -5.333539e+01   1.429078e+02
  -6.596488e+01   6.917399e+01
  -9.352054e+01   5.423939e+01
  -1.179525e+02   1.794114e+01
  -1.382019e+02  -7.138430e+01
  -1.030111e+02  -1.276415e+02
  -1.610857e+01  -1.940489e+02
   1.002780e+02  -1.717023e+02
   1.507869e+02   1.955295e+01
   1.300589e+02   1.475904e+02
  -2.068685e+01   1.244364e+02
  -8.918434e+01   4.969646e+01
  -3.217314e+01  -8.475133e+00
  -8.359462e+00  -2.730863e+01
   6.049712e+01  -4.105428e+01
  -3.133218e+01  -1.554799e+01
  -5.688715e+01  -1.446844e+01
  -2.713932e+01  -4.964816e+00
   7.025089e+01  -1.945867e+01
   1.618045e+02   3.192910e+01
   1.189185e+02   6.349600e+01
   5.956234e+00   7.554184e+01
  -1.305479e+02   8.876031e+01
  -1.352897e+02   4.296508e+01
  -7.087293e+01  -5.134509e+01
   4.034506e+01  -5.536459e+01
   8.841500e+01   1.633399e+01
   1.572743e+01   8.142654e+01
  -8.345794e+01   9.630740e+01
  -1.017723e+02  -2.835895e+01
  -7.781554e+01  -8.963149e+01
  -7.641257e+01  -2.432435e+01
  -8.725501e+01   1.903745e+00
  -3.508917e+01  -4.822683e+01
  -3.280775e+01  -1.010553e+02
   4.863321e+01  -1.587261e+02
   1.070093e+02  -1.248478e+02
   1.587036e+02  -2.399829e+01
   1.577576e+02   1.088061e+02
   2.067398e+01   1.532807e+02
  -1.256880e+02   6.419034e+01
  -6.625353e+01   4.857607e+00
   1.366251e+01   3.275888e+01
   1.145152e+02   3.797044e+01
   6.918365e+01   8.187296e+01
  -9.655288e+01   1.137953e+02
  -1.729631e+02   6.579875e+01
  -1.647375e+02  -2.104785e+01
  -7.659617e+01  -5.368440e+01
   1.472508e+01  -1.026703e+02
   7.416591e+01  -4.207619e+01
  -5.499702e+01  -1.391594e+01
  -7.064766e+01  -6.238726e+01
  -4.249835e+01  -1.320971e+02
   1.009717e+02  -1.319810e+02
   1.755509e+02  -3.213996e+01
   1.367151e+02   1.161296e+02
  -2.284173e+01   1.946002e+02
  -5.650533e+01   1.365761e+02
  -9.681804e+01   2.422729e+01
  -8.925686e+01  -9.997519e+01
  -3.014580e+01  -1.197279e+02
   1.876656e+01  -1.568499e+01
   5.376026e+01   4.571949e+01
   4.701040e+01  -1.821717e+01
  -9.350581e+00  -1.581039e+01
   1.405335e+01   7.110921e+00
   8.467070e+01   1.053316e+02
   5.337157e+01   1.241623e+02
  -4.806719e+01   4.652542e+01
  -1.475693e+02  -3.031591e+01
  -1.465576e+02  -2.886210e+01
   1.235522e+01  -1.747989e+01
   8.890687e+01  -2.971585e+01
   8.556383e+01   4.020339e+00
   2.931659e+01   3.986838e+00
  -4.875056e+01   2.487873e+01
  -5.658972e+01  -1.180090e+01
   3.332866e+01  -1.493852e+01
  -1.383448e+01  -1.463755e+01
  -5.463505e+01  -3.525208e+01
  -8.193409e+01   1.430132e-01
  -2.126212e+01  -8.821680e+01
   1.483719e+02  -1.013428e+02
   1.923567e+02  -7.955409e+01
   1.605276e+02   7.706998e+01
   4.821504e+01   1.698588e+02
  -5.692421e+01   1.413059e+02
  -1.165167e+02   8.274767e+01
  -1.215704e+02  -6.739840e+01
  -4.870300e+01  -6.120250e+01
   1.610662e+01  -2.974468e+01
   2.808190e+01   4.753509e+00
  -1.922544e+01  -3.176420e+01
  -2.900249e+00  -8.039655e+01
   3.210689e+01  -8.194666e+01
   9.110434e+01   3.461737e+01
   7.990240e+01   1.127620e+02
   2.649689e+01   1.145821e+02
  -9.445599e+01   3.020684e+01
  -7.479527e+01  -8.671614e+01
  -6.019123e+01  -1.035007e+02
   9.220799e+01  -4.576954e+01
   1.401091e+02   1.697124e+00
   3.949336e+01   6.474786e+01
  -5.506650e+01   9.244223e+01
  -1.642513e+01   7.132046e+01
  -2.909647e+00   3.137623e+01
   7.669793e+01   1.693119e+01
   7.090418e+00   5.330608e+00
  -1.384759e+02   7.130765e+01
  -1.100305e+02   3.655198e+01
  -7.610434e+01   3.357719e+00
   4.134732e+00  -1.108889e+02
   7.517435e+01  -6.312263e+01
   9.316211e-01   1.300618e+01
   3.203452e+01   7.850463e+01
  -3.747621e+01   5.756292e+01
  -6.496693e+01   9.362593e+00
  -2.797174e+01  -6.917737e+00
  -2.098352e+01  -2.959138e+01
   7.075888e+00   1.824131e+01
   5.834012e+01  -8.801696e-01
   1.770649e+01   1.528872e+01
  -1.812406e+00   4.670191e+00
  -1.143315e+01   6.288068e+00
  -1.704141e+01   4.611893e+01
  -1.010035e+01   4.109529e+01
  -5.016472e+01  -1.992402e+01
  -2.668783e+01  -8.809084e+01
   2.084203e+01  -3.265149e+01
   5.316233e+01   4.234249e+00
   2.326460e+01   4.002028e+01
   2.709491e+01   3.166240e+01
  -1.995676e+01   2.397731e+01
  -1.233018e+02   3.062881e+01
  -6.717920e+01  -4.474990e+01
  -3.027945e+01  -5.843292e+01
   8.881550e+01  -4.297313e+01
   3.737453e+01  -4.389408e+01
  -3.325272e+01   6.028256e+00
  -3.002701e+01  -3.010916e+01
   6.155777e+01  -2.534815e+01
   7.002860e+01  -7.299765e+01
