
 $NMID
 id='ANONYMOUS ', fmtdat='(2E16.6)'
 volume=1.0
 tramp=1.0
 $END
  -4.560742e+03  -1.325126e+02
  -2.489196e+03  -2.764273e+03
   1.008942e+03  -3.037917e+03
   2.470354e+03  -9.227695e+02
   1.002479e+03   8.451880e+02
  -8.125521e+02   7.177378e+02
  -1.092464e+03  -4.967970e+02
   4.491882e+01  -1.180981e+03
   9.168818e+02  -8.258747e+02
   1.085946e+03   2.003107e+02
   5.403588e+02   9.266758e+02
  -3.076900e+02   9.926411e+02
  -7.538693e+02   8.000474e+01
  -4.488804e+02  -7.763567e+02
   3.771500e+02  -7.837211e+02
   6.607475e+02   1.253294e+02
   2.785321e+02   6.721877e+02
  -3.410657e+02   6.314331e+02
  -6.841237e+02   4.297773e+01
  -4.293169e+02  -3.563581e+02
   4.239408e+01  -4.646337e+02
   3.509852e+02  -2.670934e+02
   2.408379e+02   5.840227e-01
  -4.261289e+01   1.423165e+02
  -3.816880e+02  -1.035273e+02
  -2.391786e+02  -4.910033e+02
   4.251040e+02  -4.595225e+02
   9.583086e+02   6.723776e+01
   4.814184e+02   6.210311e+02
  -3.810132e+02   5.789684e+02
  -7.701119e+02   3.144071e+01
  -4.477387e+02  -5.085268e+02
   2.737573e+02  -5.480213e+02
   6.388286e+02  -2.156035e+02
   4.631045e+02   2.672397e+02
   2.971930e+00   5.230615e+02
  -2.379775e+02   3.218230e+02
  -2.255669e+02  -2.091769e+02
   1.553591e+02  -4.492106e+02
   5.020336e+02   5.551871e+00
   2.828010e+02   7.026870e+02
  -3.236105e+02   7.270445e+02
  -6.462645e+02   4.946992e+01
  -3.061132e+02  -5.792314e+02
   2.906407e+02  -3.587931e+02
   4.281890e+02   3.538869e+02
  -5.739764e+01   6.244618e+02
  -6.323818e+02   1.973063e+02
  -6.721470e+02  -4.326709e+02
  -1.746763e+02  -6.336532e+02
   4.176014e+02  -3.204878e+02
   6.521514e+02   3.818235e+01
   3.332350e+02   4.077784e+02
  -1.917821e+02   4.205750e+02
  -4.753575e+02   3.786943e+01
  -2.473407e+02  -2.351228e+02
   1.495570e+02  -1.688989e+02
   1.562475e+02   1.188285e+02
  -1.694950e+02   1.927746e+02
  -3.345955e+02  -4.708936e+01
  -1.036293e+02  -3.126473e+02
   2.036314e+02  -2.875431e+02
   3.312434e+02  -8.760504e+00
   2.185554e+02   1.182907e+02
  -9.614405e+01   1.581391e+02
  -2.013764e+02   3.115695e+02
  -3.099895e+02   2.320007e+02
  -2.612816e+02  -1.109995e+02
  -1.526714e+02  -4.318142e+02
   9.749370e+01  -4.085340e+02
   1.218080e+02  -1.912230e+02
   5.468443e+01   2.177595e+01
   8.526463e+01  -4.565312e+01
   1.844830e+02  -1.436404e+02
   2.769927e+02   3.794286e+01
   2.299487e+02   2.892262e+02
  -3.095386e+01   2.993141e+02
  -2.227383e+02   6.545669e+01
  -1.861255e+02  -1.810181e+02
   5.665863e+01  -2.266433e+02
   2.862180e+02  -9.119309e+01
   3.324872e+02   2.272093e+02
   1.843609e+02   3.594990e+02
  -1.584041e+02   3.108722e+02
  -2.746069e+02   1.155797e+02
  -1.609394e+02   7.636044e+00
  -7.068617e+01   3.738583e+01
  -2.483083e+02   7.547226e+01
  -3.851075e+02  -6.040861e+01
  -3.099574e+02  -3.057723e+02
  -2.685952e+01  -4.344631e+02
   3.315734e+02  -4.050189e+02
   4.834995e+02  -1.966654e+02
   3.262928e+02   1.853821e+01
   1.000876e+02   3.212964e+02
  -1.311008e+02   2.980127e+02
  -9.195546e+01   4.022546e+01
   8.481228e+01  -1.601890e+02
   2.281166e+02   4.577956e+00
   8.862800e+01   2.206328e+02
  -1.634264e+02   2.126761e+02
  -1.979578e+02  -1.499989e+01
  -7.490651e+00  -1.960408e+02
   1.842243e+02  -4.444830e+01
   1.436418e+02   2.373528e+02
  -2.607327e+01   3.279317e+02
  -2.274761e+02   1.614369e+02
  -2.677540e+02  -1.125602e+02
  -2.730150e+02  -2.352557e+02
  -1.394609e+02  -2.664431e+02
   6.516481e+01  -1.779594e+02
   2.216591e+02  -4.399472e+01
   9.839738e+01  -5.377064e+00
  -5.121067e+01  -3.243128e+01
  -3.053023e+01  -1.212462e+02
   9.354079e+01  -1.326285e+02
   1.376560e+02   1.718430e+01
   4.130139e+01   6.760951e+01
  -7.407361e+01  -2.676689e+01
  -4.969854e+01  -6.365215e+01
   1.711132e+02  -1.129652e+02
   2.749919e+02   2.025801e+01
   2.568320e+02   1.522799e+02
   6.016222e+01   2.290793e+02
  -1.617085e+02   2.667108e+02
  -2.754003e+02   1.430778e+02
  -1.299144e+02  -9.563923e+01
   2.148719e+01  -9.253825e+01
   9.673362e+01   1.483704e+01
  -5.744971e+00   9.143659e+01
  -1.931269e+02   4.466246e+01
  -2.071452e+02  -5.649957e+01
  -7.931248e+01  -2.260770e+02
   8.741469e+01  -1.840473e+02
   1.431067e+02  -2.824903e+01
   6.934305e+01   8.758665e+01
  -2.945617e+01   4.133694e+01
  -7.636572e+01  -5.058707e+01
   6.914080e+01  -1.121598e+02
   2.062391e+02  -7.149593e+01
   2.486411e+02   1.070921e+02
   8.565714e+01   1.921448e+02
  -1.362855e+02   1.765827e+02
  -2.188739e+02   1.134526e+01
  -1.086733e+02  -1.407800e+02
   6.487490e+01  -1.166285e+02
   8.839465e+01  -2.231254e+01
   9.967856e+00   2.752364e+01
  -2.031590e+01  -1.112793e+01
   3.039433e+01  -8.956856e+00
   9.655685e+01   2.757259e+01
   8.579860e+01   9.733356e+01
   4.256031e+01   1.471927e+02
  -1.140798e+02   1.623238e+02
  -2.322669e+02   6.449824e+01
  -2.275326e+02  -1.226062e+02
  -8.952148e+01  -2.572803e+02
   1.072507e+02  -1.812790e+02
   1.296043e+02  -6.570938e+01
   6.293467e+01   6.315273e+01
  -8.497714e+00   3.959400e+01
   4.861174e+01  -1.027550e+01
   9.219250e+01   1.349037e+01
   2.075536e+01   8.739842e+01
  -6.307327e+01   9.098547e+01
  -8.230151e+01   1.886776e+01
  -7.498352e+01  -5.780801e+01
  -4.477206e+00  -8.170386e+01
   1.357434e+02  -9.218006e+01
   1.921436e+02   7.898699e+01
   1.013182e+02   1.711073e+02
  -7.553347e+01   2.039251e+02
  -2.970918e+02   9.960053e+01
  -2.541723e+02  -6.383196e+01
  -1.123027e+02  -1.699394e+02
   7.547976e+01  -1.667075e+02
   1.225265e+02  -3.728325e+01
   6.117818e+01  -4.110704e+01
   3.229312e+01  -1.108661e+02
   8.335436e+01  -9.683006e+01
   1.559295e+02   3.073292e+01
   1.589675e+02   1.615369e+02
  -1.745841e+01   2.187307e+02
  -1.266992e+02   1.469496e+02
  -1.472328e+02  -7.387357e+00
  -1.008703e+02  -1.072694e+02
  -2.578087e+01  -1.058595e+02
   3.169833e+01  -6.610456e+01
   8.337250e+01  -4.839812e+01
   2.841299e+01  -8.244005e-02
   7.276828e+00   3.397516e+01
   3.135234e+01   4.331347e+01
   1.221084e+02   7.656823e+00
   6.824024e+01   9.016658e+01
  -8.111396e+01   2.464892e+01
  -1.490897e+02  -5.504921e+00
  -1.620917e+02  -8.593315e+01
  -2.950161e+01  -1.072745e+02
   1.296220e+02  -4.690607e+01
   1.655984e+02  -1.832737e+00
   9.634326e+01   5.871796e+01
  -5.861085e+01   5.543413e+01
  -6.539648e+01  -1.392733e+01
  -5.271495e+00  -6.965130e+01
   3.641001e+01  -9.015823e+01
   4.798745e+01  -1.387078e+01
   6.689396e+01   4.917820e+01
   8.309116e+01   6.816802e+01
   8.540154e+01   3.969572e+01
   3.532746e+01   3.626746e+01
   3.703972e+01   2.752488e+01
  -1.948502e+01   1.398935e+02
  -9.626233e+01   1.742754e+02
  -1.432308e+02   3.966252e+01
  -1.215006e+02  -1.037895e+02
  -2.061423e+00  -1.200724e+02
   1.014461e+02  -7.300948e+01
   2.710454e+01   4.910327e+01
  -7.727126e+01   3.918790e+01
  -1.444334e+02  -4.579919e+01
  -9.923492e+01  -1.159952e+02
   8.314095e+01  -1.002965e+02
   2.124924e+02  -8.839587e+01
   1.922723e+02   7.007753e+01
   1.788027e+01   1.150487e+02
  -6.445782e+01   7.011720e+01
  -5.685491e+01  -3.656290e+01
   5.637674e+01  -4.084467e+01
   1.087583e+02   1.365862e+01
   6.136765e+01   9.341151e+01
  -1.000093e+02   1.716695e+02
  -1.985897e+02   4.886079e+01
  -1.739904e+02  -8.515795e+01
   1.124222e+00  -2.008957e+02
   1.131605e+02  -1.649869e+02
   8.127366e+01   2.734700e+01
   1.508522e+01   1.236698e+02
   5.682505e+00   1.160996e+02
  -4.759149e+01   3.937685e+01
  -6.103924e+01   4.018403e+00
  -5.741333e+01  -1.809816e+01
  -7.025416e-01   6.790189e+00
   2.255636e+01   3.201723e+00
  -5.353312e+01  -9.608359e+01
  -4.430069e+01  -1.219110e+02
   3.797328e+01  -3.462738e+01
   1.494987e+02   3.413383e+01
   1.363020e+02   6.769867e+01
   9.011943e+00   4.663251e+01
  -7.564393e+01   5.416104e+01
  -1.141298e+02  -2.402761e+00
  -4.507723e+01   1.233527e+01
   5.691942e+01  -3.973547e+01
   2.857783e+01  -2.059671e+01
  -4.591447e+01   1.813087e+01
  -2.060167e+01   1.222601e+01
   5.984115e+01   2.344642e+00
   1.036877e+02  -1.895350e+01
   4.849997e+01   9.807532e+01
  -1.001930e+02   1.553978e+02
  -1.790025e+02   1.036138e+02
  -1.642140e+02  -6.810862e+01
  -2.758995e+01  -1.552149e+02
   7.623326e+01  -1.452874e+02
   1.290630e+02  -4.333012e+01
   5.608342e+01   4.547358e+01
  -1.021365e+01   2.315448e+01
  -6.873972e+01  -4.033096e+00
   3.087495e+01   8.642508e+00
   3.843249e+01   7.547363e+01
   2.886288e+01   7.595099e+01
  -2.722828e+01   3.877184e+01
  -9.951643e+01  -3.682281e+01
  -5.812700e+01  -1.124797e+02
   2.947713e+01  -1.601962e+02
   9.448650e+01  -1.434026e+00
   1.239870e+02  -6.231402e-01
  -9.375076e+00   8.877988e+01
  -1.037889e+02   3.177650e+01
  -4.057246e+01  -5.252387e+01
   2.050857e+01  -7.950340e+01
   2.789014e+01  -3.266541e+01
  -5.273860e+01  -3.882924e+01
  -1.188310e+01  -2.490768e+00
  -3.982311e+01   5.482676e+00
  -1.351065e+01  -5.712842e+01
   7.924664e+01  -6.230664e+01
   1.146881e+02  -9.785599e+01
   3.182665e+01   3.679657e+01
  -8.880207e-01   1.025155e+02
  -6.383168e+01   7.280578e+01
  -7.101410e+01  -1.682558e+01
   3.572866e+01  -7.347354e+01
   1.347342e+01  -2.689978e+00
   5.667282e+01   4.438119e+01
   4.805044e+01   5.010424e+01
  -2.161073e+01   3.465122e+01
  -5.227824e+01   2.826420e+00
  -3.364738e+01   1.967683e+01
  -5.035996e+01  -5.766665e+00
  -1.057145e+01  -1.731986e+01
   2.851818e+01  -2.030874e+01
   9.905241e-01  -5.654538e+01
   4.064951e+01  -7.349155e+01
   4.941250e+01  -5.360508e+00
   3.799166e+01   4.522107e+01
   6.085373e+00   7.075797e+01
  -5.005906e+01   8.532167e+01
  -2.586436e+01  -6.275004e+01
  -9.473795e+00  -9.405501e+01
   4.526215e+01  -4.148919e+01
   1.077522e+02  -3.736949e+00
   9.570154e+00   5.374857e+01
  -5.839003e+01   5.495907e+01
  -5.663759e+01   9.969984e+00
  -3.514754e+01  -5.076524e+01
   5.918874e+01   3.391106e+01
   2.506137e+01   3.637517e+01
  -1.787169e+01   5.564315e+01
  -1.123146e+02   1.970204e+01
