
 $NMID
 id='ANONYMOUS ', fmtdat='(2E16.6)'
 volume=1.0
 tramp=1.0
 $END
  -4.652172e+03   1.554341e+01
  -2.765090e+03  -2.659895e+03
   8.783684e+02  -2.937422e+03
   2.442002e+03  -1.059587e+03
   1.075252e+03   6.779156e+02
  -7.223496e+02   6.737220e+02
  -9.258007e+02  -4.573479e+02
  -7.479799e+01  -1.146252e+03
   8.677173e+02  -8.643859e+02
   1.116624e+03   6.799947e+01
   4.945848e+02   9.660742e+02
  -2.712863e+02   1.031724e+03
  -6.656127e+02   1.774629e+02
  -4.213451e+02  -8.373440e+02
   3.392004e+02  -7.488098e+02
   6.694896e+02   3.573517e+01
   3.623895e+02   7.223211e+02
  -3.211356e+02   6.458562e+02
  -6.577345e+02   3.837559e+01
  -3.320898e+02  -3.128650e+02
   1.220556e+01  -4.718440e+02
   2.876221e+02  -2.496020e+02
   2.347891e+02  -3.536070e+01
  -1.954823e+02   7.574447e+01
  -4.150171e+02  -9.963721e+01
  -1.733260e+02  -4.921490e+02
   4.484304e+02  -4.376714e+02
   8.421283e+02   6.387083e+01
   4.763914e+02   5.701437e+02
  -3.642384e+02   5.444198e+02
  -7.298153e+02  -5.343090e+01
  -3.762976e+02  -4.892763e+02
   2.859971e+02  -5.301862e+02
   5.695347e+02  -2.482822e+02
   4.158790e+02   2.280519e+02
   9.656034e+01   4.926954e+02
  -1.768114e+02   3.440369e+02
  -1.677924e+02  -2.419764e+02
   1.901713e+02  -4.822107e+02
   4.566158e+02  -3.513715e+01
   2.439392e+02   7.341819e+02
  -2.730817e+02   7.517419e+02
  -6.387154e+02  -1.055552e+01
  -2.655527e+02  -6.374972e+02
   3.268130e+02  -3.451198e+02
   4.496825e+02   3.632785e+02
  -3.685859e+01   5.805805e+02
  -5.976393e+02   1.399134e+02
  -6.240704e+02  -4.375262e+02
  -2.202271e+02  -6.625392e+02
   3.652271e+02  -3.900782e+02
   6.694373e+02   9.608663e+01
   3.829229e+02   4.073666e+02
  -1.346654e+02   3.729390e+02
  -4.873942e+02   4.479689e+01
  -2.612988e+02  -1.843239e+02
   1.229734e+02  -1.302412e+02
   1.735561e+02   1.755121e+02
  -1.631919e+02   2.167114e+02
  -3.387993e+02  -3.644432e+01
  -1.815446e+02  -2.789280e+02
   1.811925e+02  -2.626835e+02
   3.430487e+02  -9.480824e+01
   1.954281e+02   8.490633e+01
  -1.949836e+01   1.794552e+02
  -2.317372e+02   3.324986e+02
  -2.884219e+02   2.334369e+02
  -2.776937e+02  -1.582114e+02
  -8.373456e+01  -4.696990e+02
   1.288414e+02  -3.880197e+02
   7.799938e+01  -1.042896e+02
   6.476280e+01   2.274364e+01
   3.189946e+01  -8.813278e+01
   1.707499e+02  -1.073365e+02
   3.188263e+02  -1.898441e+01
   2.030201e+02   2.579863e+02
  -8.818106e+01   2.917850e+02
  -2.479944e+02  -3.132753e+00
  -1.753538e+02  -2.087316e+02
   2.269143e+01  -2.642540e+02
   2.467454e+02  -1.077115e+02
   4.023348e+02   1.553894e+02
   1.639644e+02   3.743972e+02
  -8.834436e+01   3.024576e+02
  -2.037851e+02   1.167732e+02
  -1.194236e+02   1.337139e+01
  -6.086444e+01   6.593622e+01
  -1.817730e+02   4.314257e+01
  -4.130813e+02  -1.300018e+01
  -3.915846e+02  -3.019746e+02
  -5.027256e+01  -4.846477e+02
   4.222071e+02  -4.607080e+02
   5.148917e+02  -1.795771e+02
   3.288736e+02   1.124697e+02
   1.148824e+01   2.989927e+02
  -1.178440e+02   2.806992e+02
  -6.310125e+01   4.746964e+01
   1.138123e+02  -1.075358e+02
   1.939568e+02  -3.696000e+01
   3.669019e+00   2.057541e+02
  -1.614184e+02   1.918741e+02
  -1.677107e+02  -6.101402e+01
   7.036849e+01  -2.117136e+02
   2.139027e+02  -8.711043e+01
   1.683374e+02   2.494105e+02
  -2.937695e+01   3.631889e+02
  -2.814275e+02   1.833673e+02
  -3.220525e+02  -7.479398e+01
  -2.834960e+02  -2.471348e+02
  -1.255585e+02  -2.521514e+02
   1.056241e+02  -1.414437e+02
   1.691516e+02  -3.263238e+01
   4.281934e+01   2.005928e+01
  -5.152781e+01  -4.738020e+01
  -4.152838e+01  -1.687226e+02
   1.533528e+02  -6.808204e+01
   1.617420e+02   4.263395e+01
   8.596928e+01   1.181727e+02
  -5.164246e+01   5.946912e+00
  -6.172192e+01  -5.011934e+01
   9.347334e+01  -9.776846e+01
   2.620989e+02  -6.246057e+00
   3.166624e+02   1.435329e+02
   1.007620e+02   2.429337e+02
  -2.292305e+02   2.763394e+02
  -3.290924e+02   1.292709e+02
  -1.679539e+02  -6.113129e+01
   3.613847e+01  -1.654893e+02
   1.038511e+02  -3.092033e+00
  -7.375176e+00   1.214251e+02
  -2.563568e+02   1.091833e+02
  -2.597714e+02  -8.309759e+01
  -8.591856e+01  -2.473580e+02
   1.002963e+02  -1.926004e+02
   1.851749e+02  -2.788087e+01
   9.902308e+01   3.293914e+01
  -2.648103e+00   8.808436e+00
  -6.893008e+00  -6.212479e+01
   7.504325e+01  -9.532407e+01
   2.081999e+02   2.427959e-01
   1.725188e+02   1.071847e+02
   2.187131e+01   2.134033e+02
  -1.401574e+02   1.665151e+02
  -2.114688e+02   1.121147e+01
  -8.091521e+01  -7.976005e+01
   4.157552e+01  -9.396779e+01
   7.482685e+01  -3.174727e+01
   6.425355e+01  -5.491623e+00
  -2.793207e+01   2.399684e+01
   1.910558e+01  -1.741995e+01
   8.247068e+01  -3.227850e+00
   9.525511e+01   5.079444e+01
  -4.497798e+00   1.508397e+02
  -1.129962e+02   1.276283e+02
  -2.388537e+02   4.158652e+01
  -1.807126e+02  -1.282172e+02
  -4.342527e+00  -2.127755e+02
   1.207186e+02  -1.680750e+02
   9.908191e+01   2.317467e+01
   4.985880e+01   8.122782e+01
   4.700750e+01   2.839613e+01
   7.581010e+01  -1.316150e+00
   4.154862e+01  -5.260690e+01
   3.055544e+01   2.058987e+01
  -6.070746e+01   6.696946e+01
  -3.191438e+01   2.252000e+01
  -5.280366e+01  -8.577972e+01
   1.460669e+01  -1.241446e+02
   1.687524e+02  -7.850196e+01
   2.136761e+02   9.029713e+01
   1.182994e+02   2.746740e+02
  -1.342451e+02   2.370230e+02
  -2.577514e+02   8.191504e+01
  -2.869031e+02  -9.503313e+01
  -9.941662e+01  -1.629599e+02
   1.989989e+01  -1.112818e+02
   1.276866e+02  -1.088624e+02
   7.926207e+01  -4.968567e+01
   7.161815e+01  -7.643316e+01
   8.395754e+01  -6.827190e+01
   9.389287e+01   7.750984e+01
   8.904550e+01   1.597411e+02
   6.510178e+01   2.091272e+02
  -9.320110e+01   1.706356e+02
  -1.621429e+02   1.695090e+00
  -1.404489e+02  -1.177692e+02
  -1.267104e+01  -1.873576e+02
   1.049837e+02  -8.922771e+01
   4.933132e+01   4.743054e-01
   3.053771e+01   6.508000e+01
   1.030524e+01   7.600697e+01
  -1.159513e+01   3.983064e+01
   7.175685e+01   1.593028e+01
   6.129655e+01   2.685965e+00
  -4.657521e+01   8.225687e+01
  -1.733848e+02   1.704033e+01
  -1.074256e+02  -6.786212e+01
  -5.592416e+01  -1.117910e+02
   1.229621e+02  -8.675345e+01
   1.586900e+02  -1.517772e+01
   4.356090e+01   5.415232e+01
  -8.054482e+01   4.324896e+01
  -6.852073e+01  -1.683098e+01
  -1.171369e+01  -6.201805e+01
   6.376936e+01  -2.003120e+01
   4.104347e+01  -1.449522e+01
   3.411637e+01   5.749142e+01
  -1.765268e+01   5.498382e+01
   3.676070e+01   3.887848e+01
   5.438314e+01   2.960636e+01
   2.509736e+01   5.492156e+01
  -4.841480e+01   1.022804e+02
  -1.198880e+02   1.114630e+02
  -1.812904e+02   2.663648e+01
  -1.031918e+02  -1.191436e+02
   3.088035e+01  -1.520197e+02
   1.081527e+02  -5.216072e+01
   4.088613e+01   4.835481e+01
  -5.114944e+01   1.568662e+01
  -1.733542e+02  -8.519584e+01
  -3.056895e+01  -8.479878e+01
   1.002151e+02  -1.019580e+02
   2.347375e+02  -4.141456e+01
   1.925826e+02   2.382301e+01
   1.631360e+01   1.088807e+02
  -2.901718e+01   1.081543e+02
  -7.608042e+01   2.907376e+00
   7.148640e+01  -7.182430e+00
   7.802699e+01   1.991129e+01
   2.830879e+01   1.188224e+02
  -1.314689e+02   1.708891e+02
  -1.862248e+02   3.216761e+01
  -1.106148e+02  -1.059803e+02
  -1.265976e+01  -2.180864e+02
   1.031182e+02  -1.482310e+02
   8.353854e+01   4.785488e+01
   1.511584e+01   1.291959e+02
  -5.465614e+01   1.186448e+02
  -8.354296e+01   2.256986e+01
  -5.050399e+01  -5.190450e+01
  -9.106612e+00  -3.948190e+01
   6.492620e+00   4.880326e+01
  -1.941643e+01   5.887235e+00
  -7.574801e+01  -1.243729e+02
  -5.533210e+01  -1.293147e+02
   4.084851e+01  -4.282630e+01
   1.478796e+02   6.640641e+01
   1.617047e+02   4.672690e+01
   4.603260e+01   4.235797e+01
  -1.057541e+02   9.917686e+00
  -1.258597e+02   2.591117e+01
  -3.523882e+01   3.623962e+01
   6.412127e+01  -1.839424e+01
   3.969200e+01  -2.321201e+01
  -2.969895e+01   2.996364e+00
   1.917240e+01  -1.497251e+01
   9.167528e+01   1.756113e+01
   8.823573e+01   2.926973e+01
  -1.291240e+01   8.649886e+01
  -1.231894e+02   1.510330e+02
  -1.889554e+02   2.752004e+01
  -1.314334e+02  -4.453396e+01
  -3.825632e+01  -1.706297e+02
   1.294959e+02  -1.695785e+02
   8.727701e+01  -6.250750e+01
   2.942346e+01   2.633655e+01
   1.961719e+01   2.380735e+01
  -2.550123e+01   1.123832e+01
   2.159616e+01  -2.799395e+01
   2.992287e+01   1.498005e+01
   8.115199e+01   1.238812e+02
  -4.132718e+01   1.176045e+02
  -1.145580e+02  -2.432681e+01
  -9.408082e+01  -1.042057e+02
  -6.824258e+00  -1.126079e+02
   7.521276e+01  -4.764967e+00
   1.102231e+02   5.750317e+01
   4.226453e+01   5.338769e+01
  -5.525829e+01   4.965132e+01
  -7.631352e+01  -2.887945e+01
  -3.128629e+01  -4.959962e+01
   3.628509e+01  -5.129268e+01
   4.522857e+01  -8.506020e+01
  -5.681836e+01  -5.219794e+00
  -9.525525e+01   2.049085e+01
  -8.394172e+00   1.172916e+01
   7.008367e+01  -1.058870e+02
   1.211143e+02  -4.214026e+01
   9.751149e+01   5.726848e+00
   2.379957e-02   7.878893e+01
  -1.574182e+01   7.679788e+01
  -2.000982e+01   3.234227e+01
   2.467638e+01  -3.208764e+01
   8.166851e+00  -5.446589e+01
  -1.441414e+01  -1.029830e+01
   3.435630e+01   3.884395e+01
   8.557626e+00   4.695800e+01
  -5.830031e+00  -1.936307e+01
  -3.092074e+01  -4.260485e+01
  -2.773756e+01  -7.967523e+00
   3.276481e+00   3.227167e+01
  -1.690686e+01   2.585662e+01
  -6.697024e+01  -4.848211e+01
   7.046043e+01  -8.223412e+01
   5.109571e+01   1.436721e+01
   6.187132e+01   4.159591e+01
   3.338565e+01   4.948556e+01
  -2.884516e+01  -9.419654e+00
  -7.475025e+01  -3.482235e+01
   1.711957e+01  -3.234146e+01
   4.769579e+01  -8.610850e+00
   8.240493e+01   5.123706e+01
   6.078689e+01   2.429017e+01
  -4.657864e+01   2.371937e+01
  -5.450296e+01   1.093123e+01
  -4.282070e+01   5.748359e+00
   9.198454e+00   6.034492e+01
   2.719214e+01   2.956169e+01
  -1.216564e+01   4.153615e+01
  -1.027958e+02   2.339186e+01
