
 $NMID
 id='ANONYMOUS ', fmtdat='(2E16.6)'
 volume=1.0
 tramp=1.0
 $END
   4.760585e+03   4.725330e+01
   2.682531e+03   2.851005e+03
  -8.970227e+02   3.190536e+03
  -2.428877e+03   9.588672e+02
  -9.704458e+02  -7.558544e+02
   7.984015e+02  -7.200630e+02
   9.400398e+02   4.985877e+02
   2.933268e+01   1.204799e+03
  -9.296504e+02   8.653536e+02
  -1.089431e+03  -9.719570e+01
  -4.096795e+02  -1.081215e+03
   3.609277e+02  -9.353422e+02
   7.602557e+02  -8.889204e+01
   3.381518e+02   8.130092e+02
  -3.086988e+02   7.725884e+02
  -7.283776e+02   2.039561e+00
  -3.931358e+02  -7.309744e+02
   3.963104e+02  -7.074230e+02
   6.172968e+02  -7.193346e+01
   3.866538e+02   4.219448e+02
   1.713159e+01   4.608585e+02
  -2.699226e+02   2.856222e+02
  -2.216822e+02   3.649669e+01
   1.041640e+02  -1.397621e+02
   4.078812e+02   1.017437e+02
   2.442090e+02   5.363144e+02
  -4.583902e+02   5.057657e+02
  -1.007042e+03  -4.209575e+01
  -5.032322e+02  -6.213828e+02
   3.786100e+02  -5.505483e+02
   7.751814e+02   5.406840e+01
   3.483961e+02   5.415083e+02
  -3.279248e+02   5.938943e+02
  -6.202402e+02   2.461975e+02
  -4.654228e+02  -2.831168e+02
  -7.124225e+01  -5.190346e+02
   2.180071e+02  -3.883391e+02
   2.233852e+02   2.124833e+02
  -1.442584e+02   4.953358e+02
  -4.617491e+02   1.960897e+01
  -2.946738e+02  -6.976939e+02
   3.331218e+02  -7.353006e+02
   6.440997e+02  -1.237329e+01
   2.869479e+02   5.631477e+02
  -3.951896e+02   3.340014e+02
  -4.502992e+02  -3.550491e+02
   3.040598e+01  -6.263063e+02
   5.968657e+02  -1.795547e+02
   6.326833e+02   4.115695e+02
   1.437308e+02   6.319847e+02
  -4.006244e+02   4.346292e+02
  -6.848143e+02  -5.652148e+01
  -3.752673e+02  -4.409910e+02
   1.645068e+02  -4.503784e+02
   4.908916e+02  -7.731170e+01
   2.717299e+02   2.371696e+02
  -1.001633e+02   1.418762e+02
  -1.328082e+02  -1.891941e+02
   1.950023e+02  -2.148398e+02
   3.616007e+02   9.950992e+01
   1.392819e+02   3.472241e+02
  -2.498674e+02   2.630654e+02
  -3.642797e+02   7.882500e+01
  -2.129925e+02  -1.030349e+02
   3.771430e+01  -2.378341e+02
   2.388916e+02  -3.313193e+02
   3.693158e+02  -2.286277e+02
   3.256487e+02   1.842564e+02
   5.584307e+01   4.796990e+02
  -1.124005e+02   4.097982e+02
  -1.748691e+02   1.071679e+02
  -5.230502e+01  -1.763630e+01
  -2.827028e+01   9.355240e+01
  -2.119563e+02   1.637373e+02
  -2.801210e+02  -7.838571e+01
  -1.826280e+02  -3.197643e+02
   8.744053e+01  -2.801301e+02
   2.285743e+02   8.302041e+00
   1.783528e+02   2.367877e+02
   7.052490e+00   2.805482e+02
  -3.153454e+02   1.236273e+02
  -3.514746e+02  -1.946269e+02
  -2.107508e+02  -3.823026e+02
   1.510874e+02  -3.319990e+02
   2.811952e+02  -1.407804e+02
   1.503421e+02   2.069072e+00
   1.276803e+02   7.849359e+00
   2.087780e+02  -1.016184e+02
   4.331008e+02   5.645354e+01
   3.476869e+02   2.988231e+02
   4.250877e+01   4.805776e+02
  -4.051548e+02   4.352515e+02
  -5.385548e+02   1.839754e+02
  -3.433046e+02  -1.524778e+02
  -1.033653e+01  -3.241088e+02
   1.964940e+02  -2.424797e+02
   6.294463e+01  -1.042538e+01
  -1.206698e+02   1.503710e+02
  -2.080694e+02  -5.294020e+01
  -5.127276e+01  -2.257976e+02
   1.544146e+02  -1.958464e+02
   1.763719e+02   9.837335e+01
   1.209752e+00   1.888640e+02
  -2.161234e+02   5.711587e+01
  -1.607243e+02  -2.163454e+02
   4.322067e+01  -4.264309e+02
   2.096587e+02  -1.640233e+02
   3.386916e+02   5.412047e+01
   2.690848e+02   2.676025e+02
   4.977104e+01   2.681013e+02
  -1.499594e+02   1.877226e+02
  -2.124666e+02   4.623956e+01
  -4.344035e+01  -6.901347e+01
   7.107152e+01   1.742810e+01
   3.615084e+01   9.049459e+01
  -1.325167e+02   1.492395e+02
  -1.950846e+02  -1.944053e+01
  -3.726467e+01  -7.374649e+01
   9.840203e+01  -1.107202e+01
   5.726001e+01   8.725757e+01
  -1.743544e+02   1.069063e+02
  -2.784237e+02  -4.335788e+01
  -2.722657e+02  -1.558316e+02
  -7.954482e+01  -2.592774e+02
   1.780210e+02  -2.747368e+02
   2.779040e+02  -1.531061e+02
   1.674735e+02   6.462736e+01
  -4.184630e+01   1.081820e+02
  -9.454758e+01   1.066664e+01
   5.510924e+01  -9.717194e+01
   1.970650e+02  -9.246874e+01
   2.345390e+02   1.122032e+02
   1.009691e+02   2.355036e+02
  -6.410134e+01   1.429843e+02
  -1.353298e+02   4.872173e+00
  -8.628781e+01  -4.179817e+01
   2.678962e+01  -1.137153e+01
   2.512288e+01   6.052740e+01
  -6.264844e+01   9.974934e+01
  -1.843504e+02   6.565944e+01
  -2.282679e+02  -1.085209e+02
  -6.182206e+00  -2.006269e+02
   1.269659e+02  -1.511165e+02
   1.803227e+02  -6.767008e+01
   6.923320e+01   1.413677e+02
  -8.374120e+01   1.303902e+02
  -8.668026e+01   6.482167e+01
  -3.900522e+01  -2.295598e+01
   1.091214e+02   4.235708e+00
  -1.503928e+01   1.489296e+01
  -1.013936e+02  -2.511686e+01
  -1.354532e+02  -8.938570e+01
  -3.106841e+01  -1.736910e+02
   1.457064e+02  -1.343005e+02
   2.472544e+02  -1.235387e+01
   2.339622e+02   1.555039e+02
   1.172708e+01   2.284053e+02
  -1.549649e+02   1.533416e+02
  -1.304345e+02   1.940575e+01
  -8.055355e+01  -7.257625e+01
  -9.420341e+00  -7.604167e+01
  -5.292840e+01   3.015122e+01
  -6.524577e+01   2.690746e+01
  -2.252327e+01  -2.284783e+01
   8.294136e+01  -1.201361e+02
   8.137504e+01  -4.798591e+01
   5.698300e+01   1.615016e+01
   4.197692e+00   1.108277e+02
  -1.656208e+02   5.058911e+01
  -2.144302e+02  -5.435886e+01
  -1.312437e+02  -2.301978e+02
   1.305744e+02  -2.351613e+02
   2.748364e+02  -1.433418e+02
   3.135637e+02   6.165751e+01
   1.049889e+02   2.033427e+02
  -1.382250e+01   1.800810e+02
  -9.857865e+01   1.390031e+02
  -5.669150e+01   7.586478e+01
  -8.123969e+01   7.530021e+01
  -9.397186e+01   1.197931e+02
  -1.778675e+02   7.583609e+00
  -1.763025e+02  -1.819080e+02
  -1.078006e+01  -2.294243e+02
   1.107175e+02  -2.020533e+02
   1.893380e+02   3.803830e+01
   1.931942e+02   1.205073e+02
   2.869185e+01   1.677831e+02
  -8.844627e+01   1.205006e+02
  -9.251815e+01  -1.113556e+01
  -1.520376e+01  -5.069550e+01
  -8.379602e+00  -6.739895e+01
  -2.847414e+01  -1.840905e+01
  -7.163694e+01  -5.220044e+01
  -5.284215e+01  -1.251808e+01
   1.058840e+02  -2.811279e+01
   1.446684e+02   8.333067e+00
   1.515470e+02   8.790061e+01
  -4.626596e+00   8.932517e+01
  -1.224229e+02   7.911697e+01
  -1.638717e+02   3.038057e+01
  -4.493639e+01  -2.679512e+01
   7.721450e+01   1.660921e+00
   7.131626e+01  -5.257331e-02
  -3.596389e+01   3.629496e+01
  -7.113524e+01   2.575566e+01
  -5.572122e+01   1.837001e-01
  -2.939780e+01  -9.692443e+01
  -1.385482e+01  -1.649857e+01
  -9.139830e+01   2.067925e+01
  -4.917162e+01  -5.918847e+01
  -5.914990e+00  -9.288644e+01
   7.080716e+01  -1.792536e+02
   1.483226e+02  -1.860433e+02
   1.887801e+02  -2.089891e+01
   1.440993e+02   1.020634e+02
   1.034851e+01   1.266697e+02
  -9.032033e+01   5.303183e+01
  -6.157603e+01  -2.529809e+01
   6.549260e+01  -2.809473e+01
   1.911746e+02   2.746895e+01
   8.143761e+01   1.423157e+02
  -8.876171e+01   1.253026e+02
  -2.059736e+02   8.403209e+01
  -1.565374e+02  -2.195392e+01
  -4.687815e+01  -6.774648e+01
   8.089604e+01  -4.035988e+01
   7.768521e+01   7.485160e+00
  -7.272788e+01   5.279365e+01
  -1.312168e+02  -3.991948e+01
  -7.364174e+01  -1.111768e+02
   5.058182e+01  -1.984693e+02
   1.825193e+02  -9.191655e+01
   1.689821e+02   1.289155e+02
   1.024128e+00   2.134630e+02
  -1.008088e+02   1.351043e+02
  -9.818356e+01  -1.937579e+01
  -3.741675e+01  -1.292048e+02
   2.074431e+01  -1.081774e+02
   7.078928e+01  -5.206506e+01
   5.265633e+01   4.359722e+01
   3.916212e+01  -2.998349e+00
   2.552214e+01  -5.748525e+01
  -1.670884e+01   4.690120e+01
   4.657068e+01   8.355253e+01
   5.612263e+01   9.672316e+01
  -5.289895e+01   4.040843e+01
  -1.542610e+02  -3.152842e+01
  -1.298157e+02  -6.752666e+01
  -4.191300e+01  -4.731481e+01
   7.065298e+01  -2.445799e+01
   9.235415e+01  -2.987640e+01
  -1.610198e+01  -8.018744e+00
  -5.644220e+01  -3.196225e+01
  -2.743477e+01   5.376202e+01
   4.657867e+00   2.030528e+01
  -4.019844e+01  -2.419916e+01
  -6.547530e+01  -1.841711e+01
  -6.814010e+01  -5.924029e+01
  -1.344928e+01  -9.170487e+01
   1.515017e+02  -9.608931e+01
   1.849722e+02  -5.837809e-01
   1.196860e+02   4.345508e+01
   2.856596e+01   1.968128e+02
  -6.299990e+01   1.403697e+02
  -1.244707e+02   7.843721e+01
  -8.086300e+01  -4.541861e+01
  -2.266661e+01  -2.378663e+01
  -5.337022e+01  -5.982615e+00
  -5.371223e+01   1.155174e+01
  -2.890929e+01  -5.933241e+01
  -1.824944e+01  -1.260913e+02
   1.723614e+01  -2.914491e+01
   1.349424e+02   2.756616e+01
   1.038874e+02   1.195716e+02
  -9.896063e+00   1.074544e+02
  -1.073384e+02   3.624245e+01
  -1.176904e+02  -5.671748e+01
  -4.218709e+01  -1.213243e+02
   4.852936e+01  -8.093457e+01
   5.631908e+01  -1.792168e+01
   5.457004e+01   2.333962e+01
  -3.559156e+01   1.892904e+01
   3.659357e+01  -2.809168e+00
   6.803149e+01   2.356950e+01
   7.769118e+01  -3.399912e+01
   6.121690e+01   9.791088e+01
  -9.413274e+01   9.303882e+01
  -9.378442e+01   9.062945e+01
  -8.188070e+01   5.360714e+00
  -3.099338e+00  -8.286660e+01
   2.091973e+01  -7.588284e+01
   5.608884e+01   6.517783e-01
  -1.006296e+01   7.583652e+01
  -4.137030e+01   3.483491e+01
  -7.879270e+00  -2.124015e+01
   5.883938e+00  -2.201554e+01
  -3.123736e+01  -3.056200e+00
   4.253920e+01   6.458817e-01
   5.538516e+01  -1.008401e+00
  -7.217082e+00  -1.011521e+01
   1.325288e+01   1.276241e+01
   1.419536e+01   5.195490e+01
  -5.075864e+01   3.321678e+01
  -2.270094e+01   2.275449e+00
  -9.887107e+00  -1.012192e+01
  -1.900750e+01  -9.144643e+01
  -3.065158e+00  -3.982121e+01
   8.800579e+01  -2.706343e+01
   5.400475e+01   3.934561e+01
   1.816961e+01   9.412817e+01
  -9.030998e+01   3.130452e+01
  -1.075555e+02  -1.322575e+01
  -2.405835e+01  -5.120076e+01
   2.966854e+01  -2.418843e+01
   4.267785e+01  -4.274164e+01
   1.286071e+01  -5.957692e+01
  -2.163821e+01  -2.440165e+01
  -3.745619e+01  -2.739353e+01
   8.068922e+01  -3.030986e+01
   9.469294e+01   2.100691e+01
