
 $NMID
 id='ANONYMOUS ', fmtdat='(2E16.6)'
 volume=1.0
 tramp=1.0
 $END
   4.533976e+03  -1.413895e+02
   2.775566e+03   2.645193e+03
  -7.630051e+02   3.067431e+03
  -2.391083e+03   9.473498e+02
  -1.084219e+03  -7.104861e+02
   6.731105e+02  -6.286424e+02
   1.001018e+03   5.368551e+02
  -6.325844e+01   1.173386e+03
  -8.492834e+02   8.451952e+02
  -9.972403e+02  -1.993181e+02
  -4.916968e+02  -9.634929e+02
   2.507559e+02  -8.245938e+02
   6.167122e+02  -5.118983e+01
   3.884468e+02   7.381609e+02
  -2.684397e+02   8.240906e+02
  -6.814555e+02  -4.736656e+00
  -2.606293e+02  -6.847345e+02
   3.972961e+02  -6.389188e+02
   6.502934e+02  -1.361923e+02
   4.105956e+02   4.527385e+02
  -5.736203e+01   5.115364e+02
  -3.058218e+02   3.007945e+02
  -1.685702e+02   1.932144e+01
   1.146871e+02  -1.369113e+02
   3.978074e+02   1.156635e+02
   2.373227e+02   3.724433e+02
  -5.134681e+02   4.070375e+02
  -9.115032e+02  -7.697706e+01
  -4.056857e+02  -6.158419e+02
   3.837667e+02  -5.899371e+02
   7.433010e+02   7.847596e+01
   3.458305e+02   5.506376e+02
  -3.095416e+02   5.057714e+02
  -6.462329e+02   1.480830e+02
  -4.909543e+02  -2.299626e+02
  -3.964970e+01  -4.988804e+02
   2.320050e+02  -3.399669e+02
   1.726751e+02   1.853950e+02
  -1.317431e+02   4.687657e+02
  -4.729825e+02  -2.874595e+01
  -2.473856e+02  -7.272016e+02
   3.874896e+02  -7.869253e+02
   7.260718e+02  -8.686018e+01
   3.601806e+02   6.158852e+02
  -2.966540e+02   3.843776e+02
  -4.309849e+02  -2.757519e+02
   3.953003e+01  -5.837372e+02
   6.246128e+02  -1.643123e+02
   6.655104e+02   3.950330e+02
   2.153659e+02   5.831806e+02
  -3.938980e+02   3.855362e+02
  -6.820489e+02  -7.283787e+01
  -4.007540e+02  -4.365748e+02
   1.854434e+02  -3.983462e+02
   4.952369e+02  -6.618151e+01
   1.913161e+02   2.130896e+02
  -1.108506e+02   1.311473e+02
  -1.561045e+02  -1.713899e+02
   2.589443e+02  -2.111755e+02
   3.527092e+02   9.326613e+01
   1.169580e+02   3.444804e+02
  -2.081250e+02   2.641101e+02
  -3.171738e+02   6.750593e+01
  -2.653229e+02  -4.849235e+01
   1.692268e+01  -2.098372e+02
   2.347042e+02  -3.880930e+02
   3.643949e+02  -2.368390e+02
   3.524047e+02   1.547305e+02
   5.149717e+01   4.841139e+02
  -1.482763e+02   4.073153e+02
  -1.092650e+02   1.437530e+02
   1.338018e+01  -2.517669e+01
  -4.636028e+01   6.286894e+01
  -1.856293e+02   9.307232e+01
  -2.813180e+02  -7.736744e+01
  -1.597050e+02  -2.833299e+02
   3.941075e+01  -1.870399e+02
   2.426790e+02  -4.433385e+01
   2.048550e+02   2.675659e+02
  -7.303188e-01   3.321922e+02
  -2.520232e+02   1.279208e+02
  -3.764777e+02  -1.707070e+02
  -1.523943e+02  -4.166589e+02
   1.313809e+02  -3.594577e+02
   2.696045e+02  -1.298498e+02
   1.779963e+02   2.612333e+01
   9.433451e+01  -2.172991e+01
   2.363953e+02  -3.008031e+01
   4.532635e+02   5.310042e+01
   3.535350e+02   2.846685e+02
  -2.477997e+01   4.799916e+02
  -4.414224e+02   4.462173e+02
  -5.176089e+02   2.063237e+02
  -3.554732e+02  -1.105549e+02
  -4.658269e+01  -2.892047e+02
   1.514237e+02  -2.334263e+02
   7.694649e+01  -3.211008e+01
  -8.645787e+01   1.245592e+02
  -1.772431e+02   1.010218e+01
  -8.637282e+01  -1.708831e+02
   1.830203e+02  -1.185576e+02
   1.996150e+02   4.954893e+01
   9.848677e+00   2.073401e+02
  -1.757494e+02   4.502717e+01
  -1.849125e+02  -2.279649e+02
   1.330445e+01  -3.843656e+02
   2.443341e+02  -2.057817e+02
   3.451662e+02   1.187269e+02
   2.904499e+02   2.833209e+02
   7.985304e+01   3.195815e+02
  -1.023887e+02   2.076251e+02
  -1.837743e+02   4.525004e+01
  -7.898353e+01  -3.728068e+01
   6.684024e+01   1.629464e+01
   1.268851e+01   1.192071e+02
  -1.143138e+02   1.396888e+02
  -1.824651e+02  -2.565038e+01
  -3.413538e+01  -6.676745e+01
   7.955342e+01   5.015670e+00
   5.177185e+01   7.872842e+01
  -1.248765e+02   1.180218e+02
  -2.920586e+02  -4.066689e+01
  -3.181179e+02  -1.007090e+02
  -8.635974e+01  -1.639119e+02
   1.565836e+02  -2.917708e+02
   2.805692e+02  -1.480176e+02
   1.650378e+02  -2.906288e+01
   2.331666e+00   8.042856e+01
  -5.832943e+01   3.001713e+01
   6.257648e+01  -9.415352e+01
   2.437502e+02  -7.030325e+01
   2.051202e+02   1.331133e+02
   3.126019e+01   2.330099e+02
  -1.660440e+02   1.931934e+02
  -1.451566e+02   8.566565e+00
  -1.463614e+02  -2.825108e+01
   1.327180e+01   1.162357e+01
   3.522861e+01   6.460194e+01
  -8.166322e+01   1.181484e+02
  -1.779684e+02   6.302786e+01
  -2.044542e+02  -1.230777e+02
  -5.879415e+01  -2.608344e+02
   1.439519e+02  -2.003477e+02
   2.250200e+02  -2.462260e+01
   8.908621e+01   1.065120e+02
  -8.209911e+01   9.099941e+01
  -8.957690e+01   3.186731e+01
  -9.379971e+00  -6.039761e+01
   2.351187e+01   9.013623e-01
  -1.029885e+01   4.052751e-02
  -2.800111e+01  -5.235068e+00
  -6.273096e+01  -8.191764e+01
   3.766010e+01  -1.647328e+02
   1.287258e+02  -9.100112e+01
   2.479417e+02  -3.612859e+01
   1.659042e+02   1.242781e+02
  -1.047909e+01   2.738160e+02
  -1.306914e+02   1.834051e+02
  -1.545285e+02   4.599220e+01
  -8.749103e+01  -3.014678e+01
  -5.908351e+01  -5.392268e+01
  -9.519638e+01   4.202015e-02
  -1.114548e+02   1.921209e+01
  -5.928776e+01  -4.739331e+01
   6.105303e+01  -7.615136e+01
   1.142501e+02  -6.601421e+01
   8.655201e+01   3.711312e+01
   3.872945e+00   1.121355e+02
  -1.412809e+02   1.292852e+02
  -1.908925e+02  -2.249896e+01
  -8.951805e+01  -2.153953e+02
   8.707710e+01  -2.408587e+02
   2.606746e+02  -1.299106e+02
   3.091200e+02   7.331747e+01
   1.060230e+02   2.024711e+02
  -1.033777e+01   1.888818e+02
  -1.391834e+02   9.768658e+01
  -1.217991e+02   8.392722e+01
  -1.138780e+02   1.150856e+02
  -1.170779e+02   8.594693e+01
  -1.077304e+02  -4.185630e+01
  -1.260518e+02  -1.550539e+02
  -8.687911e+00  -2.146950e+02
   1.333869e+02  -1.929508e+02
   1.917415e+02   8.138531e+00
   1.317418e+02   1.453143e+02
   7.668928e+00   1.981872e+02
  -6.728679e+01   1.387871e+02
  -7.204940e+01   9.583765e+00
  -2.430401e+00  -5.189548e+01
  -9.824936e+00  -1.019491e+02
  -5.001827e+01  -3.709068e+01
  -7.284694e+01  -3.888130e+01
   1.628341e+01  -4.778021e+01
   9.187916e+01  -6.392923e+01
   1.322840e+02  -1.465610e+01
   1.437342e+02   1.973473e+01
   5.136112e+01   5.988647e+01
  -1.159298e+02   8.562630e+01
  -1.767302e+02   1.619032e+01
  -8.589533e+01  -9.671801e+01
   6.612298e+01  -7.082656e+01
   5.863295e+01   3.741845e+01
   3.679212e+01   8.601489e+01
  -4.674369e+01   1.037063e+02
  -7.891545e+01   2.955199e+01
  -3.700050e+01  -4.801673e+01
  -4.229355e+01  -6.350044e+00
  -4.610625e+01   2.543391e+01
  -3.382874e+01  -6.192567e+00
  -3.007676e+01  -5.831915e+01
   2.057829e+01  -1.382877e+02
   1.052391e+02  -1.471968e+02
   2.031199e+02  -5.414097e+01
   1.271600e+02   6.223041e+01
   6.331729e+00   1.041485e+02
  -6.972872e+01   3.655599e+01
  -3.354108e+01  -2.607494e+01
   5.524200e+01  -1.065248e+01
   1.475684e+02   3.059405e+01
   1.076282e+02   1.007674e+02
  -8.748456e+01   1.132890e+02
  -2.199078e+02   3.673366e+01
  -1.857334e+02  -4.622014e+01
  -7.285693e+01  -1.007087e+02
   2.039655e+01  -6.149357e+01
   5.971845e+01  -1.603762e+01
  -5.742142e+01   1.380002e+01
  -1.057698e+02  -4.391510e+01
  -3.224355e+01  -1.519803e+02
   1.509185e+02  -1.765865e+02
   2.024682e+02  -5.122686e+01
   1.736290e+02   1.557387e+02
  -4.517340e+01   2.697904e+02
  -9.921751e+01   1.294022e+02
  -1.392529e+02  -4.293894e+00
  -4.949739e+01  -1.287719e+02
   4.442430e+01  -1.215154e+02
   6.474427e+01  -4.255623e+00
   5.053656e+01  -1.347042e+01
   1.435742e+01  -3.381276e+01
   1.147369e+01   6.935882e+00
   1.056061e+01   3.836861e+01
   5.491131e+01   1.080220e+02
   4.606307e+01   1.015458e+02
  -5.149597e+01   3.922422e+01
  -1.735872e+02  -5.517130e+01
  -1.419003e+02  -4.945472e+01
  -6.216755e+00  -2.078804e+01
   8.972108e+01  -2.777346e+01
   1.086295e+02  -3.885815e+01
   2.802826e+01  -1.115911e+01
  -7.521664e+01   4.219928e+01
  -8.930185e+00   8.012390e+00
  -3.588093e-01   2.449912e+00
  -9.842079e+00  -7.782942e+00
  -1.043745e+02  -2.941140e+01
  -4.941320e+01  -3.432130e+01
  -3.550930e+00  -6.868689e+01
   1.223575e+02  -1.451756e+02
   2.195009e+02  -4.776859e+01
   1.182353e+02   6.848515e+01
   3.292927e+01   1.218524e+02
  -6.134465e+01   1.438476e+02
  -8.956214e+01   9.085186e+01
  -9.183077e+01   3.977690e-01
  -3.251537e+01  -2.661992e+01
  -1.091575e+01  -2.788750e+01
  -3.245118e+01  -3.034399e+01
  -5.256063e+01  -6.990536e+01
  -5.114613e+01  -9.671611e+01
   2.515298e+01  -5.522151e+01
   1.147617e+02   1.373649e+01
   8.214544e+01   1.181222e+02
  -3.040597e+01   1.191838e+02
  -8.310300e+01   3.301124e+01
  -9.868049e+01  -6.994874e+01
   1.831766e+01  -1.325274e+02
   5.873005e+01  -4.944675e+01
   1.125744e+02   1.461314e+01
   5.787426e+01   5.293143e+01
  -4.105719e+01   3.806385e+01
  -5.438429e+01   2.569179e+01
   3.582108e+01  -1.202059e+01
   7.811604e+01  -4.969772e+01
   5.406659e+01   4.565553e+01
  -4.291123e+01   9.488161e+01
  -1.401660e+02   8.866519e+01
  -5.394576e+01  -4.515947e+01
   3.239950e+00  -1.126166e+02
   4.151207e+01  -7.724444e+01
   1.257691e+01   3.654720e+00
  -2.524023e+01   4.360657e+01
  -3.781415e+01   1.530679e+01
  -4.518007e+01  -8.646602e+00
  -4.570867e+01  -2.849704e+01
   1.164766e+01  -5.991409e+01
   4.278922e+01  -8.278348e+00
   3.153493e+01   3.564094e+01
   3.919095e+01  -4.688814e+00
   3.814638e+01  -2.141552e+01
  -9.373302e+00   6.478582e+00
  -1.097648e+00   6.233197e+01
  -6.780491e+01   4.619637e+01
  -5.986206e+00   3.371492e+01
  -3.709577e+01  -4.874924e+01
  -2.175913e+01  -7.125309e+01
   3.700260e+01  -2.869773e+01
   2.419171e+01   6.968793e+01
   5.210845e+01   1.645386e+01
  -7.290795e+01   3.193248e+01
  -9.113818e+01  -4.533677e+01
  -6.726076e+01  -4.337375e+01
   2.911352e+01  -3.625754e+01
   3.904529e+01  -3.476755e+01
   1.631885e+01  -1.101759e+01
  -7.186469e+00  -3.416956e+01
  -6.289809e+01  -8.545542e+00
   1.176179e+01  -2.120617e+01
   1.115343e+02  -1.025148e+01
