
 $NMID
 id='ANONYMOUS ', fmtdat='(2E16.6)'
 volume=1.0
 tramp=1.0
 $END
  -4.691276e+03  -4.508045e+01
  -2.731363e+03  -2.748081e+03
   9.366170e+02  -3.078459e+03
   2.451497e+03  -9.454143e+02
   1.070568e+03   7.229207e+02
  -7.374944e+02   6.708008e+02
  -9.309349e+02  -4.397303e+02
   2.276902e+01  -1.211651e+03
   8.300050e+02  -8.029177e+02
   1.024724e+03   1.125794e+02
   4.382566e+02   9.046435e+02
  -2.473131e+02   1.048532e+03
  -7.362223e+02   1.496783e+02
  -5.167788e+02  -8.127771e+02
   2.636734e+02  -7.843552e+02
   6.776087e+02  -9.284174e+01
   2.974042e+02   8.093767e+02
  -3.934231e+02   6.640461e+02
  -6.669152e+02   9.782142e+01
  -4.616213e+02  -3.313920e+02
  -1.395181e+00  -4.478944e+02
   3.047139e+02  -2.617876e+02
   2.154417e+02  -8.119431e+01
  -8.848334e+01   1.035816e+02
  -3.762637e+02  -9.681950e+01
  -2.690792e+02  -4.238044e+02
   4.514333e+02  -4.436560e+02
   8.644641e+02   4.754613e+01
   4.061744e+02   5.502071e+02
  -3.914590e+02   5.415724e+02
  -7.664827e+02  -1.132323e+01
  -3.572587e+02  -4.879189e+02
   2.991609e+02  -5.662574e+02
   5.789170e+02  -2.013256e+02
   4.141977e+02   2.060561e+02
   3.529567e+01   4.505060e+02
  -1.877770e+02   2.741410e+02
  -1.994131e+02  -1.639519e+02
   1.198362e+02  -4.089112e+02
   4.489801e+02   3.602427e+01
   2.475479e+02   6.605250e+02
  -3.755262e+02   7.143396e+02
  -6.475401e+02  -3.537893e+01
  -2.831517e+02  -5.762270e+02
   3.187077e+02  -3.613489e+02
   4.377955e+02   3.211372e+02
  -6.855800e+01   5.911353e+02
  -5.497139e+02   1.445853e+02
  -6.303663e+02  -4.062884e+02
  -1.448492e+02  -6.129488e+02
   4.109775e+02  -3.428258e+02
   6.491684e+02   1.421221e+02
   3.250672e+02   4.016649e+02
  -1.811311e+02   3.822832e+02
  -5.256582e+02   3.882455e+01
  -2.611676e+02  -2.261551e+02
   1.500876e+02  -1.116740e+02
   2.167463e+02   1.621916e+02
  -1.940129e+02   2.302738e+02
  -4.253392e+02  -6.869231e+01
  -2.055085e+02  -3.323876e+02
   2.524008e+02  -2.476291e+02
   4.204072e+02  -3.323298e+01
   2.384528e+02   1.059304e+02
  -1.441557e+01   2.287316e+02
  -2.783965e+02   3.462704e+02
  -4.031308e+02   2.861548e+02
  -3.721489e+02  -4.800618e+01
  -1.205567e+02  -4.749649e+02
   1.137547e+02  -4.410022e+02
   1.502747e+02  -1.414592e+02
   5.918528e+00   6.093348e+00
  -5.818759e+00  -1.034857e+02
   1.348251e+02  -1.513432e+02
   2.874040e+02   2.882557e+01
   1.669044e+02   2.477654e+02
  -5.739235e+01   2.782202e+02
  -1.719655e+02   2.255296e+01
  -2.173366e+02  -2.984831e+02
   2.478070e+01  -3.110396e+02
   2.927436e+02  -8.716080e+01
   3.717255e+02   1.588930e+02
   1.749268e+02   3.719220e+02
  -8.392960e+01   3.283265e+02
  -2.447166e+02   1.164820e+02
  -1.745814e+02   1.108738e+01
  -8.438863e+01   2.315000e+01
  -2.429006e+02   1.213503e+02
  -4.422267e+02  -4.245272e+01
  -3.862180e+02  -2.967329e+02
  -1.768968e+01  -4.402524e+02
   3.148369e+02  -4.279897e+02
   5.040662e+02  -2.288496e+02
   3.639625e+02   6.064755e+01
   7.351946e+01   2.761986e+02
  -1.493339e+02   2.332607e+02
  -1.089399e+02   1.921695e+01
   1.382908e+02  -7.252262e+01
   2.468620e+02  -4.016682e+00
   7.515178e+01   2.091916e+02
  -1.550082e+02   2.153855e+02
  -1.376343e+02  -2.067675e+01
  -9.754652e+00  -2.036507e+02
   2.285060e+02  -5.428264e+01
   1.327273e+02   2.562757e+02
  -8.393949e+01   3.972298e+02
  -2.293939e+02   1.906048e+02
  -3.307066e+02  -4.315106e+01
  -2.526311e+02  -2.232860e+02
  -1.280358e+02  -2.739482e+02
   1.007271e+02  -1.668153e+02
   2.153012e+02  -6.996175e+01
   4.438893e+01   1.830069e+01
  -5.956189e+01  -6.396284e+01
  -1.930716e+01  -1.002253e+02
   1.705656e+02  -1.002812e+02
   2.162537e+02   5.778365e+01
   4.525979e+01   1.064529e+02
  -7.612327e+01   2.724830e+01
  -6.717815e+01  -7.032606e+01
   1.379578e+02  -8.910758e+01
   2.592502e+02   4.877676e+01
   2.428070e+02   1.595174e+02
   6.457850e+01   2.739102e+02
  -1.902784e+02   2.628305e+02
  -3.206416e+02   1.218195e+02
  -1.680641e+02  -7.969759e+01
   6.414762e+00  -1.674978e+02
   9.994216e+01  -3.368949e+00
  -2.354532e+00   1.101599e+02
  -2.534494e+02   1.136761e+02
  -2.640113e+02  -1.169364e+02
  -2.699306e+01  -2.924674e+02
   1.796304e+02  -1.992373e+02
   1.575281e+02  -1.566537e+01
   9.428320e+01   7.026189e+01
  -2.156757e+01   3.821843e+01
  -2.713778e+01  -5.232373e+01
   7.223199e+01  -7.898587e+01
   1.653108e+02  -2.622554e+01
   2.081465e+02   7.063460e+01
   3.586484e+01   2.369052e+02
  -1.762375e+02   1.941635e+02
  -1.840987e+02   2.181013e+01
  -7.103499e+01  -9.633019e+01
   7.350295e+01  -1.515113e+02
   8.780568e+01  -5.275803e+00
  -1.342117e+00   1.653630e+00
  -1.945255e+01   3.830752e+01
   1.611725e+01  -2.515716e+01
   1.220119e+02  -3.090297e+01
   1.097442e+02   2.665904e+01
   3.609347e+00   1.670382e+02
  -9.056192e+01   1.524883e+02
  -2.077034e+02   1.766889e+01
  -1.956681e+02  -1.458139e+02
  -4.046574e+01  -2.606614e+02
   1.433784e+02  -2.041966e+02
   1.710383e+02  -4.797058e+01
   6.402762e+01   9.333721e+01
   5.528821e+01   7.479550e+01
   7.100012e+01   9.176269e+00
   7.910489e+01   1.439662e+01
   8.833237e+01   5.286273e+01
  -3.620766e+01   1.190493e+02
  -1.410082e+02   8.095065e+01
  -1.016911e+02  -7.910707e+00
  -2.213802e+01  -9.542216e+01
   9.297604e+01  -7.532827e+01
   1.715328e+02   2.087461e+01
   1.353091e+02   1.829655e+02
  -7.362497e+01   2.127356e+02
  -2.903200e+02   1.054087e+02
  -3.021153e+02  -1.219408e+02
  -1.153403e+02  -1.874452e+02
   8.177933e+01  -1.883108e+02
   8.353306e+01  -1.111220e+02
   8.540270e+01  -1.296080e+02
   7.638804e+01  -8.603528e+01
   6.707809e+01  -1.044351e+02
   1.102503e+02   1.763928e+01
   6.879151e+01   1.546173e+02
   8.658064e+01   2.099649e+02
  -4.209554e+01   1.803807e+02
  -1.713408e+02   5.537466e+01
  -1.583623e+02  -1.281932e+02
  -8.358412e+00  -1.447809e+02
   6.211977e+01  -1.221094e+02
   8.203489e+01   8.630702e+00
  -5.304309e+01   4.725374e+01
  -6.283032e+00   3.969542e+01
   4.495265e+01   4.810865e+01
   1.155094e+02  -1.303816e+01
  -3.593326e+00   5.692683e+00
  -9.521948e+01   5.255952e+01
  -1.587211e+02   2.033499e+01
  -1.414021e+02  -4.283401e+01
  -4.575341e+01  -7.107185e+01
   1.035298e+02  -4.989104e+01
   1.517506e+02   3.474486e+00
   6.488250e+01   4.107252e+01
  -7.513582e+01   2.727332e+01
  -6.894514e+01   3.703864e+00
   2.094075e+01  -1.026395e+02
   4.389147e+01  -7.148731e+01
   5.965855e+01   6.103541e+01
   5.970218e+01   4.235550e+01
   5.667148e+01  -4.792260e+00
   8.448042e+01   1.473904e+00
   8.090629e+01   4.648115e+00
   3.392675e+01   1.136897e+02
  -8.350358e+01   1.359177e+02
  -1.493554e+02   1.295955e+02
  -1.874965e+02   1.357799e+01
  -1.395618e+02  -1.330241e+02
  -9.196530e+00  -1.298034e+02
   1.013547e+02  -6.396570e+01
   5.137441e+01   4.852829e+01
  -9.094552e+01   3.628373e+01
  -1.700780e+02  -2.719100e+01
  -4.860345e+01  -7.983819e+01
   6.265429e+01  -1.114594e+02
   1.890585e+02  -3.007635e+01
   1.483380e+02   6.746774e+01
   3.570878e+01   7.186699e+01
  -5.418145e+01   6.297491e+01
  -3.893873e+01  -1.653167e+01
   6.196276e+01  -2.979636e+01
   4.817464e+01   6.481977e+01
   3.957424e+01   1.602095e+02
  -1.076215e+02   1.809175e+02
  -1.758748e+02   7.992822e+01
  -1.174817e+02  -1.118011e+02
  -2.150014e+01  -1.812398e+02
   4.959209e+01  -1.239179e+02
   8.625044e+01  -2.840767e+00
   5.537193e+01   1.059948e+02
   2.917863e+01   1.047585e+02
  -1.678562e+01   2.055800e+01
  -8.154497e+01  -5.526394e+01
   2.711408e+00  -3.809519e+01
   4.001512e+01   2.442881e+01
  -2.192209e+01  -3.876262e+01
  -9.567719e+01  -5.955590e+01
  -7.217228e+01  -6.523283e+01
   6.147926e+01  -3.573760e+01
   1.334960e+02   4.930745e+01
   1.061522e+02   6.174944e+01
   3.706702e+00   8.035806e+01
  -1.293725e+02   4.049268e+01
  -8.884915e+01   1.430278e+01
  -6.288572e+00   5.702840e+01
   8.002691e+01   2.440754e+00
   5.567792e+00   1.275326e+01
  -4.962513e+01   8.165897e+00
  -8.786792e+00   3.921971e+01
   9.618457e+01   6.044308e+00
   8.521462e+01   1.326345e+00
  -8.093039e+00   6.876277e+01
  -7.206180e+01   1.187827e+02
  -1.805937e+02   6.326188e+01
  -1.142351e+02  -5.303017e+01
  -2.326066e+01  -1.444759e+02
   6.521333e+01  -1.670175e+02
   1.420471e+02  -7.938258e+01
   6.667888e+01   6.027037e+01
   1.834002e+01   3.528187e+01
   2.420038e+01   2.396598e-01
   2.991534e+01  -1.851783e+01
   7.077370e+01   3.138651e+01
   1.099260e+02   1.167753e+02
   3.744897e+00   7.364492e+01
  -8.586343e+01  -3.191892e+01
  -1.206783e+02  -9.489580e+01
   3.576206e+01  -9.884628e+01
   7.975396e+01   2.637359e+01
   8.703506e+01   8.635126e+01
   2.312289e+00   8.887818e+01
  -1.125802e+02   4.145480e+01
  -4.484116e+01   1.573855e+01
  -1.880174e+01  -6.311411e+01
   7.322923e+01  -9.259263e+01
   3.457869e+01  -2.880685e+01
  -3.543175e+01   6.596858e+01
  -4.925815e+01   3.343214e+01
  -7.979601e+00  -1.297904e+00
   8.222524e+01  -9.374016e+01
   1.005692e+02  -6.601038e+01
   5.858078e+01  -1.793645e+01
   5.851001e+00   7.380396e+01
  -4.538927e+01   9.969384e+01
  -4.079871e+01   4.548051e+01
  -2.859804e+01  -1.490388e+01
  -6.620999e+00  -4.208426e+01
   8.236701e+01  -9.554365e-01
   5.052800e+01   9.986657e+00
   3.315916e+01   2.646487e+01
  -2.893255e+01   7.664605e-02
  -8.079302e+01  -3.498733e+01
   1.126176e+00  -5.395154e+00
   1.299368e+01   5.019311e+00
  -2.586681e+00  -2.131320e+01
   4.541301e+01  -6.013369e+01
   4.864625e+01  -7.199418e-01
   2.647387e+01   5.622396e+01
   1.763191e+01   7.375594e+01
  -1.112228e+01   1.884851e+01
  -5.776575e+01   2.981895e+01
  -7.608087e+01  -3.709172e+01
  -1.771983e+01  -7.076805e+01
   6.211173e+00  -3.576208e+01
   9.253846e+01  -9.274552e+00
   1.752789e+01   7.186858e+01
  -2.369074e+01   1.923202e+01
  -4.647156e+01   2.107748e+01
   1.697561e+00   7.005410e+01
   1.660379e+01  -8.626657e+00
   6.745247e+01   1.308161e+01
  -1.682610e+01   4.131342e+01
  -1.108877e+02  -3.847689e+00
