
 $NMID
 id='ANONYMOUS ', fmtdat='(2E16.6)'
 volume=1.0
 tramp=1.0
 $END
  -4.443703e+03   7.228151e+01
  -2.609665e+03  -2.751076e+03
   8.564004e+02  -2.957599e+03
   2.194081e+03  -9.979048e+02
   1.038115e+03   7.121942e+02
  -5.508132e+02   6.536507e+02
  -8.652993e+02  -4.082441e+02
  -4.479175e+01  -1.126081e+03
   8.443685e+02  -7.767996e+02
   9.504186e+02   8.932012e+01
   4.726912e+02   9.499295e+02
  -2.413230e+02   9.690745e+02
  -6.327584e+02   7.062052e+01
  -3.927724e+02  -6.953315e+02
   3.252801e+02  -7.069668e+02
   6.341359e+02  -5.318621e+01
   2.689421e+02   7.390400e+02
  -2.696199e+02   6.280662e+02
  -6.127359e+02   5.406841e+01
  -4.404818e+02  -3.570832e+02
  -3.948377e+01  -5.097489e+02
   3.224298e+02  -2.391817e+02
   2.373011e+02  -1.183225e+01
  -1.584693e+02   5.571548e+01
  -4.081319e+02  -1.225199e+02
  -2.048564e+02  -4.327385e+02
   3.768434e+02  -4.223467e+02
   7.886081e+02   9.926641e+01
   4.708077e+02   5.107123e+02
  -3.501652e+02   4.885474e+02
  -6.923399e+02  -6.565112e+01
  -3.824592e+02  -4.833488e+02
   2.278574e+02  -4.933686e+02
   5.955326e+02  -1.598322e+02
   4.201870e+02   2.930622e+02
   8.030496e+01   4.923660e+02
  -2.302619e+02   2.502735e+02
  -1.898906e+02  -1.772588e+02
   1.613859e+02  -4.321992e+02
   4.109112e+02   3.889010e+01
   2.139934e+02   6.608245e+02
  -3.166539e+02   6.888800e+02
  -6.264759e+02   1.170343e+01
  -2.575572e+02  -5.638256e+02
   2.824827e+02  -3.814537e+02
   4.588553e+02   3.453085e+02
  -4.264658e+01   5.826245e+02
  -5.771946e+02   1.780212e+02
  -6.179161e+02  -3.724235e+02
  -1.867414e+02  -6.051460e+02
   3.670383e+02  -3.392117e+02
   6.018636e+02   9.647458e+01
   3.631650e+02   4.037975e+02
  -1.138364e+02   3.391260e+02
  -4.633796e+02   1.505724e+01
  -2.353106e+02  -2.076083e+02
   1.054792e+02  -7.874551e+01
   1.507946e+02   2.127581e+02
  -1.821923e+02   2.101152e+02
  -3.618692e+02  -1.142968e+02
  -1.322617e+02  -2.852531e+02
   2.416265e+02  -2.697184e+02
   3.129342e+02  -3.712759e+01
   1.748567e+02   1.253529e+02
  -7.012046e+01   2.051361e+02
  -2.567069e+02   3.483510e+02
  -3.234321e+02   2.095809e+02
  -2.602172e+02  -1.259065e+02
  -1.014820e+02  -4.218185e+02
   2.677815e+01  -3.916130e+02
   5.472152e+01  -1.625951e+02
   2.365554e+00  -1.911151e+01
   4.470840e+01  -9.833707e+01
   2.280094e+02  -1.423779e+02
   2.748797e+02   4.524611e+01
   1.193525e+02   2.621068e+02
  -4.521548e+01   2.577499e+02
  -2.444372e+02  -1.284922e+01
  -1.962709e+02  -2.550735e+02
   4.679356e+01  -2.883039e+02
   3.005237e+02  -1.328166e+02
   3.453860e+02   1.627517e+02
   1.829292e+02   2.903097e+02
  -1.148968e+02   2.597548e+02
  -1.753230e+02   1.299805e+02
  -1.293526e+02  -1.518825e+01
  -1.295770e+02   4.943186e+01
  -2.545980e+02   6.667632e+01
  -3.873549e+02  -8.336589e+01
  -3.258682e+02  -2.590310e+02
   1.837917e+01  -4.630737e+02
   3.409241e+02  -4.752377e+02
   4.818304e+02  -2.084494e+02
   3.789943e+02   9.484433e+01
   2.773178e+01   2.943656e+02
  -1.681583e+02   2.976114e+02
  -8.010021e+01   2.681360e+01
   1.304896e+02  -1.408617e+02
   1.901653e+02  -5.267056e+00
   2.587079e+01   2.029606e+02
  -1.663804e+02   1.648380e+02
  -1.980362e+02  -5.802231e+01
   7.284761e+01  -2.180049e+02
   2.286418e+02  -3.768343e+01
   1.684015e+02   2.606722e+02
   1.119687e+01   4.117781e+02
  -2.394294e+02   1.758158e+02
  -3.152415e+02  -1.166369e+02
  -2.581885e+02  -2.738966e+02
  -9.536813e+01  -2.783925e+02
   1.124027e+02  -1.383663e+02
   1.411883e+02  -4.179169e+00
   7.661032e+01   3.074428e+01
  -3.872647e+01  -8.756370e+01
  -8.934775e+00  -1.452438e+02
   1.496654e+02  -9.859972e+01
   1.554703e+02   4.215974e+01
   6.401289e+01   1.014816e+02
  -8.780341e+01   4.278793e+01
  -6.612143e+01  -1.043196e+02
   1.357419e+02  -1.395119e+02
   3.106146e+02  -1.555344e+01
   3.058425e+02   1.447632e+02
   6.104556e+01   2.387983e+02
  -2.321713e+02   2.597352e+02
  -3.208893e+02   8.805802e+01
  -1.664126e+02  -6.411870e+01
   4.755847e+01  -8.437051e+01
   7.394059e+01  -4.787501e+01
  -3.608956e+01   7.282153e+01
  -1.519085e+02   5.654105e+01
  -1.794779e+02  -8.472473e+01
  -8.897193e+01  -1.779028e+02
   9.404495e+01  -1.754835e+02
   1.597846e+02   1.251953e+01
   1.058415e+02   3.883442e+01
   4.569724e+00  -9.266441e+00
  -4.968494e+01  -5.432903e+01
   6.384466e+01  -1.059182e+02
   2.245857e+02   2.841643e+00
   1.665631e+02   1.900494e+02
   1.662523e+01   2.140996e+02
  -2.085583e+02   1.652821e+02
  -1.560250e+02  -1.009750e+01
  -5.612014e+01  -1.519208e+02
   7.765336e+01  -1.363816e+02
   7.699312e+01  -4.404942e+01
  -2.756808e+01  -4.008847e+00
  -5.818266e+00  -4.321182e+00
   5.164935e+01   1.683556e+01
   5.392029e+01   2.756892e+01
   4.599826e+01   5.131329e+01
   1.666185e+01   1.307966e+02
  -1.241273e+02   1.656737e+02
  -2.055880e+02   6.428141e+01
  -2.181830e+02  -1.714243e+02
  -4.151412e+01  -2.791943e+02
   1.023327e+02  -1.902617e+02
   1.475810e+02   3.134153e+00
   1.154988e+02   2.550676e+01
   2.851934e+01   5.013172e+01
   2.740547e+01  -2.943469e+00
   1.282121e+02  -6.263547e+00
   5.807767e+01   2.202686e+01
  -4.327042e+01   1.103440e+02
  -1.251001e+02   8.002875e+01
  -1.116095e+02  -2.342001e+01
   1.481456e+00  -1.750944e+02
   1.230063e+02  -1.004981e+02
   1.916522e+02   1.623359e+01
   7.373613e+01   2.047685e+02
  -6.546255e+01   2.721389e+02
  -2.980545e+02   9.467516e+01
  -2.599255e+02  -2.949702e+01
  -1.271080e+02  -1.810835e+02
  -9.478207e+00  -1.709655e+02
   1.014676e+02  -1.003386e+02
   6.874746e+01  -6.435456e+01
   1.042576e+02  -1.264616e+02
   7.320965e+01  -8.915134e+01
   7.014056e+01   3.550092e+01
   1.278687e+02   1.615159e+02
   5.436580e+01   2.095469e+02
  -1.237266e+02   1.916361e+02
  -1.441819e+02   1.459068e+01
  -1.442392e+02  -5.903334e+01
   5.887796e+00  -1.983148e+02
   5.707291e+01  -9.556905e+01
   8.392651e+01   2.879815e+01
  -2.716367e+01   4.859261e+01
   2.229450e+01   2.798016e+01
   4.483338e+01   6.741032e-01
   6.083579e+01   9.639834e+00
   3.283467e+01   4.561652e+01
  -7.648118e+01   2.512542e+01
  -1.788512e+02  -3.428643e+01
  -1.172865e+02  -8.656750e+01
  -2.690182e+01  -8.922753e+01
   1.338374e+02  -1.236371e+02
   1.234516e+02  -2.097805e+01
   5.827594e+01   3.432187e+01
  -8.509461e+01   5.284439e+01
  -5.808922e+01  -1.216365e+01
  -1.810557e+01  -9.246727e+01
   4.246057e+01  -7.511859e+01
   9.099834e+01  -1.440875e+01
   5.104711e+01   5.649490e+01
   6.705042e+01   5.252375e+01
   4.976479e+01   8.276143e-01
   3.618861e+01  -2.279994e+01
   6.346522e+01   5.149080e+01
  -3.961033e+01   1.852601e+02
  -1.407218e+02   1.696810e+02
  -1.116043e+02   2.624591e+01
  -1.606223e+02  -1.210639e+02
  -1.813449e+01  -1.547851e+02
   8.637931e+01  -1.558741e+01
   7.594683e+01   2.887840e+01
  -1.385836e+01   3.086380e+00
  -1.548908e+02  -4.195503e+01
  -7.408327e+01  -1.119360e+02
   4.906458e+01  -7.244553e+01
   1.807646e+02  -6.674141e+01
   1.103958e+02   5.984398e+01
  -1.128980e+01   1.143084e+02
  -5.547561e+01   8.377519e+01
  -4.048577e+01   2.243174e+01
   3.757965e+01  -2.414871e+01
   1.176426e+02   4.146052e+01
   3.161065e+01   1.413285e+02
  -7.500056e+01   1.466042e+02
  -1.942450e+02   1.005258e+02
  -1.669507e+02  -9.932372e+01
   1.822211e+01  -2.187268e+02
   1.129652e+02  -1.448561e+02
   1.036652e+02  -1.938420e+01
   5.446200e+01   1.157884e+02
   1.291532e+01   9.332277e+01
  -6.827221e+01   1.827820e+01
  -3.298961e+01  -1.824516e+01
  -4.585200e+01  -7.553338e+00
   1.022760e+01  -7.825280e+00
  -1.168907e+01   4.031984e+01
  -6.655862e+01  -6.047133e+01
  -5.528792e+01  -1.486803e+02
   3.139220e+01  -4.041370e+01
   1.446309e+02   3.246805e+01
   7.677402e+01   7.628934e+01
  -1.399263e+01   1.302083e+01
  -7.239511e+01   3.460409e+01
  -1.135437e+02   3.606363e+00
  -6.596231e+01  -4.629183e+01
   4.478500e+01  -2.841593e+01
   1.052966e+01  -2.262967e+00
  -4.757138e+01   4.622753e+01
   1.325589e+00   2.228694e+01
   6.709024e+01   1.233587e+01
   1.083928e+02   2.208141e+01
  -1.451435e+01   6.575864e+01
  -7.335322e+01   1.350776e+02
  -1.871331e+02   8.547383e+01
  -1.732648e+02  -1.617500e+01
  -2.705438e+01  -1.508238e+02
   9.419140e+01  -1.507487e+02
   7.403743e+01  -2.933238e+01
   4.351307e+01  -3.796579e+00
   3.653695e+00   1.454883e+01
   4.364755e+01   2.885884e+01
   1.156097e+01  -1.279141e+01
   6.024595e+01   7.181293e+01
   5.605901e+01   8.260453e+01
  -3.360329e+01   1.158342e+02
  -6.814075e+01  -3.202893e+01
  -6.083790e+01  -1.038979e+02
  -4.717533e+00  -1.172478e+02
   1.006407e+02  -1.448895e+01
   1.084616e+02   1.061692e+02
   1.186372e+01   1.244531e+02
  -6.891497e+01   6.481607e+01
  -1.360268e+02  -2.491147e+00
  -3.135288e+01  -5.503083e+01
  -1.042040e+01  -5.293377e+01
   1.441729e+01  -2.765536e+01
  -1.600985e+01  -2.636869e+01
  -6.835059e+01  -2.200762e+01
  -9.748960e+00  -2.480006e+01
   7.840738e+01  -3.273374e+01
   1.013118e+02  -7.622057e+01
   8.299918e+01   2.175939e+01
  -2.148450e+01   4.147622e+01
  -8.253240e+01   4.605539e+01
  -3.164710e+01   1.775948e+00
  -2.120713e+01  -5.857875e+01
   2.100991e+01  -5.411018e+01
   4.320106e+01  -2.994506e+01
   2.967513e+01   7.051658e+01
   1.545708e+01   4.403019e+01
  -6.719656e+01  -4.116947e+01
  -1.310704e+01  -1.825960e+01
  -9.426610e+00   7.285825e+00
   1.822032e+01   6.577456e+00
   2.559564e+01   1.502602e+01
   5.473790e+01  -7.080253e-01
   1.182517e+01  -3.723097e+01
   3.463135e+00  -3.621225e+01
   4.419342e+01   6.586711e+01
  -1.850090e+01   8.289843e+01
  -5.292870e+01   2.699478e+01
  -1.012775e+02  -3.447848e+01
  -4.784853e+01  -6.478935e+01
   5.349961e+01  -3.056309e+01
   8.630511e+01   5.014849e+00
   7.975016e+01   3.628847e+01
  -3.270346e+01   6.014297e+01
  -8.188967e+01   4.075058e+01
  -2.491528e+00  -5.358298e+01
   7.416021e+01  -2.858292e+00
   8.425009e+01   5.150132e+01
   2.418738e+01   5.698992e+00
  -8.876707e+01   4.799027e+01
