
 $NMID
 id='ANONYMOUS ', fmtdat='(2E16.6)'
 volume=1.0
 tramp=1.0
 $END
   3.989128e+03   1.041751e+02
   2.611280e+03   2.280773e+03
  -5.549882e+02   2.648767e+03
  -1.984165e+03   1.031395e+03
  -1.051117e+03  -3.358357e+02
   4.498364e+02  -5.143469e+02
   8.051746e+02   2.971577e+02
   1.074035e+02   1.036665e+03
  -7.029882e+02   7.525765e+02
  -8.448866e+02  -4.882512e+01
  -4.353322e+02  -8.685115e+02
   1.180425e+02  -9.096308e+02
   5.802720e+02  -1.515982e+02
   3.756145e+02   6.292985e+02
  -2.175843e+02   8.273291e+02
  -5.870065e+02   6.332228e+01
  -2.886049e+02  -5.987031e+02
   1.619665e+02  -6.414383e+02
   5.965378e+02  -1.911957e+02
   4.314805e+02   3.485953e+02
  -4.721366e+01   4.800216e+02
  -1.925095e+02   2.858555e+02
  -2.384164e+02  -2.470992e+00
   2.278469e+02  -4.474734e+01
   3.808835e+02   2.185113e+02
   3.382195e+01   4.743974e+02
  -4.981863e+02   3.269542e+02
  -7.393284e+02  -1.100413e+02
  -3.299652e+02  -4.774763e+02
   4.013791e+02  -3.545309e+02
   6.856222e+02   9.556850e+01
   3.310359e+02   4.904006e+02
  -2.577839e+02   4.888163e+02
  -5.775668e+02   1.714754e+02
  -3.715081e+02  -2.175490e+02
  -4.514712e+01  -4.457002e+02
   1.707611e+02  -2.591709e+02
   9.824125e+01   2.008377e+02
  -2.267324e+02   3.218359e+02
  -4.032348e+02  -1.335949e+02
  -1.957532e+02  -7.007701e+02
   2.781706e+02  -6.655354e+02
   5.549276e+02   9.178609e-01
   2.400239e+02   4.975497e+02
  -2.668318e+02   2.786111e+02
  -3.374056e+02  -3.185603e+02
   6.728397e+01  -4.907963e+02
   5.406374e+02  -1.153501e+02
   5.419780e+02   3.896233e+02
   1.683643e+02   5.821308e+02
  -3.843364e+02   3.239678e+02
  -5.862619e+02  -1.291264e+02
  -3.525651e+02  -3.836380e+02
   1.409257e+02  -3.425136e+02
   3.791083e+02  -6.551628e+01
   2.197602e+02   1.821085e+02
  -9.607996e+01   1.183713e+02
  -1.474974e+02  -6.778013e+01
   1.280572e+02  -1.227122e+02
   3.196738e+02   1.187156e+01
   1.555915e+02   2.303363e+02
  -1.622211e+02   2.514030e+02
  -3.473425e+02   1.122434e+02
  -2.263529e+02  -7.423698e+01
   7.271454e+01  -2.751368e+02
   2.355542e+02  -4.078332e+02
   3.653333e+02  -2.555676e+02
   1.997322e+02   1.186923e+02
   3.799563e+01   3.815556e+02
  -6.565598e+01   3.533672e+02
  -1.874973e+01   1.005864e+02
  -5.635403e+01   1.943216e+01
  -9.587592e+01   1.002070e+02
  -1.941926e+02   1.169706e+02
  -2.486615e+02  -4.779508e+01
  -1.194676e+02  -3.081919e+02
   2.004876e+01  -2.221726e+02
   1.766555e+02   2.941484e+00
   1.542164e+02   2.423646e+02
   1.263703e+01   2.982571e+02
  -2.095147e+02   7.460079e+01
  -3.650317e+02  -1.584793e+02
  -2.172299e+02  -3.360807e+02
   9.166300e+01  -2.901128e+02
   1.779298e+02  -1.462294e+02
   1.893327e+02  -2.838194e+01
   1.236692e+02  -3.269670e+01
   2.288689e+02   7.629478e+00
   3.998244e+02   5.067556e+01
   3.254585e+02   2.528862e+02
  -4.045159e+01   4.533437e+02
  -3.648908e+02   4.381371e+02
  -4.766036e+02   1.976977e+02
  -3.519553e+02  -9.271283e+01
  -3.624442e+01  -3.234485e+02
   1.122767e+02  -2.623627e+02
   1.067006e+02  -3.132280e+01
  -9.771707e+01   7.381208e+01
  -1.308110e+02  -3.244398e+01
  -1.684455e+01  -1.533970e+02
   1.152701e+02  -1.620807e+02
   1.726490e+02   5.617428e+01
   2.239003e+01   1.599158e+02
  -1.530485e+02  -1.589390e+01
  -1.263974e+02  -2.638022e+02
  -5.295457e-01  -3.343543e+02
   1.952183e+02  -1.257892e+02
   2.989866e+02   8.107460e+01
   2.907777e+02   2.643167e+02
   1.223941e+02   2.648473e+02
  -6.304982e+01   1.552075e+02
  -1.565155e+02   5.783566e+01
  -7.067826e+01   1.218177e+01
   5.016308e+01   6.738903e+01
   1.874497e+01   1.133859e+02
  -1.351215e+02   6.577953e+01
  -1.660772e+02  -4.969347e+01
  -4.003111e+01  -6.328246e+00
   8.799261e+01  -1.135586e+00
   5.285359e+01   1.093947e+02
  -1.437869e+02   7.075499e+01
  -3.069040e+02   3.104650e+01
  -2.951886e+02  -1.664284e+02
  -1.900626e+01  -2.473492e+02
   1.603344e+02  -2.573550e+02
   2.815501e+02  -8.889170e+01
   1.653725e+02   3.144085e+01
  -1.808541e+01   7.653273e+01
  -1.014777e+02  -9.575273e+00
   4.387016e+01  -9.040319e+01
   1.798085e+02  -4.086305e+01
   2.089463e+02   1.035362e+02
   8.367997e+01   2.017855e+02
  -1.092298e+02   1.989971e+02
  -2.216600e+02   7.749993e+00
  -8.881590e+01  -7.957610e+01
   1.428256e+01  -5.202124e+01
   5.518640e+01   9.989868e+01
  -8.632362e+01   1.188038e+02
  -2.134741e+02   6.368378e+00
  -1.640986e+02  -1.459305e+02
   7.760358e+00  -2.402204e+02
   1.838876e+02  -1.608629e+02
   2.143261e+02   2.388137e+00
   7.280469e+01   1.443498e+02
  -2.339554e+01   6.125987e+01
  -9.916482e+01   4.664412e+01
  -3.724981e+01   3.313514e+00
   3.101555e+01   1.797729e+01
  -2.404231e+01   1.756085e+01
  -9.017903e+01  -7.922075e+00
  -9.572184e+01  -1.477341e+02
  -1.672594e+01  -2.023121e+02
   1.271456e+02  -1.498191e+02
   2.810489e+02  -3.865041e+01
   1.708250e+02   1.684668e+02
   4.732758e+01   2.742028e+02
  -1.368387e+02   1.257973e+02
  -1.083556e+02   2.496670e+01
  -4.967965e+01  -4.514912e+01
  -1.190097e+01  -5.475160e+01
  -8.281607e+01  -1.199279e+01
  -7.448036e+01  -3.050691e+01
  -6.469186e+01  -5.426514e+01
   2.972880e+01  -7.130537e+01
   8.660346e+01  -5.028468e+01
   8.144818e+01   3.707953e+01
  -1.194251e+01   1.481002e+02
  -1.480025e+02   1.014731e+02
  -1.854737e+02  -6.663887e+01
  -8.524945e+01  -2.272177e+02
   1.000005e+02  -1.823113e+02
   2.241800e+02  -9.364309e+01
   2.662685e+02   9.907051e+01
   1.440054e+02   1.533090e+02
  -1.017993e+01   1.307239e+02
  -9.071793e+01   8.788025e+01
  -7.378780e+01   8.710287e+01
  -7.663197e+01   6.761530e+01
  -6.574811e+01   8.370186e+01
  -1.325545e+02  -1.951192e+00
  -1.109269e+02  -1.600472e+02
  -1.810714e+01  -2.400587e+02
   1.194998e+02  -1.932419e+02
   1.798943e+02   1.923130e+01
   1.635141e+02   1.637683e+02
   2.799690e+01   1.656095e+02
  -8.013476e+01   6.672758e+01
  -5.947826e+01  -3.347726e+01
   4.481732e+01  -3.658059e+01
   1.816494e+01  -3.737783e+01
  -9.981800e+00   1.656224e+01
  -7.654007e+01  -4.426601e+01
  -2.600192e+01  -5.615202e+01
   9.029566e+00  -5.708049e+01
   1.325734e+02  -1.136157e+00
   1.146469e+02   5.768137e+01
   3.889710e+01   9.364363e+01
  -1.447924e+02   6.582350e+01
  -1.417668e+02  -4.920786e+00
  -4.380788e+01  -3.807724e+01
   7.428520e+01  -2.397254e+01
   6.642930e+01   3.954579e+01
  -4.916560e+00   6.754670e+01
  -7.262605e+01   9.052491e+01
  -8.642726e+01  -1.625498e+01
  -5.945342e+01  -3.873760e+01
  -5.871999e+01  -4.595073e+01
  -4.669929e+01  -1.340327e+01
  -5.098282e+01  -2.470440e+00
  -4.630072e+01  -6.309591e+01
   2.409520e+01  -1.697967e+02
   1.247093e+02  -1.301496e+02
   1.703923e+02  -5.623739e+00
   1.125644e+02   1.200171e+02
  -7.408280e+00   1.625752e+02
  -6.586452e+01   8.017234e+01
  -7.175927e+01  -4.151147e+01
   4.391617e+01  -8.775001e+00
   1.429965e+02   2.658012e+01
   4.233449e+01   8.969819e+01
  -8.235872e+01   1.130154e+02
  -1.869919e+02   4.583112e+01
  -2.007812e+02  -3.385640e+01
  -2.942783e+01  -8.409802e+01
   1.986079e+01  -2.901795e+01
   4.925157e+01   6.289494e+00
  -6.986867e+01   1.404464e+01
  -7.116309e+01  -3.937887e+00
  -2.672407e+01  -1.108681e+02
   9.149320e+01  -1.435116e+02
   1.744453e+02  -6.264092e+01
   1.319103e+02   8.974912e+01
   1.214155e+01   1.842676e+02
  -1.385576e+02   1.415299e+02
  -1.169567e+02   2.184839e+01
  -3.373811e+01  -1.438036e+02
   1.215939e+01  -1.029956e+02
   4.007017e+01  -1.286905e+01
   5.327504e+01   4.683647e+01
   1.971527e+01  -1.984705e+01
   3.014824e+01  -4.806698e+01
   1.677807e+00  -6.920747e+00
   4.051275e+01   9.685711e+01
   3.668725e+01   1.468595e+02
  -1.549056e+01   8.182573e+01
  -1.357824e+02   1.167352e+01
  -1.310708e+02  -6.784588e+01
  -5.164174e+01  -4.084460e+01
   4.052539e+01  -3.670203e+01
   4.520531e+01  -1.084488e+01
  -3.872846e+00   2.496338e+01
  -5.509940e+01   4.362626e+01
  -5.064832e+01  -4.115174e+01
   1.884285e+01  -2.945339e+01
  -4.569845e+00   1.379655e+01
  -7.893789e+01  -1.857795e+01
  -1.076545e+02  -3.081119e+01
  -2.514365e+01  -6.111458e+01
   1.317080e+02  -1.256380e+02
   2.104259e+02  -4.668905e+01
   1.402621e+02   5.121421e+01
   2.611398e+01   1.646598e+02
  -4.172521e+01   1.752206e+02
  -1.476199e+02   4.937277e+01
  -9.100017e+01  -2.504461e+01
  -1.047075e+01  -8.033609e+01
   6.973266e+01  -3.733054e+01
   7.394364e+01  -9.096326e+00
   2.917845e+01  -3.370061e+01
   2.866556e+01  -7.752482e+01
  -2.120943e+00  -4.377459e+01
   9.502677e+01   1.867127e+01
   1.104951e+02   1.131871e+02
   1.105964e+01   8.426130e+01
  -4.248957e+01   4.199596e+01
  -1.108623e+02  -6.156928e+01
  -6.114184e+01  -8.986702e+01
   6.301900e+01  -7.584190e+01
   8.492283e+01  -1.723207e+01
   5.045145e+01   3.477760e+01
  -3.672624e+01   4.065807e+01
  -3.308111e+01  -3.577392e-01
   2.638094e+01  -2.286952e+01
   6.012135e+01  -3.179037e+01
   7.838351e+00   2.839788e+01
  -8.408905e+01   7.086802e+01
  -1.115939e+02   9.345604e+01
  -4.881370e+01   2.826218e+01
  -4.520912e+00  -1.198483e+02
   7.714437e+01  -1.172774e+02
   4.380495e+01   6.413417e+00
   2.549312e+01   4.235649e+01
  -1.700599e+01   2.720460e+01
  -5.047186e+01   5.610265e+00
  -3.439491e+01   2.385798e+00
   1.028860e+01  -1.541369e+01
  -3.847146e+00   3.029983e+01
   4.963055e+01   5.166469e+01
   2.000409e+01   5.953833e+00
  -2.179443e+01  -1.098015e+01
  -2.004931e+01  -9.513028e-01
  -1.002954e+01   3.939391e+00
   1.584943e+00   7.270939e+01
  -2.622738e+01   5.283629e+00
  -5.048608e+01  -5.765793e+01
   4.373209e+01  -4.655556e+01
   6.100544e+00   5.495345e+00
   9.758235e+01   3.509953e+01
  -3.859336e-01   5.427250e+01
  -7.231931e+01   4.711437e+01
  -7.409972e+01  -4.392510e+01
  -5.848139e+01  -6.571844e+01
   4.126110e+01  -8.299519e+01
   9.668650e+01  -4.546047e+01
   6.824364e+01   1.811921e+00
  -2.667690e+00   4.494921e+01
  -3.957403e+01   6.197195e+01
   3.025822e+01   4.919806e+01
   8.377305e+01  -3.282052e+00
