
 $NMID
 id='ANONYMOUS ', fmtdat='(2E16.6)'
 volume=1.0
 tramp=1.0
 $END
   2.767592e+03   2.148203e+02
   1.886263e+03   1.387334e+03
   6.415954e+01   1.677030e+03
  -1.122965e+03   1.018684e+03
  -8.203034e+02   2.506605e+02
  -1.473749e+02  -1.570393e+01
   2.689814e+02   5.415888e+01
   7.766975e+01   4.711468e+02
  -4.128032e+02   4.761306e+02
  -5.444823e+02   1.286286e+02
  -3.189749e+02  -3.820103e+02
  -9.527795e+01  -5.338857e+02
   1.996713e+02  -1.954140e+02
   2.077064e+02   3.100178e+02
  -1.297136e+02   4.862120e+02
  -3.238874e+02   8.863957e+01
  -2.263352e+02  -4.130439e+02
   1.355021e+01  -5.473970e+02
   3.608578e+02  -2.814507e+02
   4.536805e+02   1.259897e+02
   1.762471e+02   2.484557e+02
  -8.330605e+01   2.517301e+02
  -8.350666e+01   7.627867e+01
   2.137221e+02   1.374020e+02
   2.581829e+02   2.900775e+02
  -4.325014e+01   3.122944e+02
  -4.033155e+02   1.779932e+02
  -5.094579e+02  -1.753977e+02
  -1.748566e+02  -2.582463e+02
   2.957528e+02  -1.238080e+02
   4.182416e+02   1.462546e+02
   1.665361e+02   3.656209e+02
  -2.235573e+02   3.320190e+02
  -4.053585e+02   1.590029e+02
  -3.004845e+02  -1.692589e+02
  -9.806162e+01  -3.180113e+02
   2.292542e+01  -1.516706e+02
  -4.836810e+01   3.913009e+01
  -1.578460e+02   1.371786e+02
  -1.953695e+02  -1.449075e+02
   4.695555e+00  -4.338821e+02
   2.231451e+02  -3.254672e+02
   2.857531e+02   2.030823e+01
   7.189286e+01   2.767505e+02
  -1.252329e+02   1.128872e+02
  -1.233706e+02  -2.479515e+02
   1.468847e+02  -3.458951e+02
   4.168182e+02  -7.509613e+01
   4.189537e+02   2.980797e+02
   1.421269e+02   4.686799e+02
  -2.157456e+02   2.604678e+02
  -4.534589e+02  -5.416190e+01
  -3.242176e+02  -1.886274e+02
   1.463809e+00  -1.650767e+02
   2.070104e+02  -9.300888e+01
   1.852596e+02  -4.944233e+00
  -1.439335e+01  -2.422745e+01
  -4.506390e+01  -2.800880e+01
   1.049912e+02  -3.751371e+01
   2.037963e+02   3.843145e+01
   7.581211e+01   1.227028e+02
  -1.679809e+02   1.838135e+02
  -3.491758e+02   9.460817e+01
  -2.097041e+02  -1.142030e+02
   4.991104e+01  -3.013084e+02
   3.094262e+02  -3.202548e+02
   3.018539e+02  -1.055277e+02
   2.219815e+02   1.901456e+02
   2.790458e+01   3.612546e+02
  -5.340178e+01   2.604425e+02
  -1.298863e+01   1.805787e+02
  -9.414739e+01   1.204314e+02
  -1.585988e+02   1.229274e+02
  -2.249667e+02   6.729137e+01
  -2.478533e+02  -9.113034e+01
  -7.440455e+01  -2.650574e+02
   1.020522e+02  -2.098690e+02
   1.493225e+02   8.067479e+01
   1.126540e+02   2.585814e+02
  -8.037153e+01   2.477819e+02
  -2.554204e+02   5.684597e+01
  -3.159877e+02  -1.909377e+02
  -1.662952e+02  -3.131340e+02
   1.228466e+02  -2.330212e+02
   1.857556e+02  -1.360818e+02
   1.587908e+02  -8.786936e+01
   1.270382e+02  -4.939815e+01
   2.238691e+02  -1.449767e+01
   3.615800e+02   6.750194e+01
   2.139448e+02   2.962533e+02
  -3.917531e+01   3.743448e+02
  -3.720238e+02   3.759140e+02
  -4.437244e+02   1.655747e+02
  -2.728323e+02  -1.281976e+02
  -1.418089e+01  -2.512143e+02
   9.913102e+01  -1.484267e+02
   1.819774e+01  -5.451148e+01
  -1.025071e+02   7.261371e+01
  -1.132758e+02  -5.069411e+01
  -2.153108e+01  -1.240610e+02
   1.091454e+02  -1.415075e+02
   5.326646e+01   1.018326e+02
  -4.866322e+01   9.362624e+01
  -1.414176e+02  -2.711278e+01
  -1.005440e+02  -2.635566e+02
   6.505062e+01  -3.090601e+02
   2.562071e+02  -1.989250e+02
   3.536837e+02   1.178922e+02
   2.788707e+02   2.812597e+02
   8.197450e+01   2.508972e+02
  -1.206456e+02   1.460142e+02
  -1.770465e+02   2.195921e+01
  -4.960092e+01  -2.825998e+01
   4.053496e+01   7.645770e+01
  -9.201999e+01   8.027482e+01
  -1.293293e+02   3.531285e+01
  -1.250322e+02  -3.233840e+00
  -4.391236e+01  -2.025723e+01
   9.410098e+01  -2.399637e+01
   7.345867e+01   1.671336e+01
  -1.435717e+02   7.793119e+01
  -2.515196e+02  -1.585412e+01
  -2.164526e+02  -1.228610e+02
   8.222781e+00  -2.294428e+02
   2.194819e+02  -2.075084e+02
   2.175931e+02  -7.552798e+01
   9.339278e+01   6.326785e+01
  -3.492624e+01   6.752487e+01
  -3.180739e+01   2.147745e+01
   8.536800e+01  -7.133785e+01
   1.950993e+02  -2.509438e+00
   1.555602e+02   9.874737e+01
   9.222159e+00   1.552916e+02
  -9.466825e+01   9.721688e+01
  -1.418585e+02  -1.416011e+00
  -2.589651e+01  -8.504986e+01
   4.608181e+01  -1.130516e+01
   1.460048e+01   1.040267e+02
  -8.784183e+01   9.268875e+01
  -2.085937e+02   2.961904e+01
  -1.512669e+02  -1.313247e+02
  -6.132885e+00  -1.672799e+02
   1.670357e+02  -1.841506e+02
   1.531248e+02  -2.979769e+01
   3.444976e+01   9.328495e+01
  -1.225324e+01   8.987339e+01
  -7.204506e+01   3.447167e+01
  -2.572356e+01   1.710496e+01
   7.646229e+00  -1.583481e+01
  -1.510679e+01   1.560216e+01
  -1.044849e+02  -7.930826e+00
  -7.933886e+01  -7.895688e+01
   2.140154e+01  -1.753391e+02
   1.573308e+02  -1.391253e+02
   2.162170e+02  -2.388426e+01
   1.923540e+02   1.691187e+02
   2.450793e+00   2.142192e+02
  -1.192425e+02   1.239728e+02
  -7.501607e+01   3.741925e+01
  -4.962004e+01  -1.914651e+00
  -3.100304e+01  -7.060119e+00
  -5.498707e+01  -8.908583e-01
  -1.019336e+02   8.565923e+00
  -6.726409e+01  -8.776125e+01
   5.505830e+01  -9.292105e+01
   1.590615e+02  -5.332462e+01
   8.382059e+01   8.486558e+01
  -5.572071e+01   1.098014e+02
  -1.533803e+02   8.052242e+01
  -2.334646e+02  -7.658416e+01
  -8.917616e+01  -2.007141e+02
   1.025721e+02  -1.993436e+02
   2.661802e+02  -1.000251e+02
   2.808400e+02   7.451352e+01
   1.177566e+02   2.206490e+02
  -2.348577e+01   1.576087e+02
  -5.955671e+01   6.517141e+01
  -9.279736e+01   1.008927e+02
  -7.405437e+01   5.778782e+01
  -9.653767e+01   5.648727e+01
  -1.409097e+02  -2.198245e+01
  -1.249278e+02  -1.690837e+02
  -2.221382e+01  -1.855024e+02
   1.488498e+02  -1.679648e+02
   1.553481e+02  -6.447674e+00
   1.223312e+02   1.564886e+02
   1.166591e+01   1.480449e+02
  -6.161489e+01   8.955150e+01
  -4.101969e+01  -3.956729e+01
   3.915937e+00  -4.476646e+01
  -1.585064e+01  -3.029601e+01
  -1.460548e+01  -2.476923e+00
  -9.884081e+01  -2.389861e+01
  -2.981796e+01  -4.882111e+01
   6.009860e+01  -6.394340e+01
   1.874023e+02   7.890355e+00
   1.461176e+02   1.575454e+01
  -2.379328e+00   8.216604e+01
  -1.551005e+02   6.325857e+01
  -1.540228e+02   1.268806e+01
  -6.183529e+01  -2.184546e+01
   3.854018e+01  -4.216217e+01
   9.229801e+01  -6.876148e+00
   4.203105e+01   5.600102e+01
  -3.505320e+01   1.013894e+02
  -7.796206e+01   3.072257e+01
  -5.553516e+01  -1.757384e+01
  -5.806074e+01  -8.029375e+00
  -8.823480e+01   3.610966e+01
  -7.176799e+01   1.514222e+01
  -3.996904e+01  -5.831239e+01
  -3.008892e+01  -1.694092e+02
   7.676251e+01  -1.640455e+02
   1.831988e+02  -3.095760e+01
   9.595512e+01   1.123683e+02
  -2.679514e+01   1.145803e+02
  -8.456993e+01   2.807821e+01
   1.480359e+00  -3.699742e+01
   5.475605e+01  -4.095905e+01
   1.131887e+02   2.706952e+01
   8.550358e+01   8.979138e+01
  -9.169998e+01   9.781927e+01
  -1.892946e+02   5.735722e+01
  -1.374454e+02  -6.167959e+00
  -2.148198e+01  -7.331649e+01
   3.596567e+01  -5.563397e+01
   8.827413e+00   1.585159e+01
  -6.272528e+01   1.084142e+01
  -7.980059e+01  -3.058950e+01
  -3.237909e+01  -1.185586e+02
   7.528035e+01  -1.310490e+02
   1.743752e+02  -1.021986e+02
   1.592531e+02   8.490002e+01
   1.088466e+01   1.734349e+02
  -6.410694e+01   1.785648e+02
  -1.010758e+02   1.993567e+01
  -5.702271e+01  -7.631367e+01
  -1.605742e+01  -9.152806e+01
   7.377427e+01  -1.338310e+01
   3.554854e+01   2.995648e+01
  -1.093907e+00  -2.148174e+01
   1.223018e+01  -3.557420e+01
   2.097220e+01  -3.186666e+01
   7.480401e+01   8.774886e+01
   2.417622e+01   8.532381e+01
  -3.640337e+01   3.178974e+01
  -1.718620e+02  -1.650289e+01
  -9.228388e+01  -6.226435e+01
  -1.692838e+01  -8.133359e+01
   8.236772e+01  -4.066517e+00
   4.752239e+01  -9.983403e+00
   2.015815e+01   2.066957e+01
  -9.491086e+00   2.431500e+01
  -2.495151e+01   2.102247e+01
   3.798899e+01   4.042568e+00
  -2.591372e+01   3.715522e+01
  -7.932455e+01   2.801685e+01
  -9.013377e+01  -1.006310e+01
  -1.663020e+01  -1.018792e+02
   8.224848e+01  -1.631355e+02
   1.818909e+02  -1.001930e+02
   1.694860e+02   7.638392e+01
   4.020083e+01   1.655486e+02
  -3.458720e+01   1.675841e+02
  -1.018491e+02   8.897501e+01
  -9.798238e+01   1.501426e+01
  -4.500054e+01  -7.685943e+00
  -1.532969e+01  -4.647234e+01
  -1.538454e+01   1.324211e+01
  -6.893115e+01  -8.591607e+01
  -6.062952e+01  -1.114361e+02
   3.950877e+01  -6.792747e+01
   4.237372e+01   9.291791e+00
   7.307332e+01   9.623707e+01
   1.027722e+01   9.914069e+01
  -1.002131e+02   3.375295e+01
  -1.096013e+02  -9.187516e+01
  -3.740029e+01  -7.024498e+01
   7.927653e+01  -7.069251e+01
   9.794622e+01   1.317165e+01
   1.559041e+01   8.507712e+01
  -3.292168e+01   7.205523e+01
  -2.247851e+01   2.056748e+00
   3.598185e+01   7.857436e+00
   1.106801e+02  -6.728010e+00
   2.288357e+01   3.041250e+01
  -6.327447e+01   7.634204e+01
  -1.441280e+02   4.517481e+01
  -8.444774e+01  -2.657895e+01
  -1.010160e+01  -7.531626e+01
   5.287247e+01  -7.015805e+01
   3.269980e+01   7.911744e+00
   1.493172e+01   6.627984e+01
  -3.458887e+01   3.545472e+01
  -4.853148e+01   1.407977e+01
  -1.392358e+01  -3.412645e+01
  -4.025154e+00  -3.890129e+01
   3.930247e+01  -3.364245e+01
   3.015187e+01  -5.619559e+00
  -5.533678e+00  -2.325808e+01
  -4.274018e+01  -1.476647e+01
  -5.702955e-01  -4.402053e+00
  -1.904665e+00   2.872340e+01
   2.633928e+01   3.628590e+01
  -1.058688e+01   1.703004e+01
  -6.340667e+01  -6.941337e+01
  -2.684868e+01  -5.118901e+01
   5.432418e+01  -2.794619e+01
   8.788922e+01   2.800210e+01
   7.863184e+01   3.754905e+01
  -4.661442e+01   3.877656e+01
  -1.014298e+02  -6.401825e+01
  -5.274191e+01  -3.107957e+01
   4.108903e+01  -3.767097e+01
   4.494174e+01  -1.312917e+01
   1.040430e+01  -4.186356e+01
  -4.433855e+01   2.395401e+00
  -3.464382e+01  -6.173302e+00
   2.562655e+01  -3.012418e+01
   1.123321e+02  -2.814708e+01
