
 $NMID
 id='ANONYMOUS ', fmtdat='(2E16.6)'
 volume=1.0
 tramp=1.0
 $END
  -4.504104e+03   9.898763e+01
  -2.769396e+03  -2.693481e+03
   8.799431e+02  -2.922603e+03
   2.334221e+03  -8.973127e+02
   1.001625e+03   7.643984e+02
  -7.064492e+02   7.015097e+02
  -9.878715e+02  -4.137367e+02
  -5.065378e+01  -1.131065e+03
   8.925341e+02  -8.018122e+02
   9.490529e+02   8.682469e+01
   4.680895e+02   9.054901e+02
  -2.895681e+02   9.716758e+02
  -6.963414e+02   1.408192e+02
  -4.070540e+02  -7.334711e+02
   2.601866e+02  -7.168534e+02
   5.959589e+02   8.181802e+01
   2.918497e+02   7.665571e+02
  -3.265235e+02   6.816229e+02
  -5.595074e+02   4.022509e+01
  -4.588328e+02  -3.187033e+02
  -3.354146e+01  -4.489496e+02
   2.217491e+02  -2.497289e+02
   2.374881e+02  -1.758169e+01
  -1.695961e+02   1.065503e+02
  -5.037201e+02  -6.465475e+01
  -2.486775e+02  -5.268060e+02
   5.832743e+02  -5.244094e+02
   8.976936e+02   5.019467e+01
   3.884358e+02   6.329129e+02
  -4.341031e+02   5.644460e+02
  -8.100140e+02  -6.212794e+01
  -3.816178e+02  -5.492046e+02
   2.974357e+02  -5.481152e+02
   6.296707e+02  -1.871055e+02
   5.006778e+02   2.578106e+02
   6.799336e+01   5.503161e+02
  -2.663718e+02   3.817358e+02
  -2.033931e+02  -2.540255e+02
   1.161401e+02  -5.275013e+02
   4.671249e+02  -2.668967e+01
   2.942088e+02   6.974334e+02
  -3.282625e+02   8.003375e+02
  -6.463904e+02  -8.136718e+00
  -2.794662e+02  -6.100590e+02
   3.079560e+02  -3.633790e+02
   4.905912e+02   3.159666e+02
  -5.251072e+01   5.872532e+02
  -6.026355e+02   1.683094e+02
  -6.605338e+02  -3.886014e+02
  -2.200972e+02  -6.277931e+02
   4.171333e+02  -3.415149e+02
   6.436940e+02   7.426009e+01
   3.817909e+02   3.892724e+02
  -1.619453e+02   4.037631e+02
  -5.134174e+02   2.628726e+01
  -2.881692e+02  -2.355601e+02
   1.215109e+02  -1.720408e+02
   1.969441e+02   1.799723e+02
  -1.475382e+02   2.158676e+02
  -3.758378e+02  -6.679714e+01
  -1.776842e+02  -3.129033e+02
   1.816941e+02  -3.074555e+02
   3.710758e+02  -6.993103e+01
   2.554511e+02   7.611295e+01
  -3.859935e+01   2.613899e+02
  -1.934791e+02   3.879411e+02
  -3.208864e+02   1.885003e+02
  -2.781383e+02  -1.663768e+02
  -6.208614e+01  -4.574038e+02
   1.324615e+02  -3.647095e+02
   1.266309e+02  -8.706780e+01
   5.302605e+01   7.045432e+01
   5.537520e+01  -7.701292e+01
   2.192792e+02  -8.608333e+01
   2.881964e+02   8.367464e+01
   1.255088e+02   2.794028e+02
  -1.359541e+02   2.533786e+02
  -2.446003e+02  -3.243858e+00
  -2.137835e+02  -2.407375e+02
   2.166643e+01  -3.148472e+02
   2.701999e+02  -1.408730e+02
   3.756746e+02   1.863135e+02
   1.546287e+02   3.569703e+02
  -1.457617e+02   3.211278e+02
  -2.800162e+02   1.267726e+02
  -1.959751e+02  -2.590390e+01
  -6.223321e+01   5.753106e+00
  -2.279269e+02   8.690825e+01
  -3.839736e+02  -1.682502e+01
  -3.428235e+02  -3.042545e+02
  -5.215335e+01  -4.394749e+02
   3.627343e+02  -4.323433e+02
   5.263055e+02  -1.934772e+02
   3.701836e+02   1.096722e+02
   7.770399e+01   2.938898e+02
  -1.511952e+02   2.746147e+02
  -1.214011e+02   2.469109e+01
   1.093818e+02  -1.092177e+02
   2.030572e+02  -3.439847e+01
   4.929675e+01   1.725452e+02
  -1.262091e+02   2.154736e+02
  -1.666798e+02  -4.626203e+01
  -1.836875e+01  -1.638144e+02
   1.618222e+02  -1.315988e+01
   1.479401e+02   2.106105e+02
  -4.202032e+01   3.256610e+02
  -2.107882e+02   1.962352e+02
  -3.233325e+02  -9.338465e+01
  -2.549049e+02  -2.937831e+02
  -7.945116e+01  -2.850185e+02
   1.389551e+02  -1.977509e+02
   1.827055e+02   7.786040e+00
   7.366422e+01   4.924882e+01
  -8.587794e+01  -2.282496e+01
  -2.410524e+01  -9.550762e+01
   1.576000e+02  -6.933325e+01
   1.987095e+02  -7.853797e+00
   7.187045e+01   5.993797e+01
  -8.446892e+01   5.039323e+00
  -7.048674e+01  -8.881285e+01
   1.327787e+02  -6.165188e+01
   2.749811e+02   5.967339e+00
   2.788240e+02   1.131295e+02
   9.208712e+01   2.284079e+02
  -1.647579e+02   2.752887e+02
  -3.080738e+02   1.432502e+02
  -2.129835e+02  -4.658492e+01
   6.604846e+00  -1.183634e+02
   7.152901e+01  -4.871646e+01
   3.388273e+01   9.776102e+01
  -1.600976e+02   9.880977e+01
  -1.684307e+02  -9.877664e+01
  -4.449432e+01  -1.931935e+02
   9.979626e+01  -1.517177e+02
   1.247786e+02  -1.322340e+01
   6.367615e+01   1.011211e+02
  -5.182743e+01   1.742574e+01
  -6.059091e+01  -1.314187e+02
   9.020108e+01  -1.370066e+02
   1.926734e+02  -6.727307e+01
   1.910243e+02   1.291580e+02
   8.083520e+01   2.477594e+02
  -1.796270e+02   1.758333e+02
  -1.846270e+02  -2.814317e+00
  -5.402060e+01  -1.358898e+02
   8.007575e+01  -1.159395e+02
   5.844366e+01  -1.746693e+01
   2.646032e+01   4.829911e+01
  -1.015711e+01   8.262994e+00
  -5.698711e+00  -2.479576e+01
   8.797684e+01  -4.478210e+00
   6.003776e+01   1.001499e+02
   2.469532e+01   2.021873e+02
  -1.147359e+02   1.383567e+02
  -2.461300e+02   4.213938e+01
  -2.063095e+02  -1.396803e+02
  -7.835945e+01  -1.984351e+02
   1.057639e+02  -1.869733e+02
   1.273101e+02  -2.993087e+01
   7.643867e+01   1.027950e+02
  -6.573826e+00   6.999933e+01
   2.821866e+01  -8.693596e+00
   1.059413e+02  -4.743759e+01
   2.734662e+01   5.181943e+01
  -5.288342e+01   9.529378e+01
  -1.033084e+02   4.648837e+01
  -9.998969e+01   2.421468e+01
  -4.144137e+01  -9.183844e+01
   1.296014e+02  -9.698010e+01
   2.174341e+02   4.268010e+01
   8.334093e+01   1.941445e+02
  -5.205446e+01   2.165478e+02
  -2.602888e+02   1.109849e+02
  -2.544320e+02  -6.143952e+01
  -1.299863e+02  -1.986992e+02
   4.377113e+01  -1.521979e+02
   5.645990e+01  -8.554353e+01
   3.920663e+01  -7.361843e+01
   7.033183e+01  -9.287610e+01
   1.170081e+02  -6.540219e+01
   1.628606e+02   5.935647e+01
   1.284268e+02   1.564058e+02
   1.941745e+01   2.394625e+02
  -9.430986e+01   1.909810e+02
  -1.849784e+02   2.688731e+01
  -1.818063e+02  -1.251375e+02
  -2.736608e+01  -1.801239e+02
   1.002960e+02  -1.030515e+02
   1.026473e+01  -6.812834e+00
  -6.401091e+00   2.502465e+01
  -2.185395e+00   1.194375e+01
   5.526833e+01   1.871473e+01
   1.044057e+02   1.954611e+01
   6.699215e+01   4.631458e+01
  -5.718807e+01   6.423457e+01
  -1.318900e+02   1.704546e+01
  -1.317005e+02  -4.654874e+01
  -5.722218e+01  -9.423762e+01
   9.270923e+01  -1.064633e+02
   1.566491e+02  -5.046793e+01
   3.536563e+01   7.031976e+01
  -3.288410e+01   1.289025e+01
  -6.385430e+01  -1.816687e+01
   1.368617e+01  -9.876711e+01
   4.994446e+01  -4.781695e+01
   6.474570e+01   9.201510e+00
   6.857263e+01   1.626681e+01
   5.708526e+00   4.583901e+01
   5.381822e+01   2.365788e+01
   4.749350e+01  -4.283734e+00
   6.718765e+01   4.185581e+01
  -1.241769e+01   1.587689e+02
  -1.261530e+02   1.986120e+02
  -1.799053e+02   8.813032e+01
  -1.624754e+02  -1.107969e+02
  -2.187189e+01  -1.744848e+02
   7.766568e+01  -5.997142e+01
   8.701086e+01   5.687652e+01
  -2.036020e+01   1.683857e+01
  -1.350080e+02  -5.607131e+01
  -1.056109e+02  -1.619467e+02
   8.192486e+01  -1.411201e+02
   2.028378e+02  -8.507475e+01
   2.295744e+02   2.740144e+01
   6.983699e+01   1.360370e+02
  -1.076812e+02   1.110021e+02
  -5.111877e+01   3.810775e+01
  -2.291621e+01   8.206821e-01
   3.789911e+01  -2.602188e+01
   2.240773e+01   7.362009e+01
  -8.174589e+01   1.426907e+02
  -1.822035e+02   6.562510e+01
  -1.311537e+02  -1.215792e+02
   2.473069e+01  -2.121406e+02
   9.189155e+01  -1.575335e+02
   1.359421e+02  -6.917954e+00
   4.236062e+01   1.225268e+02
   7.095976e+00   1.361993e+02
   3.337437e+00  -7.896646e+00
   2.055562e+00  -5.216314e+01
   3.115990e+00   2.548554e+01
  -1.191670e+01   2.838780e+01
  -1.127897e+01   2.302924e+01
  -9.010437e+01  -7.625164e+01
  -5.176178e+01  -1.139500e+02
   4.641653e+01  -6.006530e+01
   1.598571e+02   2.485897e+01
   1.298885e+02   9.113209e+01
   2.008595e+01   9.157532e+01
  -1.252810e+02   5.896516e+01
  -8.318675e+01  -8.075577e+00
  -1.410087e+01   1.225555e+01
   5.333940e+01  -3.282996e+01
   1.244723e+01   4.545565e-01
  -7.985037e+01  -1.282016e+01
  -3.806240e+01  -1.717063e+01
   7.712559e+01  -2.410155e+01
   1.135822e+02   1.315300e+01
  -3.106634e+01   5.113944e+01
  -1.076026e+02   1.089680e+02
  -1.771006e+02   9.822163e+01
  -1.143218e+02  -4.954004e+01
  -7.314572e+00  -1.985344e+02
   9.236177e+01  -1.489715e+02
   1.088642e+02  -8.303060e+01
   9.842288e+01   4.686451e+01
   4.774544e+01   5.761955e+01
   2.330974e+01   4.331433e-01
   4.040108e+01  -1.813375e+00
   4.518268e+01   2.161879e+00
   1.705802e+01   1.235362e+02
  -7.864331e+01   1.049818e+02
  -6.514543e+01  -3.589088e+01
  -9.463581e+01  -1.101976e+02
  -2.589197e+01  -1.238567e+02
   6.383699e+01  -5.156458e+01
   1.077074e+02   6.349959e+01
   5.094611e+01   8.757354e+01
  -6.278277e+01   5.799191e+01
  -6.463536e+01   5.999031e+00
  -2.931878e+01  -3.173983e+01
   5.914608e+01  -3.381421e+01
   7.931848e+01   5.345518e+00
  -4.590173e+01   1.584195e+01
  -6.349949e+01   2.222552e+01
  -6.808851e+01   5.978798e+00
   8.641017e+01  -8.611605e+01
   1.329751e+02  -1.934399e+01
   8.052634e+01  -8.799752e-01
  -1.711181e+01   9.904639e+01
  -6.403858e+01   9.255405e+01
  -5.631750e+01   3.331249e+01
  -4.505272e+01  -8.588320e+01
   4.354212e+00  -9.672558e+00
   1.494862e+01   1.153680e+01
   1.197898e+01  -1.059694e+00
   5.615246e+00   3.305046e+01
  -3.040112e+01   7.819631e+00
  -2.693043e+01  -4.953135e+01
   7.571951e+00  -3.376880e+01
   2.538865e+00  -9.959569e+00
   2.916640e+00   1.299417e+01
  -8.084041e+00  -1.230127e+01
   8.398287e+00  -3.493678e+01
   1.012607e+01  -3.078535e+01
   1.286407e+01   4.959336e+01
  -2.060547e+01   6.392462e+01
  -2.587805e+01  -1.362318e+01
  -8.985658e+00  -6.288665e+01
  -3.905815e+01  -5.292684e+01
   6.345121e+01  -7.947837e+00
   7.896480e+01   2.971345e+01
   8.028551e+01   5.218450e+01
  -4.483445e+01   4.502958e+01
  -6.300738e+01   3.243746e+01
  -2.693642e+00  -8.763718e-01
   1.514605e+01  -4.505810e+01
   7.957521e+01   1.452904e+00
  -7.238726e+01   3.208284e+00
  -1.120273e+02   3.434213e+01
