
 $NMID
 id='ANONYMOUS ', fmtdat='(2E16.6)'
 volume=1.0
 tramp=1.0
 $END
  -4.522147e+03   8.700449e+01
  -2.606103e+03  -2.544760e+03
   8.650371e+02  -2.880341e+03
   2.142016e+03  -8.003110e+02
   8.502132e+02   5.388215e+02
  -6.440415e+02   5.138267e+02
  -8.152152e+02  -4.127247e+02
   2.158531e+01  -9.443310e+02
   7.845150e+02  -7.612987e+02
   9.051038e+02   6.177442e+01
   4.137693e+02   8.175559e+02
  -1.831324e+02   8.597542e+02
  -6.259417e+02   1.244672e+02
  -3.960184e+02  -7.598463e+02
   2.649003e+02  -7.693389e+02
   6.705974e+02   5.028093e+01
   2.925882e+02   6.275156e+02
  -2.755518e+02   6.011941e+02
  -5.674326e+02   1.103599e+02
  -3.380606e+02  -3.919682e+02
  -2.001506e+00  -4.120605e+02
   2.549054e+02  -2.443846e+02
   2.063088e+02   2.370715e+01
  -1.529514e+02   2.796516e+01
  -4.382590e+02  -1.851662e+02
  -1.331709e+02  -4.581155e+02
   5.355428e+02  -4.761104e+02
   8.687490e+02   1.090441e+02
   3.376697e+02   5.844689e+02
  -4.042316e+02   4.416070e+02
  -8.023814e+02  -1.264955e+02
  -3.851138e+02  -4.565818e+02
   2.776477e+02  -5.481957e+02
   5.284169e+02  -2.197664e+02
   3.999269e+02   2.290704e+02
   7.879822e+01   4.679010e+02
  -1.810672e+02   3.386121e+02
  -1.399976e+02  -2.108111e+02
   2.001072e+02  -4.239738e+02
   3.920544e+02   3.451503e+01
   1.931036e+02   7.611118e+02
  -3.185665e+02   7.264792e+02
  -6.072755e+02  -2.209210e+01
  -2.861851e+02  -6.295861e+02
   2.940548e+02  -3.139982e+02
   3.620059e+02   3.414690e+02
  -5.147795e+01   5.802747e+02
  -5.477822e+02   1.620005e+02
  -6.052965e+02  -4.419230e+02
  -1.864754e+02  -6.260282e+02
   4.157997e+02  -3.739444e+02
   6.582684e+02   8.231356e+01
   3.654244e+02   4.079414e+02
  -1.364854e+02   3.753191e+02
  -4.087854e+02   2.419745e+01
  -2.202740e+02  -1.696683e+02
   1.298368e+02  -4.836933e+01
   1.338644e+02   2.039608e+02
  -2.307247e+02   1.986275e+02
  -3.829173e+02  -8.608705e+01
  -1.493485e+02  -2.989674e+02
   1.658628e+02  -2.257255e+02
   2.968145e+02  -7.811776e+01
   1.530007e+02   6.912051e+01
  -3.407448e+01   2.124144e+02
  -2.001802e+02   3.030579e+02
  -3.139215e+02   1.934468e+02
  -2.709155e+02  -1.600369e+02
  -1.265038e+01  -4.479380e+02
   1.189633e+02  -3.728986e+02
   6.946694e+01  -1.128369e+02
   2.427494e+01   1.123827e+01
   4.261771e+01  -9.555113e+01
   1.679493e+02  -1.238947e+02
   2.949389e+02   4.336054e+01
   1.724309e+02   2.213482e+02
  -5.040679e+01   2.107649e+02
  -2.247250e+02  -7.342642e+00
  -1.812228e+02  -2.462639e+02
   7.214442e+01  -2.573319e+02
   2.471945e+02  -1.209859e+02
   3.621866e+02   1.825961e+02
   1.563160e+02   3.385082e+02
  -1.290411e+02   3.030105e+02
  -1.586702e+02   1.474154e+02
  -7.959795e+01   1.957825e+01
  -1.198844e+02   1.268056e+01
  -2.545396e+02   7.918661e+01
  -4.113206e+02  -6.326478e+01
  -3.500406e+02  -3.024871e+02
   1.715421e+01  -4.111640e+02
   3.309743e+02  -4.114562e+02
   4.921078e+02  -1.946704e+02
   3.348217e+02   9.611871e+01
   2.253345e+01   2.887500e+02
  -1.397762e+02   2.305431e+02
  -9.213287e+01   4.337209e+00
   8.188600e+01  -8.394950e+01
   1.619996e+02  -1.857879e+01
   9.073233e+01   1.670945e+02
  -1.628564e+02   1.636745e+02
  -1.795100e+02  -6.704297e+01
   2.582242e+01  -1.747607e+02
   2.148705e+02  -3.079307e+01
   1.554701e+02   2.743465e+02
  -4.918968e+01   3.760993e+02
  -2.178573e+02   1.937442e+02
  -3.415659e+02  -1.175339e+02
  -2.890383e+02  -2.450174e+02
  -4.366964e+01  -2.992501e+02
   1.611013e+02  -2.132439e+02
   1.904765e+02   1.643367e+01
   6.800667e+01   7.575649e+01
  -7.464005e+01  -4.593970e+01
  -1.582229e+01  -1.232986e+02
   1.518048e+02  -8.643563e+01
   1.875572e+02  -2.372633e+01
   8.182096e+01   6.195028e+01
  -8.330162e+01   1.897388e+01
  -1.107143e+02  -9.443516e+01
   1.459945e+02  -1.037116e+02
   3.180244e+02   1.117167e+01
   2.756612e+02   1.466108e+02
   6.341578e+01   2.333016e+02
  -1.838422e+02   2.298271e+02
  -3.195106e+02   1.435475e+02
  -1.881527e+02  -5.846175e+01
   7.194252e+01  -1.092381e+02
   1.322926e+02   4.169611e+01
  -5.945485e+01   1.134893e+02
  -1.803030e+02   4.275273e+01
  -2.584558e+02  -7.464636e+01
  -1.336114e+02  -1.863373e+02
   5.734073e+01  -1.555717e+02
   1.165538e+02   1.841897e+01
   7.771985e+01   5.332445e+01
  -3.850361e+01  -8.262124e+00
  -3.372977e+01  -1.316408e+02
   6.910448e+01  -1.836340e+02
   1.797683e+02  -5.101588e+01
   1.932266e+02   1.230956e+02
   3.741674e+00   2.344736e+02
  -1.553134e+02   1.703586e+02
  -1.957533e+02  -3.921964e+00
  -8.773251e+01  -1.629173e+02
   8.187065e+01  -1.326484e+02
   1.344539e+02   9.880202e+00
   2.295632e+01   6.931319e+01
  -7.439712e+01   2.900265e+01
  -2.069554e+01   9.137774e+00
   7.068487e+01  -1.718493e+01
   9.397825e+01   6.469423e+01
   3.326711e+01   1.512367e+02
  -1.233001e+02   1.362244e+02
  -2.240313e+02  -8.312668e+00
  -1.847310e+02  -1.629812e+02
  -2.180547e+00  -2.920772e+02
   1.584040e+02  -1.715792e+02
   1.327152e+02  -7.001038e+00
   5.649331e+01   7.454959e+01
   5.347193e+01   1.117419e+01
   7.553641e+01  -2.743447e+01
   6.538371e+01  -3.805638e+00
   5.217833e+01   9.300675e+01
  -6.139630e+01   1.351350e+02
  -1.046341e+02   1.192683e+02
  -5.581352e+01  -4.163193e+01
   3.770905e+01  -9.368427e+01
   1.436254e+02  -3.226077e+01
   1.602838e+02   6.705939e+01
   5.786659e+01   1.958688e+02
  -1.057903e+02   2.517578e+02
  -2.666666e+02   1.283676e+02
  -2.259240e+02  -8.380147e+01
  -7.362317e+01  -1.786693e+02
   3.308265e+01  -1.432470e+02
   6.023426e+01  -9.539035e+01
   9.387753e+01  -5.922718e+01
   7.489859e+01  -1.273598e+02
   1.326759e+02  -7.085120e+01
   1.772427e+02   3.098670e+01
   1.097346e+02   1.476594e+02
  -2.622675e+00   2.033352e+02
  -1.390430e+02   1.605178e+02
  -1.345833e+02   1.586029e+01
  -9.599242e+01  -1.395766e+02
  -3.988647e+01  -1.327632e+02
   6.081056e+01  -1.149774e+02
   4.397395e+01   3.377598e+01
   9.653520e+00   3.357607e+01
  -9.832045e-01   3.952590e+01
   4.647507e+01   8.553210e+00
   7.275368e+01   3.067355e+01
   3.749201e+01   8.466328e+01
  -7.798614e+01   2.938205e+01
  -1.881538e+02  -2.060454e+01
  -1.441397e+02  -7.264250e+01
  -2.343618e+01  -9.257741e+01
   6.963265e+01  -6.275177e+01
   1.529763e+02  -5.667214e+01
   5.734122e+01   6.417544e+01
  -8.971557e+01   1.295472e+01
  -7.408880e+01  -9.159589e+00
   2.225888e+01  -8.540300e+01
   4.099628e+01  -3.000082e+01
   6.864905e+01  -3.149081e+00
   5.260787e+01   8.743081e+01
   2.554670e+01   7.928063e+01
   4.872055e+01  -3.413243e+01
   9.288694e+01  -2.918619e+01
   6.712795e+01   3.531301e+01
  -4.760697e+01   1.580013e+02
  -1.267254e+02   1.464805e+02
  -1.258390e+02   1.589401e+01
  -1.249961e+02  -6.194257e+01
  -1.170547e+01  -1.347411e+02
   7.922605e+01  -3.841036e+01
   8.401499e+01   1.572431e+00
  -5.350712e+01   4.511576e+01
  -1.053880e+02  -6.335315e+01
  -1.160140e+02  -1.398209e+02
   8.302353e+01  -8.741772e+01
   2.078330e+02  -4.996179e+01
   2.004059e+02   2.962266e+01
   4.182628e+01   8.222767e+01
  -9.452545e+01   6.940032e+01
  -9.239830e+01   4.569401e+01
   1.949386e+01  -5.204053e+01
   1.260612e+02  -1.838286e+01
   4.440778e+01   1.282845e+02
  -8.097930e+01   1.713507e+02
  -1.171567e+02   1.169924e+02
  -1.619334e+02  -3.822072e+01
  -1.930688e+01  -1.906561e+02
   7.415495e+01  -1.793461e+02
   1.241711e+02   3.367260e+01
   5.684911e+01   1.100407e+02
  -2.096365e+00   7.427603e+01
  -4.450495e+01   1.558887e+01
  -4.328651e+01  -4.627537e+01
   9.679078e+00   1.752631e+00
   3.331866e+01   2.065959e+01
   2.699557e+01  -7.872599e+00
   1.115170e+01  -6.805164e+01
  -1.971931e+01  -8.759169e+01
   4.197013e+01  -4.638397e+01
   1.525689e+02   6.404847e+01
   1.301837e+02   6.582684e+01
   5.880871e+00   4.531931e+01
  -1.051514e+02  -3.361538e+00
  -1.329595e+02  -1.980184e+00
  -8.946925e+00  -1.090054e+00
   3.483985e+01  -3.736914e+01
  -1.392815e+01  -1.236798e+01
  -6.805542e+01   2.248290e+01
  -2.957549e+01  -8.988037e-01
   6.822296e+01  -8.436793e+00
   1.340829e+02   8.437836e+01
  -2.989550e+01   8.620537e+01
  -1.372942e+02   8.945061e+01
  -1.684806e+02   6.767576e+01
  -1.307696e+02  -8.760061e+01
   8.673065e+00  -1.854603e+02
   6.858829e+01  -1.213146e+02
   1.118012e+02  -2.106265e+01
   8.813218e+01   6.226545e+01
   1.849531e+01   3.567106e+01
  -1.011259e+01  -1.276744e+01
   1.121002e+01  -1.774882e+01
   3.582120e+01   4.377126e+01
   4.139201e+01   7.034047e+01
   6.965910e+00   5.625958e+01
  -8.231690e+01  -4.348216e+01
  -9.968260e+01  -1.135934e+02
   3.645956e+01  -1.417948e+02
   5.591513e+01  -4.590895e+01
   1.469552e+02   7.610915e+01
   5.442297e+01   1.137610e+02
  -8.728578e+01   8.329966e+01
  -1.521470e+02  -2.990352e+01
  -4.441981e+01  -1.330963e+00
   4.986284e+00  -6.659956e+01
   2.780184e+01  -3.578309e+01
  -3.228557e+01  -8.439457e+00
  -8.229010e+01   1.157838e+01
   1.426676e+01  -4.388937e+01
   1.061774e+02  -6.244448e+01
   1.350553e+02  -2.709623e+01
   6.868284e+01  -1.092719e+01
  -3.033590e+01   8.111268e+01
  -5.101606e+01   9.364581e+01
   2.178958e+00   1.561515e+01
   2.773980e+01  -8.219515e+01
   7.016085e+01  -6.095612e+01
   3.345152e+01   5.294377e+01
  -6.375899e+00   1.213882e+02
  -1.522504e+01   2.790026e+01
  -1.678878e+01  -2.296143e+01
  -2.403273e+01  -5.037727e+01
   6.406533e+00   1.323642e+01
   1.414067e+01   2.787087e+01
  -1.107846e+01   1.987697e-01
   4.005606e+01  -5.894086e+01
   9.971134e-01  -3.720620e+01
   1.639680e+01  -2.046762e+01
   4.946947e+01   4.851641e+01
   1.677580e+01   6.122310e+01
  -3.039595e+01   5.334280e+00
  -2.962282e+01  -4.248162e+01
  -3.209658e+01  -1.987079e+01
   1.699231e+01  -7.728409e-01
   1.125300e+02  -1.081696e+01
   5.599429e+01   3.064184e+01
   1.079461e+01   7.403188e+01
  -7.899175e+01   1.373644e+01
  -4.398385e+01   7.132979e+00
   3.552501e+01  -3.089612e+00
   2.958541e+01   2.083092e+01
  -5.161716e+01   2.308441e+01
  -8.979934e+01   4.585131e+01
