
 $NMID
 id='ANONYMOUS ', fmtdat='(2E16.6)'
 volume=1.0
 tramp=1.0
 $END
   4.711761e+03   4.449139e+01
   2.542228e+03   2.619505e+03
  -7.487810e+02   2.774447e+03
  -2.070707e+03   7.642480e+02
  -9.642770e+02  -6.232089e+02
   7.202141e+02  -5.640370e+02
   8.440647e+02   4.641741e+02
  -5.770202e+01   1.093008e+03
  -8.758945e+02   7.749885e+02
  -1.044825e+03  -1.608304e+02
  -3.702441e+02  -9.108849e+02
   3.005612e+02  -8.278749e+02
   6.323359e+02  -8.795441e+01
   3.507906e+02   7.155973e+02
  -3.553723e+02   7.807441e+02
  -5.783318e+02  -4.241101e+00
  -2.479214e+02  -6.505489e+02
   3.551509e+02  -6.559464e+02
   5.764105e+02   3.631852e+00
   4.012110e+02   3.188154e+02
   9.626608e+01   4.485137e+02
  -2.267656e+02   3.100238e+02
  -1.849433e+02   6.675311e+01
   1.769391e+02  -7.519616e+01
   4.314857e+02   4.493230e+01
   1.933467e+02   4.402199e+02
  -5.058829e+02   3.659596e+02
  -8.458058e+02  -6.593991e+01
  -4.606398e+02  -5.763767e+02
   4.838073e+02  -5.448619e+02
   8.435878e+02   2.673546e+01
   3.567730e+02   6.314331e+02
  -3.585460e+02   5.040449e+02
  -6.152417e+02   1.726259e+02
  -4.503562e+02  -1.856018e+02
  -1.055752e+02  -4.682073e+02
   2.192280e+02  -2.694031e+02
   1.766059e+02   2.597699e+02
  -2.231262e+02   3.964421e+02
  -4.558282e+02  -1.671662e+01
  -2.364378e+02  -7.051669e+02
   3.282121e+02  -6.952814e+02
   6.289523e+02   2.270436e+01
   2.763929e+02   5.476917e+02
  -3.184349e+02   3.191250e+02
  -3.915108e+02  -3.428775e+02
   6.990240e+01  -5.645933e+02
   5.608567e+02  -1.499051e+02
   6.381334e+02   4.003278e+02
   1.494972e+02   6.131040e+02
  -3.951979e+02   3.319457e+02
  -6.161402e+02  -7.129704e+01
  -3.461463e+02  -3.849872e+02
   1.644287e+02  -3.969496e+02
   4.761578e+02  -3.272654e+01
   2.586692e+02   2.002544e+02
  -1.137136e+02   1.680896e+02
  -1.228951e+02  -1.300915e+02
   1.504179e+02  -1.348273e+02
   3.501745e+02   1.083807e+02
   1.065550e+02   3.187158e+02
  -2.500651e+02   2.488265e+02
  -3.527415e+02   3.051084e+01
  -2.311617e+02  -7.572497e+01
   2.693647e+01  -2.607346e+02
   2.621888e+02  -3.158722e+02
   4.202764e+02  -2.517851e+02
   2.884683e+02   1.236927e+02
   5.939696e+01   4.428914e+02
  -1.203492e+02   3.850454e+02
  -1.124411e+02   1.425981e+02
  -1.695509e+01   2.440189e+01
  -6.085203e+01   8.848699e+01
  -2.373280e+02   1.296451e+02
  -3.055404e+02  -5.623920e+01
  -1.498339e+02  -2.502688e+02
   1.089918e+02  -2.274368e+02
   2.211447e+02   1.111002e+01
   1.801511e+02   2.345962e+02
  -1.188095e+01   2.928989e+02
  -2.777799e+02   1.248268e+02
  -4.181157e+02  -1.873970e+02
  -2.408993e+02  -3.579738e+02
   7.839630e+01  -3.647754e+02
   3.102851e+02  -1.095541e+02
   2.054690e+02   4.921602e+01
   1.114575e+02  -3.425399e+01
   2.214183e+02  -9.077644e+01
   3.866799e+02   7.885786e+01
   3.598662e+02   2.776957e+02
   8.540066e+00   4.492938e+02
  -3.469575e+02   3.956144e+02
  -5.182325e+02   1.844664e+02
  -3.291337e+02  -5.603671e+01
  -6.815431e+01  -3.155613e+02
   1.188983e+02  -2.443769e+02
   8.986520e+01  -6.419390e+01
  -8.582968e+01   1.028184e+02
  -2.282298e+02  -1.158362e+01
  -5.817593e+01  -1.861679e+02
   1.987001e+02  -1.995402e+02
   2.203245e+02   5.461640e+01
   1.801050e+01   2.510357e+02
  -2.487382e+02   3.401996e+01
  -1.569452e+02  -2.666018e+02
   8.033787e+01  -3.848956e+02
   2.473843e+02  -1.830791e+02
   3.634330e+02   9.475332e+01
   2.806636e+02   2.466160e+02
   1.094121e+02   2.693354e+02
  -1.345325e+02   1.819312e+02
  -1.687420e+02   4.447873e+01
  -3.449076e+01  -7.254242e+00
   5.887783e+01   5.480990e+01
   2.279749e+01   1.314821e+02
  -1.137020e+02   7.814322e+01
  -2.028050e+02  -2.301388e+01
   2.891761e+00  -7.492762e+01
   1.262167e+02  -6.059881e+00
   5.419998e+01   1.006077e+02
  -1.675966e+02   7.359337e+01
  -3.048388e+02  -3.049867e+01
  -2.765797e+02  -1.465140e+02
  -3.633054e+01  -2.436267e+02
   2.021898e+02  -2.800754e+02
   3.039337e+02  -1.432863e+02
   1.784878e+02   7.356059e+01
  -1.120055e+01   1.164874e+02
  -9.230226e+01   6.525384e+00
   1.801831e+01  -8.872997e+01
   2.239768e+02  -6.952951e+01
   2.034872e+02   1.037178e+02
   5.627830e+01   2.253949e+02
  -1.155707e+02   1.664346e+02
  -1.570682e+02   5.602252e+01
  -9.083457e+01  -2.425052e+01
  -5.824834e+00  -1.698322e+01
   1.552479e+01   5.438374e+01
  -4.981880e+01   8.502019e+01
  -2.015386e+02   5.553460e+01
  -1.881009e+02  -9.696106e+01
   7.883216e+00  -2.266847e+02
   1.526835e+02  -1.602125e+02
   2.058861e+02  -1.498470e+01
   5.146794e+01   9.038691e+01
  -4.420086e+01   1.076523e+02
  -8.071214e+01   5.063755e+01
  -4.523552e+01  -9.095053e+00
   1.047342e+01  -5.104535e-01
  -6.915805e+00   2.866812e+01
  -6.756764e+01  -3.600868e+01
  -8.273253e+01  -1.093813e+02
   8.637145e+00  -1.666004e+02
   1.239302e+02  -1.662499e+02
   2.067463e+02  -7.298379e+00
   1.793223e+02   1.599244e+02
   2.116042e+01   2.067186e+02
  -8.040852e+01   1.272787e+02
  -1.061306e+02   3.186044e+01
  -4.847180e+01  -5.032226e+01
   6.210514e+00  -3.223804e+01
  -7.371985e+01   1.050053e+01
  -6.451268e+01   2.470171e+01
  -4.052455e+01  -3.059605e+01
   5.716708e+01  -6.653069e+01
   9.266442e+01  -4.994756e+01
   5.425077e+01   3.749952e+01
   1.065085e+01   8.922606e+01
  -1.706650e+02   7.496867e+01
  -1.975674e+02  -6.958261e+01
  -1.180808e+02  -2.030615e+02
   1.400318e+02  -2.288158e+02
   2.834618e+02  -1.317832e+02
   2.848477e+02   3.837974e+01
   9.682763e+01   1.901204e+02
  -3.424050e+01   1.272690e+02
  -1.386000e+02   9.144318e+01
  -7.190909e+01   7.353774e+01
  -8.740337e+01   3.966675e+01
  -9.938245e+01   8.534791e+01
  -1.042599e+02  -2.904204e+01
  -8.957947e+01  -1.531498e+02
  -5.146160e+01  -2.102274e+02
   1.235703e+02  -2.322060e+02
   1.464117e+02  -2.974458e+01
   1.254437e+02   1.400315e+02
   5.394275e+01   1.596547e+02
  -8.975135e+01   1.057346e+02
  -7.392305e+01   2.869149e+00
   1.369133e+01  -5.029563e+01
  -6.827199e+00  -2.556953e+01
  -5.598325e+01  -1.499426e+01
  -9.557589e+01  -1.202542e+01
  -2.975995e+01  -1.939623e+01
   5.429133e+01   8.869319e+00
   1.641892e+02   4.271751e+00
   1.472704e+02   2.747333e+01
   3.421557e+01   5.521553e+01
  -8.936675e+01   4.791031e+01
  -1.604323e+02  -1.217216e+01
  -3.179456e+01  -3.372325e+01
   8.519363e+01  -2.155078e+01
   6.240828e+01   6.622673e+01
  -2.942082e+01   7.345707e+01
  -7.875941e+01   2.439355e+01
  -4.765569e+01  -3.035258e+00
  -4.426785e+01  -5.265844e+01
  -4.875656e+01  -6.165227e+01
  -5.905691e+01  -2.494314e-01
  -2.063280e+01  -6.238655e+00
  -1.205579e+01  -5.812361e+01
   4.188057e+01  -1.255309e+02
   1.277991e+02  -1.345152e+02
   1.393550e+02  -5.362229e+01
   1.585129e+02   8.007116e+01
   3.727417e+01   1.403826e+02
  -1.029850e+02   3.822647e+01
  -8.038298e+01  -2.696175e+01
  -2.386339e+00  -6.119362e+00
   1.279200e+02   4.744368e+01
   1.163811e+02   1.070086e+02
  -5.626455e+01   6.038617e+01
  -1.937852e+02   4.929527e+01
  -1.905751e+02  -1.739063e+01
  -5.373693e+01  -7.220035e+01
   5.548928e+01  -1.666361e+01
   2.754971e+01  -4.285931e+01
  -1.635494e+01  -2.809608e+00
  -8.416771e+01  -2.070243e+01
  -7.686859e+01  -1.005490e+02
   1.285045e+02  -1.915274e+02
   1.661001e+02  -8.367958e+01
   1.138568e+02   8.491130e+01
  -1.239308e+01   1.792077e+02
  -1.389817e+02   1.629997e+02
  -1.033461e+02  -1.304385e+01
  -2.793339e+01  -1.081282e+02
   2.945529e+00  -1.053272e+02
   6.653428e+01  -1.586369e+01
   3.662079e+01   4.513643e+01
   4.245691e+01   5.608648e+01
   3.992411e+00   1.467388e+01
   3.248779e+01   4.224987e+01
   4.549906e+01   7.389400e+01
   3.529131e+01   1.390264e+02
  -5.024184e+01   3.397483e+01
  -1.539899e+02  -6.038814e+01
  -1.407049e+02  -5.380339e+01
   2.323769e+00  -3.255892e+01
   8.814599e+01  -5.269709e+01
   1.235062e+02  -1.800688e+01
  -1.810249e+01  -9.211824e+00
  -3.892157e+01  -1.116520e+00
   2.000096e+01   1.431922e+01
   4.810388e+01  -1.557237e+01
   3.950194e+01  -4.790943e+01
  -9.855544e+01   1.446797e+01
  -1.029005e+02  -2.561235e+01
   9.075900e+00  -4.050406e+01
   1.062514e+02  -7.264202e+01
   1.652035e+02  -5.976680e+01
   1.308659e+02   7.320824e+01
   7.881684e+00   1.829697e+02
  -9.208013e+01   1.584050e+02
  -1.056516e+02   9.282307e+01
  -1.019093e+02  -5.327267e+01
  -4.454650e+01  -3.180872e+01
  -6.068642e+01  -3.035531e+01
  -5.169584e+01  -1.247466e+01
  -2.433547e+01  -4.982842e+01
  -4.595984e+01  -9.895449e+01
   3.490488e+01  -9.829070e+01
   8.770219e+01  -1.523470e+01
   8.758277e+01   7.127790e+01
   2.972938e+01   1.425829e+02
  -3.600097e+01   2.571072e+01
  -8.535663e+01  -1.099958e+02
  -2.768024e+01  -1.320240e+02
   8.222698e+01  -6.390340e+01
   6.844299e+01   1.834181e+00
   4.059343e+01   4.553084e+01
   3.170881e+00   9.652707e+01
  -5.528440e+01   1.728710e+01
   8.068997e+01  -6.926980e+00
   9.293157e+01  -1.735031e+01
  -3.993471e+01   4.241242e+00
  -8.655566e+01   4.420261e+01
  -8.809682e+01   4.466681e+01
  -3.506909e+01   1.006966e+01
   5.756531e+01  -6.875739e+01
   5.215094e+01  -8.869158e+01
   4.983226e+01  -2.436321e+01
  -4.189636e+00   5.111894e+01
  -1.745617e+01   4.769290e+01
  -1.675592e+01  -1.767016e+01
  -3.083959e+01  -1.941522e-01
  -6.129862e+01   4.245591e+00
   6.334922e+01   1.629317e+01
   5.667890e+01   3.317259e+01
   3.120342e+01  -3.960711e+01
  -4.820206e+01   1.441296e+01
   1.025558e+01  -3.837496e+01
   1.062867e+01   2.167605e+01
  -3.702297e+01   6.050778e+01
  -1.587087e+01   1.562011e+01
  -3.816420e+01  -7.023723e+01
  -4.623437e+00  -5.781179e+01
   2.143261e+01  -1.994163e+01
   9.214122e+01   4.747991e+01
   1.331492e+01   6.648058e+01
  -9.039640e+01   1.085629e+01
  -1.120110e+02   1.829486e+01
  -5.890422e+01  -4.043097e+01
   1.978001e+01  -8.298948e+01
   7.495414e+01  -1.335133e+01
   5.547550e+01   4.531901e+00
  -4.863478e+01   4.040462e+01
  -2.946862e+01  -1.198685e+01
   6.561123e+01  -5.857705e+01
   1.206669e+02  -1.560563e+00
