
 $NMID
 id='ANONYMOUS ', fmtdat='(2E16.6)'
 volume=1.0
 tramp=1.0
 $END
  -3.949020e+03  -1.603157e+02
  -2.430294e+03  -2.232784e+03
   3.637014e+02  -2.427448e+03
   1.651786e+03  -9.935030e+02
   8.443305e+02   3.446136e+02
  -4.190704e+02   4.003238e+02
  -6.501710e+02  -3.366255e+02
  -2.950299e-02  -8.211698e+02
   7.099274e+02  -6.772816e+02
   9.300238e+02   7.285600e+01
   4.117501e+02   7.419889e+02
  -1.552900e+02   8.184157e+02
  -4.803453e+02   1.605921e+02
  -2.424289e+02  -5.657737e+02
   1.054905e+02  -6.351114e+02
   4.604836e+02  -4.746537e+01
   2.848474e+02   6.503860e+02
  -1.178938e+02   7.060792e+02
  -5.130601e+02   2.041913e+02
  -4.150075e+02  -3.005286e+02
  -1.480512e+02  -4.721934e+02
   2.604382e+02  -3.305635e+02
   1.862943e+02  -1.305179e+01
  -1.783571e+02   1.239151e+01
  -3.808071e+02  -2.035825e+02
  -1.314461e+02  -4.166721e+02
   4.027658e+02  -3.560331e+02
   7.387521e+02   9.670826e+01
   3.758475e+02   4.388081e+02
  -3.924210e+02   3.704309e+02
  -6.558585e+02  -6.638415e+01
  -3.174829e+02  -4.569235e+02
   2.562758e+02  -4.849011e+02
   5.674962e+02  -1.966778e+02
   3.319742e+02   2.125539e+02
   5.671740e+01   3.600875e+02
  -1.495720e+02   1.846335e+02
  -6.478093e+01  -2.291614e+02
   2.212043e+02  -3.532054e+02
   4.061670e+02   8.072000e+01
   1.242297e+02   6.601305e+02
  -3.241741e+02   5.991614e+02
  -5.199636e+02   4.122345e+00
  -2.584439e+02  -5.313767e+02
   2.373503e+02  -2.610541e+02
   3.057281e+02   3.178700e+02
  -1.012712e+02   4.991680e+02
  -4.965910e+02   7.802485e+01
  -5.313544e+02  -4.310992e+02
  -1.620000e+02  -5.660449e+02
   3.647918e+02  -3.337689e+02
   5.961251e+02   1.106043e+02
   3.360819e+02   3.660290e+02
  -1.497423e+02   3.157443e+02
  -4.064378e+02   5.769026e+01
  -2.131776e+02  -1.586064e+02
   9.437657e+01  -9.377065e+01
   1.040337e+02   1.517712e+02
  -1.738308e+02   1.043382e+02
  -3.039822e+02  -5.666291e+01
  -1.678293e+02  -2.353892e+02
   1.720881e+02  -2.199813e+02
   3.239676e+02  -1.228702e+02
   2.574652e+02   4.838126e+01
  -1.432270e+01   2.207002e+02
  -2.384908e+02   3.371664e+02
  -3.670347e+02   1.589278e+02
  -2.709544e+02  -2.055857e+02
  -2.278688e+01  -4.473898e+02
   1.210714e+02  -3.314878e+02
   1.036133e+02  -1.447317e+02
   5.478532e+01  -3.049266e+01
   7.606839e+01  -8.028687e+01
   2.189414e+02  -7.239993e+01
   2.282390e+02   6.764643e+01
   1.445277e+02   2.483632e+02
  -2.025926e+01   2.323933e+02
  -1.834868e+02  -3.764858e+00
  -1.937582e+02  -2.267583e+02
  -5.715967e+00  -3.052815e+02
   2.414379e+02  -1.076488e+02
   3.871635e+02   1.683147e+02
   1.879022e+02   3.375635e+02
  -9.301158e+01   2.911071e+02
  -1.942938e+02   1.223965e+02
  -1.075979e+02   2.543520e+01
  -1.097858e+02   6.194416e+01
  -2.826066e+02   8.561043e+01
  -3.954165e+02  -2.018245e+01
  -3.939716e+02  -2.823938e+02
  -4.507216e+00  -4.620493e+02
   3.451646e+02  -4.120705e+02
   4.521839e+02  -2.310122e+02
   3.252326e+02   1.081647e+02
   4.373094e+01   2.783999e+02
  -1.043757e+02   2.044992e+02
  -5.656417e+01   3.670067e+01
   1.406013e+02  -5.455710e+01
   1.871681e+02   2.885096e+01
   2.265671e+01   1.254120e+02
  -1.886574e+02   1.251136e+02
  -1.625298e+02  -6.885917e+01
   1.718136e+01  -1.427444e+02
   1.669321e+02  -3.559136e+01
   1.460032e+02   2.207508e+02
  -6.567006e+01   3.212795e+02
  -2.628648e+02   1.986962e+02
  -3.304139e+02  -5.019728e+01
  -2.750476e+02  -2.459902e+02
  -7.917161e+01  -2.502370e+02
   1.084687e+02  -1.280048e+02
   1.211880e+02  -4.829555e+00
   8.214707e+01   6.887880e+01
  -3.106186e+01  -6.080392e+01
  -4.484847e+01  -1.207087e+02
   1.189922e+02  -8.085624e+01
   2.292932e+02   2.843003e+01
   7.270771e+01   5.172031e+01
  -1.151842e+02   1.304407e+01
  -6.692399e+01  -9.446911e+01
   1.853504e+02  -8.918755e+01
   2.881552e+02   4.419922e+01
   2.849514e+02   1.485050e+02
   6.077098e+01   2.396817e+02
  -1.940561e+02   2.130671e+02
  -2.448684e+02   1.330619e+02
  -1.611481e+02  -3.648803e+01
  -1.555113e+00  -7.239072e+01
   8.875349e+01  -7.040765e+00
  -7.303511e+01   9.363842e+01
  -2.146452e+02   7.312895e+01
  -1.874013e+02  -9.876061e+01
  -8.947632e+01  -1.914672e+02
   7.053834e+01  -1.543261e+02
   9.289442e+01  -2.707499e+01
   8.200090e+00   2.048114e+01
  -4.922850e+01  -3.814863e+01
  -9.134761e+00  -1.061162e+02
   8.683750e+01  -1.382034e+02
   1.841219e+02  -1.148852e+01
   1.686036e+02   1.465239e+02
  -5.247950e+00   2.036223e+02
  -1.882311e+02   1.339143e+02
  -1.962432e+02  -2.073977e+01
  -3.264015e+01  -1.132634e+02
   8.023668e+01  -9.436735e+01
   7.863453e+01  -3.108056e+01
  -1.068737e+01   3.371793e+01
  -5.065315e+01   4.830343e+00
   3.965260e+01  -4.284640e+00
   1.395069e+02  -3.572839e+01
   7.701741e+01   1.017587e+02
   2.649367e+01   1.932319e+02
  -1.314841e+02   1.692888e+02
  -2.468608e+02   1.305289e+01
  -1.669098e+02  -1.139800e+02
  -4.796102e+01  -2.819162e+02
   9.254256e+01  -1.924817e+02
   1.878712e+02  -1.071288e+01
   8.218200e+01   4.400661e+01
   2.042688e+01   3.170000e+01
   9.094386e+01   2.760638e+00
   8.088154e+01   2.247858e+01
   3.497786e+01   6.031767e+01
  -2.765373e+01   8.504578e+01
  -1.266902e+02   6.554417e+01
  -1.115074e+02   2.133759e+01
   3.521435e+00  -1.134473e+02
   1.535031e+02  -8.969709e+01
   1.914194e+02   3.027328e+01
   7.075089e+01   2.247881e+02
  -8.430330e+01   2.293051e+02
  -2.742647e+02   1.065976e+02
  -2.983467e+02  -6.446889e+01
  -9.173188e+01  -2.162623e+02
   1.107033e+01  -1.610126e+02
   7.947311e+01  -9.811663e+01
   7.309326e+01  -5.820832e+01
   1.106701e+02  -6.474797e+01
   1.143226e+02  -3.798704e+01
   1.153047e+02   2.533150e+00
   1.160636e+02   1.491736e+02
   2.740420e+01   2.364338e+02
  -6.250531e+01   1.511182e+02
  -1.826168e+02   1.280993e+01
  -1.457114e+02  -1.509517e+02
  -4.749582e+01  -1.490915e+02
   3.883025e+01  -9.001794e+01
   4.261787e+01   4.157002e+01
   7.050179e+00   1.245925e+01
  -2.735135e+00   3.998031e-01
   3.038170e+01  -2.039562e+01
   5.420429e+01   5.495813e+01
   3.576394e+01   5.970489e+01
  -1.025917e+02   7.970056e+01
  -1.949604e+02   6.924992e+00
  -1.069311e+02  -9.160257e+01
  -1.742369e+01  -1.136472e+02
   1.199196e+02  -9.180973e+01
   1.394310e+02  -3.178807e+01
   4.098897e+01   7.364459e+01
  -2.975269e+01   4.563750e+01
  -1.276604e+02  -4.225321e+00
  -4.018033e-01  -7.624625e+01
   7.958540e+01  -5.649605e+01
   5.596891e+01  -2.652396e+01
   1.068327e+02   7.852940e+01
   5.115824e+01   6.255626e+01
   2.071555e+01   1.653423e+01
   4.146399e+01  -3.796166e+01
   5.485957e+00   1.027151e+02
  -3.341694e+01   1.242075e+02
  -9.518078e+01   1.384625e+02
  -1.487047e+02   9.444956e+00
  -9.972095e+01  -1.143538e+02
   3.323212e+01  -1.141239e+02
   1.017070e+02  -1.542095e+01
   8.069595e+01   2.097215e+01
  -7.229031e+01   4.812945e+01
  -1.360366e+02  -6.896512e+01
  -9.586732e+01  -1.179339e+02
   8.514175e+01  -1.098586e+02
   2.055915e+02  -3.011565e+01
   1.999385e+02   1.287898e+01
  -1.177542e+01   8.560209e+01
  -8.577114e+01   6.131373e+01
  -2.837886e+01  -1.374314e-01
   1.904565e+01   2.218910e+01
   6.753031e+01   2.906370e+01
  -6.791181e+00   1.125614e+02
  -9.205042e+01   1.379016e+02
  -1.313937e+02   2.176450e+01
  -1.151831e+02  -8.710047e+01
   4.517025e+00  -1.735721e+02
   6.555569e+01  -1.613712e+02
   9.076725e+01  -4.458532e+01
   2.822420e+01   1.417672e+02
   1.494065e+01   1.293019e+02
  -2.795241e+01   1.497890e+01
  -5.834123e+01  -2.994373e+01
   3.594935e+00   6.884153e+00
   2.659744e+00  -4.648825e+01
  -1.507335e+01  -5.595562e+01
  -2.055622e+01  -6.405144e+01
  -2.619309e+01  -1.284364e+02
   4.648306e+01  -8.829173e+01
   1.804498e+02   3.915190e+01
   1.133767e+02   8.074101e+01
   6.194839e+01   7.954268e+01
  -3.001993e+01   7.382382e+01
  -9.337952e+01   2.892741e+01
  -3.201695e+01   7.045829e-01
   6.840215e+01  -1.971730e+01
   1.302768e+01  -2.975168e+01
   1.179058e+00   3.286994e+01
   1.017565e+01   5.278540e+00
   8.094834e+01   1.832383e+01
   1.085372e+02   1.046576e+01
   2.676315e+01   4.467005e+01
  -1.074728e+02   1.262722e+02
  -2.061983e+02   2.263557e+01
  -1.825208e+02  -1.032546e+02
  -5.408027e+01  -1.681192e+02
   7.747217e+01  -1.683818e+02
   1.305883e+02  -1.350992e+01
   7.672796e+01   3.052800e+01
   2.270055e+01   1.693272e+01
  -1.991511e+01  -3.908526e+00
  -5.160987e+00   7.364486e+00
   2.853212e+01   9.497815e+01
   3.175476e+01   1.104565e+02
  -1.236218e+01   7.464542e+01
  -8.978903e+01   3.677042e+00
  -9.264003e+01  -9.740724e+01
  -1.349639e+01  -8.445638e+01
   7.421177e+01  -5.353029e+00
   6.232158e+01   5.841883e+01
  -1.384329e+01   5.173269e+01
  -8.470389e+01   3.585940e+01
  -8.826739e+01  -1.398904e+01
   7.435812e+00  -6.314823e+01
   4.534470e+01  -2.683798e+01
   2.276832e+01  -1.483145e+01
  -6.758513e+01   1.129154e+01
  -6.163787e+01  -7.941323e+00
  -2.403460e+01  -3.886922e+01
   5.293365e+01  -7.096628e+01
   7.544389e+01  -8.155661e+01
   3.271911e+01  -1.477760e+01
   1.084848e+01   6.030697e+01
  -4.759033e+01   6.449423e+01
  -4.089119e+01  -3.495509e+01
   4.288442e+00  -7.625884e+01
   3.264436e+01  -3.104261e+01
   7.609348e+01   4.736738e+01
   5.041863e+01   7.049468e+01
  -2.058522e+01   5.008460e+01
  -5.176123e+01   1.700174e+01
  -6.674627e+01  -3.950291e+01
  -2.118989e+01   8.238703e-01
   1.679589e+01  -4.798705e+01
   3.337355e+01  -3.466040e+01
  -2.343842e+01  -2.709584e+00
  -8.218340e+00  -4.578029e+00
   2.030174e+01   3.306532e+00
   5.599076e+01   2.121789e+01
   3.171852e+00   4.462121e+01
  -6.975272e+00  -3.101513e+01
  -7.040651e+01  -4.724497e+01
  -2.251329e+01  -7.123084e+01
   7.142503e+01  -1.663486e+01
   9.297717e+01   2.658993e+01
   5.027425e+01   5.585553e+01
  -4.135218e+01   6.166735e+01
  -2.747216e+01   2.786691e+01
   1.700992e+01   2.827870e+01
   5.778939e+01  -2.288590e+01
  -2.492823e+01   3.276732e+01
  -8.882752e+01   2.153892e+01
  -7.248709e+01   2.493126e+01
