
 $NMID
 id='ANONYMOUS ', fmtdat='(2E16.6)'
 volume=1.0
 tramp=1.0
 $END
  -4.474904e+03   2.998637e+01
  -2.577593e+03  -2.747571e+03
   8.122968e+02  -2.696155e+03
   2.070159e+03  -7.169671e+02
   8.154337e+02   6.994441e+02
  -6.871576e+02   4.243522e+02
  -8.539771e+02  -4.992380e+02
   1.040363e+02  -1.089070e+03
   8.482751e+02  -7.955257e+02
   9.200106e+02   8.191628e+01
   4.421803e+02   9.074997e+02
  -2.643184e+02   8.357570e+02
  -6.228080e+02   2.114048e+01
  -3.404684e+02  -8.050971e+02
   3.079921e+02  -7.028239e+02
   6.579865e+02  -3.571784e+00
   3.113242e+02   6.550701e+02
  -3.737002e+02   6.272050e+02
  -5.623118e+02   1.831173e+02
  -3.576713e+02  -3.555811e+02
  -8.768088e+00  -4.603828e+02
   2.351847e+02  -2.603577e+02
   2.318070e+02   6.797814e+01
  -1.118715e+02   1.616021e+02
  -5.152237e+02  -1.117441e+02
  -1.990072e+02  -5.217536e+02
   4.896823e+02  -4.448429e+02
   8.690091e+02   9.390216e+01
   3.740659e+02   5.370143e+02
  -4.169409e+02   5.417704e+02
  -7.132373e+02  -1.055634e+02
  -3.640752e+02  -5.167395e+02
   2.617093e+02  -5.134296e+02
   5.860735e+02  -1.193743e+02
   4.228506e+02   2.375546e+02
   5.544403e+01   5.439571e+02
  -2.813291e+02   3.136684e+02
  -2.096464e+02  -3.200416e+02
   1.877939e+02  -4.880102e+02
   4.682971e+02   5.641145e+01
   2.308397e+02   7.173454e+02
  -3.537705e+02   7.035274e+02
  -6.222798e+02  -4.686846e+01
  -2.522898e+02  -5.921977e+02
   3.320251e+02  -3.012335e+02
   3.846692e+02   3.346791e+02
  -9.448009e+01   5.472871e+02
  -5.900956e+02   1.609166e+02
  -6.415227e+02  -4.377325e+02
  -2.048608e+02  -6.507425e+02
   3.909469e+02  -4.057304e+02
   6.758382e+02   2.194583e+01
   4.123302e+02   4.076145e+02
  -1.620596e+02   4.033067e+02
  -4.672345e+02   6.852551e+01
  -2.393530e+02  -1.963748e+02
   8.205929e+01  -1.015475e+02
   7.176900e+01   1.378572e+02
  -2.162772e+02   1.705312e+02
  -3.419796e+02  -1.278869e+02
  -1.520239e+02  -3.279857e+02
   2.244097e+02  -2.954828e+02
   3.312586e+02  -9.689806e+01
   2.385977e+02   9.088930e+01
  -1.347446e+01   2.158669e+02
  -2.392645e+02   3.584030e+02
  -3.915955e+02   2.511332e+02
  -3.708739e+02  -1.563666e+02
  -1.214240e+02  -4.803052e+02
   1.805656e+02  -4.151813e+02
   1.249884e+02  -1.065047e+02
   3.829823e+01   8.600909e+00
   4.494983e+01  -1.160240e+02
   2.351807e+02  -1.550701e+02
   2.953201e+02   6.880422e+01
   1.703540e+02   2.854718e+02
  -4.106934e+01   2.525381e+02
  -2.282874e+02   2.722519e+01
  -2.024457e+02  -2.180308e+02
   2.311325e+01  -2.890189e+02
   3.177110e+02  -1.333524e+02
   3.555852e+02   2.019085e+02
   1.642048e+02   4.235445e+02
  -1.117657e+02   2.824584e+02
  -2.141696e+02   1.310033e+02
  -1.490551e+02  -2.900631e+01
  -1.093667e+02   3.006455e+00
  -2.191852e+02   5.698334e+01
  -3.785167e+02  -5.244620e+01
  -3.322901e+02  -3.114618e+02
  -1.519867e+01  -4.789320e+02
   3.520974e+02  -4.158785e+02
   5.410685e+02  -2.188841e+02
   3.986300e+02   8.593032e+01
   1.358370e+02   2.970855e+02
  -1.071839e+02   2.037001e+02
  -7.413422e+01   5.215969e+01
   9.555393e+01  -8.794102e+01
   2.042351e+02   5.186599e+00
   2.973251e+01   2.153209e+02
  -1.232379e+02   1.562291e+02
  -1.641085e+02  -1.003450e+02
   3.002889e+01  -1.662256e+02
   2.095295e+02  -3.712741e+01
   1.346213e+02   1.929973e+02
  -4.893838e+01   3.384103e+02
  -2.832483e+02   1.705736e+02
  -2.942262e+02  -1.014787e+02
  -2.469387e+02  -2.409428e+02
  -7.937762e+01  -2.779357e+02
   1.172583e+02  -1.766113e+02
   2.178281e+02  -6.947810e+00
   1.050180e+02   3.922745e+01
  -6.764536e+01  -3.712473e+01
  -3.770222e+01  -9.954532e+01
   1.410604e+02  -7.747770e+01
   1.641406e+02   2.778713e+01
   5.741079e+01   5.568684e+01
  -3.572543e+01  -6.566117e+00
  -5.569639e+01  -3.141572e+01
   1.029247e+02  -5.553325e+01
   2.890623e+02   4.364830e+01
   2.674286e+02   1.592580e+02
   7.167845e+01   2.769548e+02
  -1.613170e+02   2.505727e+02
  -3.350853e+02   1.321744e+02
  -1.865152e+02  -9.636749e+01
   4.930420e+01  -7.928089e+01
   8.866471e+01   3.011577e-01
  -5.245729e+01   8.110852e+01
  -1.372896e+02   4.661699e+01
  -1.768207e+02  -6.937631e+01
  -5.498352e+01  -2.116950e+02
   1.382621e+02  -1.283118e+02
   1.595625e+02   2.287072e+01
   5.929840e+01   7.061927e+01
  -2.945879e+01   2.622791e+00
  -6.714596e+01  -8.891970e+01
   9.264854e+01  -1.296976e+02
   2.372942e+02  -2.730570e+01
   1.794787e+02   1.364469e+02
  -2.207517e+00   2.389240e+02
  -1.995984e+02   1.757099e+02
  -1.910923e+02   2.620456e+01
  -7.997897e+01  -1.362871e+02
   3.687374e+01  -1.562419e+02
   1.113056e+02  -1.732561e+01
   2.167374e+01   4.403487e+01
  -5.794034e+01   5.026388e+01
  -1.597709e+01  -2.270234e+01
   5.947811e+01   1.553474e+01
   9.469212e+01   9.563406e+01
  -4.419532e+00   1.655401e+02
  -1.467170e+02   1.404317e+02
  -2.429275e+02   2.429462e+01
  -1.994027e+02  -1.687420e+02
  -3.293639e+01  -2.001488e+02
   9.545441e+01  -1.338180e+02
   1.300716e+02  -3.124871e+01
   4.425574e+01   7.525003e+01
   4.878293e+00   4.903412e+01
   3.776657e+01  -2.284805e+01
   5.999878e+01   2.504883e+01
   2.697513e+01   2.271793e+01
  -4.413978e+01   7.868017e+01
  -7.248664e+01   1.009302e+02
  -1.035097e+02   2.561787e+00
  -1.511049e+01  -1.062927e+02
   1.179167e+02  -7.817856e+01
   1.414000e+02   6.345646e+01
   1.504125e+02   2.222412e+02
  -5.878027e+01   2.655534e+02
  -3.033482e+02   1.042336e+02
  -3.071103e+02  -6.449847e+01
  -1.428150e+02  -1.741218e+02
   2.223776e+01  -1.756500e+02
   1.432144e+02  -1.167934e+02
   7.087604e+01  -3.202178e+01
   7.346931e+01  -7.397331e+01
   1.055618e+02  -8.261610e+01
   1.127300e+02  -1.755423e+01
   1.047835e+02   1.518327e+02
   6.023630e+00   2.454808e+02
  -9.500299e+01   1.724202e+02
  -1.398745e+02   2.080195e+01
  -1.206562e+02  -1.084572e+02
  -1.951288e+01  -1.688910e+02
   5.765443e+01  -1.192183e+02
   9.110586e+01  -2.807900e+00
  -5.060277e+01   8.833630e+01
  -3.090757e+01   1.950878e+01
  -3.670524e+01  -1.281733e+01
   4.514779e+01   2.627312e+01
   4.561437e-01   8.840018e+00
  -2.581996e+01   2.863944e+01
  -1.301673e+02   3.075915e+01
  -1.271874e+02  -4.192945e+01
  -6.310945e+01  -1.361805e+02
   1.465686e+02  -8.764199e+01
   1.360024e+02  -3.264671e+01
   6.593425e+01   3.471414e+01
  -4.764242e+01  -7.529208e+00
  -8.599815e+01   1.762620e+00
   1.929656e+01  -6.406139e+01
   1.070275e+02  -5.047011e+01
   5.947529e+01  -1.362163e+01
   5.568371e+01   7.738139e+01
   6.018214e+01   2.993352e+01
   4.644188e+01   3.850125e+01
   7.362629e+01  -1.053765e+01
   1.433355e+01   5.814978e+01
  -5.472714e+01   8.728681e+01
  -1.029583e+02   1.457087e+02
  -1.744691e+02  -9.430733e+00
  -1.317925e+02  -1.180012e+02
  -4.732497e-02  -1.380002e+02
   7.573150e+01  -4.329449e+01
   5.750562e+01   3.173270e+01
  -7.782870e+01   5.285560e+00
  -1.059692e+02  -2.469826e+01
  -6.704177e+01  -6.778989e+01
   7.480683e+01  -1.164473e+02
   1.708531e+02  -4.294718e+01
   1.724428e+02   3.603988e+01
   4.125687e+01   9.923224e+01
  -1.638108e+01   6.040378e+01
   1.395742e+01   1.608156e+01
   2.833627e+01  -1.367930e+01
   6.594166e+01   5.159335e+01
   2.588053e+01   1.074952e+02
  -1.053112e+02   1.881450e+02
  -1.399840e+02   6.593979e+01
  -1.455428e+02  -1.123263e+02
  -2.142779e+01  -1.966223e+02
   4.482636e+01  -1.239444e+02
   6.166471e+01   2.651554e+01
   5.122440e+01   1.311661e+02
   8.651473e+00   1.127281e+02
  -4.413546e+01   4.618577e+01
  -5.044252e+01  -3.418277e+01
  -1.428797e+01  -2.452353e+01
   4.232872e+00   1.560548e+01
  -7.232464e+01  -3.520629e+01
  -7.864223e+01  -1.128216e+02
  -5.617376e+01  -1.031708e+02
   8.706357e+01  -7.175267e+00
   1.825736e+02   3.146125e+01
   1.631007e+02   4.953451e+01
  -3.097559e+00   3.979375e+01
  -9.597802e+01  -5.433600e+00
  -6.107038e+01  -3.908775e+00
   1.801660e+01  -7.662653e+00
   4.895768e+01   9.199760e-01
   5.461831e+01   1.277108e+00
  -3.754753e+01  -5.439919e+00
  -1.694478e+01  -1.222103e-01
   6.910378e+01   1.927244e+01
   6.529469e+01   2.914102e+01
  -1.035647e+01   3.906397e+01
  -1.192088e+02   1.356032e+02
  -1.975246e+02   6.260450e+01
  -1.632189e+02  -3.776828e+01
  -3.067794e+01  -1.313173e+02
   2.745290e+01  -1.368054e+02
   1.141665e+02  -7.047365e+01
   9.620335e+01   2.424708e+01
   4.671449e+01   1.956524e+01
   4.356792e+00   1.266529e+01
  -1.951590e+01   1.581367e+01
   4.323073e+01   8.846302e+01
  -7.376733e+00   1.213499e+02
  -7.089205e+01   8.154265e+01
  -8.815897e+01  -2.730031e+01
  -5.260140e+01  -1.074331e+02
  -2.487954e+01  -1.007078e+02
   7.108485e+01  -3.405176e+01
   1.348703e+02   6.489600e+01
   5.392856e+01   1.111386e+02
  -8.392397e+01   5.254484e+01
  -9.647974e+01  -3.324670e+01
  -4.719928e+01  -4.804810e+01
   4.103676e+01  -4.841428e+01
   5.571421e+01  -1.682886e+01
  -7.908847e+01  -3.886417e+00
  -7.669438e+01  -1.050380e+01
  -1.335117e+01  -8.929424e+00
   6.963794e+01  -6.459049e+01
   1.084331e+02  -4.789823e+01
   5.178700e+01   5.050848e+01
  -2.378635e+01   9.588714e+01
  -6.838162e+01   1.048049e+02
  -3.863817e+00  -1.240539e+01
  -1.740679e+01  -6.460872e+01
   3.901800e+01   1.973117e+00
  -2.399289e+01  -1.184137e+00
   1.061247e+01   1.095710e+01
   9.363951e+00  -3.108572e+00
  -1.983193e+01  -1.373883e+01
  -2.011302e+01  -3.854436e+01
   6.829689e+00   3.135471e+01
  -5.383118e+00   4.364988e+01
   2.374769e+01  -1.975543e+00
   4.533551e+01  -7.032727e+01
   6.498856e+00  -6.662435e+01
   3.475688e+01  -5.808412e+00
   2.784422e+01   8.145881e+01
  -1.484007e+01   6.221764e+01
  -5.360715e+01  -6.648972e+00
  -2.416058e+01  -4.851185e+01
  -2.186554e+01  -5.771301e+01
   4.165135e+01  -1.180146e+00
   5.845997e+01   4.314890e+01
   2.209428e+01   6.319679e+01
  -2.622911e+01   5.319130e+01
  -5.555620e+01  -1.308718e+01
  -3.063197e+00  -5.772556e+00
   5.445375e+01   1.730324e+01
   3.413323e+01   3.065035e+01
  -6.214178e+01   7.652311e+01
  -1.710495e+02   1.957165e+01
