
 $NMID
 id='ANONYMOUS ', fmtdat='(2E16.6)'
 volume=1.0
 tramp=1.0
 $END
   4.616358e+03   1.338270e+01
   2.750253e+03   2.820500e+03
  -8.703599e+02   2.924011e+03
  -2.263363e+03   8.775460e+02
  -1.068136e+03  -8.547130e+02
   7.924538e+02  -7.478215e+02
   1.075294e+03   5.311122e+02
   7.615688e+01   1.126614e+03
  -8.847312e+02   9.614480e+02
  -1.013621e+03  -1.685943e+02
  -4.772364e+02  -9.984450e+02
   3.304734e+02  -9.703139e+02
   7.193844e+02  -1.377317e+02
   4.570140e+02   8.282303e+02
  -1.978315e+02   8.130078e+02
  -6.441012e+02  -3.637285e+01
  -3.098008e+02  -7.615908e+02
   3.159307e+02  -6.626412e+02
   5.676083e+02  -7.724652e+01
   3.808709e+02   3.819673e+02
  -8.001900e+01   4.718062e+02
  -2.929769e+02   3.162416e+02
  -2.577202e+02  -2.637542e+01
   1.654598e+02  -7.123467e+01
   5.825911e+02   7.605995e+01
   2.920288e+02   4.383140e+02
  -4.589349e+02   4.881818e+02
  -9.891302e+02  -3.029316e+01
  -4.251324e+02  -6.403357e+02
   3.907830e+02  -5.940313e+02
   7.937063e+02  -1.067103e+01
   4.212732e+02   5.262693e+02
  -2.564290e+02   5.420967e+02
  -6.149784e+02   2.559043e+02
  -5.326767e+02  -2.090448e+02
  -5.713526e+00  -4.747028e+02
   1.826166e+02  -3.247462e+02
   2.471080e+02   2.722642e+02
  -1.513343e+02   4.946129e+02
  -4.822873e+02  -4.859852e+01
  -3.122641e+02  -7.484143e+02
   3.532051e+02  -7.617272e+02
   7.513033e+02   2.142639e+01
   3.136599e+02   6.504958e+02
  -3.230773e+02   3.718642e+02
  -4.690181e+02  -3.901499e+02
   8.501443e+01  -5.534589e+02
   6.296330e+02  -1.158704e+02
   6.676865e+02   4.446618e+02
   1.357413e+02   6.071704e+02
  -4.178006e+02   3.891049e+02
  -7.005471e+02  -9.868729e+01
  -3.880191e+02  -4.526293e+02
   1.747223e+02  -4.326635e+02
   5.205750e+02  -6.991233e+01
   2.661815e+02   2.428356e+02
  -1.356670e+02   1.194707e+02
  -1.374727e+02  -1.308033e+02
   1.998346e+02  -1.939498e+02
   3.855159e+02   1.059602e+02
   1.382544e+02   3.082177e+02
  -1.980781e+02   2.791194e+02
  -3.405883e+02   6.730096e+01
  -2.019001e+02  -7.553381e+01
  -2.515347e+01  -1.884275e+02
   1.931163e+02  -3.897877e+02
   3.753091e+02  -2.505856e+02
   3.689971e+02   1.622277e+02
   7.901968e+01   4.880731e+02
  -1.746229e+02   4.059970e+02
  -1.758044e+02   1.172766e+02
   2.828664e+01  -2.405235e+01
   2.423858e+01   1.180910e+02
  -2.292015e+02   1.143984e+02
  -3.113758e+02  -6.580289e+01
  -1.715493e+02  -3.287862e+02
   4.716407e+01  -3.161561e+02
   2.166965e+02  -2.123413e+01
   1.936828e+02   2.688574e+02
  -3.629548e+01   2.723929e+02
  -3.006451e+02   7.070093e+01
  -4.059332e+02  -2.153009e+02
  -1.616554e+02  -4.058030e+02
   1.469489e+02  -3.053167e+02
   2.967584e+02  -7.720314e+01
   1.848396e+02   1.571620e+01
   7.317062e+01  -3.672191e+01
   2.694160e+02  -5.859522e+01
   4.640206e+02   7.329894e+01
   3.722022e+02   2.457841e+02
  -1.615023e+01   4.475805e+02
  -3.840511e+02   4.405622e+02
  -5.254550e+02   2.272139e+02
  -3.900800e+02  -6.370077e+01
  -8.865591e+01  -2.780042e+02
   9.362891e+01  -2.701205e+02
   9.042130e+01  -5.928347e+01
  -1.383067e+02   9.883524e+01
  -2.474252e+02  -3.883740e+01
  -3.243095e+01  -2.328913e+02
   1.919959e+02  -1.775782e+02
   2.144314e+02   5.574850e+01
   7.795275e+00   2.139297e+02
  -2.557465e+02   2.729804e+01
  -2.070990e+02  -2.514351e+02
   2.192545e+01  -3.616817e+02
   2.009587e+02  -1.924045e+02
   3.280605e+02   6.112105e+01
   3.290690e+02   2.232620e+02
   1.362070e+02   2.749254e+02
  -1.252641e+02   1.841437e+02
  -1.614179e+02   6.226848e+00
  -7.005473e+01  -1.836135e+01
   9.833799e+01   4.419833e+01
   4.021741e+00   1.393910e+02
  -1.262033e+02   1.105108e+02
  -2.118514e+02  -1.712262e+01
  -9.422067e+01  -4.944796e+01
   5.313916e+01  -1.000332e+01
   6.419504e+01   6.149462e+01
  -1.246083e+02   4.560742e+01
  -2.773990e+02   2.865438e+01
  -2.589604e+02  -7.465271e+01
  -4.393049e+01  -2.316990e+02
   1.837796e+02  -3.148435e+02
   2.740082e+02  -1.761673e+02
   1.424942e+02   6.636240e+00
  -9.521268e+00   1.609414e+02
  -1.124511e+02   2.474693e+01
   2.118792e+01  -1.315098e+02
   1.869385e+02  -7.661042e+01
   2.015366e+02   1.307427e+02
   7.958842e+01   2.385001e+02
  -1.027942e+02   1.685539e+02
  -1.396066e+02   2.148077e+01
  -9.054812e+01  -5.328359e+01
   1.601280e+01  -2.855252e+01
   6.582255e+01   6.295995e+01
  -2.290987e+01   9.578425e+01
  -2.168381e+02   6.473313e+01
  -2.015924e+02  -8.390537e+01
  -3.784130e+01  -2.029896e+02
   1.316833e+02  -1.936276e+02
   1.895717e+02  -3.499895e+01
   8.742070e+01   1.030867e+02
  -5.719931e+01   1.325159e+02
  -3.238965e+01  -6.453207e+00
   1.395649e+01  -4.932502e+01
   1.962916e+01  -3.505742e+01
   2.431765e+01   4.872354e+01
  -3.986822e+01  -2.583911e+01
  -7.015536e+01  -9.392460e+01
  -5.220434e+01  -1.835792e+02
   9.846965e+01  -2.006835e+02
   2.129583e+02  -9.467382e+01
   2.228978e+02   1.675394e+02
   5.501536e+01   2.383956e+02
  -1.027959e+02   1.966707e+02
  -1.699283e+02   5.695654e+01
  -1.125928e+02  -6.437996e+01
  -2.549397e+01  -5.088930e+01
  -6.539083e+01   6.558248e+01
  -8.263375e+01   8.736089e+00
  -3.571834e+01  -5.111469e+01
   3.761200e+01  -6.440098e+01
   1.396394e+02  -4.294212e+01
   1.098083e+02   1.728377e+01
   6.715217e+00   1.424279e+02
  -1.312348e+02   8.201783e+01
  -2.090815e+02  -6.624410e+01
  -1.267914e+02  -2.047396e+02
   1.067736e+02  -2.088861e+02
   2.914912e+02  -1.050790e+02
   2.761309e+02   4.576493e+01
   1.393795e+02   1.574504e+02
  -3.811561e+01   1.304362e+02
  -1.249862e+02   6.425489e+01
  -6.216879e+01   8.695843e+01
  -3.879367e+01   8.251438e+01
  -8.271326e+01   8.439091e+01
  -1.162919e+02  -5.458221e+00
  -1.386736e+02  -1.572493e+02
  -4.620794e+01  -2.104816e+02
   9.065094e+01  -2.258186e+02
   1.881843e+02  -6.503480e+01
   1.638502e+02   7.771970e+01
   5.973010e+01   1.634693e+02
  -7.290376e+01   8.624600e+01
  -5.282112e+01  -1.582431e+00
  -1.218110e+00  -4.386491e+01
   1.334504e+01  -3.987868e+01
  -5.636531e+01  -7.883847e+00
  -8.057327e+01   4.094337e+00
  -5.327891e+01  -7.809048e+01
   8.577792e+01  -5.082475e+01
   1.778111e+02  -1.796065e+01
   1.497535e+02   7.104884e+01
  -4.786644e+00   5.790040e+01
  -1.105782e+02   8.278754e+01
  -1.582710e+02   3.213055e+01
  -5.888281e+01  -6.936439e+01
   9.145225e+01  -9.139274e+01
   7.073175e+01  -7.914984e+00
   4.173896e+00   6.983041e+01
  -3.554816e+01   8.830161e+01
  -4.596820e+01  -3.476539e+01
  -3.228623e+01  -4.963111e+01
  -4.290186e+01  -4.168368e+01
  -4.390627e+01   6.122511e+01
  -8.350320e+01   5.174502e+01
  -1.412721e+01  -8.896842e+01
   2.693498e+00  -1.433234e+02
   1.256975e+02  -1.513227e+02
   1.449366e+02  -4.138740e+00
   1.069326e+02   1.170441e+02
   3.199971e+01   8.958220e+01
  -1.081473e+02   3.193455e+01
  -5.803417e+01  -6.640668e+00
   5.762922e+01  -1.899546e+01
   1.688438e+02  -1.639010e+00
   1.100422e+02   1.215057e+02
  -4.641564e+01   8.593167e+01
  -2.031949e+02   5.379191e+01
  -1.403049e+02  -3.881556e+00
  -1.068177e+01  -9.321488e+01
   6.387110e+01  -1.008914e+02
   6.445463e+01  -1.590005e+01
   4.055638e+01   4.649832e+01
  -1.001863e+02  -1.591374e+01
  -3.046048e+01  -6.768958e+01
   7.056061e+01  -1.809939e+02
   1.197836e+02  -2.694814e+01
   9.757756e+01   1.137037e+02
   2.967845e+01   2.013871e+02
  -1.132051e+02   1.384215e+02
  -8.835291e+01   1.031452e+01
  -6.841278e+01  -1.123443e+02
   1.068438e+01  -6.931191e+01
   5.745420e+01   1.819932e+00
  -1.812173e+01   4.757477e+01
  -9.352114e+00  -2.593756e+01
   1.446035e+01  -6.641056e+01
   2.651860e+01   6.494409e+00
   1.119249e+02   1.231337e+02
   8.622019e+01   1.396714e+02
  -2.616918e+00   7.643829e+01
  -1.489059e+02  -3.252868e+01
  -1.635077e+02  -1.143620e+02
  -5.653634e+01  -4.409150e+01
   9.278541e+01  -4.681515e+01
   1.154342e+02  -6.438063e+00
   4.238736e+01   5.283166e+01
  -2.904832e+01   3.741040e+01
  -3.134841e+01   8.262061e+01
  -8.482647e+00   1.364385e+01
   2.467231e+01  -8.517012e+00
  -1.008519e+02  -4.373176e+01
  -7.791130e+01   6.082302e+00
   1.717099e+01  -6.582532e+01
   9.678224e+01  -1.257641e+02
   1.520468e+02  -6.418851e+01
   1.349892e+02   7.399601e+01
   2.450725e+01   1.756785e+02
  -4.761538e+01   1.434765e+02
  -7.772551e+01   3.729480e+01
  -4.535171e+01  -2.330562e+01
  -1.064901e+01  -1.227827e+01
  -1.536705e+01   3.988054e+01
  -3.061147e+01   1.668078e+01
  -1.383273e+01  -2.343311e+01
  -3.448330e+01  -9.063324e+01
   1.926610e+01  -5.997797e+01
   1.091732e+02  -2.140500e+01
   1.220092e+02   1.066730e+02
   1.488588e+01   1.266068e+02
  -8.217788e+01   7.229817e+01
  -1.338759e+02  -6.612263e+01
  -3.399324e+01  -9.977603e+01
   3.346844e+01  -1.801162e+01
   8.982265e+01   2.583753e+01
   3.868512e+01  -6.043618e+00
  -7.556986e+01   3.175118e+01
  -3.560409e+01   4.638424e+01
   6.545136e+00  -4.101908e+01
   3.853489e+01  -3.961058e+01
  -1.805347e+01   3.934016e+01
  -7.678272e+01   8.779891e+01
  -1.428485e+02   6.707287e+01
  -8.957127e+01   3.721805e+01
  -1.122392e+01  -9.859688e+01
   1.629183e+01  -1.010855e+02
   7.617999e+01  -1.869040e+01
   1.565850e+01   6.938954e+01
  -1.140292e+01   1.755075e+01
  -2.167118e+01   1.353776e+00
  -1.485216e+01  -8.060961e+01
  -3.273532e+00  -8.008258e+00
   2.177918e+01   1.965476e+01
   5.180330e+01   2.604410e+01
   2.313271e+01   5.031446e+00
  -3.104114e+01  -3.374350e+01
   1.935195e+01   5.044165e+00
   4.390928e+00   8.021957e+01
   9.155533e+00   2.224342e+01
  -3.887219e+01  -2.724126e+01
  -1.228170e+01  -4.170767e+01
  -4.231433e-01  -3.671678e+01
   3.030388e+01  -1.583753e+01
   5.174899e+01   5.069441e+01
  -8.728833e+00   4.856784e+01
  -7.327838e+01  -2.672773e+00
  -6.758667e+01  -4.042413e+01
  -2.764905e+01  -7.378535e+01
   2.332642e+01  -2.611567e+01
   8.434105e+01  -5.464639e+01
   5.341970e+01   8.607413e-01
  -4.153660e+01   1.413779e+01
  -4.283327e+01   1.189360e+01
   3.130296e+01  -2.743564e+01
   4.699085e+01   6.831076e+00
