
 $NMID
 id='ANONYMOUS ', fmtdat='(2E16.6)'
 volume=1.0
 tramp=1.0
 $END
   4.214828e+03  -5.958901e+01
   2.414043e+03   2.618157e+03
  -6.455556e+02   2.689077e+03
  -1.999127e+03   9.772055e+02
  -8.853897e+02  -4.733772e+02
   6.391086e+02  -5.398620e+02
   8.539815e+02   4.813705e+02
  -4.584068e+01   1.020656e+03
  -8.492750e+02   7.749254e+02
  -8.934006e+02  -1.474798e+02
  -4.498843e+02  -7.530020e+02
   2.268577e+02  -8.911094e+02
   4.461381e+02  -1.025268e+02
   3.854169e+02   6.755305e+02
  -2.413914e+02   6.767616e+02
  -6.138544e+02   8.754243e+01
  -2.601054e+02  -6.136700e+02
   2.876140e+02  -6.352009e+02
   5.083725e+02  -1.757837e+02
   4.023260e+02   2.783626e+02
  -7.739467e+00   4.028202e+02
  -1.950642e+02   3.048499e+02
  -1.377917e+02  -9.678797e+00
   9.834361e+01  -5.863476e+01
   4.071487e+02   1.960396e+02
   1.982973e+02   4.998286e+02
  -5.137453e+02   3.531722e+02
  -8.619578e+02  -1.311359e+02
  -3.997373e+02  -5.984404e+02
   3.791700e+02  -3.766562e+02
   7.849141e+02   9.025116e+01
   3.357756e+02   4.632197e+02
  -3.079651e+02   5.315517e+02
  -5.810571e+02   2.010589e+02
  -4.359073e+02  -2.429542e+02
  -1.188108e+02  -4.615207e+02
   1.864629e+02  -2.962040e+02
   1.485523e+02   2.195060e+02
  -1.354540e+02   3.901690e+02
  -4.215984e+02  -8.343432e+01
  -2.548533e+02  -6.935831e+02
   3.741201e+02  -6.864619e+02
   5.838508e+02  -1.199456e-01
   2.275124e+02   5.447240e+02
  -2.650598e+02   2.850226e+02
  -3.762275e+02  -2.860759e+02
   1.140179e+02  -5.394436e+02
   5.592394e+02  -1.485657e+02
   6.128983e+02   4.213158e+02
   1.848071e+02   5.611006e+02
  -3.820528e+02   3.647095e+02
  -6.256304e+02  -6.322601e+01
  -3.462656e+02  -3.432677e+02
   1.753689e+02  -3.318928e+02
   3.930242e+02  -6.588648e+01
   2.152582e+02   1.881194e+02
  -8.732479e+01   8.200786e+01
  -1.274714e+02  -1.326271e+02
   1.749906e+02  -1.796295e+02
   3.395357e+02   1.346711e+02
   1.751247e+02   2.891723e+02
  -1.970690e+02   2.412092e+02
  -3.346591e+02   1.021135e+02
  -2.112233e+02  -6.765736e+01
   2.243043e+01  -1.817672e+02
   2.227954e+02  -3.335361e+02
   2.942822e+02  -2.094361e+02
   2.659098e+02   1.382004e+02
   6.605682e+01   4.349779e+02
  -1.469516e+02   3.842697e+02
  -7.721713e+01   1.074293e+02
  -6.464586e+01  -2.669556e+01
  -5.936134e+01   7.861532e+01
  -2.111036e+02   1.285413e+02
  -2.867744e+02  -5.555620e+01
  -1.521971e+02  -2.703513e+02
   1.152725e+02  -2.858444e+02
   2.266222e+02  -2.189631e+00
   2.137325e+02   2.605016e+02
   2.553473e+00   3.103108e+02
  -2.437313e+02   1.296644e+02
  -3.025122e+02  -1.719152e+02
  -1.997043e+02  -3.165766e+02
   8.766433e+01  -2.460905e+02
   2.085772e+02  -9.912502e+01
   1.472636e+02  -5.878531e+00
   6.839060e+01  -3.518132e+01
   1.848109e+02  -5.516442e+01
   4.272084e+02   7.058665e+01
   3.372929e+02   2.969330e+02
  -3.347432e+01   4.260460e+02
  -4.283037e+02   4.138377e+02
  -5.080475e+02   1.831113e+02
  -3.314881e+02  -1.247974e+02
  -1.365877e+01  -2.989411e+02
   1.060355e+02  -2.140840e+02
   7.293843e+01   1.986825e+00
  -1.232335e+02   1.353836e+02
  -1.895579e+02  -1.114386e+01
  -5.139827e+01  -1.978843e+02
   1.426027e+02  -1.958413e+02
   1.787779e+02   3.056278e+01
   1.641580e+00   1.373130e+02
  -1.686683e+02   3.212429e+01
  -1.177396e+02  -2.316945e+02
   4.842714e+01  -3.446467e+02
   2.862826e+02  -1.947924e+02
   3.512894e+02   5.013945e+01
   2.780027e+02   2.225739e+02
   1.268797e+02   2.850502e+02
  -1.361030e+02   1.924614e+02
  -1.973124e+02   5.828020e+01
  -7.236602e+01  -4.280119e+01
   7.312608e+01   4.988749e+01
   6.280006e+01   1.194213e+02
  -1.262257e+02   1.417520e+02
  -2.000753e+02   3.339671e+00
  -2.595107e+01  -6.938999e+01
   8.195578e+01  -1.532109e+01
   6.929695e+01   8.525252e+01
  -1.584656e+02   1.191979e+02
  -3.031944e+02   1.194875e+01
  -2.828478e+02  -1.669517e+02
  -6.227106e+01  -2.750402e+02
   1.840448e+02  -2.726376e+02
   2.810273e+02  -1.440961e+02
   1.694604e+02   7.591464e+01
  -7.749745e+01   1.518196e+02
  -1.229163e+02   1.859903e+01
   4.723843e+01  -1.137297e+02
   2.009964e+02  -8.927524e+01
   1.832481e+02   1.646013e+02
   8.277581e+01   1.937651e+02
  -8.658126e+01   1.823816e+02
  -1.517223e+02  -4.227420e+01
  -4.181070e+01  -4.868141e+01
   2.531870e+01  -2.075095e+01
   6.788732e+01   1.240807e+02
  -6.651385e+01   8.898913e+01
  -2.118826e+02   4.710998e+01
  -1.807569e+02  -1.534944e+02
   1.246408e+01  -2.281174e+02
   1.813674e+02  -1.606659e+02
   1.457100e+02  -1.852650e+01
   7.590644e+01   1.628313e+02
  -4.305066e+01   1.368148e+02
  -1.271113e+02   5.755351e+01
  -4.517750e+01  -2.235757e+01
  -3.299058e+01  -3.695830e+01
  -8.982563e+01  -3.318278e+01
  -6.431233e+01  -6.771547e+01
  -1.126305e+02  -1.015601e+02
  -2.452279e+01  -1.369884e+02
   1.448984e+02  -1.353762e+02
   1.910369e+02  -1.571564e+00
   1.822367e+02   1.310343e+02
   4.369270e+01   2.310372e+02
  -9.463277e+01   1.750599e+02
  -1.496073e+02   1.321944e+01
  -1.196101e+02  -5.591327e+01
  -2.404798e+01  -1.413523e+01
  -4.366516e+01  -8.680259e+00
  -8.372671e+01   3.998863e+01
   1.263209e+01  -3.383278e+01
   8.378562e+01  -9.479426e+01
   9.327514e+01  -4.002591e+01
   6.949976e+01   1.254450e+02
  -2.996322e+01   1.370941e+02
  -1.652166e+02   7.449382e+01
  -2.040314e+02  -7.400207e+01
  -1.376537e+02  -1.884026e+02
   8.702115e+01  -2.272448e+02
   2.883195e+02  -1.293124e+02
   2.676735e+02   4.790716e+01
   8.550192e+01   1.290211e+02
  -4.682814e+01   1.099066e+02
  -7.130442e+01   6.596349e+01
  -6.589292e+01   8.871812e+01
  -9.108654e+01   9.609244e+01
  -4.052452e+01   9.359232e+01
  -1.246076e+02  -2.320015e+01
  -4.717349e+01  -1.329540e+02
  -4.247668e+01  -2.011545e+02
   7.535328e+01  -1.551832e+02
   1.235377e+02  -2.308484e+01
   1.335151e+02   1.152523e+02
   1.599855e+01   1.770730e+02
  -6.488600e+01   9.225022e+01
  -6.781583e+01  -6.609188e+01
   4.608624e+01  -3.767159e+01
   1.244944e+01  -5.541994e+01
  -3.102751e+01  -6.268840e+01
  -4.829415e+01  -4.932418e+01
  -4.887802e+00  -3.096220e+01
   6.062296e+01   1.366202e+01
   1.506604e+02   2.134922e+01
   1.362162e+02   2.388012e+01
   5.330023e+01   1.065443e+02
  -1.346147e+02   6.247280e+01
  -1.558711e+02   2.315523e+01
  -4.694360e+01  -2.062375e+01
   3.999257e+01  -3.116531e+01
   7.985863e+01   3.010437e+01
   3.645961e+01   4.715618e+01
  -1.380950e+01   9.493217e+00
  -5.231152e+01   1.236650e+01
  -5.369543e+01  -6.752241e+01
  -6.727113e+01  -2.842506e+01
  -1.108383e+02  -1.304054e-01
  -5.562963e+01  -3.627322e+01
   8.166921e+00  -5.832785e+01
   3.007269e+01  -1.384272e+02
   9.000500e+01  -9.515452e+01
   1.763217e+02  -2.724939e+01
   1.195252e+02   1.157524e+02
  -1.189456e+00   1.522120e+02
  -8.558884e+01   6.946457e+01
  -5.480565e+01  -2.088823e+01
   7.677970e+01  -9.041403e+00
   1.049476e+02   1.780507e+01
   8.092842e+01   7.935513e+01
  -6.665914e+01   1.102828e+02
  -2.015384e+02   3.732388e+01
  -1.851370e+02  -2.563448e+01
  -7.318905e+01  -4.277905e+01
   3.998179e+01  -7.789081e+00
   4.503670e+01   5.731928e+00
  -5.978540e+01  -3.412459e+00
  -1.077371e+02   1.335540e+01
  -7.938756e+01  -1.490058e+02
   4.961054e+01  -1.577432e+02
   1.416661e+02  -5.101023e+01
   1.509745e+02   6.737174e+01
   6.433936e+01   1.987492e+02
  -9.329522e+01   1.972116e+02
  -8.128380e+01  -1.968875e+01
  -6.134037e+01  -1.016657e+02
  -6.161648e+01  -1.108249e+02
   8.021445e+01  -3.324844e+01
   5.618347e+01   3.529642e+01
   4.573215e+01   3.855719e+01
   6.871542e+00   1.550133e+01
   1.692839e+01   2.828134e+01
   3.507985e+01   3.989297e+01
   4.642799e+01   1.432626e+02
  -3.709770e+01   5.003150e+01
  -1.505642e+02  -1.205074e+01
  -1.283163e+02  -7.333707e+01
  -4.109773e+01  -6.953765e+01
   8.851074e+01  -3.031922e+00
   5.412418e+01  -9.175440e+00
  -1.182206e+01  -5.778897e+00
  -2.645883e+01   3.754736e+01
  -1.097335e+01   4.889679e+01
   4.526877e+01   9.333526e+00
  -1.088544e+01  -2.197196e+01
  -1.329853e+02   4.776800e+00
  -1.484498e+02  -2.220645e+01
  -6.992366e+00  -8.259303e+01
   8.884292e+01  -1.288462e+02
   1.958498e+02  -7.763027e+01
   1.545872e+02   4.538047e+01
   2.734059e+01   1.634292e+02
  -4.161597e+01   6.730292e+01
  -9.025389e+01   1.289871e+01
  -7.095638e+01  -2.379134e+01
   4.467532e+01  -2.335635e+01
   2.888850e+01   2.765280e+01
   3.063660e+00   3.877683e+01
  -6.101427e+01  -4.772635e+01
  -3.388041e+01  -1.123424e+02
   9.801373e+00  -7.892401e+01
   4.352362e+01   4.826619e+01
   3.559948e+01   1.201659e+02
   8.287416e+00   1.083328e+02
  -8.665178e+01   1.200487e+01
  -8.498459e+01  -1.144179e+02
  -1.250954e+01  -1.247510e+02
   7.172271e+01  -4.309159e+01
   1.066546e+02  -4.907195e+01
   2.875212e+01   5.109287e+01
  -1.815089e+01  -1.641605e+01
  -1.081331e+01  -7.796543e+00
   6.588382e+01   2.866729e+01
   6.474531e+01  -1.512109e+01
   1.272228e+01   2.950990e+01
  -8.952377e+01   6.417943e+01
  -1.064574e+02   8.363690e+01
  -4.528493e+01   1.747969e+01
   4.692318e+01  -9.145109e+01
   8.083467e+01  -8.849559e+01
   2.231997e+01   3.828295e+01
  -1.552178e+01   9.404786e+01
  -2.334079e+01   3.599277e+01
  -5.966646e+01  -1.651324e+00
  -6.559520e+01  -4.272123e+01
  -3.853146e+01  -4.074093e+01
   1.113290e+01  -1.800032e+01
   5.737877e+01   8.179963e+00
   9.293304e-01   2.475873e+01
  -2.940283e+01  -3.639596e+01
  -1.680615e+01   4.335428e+00
  -4.177825e+00   5.499734e+01
  -3.149744e+01   1.463841e+01
  -5.946005e+01  -4.028761e+01
  -1.028554e+01  -6.057155e+01
   5.056681e+01  -9.592819e+01
   7.532986e+01  -1.249522e+01
   1.189940e+01  -1.619831e+01
   4.800601e+01   3.968589e+01
  -7.155222e+01   4.582485e+00
  -1.603364e+02  -2.358250e+01
  -2.341437e+01  -6.364458e+01
   8.800045e+01   2.667383e+00
   7.594446e+01  -5.993379e+00
   1.401348e+01   6.873307e+00
  -6.741911e+01   2.088925e+01
   1.792378e+01  -5.868072e+01
   6.132179e+01  -1.374884e+01
   1.300680e+02   9.690011e-01
