
 $NMID
 id='ANONYMOUS ', fmtdat='(2E16.6)'
 volume=1.0
 tramp=1.0
 $END
   4.370145e+03  -1.040180e+02
   2.608038e+03   2.890879e+03
  -8.834729e+02   2.790185e+03
  -2.245941e+03   6.627169e+02
  -9.683847e+02  -8.163435e+02
   6.854162e+02  -6.698650e+02
   9.806283e+02   5.129091e+02
  -2.695938e+01   1.176843e+03
  -9.442157e+02   8.350478e+02
  -9.990625e+02  -1.889336e+02
  -3.757566e+02  -9.480355e+02
   4.277017e+02  -9.475719e+02
   7.075834e+02  -3.066870e+01
   3.616169e+02   8.265242e+02
  -2.630461e+02   7.532618e+02
  -6.296698e+02  -6.669170e+01
  -2.273470e+02  -7.113833e+02
   3.924348e+02  -5.641122e+02
   5.932837e+02  -1.353476e+02
   4.036172e+02   3.081585e+02
   7.651947e+01   4.750488e+02
  -1.730403e+02   2.487163e+02
  -1.840860e+02   1.617179e+01
   8.431254e+01  -1.702835e+02
   4.092759e+02   2.135033e+01
   2.751196e+02   4.579225e+02
  -4.423223e+02   4.460308e+02
  -8.728245e+02  -3.779897e+01
  -5.535927e+02  -6.686354e+02
   3.555784e+02  -5.606000e+02
   7.500186e+02  -1.541690e+01
   3.758276e+02   4.133569e+02
  -3.094272e+02   5.336195e+02
  -6.211519e+02   2.378721e+02
  -4.329288e+02  -1.766022e+02
  -5.339683e+01  -4.687349e+02
   2.194170e+02  -3.058683e+02
   1.710593e+02   2.619241e+02
  -1.711117e+02   4.905245e+02
  -4.630273e+02   1.038065e+01
  -2.640167e+02  -7.104556e+02
   3.592893e+02  -7.985513e+02
   6.441029e+02  -1.651713e+01
   2.587227e+02   6.194256e+02
  -2.923124e+02   3.715463e+02
  -3.492496e+02  -3.669029e+02
   1.076065e+02  -6.462336e+02
   5.791214e+02  -1.399812e+02
   6.056118e+02   4.115620e+02
   1.466768e+02   5.559167e+02
  -3.964876e+02   3.164170e+02
  -5.986862e+02  -8.656976e+01
  -3.128740e+02  -4.177651e+02
   1.658448e+02  -4.079579e+02
   4.550748e+02  -7.168056e+01
   2.445108e+02   1.981771e+02
  -1.049942e+02   1.161486e+02
  -1.758983e+02  -1.760199e+02
   2.058778e+02  -2.350581e+02
   3.709297e+02   1.866450e+01
   1.619327e+02   2.601469e+02
  -1.353833e+02   2.419157e+02
  -2.403422e+02   5.825291e+01
  -1.710858e+02  -7.581253e+01
   2.063498e+01  -2.057001e+02
   2.145074e+02  -2.900480e+02
   3.317790e+02  -1.938462e+02
   2.772432e+02   1.606766e+02
   6.155489e+01   4.601560e+02
  -1.481431e+02   3.985692e+02
  -1.391616e+02   8.078127e+01
   1.398634e+01  -5.204062e+01
  -1.362773e+01   9.866270e+01
  -1.931769e+02   1.642002e+02
  -2.901881e+02  -2.960808e+01
  -1.992090e+02  -2.523610e+02
   4.495677e+01  -2.720746e+02
   1.832134e+02  -2.074937e+01
   2.164580e+02   2.229189e+02
   3.194528e+01   2.912330e+02
  -2.673658e+02   1.227250e+02
  -4.064728e+02  -1.906891e+02
  -2.051373e+02  -3.979447e+02
   1.219733e+02  -3.524241e+02
   2.966791e+02  -1.295029e+02
   2.070547e+02   1.864312e+01
   1.107434e+02  -2.226461e+00
   2.241209e+02  -7.046277e+01
   4.186157e+02   8.091996e+01
   3.472458e+02   2.848314e+02
  -8.867787e+00   4.380770e+02
  -3.669350e+02   4.053308e+02
  -5.415214e+02   2.139338e+02
  -3.696198e+02  -1.154892e+02
  -5.515187e+01  -3.075251e+02
   1.329069e+02  -2.827259e+02
   1.071195e+02  -5.240340e+01
  -7.863667e+01   1.444428e+02
  -2.437154e+02  -1.813402e+01
  -7.694625e+01  -1.874924e+02
   1.850186e+02  -1.698866e+02
   1.770430e+02   5.528619e+01
  -2.451911e+01   2.038153e+02
  -2.090388e+02   3.574305e+01
  -1.500119e+02  -2.339145e+02
   4.431322e+00  -3.247685e+02
   2.000655e+02  -2.101310e+02
   3.401537e+02   4.594712e+01
   2.886978e+02   2.504017e+02
   1.310998e+02   2.592603e+02
  -5.588045e+01   2.214888e+02
  -2.118640e+02   4.269112e+01
  -9.086051e+01  -4.732998e+01
   4.321268e+01  -1.058588e+01
   3.120554e+01   1.121904e+02
  -1.143983e+02   8.930725e+01
  -1.669886e+02  -1.880902e+01
  -1.710761e+01  -6.846499e+01
   9.737861e+01  -2.127173e+01
   9.149621e+01   7.598488e+01
  -1.139097e+02   8.876604e+01
  -2.908802e+02   1.951869e+01
  -2.867847e+02  -1.200837e+02
  -8.282359e+01  -2.321865e+02
   1.482572e+02  -2.818141e+02
   2.466516e+02  -1.481071e+02
   1.495032e+02   6.101451e+01
  -1.096231e+01   1.366189e+02
  -8.758593e+01   3.640477e+01
   1.776767e+01  -1.290734e+02
   1.816869e+02  -6.819455e+01
   1.881072e+02   1.160756e+02
   3.754178e+01   2.372483e+02
  -8.536328e+01   1.858895e+02
  -1.260646e+02   3.459925e+01
  -4.249042e+01  -4.986160e+01
   4.908268e+01  -2.039032e+01
   6.793467e+01   6.595017e+01
  -5.885001e+01   1.288584e+02
  -1.798684e+02   8.266541e+01
  -2.234709e+02  -9.046068e+01
  -4.872744e+01  -2.163919e+02
   1.667294e+02  -2.158935e+02
   2.587954e+02  -4.131333e+01
   1.170226e+02   1.599177e+02
  -4.654460e+01   1.384629e+02
  -5.998973e+01   9.544918e+01
  -2.609381e+01  -1.777709e+01
  -8.193580e+00   8.989896e+00
   2.972100e+01   1.328676e+01
  -3.964318e+01   4.118264e+01
  -4.045853e+01  -4.624716e+01
  -4.001764e+01  -1.514374e+02
   8.605196e+01  -1.964611e+02
   2.264666e+02  -6.473804e+01
   2.264905e+02   1.434877e+02
   6.585604e+01   2.306593e+02
  -1.101037e+02   1.822437e+02
  -1.281045e+02   4.592681e+01
  -6.569307e+01  -3.933712e+01
  -5.548395e+01  -5.650561e+01
  -2.736563e+01   2.943168e+01
  -7.364899e+01  -7.361377e+00
   7.061621e-01  -5.398532e+01
   4.296611e+01  -5.339910e+01
   9.024215e+01  -7.975958e+01
   5.095620e+01  -1.794343e+00
  -4.895776e+01   9.050728e+01
  -1.032755e+02   9.424664e+01
  -1.887687e+02  -4.029040e+01
  -1.273624e+02  -2.029081e+02
   9.313114e+01  -2.310760e+02
   2.728506e+02  -1.026028e+02
   2.511624e+02   7.083364e+01
   7.632879e+01   1.620688e+02
  -3.307557e+01   1.899836e+02
  -9.183208e+01   1.134778e+02
  -8.094777e+01   8.277721e+01
  -9.279996e+01   1.062702e+02
  -1.116039e+02   5.285589e+01
  -1.353759e+02  -4.041154e+01
  -8.343901e+01  -1.771963e+02
  -3.639136e+01  -2.494778e+02
   1.117948e+02  -1.737727e+02
   1.242823e+02   2.797964e+00
   1.319331e+02   1.415812e+02
   3.640124e+01   1.575628e+02
  -8.169249e+01   1.022855e+02
  -3.517788e+01  -2.706439e+01
  -3.444819e+00  -5.744250e+01
  -2.120611e+00  -7.207027e+01
  -5.147389e+01   1.763386e+00
  -9.171595e+01   1.371945e+01
  -2.503762e+01  -5.621183e+01
   8.111668e+01  -2.496631e+01
   1.572392e+02  -3.332220e+01
   1.235623e+02   1.639471e+01
   4.964892e+01   6.660145e+01
  -8.772705e+01   8.532011e+01
  -1.634623e+02  -8.031627e+00
  -9.506109e+01  -6.490810e+01
   5.614931e+01  -4.129831e+01
   9.091150e+01  -2.481293e+00
   8.412834e+01   5.671684e+01
  -4.733433e+01   7.786042e+01
  -7.582023e+01  -3.959833e+00
  -4.613915e+01   2.017354e+01
  -1.016122e+02  -1.404532e+01
  -1.000871e+02  -2.398951e+01
  -1.005456e+02  -2.715411e+01
  -1.105137e+01  -7.564643e+01
   7.396677e+01  -2.059356e+02
   1.434570e+02  -1.267153e+02
   1.344772e+02   1.602301e+01
   1.010740e+02   6.794140e+01
   3.731690e+00   1.226842e+02
  -1.277162e+02   7.120526e+01
  -2.162560e+01  -3.714187e+01
   4.890800e+01  -1.204817e+01
   1.332527e+02   9.598320e+01
   2.765704e+01   1.050211e+02
  -1.319376e+02   9.754092e+01
  -1.505615e+02   3.098504e+01
  -1.492653e+02  -5.074674e+01
   9.168367e+00  -6.241886e+01
   8.085481e+01  -5.783769e+01
   3.738448e+01   1.647379e+00
  -4.562855e+01   4.250881e+01
  -7.761642e+01  -5.064878e+00
  -1.178576e+01  -1.304785e+02
   8.425104e+01  -1.282066e+02
   1.526472e+02  -6.761551e+01
   1.148640e+02   1.068856e+02
   4.351979e+01   1.632976e+02
  -5.421230e+01   6.381225e+01
  -1.133557e+02   4.454625e+01
  -5.858348e+01  -1.053498e+02
  -1.681052e+01  -1.310206e+02
   9.088185e+00  -1.935216e+01
   4.636949e+01  -1.300153e+00
   1.458729e+01   1.875413e+01
   1.144548e+01  -2.801336e+01
   8.926191e+00  -3.044590e+00
   5.729325e+01   1.046357e+02
   2.153590e+01   7.980022e+01
  -7.144033e+01   3.945155e+01
  -1.540996e+02  -4.023719e+01
  -9.611305e+01  -9.502043e+01
  -1.582228e+01  -1.328283e+01
   1.224324e+02   6.300397e+00
   1.054184e+02  -3.195319e+01
  -6.162993e+00  -1.439650e+01
  -5.438527e+01   3.307182e+01
  -3.509913e+01   2.905039e+01
   7.395797e+00   1.615294e+01
  -2.870720e-01   1.252994e+01
  -9.590265e+01  -2.068012e+01
  -4.382240e+01  -4.955670e+01
   5.468065e+01  -7.381672e+01
   1.556066e+02  -9.373553e+01
   2.166626e+02   2.169186e+00
   1.450966e+02   8.000731e+01
   2.191288e+01   1.882670e+02
  -7.824958e+01   1.608548e+02
  -9.281407e+01   3.073852e+01
  -6.479492e+01  -1.221117e+01
   1.013138e+01  -5.386007e+01
  -1.580587e+01  -2.418933e+01
  -4.076358e+01  -6.382050e+01
  -5.137715e+01  -9.594161e+01
  -2.340364e+01  -1.024231e+02
   5.863641e+01  -7.360505e+01
   1.467639e+02   2.026171e+01
   1.125717e+02   8.653033e+01
   3.256040e+01   9.623660e+01
  -7.711688e+01  -2.602801e+01
  -9.606314e+01  -7.486323e+01
  -2.481586e+01  -1.393849e+02
   6.126101e+01  -9.576967e+01
   1.151703e+02   9.496845e+00
   5.692012e+01   5.631860e+01
   9.267895e+00   4.480073e+01
  -3.657064e+01   5.451504e+01
   2.818831e+01  -4.078821e+00
   6.537950e+01  -2.797572e+01
  -1.944772e+01   2.535543e+01
  -1.095958e+02   3.626102e+01
  -1.015830e+02   5.660815e+01
  -5.769476e+01  -9.666440e+00
  -5.231011e+00  -6.706441e+01
   1.017834e+02  -6.569145e+01
   4.709004e+01  -1.290155e+01
  -4.786024e+00   5.514625e+01
  -1.636182e+01   4.146846e+01
  -1.139578e+01  -1.231718e+01
  -2.511151e+01  -5.665010e+01
  -3.747751e+00  -2.581318e+01
   8.773156e-01   1.773856e+01
   4.972626e+01  -1.020616e+01
   2.474080e+01  -1.617177e+01
   7.000327e+00  -6.160018e+00
  -4.900079e+00  -2.652322e+01
  -2.747733e+01   5.407582e+01
  -2.909602e+01   5.558384e+01
  -1.316807e+01   2.789031e+01
  -2.215428e+01  -2.212537e+01
  -2.452687e+01  -4.281624e+01
   4.765378e+01  -2.429977e+01
   7.037147e+01  -4.886869e+00
  -4.514092e+00   9.821690e+01
  -6.231416e+01   4.811859e+01
  -1.001629e+02  -4.894845e+01
  -6.996603e+01  -3.793722e+01
   3.827028e+00  -6.296995e+01
   1.412458e+01   2.986290e+01
  -2.239610e+01  -3.602752e+01
   1.888869e+00   1.590304e+00
  -6.649650e+01  -4.746034e+01
   5.932443e+01  -1.048912e+01
   9.421056e+01  -1.565800e+00
