
 $NMID
 id='ANONYMOUS ', fmtdat='(2E16.6)'
 volume=1.0
 tramp=1.0
 $END
  -4.474074e+03   1.869666e+02
  -2.718573e+03  -2.851174e+03
   9.273196e+02  -2.715783e+03
   2.176945e+03  -7.399690e+02
   9.729070e+02   8.625836e+02
  -7.546386e+02   6.442768e+02
  -9.891240e+02  -4.787837e+02
  -9.287678e+00  -1.059672e+03
   8.765453e+02  -7.442338e+02
   1.022699e+03   1.316657e+02
   3.572187e+02   8.613504e+02
  -2.912520e+02   8.781756e+02
  -6.390957e+02   9.243865e+01
  -3.864676e+02  -7.787924e+02
   2.777560e+02  -8.317923e+02
   7.234022e+02   8.508298e+01
   2.353523e+02   7.205900e+02
  -3.476000e+02   6.189556e+02
  -5.672928e+02   1.097687e+02
  -3.894942e+02  -3.784316e+02
   9.240042e+01  -3.716194e+02
   2.388022e+02  -2.897182e+02
   2.185899e+02   5.855890e+01
  -1.408664e+02   1.018947e+02
  -4.243802e+02  -1.590786e+02
  -2.288233e+02  -4.509003e+02
   5.075819e+02  -4.225105e+02
   9.562006e+02   4.423512e+01
   4.892991e+02   5.985294e+02
  -4.800036e+02   5.751146e+02
  -7.814828e+02  -3.950934e+01
  -3.736393e+02  -5.057693e+02
   2.694061e+02  -4.822736e+02
   6.037479e+02  -2.052740e+02
   4.425168e+02   2.228146e+02
   1.005840e+02   5.132995e+02
  -1.818487e+02   3.276000e+02
  -2.109692e+02  -3.093956e+02
   1.798239e+02  -5.470159e+02
   5.072854e+02   5.009924e+01
   3.055081e+02   7.992137e+02
  -3.145667e+02   8.073871e+02
  -6.089863e+02   1.170325e+01
  -2.743650e+02  -6.356091e+02
   2.885265e+02  -3.296267e+02
   4.272165e+02   3.511915e+02
  -8.555681e+01   6.242370e+02
  -5.869056e+02   1.411987e+02
  -6.041076e+02  -4.050190e+02
  -1.778850e+02  -5.835456e+02
   3.613702e+02  -3.456566e+02
   6.500727e+02   3.405139e+01
   3.749642e+02   3.756923e+02
  -1.431519e+02   3.669008e+02
  -4.440158e+02   7.549161e+01
  -2.494532e+02  -2.008967e+02
   1.316870e+02  -1.072774e+02
   1.695260e+02   1.707673e+02
  -1.997085e+02   1.768813e+02
  -3.640738e+02  -1.062107e+02
  -1.142619e+02  -3.308828e+02
   2.643582e+02  -2.648361e+02
   3.852947e+02  -1.195815e+02
   2.073428e+02   8.299265e+01
  -7.272889e+01   2.351099e+02
  -2.521975e+02   3.296771e+02
  -3.383360e+02   2.722170e+02
  -2.806251e+02  -1.261189e+02
  -3.024070e+01  -4.755846e+02
   1.574589e+02  -3.835218e+02
   1.455234e+02  -6.144865e+01
   2.464988e+01   6.490795e+01
  -5.217468e+00  -2.344930e+01
   1.969257e+02  -1.234878e+02
   2.575719e+02   6.484342e+01
   1.470398e+02   2.362252e+02
  -6.317524e+01   2.485721e+02
  -2.125244e+02   1.167207e+01
  -1.964956e+02  -2.240936e+02
  -1.227123e+01  -3.106033e+02
   2.533269e+02  -1.357024e+02
   3.532663e+02   1.442808e+02
   2.355271e+02   3.798692e+02
  -8.240268e+01   3.767063e+02
  -2.402997e+02   1.521368e+02
  -1.905363e+02   9.299492e+00
  -1.387263e+02  -8.148728e+00
  -2.694035e+02   1.921529e+01
  -4.173013e+02  -6.318022e+01
  -3.515183e+02  -2.363768e+02
  -3.945663e+00  -3.854636e+02
   3.931351e+02  -4.392607e+02
   5.222677e+02  -2.545159e+02
   3.700804e+02   1.039925e+02
   6.776022e+01   3.224426e+02
  -9.376368e+01   2.820200e+02
  -1.041834e+02   7.749536e+01
   1.253355e+02  -1.259346e+02
   1.694535e+02  -2.810648e+01
   7.085658e+01   1.437538e+02
  -1.436079e+02   1.906097e+02
  -1.860072e+02  -3.226630e+01
  -3.392597e+01  -2.037450e+02
   1.571476e+02  -4.693851e+01
   1.206750e+02   2.711527e+02
  -2.255644e+01   3.451906e+02
  -1.913894e+02   2.287535e+02
  -3.153003e+02  -1.106482e+01
  -2.937962e+02  -2.512445e+02
  -7.013798e+01  -2.706789e+02
   9.173647e+01  -1.441804e+02
   1.791891e+02  -7.038025e+01
   7.582074e+01   6.467514e+01
  -6.190342e+01  -1.454569e+01
  -2.724083e+01  -1.127355e+02
   1.361741e+02  -1.011644e+02
   1.554801e+02   3.566264e+00
   1.011946e+02   7.534921e+01
  -7.883912e+01   2.581263e+01
  -4.744706e+01  -6.128418e+01
   9.725906e+01  -9.360704e+01
   2.651619e+02  -3.953999e+00
   2.334203e+02   1.458752e+02
   5.268733e+01   2.462261e+02
  -2.209394e+02   2.143390e+02
  -2.755308e+02   9.518353e+01
  -1.642827e+02  -3.953457e+01
   7.262282e+01  -6.814239e+01
   1.301410e+02  -2.480065e+01
  -1.352593e+01   1.130932e+02
  -2.401091e+02   7.195017e+01
  -2.378878e+02  -6.732289e+01
  -9.545437e+01  -2.540308e+02
   1.096266e+02  -1.736497e+02
   1.436642e+02  -2.634753e+01
   1.311178e+02   6.811105e+01
   1.339470e+01   1.822897e+01
   8.336622e-01  -6.051363e+01
   6.536280e+01  -9.991193e+01
   1.854094e+02   1.274228e+01
   1.970130e+02   1.451304e+02
  -1.215892e+00   2.251563e+02
  -1.628020e+02   1.514049e+02
  -1.718420e+02   9.564183e+00
  -1.026189e+02  -8.222824e+01
   4.993535e+01  -1.172364e+02
   1.326997e+02  -2.660189e+01
  -7.491165e+00   2.328117e+01
  -3.828806e-01   7.962273e+00
   7.260721e+00   6.187191e+01
   4.027646e+01   4.467739e+01
   5.194514e+01   8.080874e+01
   1.288398e+01   1.260160e+02
  -1.018324e+02   1.615321e+02
  -2.403537e+02   3.823255e+01
  -2.592266e+02  -1.254696e+02
  -6.591765e+01  -2.281802e+02
   1.025663e+02  -1.723362e+02
   1.709075e+02  -3.936619e+01
   8.811909e+01   7.067030e+01
   5.950627e+00   5.405919e+01
  -1.049570e+00  -4.629490e+00
   1.083533e+02   3.805204e+00
   1.700557e+01   7.681767e+01
  -6.413570e+01   8.529014e+01
  -8.362801e+01   4.154153e+01
  -5.930958e+01  -4.169588e+01
   4.019695e+01  -1.154103e+02
   1.076709e+02  -9.795325e+01
   1.703590e+02   2.429472e+01
   8.582283e+01   2.050192e+02
  -9.385835e+01   2.214862e+02
  -2.453797e+02   1.120647e+02
  -2.363848e+02  -5.955859e+01
  -1.142675e+02  -1.640060e+02
   4.792362e+01  -1.834480e+02
   7.512851e+01  -1.032244e+02
   7.223714e+01  -9.653525e+01
   7.079527e+01  -9.311449e+01
   4.721755e+01  -5.531286e+01
   9.369599e+01   5.404851e+01
   1.142282e+02   1.503266e+02
   6.922392e+00   2.133961e+02
  -1.051407e+02   1.917229e+02
  -1.894141e+02   4.479772e+01
  -1.440307e+02  -1.285251e+02
  -3.471929e+01  -1.300259e+02
   3.708290e+01  -8.774332e+01
   4.290688e+01  -1.804046e+01
   4.762660e+01   5.126245e+01
  -2.201421e+01   1.759707e+01
   3.579076e+01  -7.508822e+00
   1.363290e+02  -1.856945e+01
   1.416612e+01   3.266913e+01
  -8.587485e+01   3.083079e+01
  -2.122093e+02  -3.251144e+00
  -1.371864e+02  -6.549692e+01
  -5.564140e+01  -8.288397e+01
   9.347465e+01  -7.343994e+01
   1.866991e+02  -1.021909e+01
   7.212670e+01   3.784943e+01
  -5.050143e+01   3.146489e+01
  -4.830808e+01   1.564910e+01
  -1.833523e+01  -6.860900e+01
   5.818920e+01  -1.810874e+01
   5.062767e+01   2.260019e+01
   5.123310e+01   5.830799e+01
   6.544121e+01   9.886092e+00
   6.063397e+01  -4.517695e+01
   6.373807e+01  -5.683759e+00
   1.008453e+01   6.965187e+01
  -5.987227e+01   1.478049e+02
  -1.247060e+02   9.163734e+01
  -1.742687e+02   3.290021e+01
  -1.270046e+02  -9.278347e+01
  -3.087121e+01  -1.372033e+02
   9.115016e+01  -5.449861e+01
   6.214672e+01  -1.266297e+01
  -5.081834e+01  -1.101261e+01
  -1.478930e+02  -4.003107e+01
  -3.524287e+01  -1.123780e+02
   1.010080e+02  -6.334408e+01
   2.216862e+02  -4.575268e+01
   1.826662e+02  -1.528543e+01
   5.080575e+01   7.229043e+01
  -2.703960e+01   8.771953e+01
  -4.715128e+01   8.555256e+00
   5.690646e+01   4.644213e+00
   6.943764e+01   5.094814e+01
   6.378890e+01   1.057908e+02
  -1.052573e+02   1.611253e+02
  -1.610051e+02   6.941561e+01
  -1.347107e+02  -9.112445e+01
  -1.273523e+01  -2.279779e+02
   5.936244e+01  -1.482208e+02
   9.463184e+01  -2.050900e+01
   3.979680e+01   9.742992e+01
   1.065161e+01   1.189935e+02
  -5.356208e+01   2.494287e+01
  -6.326698e+01  -5.718991e+01
  -3.461120e+01  -7.462233e+01
   4.476840e+01   2.461667e+01
  -6.401365e-01   3.653476e+01
   9.611433e+00  -3.941795e+01
  -6.363293e+01  -1.207990e+02
   9.231461e+00  -7.048279e+01
   9.339682e+01   6.911931e+01
   1.375023e+02   8.698739e+01
   2.945709e+01   3.802929e+01
  -7.286317e+01   6.663379e+00
  -8.735003e+01   3.272717e+01
  -2.411961e+00  -2.123696e+01
   4.050085e+01  -3.632601e+01
  -3.578472e+01  -1.285369e+01
  -3.986616e+01  -9.360628e+00
   3.525074e+01  -6.441828e+00
   1.312842e+02  -2.085172e+01
   9.617687e+01  -1.580435e-03
  -6.922864e-01   1.170124e+02
  -1.151888e+02   1.214275e+02
  -1.811645e+02   4.186250e+01
  -1.562897e+02  -1.077860e+02
  -3.407174e+01  -1.673322e+02
   5.801419e+01  -1.439143e+02
   1.129676e+02  -3.534482e+01
   7.993696e+01   5.105916e+01
   3.222663e+01   9.329375e+01
   6.589774e+00  -6.008663e+00
   2.011037e+01   2.608435e+01
  -2.182970e+01   5.202444e+01
  -9.064600e+00   6.826474e+01
  -1.653396e+01   3.288887e+01
  -9.224967e+01  -8.759611e+00
  -9.309894e+01  -1.112958e+02
  -1.246821e+01  -1.034311e+02
   8.029947e+01   3.852499e+01
   7.894539e+01   7.214822e+01
   5.165765e+01   9.699674e+01
  -8.491944e+01   3.323217e+01
  -6.323081e+01  -1.292100e+01
   4.347894e+00  -6.173840e+01
   3.203429e+01   3.183120e+01
   3.371073e+01  -4.809099e+01
  -4.598764e+01  -7.640167e+00
  -6.395917e+01  -3.645500e+01
  -2.753204e+01  -1.971358e+01
   7.384991e+01  -8.325956e+01
   1.171688e+02  -8.895758e+01
   7.487428e+01  -1.491927e+01
   3.492485e+01   7.874662e+01
  -2.738057e+01   8.136074e+01
  -3.393478e+01   4.144986e+01
   2.443931e+01  -7.549966e+00
   3.906045e+01  -6.611636e+00
   4.609075e+01   3.631423e+01
   1.653041e+01   5.288689e+01
   2.098843e+01   5.293654e+01
  -6.848452e+01   7.858117e+00
  -2.305709e+01  -3.317532e+01
  -2.624553e+01   2.225401e+01
   2.202590e+00   9.760375e+00
   4.527615e+01  -4.964736e+01
  -8.886831e+00  -1.135357e+01
  -1.335930e+01  -3.282268e+01
   6.445600e+01  -5.179256e+01
   3.941532e+01   5.118869e+01
  -1.343089e+01   4.175259e+01
  -4.644188e+01   3.283582e+01
  -5.883651e+01  -1.516178e+01
  -4.794823e-01  -5.751297e+01
   7.082968e+01  -5.719893e+01
   1.069443e+02   2.529549e+01
   6.638080e+01   7.598353e+01
  -5.450002e+01   7.790363e+01
  -2.531870e+01   5.045764e+01
  -1.939359e+01   1.277915e+01
   3.048279e+01  -4.023628e+00
   3.258502e+00  -1.434559e+00
  -3.547373e+01  -4.446287e+00
  -1.141989e+02   2.670947e+01
