
 $NMID
 id='ANONYMOUS ', fmtdat='(2E16.6)'
 volume=1.0
 tramp=1.0
 $END
  -4.887085e+03  -1.208492e+02
  -2.651030e+03  -3.102993e+03
   8.297783e+02  -2.983212e+03
   2.418428e+03  -8.556434e+02
   1.066599e+03   9.931052e+02
  -9.128372e+02   6.858566e+02
  -1.001776e+03  -6.071447e+02
   1.254900e+02  -1.255543e+03
   9.481829e+02  -7.576721e+02
   1.028080e+03   1.332706e+02
   5.186564e+02   9.066957e+02
  -2.912055e+02   8.792968e+02
  -7.125159e+02   3.182638e+01
  -3.719095e+02  -8.681807e+02
   3.588997e+02  -7.547517e+02
   6.644249e+02   4.464540e+01
   1.977506e+02   7.690299e+02
  -3.751747e+02   5.942084e+02
  -5.860814e+02   3.737476e+01
  -3.838168e+02  -4.335264e+02
   7.123319e+01  -4.139595e+02
   3.067152e+02  -2.702674e+02
   3.156865e+02   7.285147e-01
   3.666244e+01   1.461256e+02
  -4.399580e+02  -5.625405e+01
  -2.614016e+02  -3.736071e+02
   4.753795e+02  -5.223408e+02
   9.689576e+02   6.225734e+01
   5.322998e+02   6.654629e+02
  -4.529428e+02   5.545597e+02
  -8.267384e+02  -4.736426e+01
  -3.914160e+02  -5.341976e+02
   2.660841e+02  -5.702531e+02
   6.203317e+02  -2.018677e+02
   4.594199e+02   3.090532e+02
   1.419060e+02   5.374774e+02
  -2.433728e+02   3.193488e+02
  -2.329235e+02  -2.384296e+02
   1.918391e+02  -5.351701e+02
   5.286938e+02   1.414951e+01
   3.081353e+02   7.538817e+02
  -3.416011e+02   7.973475e+02
  -6.703253e+02  -1.945618e+01
  -2.562316e+02  -6.355822e+02
   3.249484e+02  -3.551521e+02
   3.894640e+02   3.471498e+02
  -9.107300e+01   6.096132e+02
  -5.907405e+02   1.703849e+02
  -6.435446e+02  -4.542962e+02
  -1.534264e+02  -6.054746e+02
   4.141703e+02  -3.695749e+02
   6.821944e+02   9.744512e+01
   3.369574e+02   4.596038e+02
  -1.947438e+02   3.599814e+02
  -5.200364e+02   2.687939e+01
  -2.439568e+02  -2.285089e+02
   1.843678e+02  -1.162449e+02
   1.385683e+02   2.137298e+02
  -1.849812e+02   1.974474e+02
  -3.445554e+02  -8.215045e+01
  -1.279188e+02  -3.347205e+02
   2.498770e+02  -2.540693e+02
   3.249045e+02  -2.310618e+01
   1.403150e+02   6.514624e+01
  -3.338372e+01   1.935780e+02
  -1.927500e+02   3.033348e+02
  -3.455788e+02   2.367493e+02
  -3.204965e+02  -1.223200e+02
  -9.175958e+01  -4.752942e+02
   1.431140e+02  -4.312939e+02
   1.620475e+02  -7.571082e+01
  -1.950732e+00   5.351449e+01
   2.201526e+01  -8.435718e+01
   2.165806e+02  -2.044791e+02
   3.512507e+02   8.876753e+00
   1.988511e+02   3.186397e+02
  -5.161271e+01   2.618078e+02
  -2.485245e+02  -1.603535e+01
  -2.040519e+02  -2.740157e+02
   3.927996e+01  -3.332032e+02
   2.777758e+02  -1.367272e+02
   3.721187e+02   1.547903e+02
   2.078984e+02   4.013011e+02
  -6.568436e+01   3.083242e+02
  -2.359882e+02   9.500059e+01
  -1.412221e+02  -3.336217e+01
  -6.535238e+01   4.638514e+01
  -2.151381e+02   1.038683e+02
  -3.799461e+02  -5.271831e+01
  -3.247283e+02  -2.838628e+02
  -1.071925e+01  -4.454679e+02
   3.245908e+02  -4.301981e+02
   5.094833e+02  -2.072871e+02
   3.856788e+02   1.034734e+02
   7.203790e+01   2.965149e+02
  -1.506090e+02   2.901892e+02
  -9.701981e+01  -3.159875e+01
   1.242417e+02  -2.095612e+02
   2.639539e+02  -2.529108e+01
   8.720553e+01   2.066437e+02
  -1.743038e+02   2.107615e+02
  -1.796953e+02  -7.580737e+01
   7.214920e+01  -1.911631e+02
   2.565408e+02  -3.472377e+01
   1.724428e+02   2.892060e+02
  -4.484697e+01   3.801072e+02
  -2.362326e+02   1.830460e+02
  -3.235037e+02  -5.624873e+01
  -2.909559e+02  -2.152260e+02
  -1.336651e+02  -2.557043e+02
   6.032330e+01  -1.682913e+02
   1.908351e+02  -1.051565e+02
   1.057360e+02   5.756310e+00
  -7.284513e+01  -4.131903e+01
  -4.328025e+01  -1.020492e+02
   1.426810e+02  -4.856082e+01
   2.096476e+02   1.235815e+01
   9.608991e+01   9.878284e+01
  -7.420636e+01   5.646023e+01
  -8.615267e+01  -5.084243e+01
   1.213922e+02  -5.903519e+01
   2.655644e+02  -2.701139e+01
   3.071133e+02   1.125002e+02
   7.616357e+01   2.735572e+02
  -1.945766e+02   3.067714e+02
  -3.030695e+02   1.435431e+02
  -1.739899e+02  -9.776538e+01
   1.250928e+01  -1.315895e+02
   9.528442e+01  -4.073032e+01
  -1.540197e+01   1.266925e+02
  -1.961500e+02   2.876143e+01
  -1.966610e+02  -7.728173e+01
  -7.975882e+01  -2.274083e+02
   1.464920e+02  -1.812418e+02
   1.637773e+02  -2.250578e+01
   1.511785e+02   5.033994e+01
   2.330579e+01   4.344945e+01
  -4.804232e+01  -7.792715e+01
   5.216743e+01  -8.610928e+01
   1.569449e+02  -4.382367e+01
   2.057921e+02   1.626157e+02
  -1.777071e+01   2.342028e+02
  -1.591346e+02   1.830713e+02
  -1.887146e+02  -4.495516e+00
  -4.444372e+01  -1.540913e+02
   5.583698e+01  -9.307969e+01
   4.394927e+01  -2.949186e+01
   6.552724e+00   1.178285e+01
   4.249720e+00  -3.404619e+01
   2.577626e+01   2.858175e+01
   8.076409e+01   5.691800e+01
   7.834840e+01   9.099872e+01
   1.556113e+01   1.412936e+02
  -1.130316e+02   1.100188e+02
  -2.396662e+02   2.798344e+01
  -2.327704e+02  -1.471088e+02
  -2.809981e+01  -2.491586e+02
   9.770253e+01  -1.588467e+02
   1.519296e+02  -1.296439e+01
   9.774419e+01   8.513643e+01
   6.391560e+01   4.130257e+01
   1.026105e+01  -3.388965e+01
   6.751391e+01  -4.823497e+01
   3.386019e+01  -1.978078e+01
  -6.518729e+01   5.857651e+01
  -1.793974e+01   6.771757e+01
  -7.459612e+01  -2.362312e+01
   4.322705e+01  -1.164579e+02
   1.223957e+02  -8.907012e+01
   1.735382e+02   3.428917e+01
   9.104093e+01   2.190818e+02
  -1.153675e+02   2.324591e+02
  -2.457394e+02   1.368454e+02
  -3.004921e+02  -7.650674e+01
  -1.416444e+02  -1.937174e+02
   3.414568e+01  -1.848447e+02
   1.237733e+02  -1.179525e+02
   1.332716e+02  -6.462091e+01
   8.534645e+01  -9.009585e+01
   8.882431e+01  -3.126677e+01
   1.238522e+02   4.501326e+01
   1.036629e+02   1.596452e+02
   2.802005e+01   2.151224e+02
  -1.001860e+02   1.454347e+02
  -1.563747e+02   2.217429e+01
  -1.040904e+02  -1.366550e+02
  -1.532825e+01  -1.748243e+02
   1.165136e+02  -1.076515e+02
   7.890292e+01  -9.265213e+00
   1.220392e+01   7.649676e+01
   1.169492e+01   4.233053e+01
   3.285699e+01   2.118326e+01
   7.105480e+01   5.975520e+01
   8.538429e+01   6.594972e+01
  -5.719817e+01   7.874364e+01
  -1.318805e+02   8.687847e+00
  -1.636903e+02  -2.319675e+01
  -4.189751e+01  -7.075498e+01
   1.154858e+02  -1.109876e+02
   1.612331e+02  -6.596610e+01
   4.516870e+01  -1.392167e+01
  -5.167956e+01   5.267883e+01
  -2.759663e+01   1.661698e+01
   4.986035e+00  -4.108757e+01
   5.089989e+01  -4.043026e+01
   5.849055e+01   4.472711e+00
   6.615074e+01   7.524331e+01
   8.387324e+01   5.413266e+01
   6.408651e+01  -1.969523e+01
   7.341872e+01   2.972648e+01
   3.947874e+01   5.597891e+01
  -2.832131e+01   1.552650e+02
  -8.216915e+01   1.288234e+02
  -1.483647e+02   1.909927e+01
  -1.092221e+02  -3.391181e+01
  -1.072216e+01  -7.243643e+01
   8.114108e+01  -1.189688e+01
   4.819495e+01   2.334978e+01
  -8.338462e+01  -2.941689e+01
  -1.565190e+02  -2.055391e+01
  -6.001789e+01  -1.196150e+02
   8.517679e+01  -1.046651e+02
   2.027702e+02  -5.379594e+01
   1.737541e+02   3.203663e+01
   1.520389e+01   1.133991e+02
  -5.351196e+01   7.245849e+01
  -9.618515e+01   3.930262e+01
   3.273295e+01  -1.613060e+01
   1.065889e+02   4.772106e+01
   4.764537e+01   1.133035e+02
  -6.908620e+01   1.243327e+02
  -1.505236e+02   9.228337e-01
  -7.635116e+01  -1.131821e+02
   1.947910e+00  -1.937811e+02
   1.072309e+02  -9.220883e+01
   9.824007e+01   5.244467e+01
   6.978548e+01   1.501897e+02
  -3.369268e+00   1.063526e+02
  -6.902251e+00   1.664715e+00
  -5.322318e+01  -2.071426e+01
  -5.709953e+01  -2.777293e+00
  -3.051651e+01   5.769486e+01
  -5.329403e+01  -9.129394e+00
  -5.270435e+01  -8.196436e+01
  -4.899466e+01  -1.234122e+02
   3.837663e+01  -6.393514e+01
   1.173385e+02   4.112738e+01
   1.523853e+02   5.694229e+01
   3.221286e+01   8.797553e+01
  -1.054042e+02   1.101200e+01
  -1.015350e+02   4.172581e+01
  -1.651745e+01  -4.223836e+01
   3.599171e+01  -2.643642e+01
   1.616949e+01  -2.592234e+01
  -3.855644e+01  -2.710610e+01
   6.672219e+00  -3.159183e+00
   1.043221e+02   6.958398e+01
   9.382602e+01   7.215832e+01
  -1.627573e+01   8.351753e+01
  -1.770387e+02   1.112980e+02
  -2.134636e+02   5.524095e+01
  -1.655221e+02  -3.478845e+01
  -3.170422e+01  -1.546051e+02
   3.612171e+01  -1.672030e+02
   1.313795e+02  -3.586355e+01
   1.077871e+02   8.482649e+01
  -3.912376e+00   8.490156e+01
  -5.067071e+01   2.878151e+01
   9.823642e+00  -3.751433e+00
   1.790891e+01   6.772291e+01
   1.728305e+01   1.172032e+02
  -4.895556e+01   8.039290e+01
  -1.003162e+02  -5.767652e+01
  -4.160827e+01  -1.729691e+02
   3.312907e+01  -1.134932e+02
   1.232800e+02  -3.956741e+01
   9.926518e+01   6.588557e+01
   7.254765e+01   1.258269e+02
  -8.395911e+01   7.784140e+01
  -7.493429e+01  -4.498842e-01
  -2.084613e+01  -1.001745e+01
   5.580187e+01  -4.989137e+01
   1.532598e+01  -3.003145e+01
  -6.062528e+01   2.572819e+01
  -8.648010e+01   1.770507e+01
  -3.400398e+01  -1.505753e+01
   7.339115e+01  -7.583860e+01
   1.005079e+02  -1.136453e+02
   8.458094e+01  -1.621168e+01
  -2.333182e+01   1.070702e+02
  -2.826007e+01   1.503942e+02
  -9.109455e+00  -7.246503e+00
   2.307102e+00  -1.049394e+02
   8.400939e+00  -3.598119e+01
   4.345546e+01  -1.607227e+01
   3.222587e+01   4.738006e+01
  -6.614305e+00  -2.310369e+01
  -2.142214e+01  -4.056817e+01
  -2.545593e+01  -4.029839e+01
  -2.972291e+00  -1.154297e+00
   3.225232e+00  -8.522570e-01
   2.910445e+01  -3.379676e+00
   4.265569e+00  -1.635277e+01
   2.860400e+01  -2.768952e+01
   5.477866e+01   1.620198e+01
   3.714128e+01   3.433412e+01
  -2.313829e+01   6.720412e+01
  -1.943976e+01   1.166819e+01
  -3.055888e+01  -6.030257e+01
  -6.090515e+01  -8.906924e+01
   8.581750e+01  -3.588192e+01
   1.023790e+02   2.694961e+01
   4.086293e+01   5.282046e+01
  -2.012771e+01   8.704449e+01
  -9.597584e+01   2.892581e+01
  -5.732723e+01   5.035180e+00
   5.637771e+01   4.490145e+00
   3.577803e+01   1.326715e+01
  -6.734278e+01  -6.254974e+00
  -1.071893e+02   1.348473e+01
