
 $NMID
 id='ANONYMOUS ', fmtdat='(2E16.6)'
 volume=1.0
 tramp=1.0
 $END
  -4.594752e+03  -6.563700e+01
  -2.745873e+03  -2.830121e+03
   9.408555e+02  -2.873483e+03
   2.308173e+03  -9.708286e+02
   1.083370e+03   8.195888e+02
  -8.711840e+02   6.884345e+02
  -9.735597e+02  -5.543196e+02
   5.678396e+01  -1.168236e+03
   8.472562e+02  -8.025154e+02
   9.707351e+02   1.587309e+02
   4.105666e+02   1.033172e+03
  -2.941007e+02   9.385879e+02
  -7.186436e+02   1.294004e+02
  -3.620889e+02  -7.634690e+02
   3.544816e+02  -7.482686e+02
   6.271849e+02  -1.817571e+01
   2.750517e+02   6.985394e+02
  -4.187125e+02   6.737894e+02
  -6.653323e+02   5.526194e+01
  -3.321285e+02  -3.828846e+02
  -9.465437e+00  -4.885765e+02
   2.907828e+02  -3.130153e+02
   2.483576e+02  -6.222413e+01
  -7.950510e+01   9.202199e+01
  -4.115633e+02  -1.486972e+02
  -2.938688e+02  -4.939095e+02
   4.330524e+02  -5.420960e+02
   9.487636e+02   8.441562e+01
   5.049427e+02   5.905316e+02
  -4.673326e+02   6.019237e+02
  -8.078506e+02  -1.209558e+01
  -3.739657e+02  -5.236534e+02
   3.012565e+02  -5.664508e+02
   5.735307e+02  -1.801053e+02
   3.479594e+02   2.512216e+02
   4.385220e+01   5.297137e+02
  -2.731003e+02   2.880358e+02
  -1.751853e+02  -2.817813e+02
   2.164298e+02  -4.786993e+02
   4.762558e+02   3.577895e+01
   2.981907e+02   7.323286e+02
  -3.244292e+02   7.801896e+02
  -6.441774e+02   4.871335e+00
  -2.613115e+02  -6.116129e+02
   3.005778e+02  -3.604205e+02
   3.880261e+02   3.072484e+02
  -8.527319e+01   5.899282e+02
  -6.123617e+02   1.968986e+02
  -6.252055e+02  -4.105914e+02
  -1.894736e+02  -6.156030e+02
   3.547343e+02  -3.905366e+02
   6.688003e+02   6.874341e+01
   3.891785e+02   4.126776e+02
  -2.085068e+02   3.987548e+02
  -4.790676e+02   6.223086e+01
  -2.670898e+02  -1.888087e+02
   1.360952e+02  -1.911029e+02
   1.486233e+02   1.718553e+02
  -1.740670e+02   2.343850e+02
  -3.076906e+02  -1.076774e+02
  -7.918874e+01  -3.139606e+02
   2.189315e+02  -2.618674e+02
   3.314209e+02  -7.036718e+01
   1.870899e+02   7.358290e+01
  -7.386722e+01   2.293660e+02
  -2.306114e+02   3.481290e+02
  -3.839688e+02   2.236670e+02
  -3.307676e+02  -2.067541e+02
  -5.151884e+01  -5.157486e+02
   2.047862e+02  -4.318742e+02
   1.911619e+02  -1.155548e+02
   5.072313e+01   8.161922e+01
   2.203151e+01  -4.104136e+01
   1.826588e+02  -9.991330e+01
   2.890006e+02   8.173752e+01
   1.433397e+02   3.088632e+02
  -6.360710e+01   2.466412e+02
  -2.619301e+02   2.337951e+01
  -2.613424e+02  -2.710477e+02
  -2.249749e+01  -3.106248e+02
   2.814730e+02  -1.720108e+02
   3.735836e+02   1.395874e+02
   2.276787e+02   3.748390e+02
  -1.027540e+02   3.467364e+02
  -2.505791e+02   9.412899e+01
  -1.498026e+02  -4.714763e+01
  -1.229204e+02   2.057375e+01
  -2.604155e+02   9.674365e+01
  -4.522455e+02  -5.441851e+01
  -3.384617e+02  -2.567482e+02
  -6.265591e-01  -4.548266e+02
   3.574153e+02  -4.726879e+02
   4.956879e+02  -2.211578e+02
   3.624662e+02   7.007757e+01
   9.078239e+01   3.071479e+02
  -1.530405e+02   2.541630e+02
  -9.287596e+01   6.783949e+01
   1.774014e+02  -6.907744e+01
   2.125653e+02   6.290754e+00
   7.123390e+01   1.901558e+02
  -1.786008e+02   1.812460e+02
  -1.921800e+02  -6.340412e+01
   3.291216e+01  -1.602417e+02
   2.019986e+02  -1.402693e+01
   1.699765e+02   2.365562e+02
  -4.650563e+01   3.576645e+02
  -2.275235e+02   2.101590e+02
  -3.309071e+02  -4.920088e+01
  -3.073706e+02  -2.370657e+02
  -1.332805e+02  -2.700094e+02
   1.059386e+02  -2.072804e+02
   1.592079e+02  -6.012509e+01
   4.485687e+01  -2.309973e+01
  -3.990538e+01  -5.863295e+01
  -6.836695e+00  -1.237984e+02
   1.542659e+02  -9.811600e+01
   1.719998e+02   4.070921e+00
   6.129541e+01   5.312081e+01
  -1.097279e+02   3.064664e-01
  -4.487872e+01  -7.716637e+01
   1.286673e+02  -5.833413e+01
   3.159041e+02  -1.045969e+00
   2.919906e+02   1.557531e+02
   4.326537e+01   2.821595e+02
  -1.698177e+02   2.474151e+02
  -2.433371e+02   8.921682e+01
  -1.225186e+02  -6.247956e+01
   2.295155e+01  -6.132241e+01
   1.335060e+02   2.669877e+01
  -6.833067e+01   9.712528e+01
  -2.151511e+02   6.207848e+01
  -2.518147e+02  -1.074372e+02
  -5.932697e+01  -2.023264e+02
   1.220898e+02  -1.670076e+02
   1.491419e+02  -3.204514e+01
   4.085892e+01   3.049972e+00
  -3.637162e+01   1.528594e+00
  -3.273996e+01  -5.533722e+01
   5.583519e+01  -8.142948e+01
   2.516283e+02  -1.706644e+01
   1.887255e+02   1.693217e+02
   1.838556e+01   2.347420e+02
  -1.726799e+02   1.636021e+02
  -1.937842e+02   7.599258e+00
  -5.749301e+01  -8.078488e+01
   4.883359e+01  -1.308639e+02
   7.356183e+01  -1.693979e+01
  -1.973597e+01  -3.605759e+01
   2.976206e+01   2.030503e+01
   3.552249e+01  -2.729105e-01
   5.786059e+01   4.288720e-01
   4.335992e+01   5.694930e+01
  -3.834592e+01   1.879730e+02
  -1.128822e+02   1.317734e+02
  -1.799581e+02   3.435172e+01
  -1.986678e+02  -1.616966e+02
  -3.478703e+01  -1.932534e+02
   9.554144e+01  -1.595589e+02
   1.718816e+02  -4.424748e+01
   7.826170e+01   4.381258e+01
   2.343805e+01   4.542169e+01
   6.199432e+01   6.083581e+00
   8.948438e+01  -1.857270e+01
   3.034625e+01   3.185879e+01
  -5.072007e+01   9.174485e+01
  -1.619573e+02   5.363436e+01
  -6.854591e+01  -7.227760e+01
   3.036148e+01  -1.348647e+02
   1.291173e+02  -1.025655e+02
   1.730121e+02   2.461982e+01
   5.260930e+01   2.273022e+02
  -1.414030e+02   2.190150e+02
  -2.796060e+02   6.630636e+01
  -2.299160e+02  -1.278792e+02
  -1.248445e+02  -2.095154e+02
   2.968932e+01  -1.502393e+02
   8.864242e+01  -8.158527e+01
   1.111311e+02  -8.434181e+01
   6.477303e+01  -9.914483e+01
   8.834649e+01  -8.407943e+01
   9.513824e+01   5.761806e+01
   1.230719e+02   2.200746e+02
   1.938278e+01   2.460885e+02
  -1.210651e+02   1.702160e+02
  -1.796865e+02   5.784350e+00
  -1.424199e+02  -9.022675e+01
  -2.938413e+01  -1.256623e+02
   8.378464e+01  -6.059428e+01
   5.035922e+01  -1.896366e+01
   2.280573e+01   5.043442e+01
   4.646828e+00   1.177447e+00
   7.241001e+01   4.979860e+01
   8.166902e+01   3.958228e+01
   8.432283e+01   3.329008e+01
  -9.832807e+01  -2.991895e+00
  -1.372041e+02   5.751099e+00
  -1.377604e+02  -6.092151e+01
  -2.001973e+01  -8.692869e+01
   8.081825e+01  -1.089811e+02
   1.269178e+02  -2.119723e+01
   7.208831e+01   6.989718e+01
  -4.115679e+01   3.984095e+01
  -7.034963e+01  -4.734778e+01
  -6.428108e+00  -8.739666e+01
  -2.163355e+00  -3.902360e+01
   1.065337e+02   2.058916e+01
   4.639946e+01   7.873909e+01
   6.380093e+01   2.718158e+01
   1.020189e+02   4.438462e+00
   1.956663e+01   1.332994e+01
   3.530238e+01   2.986459e+01
   6.691742e+00   1.505644e+02
  -1.660781e+02   1.329642e+02
  -1.610399e+02   7.836271e+00
  -1.262652e+02  -8.837214e+01
   1.965893e+01  -1.153256e+02
   1.142182e+02  -6.886433e+01
   2.869793e+01   3.746057e+01
  -1.156620e+02  -3.017086e+00
  -1.501562e+02  -8.791533e+01
  -7.154835e+01  -1.132081e+02
   7.264556e+01  -1.289445e+02
   2.160227e+02  -6.220559e+01
   1.942463e+02   4.562198e+01
  -1.384247e+01   1.469483e+02
  -7.503298e+01   7.129569e+01
  -4.634053e+01   2.499663e+01
   5.897075e+01  -4.700726e+01
   1.159324e+02   1.826369e+01
   1.835487e+01   9.299188e+01
  -1.235812e+02   1.708684e+02
  -1.268949e+02   6.213403e+01
  -7.540655e+01  -1.348870e+02
   2.572966e+01  -2.014754e+02
   8.192364e+01  -1.590289e+02
   9.599432e+01  -1.174423e+01
   1.211556e+02   9.989845e+01
   1.799524e+01   1.091753e+02
  -4.955412e+01   1.438392e+01
  -6.972893e+01  -3.602370e+01
  -2.999478e+01  -1.640482e+01
  -3.372299e+01  -2.553658e+01
  -1.250748e+01  -6.878911e+01
  -7.183290e+01  -1.045830e+02
  -3.439662e+01  -1.233475e+02
   4.107244e+01  -2.921001e+01
   1.451064e+02   9.736766e+01
   1.335785e+02   4.611594e+01
   1.676115e+00   3.414268e+01
  -7.685201e+01   1.893122e+01
  -9.812015e+01   2.436569e+00
  -7.102958e+01  -2.052714e+01
   2.310447e+01  -6.505443e+01
  -1.239651e+01  -5.267140e+01
   1.231144e+01  -2.496187e+01
   4.481358e+01   2.604225e+01
   3.347311e+01  -1.864400e+01
   6.126305e+01   1.747359e+01
  -1.230569e+01   6.579734e+01
  -1.658319e+02   1.385076e+02
  -1.694397e+02   4.789400e+01
  -1.463663e+02  -1.220713e+02
  -6.440154e+00  -1.226356e+02
   4.544354e+01  -7.653301e+01
   1.325032e+02  -2.984028e+01
   8.338611e+01   1.024625e+01
   2.808540e+01   5.018364e+01
   6.054858e+01   5.885306e+01
   1.743266e+01   3.971690e+01
   5.287895e+00   6.419959e+01
  -2.332366e+01   1.047573e+02
  -4.471959e+01   1.018702e+02
  -6.269661e+01  -1.198301e+00
  -5.780227e+01  -1.304266e+02
   1.559312e+01  -1.304786e+02
   7.798140e+01  -4.521930e+01
   1.253087e+02   7.003332e+01
   7.646457e+01   4.935113e+01
  -3.028203e+01   6.366751e+01
  -4.223002e+01  -6.633745e+00
  -1.325842e+01  -5.345416e+01
   5.305908e+01  -7.957801e+01
   6.118133e+01  -5.830081e+01
  -4.065602e+01  -2.588549e+01
   5.712899e+00   1.924781e+01
   1.742424e+01   1.201731e+01
   6.841554e+01  -3.905822e+01
   1.135403e+02  -8.784612e+01
   6.691683e+01   1.122412e+01
  -4.818778e+01   4.424194e+01
  -7.299696e+00   3.355086e+01
   1.654157e+01  -6.748597e+00
   2.921804e+01  -5.121544e+01
   4.879475e+01  -2.036297e+01
   4.938639e+00   4.647890e+01
   2.309029e+01   7.731132e+01
  -1.027727e+01   1.840534e+01
  -3.401663e+01  -4.523576e+01
  -9.155663e+01  -7.152706e+01
   1.851418e+01  -4.153020e+01
   7.557468e+00   2.339724e+01
   4.039954e+01  -1.931448e+01
  -8.233277e+00  -6.032267e+01
   3.309955e+01  -9.664524e+00
   3.379536e+01   3.881643e+01
   1.757968e+01   7.977469e+01
  -8.222377e+01   6.764757e+01
  -7.753102e+01   5.003893e+01
  -1.058787e+02  -7.029508e+01
  -3.067480e+01  -7.522548e+01
   5.483233e+01  -2.491140e+01
   8.199644e+01  -2.082704e+01
   8.523981e+01   6.377640e+01
  -7.712417e+00   8.053519e+01
  -7.041049e+01  -3.518414e+00
  -7.316577e+00  -1.540503e+01
   4.095498e+01   1.902000e+01
   2.781540e+01   3.350264e+01
  -8.730062e+01   3.683630e+01
  -8.103468e+01   1.939299e+01
