
 $NMID
 id='ANONYMOUS ', fmtdat='(2E16.6)'
 volume=1.0
 tramp=1.0
 $END
   4.297704e+03  -6.506699e+01
   2.560164e+03   2.709705e+03
  -6.746000e+02   2.753790e+03
  -2.175912e+03   7.723896e+02
  -8.322156e+02  -8.149816e+02
   7.365579e+02  -5.415113e+02
   9.299280e+02   4.604997e+02
  -9.158223e+01   1.054490e+03
  -8.746507e+02   7.583944e+02
  -8.917958e+02  -1.454246e+02
  -4.457057e+02  -9.148283e+02
   2.991033e+02  -8.279033e+02
   7.331050e+02  -1.447069e+02
   4.011878e+02   7.079640e+02
  -3.152161e+02   7.509191e+02
  -5.766312e+02  -9.690267e+01
  -2.396219e+02  -5.636065e+02
   3.784241e+02  -6.336555e+02
   5.801890e+02  -7.059865e+01
   4.075160e+02   4.694110e+02
  -4.762532e+01   4.246792e+02
  -2.827361e+02   2.935183e+02
  -2.089009e+02  -2.683498e+01
   1.490330e+02  -6.571896e+01
   3.432933e+02   3.890837e+01
   1.749374e+02   4.783459e+02
  -4.714680e+02   4.768917e+02
  -9.021003e+02  -9.526221e+01
  -4.431377e+02  -6.362018e+02
   4.327511e+02  -6.286100e+02
   7.965411e+02   1.309754e+01
   3.430530e+02   5.275483e+02
  -2.855961e+02   5.230731e+02
  -5.652636e+02   1.889561e+02
  -3.870161e+02  -2.147297e+02
  -4.385566e+01  -4.527399e+02
   1.810451e+02  -2.810118e+02
   1.910422e+02   2.086302e+02
  -1.426218e+02   4.177296e+02
  -4.621990e+02   2.391468e+01
  -2.501388e+02  -7.186462e+02
   3.688083e+02  -6.923591e+02
   6.371129e+02   2.970331e+01
   2.909672e+02   6.377453e+02
  -3.620112e+02   3.538805e+02
  -4.379376e+02  -3.453587e+02
   6.077012e+01  -5.845699e+02
   5.750591e+02  -1.572008e+02
   6.091178e+02   4.339549e+02
   1.453555e+02   6.279149e+02
  -4.796253e+02   3.568045e+02
  -6.527308e+02  -9.547840e+01
  -3.279541e+02  -3.687852e+02
   1.390869e+02  -3.229586e+02
   4.570198e+02  -5.588850e+01
   2.600537e+02   2.050096e+02
  -1.513776e+02   7.662380e+01
  -1.224172e+02  -1.720376e+02
   1.785758e+02  -1.707159e+02
   3.794626e+02   8.508462e+01
   1.788804e+02   3.415196e+02
  -1.538474e+02   2.757560e+02
  -2.980719e+02   1.224232e+02
  -2.013569e+02  -5.795905e+01
   2.280369e+01  -2.410085e+02
   2.342767e+02  -2.823520e+02
   2.901861e+02  -1.577125e+02
   2.435012e+02   8.737105e+01
   8.813383e+01   4.119012e+02
  -1.231141e+02   3.946910e+02
  -1.152673e+02   9.654973e+01
   3.594067e+00  -3.445422e+01
  -5.388212e-01   5.493198e+01
  -1.665238e+02   1.424944e+02
  -2.972727e+02  -9.635216e+01
  -1.550572e+02  -3.107551e+02
   9.118416e+01  -3.094286e+02
   2.482623e+02  -3.747130e+01
   2.908392e+02   2.440177e+02
   3.995073e+01   3.463491e+02
  -2.313777e+02   9.938529e+01
  -3.769401e+02  -2.101907e+02
  -2.134081e+02  -3.888084e+02
   1.111098e+02  -3.153581e+02
   1.850434e+02  -1.203214e+02
   1.125829e+02  -6.376230e+00
   9.223368e+01  -4.792840e+01
   2.683621e+02  -8.189468e+01
   4.292596e+02   3.703079e+01
   3.689170e+02   2.724792e+02
   1.686312e+01   4.125530e+02
  -3.412394e+02   3.929776e+02
  -5.324495e+02   1.952773e+02
  -3.147080e+02  -9.264216e+01
  -6.371284e+00  -3.028774e+02
   1.919597e+02  -2.546799e+02
   1.278646e+02   1.213501e+01
  -1.053364e+02   1.156685e+02
  -1.981231e+02  -9.548543e+00
  -7.462054e+01  -2.242411e+02
   1.379447e+02  -1.700745e+02
   1.671930e+02   6.177852e+01
   2.705835e+00   1.958167e+02
  -1.637746e+02   6.957526e+01
  -1.523029e+02  -2.710403e+02
   6.456296e+01  -3.373684e+02
   1.755098e+02  -1.634849e+02
   3.004818e+02   1.440586e+02
   2.415442e+02   2.729056e+02
   9.935398e+01   2.315039e+02
  -1.323344e+02   1.361040e+02
  -1.860661e+02   1.981792e+01
  -6.323540e+01  -3.536477e+01
   9.444580e+01   4.519945e+01
   2.069360e+01   5.020072e+01
  -1.320634e+02   8.269936e+01
  -1.433195e+02   7.083146e+00
  -2.644630e+01  -9.459185e+01
   7.933067e+01  -3.967889e+01
   9.014156e+01   8.023052e+01
  -8.921679e+01   4.472749e+01
  -2.977049e+02   3.145122e+01
  -2.111739e+02  -1.085269e+02
  -4.628089e+01  -2.501993e+02
   1.996244e+02  -2.600692e+02
   3.220962e+02  -1.434782e+02
   1.538926e+02   6.177993e+01
  -1.420926e+01   1.690443e+02
  -6.534782e+01   3.008645e+01
   4.813141e+01  -1.117687e+02
   1.329327e+02  -2.275378e+01
   1.935514e+02   7.270055e+01
   6.604310e+01   1.939031e+02
  -7.709019e+01   1.543615e+02
  -1.390369e+02   4.395609e+01
  -7.178133e+01  -4.107604e+01
   2.693276e+01  -2.055398e+01
   1.850319e+01   8.780015e+01
  -7.575627e+01   1.172584e+02
  -1.877949e+02   1.029964e+01
  -1.944735e+02  -1.449575e+02
   9.528490e+00  -2.290571e+02
   1.622157e+02  -1.742351e+02
   2.248078e+02   1.397805e+01
   1.113122e+02   1.697999e+02
  -4.791138e+01   1.604564e+02
  -8.220474e+01   2.791601e+01
   1.008425e+01  -1.962618e+01
   8.422519e+00  -7.438307e+00
  -2.583966e+01   3.239989e+01
  -8.392825e+01   2.865356e+01
  -4.885617e+01  -3.142006e+01
   2.084195e+01  -1.887254e+02
   1.349237e+02  -1.680622e+02
   1.937907e+02   4.923243e+00
   2.134520e+02   1.942536e+02
   1.364111e+01   2.401913e+02
  -1.134770e+02   1.211572e+02
  -1.401444e+02   1.561690e+01
  -5.785680e+01  -3.777390e+01
  -2.538580e+01  -4.787907e+01
  -2.264743e+01   2.992357e+01
  -7.715671e+01  -1.770665e+01
  -3.923348e+01  -3.539078e+00
  -8.189684e+00  -9.827626e+01
   1.046005e+02  -6.924703e+01
   1.094131e+02   4.789121e+01
   1.496863e+01   5.721917e+01
  -1.189843e+02   8.704943e+01
  -1.842154e+02  -5.351904e+01
  -1.272155e+02  -2.249713e+02
   1.004726e+02  -2.002848e+02
   2.687668e+02  -1.234843e+02
   2.716262e+02   7.119372e+01
   1.571140e+02   1.661148e+02
  -5.161999e+01   1.521252e+02
  -1.559804e+02   5.010621e+01
  -1.261182e+02   5.234750e+01
  -6.196396e+01   5.846089e+01
  -8.642166e+01   6.296143e+01
  -1.002607e+02  -3.922756e+01
  -9.542178e+01  -1.693717e+02
  -2.479145e+01  -2.126513e+02
   6.919934e+01  -1.541848e+02
   2.051716e+02  -5.583811e+01
   1.582644e+02   1.311834e+02
   4.263539e+01   1.991799e+02
  -4.184998e+01   5.988653e+01
  -8.633346e+01   3.500931e+01
   1.395651e+01  -3.571198e+01
   1.006902e+01   3.427148e+00
  -6.984204e+01  -5.710360e+00
  -7.219593e+01   1.320879e+01
  -5.574229e+01  -4.432409e+01
   4.054950e+01  -3.224899e+01
   1.503421e+02  -3.637471e+01
   1.148251e+02   3.100703e+01
   3.565066e+01   5.370432e+01
  -1.145507e+02   7.419107e+01
  -1.291526e+02   3.286922e+01
  -5.591621e+01  -2.050178e+01
   7.866367e+01  -5.048463e+01
   1.075555e+02   2.138480e+01
   2.539512e+01   2.837345e+01
  -6.577256e+01   1.649577e+01
  -8.650419e+01   1.652993e+01
  -4.474438e+01  -4.282536e+01
  -6.869537e+01  -4.994640e+01
  -2.783755e+01   4.215208e+00
  -6.696513e+01   2.760944e+01
  -1.973672e+01  -6.537192e+01
   1.213124e+01  -1.355439e+02
   7.948415e+01  -1.389933e+02
   1.154657e+02  -2.352185e+01
   1.240642e+02   6.987345e+01
  -6.467091e+00   1.513755e+02
  -5.615480e+01   4.634481e+01
  -9.202790e+01   8.703162e-02
   7.265988e+01  -5.121752e+01
   1.837692e+02   4.772310e+01
   1.065341e+02   1.142053e+02
  -9.329691e+01   1.126600e+02
  -1.753753e+02   9.126734e+01
  -1.779418e+02   1.821754e+01
  -1.876468e+01  -8.151231e+01
   4.296972e+01  -7.812684e+01
   5.801026e+01  -7.844355e+01
  -9.158650e+01   3.331016e+01
  -1.150786e+02  -5.152346e+01
  -3.479491e-01  -1.109187e+02
   1.124929e+02  -1.225856e+02
   1.206459e+02  -5.336422e+01
   1.024080e+02   9.359353e+01
  -2.106967e+01   2.021968e+02
  -5.583637e+01   1.324700e+02
  -1.122709e+02   8.974343e+00
  -8.623567e+01  -1.139210e+02
   1.800851e+01  -6.728086e+01
   5.866332e+01  -4.369372e+01
   8.225999e+01   3.102502e+01
   1.287389e+01   2.340154e+01
   4.876942e+00  -3.706588e+01
   6.073950e+00   6.686933e+01
   1.831174e+01   9.915274e+01
   3.555780e+01   1.387039e+02
  -4.504489e+01   3.307807e+01
  -1.179881e+02  -4.317007e+01
  -1.142826e+02  -7.641540e+01
  -2.758011e+01  -3.223416e+01
   9.457591e+01  -1.294813e+01
   9.156418e+01  -6.496415e+00
   5.273499e+01   4.291241e+01
  -2.093455e+01   3.422677e+01
  -4.964708e-02   1.542031e+01
   4.166338e+01   4.409362e+01
   7.235378e+00  -6.334568e+01
  -7.013385e+01  -5.841696e+01
  -1.029123e+02  -2.221232e+01
   2.528914e+01  -2.174099e+01
   8.289035e+01  -1.258654e+02
   2.130108e+02  -7.328280e+01
   1.272093e+02   6.968151e+01
   2.576291e+01   1.357250e+02
  -3.459394e+01   1.226173e+02
  -1.077220e+02   8.486660e+01
  -7.607585e+01  -1.466033e+01
  -2.662885e+01  -3.226591e+00
  -3.617711e+01  -1.174981e+01
   5.162059e+00   2.932291e+01
  -2.051145e+01  -2.605915e+01
   1.532419e+00  -1.218223e+02
   3.299976e+01  -4.996876e+01
   8.183821e+01   9.224799e+00
   2.681121e+01   6.859821e+01
  -2.855539e+01   1.008686e+02
  -6.518228e+01  -1.649757e+01
  -9.963985e+01  -7.710621e+01
  -4.032962e+01  -1.279832e+02
   8.901015e+01  -8.959195e+01
   8.326940e+01  -1.544872e+01
   1.258531e+01   8.931474e+01
  -8.076365e+01   8.886218e+01
  -3.990241e+00   3.322110e+01
   5.773632e+00  -1.466387e+01
   8.082585e+01  -1.765745e+01
  -6.042929e+00   4.672876e+00
  -8.349119e+01   3.912227e+01
  -1.335792e+02   6.299214e+01
  -7.335080e+01  -1.215753e+01
   2.933322e+01  -8.591071e+01
   4.709715e+01  -8.822253e+01
   2.909802e+01  -3.931994e+00
  -1.056734e+01   7.616773e+01
  -3.302908e+01   6.221932e+01
  -4.919087e+01  -2.180768e+01
  -4.450758e+01  -6.580422e+01
  -1.543526e+01  -3.768764e+01
   3.409985e+01   2.869718e+01
   3.411168e+01   1.708073e+01
   3.068433e+01   2.528168e+00
   1.513227e+01   3.107726e+00
  -1.384098e+01  -3.392029e+00
  -9.082464e+00   3.996200e+01
  -9.746756e+00   3.658381e+01
  -1.064757e+01  -1.556643e+00
  -4.495442e+01  -6.588673e+01
  -9.083264e+00  -5.710728e+01
   2.434297e+01  -3.057946e+01
   5.037195e+01   3.346459e+01
   1.508953e+01   6.879093e+01
  -2.903431e+01   5.254039e+00
  -1.287223e+01  -1.134026e+01
  -7.067736e+01  -4.713335e+01
   2.589788e+01  -1.889323e+01
   6.549704e+01  -1.163078e+01
   3.576514e+01  -1.299910e+01
  -4.123600e+01   3.635488e+01
  -6.427191e+01  -1.347337e+01
   1.137657e+00  -5.177779e+00
   5.821140e+01  -4.575506e+01
