
 $NMID
 id='ANONYMOUS ', fmtdat='(2E16.6)'
 volume=1.0
 tramp=1.0
 $END
   4.452031e+03   9.481103e+01
   2.551881e+03   2.806598e+03
  -8.570712e+02   2.724326e+03
  -2.157268e+03   7.101146e+02
  -8.632329e+02  -7.610366e+02
   7.261744e+02  -5.739866e+02
   9.226051e+02   6.004145e+02
  -1.167447e+01   1.128962e+03
  -8.970425e+02   7.798864e+02
  -9.379388e+02  -1.123324e+02
  -4.831290e+02  -9.583591e+02
   3.197598e+02  -8.326641e+02
   6.149395e+02  -3.499040e+01
   3.563774e+02   7.286039e+02
  -3.517526e+02   7.909158e+02
  -5.501754e+02  -5.123070e+01
  -3.404347e+02  -6.668665e+02
   3.200903e+02  -6.061233e+02
   5.687831e+02   2.779020e+01
   3.622337e+02   3.677048e+02
  -1.211205e+01   3.654287e+02
  -2.668810e+02   2.464716e+02
  -2.483497e+02   4.506286e+01
   1.018480e+02  -1.091360e+02
   3.443235e+02   7.431507e+01
   2.534753e+02   4.406958e+02
  -4.842245e+02   5.201814e+02
  -9.205546e+02   1.477856e+01
  -4.268794e+02  -5.876950e+02
   4.211716e+02  -4.955481e+02
   8.183201e+02   3.883520e+01
   3.829493e+02   5.353963e+02
  -2.957467e+02   5.757755e+02
  -6.105500e+02   1.787397e+02
  -4.564769e+02  -2.953895e+02
  -4.947294e+01  -4.750179e+02
   2.476149e+02  -3.150217e+02
   2.735832e+02   2.123297e+02
  -1.405478e+02   5.124273e+02
  -5.347542e+02   1.309744e+01
  -2.536051e+02  -7.470926e+02
   3.427199e+02  -7.211328e+02
   6.506324e+02  -1.713225e+01
   2.577584e+02   5.976070e+02
  -3.219331e+02   2.939379e+02
  -4.491563e+02  -3.422602e+02
   6.736393e+00  -5.435054e+02
   5.406836e+02  -1.301242e+02
   6.576270e+02   4.484226e+02
   1.268149e+02   5.506291e+02
  -4.098451e+02   3.887854e+02
  -6.560764e+02  -6.839415e+01
  -3.676309e+02  -3.824484e+02
   2.027845e+02  -3.870102e+02
   4.551576e+02  -3.850810e+01
   2.379374e+02   2.325204e+02
  -1.661287e+02   9.093308e+01
  -1.311628e+02  -2.082101e+02
   2.282486e+02  -2.052591e+02
   3.719080e+02   1.513772e+02
   1.379700e+02   3.832766e+02
  -2.539721e+02   2.857040e+02
  -3.201434e+02   1.393579e+01
  -2.113216e+02  -6.698656e+01
   9.334248e+00  -1.853260e+02
   2.072870e+02  -2.800920e+02
   3.375268e+02  -1.986949e+02
   2.706923e+02   1.137129e+02
   9.609686e+01   4.513355e+02
  -1.125610e+02   4.242362e+02
  -1.578005e+02   1.222136e+02
  -5.766338e+01  -6.579357e+01
   3.720733e-01   5.776203e+01
  -1.299871e+02   1.522847e+02
  -2.869197e+02  -1.913158e+01
  -1.533629e+02  -2.797133e+02
   1.066845e+02  -3.200221e+02
   2.447945e+02   9.864604e-01
   1.956986e+02   2.814451e+02
  -6.328943e+01   2.852941e+02
  -3.332556e+02   9.290648e+01
  -3.612799e+02  -1.840507e+02
  -1.603710e+02  -3.491219e+02
   1.206518e+02  -2.595481e+02
   2.460931e+02  -1.070562e+02
   1.345965e+02   5.972941e+00
   1.302684e+02  -6.281397e+01
   2.604539e+02  -6.129648e+01
   3.709859e+02   5.818341e+01
   3.295849e+02   2.784057e+02
   4.763077e+01   4.427939e+02
  -3.310511e+02   4.694989e+02
  -4.729075e+02   2.708837e+02
  -3.596910e+02  -8.009245e+01
  -6.564303e+01  -2.771534e+02
   1.286826e+02  -2.819556e+02
   9.386613e+01  -1.030015e+01
  -9.333512e+01   9.521476e+01
  -2.275313e+02   1.197112e+01
  -5.519424e+01  -1.804346e+02
   1.700453e+02  -1.946735e+02
   1.880051e+02   4.707014e+01
   4.894424e+01   2.033437e+02
  -1.344924e+02   2.623642e+01
  -1.711464e+02  -2.437430e+02
   4.434099e+01  -3.395164e+02
   2.330223e+02  -1.474061e+02
   3.464163e+02   6.693092e+01
   2.849755e+02   1.798038e+02
   1.207397e+02   2.077739e+02
  -1.203619e+02   1.554144e+02
  -2.084885e+02   1.660000e+01
  -5.178619e+01  -4.679502e+01
   1.029739e+02   6.366238e+01
   6.767738e+01   1.631963e+02
  -9.420345e+01   1.395839e+02
  -1.767175e+02   1.572969e+01
  -7.250677e+01  -9.079579e+01
   7.166550e+01  -4.779984e+01
   3.254541e+01   1.029928e+02
  -1.258623e+02   1.192047e+02
  -3.172616e+02   1.777696e+01
  -2.667770e+02  -1.605040e+02
  -8.545667e+01  -2.613652e+02
   1.753394e+02  -2.460360e+02
   2.679267e+02  -9.354468e+01
   1.762312e+02   4.497193e+01
  -5.705232e+01   1.378704e+02
  -1.322915e+02   3.757944e+01
   3.896692e+00  -8.465162e+01
   2.093485e+02  -8.918036e+01
   2.209876e+02   1.170442e+02
   7.240992e+01   2.099156e+02
  -8.979283e+01   1.289966e+02
  -1.842883e+02   4.260565e+00
  -8.702320e+01  -1.492474e+01
   1.313218e+01  -1.060456e+01
   6.936267e+01   6.480587e+01
  -4.516687e+01   1.119275e+02
  -1.626824e+02  -4.773355e+00
  -1.846190e+02  -7.678153e+01
  -1.165074e+01  -2.296519e+02
   1.468257e+02  -1.553584e+02
   2.119480e+02  -8.392222e+00
   2.501428e+01   1.356323e+02
  -8.468625e+01   1.583961e+02
  -1.237834e+02   1.118380e+01
  -2.383196e+01  -4.359023e+01
  -3.093612e+01  -2.104348e+01
  -5.019204e+01   8.714550e+00
  -9.334310e+01  -1.445140e+01
  -5.725553e+01  -6.372287e+01
  -2.341413e+01  -1.680111e+02
   9.198239e+01  -1.672646e+02
   2.373110e+02  -3.146432e+00
   2.326569e+02   1.342019e+02
   5.515062e+01   2.252047e+02
  -1.280911e+02   1.511572e+02
  -1.087205e+02   2.128290e+01
  -1.864387e+01  -5.631348e+01
  -4.521365e+01  -2.441929e+01
  -7.867276e+01   3.584812e+00
  -9.621749e+01   6.386419e+00
  -2.617293e+01  -9.305329e+01
   5.929642e+01  -1.206648e+02
   1.302466e+02  -6.233464e+00
   1.105276e+02   4.295711e+01
  -2.791804e+01   1.456158e+02
  -1.419810e+02   5.784161e+01
  -1.809260e+02  -7.028228e+01
  -1.231458e+02  -2.049181e+02
   9.592800e+01  -2.163167e+02
   2.555861e+02  -1.024988e+02
   2.376872e+02   1.117105e+02
   9.138919e+01   1.648495e+02
  -8.190572e+00   1.021579e+02
  -1.200782e+02   7.729891e+01
  -5.669544e+01   4.490650e+01
  -5.747024e+01   4.569100e+01
  -5.730473e+01   1.301440e+02
  -1.037216e+02  -1.038341e+01
  -8.546649e+01  -1.743322e+02
  -4.735545e+01  -2.457817e+02
   8.670171e+01  -1.641290e+02
   1.681634e+02  -1.607954e+01
   1.446995e+02   1.237499e+02
   1.106439e+01   1.454705e+02
  -7.741555e+01   6.384840e+01
  -4.039894e+01   2.847187e+01
   1.993678e+01  -2.801916e+01
   8.653598e+00  -3.754069e+01
  -6.069667e+01  -2.259949e-01
  -7.054593e+01  -8.895105e+00
  -2.242855e+01  -2.044539e+01
   6.719528e+01  -1.764852e+01
   1.100975e+02  -1.847931e+01
   1.251135e+02   5.823425e+01
   2.393771e+00   8.805864e+01
  -1.095577e+02   5.721758e+01
  -1.004971e+02  -2.524319e+01
  -2.545901e+01  -2.750945e+01
   6.369482e+01  -3.671711e+01
   4.588733e+01   3.795182e+01
  -1.014006e+00   7.082119e+01
  -7.787819e+01   1.634900e+01
  -3.256404e+01   1.237033e+01
  -1.988956e+01  -2.829268e+01
  -1.955573e+01  -7.654609e+01
  -8.072252e+01  -4.044243e+01
  -8.128303e+01  -2.458324e+00
  -3.133857e+00  -6.690018e+01
   4.440953e+01  -1.267671e+02
   1.211117e+02  -1.202822e+02
   1.450735e+02  -2.488022e+01
   9.524916e+01   8.640662e+01
   2.624683e+01   1.019302e+02
  -8.276989e+01   6.064330e+01
  -6.947218e+01  -4.280391e+01
   1.031534e+02   4.156898e-01
   1.288838e+02   5.276725e+01
   9.048837e+01   8.870887e+01
  -1.206902e+02   8.067468e+01
  -1.613755e+02   3.940514e+01
  -1.126357e+02  -7.589815e-01
  -3.117567e+01  -9.865075e+01
   5.852705e+01  -8.632622e+01
   7.320612e+01  -1.243125e+00
  -2.657593e+01   6.164869e+01
  -1.062531e+02  -4.168707e+01
  -1.276002e+01  -1.656752e+02
   1.187716e+02  -1.690401e+02
   1.676793e+02  -6.498772e+01
   1.314725e+02   1.659421e+02
  -2.012776e+00   1.890514e+02
  -9.514705e+01   1.177501e+02
  -1.349633e+02   8.138998e+00
  -2.814876e+01  -1.295288e+02
   1.325324e+01  -1.265998e+02
   4.570090e+01  -1.710253e+01
   5.488504e+01   2.117895e+01
   3.056575e+01   1.885383e+01
   1.748239e+00  -2.739067e+01
   1.932192e+01   2.975960e+00
   5.382998e+01   7.127753e+01
   4.049885e+01   1.192372e+02
  -1.417478e+01   8.410035e+01
  -1.490514e+02  -1.668837e+01
  -1.790312e+02  -1.062002e+02
  -3.852454e+01  -8.330689e+01
   6.406409e+01  -2.446378e+01
   9.240847e+01  -4.675711e+01
   1.011272e+01  -8.888909e+00
  -6.148551e+01   5.218773e+01
   2.795962e+01   2.468357e+00
   3.527332e+01  -1.846260e+01
  -2.085412e+01  -4.276271e+01
  -9.093442e+01   1.130782e+01
  -9.053405e+01   5.746000e-01
   3.644709e+00  -6.308649e+01
   1.525542e+02  -1.395900e+02
   2.257876e+02  -2.943020e+01
   1.361394e+02   6.384571e+01
   1.940727e+01   1.718472e+02
  -2.113552e+01   1.393148e+02
  -7.059915e+01   3.705402e+01
  -3.821043e+01  -3.860114e+01
  -8.801149e+00  -3.008752e+01
   1.597206e+01   2.234625e+01
  -3.023956e+01   1.116885e+01
  -2.127668e+01  -1.832643e+01
  -5.317545e+01  -8.235557e+01
   1.800221e+01  -4.068942e+01
   2.965504e+01  -8.910737e+00
   9.493359e+01   1.168982e+02
   2.583446e+01   8.691837e+01
  -4.904432e+01   2.242500e+01
  -1.592974e+02  -7.898028e+01
  -2.928605e+01  -8.671062e+01
   1.233901e+02  -2.907693e+01
   7.444062e+01   4.411498e+00
   1.508502e+01   3.969199e+01
  -7.604873e+01   3.677298e+01
  -4.943764e+00   3.145498e+01
   4.316798e+01   2.611137e-02
   9.103171e+01   6.894585e+00
   4.263639e+01   3.128675e+01
  -6.586848e+01   1.028450e+02
  -1.173971e+02   6.189270e+01
  -8.131340e+01  -1.278452e+01
   7.056469e+00  -1.060379e+02
   5.711303e+01  -8.326772e+01
  -2.677748e+00   3.886782e+01
  -9.898750e+00   9.824678e+01
  -1.635176e+01   7.839234e+00
  -5.673769e+01  -4.736112e+01
  -2.686638e+01  -8.101111e+01
   3.074850e+01   9.427960e+00
   5.579043e+01  -1.314046e+00
   2.782504e+01   7.156250e+00
  -6.970571e+00   1.981247e+01
  -1.968194e+01   2.597236e+01
  -8.606686e+00   2.325143e+01
  -1.232542e+00   3.717824e+01
  -2.352041e+01   5.984659e+01
  -4.242003e+01  -2.000107e+01
  -5.824863e+01  -3.995269e+01
  -2.733907e+01  -4.681807e+01
   7.308117e+01  -1.283350e+01
   5.079455e+01   2.269420e+01
   3.505737e+01   4.103512e+01
  -4.924077e+01   3.562789e+01
  -6.366967e+01  -2.181755e+01
  -7.198104e+00  -2.354141e+01
   2.630536e+01  -6.136607e+01
   4.243720e+01  -2.703045e+01
   5.355077e+01   5.538302e+01
  -2.809603e+01   3.475589e+01
  -5.019578e+01   9.160672e+00
  -2.918746e-01  -4.447667e+01
   6.263392e+01  -3.877100e+01
