
 $NMID
 id='ANONYMOUS ', fmtdat='(2E16.6)'
 volume=1.0
 tramp=1.0
 $END
  -4.596869e+03   1.544896e+02
  -2.599702e+03  -2.788320e+03
   8.679062e+02  -2.880693e+03
   2.178500e+03  -8.432381e+02
   9.511320e+02   8.201842e+02
  -8.081774e+02   6.466027e+02
  -9.448970e+02  -5.105745e+02
  -7.847180e+01  -1.128354e+03
   8.529414e+02  -8.054567e+02
   1.012499e+03   1.919870e+02
   3.846538e+02   9.033559e+02
  -2.614033e+02   9.105077e+02
  -6.023181e+02   1.267434e+02
  -3.805500e+02  -8.487993e+02
   2.442447e+02  -7.769729e+02
   6.912352e+02  -4.831566e+01
   2.765264e+02   7.096299e+02
  -3.907884e+02   6.451798e+02
  -5.286830e+02   1.246884e+02
  -3.908728e+02  -4.159431e+02
   4.752356e+01  -4.920943e+02
   2.238527e+02  -2.907836e+02
   1.937281e+02   5.098552e+01
  -8.566688e+01   7.662361e+01
  -4.239343e+02  -2.061440e+02
  -2.077061e+02  -3.938571e+02
   3.458884e+02  -4.868427e+02
   8.282457e+02   1.685095e+01
   4.191018e+02   4.691083e+02
  -4.423662e+02   4.747863e+02
  -7.835542e+02  -5.835992e+01
  -3.225424e+02  -4.871119e+02
   2.995112e+02  -5.225882e+02
   6.092456e+02  -1.945813e+02
   3.844284e+02   2.261740e+02
   3.210769e+01   5.451954e+02
  -2.514004e+02   3.009554e+02
  -1.761991e+02  -2.407768e+02
   2.104246e+02  -4.873838e+02
   5.177445e+02   7.321634e+01
   2.600690e+02   7.294824e+02
  -3.966903e+02   7.659708e+02
  -6.569094e+02   1.476659e+01
  -2.811214e+02  -6.075536e+02
   3.244894e+02  -3.171012e+02
   4.452213e+02   3.429600e+02
  -1.001527e+02   6.474626e+02
  -5.767215e+02   1.385358e+02
  -6.517378e+02  -4.348764e+02
  -1.832197e+02  -6.233222e+02
   4.290909e+02  -3.745283e+02
   6.662916e+02   7.680766e+01
   4.322011e+02   4.132358e+02
  -1.549631e+02   3.746349e+02
  -5.156695e+02   3.052299e+01
  -2.656325e+02  -2.628868e+02
   1.307514e+02  -9.534009e+01
   1.461900e+02   2.305213e+02
  -1.739537e+02   2.279078e+02
  -3.912867e+02  -1.263378e+02
  -1.097953e+02  -3.266150e+02
   2.677241e+02  -2.781370e+02
   3.290935e+02  -5.408957e+01
   1.829083e+02   1.095135e+02
  -3.906065e+01   2.523588e+02
  -1.803416e+02   3.552366e+02
  -3.206854e+02   2.107677e+02
  -2.968118e+02  -1.112005e+02
  -1.552722e+02  -4.406313e+02
   1.345994e+02  -3.869111e+02
   1.301549e+02  -1.194596e+02
   2.934833e+01   2.692114e+01
   2.311511e+01  -7.846434e+01
   2.209263e+02  -1.300691e+02
   3.248029e+02   8.112768e+01
   1.641449e+02   2.571892e+02
  -7.880086e+01   2.580914e+02
  -2.852143e+02  -2.552385e+00
  -2.568658e+02  -2.718709e+02
   2.756123e+01  -3.206109e+02
   2.352439e+02  -1.410790e+02
   4.029148e+02   1.479665e+02
   1.737995e+02   3.624998e+02
  -1.275963e+02   3.160775e+02
  -2.327015e+02   1.140205e+02
  -1.576474e+02  -5.940649e+01
  -1.022729e+02   2.939293e+01
  -2.632597e+02   8.086579e+01
  -3.861529e+02  -2.321662e+01
  -3.163668e+02  -3.007320e+02
  -8.955274e-01  -4.705496e+02
   3.496906e+02  -4.570848e+02
   4.838851e+02  -2.002104e+02
   3.825097e+02   1.689838e+02
   7.547308e+01   3.237458e+02
  -1.358096e+02   2.753299e+02
  -8.806155e+01   3.941826e+01
   9.052439e+01  -1.186229e+02
   2.280444e+02  -1.940189e+01
   1.067691e+02   2.052730e+02
  -1.520847e+02   1.882574e+02
  -2.301271e+02  -1.143582e+02
   3.232567e+01  -2.220609e+02
   2.167538e+02  -6.510277e+01
   1.781403e+02   2.830779e+02
  -3.686313e+00   3.932249e+02
  -2.213177e+02   2.232028e+02
  -3.705176e+02  -5.668841e+01
  -2.466575e+02  -2.304299e+02
  -1.557024e+02  -2.735278e+02
   9.903647e+01  -1.604147e+02
   1.854294e+02   1.893698e+00
   7.908267e+01   8.557356e+01
  -7.086859e+01  -2.972477e+01
  -3.811228e+01  -1.101075e+02
   9.522421e+01  -1.141113e+02
   1.752867e+02   1.762738e+01
   6.692269e+01   5.606751e+01
  -7.121097e+01   3.478216e+01
  -7.786675e+01  -6.762510e+01
   1.334437e+02  -8.957502e+01
   2.604605e+02   3.712206e+01
   2.757490e+02   1.109430e+02
   5.917016e+01   2.524824e+02
  -1.997863e+02   2.197947e+02
  -3.077082e+02   1.104677e+02
  -2.204456e+02  -6.332614e+01
   2.698948e+01  -1.184720e+02
   1.209567e+02  -2.281921e+01
  -4.645465e+01   1.290283e+02
  -2.363613e+02   3.744133e+01
  -2.184556e+02  -1.290867e+02
  -3.121218e+01  -1.859634e+02
   7.954074e+01  -1.747907e+02
   1.270656e+02  -5.452015e+01
   6.433415e+01   2.118838e+01
   7.866459e+00   4.062346e+01
  -7.306243e+00  -6.681155e+01
   8.793401e+01  -1.092568e+02
   1.969987e+02  -6.434710e+01
   1.963404e+02   6.141019e+01
   2.868049e+01   2.239833e+02
  -1.363629e+02   1.806056e+02
  -1.684928e+02   5.670950e+01
  -3.999502e+01  -7.231019e+01
   6.443480e+01  -6.433098e+01
   6.927253e+01  -6.779922e+00
   4.191043e+00   1.984759e+01
  -4.811772e+01   2.873079e+01
   6.581741e+00  -2.259944e+00
   6.815354e+01   3.636634e+01
   1.137097e+02   8.327858e+01
   2.787516e+01   2.071228e+02
  -1.006787e+02   1.673900e+02
  -2.503382e+02  -1.636001e+01
  -1.801578e+02  -1.570303e+02
  -4.151929e+01  -2.295536e+02
   1.339456e+02  -1.486926e+02
   1.283830e+02  -1.482498e+01
   5.722970e+01   4.579802e+01
   2.856342e+01   3.147055e+01
   3.126187e+01  -4.132217e+01
   9.742767e+01  -2.785784e+01
   4.995216e+01   2.981630e+01
  -2.526965e+01   6.527750e+01
  -9.127607e+01   8.268707e+01
  -1.058888e+02  -3.367145e+01
   3.308155e+01  -1.133259e+02
   1.026550e+02  -9.248444e+01
   1.908066e+02   5.135164e+01
   9.116973e+01   2.111595e+02
  -9.127932e+01   1.903502e+02
  -2.738218e+02   1.498831e+02
  -2.188137e+02  -8.269857e+01
  -8.598935e+01  -1.706139e+02
   3.821626e+01  -1.252790e+02
   9.041079e+01  -7.122870e+01
   9.860597e+01  -4.411406e+01
   3.414909e+01  -1.227317e+02
   8.134789e+01  -1.011087e+02
   6.421385e+01   4.403976e+01
   1.520228e+02   1.648020e+02
   3.292970e+01   2.138731e+02
  -9.308636e+01   1.609367e+02
  -1.961151e+02   2.320365e+01
  -2.021352e+02  -1.281209e+02
  -1.540661e+01  -1.791397e+02
   8.346700e+01  -9.236171e+01
   1.009428e+02  -1.179179e+00
   3.943005e+01   3.106412e+01
   3.090564e+00  -7.662989e+00
   7.426753e+00   2.402736e+01
   9.271391e+01   5.753164e+01
   5.418534e+01  -9.121182e+00
  -6.708629e+01   5.042195e+01
  -1.766415e+02  -5.341131e+00
  -1.461586e+02  -4.150025e+01
  -2.908509e+01  -7.926349e+01
   1.191791e+02  -9.916336e+01
   1.479470e+02  -3.705536e-01
   5.193529e+01   3.855941e+01
  -4.107999e+01   1.738627e+01
  -7.966850e+01  -2.536673e+01
   3.019398e+00  -8.589510e+01
   5.864078e+01  -3.771227e+01
   1.597061e+01   2.253828e+01
   9.306569e-01   6.511075e+01
   3.123337e+01   6.376429e+01
   8.483900e+01  -1.473374e+01
   6.259761e+01  -1.534008e+01
   4.027395e+01   4.752694e+01
  -4.887477e+01   1.439391e+02
  -4.688519e+01   1.016550e+02
  -1.847994e+02   2.742196e+01
  -6.414932e+01  -1.065511e+02
   5.474698e+00  -1.186454e+02
   1.002060e+02  -3.713313e+01
   2.499619e+01   2.801878e+01
  -4.691360e+01   7.642597e+00
  -1.535937e+02  -3.802854e+01
  -5.827583e+01  -8.034604e+01
   6.125691e+01  -1.120380e+02
   2.058440e+02  -5.696996e+01
   1.494624e+02   6.007841e+01
   4.699674e+01   6.333235e+01
  -6.878401e+01   6.699107e+01
  -2.664808e+01   2.843267e+01
   1.989447e+01  -2.426063e+01
   7.611023e+01  -2.549899e+01
   9.855997e+01   1.163481e+02
  -7.420543e+01   1.809388e+02
  -1.526953e+02   6.336597e+01
  -9.408393e+01  -6.295802e+01
  -6.110156e+00  -1.818916e+02
   9.140774e+01  -1.417471e+02
   4.682864e+01   5.191868e+01
   7.315758e+01   1.535706e+02
   2.696393e+00   1.092107e+02
  -1.256599e+01  -1.462150e+01
  -6.510529e+01  -4.654227e+01
   2.176047e+01  -1.420324e+01
  -1.866354e+01   5.338552e+01
  -8.017433e+00  -2.828769e+01
  -2.761204e+01  -1.212805e+02
  -2.983959e+01  -8.863012e+01
   2.533088e+01  -2.110508e+01
   1.242496e+02   5.098117e+01
   1.626800e+02   5.524082e+01
   1.652653e+01   2.694251e+01
  -1.324007e+02   8.645425e+00
  -8.668807e+01  -2.604665e+01
   1.168666e+01  -3.332674e+01
   8.561223e+01  -1.639310e+01
   1.015635e+01   3.236154e+01
  -6.112521e+01   2.059014e+01
  -4.884720e+01   1.389046e+01
  -1.050307e+01   2.758316e+01
   1.317593e+02   4.057449e+00
  -2.954294e+01   1.080581e+02
  -1.252643e+02   1.268967e+02
  -1.886688e+02   6.812919e+01
  -1.630916e+02  -3.629137e+01
  -4.448105e+01  -1.513195e+02
   5.565257e+01  -1.235273e+02
   6.639637e+01  -6.992129e+01
   7.574430e+01   1.495879e+01
   2.313249e+01   8.651411e+01
  -2.097375e+01   4.644527e+01
   2.948923e+01  -3.941528e+01
   4.046001e+01   2.581425e+01
   4.311306e+01   1.433764e+02
  -4.051200e+00   8.391020e+01
  -8.886008e+01  -3.731508e+01
  -8.826267e+01  -8.126868e+01
   3.905099e+01  -1.361221e+02
   7.400596e+01   8.700547e+00
   7.104904e+01   9.105795e+01
  -6.981682e-01   8.499278e+01
  -6.136016e+01   3.245611e+01
  -1.125036e+02   3.183406e+00
  -8.364742e+01  -7.373628e+01
   3.781158e+01  -6.077219e+01
   4.391277e+01  -2.576508e-01
  -6.449039e+01  -8.736434e+00
  -1.021290e+02  -6.927505e+00
  -4.389033e+01  -2.844185e+01
   7.223933e+01  -9.208234e+01
   6.750854e+01  -5.839372e+01
   3.918194e+01  -3.212085e+01
  -2.374398e+01   1.113253e+02
  -4.762623e+01   9.269339e+01
  -1.777505e+01   1.054474e+01
  -3.502661e+01  -8.440456e+01
   8.265990e+00  -7.002870e+01
   7.768502e+01   1.286008e+01
   1.160250e+01   6.594012e+01
   4.537950e+00   7.133396e+01
  -1.100853e+01  -8.969885e+00
  -2.765012e+01  -5.403112e+01
   1.389434e+01   4.180764e+00
   1.065235e+01   9.142967e+00
   6.506089e+01  -1.281661e+01
   3.535748e+01  -5.666404e+01
   4.410289e+01  -6.328708e+01
   4.805050e+00  -7.692159e+00
   1.603530e+01   5.353444e+01
  -1.200794e+01   5.215803e+01
  -6.034806e+00   1.815084e+01
  -3.114145e+01   5.547399e+00
  -3.181357e+01  -5.826696e+01
   9.256561e+01  -3.097985e+01
   8.149562e+01   1.522616e+01
   2.750220e+01   6.921466e+01
  -9.534512e+00   4.613890e+01
  -8.793737e+01   3.593710e+01
   1.736433e+01   2.880627e+01
   3.691188e+01   4.389947e+01
   1.782844e+01   6.367310e+01
  -4.494085e+01   3.959357e+01
  -1.014918e+02   1.664819e+01
