
 $NMID
 id='ANONYMOUS ', fmtdat='(2E16.6)'
 volume=1.0
 tramp=1.0
 $END
  -4.660848e+03   1.143068e+02
  -2.676335e+03  -2.843113e+03
   8.585651e+02  -2.940653e+03
   2.227633e+03  -9.386747e+02
   9.458510e+02   8.196073e+02
  -7.269201e+02   6.372761e+02
  -9.521069e+02  -5.068038e+02
   7.519572e+01  -1.225469e+03
   9.963963e+02  -7.230956e+02
   9.452103e+02   2.161887e+02
   4.889612e+02   9.752503e+02
  -2.744854e+02   9.694817e+02
  -7.467578e+02   1.320988e+02
  -4.777221e+02  -7.481982e+02
   2.951927e+02  -7.418060e+02
   7.173915e+02   7.704060e+01
   3.453239e+02   6.771067e+02
  -3.433398e+02   7.184032e+02
  -6.819785e+02   1.084117e+01
  -3.938074e+02  -4.718447e+02
   6.584480e+01  -4.916901e+02
   2.056467e+02  -2.752651e+02
   2.528017e+02  -6.772785e+01
  -7.593789e+01   1.855549e+02
  -4.313892e+02  -1.491660e+01
  -2.538600e+02  -4.626667e+02
   4.668756e+02  -4.311092e+02
   9.101651e+02   9.760071e+01
   4.243539e+02   6.069799e+02
  -4.935689e+02   5.690716e+02
  -8.499326e+02  -8.534573e+01
  -3.575013e+02  -5.589394e+02
   3.407073e+02  -4.983927e+02
   5.570391e+02  -1.710261e+02
   3.992973e+02   2.330667e+02
   1.286790e+01   5.252181e+02
  -2.129679e+02   3.173153e+02
  -2.390773e+02  -2.557050e+02
   1.913024e+02  -4.888554e+02
   5.014451e+02  -2.275827e+01
   2.758292e+02   7.005573e+02
  -3.530823e+02   7.830254e+02
  -6.339052e+02  -2.922938e+01
  -2.533943e+02  -6.016899e+02
   3.881533e+02  -3.409423e+02
   4.675018e+02   3.781575e+02
  -7.260285e+01   6.019012e+02
  -5.918732e+02   1.491601e+02
  -6.213718e+02  -4.553544e+02
  -1.408398e+02  -6.004428e+02
   3.434689e+02  -2.851889e+02
   6.434642e+02   1.072495e+02
   4.248659e+02   3.842098e+02
  -1.345936e+02   3.851361e+02
  -4.855157e+02   9.087183e+01
  -2.631787e+02  -1.879110e+02
   9.244869e+01  -1.317095e+02
   2.061448e+02   1.427794e+02
  -1.279469e+02   2.451147e+02
  -3.826735e+02  -7.825071e+01
  -1.432479e+02  -3.117453e+02
   2.172061e+02  -2.907598e+02
   3.682381e+02  -2.663285e+01
   2.017661e+02   9.909147e+01
  -3.265764e+01   1.930921e+02
  -1.833673e+02   3.183514e+02
  -3.190648e+02   3.095872e+02
  -3.314004e+02  -6.339667e+01
  -1.209865e+02  -4.237656e+02
   1.267317e+02  -4.388070e+02
   1.991948e+02  -1.311806e+02
  -7.438391e+00   7.243699e+01
  -9.660106e+00  -1.156828e+01
   1.291964e+02  -1.564865e+02
   2.749424e+02   9.881217e+00
   1.744899e+02   2.311633e+02
  -4.898590e+01   2.824433e+02
  -2.291705e+02   9.692536e+00
  -1.958470e+02  -2.180899e+02
   5.998633e+01  -2.973384e+02
   2.620848e+02  -1.524299e+02
   4.101364e+02   2.234388e+02
   2.482798e+02   4.048155e+02
  -6.733343e+01   3.239289e+02
  -2.630652e+02   1.470391e+02
  -2.002468e+02   1.381006e+00
  -1.434741e+02   1.216593e+01
  -2.794710e+02   6.032564e+01
  -4.165661e+02  -8.032362e+01
  -3.203022e+02  -3.130188e+02
   1.598615e+01  -4.664783e+02
   3.932656e+02  -4.066615e+02
   4.987853e+02  -1.936150e+02
   3.428481e+02   9.909156e+01
   1.941843e+01   3.105173e+02
  -1.462766e+02   2.744991e+02
  -1.207365e+02   4.366148e+01
   1.323300e+02  -8.909172e+01
   2.099112e+02  -4.514679e+01
   7.092461e+01   1.328550e+02
  -1.188760e+02   2.102796e+02
  -1.656052e+02  -4.747164e+01
   7.124308e+00  -2.263068e+02
   2.274144e+02  -5.104696e+01
   1.760697e+02   2.602476e+02
  -4.187998e+01   3.777703e+02
  -1.842040e+02   1.973630e+02
  -2.742369e+02  -4.910327e+01
  -2.900212e+02  -2.122335e+02
  -9.159304e+01  -2.810859e+02
   9.206950e+01  -1.609772e+02
   2.372247e+02  -9.191400e+00
   9.732212e+01   9.341346e+01
  -6.851876e+01  -2.187133e+01
  -7.364043e+01  -1.666958e+02
   7.550837e+01  -1.150672e+02
   1.571378e+02  -2.011011e+01
   7.740683e+01   6.313719e+01
  -4.878074e+01   2.820775e+01
  -7.612552e+01  -2.202717e+01
   1.039495e+02  -1.092725e+02
   3.064447e+02   1.455991e+01
   3.036336e+02   1.350757e+02
   6.944921e+01   2.457136e+02
  -1.978066e+02   2.827347e+02
  -2.703047e+02   1.143414e+02
  -2.056754e+02  -5.527522e+01
   5.580293e+01  -1.502159e+02
   1.502511e+02  -1.906826e+01
   1.374133e+01   1.133691e+02
  -2.159641e+02   6.644342e+01
  -2.552839e+02  -4.619795e+01
  -6.601659e+01  -2.149598e+02
   5.294866e+01  -1.600885e+02
   1.876173e+02  -3.632100e+01
   5.512963e+01   4.135818e+01
  -1.825249e+01   2.893715e+00
   5.379607e+00  -9.544694e+01
   8.924040e+01  -8.123129e+01
   1.941882e+02  -7.421069e+00
   1.659455e+02   1.342207e+02
   5.872461e+00   2.228874e+02
  -1.927175e+02   2.016590e+02
  -2.235963e+02  -1.567219e+01
  -1.132123e+02  -9.802498e+01
   6.024418e+01  -1.137588e+02
   1.190140e+02  -2.609467e+01
   3.320891e+01  -3.567938e+00
  -3.678213e+01   5.558466e+00
  -2.706793e+01   8.875244e+00
   9.163558e+01  -1.044039e+01
   8.357003e+01   7.807835e+01
  -1.355732e+01   1.304480e+02
  -1.241705e+02   1.631365e+02
  -2.325359e+02   1.243887e+01
  -1.996298e+02  -7.597032e+01
  -6.079213e+01  -2.419001e+02
   7.812862e+01  -1.723733e+02
   1.326043e+02  -8.068552e+00
   8.423354e+01   7.555187e+01
   5.726484e+01   3.376302e+00
   6.353428e+01  -1.847866e+01
   1.004466e+02  -2.554658e+01
   2.881965e+01   5.110063e+01
  -6.275851e+01   8.966388e+01
  -1.013678e+02   5.047320e+01
  -6.394962e+01  -6.909611e+01
   3.177423e+01  -9.690879e+01
   1.595440e+02  -9.882639e+01
   2.308838e+02   3.032539e+01
   1.114764e+02   1.787947e+02
  -1.034737e+02   2.300280e+02
  -2.277484e+02   1.373237e+02
  -2.637829e+02  -9.205608e+01
  -1.448936e+02  -1.692155e+02
   2.090900e+01  -1.722830e+02
   7.048922e+01  -8.177862e+01
   1.349847e+02  -9.513590e+01
   7.761851e+01  -9.576676e+01
   6.749261e+01  -7.022093e+01
   6.089128e+01   3.284933e+01
   1.204534e+02   1.477872e+02
   2.569878e+01   2.447825e+02
  -9.798495e+01   1.504422e+02
  -1.276372e+02   6.359878e+01
  -1.635714e+02  -1.017809e+02
  -3.283641e+01  -1.523326e+02
   6.098628e+01  -1.410438e+02
   4.184283e+01  -2.083032e+01
  -4.376887e+00   3.146352e+01
   4.238843e+01   7.415173e+01
   3.655708e+01   1.789609e+01
   7.937944e+01   2.011568e+01
   2.982964e+01   3.435958e+01
  -4.043428e+01   6.603983e+01
  -1.511886e+02   1.400626e+00
  -1.801717e+02  -6.515067e+01
  -5.659137e+01  -7.613185e+01
   9.413582e+01  -4.584831e+01
   1.640483e+02  -5.904818e+00
   4.856197e+01   4.203391e+01
  -2.970603e+01   2.939141e+01
  -1.276977e+02  -9.327952e+01
   1.247509e-01  -5.805679e+01
   7.636506e+01  -5.436162e+01
   1.056039e+02   3.363255e+01
   3.189545e+01   1.035153e+02
   7.297992e+01   4.395248e+01
   5.062421e+01   1.377356e+00
   3.926152e+01   1.048665e+01
  -8.975577e+00   7.139195e+01
  -5.580449e+01   1.540322e+02
  -1.415167e+02   1.454216e+02
  -1.313679e+02   2.869592e+01
  -8.977844e+01  -9.374367e+01
  -2.433423e+01  -1.238587e+02
   1.098829e+02  -4.864923e+01
   5.484896e+01   6.737229e+00
  -9.595417e+01  -1.091559e+01
  -1.369080e+02  -9.577011e+00
  -4.165943e+01  -1.267289e+02
   1.009367e+02  -7.928606e+01
   2.069976e+02  -3.930535e+01
   1.926182e+02  -6.886495e-01
   5.242958e+01   7.643587e+01
  -3.389644e+01   9.110277e+01
  -4.215496e+01   9.775294e+00
   6.144130e+01   1.132873e+01
   7.213361e+01   2.809141e+01
   3.216452e+01   9.315597e+01
  -1.064448e+02   1.158086e+02
  -1.330684e+02   5.378553e+01
  -1.286898e+02  -9.478610e+01
  -1.583149e+01  -1.741642e+02
   7.300439e+01  -1.259634e+02
   1.057690e+02   4.694206e+01
   2.215564e+01   1.008312e+02
  -2.988025e+01   1.292787e+02
  -7.857531e+01   3.405147e+01
  -8.568558e+01   9.542735e-01
  -5.497980e+01  -5.605295e+01
  -4.198598e+00   2.996938e+00
  -2.543814e-01   8.350210e+00
  -3.153578e+01  -1.101010e+02
  -6.948142e+01  -9.686464e+01
   2.588102e+01  -5.804722e+01
   1.405248e+02   4.753828e+01
   1.205918e+02   9.789686e+01
   9.315283e+00   7.076915e+01
  -1.020607e+02  -1.292595e+00
  -6.943508e+01   2.246677e+01
  -2.277466e+01  -2.696356e+01
  -7.347189e+00   1.112290e+01
   3.108048e+01  -4.021897e-01
   3.170871e+01  -1.643533e+01
   3.832244e+01  -1.031767e+01
   7.109138e+01   6.773398e+00
   7.055896e+01  -4.559787e-01
  -1.172688e+00   7.589687e+01
  -1.292721e+02   1.307464e+02
  -1.844009e+02   1.672831e+01
  -1.711446e+02  -5.565710e+01
  -3.144105e+01  -1.384441e+02
   8.212664e+01  -1.027811e+02
   1.366942e+02  -7.864250e+01
   1.103047e+02   2.482123e+01
  -2.654776e+01   7.239271e+01
  -3.017858e+01   4.712318e+01
  -1.147463e+00   2.337075e+01
   2.932095e-01   4.800464e+01
   3.427804e+01   5.994291e+01
  -2.167756e+01   5.718989e+01
  -1.588090e+01  -1.708651e+01
  -5.177475e+01  -1.193098e+02
   2.076874e+01  -9.866317e+01
   1.205142e+02  -1.314797e+01
   8.462533e+01   1.197139e+02
   2.173977e+01   1.175683e+02
  -9.060214e+01   4.129199e+01
  -7.009534e+01  -2.537782e+01
  -3.283884e+01  -4.928328e+01
   1.960923e+01  -6.876040e+01
   4.309111e+01   7.699572e+00
  -5.799558e+01  -3.464389e+00
  -4.213920e+01   1.054769e+01
  -3.223274e+00  -6.589024e+00
   6.574428e+01  -5.489083e+01
   1.444512e+02  -5.947993e+01
   2.720516e+01   1.430118e+01
  -5.518066e+01   2.083169e+01
  -8.741085e+01   4.000703e+01
  -5.288194e+01  -1.913025e+01
  -9.119791e+00  -7.661301e+01
   2.928033e+01  -2.281410e+01
   4.957979e+01   1.157900e+01
   4.495695e+01   4.100425e+01
   1.510446e+01   2.543915e+01
  -6.986480e+01   5.345425e+00
  -7.496476e+01  -4.229125e+01
   1.368953e+01   1.803442e+01
  -1.843339e+01  -8.950193e+00
   1.133219e+01  -5.111712e+00
   4.256009e+01  -2.826703e+01
   4.802515e+01  -5.828595e+01
   1.099026e+01   1.124679e+01
  -2.033540e+01   7.687117e+01
   8.369582e-01   3.476015e+01
   2.853451e+01   3.700066e+01
  -4.483686e+01   1.122524e+00
   1.382971e+01  -3.012461e+01
   4.932598e+01  -6.761231e+01
   1.208894e+02   3.385609e+01
   5.374446e+01   4.981316e+01
   1.283611e+01   4.909162e+01
  -6.980916e+01   4.045797e+01
  -8.442357e+00   8.120452e+00
   4.445800e+01  -2.497597e+01
   5.783263e+01   1.831525e+01
  -5.595835e+01   5.820053e+01
  -7.644885e+01   3.677885e+01
