
 $NMID
 id='ANONYMOUS ', fmtdat='(2E16.6)'
 volume=1.0
 tramp=1.0
 $END
   4.723868e+03  -1.905124e+02
   2.747003e+03   2.957752e+03
  -7.949688e+02   3.055456e+03
  -2.377403e+03   8.336204e+02
  -1.076297e+03  -8.010809e+02
   8.377374e+02  -6.236558e+02
   9.709594e+02   5.424046e+02
   4.700689e+01   1.142269e+03
  -9.540206e+02   1.013577e+03
  -1.055531e+03  -1.972737e+02
  -5.118779e+02  -1.035032e+03
   3.207948e+02  -9.943931e+02
   7.171517e+02  -1.234599e+02
   4.399619e+02   8.351020e+02
  -4.040723e+02   8.527280e+02
  -7.397241e+02  -3.899995e+01
  -3.202077e+02  -7.426938e+02
   3.963892e+02  -6.978253e+02
   6.898436e+02  -1.083523e+02
   3.066829e+02   4.203066e+02
  -3.879268e+01   5.127702e+02
  -3.715392e+02   2.421453e+02
  -2.813800e+02   2.097149e+01
   8.208755e+01  -1.453604e+02
   4.008929e+02  -1.865076e+01
   3.147005e+02   4.962642e+02
  -4.533702e+02   4.710707e+02
  -9.615546e+02  -7.488385e+01
  -4.798109e+02  -6.476922e+02
   4.366948e+02  -5.810636e+02
   8.414907e+02   1.314233e+01
   4.048618e+02   5.126422e+02
  -2.353222e+02   5.868417e+02
  -6.386512e+02   2.127299e+02
  -3.972732e+02  -2.404080e+02
  -5.425397e+01  -4.932516e+02
   2.210600e+02  -3.107200e+02
   1.915080e+02   2.520841e+02
  -1.551342e+02   4.993744e+02
  -5.361183e+02   3.245527e+01
  -2.918696e+02  -7.973703e+02
   3.633440e+02  -8.409508e+02
   6.881343e+02  -1.226440e+01
   3.271378e+02   6.414804e+02
  -3.571911e+02   4.068682e+02
  -4.646135e+02  -3.238367e+02
   2.793884e+01  -6.204101e+02
   5.596826e+02  -1.391878e+02
   6.510748e+02   4.404230e+02
   2.242263e+02   6.232028e+02
  -3.827573e+02   3.686493e+02
  -6.637937e+02  -2.085394e+01
  -4.501173e+02  -3.782284e+02
   1.307762e+02  -4.005332e+02
   4.875860e+02  -8.396554e+01
   2.513664e+02   2.032555e+02
  -1.398842e+02   1.095403e+02
  -1.315655e+02  -2.175872e+02
   1.992058e+02  -2.156478e+02
   3.822356e+02   7.926171e+01
   1.594891e+02   3.452827e+02
  -2.293217e+02   2.692225e+02
  -3.308942e+02   4.454997e+01
  -1.743147e+02  -8.301330e+01
   2.602352e+01  -1.865649e+02
   2.025753e+02  -3.033562e+02
   3.971633e+02  -2.251005e+02
   3.280546e+02   1.641460e+02
   9.764664e+01   4.983595e+02
  -1.656901e+02   4.344956e+02
  -1.539161e+02   1.282722e+02
  -9.195770e+01  -2.834493e+01
  -8.252587e+01   5.949813e+01
  -2.388226e+02   1.417468e+02
  -2.646279e+02  -7.926521e+01
  -1.949044e+02  -3.087229e+02
   9.171556e+01  -2.834292e+02
   2.565083e+02  -2.595496e+00
   1.774318e+02   2.540485e+02
   1.825218e+01   2.913800e+02
  -2.641923e+02   9.898049e+01
  -3.675472e+02  -1.354063e+02
  -1.884032e+02  -3.627214e+02
   1.131264e+02  -2.981874e+02
   2.288655e+02  -9.896156e+01
   1.386954e+02  -1.542003e+01
   1.102137e+02  -3.439721e+01
   2.240976e+02  -5.875777e+01
   3.650566e+02   2.222297e+01
   3.940483e+02   2.150293e+02
   4.992565e+01   4.530056e+02
  -3.319791e+02   4.054370e+02
  -4.901341e+02   2.276375e+02
  -3.475184e+02  -5.157920e+01
  -7.114334e+01  -3.052405e+02
   9.990962e+01  -2.836061e+02
   9.966887e+01   1.381769e+01
  -1.269873e+02   1.224292e+02
  -2.273776e+02   2.579866e+01
  -5.326257e+01  -2.111315e+02
   1.854654e+02  -2.038222e+02
   1.827982e+02   5.192998e+01
  -2.020633e+01   2.116581e+02
  -2.061514e+02   4.510417e+01
  -1.678207e+02  -2.512836e+02
   1.645340e+01  -3.255720e+02
   2.515301e+02  -1.761021e+02
   3.355146e+02   9.306116e+01
   2.654384e+02   1.870257e+02
   7.284917e+01   2.424318e+02
  -1.061553e+02   1.100464e+02
  -1.563061e+02   2.856393e+01
  -6.587361e+01  -5.478208e+01
   1.098130e+02   4.264938e+01
   5.855302e+01   8.814497e+01
  -1.509848e+02   8.958689e+01
  -1.795633e+02   2.158668e+01
  -7.563021e+01  -4.850787e+01
   9.431328e+01   1.373116e+01
   8.319880e+01   4.743352e+01
  -1.061260e+02   7.480303e+01
  -3.012319e+02   3.373961e+01
  -2.726839e+02  -1.251263e+02
  -6.652892e+01  -2.508874e+02
   2.136748e+02  -2.331298e+02
   2.576412e+02  -1.183683e+02
   1.815480e+02   6.923943e+01
  -4.662466e+01   1.277154e+02
  -8.024921e+01  -4.415563e-01
   2.016993e+01  -1.344812e+02
   2.318466e+02  -1.023146e+02
   2.202945e+02   1.005738e+02
   5.909298e+01   2.202220e+02
  -5.752910e+01   1.750220e+02
  -1.423307e+02   3.652320e+01
  -6.888265e+01  -4.116616e+01
   7.392978e+01  -7.366987e+00
   2.532868e+00   7.010072e+01
  -1.083064e+02   1.109903e+02
  -2.169909e+02   2.564417e+01
  -2.072431e+02  -1.401478e+02
  -5.136326e+01  -2.500233e+02
   1.789785e+02  -1.474611e+02
   2.190572e+02  -1.662143e+01
   9.627102e+01   1.677957e+02
  -7.915972e+01   1.617596e+02
  -7.209867e+01   4.923410e+01
  -3.287633e+01  -2.887036e+01
  -1.112419e+01   1.280386e+01
  -2.808884e+01  -2.399249e+01
  -7.397636e+01  -6.791085e+01
  -1.076312e+02  -6.422813e+01
  -2.122149e+01  -1.555671e+02
   1.592028e+02  -1.938764e+02
   2.500608e+02  -4.398098e+01
   1.594646e+02   1.423717e+02
   3.751102e+01   2.405699e+02
  -1.054290e+02   1.233683e+02
  -1.580219e+02   3.502154e+01
  -3.009516e+01  -1.119814e+02
   1.112328e+01  -7.138257e+01
  -2.659458e+01  -1.476996e+01
  -8.124805e+01  -4.130897e+01
  -4.825134e+00  -4.947662e+01
   4.869104e+01  -5.846520e+01
   1.246533e+02  -1.932220e+01
   1.098747e+02   4.770045e+01
  -4.155682e+01   1.370856e+02
  -1.590522e+02   9.849189e+01
  -1.452337e+02  -5.598185e+01
  -1.067907e+02  -2.276120e+02
   5.614070e+01  -2.400174e+02
   2.756082e+02  -1.078689e+02
   3.020405e+02   8.761575e+01
   1.692522e+02   2.000346e+02
  -1.034533e+01   1.888627e+02
  -7.435784e+01   1.009977e+02
  -8.249633e+01   7.235034e+01
  -4.855622e+01   1.004018e+02
  -1.248961e+02   7.078105e+01
  -9.113221e+01  -2.981567e+01
  -1.337773e+02  -1.446460e+02
  -4.343704e+01  -2.005174e+02
   1.240758e+02  -1.608107e+02
   1.564781e+02  -2.173614e+01
   1.299355e+02   1.186924e+02
   5.065837e+01   1.029537e+02
  -7.906070e+01   7.345631e+01
  -5.299501e+01   1.315112e+01
  -1.929045e+01  -7.098678e+01
   2.297626e+01  -2.995930e+00
  -3.819862e+01  -2.264308e+01
  -9.232466e+01   2.314747e+01
  -7.266848e+01  -6.677174e+01
   6.147012e+01  -3.953134e+01
   1.769039e+02  -9.220765e+00
   1.961004e+02   8.101944e+01
  -2.222166e+01   9.992422e+01
  -1.278266e+02   4.945012e+01
  -1.794090e+02  -2.625696e+01
  -4.470774e+01  -4.595822e+01
   6.595226e+01  -2.894837e+01
   6.489423e+01   2.859980e+01
   3.862485e+01   1.037980e+02
  -8.251467e+01   8.254220e+01
  -6.120156e+01  -2.062992e+01
  -6.762426e+01  -1.163857e+02
  -5.900995e+01  -6.711568e+01
  -6.076362e+01   5.937277e+01
  -6.406447e+01  -4.429466e+01
  -3.550949e+01  -7.415527e+01
   3.616593e+01  -1.474930e+02
   1.149771e+02  -1.242616e+02
   1.614866e+02  -2.177114e+01
   1.049508e+02   9.136456e+01
   3.724583e+00   8.512871e+01
  -5.703044e+01   2.050372e+01
  -6.465812e+01  -4.452043e+01
   7.413960e+01  -1.136763e+01
   1.455766e+02   1.382882e+01
   1.052918e+02   1.387943e+02
  -5.836285e+01   1.129137e+02
  -1.568934e+02   8.345202e+01
  -1.600908e+02  -6.894563e+01
  -3.871253e+01  -1.020722e+02
   8.232845e+01  -8.430492e+01
   5.103149e+01   7.985037e+00
  -3.703154e+01   4.461914e+01
  -7.365841e+01  -2.227779e+01
  -4.517334e+01  -1.555141e+02
   1.319532e+02  -1.822858e+02
   2.164795e+02  -5.465929e+01
   1.557274e+02   1.255112e+02
   6.110836e+00   2.198878e+02
  -1.212833e+02   1.526615e+02
  -7.761022e+01   1.033888e+01
  -8.703975e+01  -9.655668e+01
  -6.037965e+01  -9.909018e+01
   4.634941e+01  -8.606185e+00
   6.313413e+01   1.224634e+01
   6.121121e+01  -1.423903e+01
  -2.312787e+01  -4.652958e+01
   6.175562e+00   2.070494e+01
   8.226946e+01   6.109150e+01
   6.470547e+01   1.190340e+02
  -2.808052e+01   4.243228e+01
  -1.729196e+02  -4.341002e+01
  -1.124056e+02  -3.924230e+01
   2.001111e+01  -1.193369e+01
   1.397233e+02   1.922692e+00
   9.786704e+01  -1.495584e+01
  -2.211051e+01  -2.548660e+00
  -3.701070e+01   2.619267e+01
  -2.662931e+01  -1.216589e+01
   2.785848e+00   2.264029e+01
  -6.234113e+00  -6.564946e+00
  -1.076823e+02  -9.331714e+00
  -1.254471e+02  -6.123988e+00
   3.666254e+01  -9.848546e+01
   1.208665e+02  -1.133677e+02
   1.930392e+02  -8.038627e+01
   1.513324e+02   2.251464e+01
   9.723695e+00   1.891379e+02
  -4.873331e+01   1.501872e+02
  -9.758382e+01   6.447906e+01
  -1.178879e+02  -4.906501e+00
  -3.178718e+01  -5.205699e+01
   1.301949e+01  -2.729567e+01
   1.261953e+00  -8.677909e+00
  -1.543863e+01  -4.947251e+01
  -1.820435e+01  -9.604341e+01
   5.440837e+01  -6.169377e+01
   4.691425e+01   4.815560e+01
   2.517654e+01   1.035151e+02
  -2.341996e+01   1.180431e+02
  -5.748777e+01  -2.038248e+01
  -8.813542e+01  -8.444785e+01
   1.260519e+01  -1.015635e+02
   8.192081e+01  -3.764756e+01
   8.466338e+01   1.519272e+01
   2.891478e+01   2.038658e+01
  -5.519896e+01   4.343636e+01
  -8.282311e+01   2.298412e+01
   5.354353e+01   1.943314e+01
   8.543940e+01  -9.559991e+00
   1.996645e+01   4.487513e+01
  -1.004821e+02   6.067407e+01
  -9.699123e+01   5.159055e+01
  -4.912666e+01   1.518650e+01
   1.199568e+01  -7.837817e+01
   4.350117e+01  -7.129765e+01
   7.352444e+01  -1.839571e+01
  -4.410142e+00   4.950673e+01
  -3.179852e+01   4.638531e+01
  -1.554547e+01   2.839466e+01
   8.331496e+00  -5.600632e+01
  -1.337009e-01  -2.825059e+01
   2.855858e+01   1.271603e+01
   3.967166e+01   1.491314e+01
   2.153812e+01  -1.873717e+01
   4.679023e+00  -2.096408e+01
  -9.616046e+00   5.382090e+00
  -2.066877e+01  -5.900010e+00
  -1.601246e+01   2.254706e+01
  -4.451859e+01   1.936352e+01
  -6.489502e+00  -2.216447e+01
   1.496497e+01  -5.394034e+01
   5.259002e+01  -6.308847e+00
   6.830656e+01   4.552278e+01
   4.683582e+01   4.987752e+01
  -2.842925e+01   5.477234e+01
  -4.408913e+01  -7.927884e+00
  -8.019218e+01  -2.709205e+01
   7.697839e+00  -4.493766e+01
   4.567442e+01  -4.491228e+01
   3.857682e+00  -2.102566e+01
  -4.276487e+01   1.422633e+01
  -1.917814e+01  -2.954239e+01
  -2.258694e-01  -5.856026e+01
   1.199386e+02  -5.772295e+01
