
 $NMID
 id='ANONYMOUS ', fmtdat='(2E16.6)'
 volume=1.0
 tramp=1.0
 $END
   4.611036e+03  -2.772622e+01
   2.526107e+03   2.745733e+03
  -8.836672e+02   2.829236e+03
  -2.268914e+03   8.968997e+02
  -9.249931e+02  -7.034434e+02
   7.578298e+02  -6.660576e+02
   9.861446e+02   4.350716e+02
  -2.136864e+01   1.211984e+03
  -9.148203e+02   8.691754e+02
  -1.024465e+03  -1.719421e+02
  -4.813350e+02  -8.936058e+02
   2.902960e+02  -9.356352e+02
   6.771577e+02  -2.040931e+01
   3.907002e+02   8.348961e+02
  -2.859587e+02   7.707681e+02
  -6.872331e+02   3.686119e+01
  -3.154681e+02  -7.347899e+02
   3.955836e+02  -6.856016e+02
   6.243706e+02  -9.239853e+01
   3.234128e+02   4.000422e+02
   7.259029e+00   5.029468e+02
  -2.644854e+02   3.268937e+02
  -3.668242e+02  -2.314602e+01
   5.442108e+01  -1.472631e+02
   4.490679e+02   1.184672e+02
   2.251168e+02   4.979902e+02
  -5.097430e+02   4.753774e+02
  -9.508197e+02  -5.148898e+01
  -4.748695e+02  -6.007799e+02
   4.025030e+02  -5.197114e+02
   8.387796e+02  -7.993836e+00
   3.488313e+02   5.255729e+02
  -3.398409e+02   5.289674e+02
  -5.805169e+02   2.121106e+02
  -4.118684e+02  -2.499559e+02
  -6.603271e+01  -4.918666e+02
   2.281336e+02  -3.183886e+02
   1.378155e+02   1.780874e+02
  -1.988620e+02   4.504866e+02
  -4.711620e+02   6.467566e+00
  -2.807503e+02  -6.876285e+02
   3.405138e+02  -7.599353e+02
   6.681060e+02   4.754899e+01
   3.041138e+02   6.194949e+02
  -3.737938e+02   3.714746e+02
  -4.551596e+02  -3.867917e+02
   9.486999e+01  -6.500790e+02
   6.276411e+02  -1.626871e+02
   6.194234e+02   4.172240e+02
   1.366923e+02   6.440393e+02
  -4.081241e+02   3.339536e+02
  -5.873545e+02  -9.723824e+01
  -3.623330e+02  -4.282940e+02
   2.227115e+02  -3.582189e+02
   4.680401e+02  -6.549132e+01
   2.265415e+02   2.389482e+02
  -1.502413e+02   1.068399e+02
  -1.380400e+02  -1.622528e+02
   2.243277e+02  -2.162335e+02
   3.987555e+02   6.424978e+01
   1.463764e+02   3.058133e+02
  -2.057058e+02   3.104783e+02
  -2.892149e+02   1.155990e+02
  -1.968044e+02  -9.265064e+01
  -3.279804e+00  -2.197262e+02
   1.861312e+02  -2.935147e+02
   3.269034e+02  -2.651664e+02
   3.069069e+02   1.483550e+02
   1.044894e+02   4.650404e+02
  -1.037840e+02   4.117930e+02
  -1.095243e+02   9.935691e+01
  -5.061806e+01  -4.778378e+01
  -4.139915e+00   1.044376e+02
  -1.756771e+02   1.385125e+02
  -2.628467e+02  -3.905919e+00
  -1.805376e+02  -2.374992e+02
   3.155749e+01  -2.708583e+02
   2.313016e+02   2.073776e+01
   1.988021e+02   2.431426e+02
  -2.716305e+01   2.882493e+02
  -3.086944e+02   1.218735e+02
  -3.815690e+02  -1.379186e+02
  -1.760251e+02  -3.514046e+02
   6.142098e+01  -3.169026e+02
   2.035830e+02  -1.492867e+02
   1.575430e+02  -8.864020e+00
   6.997382e+01  -5.058156e+01
   2.443381e+02  -7.044365e+01
   3.947944e+02   3.036711e+01
   3.956414e+02   2.881975e+02
   5.258225e+01   4.446787e+02
  -3.463360e+02   4.491569e+02
  -5.173581e+02   2.312773e+02
  -3.536207e+02  -8.593610e+01
  -4.885813e+01  -3.130080e+02
   1.177678e+02  -2.702923e+02
   1.146619e+02  -1.428086e+01
  -1.355439e+02   1.154099e+02
  -2.331346e+02   3.250051e+01
  -3.417614e+01  -1.786830e+02
   2.068087e+02  -2.105021e+02
   2.326812e+02   1.065024e+02
  -4.931072e+01   1.777065e+02
  -2.125248e+02   6.308581e+01
  -1.736363e+02  -2.027161e+02
  -1.377645e+01  -3.355595e+02
   1.993545e+02  -2.013896e+02
   3.394303e+02   2.746898e+01
   2.676541e+02   2.515198e+02
   9.342132e+01   2.684352e+02
  -1.171709e+02   1.204128e+02
  -1.950595e+02   4.267568e+01
  -4.921124e+01  -4.434223e+01
   1.038458e+02  -8.219311e+00
   3.793473e+01   1.479377e+02
  -1.147784e+02   1.187134e+02
  -2.450080e+02  -2.765686e+00
  -6.336716e+01  -5.428290e+01
   7.855304e+01  -2.010393e+01
   4.505134e+01   3.170326e+01
  -1.336493e+02   6.332467e+01
  -2.787513e+02  -4.931520e+01
  -2.974110e+02  -1.158730e+02
  -5.565897e+01  -2.912870e+02
   1.872317e+02  -2.403369e+02
   2.916686e+02  -1.399115e+02
   1.679892e+02   5.441663e+01
   6.428880e-01   9.860062e+01
  -8.916716e+01  -1.485096e+01
  -2.059715e+00  -9.642528e+01
   1.843717e+02  -7.479517e+01
   2.495599e+02   8.895359e+01
   5.866715e+01   2.324320e+02
  -4.263480e+01   1.729752e+02
  -1.596327e+02   2.096371e+01
  -2.151371e+01  -4.547889e+01
   5.431194e+01  -1.688448e+01
   5.966726e+01   6.846370e+01
  -6.129363e+01   1.301558e+02
  -1.646272e+02   5.698514e+01
  -1.999027e+02  -1.199564e+02
   7.324369e+00  -1.844996e+02
   1.677368e+02  -1.522988e+02
   2.040986e+02  -4.313115e+01
   1.086118e+02   9.270335e+01
  -4.527406e+01   1.029739e+02
  -5.080880e+01   4.170069e+01
  -7.800511e+01   2.432951e+01
   1.771151e+01  -3.073515e+01
  -1.624956e+01   5.097095e+00
  -4.721586e+01   1.215314e+01
  -6.470806e+01  -5.532128e+01
  -5.098778e+01  -1.709535e+02
   1.065679e+02  -1.476100e+02
   2.752182e+02  -4.163191e+01
   2.002696e+02   1.102367e+02
   6.678374e+01   2.215933e+02
  -1.239076e+02   1.469349e+02
  -1.252711e+02   4.608536e+01
  -7.415266e+01  -3.370487e+01
  -4.133304e+01  -1.697661e+01
  -5.759886e+01   1.945142e+01
  -1.069583e+02   2.675410e+01
  -9.821686e+01  -3.796988e+01
   1.010763e+01  -5.805248e+01
   1.169579e+02  -1.115893e+02
   7.510654e+01   1.994209e+00
   3.340307e+01   7.320729e+01
  -1.470611e+02   8.254857e+01
  -1.894878e+02  -6.017103e+01
  -8.690602e+01  -1.730293e+02
   9.230258e+01  -2.132872e+02
   2.332180e+02  -7.294422e+01
   3.001211e+02   8.565138e+01
   1.013322e+02   1.685210e+02
   1.092973e+01   1.433609e+02
  -7.735677e+01   1.183108e+02
  -1.069332e+02   5.203339e+01
  -7.290034e+01   1.129497e+02
  -1.181850e+02   8.149712e+01
  -1.351576e+02  -2.366315e+01
  -1.063746e+02  -1.548058e+02
  -5.711154e+01  -2.119008e+02
   1.114245e+02  -1.734961e+02
   1.618935e+02  -1.750315e+01
   1.309635e+02   1.135351e+02
   1.799908e+01   1.504094e+02
  -4.559788e+01   8.566014e+01
  -5.138774e+01  -1.902126e+01
  -1.350172e+01   9.823467e+00
   3.248544e+00   8.127334e+00
  -7.956561e+01   1.702051e+01
  -9.492930e+01  -3.085193e+01
  -5.856266e+01  -6.051509e+01
   2.216793e+01  -7.612167e+01
   1.693217e+02  -3.424067e+01
   7.507048e+01   4.391594e+01
  -4.678311e+01   5.562277e+01
  -8.819110e+01   4.454232e+01
  -1.252293e+02   3.014955e+00
  -1.589320e+01  -6.497214e+00
   8.751362e+01  -5.374930e+01
   6.807757e+01   6.337855e+01
   1.223912e+01   8.815436e+01
  -5.892851e+01   8.219862e+01
  -7.896276e+01  -1.504289e+01
  -2.967554e+01  -6.230778e+01
  -3.191025e+01  -4.325743e+01
  -5.452691e+01   2.281170e+01
  -1.293407e+02  -6.239012e+00
  -6.319606e+01  -8.208553e+01
  -2.866356e+01  -1.886073e+02
   1.103920e+02  -2.158280e+02
   1.355447e+02  -3.474140e+01
   1.789519e+02   1.180128e+02
   4.156729e+01   7.100514e+01
  -5.478192e+01   5.633888e+01
  -6.990438e+01  -3.488444e+01
   6.930645e+01  -6.269505e+00
   1.570853e+02   1.222855e+01
   1.393836e+02   9.253516e+01
  -4.644335e+01   1.057241e+02
  -2.030829e+02   7.557932e+01
  -1.810065e+02  -8.260237e+01
  -5.208112e+01  -9.745555e+01
   8.017479e+01  -6.282335e+01
   7.398851e+01  -2.588786e+01
  -2.397832e+01   2.653888e+01
  -6.814301e+01   1.877911e+01
  -7.706071e+00  -1.208033e+02
   1.013010e+02  -9.799521e+01
   1.821737e+02  -3.703116e+01
   1.276781e+02   1.008146e+02
   2.961817e+00   2.034936e+02
  -9.455483e+01   1.301097e+02
  -7.966949e+01  -4.306055e+01
  -5.671966e+01  -7.687397e+01
  -2.304354e+01  -1.021121e+02
   5.308979e+00  -9.500641e+00
   6.249137e+00   2.194978e+01
   6.825944e+00   1.035414e+01
   4.085729e+01  -6.101883e+01
   2.507317e+01  -2.461985e+01
  -5.715544e-01   9.461817e+01
   3.705724e+01   7.001224e+01
  -8.896443e+00   3.602820e+01
  -8.631446e+01  -4.560009e+00
  -1.203961e+02  -4.554151e+01
  -4.707684e+01  -3.939182e+01
   8.436968e+01  -5.784838e+01
   8.709587e+01  -5.000082e+01
   2.486967e+01  -2.149376e+01
  -4.859232e+00   5.647806e+01
  -1.244298e+01   3.033215e+01
   2.201337e+01   2.387493e+01
  -4.554415e+01  -6.611589e+00
  -5.610631e+01  -5.816288e+01
  -1.138562e+02  -5.219311e+01
   3.946724e+01  -5.472419e+01
   1.091234e+02  -8.890190e+01
   1.631917e+02  -4.635426e+01
   1.567650e+02   5.135446e+01
   1.449752e+01   1.715790e+02
  -1.141490e+02   1.750006e+02
  -8.622228e+01   3.994255e+01
  -6.752889e+01  -2.009501e+01
   1.800493e+01  -9.703165e+01
  -1.107922e+00  -2.459496e+01
  -2.719420e+01   3.694815e+01
  -1.382307e+01  -2.152939e+00
   1.559469e+01  -5.947274e+01
   2.569370e+01  -6.634218e+01
   5.740123e+01   4.664418e+00
   4.712530e+01   1.110308e+02
  -2.969268e+00   1.256081e+02
  -8.082728e+01   3.509541e+01
  -7.175793e+01  -1.120943e+02
  -6.869631e+01  -8.357066e+01
   3.609915e+01  -4.240922e+01
   4.457096e+01   1.594243e+01
   3.969475e+01  -7.809108e-01
  -2.969952e+01   3.624006e+01
  -6.792906e+01   7.194366e+00
   1.073246e+01  -1.514663e+01
   6.306210e+01  -3.061505e+01
   5.677694e+00  -1.947099e+01
  -8.993098e+01   5.539802e+01
  -1.370323e+02   5.640826e+01
  -4.862714e+01  -3.756552e-01
   2.297950e+01  -8.076336e+01
   8.886865e+00  -5.828017e+01
   1.100841e+01  -1.533866e+01
  -2.392096e+00   6.300543e+01
  -3.237458e+01   3.118734e+01
  -2.146394e+01   1.079425e+01
  -2.033064e+01  -3.037534e+01
   2.339332e+01  -2.129276e+01
   5.227475e+00  -3.828170e+01
   1.958147e+01   2.849071e+01
   4.211256e+01   1.406608e+01
  -1.935284e+01  -3.574601e+01
  -2.024649e+01  -2.958372e+00
   2.503016e+00   3.186589e+01
  -1.242210e+01   5.614084e+01
  -4.548073e+01   5.666845e+00
  -4.047426e+01  -4.645451e+01
  -2.023627e+01  -7.663332e+01
   4.598697e+01  -2.708956e+01
   7.227151e+01   1.140828e+01
   4.067347e+01   5.733478e+01
  -3.178578e+01  -6.166444e+00
  -9.314044e+01   1.352463e+00
  -3.113236e+01  -5.384661e+01
   8.057229e+01  -3.418856e+01
   7.484879e+01  -2.655117e+01
   2.852767e+01  -7.616931e+00
  -4.480193e+01   9.610057e-01
  -2.747741e+01  -9.146678e+00
   5.781582e+01  -8.733812e+00
   8.397348e+01  -5.789586e+00
