
 $NMID
 id='ANONYMOUS ', fmtdat='(2E16.6)'
 volume=1.0
 tramp=1.0
 $END
   4.962207e+03   1.515318e+02
   2.750503e+03   2.930589e+03
  -9.917595e+02   2.971616e+03
  -2.476689e+03   8.646763e+02
  -1.036716e+03  -9.265710e+02
   8.299494e+02  -6.276666e+02
   1.065549e+03   4.993877e+02
  -8.254389e+01   1.155197e+03
  -1.013245e+03   8.565447e+02
  -1.083334e+03  -1.385676e+02
  -5.233676e+02  -1.032998e+03
   3.296233e+02  -9.297731e+02
   7.929950e+02  -1.029265e+02
   4.406918e+02   8.638268e+02
  -3.730409e+02   8.577067e+02
  -6.286260e+02  -3.255214e+01
  -2.643246e+02  -7.753131e+02
   4.452675e+02  -6.792331e+02
   6.459189e+02  -3.089182e+01
   4.480856e+02   5.410894e+02
   3.553445e+01   5.155436e+02
  -2.824016e+02   3.193231e+02
  -2.580804e+02   4.582900e+01
   4.519025e+01  -4.572547e+01
   4.128623e+02   6.693841e+01
   2.766000e+02   4.348466e+02
  -4.578355e+02   4.834494e+02
  -9.303280e+02   1.257618e+01
  -5.207366e+02  -6.353053e+02
   4.093211e+02  -6.175460e+02
   9.038138e+02   1.830271e+01
   4.294717e+02   5.566413e+02
  -3.315517e+02   6.543350e+02
  -6.504493e+02   2.052828e+02
  -4.397546e+02  -2.172773e+02
  -1.626307e+01  -5.159190e+02
   3.020574e+02  -3.292397e+02
   2.146552e+02   2.235361e+02
  -1.525574e+02   5.403439e+02
  -4.848713e+02   1.443476e+01
  -2.800037e+02  -7.013969e+02
   3.211058e+02  -7.889164e+02
   6.449014e+02   4.477861e+00
   2.974564e+02   6.604898e+02
  -2.565992e+02   4.023954e+02
  -4.339392e+02  -3.148185e+02
   3.074443e+01  -6.285770e+02
   5.739669e+02  -1.818455e+02
   6.460945e+02   4.523310e+02
   1.715680e+02   6.627437e+02
  -4.318925e+02   4.357947e+02
  -6.848739e+02  -5.671928e+01
  -4.081883e+02  -4.522834e+02
   1.931662e+02  -3.635109e+02
   4.663742e+02  -3.632584e+01
   1.704264e+02   2.476114e+02
  -2.000751e+02   1.060436e+02
  -1.962410e+02  -2.529354e+02
   1.789653e+02  -2.453972e+02
   3.864410e+02   7.459266e+01
   1.417322e+02   3.298006e+02
  -2.587801e+02   2.457825e+02
  -3.354297e+02   5.232062e+01
  -1.504206e+02  -4.700667e+01
   4.487776e+01  -1.721371e+02
   1.792172e+02  -3.247080e+02
   3.216996e+02  -2.214512e+02
   2.929999e+02   1.076095e+02
   8.253209e+01   4.868045e+02
  -1.826812e+02   4.049740e+02
  -1.815658e+02   5.541081e+01
  -5.652198e+01  -5.937104e+01
  -1.270603e+01   7.779120e+01
  -1.810861e+02   1.354823e+02
  -2.747847e+02  -3.840233e+01
  -1.743289e+02  -3.003183e+02
   8.113181e+01  -2.830550e+02
   2.539051e+02  -1.711436e+01
   2.381460e+02   2.381622e+02
   5.589530e+01   3.440706e+02
  -2.858054e+02   1.617032e+02
  -4.016876e+02  -1.938399e+02
  -2.246591e+02  -4.040930e+02
   9.179127e+01  -3.403429e+02
   2.742670e+02  -1.340113e+02
   1.704649e+02  -7.417154e-01
   8.407980e+01  -5.372920e+01
   3.049721e+02  -8.612879e+01
   4.541736e+02   3.928357e+01
   3.284593e+02   3.344505e+02
  -7.075174e+00   4.956279e+02
  -3.452900e+02   4.372335e+02
  -5.174663e+02   2.115170e+02
  -3.621448e+02  -1.071153e+02
  -7.497829e+01  -3.436411e+02
   1.052513e+02  -3.198564e+02
   1.004065e+02  -4.423299e+01
  -1.260957e+02   1.131291e+02
  -2.633678e+02  -5.449343e+00
  -9.700256e+01  -2.023995e+02
   1.468909e+02  -2.011345e+02
   1.915799e+02   3.371822e+01
  -5.427445e+01   1.898165e+02
  -2.358502e+02   2.091447e+01
  -1.170853e+02  -2.602300e+02
   6.016341e+01  -3.511841e+02
   2.476342e+02  -1.827755e+02
   3.666797e+02   5.686749e+01
   2.858870e+02   2.757701e+02
   1.460864e+02   2.947140e+02
  -8.080548e+01   1.549073e+02
  -2.098768e+02   4.785449e+01
  -1.215238e+02  -2.840322e+00
   6.111204e+01   1.350907e+01
   3.542402e+01   1.254821e+02
  -1.105459e+02   3.718241e+01
  -1.329122e+02  -3.619811e+01
  -7.885199e+01  -4.340608e+01
   9.387531e+01  -9.068254e+00
   3.692124e+01   1.188232e+02
  -1.721810e+02   8.701894e+01
  -3.067145e+02  -2.278890e+01
  -2.574382e+02  -1.328222e+02
  -7.201706e+01  -2.863479e+02
   1.819408e+02  -2.944273e+02
   3.306759e+02  -1.676407e+02
   2.230676e+02   7.641692e+01
  -4.287722e+01   1.231719e+02
  -9.606387e+01   1.880375e+01
   3.436201e+01  -1.089162e+02
   1.798362e+02  -6.709362e+01
   1.678428e+02   1.118860e+02
   7.171577e+01   2.103645e+02
  -9.963997e+01   1.836114e+02
  -1.398328e+02   5.702222e+01
  -7.835214e+01  -4.213176e+01
   1.647660e+01  -8.952252e+00
   1.422119e+01   6.971730e+01
  -5.035249e+01   4.309864e+01
  -1.755457e+02   2.749755e+01
  -2.340114e+02  -8.870818e+01
  -8.087482e+01  -2.021584e+02
   1.634776e+02  -1.462870e+02
   1.502050e+02  -1.076135e+01
   8.855437e+01   1.495127e+02
  -2.306640e+01   1.429107e+02
  -7.231333e+01   4.041977e+01
  -3.972294e+01   1.323083e+00
   2.836585e+01   1.532183e+01
   3.920137e+01   2.461179e+01
  -1.252345e+02  -5.795358e+00
  -9.535645e+01  -4.418565e+01
  -5.404489e+01  -1.700869e+02
   1.176538e+02  -1.888684e+02
   2.152536e+02  -5.079589e+01
   1.817152e+02   1.172963e+02
  -1.811365e-01   2.060930e+02
  -9.396433e+01   1.614085e+02
  -1.194945e+02   4.557094e+01
  -5.189144e+01  -3.762218e+01
  -5.311976e+01  -3.449412e+01
  -8.002315e+01  -1.577681e+01
  -1.103218e+02   9.521960e+00
  -6.872769e+01  -6.060765e+01
   2.704336e+01  -9.525873e+01
   1.145189e+02  -1.018787e+02
   8.921442e+01   4.351237e+01
  -1.802541e+01   1.374247e+02
  -1.765906e+02   1.140127e+02
  -2.533745e+02  -5.810428e+01
  -1.097894e+02  -2.133749e+02
   1.548987e+02  -2.627607e+02
   3.353066e+02  -1.313773e+02
   3.032780e+02   8.469180e+01
   1.174683e+02   1.881390e+02
  -7.279225e+01   1.623464e+02
  -1.020994e+02   9.809030e+01
  -1.008758e+02   5.092513e+01
  -1.022338e+02   5.119963e+01
  -1.079558e+02   7.725220e+01
  -9.894812e+01  -7.488014e+00
  -9.410749e+01  -1.345668e+02
  -4.243815e+01  -2.150238e+02
   1.008762e+02  -1.564660e+02
   1.711399e+02  -5.605263e+01
   1.324524e+02   1.251365e+02
   3.409685e+01   1.361317e+02
  -1.103071e+02   7.577916e+01
  -5.280146e+00   4.110428e+01
   1.528372e+00   2.551099e+00
   9.708595e+00  -3.484288e+01
  -7.674927e+01  -1.451600e+01
  -4.151038e+01  -3.090949e+01
  -8.206330e+00  -5.547101e+01
   2.564867e+01  -6.408441e+00
   1.430647e+02  -1.852400e+01
   1.924416e+02   3.068854e+01
   3.367396e+01   7.526285e+01
  -9.792180e+01   3.258900e+01
  -1.185278e+02   1.351271e+01
  -1.020123e+02  -2.273861e+01
   4.327396e+01  -3.649351e+01
   6.553940e+01   3.901105e+01
  -4.977507e+00   9.249343e+01
  -1.983290e+01   1.749928e+01
  -3.016849e+01  -1.225443e+01
   2.153711e+01  -6.146242e+01
  -5.495053e+00  -8.276995e+00
  -6.223057e+01  -3.540338e+00
  -1.075498e+02  -4.390350e+01
  -7.406509e+01  -8.474160e+01
  -2.104753e+01  -1.520068e+02
   7.903186e+01  -1.226506e+02
   2.335362e+02  -3.095137e+01
   1.239896e+02   1.112042e+02
   1.617735e+01   7.757046e+01
  -1.049341e+02   2.632425e+01
  -1.196432e+02  -7.126348e+01
   7.349725e+01  -2.285823e+01
   1.425072e+02   5.122687e+01
   1.013990e+02   9.984516e+01
  -4.714802e+01   1.170314e+02
  -1.851830e+02   6.107263e+01
  -1.428461e+02  -3.015704e+01
  -3.292250e+01  -7.650821e+01
   5.523050e+01  -1.070996e+02
   3.979102e+01  -2.331086e+01
  -6.539904e+01   2.125453e+01
  -7.108961e+01   2.020824e+01
   7.124718e+00  -1.230693e+02
   1.276106e+02  -1.672075e+02
   1.927565e+02  -1.300050e+01
   9.319254e+01   7.850484e+01
  -4.177642e+01   1.464995e+02
  -1.166603e+02   1.261514e+02
  -1.048328e+02  -2.079058e+01
  -5.374050e+01  -1.377572e+02
  -1.951707e+01  -1.070939e+02
   6.295715e+01  -1.670630e+00
   6.516524e+00   5.244303e+01
   1.904869e+01   4.121001e+01
  -1.247639e+01  -1.679359e+00
   3.443277e+01  -7.139545e+00
   9.803028e+01   6.030628e+01
   1.667447e+01   6.962538e+01
  -9.532049e+01   9.506051e+00
  -1.305873e+02  -3.751131e+01
  -1.671057e+02  -8.617561e+01
  -3.544753e+01  -7.181913e+01
   8.576266e+01  -5.149951e+01
   1.414331e+02  -5.165175e+01
   2.563806e+01   2.851784e+01
  -3.943100e+01   4.336725e+01
  -3.890585e+01   2.059609e+01
  -6.193179e+00  -1.799942e+01
  -4.471967e+01  -2.265160e+00
  -7.260291e+01   2.817395e+01
  -9.878035e+01   8.445644e+00
  -2.445532e+00  -6.287995e+01
   1.469458e+02  -1.502350e+02
   1.868838e+02  -8.299736e+01
   1.541664e+02   3.343790e+01
   9.260562e+00   1.454086e+02
  -5.824076e+01   1.606959e+02
  -1.274677e+02   9.628885e+01
  -9.083070e+01  -8.505508e+00
  -1.214023e+01   1.923913e+01
   4.195149e+00  -1.562689e+00
  -1.633756e+01  -2.121578e+01
  -2.138506e+01  -6.148207e+01
  -2.081145e+01  -1.270633e+02
   2.617489e+01  -8.749814e+01
   7.499378e+01   3.827558e+01
   1.057036e+02   1.241958e+02
   1.923456e+01   1.015067e+02
  -1.123377e+02   1.019514e+01
  -9.445974e+01  -1.103067e+02
  -7.882047e+01  -1.212702e+02
   8.065686e+01  -7.332945e+01
   7.652446e+01   1.251987e+00
   3.159031e+01   6.187804e+01
  -5.848638e+01   6.559696e+01
  -8.495853e+01   4.378714e+01
   3.835126e+01   2.929321e+00
   8.570266e+01  -4.817117e+01
   3.726531e+01  -1.631680e-01
  -1.028549e+02   5.989677e+01
  -1.041537e+02   1.018914e+02
  -6.266082e+01   7.155690e+01
  -1.317610e+01  -9.173381e+01
   4.787730e+01  -1.202610e+02
   5.681543e+00  -4.974580e+01
   1.357494e+01   1.108733e+02
   1.063168e+01   6.550598e+01
  -4.211432e+01   5.295604e+00
  -5.627810e+01  -2.093826e+01
   1.326121e+01  -3.454789e+01
   1.647174e+01  -2.794789e+01
   2.119817e+01   3.162986e+01
  -1.169743e+01  -2.695974e+01
   8.013874e+00  -2.163278e+01
  -4.306335e+01  -6.086884e+00
   1.889835e+01   3.963585e+01
   6.457721e+00  -5.166177e+00
  -1.538235e+01   1.383649e+01
  -2.902743e+01  -2.800555e+01
   2.353931e+01  -6.151691e+01
   4.956962e+01   4.404374e+01
   5.544700e+01   7.686236e+01
   1.650362e+01   1.106367e+02
  -8.517192e+01   1.201810e+01
  -1.057635e+02  -2.325214e+01
  -7.132892e+01  -2.193864e+01
   3.005442e+01  -7.542402e+01
   5.367396e+01  -1.790814e+01
   6.854992e+01  -5.466837e+01
   5.288673e+00   1.928300e+00
  -3.995053e+01   1.530567e+01
   5.820239e+00  -7.089081e+00
   8.042586e+01  -4.765047e+01
