
 $NMID
 id='ANONYMOUS ', fmtdat='(2E16.6)'
 volume=1.0
 tramp=1.0
 $END
  -4.527953e+03  -2.531569e+01
  -2.627412e+03  -2.969452e+03
   8.823948e+02  -3.010635e+03
   2.252414e+03  -9.264419e+02
   9.763725e+02   7.503817e+02
  -9.163183e+02   7.650136e+02
  -1.054235e+03  -4.264489e+02
  -6.049436e+01  -1.228405e+03
   9.923979e+02  -9.220893e+02
   1.031254e+03   1.128177e+02
   4.889929e+02   8.734959e+02
  -2.876269e+02   9.848488e+02
  -8.209735e+02   8.998225e+01
  -4.533228e+02  -7.578628e+02
   3.321263e+02  -7.859086e+02
   6.956213e+02   2.348514e+01
   2.712374e+02   7.270890e+02
  -4.193389e+02   5.395201e+02
  -5.409059e+02   1.491697e+01
  -4.289897e+02  -3.840156e+02
  -1.670615e+01  -3.832160e+02
   2.247123e+02  -3.003468e+02
   2.643700e+02   1.067386e+01
  -6.841010e+01   1.225219e+02
  -4.380724e+02  -1.151623e+02
  -2.473412e+02  -4.478649e+02
   4.773753e+02  -4.503004e+02
   9.551630e+02  -1.621908e+01
   5.471894e+02   5.676772e+02
  -3.809948e+02   5.834216e+02
  -7.828804e+02   2.116951e+01
  -4.022383e+02  -4.754082e+02
   2.565705e+02  -6.284410e+02
   6.307922e+02  -2.640491e+02
   4.230104e+02   2.742334e+02
   7.797981e+01   4.934285e+02
  -2.526012e+02   2.310915e+02
  -2.372287e+02  -3.209587e+02
   1.403248e+02  -5.173885e+02
   4.989843e+02  -5.409669e+01
   3.427720e+02   6.623198e+02
  -3.184615e+02   7.161580e+02
  -6.438972e+02   4.989696e+01
  -3.243967e+02  -6.337522e+02
   3.032812e+02  -3.263690e+02
   4.754308e+02   3.329560e+02
  -2.083946e+01   5.947619e+02
  -5.726141e+02   2.241142e+02
  -6.144639e+02  -3.838079e+02
  -1.713689e+02  -5.831390e+02
   3.753486e+02  -3.644814e+02
   6.868441e+02   5.708016e+01
   3.760834e+02   4.602324e+02
  -2.249822e+02   4.034304e+02
  -5.026275e+02   7.841085e+01
  -2.537687e+02  -2.196160e+02
   1.047248e+02  -1.734689e+02
   1.657251e+02   1.339654e+02
  -2.242038e+02   1.655322e+02
  -3.658800e+02  -9.334869e+01
  -9.439850e+01  -3.239450e+02
   2.572771e+02  -2.762817e+02
   3.652096e+02  -8.195709e+01
   1.925154e+02   8.998610e+01
   1.214875e+01   2.128535e+02
  -1.871757e+02   3.143842e+02
  -3.294855e+02   2.138799e+02
  -3.057662e+02  -1.642596e+02
  -1.217091e+02  -4.634643e+02
   1.177316e+02  -4.079245e+02
   1.301066e+02  -8.675802e+01
   3.676939e+01   1.970285e+01
   3.424467e+01  -7.944129e+01
   1.766356e+02  -1.855457e+02
   2.647907e+02  -2.141191e+01
   1.644297e+02   2.240251e+02
  -2.561593e+01   2.938113e+02
  -2.170681e+02   3.525612e+01
  -2.310713e+02  -1.795097e+02
   8.796915e+00  -2.975513e+02
   2.650597e+02  -1.228416e+02
   3.488775e+02   1.883930e+02
   2.005014e+02   4.029230e+02
  -1.061623e+02   3.752009e+02
  -2.366820e+02   1.173585e+02
  -2.035837e+02   2.058360e-01
  -9.668900e+01  -1.293720e+01
  -2.349771e+02   4.359142e+01
  -3.775635e+02  -2.651481e+01
  -3.085863e+02  -2.727790e+02
   1.955107e+01  -4.194494e+02
   3.368324e+02  -4.365090e+02
   5.135076e+02  -2.647854e+02
   3.640461e+02   1.056962e+02
   9.078253e+01   3.447404e+02
  -1.579050e+02   3.141734e+02
  -1.144259e+02   3.056693e+01
   7.860956e+01  -1.271707e+02
   1.845683e+02  -4.434359e+01
   6.245420e+01   1.762065e+02
  -1.643669e+02   1.457797e+02
  -1.886844e+02  -6.997827e+01
   1.049664e+01  -1.906055e+02
   2.023979e+02  -2.093176e+01
   1.883781e+02   2.262875e+02
  -1.915757e+00   4.014404e+02
  -1.936363e+02   1.497920e+02
  -3.012088e+02  -6.362654e+01
  -2.920289e+02  -2.347527e+02
  -9.556888e+01  -2.319730e+02
   1.241700e+02  -2.011843e+02
   2.182360e+02  -9.167866e+00
   3.364942e+01   3.227508e+01
  -9.514241e+01  -1.671702e+01
  -4.845183e+01  -1.190209e+02
   8.520718e+01  -1.026490e+02
   1.609040e+02   6.600728e+00
   4.283369e+01   6.677319e+01
  -6.323169e+01   3.381998e+01
  -7.410361e+01  -3.923335e+01
   1.074728e+02  -9.471097e+01
   3.358304e+02  -6.374888e+01
   3.133617e+02   1.122836e+02
   1.171249e+02   3.151560e+02
  -1.844093e+02   3.026227e+02
  -2.917924e+02   1.686140e+02
  -1.929519e+02  -4.592685e+01
   7.147271e+00  -9.360528e+01
   8.484492e+01  -1.650703e+01
   4.423245e+01   1.133218e+02
  -1.542398e+02   3.978849e+01
  -2.098519e+02  -7.241457e+01
  -1.214817e+02  -2.097498e+02
   8.015518e+01  -1.940027e+02
   1.607895e+02  -5.741633e+01
   1.100582e+02  -7.419227e+00
  -2.986720e+01   1.212891e+01
  -5.476878e+01  -5.064794e+01
   8.373080e+01  -1.164161e+02
   2.062324e+02  -7.726744e+01
   1.939219e+02   8.691151e+01
   5.985634e+01   2.352485e+02
  -1.285517e+02   1.512811e+02
  -2.013405e+02   3.403510e+01
  -5.972532e+01  -9.326787e+01
   3.319291e+01  -1.658297e+02
   1.245100e+02  -1.942185e+01
   5.174247e+01   1.927258e+01
   4.258247e+00   3.862468e+01
  -3.449480e+01  -2.081853e+00
   5.296954e+01  -3.656037e+00
   7.604605e+01   5.917393e+01
  -2.091248e+01   1.303335e+02
  -9.014678e+01   1.333069e+02
  -2.113574e+02   7.452480e+01
  -2.164033e+02  -6.538238e+01
  -5.054508e+01  -1.898397e+02
   7.110947e+01  -1.516344e+02
   1.968210e+02  -3.819823e+01
   6.727146e+01   1.315080e+01
   2.014634e+01   4.142853e+01
   9.378935e+01  -5.785657e+01
   8.733350e+01  -2.764961e+01
   1.120879e+01   9.722652e+00
  -7.777915e+01   7.624794e+01
  -9.378408e+01   1.923492e+01
  -7.439537e+01  -5.998746e+01
   2.277052e+01  -9.923836e+01
   1.390322e+02  -4.624630e+01
   1.646017e+02   5.219632e+01
   1.297020e+02   2.163892e+02
  -1.218537e+02   1.826348e+02
  -2.292995e+02   8.021379e+01
  -2.392667e+02  -1.256310e+02
  -1.225801e+02  -1.116218e+02
   1.142018e+01  -7.821162e+01
   1.108082e+02  -6.956362e+01
   6.976769e+01  -7.559086e+01
   8.774408e+01  -8.966263e+01
   1.071496e+02  -8.089561e+01
   1.520959e+02   3.702871e+01
   1.703845e+02   1.607903e+02
   2.681135e-01   2.099037e+02
  -1.229680e+02   2.168626e+02
  -1.557105e+02   6.125067e+00
  -1.135353e+02  -8.508613e+01
  -3.603246e+01  -1.624147e+02
   5.311791e+01  -8.564542e+01
   1.954714e+01  -1.440260e+01
   2.486943e+01   2.038522e+01
   6.680575e+00   1.473778e+01
   2.220442e+01   1.816667e+01
   7.016792e+01   2.322543e+01
  -3.047764e-02   2.933880e+01
  -2.219651e+01   6.302508e+01
  -1.274940e+02  -3.248679e+01
  -1.297942e+02  -3.364534e+01
  -6.259968e+00  -5.220073e+01
   9.237467e+01  -8.250527e+01
   1.621714e+02   5.063732e+00
   5.158484e+01   3.543588e+01
  -5.727259e+01  -1.496421e+01
  -9.295649e+01  -2.395043e+01
  -2.648303e+01  -3.935414e+01
   7.304424e+00  -6.552050e+01
   9.170122e+01  -8.682852e+00
   5.216179e+01   5.632487e+01
   8.395423e+01   5.674371e+01
   9.412823e+01   2.117926e+01
   9.133503e+01   4.299926e+01
   3.007235e+01   6.548027e+01
  -3.761588e+00   1.249445e+02
  -1.181589e+02   1.126762e+02
  -8.811267e+01   4.208562e+01
  -1.484122e+02  -8.181577e+01
   2.846964e+01  -1.380052e+02
   7.394414e+01  -3.421630e+01
   4.236349e+01   4.741991e+01
  -5.079235e+01   4.195144e+01
  -1.119997e+02  -4.661518e+01
  -1.102259e+02  -1.149985e+02
   4.492563e+01  -1.291725e+02
   1.848090e+02  -8.192806e+01
   2.076290e+02   6.221404e+01
   2.632817e+01   6.844604e+01
  -4.938007e+01   7.180048e+01
  -3.390951e+01  -1.363923e+01
   1.936615e+01   2.865050e+01
   7.825094e+01  -9.916253e-01
   2.192781e+01   1.201473e+02
  -1.068886e+02   9.421015e+01
  -1.475945e+02   4.941692e+01
  -8.478116e+01  -9.392394e+01
  -2.535058e+01  -1.294285e+02
   8.617210e+01  -1.665367e+02
   9.332358e+01   8.238501e+00
   1.369250e+02   9.453180e+01
   1.667604e+01   1.142433e+02
  -3.388940e+01  -5.037429e+00
  -1.245618e+01   6.952848e+00
  -3.453089e+01  -1.329959e+01
  -1.964243e+01   2.347478e+01
  -3.803009e+01  -2.298072e+01
  -7.774124e+01  -5.851906e+01
  -2.526769e+01  -8.288759e+01
   5.625314e+01   8.100893e+00
   1.332390e+02   4.018924e+01
   1.027866e+02   8.666066e+01
  -2.065030e+00   5.922869e+01
  -5.906583e+01   4.913247e+00
  -5.268801e+01   5.936477e+00
   4.748717e+00  -2.664864e+01
   2.773149e+01   7.531212e+00
   2.681403e+01  -3.176308e+01
   5.247841e+00   3.181223e+01
   2.872164e+01   3.742723e+01
   7.068808e+01   1.084968e+01
   8.053912e+01   3.554901e+01
   1.234867e+01   6.300312e+01
  -1.165925e+02   1.124096e+02
  -2.105373e+02   5.838626e+01
  -1.800180e+02  -3.040441e+01
  -2.443972e+01  -1.592042e+02
   7.920929e+01  -1.270762e+02
   1.309387e+02  -4.924646e+01
   9.030092e+01   1.499510e+01
   1.213776e-01   7.204294e+01
  -7.567300e+01   6.358842e+00
  -1.761571e+01   2.528976e+01
   2.834417e+01   4.820557e+01
   5.719843e+01   1.053242e+02
  -2.314178e+01   6.946453e+01
  -6.341237e+01   4.723631e+00
  -6.669162e+01  -1.270987e+02
  -2.000610e+00  -9.555885e+01
   1.022679e+02  -1.861669e+01
   9.239968e+01   6.867071e+01
   6.881986e+01   1.250780e+02
  -1.539392e+02   5.936293e+01
  -7.552601e+01  -2.182189e+01
  -2.859036e+01  -9.899194e+01
   5.835326e+01  -4.221231e+01
  -1.870119e+01   3.045627e+01
  -4.996186e+01   1.400929e+01
  -7.823234e+01  -4.245325e+00
  -2.752171e+01  -3.687827e+01
   8.207251e+01  -7.690641e+01
   1.433510e+02  -7.442412e+01
   4.197824e+01   1.983028e+01
  -4.889291e-01   8.112780e+01
  -2.346265e+01   5.210485e+01
  -1.861921e+01  -4.318335e+01
   9.982937e+00  -9.423756e+00
   4.486734e+01  -6.836246e+01
   8.681052e+01   2.640429e+01
   1.769252e+01   2.430139e+01
   2.588605e+01  -5.232507e+00
  -5.474814e+01  -3.537694e+01
  -1.741824e+01  -1.365841e+01
   1.670317e+01   1.688494e+01
  -6.305563e+00   3.134554e+01
   2.163371e+01  -3.376786e+01
   5.677104e+01  -6.014499e+01
   4.343488e+01  -5.357716e+01
   2.918157e+01   2.807185e+01
   1.842919e+01   6.499255e+01
  -3.126139e+01   7.705414e+01
  -5.296735e+01  -1.732066e+00
  -1.891838e+01  -5.182933e+01
  -1.376606e+01  -8.191634e+01
   9.548874e+01  -4.146693e+01
   7.468834e+01  -6.279407e+00
   3.847451e+01   9.941228e+00
  -3.005521e+01   7.980349e+01
  -2.525959e+01   1.079052e+01
  -1.605896e+01  -1.723564e+00
   1.706577e+00  -1.471104e+01
   3.843977e+01   2.490164e+01
  -5.807038e+01   2.797791e+01
  -9.914490e+01   2.576224e+01
