
 $NMID
 id='ANONYMOUS ', fmtdat='(2E16.6)'
 volume=1.0
 tramp=1.0
 $END
   4.587128e+03  -8.647060e+01
   2.693450e+03   2.943895e+03
  -9.760544e+02   2.990715e+03
  -2.455095e+03   8.626684e+02
  -9.999451e+02  -8.396780e+02
   8.856482e+02  -6.924813e+02
   9.041600e+02   4.460934e+02
  -1.107148e+02   1.190768e+03
  -9.948939e+02   7.916083e+02
  -1.010673e+03  -1.242111e+02
  -4.962513e+02  -9.917648e+02
   3.008206e+02  -9.763080e+02
   7.007365e+02  -1.308356e+02
   3.575578e+02   8.660340e+02
  -3.309909e+02   8.974789e+02
  -6.967257e+02  -2.221863e+01
  -2.534756e+02  -8.467605e+02
   3.978784e+02  -6.581727e+02
   6.518520e+02  -9.369981e+01
   3.199596e+02   4.227330e+02
  -2.000136e+01   4.655890e+02
  -3.506224e+02   2.659435e+02
  -2.775382e+02  -3.768048e+01
   4.413689e+01  -1.369254e+02
   4.262875e+02   1.455839e+02
   1.923038e+02   4.782594e+02
  -4.860417e+02   4.778984e+02
  -8.827534e+02  -6.333714e+01
  -4.546685e+02  -6.975055e+02
   5.113001e+02  -5.482865e+02
   8.564734e+02  -1.384648e+01
   3.743765e+02   5.936197e+02
  -3.048452e+02   5.575213e+02
  -6.717902e+02   2.125509e+02
  -4.531970e+02  -2.913378e+02
  -7.694338e+01  -5.239433e+02
   2.698978e+02  -3.433169e+02
   2.821074e+02   2.234942e+02
  -9.845176e+01   5.132726e+02
  -4.931113e+02   5.349546e+01
  -3.140088e+02  -7.151415e+02
   3.529992e+02  -7.233019e+02
   6.746804e+02  -9.146605e+00
   2.829664e+02   6.483946e+02
  -3.346983e+02   4.334161e+02
  -4.453310e+02  -3.168333e+02
   4.773776e+01  -6.228191e+02
   6.037768e+02  -1.769749e+02
   6.029915e+02   4.243299e+02
   1.348071e+02   6.051347e+02
  -4.054630e+02   3.795336e+02
  -6.927033e+02  -9.862607e+01
  -3.960147e+02  -4.452231e+02
   2.338560e+02  -4.113043e+02
   5.064649e+02  -1.737220e+01
   2.095866e+02   3.160387e+02
  -1.450779e+02   1.438971e+02
  -1.888479e+02  -2.229044e+02
   1.633767e+02  -2.144804e+02
   4.379900e+02   5.894845e+01
   2.050327e+02   3.512757e+02
  -2.039816e+02   3.030516e+02
  -3.666460e+02   5.205302e+01
  -2.143962e+02  -8.951128e+01
   1.330014e+01  -1.861393e+02
   2.321875e+02  -3.024400e+02
   3.585983e+02  -2.050561e+02
   3.105475e+02   1.368711e+02
   1.102188e+02   5.049144e+02
  -1.482961e+02   4.139112e+02
  -1.845587e+02   1.244794e+02
  -6.785333e+01  -7.043221e+01
  -7.133523e+01   5.803282e+01
  -1.732851e+02   1.177446e+02
  -2.549812e+02  -4.921536e+01
  -1.649148e+02  -2.888191e+02
   4.925019e+01  -3.433111e+02
   2.761111e+02  -3.231832e+01
   2.155213e+02   2.542351e+02
   2.720617e+01   3.260534e+02
  -2.113730e+02   1.281610e+02
  -3.984411e+02  -1.606383e+02
  -2.596343e+02  -3.806043e+02
   1.268611e+02  -2.960827e+02
   2.698218e+02  -1.312899e+02
   1.510206e+02   5.056374e+01
   3.804205e+01  -2.526816e+01
   2.067573e+02  -7.470190e+01
   4.305464e+02   6.222795e+01
   3.344568e+02   2.440851e+02
   3.686859e+01   4.595722e+02
  -3.402226e+02   4.303984e+02
  -5.360747e+02   1.879001e+02
  -3.143770e+02  -1.152394e+02
  -4.064094e+01  -3.455109e+02
   1.423346e+02  -2.927192e+02
   1.016681e+02  -3.701926e+01
  -8.940861e+01   1.042128e+02
  -2.088973e+02   3.255554e+01
  -1.155725e+02  -1.722551e+02
   1.414218e+02  -1.970186e+02
   2.134765e+02   5.586673e+01
   1.794987e+00   2.028861e+02
  -2.159277e+02   7.089437e+01
  -1.695094e+02  -2.656193e+02
  -1.363026e+01  -3.646014e+02
   2.583725e+02  -2.339814e+02
   3.519014e+02   3.993808e+01
   3.038901e+02   2.407496e+02
   1.290646e+02   2.682912e+02
  -1.481297e+02   1.646310e+02
  -2.103653e+02   3.181709e+01
  -8.865112e+01  -5.459184e+01
   8.507293e+01   3.534882e+01
   6.497700e+01   1.342114e+02
  -1.892259e+02   1.178125e+02
  -2.097125e+02  -1.206459e+01
  -4.907848e+01  -9.407582e+01
   1.212439e+02  -3.227513e+01
   7.333839e+01   5.196818e+01
  -1.532229e+02   3.685596e+01
  -2.651102e+02   3.734638e+01
  -2.271781e+02  -1.161193e+02
  -1.015901e+02  -2.584972e+02
   1.538690e+02  -2.755543e+02
   2.841344e+02  -1.604803e+02
   1.690189e+02   7.481786e+01
  -9.034973e+00   9.142699e+01
  -9.498756e+01   1.954933e+01
  -1.031871e+01  -1.577815e+02
   1.673108e+02  -5.925925e+01
   2.757325e+02   9.845650e+01
   1.369374e+02   2.241221e+02
  -1.262158e+02   1.926835e+02
  -1.973956e+02   1.524339e+01
  -1.069350e+02  -8.985214e+01
  -3.866926e+00   3.457663e+00
   3.020141e+01   8.264579e+01
  -7.248771e+01   6.640037e+01
  -1.597770e+02   2.539669e+01
  -2.486509e+02  -8.007712e+01
  -9.591196e+01  -2.296816e+02
   1.776632e+02  -1.852981e+02
   1.733451e+02   5.488918e+00
   3.779051e+01   1.561823e+02
  -7.141917e+01   1.207941e+02
  -1.100890e+02   8.113754e+00
  -2.298146e+01  -4.517139e+01
  -1.458240e+01  -4.574525e+01
  -3.015832e+01  -3.253834e+01
  -9.177372e+01  -1.393724e+01
  -5.115177e+01  -8.167688e+01
  -4.339148e+00  -1.695708e+02
   1.430912e+02  -1.463714e+02
   2.074248e+02  -1.026724e+01
   2.177450e+02   1.547727e+02
   5.151914e+01   2.662515e+02
  -1.002726e+02   1.873534e+02
  -1.410799e+02  -2.309834e+01
  -4.034552e+01  -8.458272e+01
  -3.680455e+01  -6.163323e+01
  -3.587328e+01   1.763594e+00
  -5.526340e+01  -2.041941e+01
  -2.118054e+01  -7.447397e+01
   3.435336e+01  -7.180935e+01
   1.091476e+02  -5.200291e+01
   7.424735e+01   3.185189e+01
  -1.700660e+01   5.868052e+01
  -1.216410e+02   9.365314e+01
  -1.827884e+02  -3.931903e+01
  -1.026731e+02  -2.170676e+02
   8.210019e+01  -2.355401e+02
   2.404305e+02  -1.379671e+02
   2.699243e+02   7.185835e+01
   1.226333e+02   1.737565e+02
  -5.595573e+01   1.577928e+02
  -7.749581e+01   3.622218e+01
  -6.034374e+01   5.674727e+01
  -9.326214e+01   1.180244e+02
  -3.575326e+01   1.042148e+02
  -1.096510e+02  -2.146060e+00
  -6.613364e+01  -1.651058e+02
   3.251271e+00  -2.740152e+02
   1.094509e+02  -1.802389e+02
   1.953591e+02   6.323234e+00
   7.191049e+01   1.611632e+02
  -1.377987e+01   1.611022e+02
  -1.026666e+02   1.052452e+02
  -3.489554e+01  -2.717029e+01
   6.894406e+00  -4.494548e+01
  -1.643227e+00  -3.831522e+01
  -3.462930e+01  -3.266689e+01
  -5.940364e+01  -8.663672e+00
   7.312829e+00  -1.053841e+01
   7.730919e+01  -3.063621e+01
   1.520462e+02  -5.430437e+00
   1.672658e+02   8.056217e+01
   4.460360e+01   8.870317e+01
  -1.413361e+02   1.056136e+02
  -1.583235e+02   1.415584e+01
  -5.769675e+01  -4.747451e+00
   5.685873e+01  -2.935105e-01
   7.685407e+01   4.602858e+01
  -2.585247e+00   1.022947e+02
  -4.753514e+01   5.203862e+01
  -7.593783e+01  -4.281403e+01
  -1.249733e+00  -8.544185e+01
  -1.590518e+01  -3.655939e+01
  -4.559928e+01   1.386147e+01
  -7.276097e+01   1.724422e+01
  -5.682068e+01  -9.166561e+01
   4.431006e+01  -1.630069e+02
   1.031198e+02  -1.253590e+02
   1.712863e+02  -4.419692e+01
   9.290504e+01   9.093744e+01
  -2.905597e+01   1.154293e+02
  -1.247914e+02   8.944271e+01
  -7.241937e+01  -2.116041e+00
   9.203418e+01  -6.381077e+01
   1.591239e+02   1.620493e+01
   7.521314e+01   1.021342e+02
  -5.794140e+01   1.210780e+02
  -1.716336e+02   7.750652e+01
  -1.776342e+02  -3.635966e+01
  -3.502897e+01  -9.252471e+01
   6.858778e+01  -1.635232e+01
   7.629928e+01   1.668495e+01
  -5.165720e+00   6.292603e+01
  -1.124303e+02   2.307650e+01
  -4.509273e+01  -1.253362e+02
   7.937714e+01  -1.460387e+02
   1.741723e+02  -5.460273e+01
   1.309338e+02   8.004402e+01
  -2.775312e+01   1.959851e+02
  -1.137169e+02   1.427638e+02
  -1.213284e+02   7.086172e+00
  -5.186254e+01  -1.064026e+02
  -1.934886e+01  -1.811329e+02
   5.863925e+01  -4.496374e+01
   4.276859e+01   5.963043e+01
   4.007601e+00  -9.547621e+00
  -1.846970e+01  -6.397032e+01
   3.197366e+01  -2.602880e+01
   9.284002e+01   7.444314e+01
   3.896481e+01   1.012371e+02
  -4.775319e+01   4.222830e+01
  -1.390174e+02  -5.597911e+01
  -1.308090e+02  -8.081900e+01
  -4.361682e+01  -3.767453e+01
   7.191440e+01   3.655962e+00
   9.780667e+01  -1.451984e+01
   1.141758e+01   1.696291e+01
  -4.707803e+01   7.643845e+00
  -2.433465e+01   1.820981e+01
   1.524312e+01  -4.810861e+01
   1.642725e+01  -2.219836e+01
  -5.294020e+01  -2.793092e+00
  -6.459998e+01  -2.080429e+01
  -3.215012e+01  -3.752350e+01
   1.310072e+02  -1.260310e+02
   1.691960e+02  -4.466216e+01
   1.160778e+02   8.410920e+01
   4.922027e+01   1.462245e+02
  -4.218327e+01   1.490453e+02
  -8.851161e+01   3.735519e+01
  -7.470206e+01   1.054562e+01
  -1.443543e+01  -1.583685e+01
   1.364233e+01  -1.767789e+01
  -1.190059e+01   1.031783e+01
  -4.203107e+01  -5.231349e+01
  -7.965017e+00  -9.887349e+01
   1.232887e+01  -6.977260e+01
   8.026495e+01   4.028436e+01
   8.544994e+01   1.082482e+02
  -4.340822e+01   1.218587e+02
  -1.107653e+02  -1.042737e+01
  -5.235246e+01  -1.245629e+02
   3.263499e+01  -1.337713e+02
   6.829718e+01  -4.788188e+01
   8.539682e+01   1.820018e+01
   6.927656e+01   1.008473e+02
  -3.807542e+01   3.638852e+01
  -2.755834e+01   4.954628e+00
   4.018082e+01  -3.034027e+01
   1.011879e+02  -2.352694e+01
   2.187557e+01   1.003177e+02
  -1.084279e+02   3.123676e+01
  -8.809320e+01   2.546551e+01
  -5.481251e+01  -2.712144e+01
   2.488590e+01  -8.811312e+01
   9.818897e+01  -6.267880e+01
   5.491712e+01   7.971430e+00
   1.913272e+01   8.370501e+01
  -5.675161e+01   7.843876e+01
  -5.182267e+01  -9.755711e+00
  -3.701634e+01  -2.504670e+01
   4.395292e-01  -1.691996e+01
  -1.224878e+01  -2.855912e+01
   2.002197e+01   4.604376e+01
  -4.345389e+00  -2.110404e+01
   1.384413e+01  -2.468266e+01
  -6.604748e+00  -5.429311e+00
   3.000019e+00  -2.185476e+01
  -2.027025e+01   3.694853e+01
  -2.565644e+01   2.968141e+01
  -1.612573e+01  -4.330254e+01
   1.489456e+01  -5.721440e+01
   5.694781e+01  -6.877374e+01
   1.128994e+02   5.300785e+01
   7.570647e+00   7.929629e+01
  -4.368630e+01   8.498864e+01
  -9.175904e+01   1.213856e+00
  -6.999869e+01  -6.491518e+01
   2.424605e+01  -3.968385e+01
   4.720786e+01  -1.624158e+01
   5.353595e+00   1.657116e+01
  -3.508952e+01  -1.529743e+01
  -2.574454e+00  -3.374508e+01
   3.629561e+01   1.617689e+01
   7.883245e+01  -2.792359e+00
