
 $NMID
 id='ANONYMOUS ', fmtdat='(2E16.6)'
 volume=1.0
 tramp=1.0
 $END
   4.489906e+03   3.121365e+01
   2.575448e+03   2.789876e+03
  -8.629517e+02   3.071014e+03
  -2.245999e+03   8.642176e+02
  -1.022478e+03  -8.271137e+02
   7.683849e+02  -7.035724e+02
   9.978362e+02   4.712886e+02
   2.962666e+01   1.198082e+03
  -9.007303e+02   7.908393e+02
  -1.004996e+03  -1.426612e+02
  -5.129977e+02  -9.101107e+02
   2.792743e+02  -9.580283e+02
   7.163224e+02  -1.271539e+02
   3.626647e+02   8.429780e+02
  -3.628811e+02   8.095003e+02
  -6.684550e+02  -5.127823e+01
  -2.870940e+02  -7.842117e+02
   4.168523e+02  -6.341406e+02
   6.342884e+02  -1.013973e+02
   3.654249e+02   3.297128e+02
  -1.316604e+01   4.808496e+02
  -2.474752e+02   3.368571e+02
  -1.664574e+02   1.812086e+01
   1.303570e+02  -9.665423e+01
   4.430258e+02   1.346887e+02
   2.290042e+02   4.837609e+02
  -4.859895e+02   5.427234e+02
  -9.037940e+02  -1.102396e+02
  -5.055482e+02  -6.007631e+02
   4.017278e+02  -5.689540e+02
   8.011257e+02  -3.554740e+01
   3.333907e+02   4.982082e+02
  -3.322341e+02   6.055181e+02
  -6.034282e+02   2.431602e+02
  -4.432743e+02  -2.348775e+02
  -8.866866e+01  -4.917428e+02
   2.242517e+02  -2.773506e+02
   1.979030e+02   2.215900e+02
  -1.943522e+02   4.684062e+02
  -4.809910e+02  -6.654486e+01
  -2.351453e+02  -6.854563e+02
   3.958296e+02  -7.225875e+02
   6.316457e+02  -2.336615e+01
   2.531926e+02   5.737613e+02
  -2.994863e+02   3.833181e+02
  -4.046147e+02  -3.128025e+02
   7.758332e+01  -5.865349e+02
   5.766346e+02  -1.404243e+02
   5.945188e+02   4.161610e+02
   1.851140e+02   6.552080e+02
  -3.616489e+02   3.523930e+02
  -6.662946e+02  -4.732200e+01
  -4.207881e+02  -4.034690e+02
   1.396767e+02  -4.042849e+02
   4.587366e+02  -1.066955e+02
   3.154102e+02   2.075734e+02
  -1.155455e+02   1.110572e+02
  -1.124704e+02  -1.602811e+02
   2.008387e+02  -2.351813e+02
   3.572551e+02   5.341665e+01
   1.926654e+02   3.116988e+02
  -1.842520e+02   2.957440e+02
  -3.161841e+02   9.991271e+01
  -1.837335e+02  -1.035727e+02
   3.986315e+01  -2.281545e+02
   2.265254e+02  -2.926365e+02
   3.554371e+02  -1.729267e+02
   3.051137e+02   1.593996e+02
   6.497777e+01   4.128291e+02
  -1.205831e+02   3.942222e+02
  -1.429592e+02   1.183973e+02
  -4.536093e+01   3.812373e+01
  -1.281230e+01   9.097210e+01
  -1.802066e+02   1.250551e+02
  -2.680867e+02  -1.257594e+01
  -2.183816e+02  -2.835093e+02
   4.813310e+01  -2.836943e+02
   2.807098e+02  -6.933759e+01
   2.536041e+02   2.473488e+02
   1.237762e+01   2.973166e+02
  -2.411455e+02   1.543560e+02
  -3.709519e+02  -1.873574e+02
  -1.754223e+02  -4.046392e+02
   1.185495e+02  -3.397822e+02
   2.401657e+02  -1.240872e+02
   1.752191e+02  -2.097325e-01
   9.456817e+01  -1.571115e+00
   2.467043e+02  -5.552490e+01
   4.142564e+02   2.668875e+01
   3.683134e+02   2.993551e+02
   5.335639e+00   4.919810e+02
  -4.132672e+02   4.406201e+02
  -5.840512e+02   2.125951e+02
  -4.071865e+02  -1.336996e+02
  -1.128839e+02  -2.897199e+02
   9.167084e+01  -2.500868e+02
   7.566749e+01  -5.205761e+01
  -1.409215e+02   6.782550e+01
  -2.333721e+02  -1.957539e+01
  -7.154529e+01  -2.218878e+02
   1.473165e+02  -2.363565e+02
   2.395134e+02   5.718282e+01
   1.184812e+01   2.139208e+02
  -2.349524e+02   8.951240e+01
  -1.965651e+02  -2.141345e+02
   3.347355e+01  -3.731588e+02
   2.059755e+02  -2.253441e+02
   3.163585e+02   4.251533e+01
   2.648365e+02   2.702707e+02
   8.524540e+01   2.696812e+02
  -1.552033e+02   1.327773e+02
  -1.669266e+02  -6.451336e+00
  -1.385098e+01  -4.319977e+01
   8.418610e+01   1.046370e+02
   1.888670e+01   1.557130e+02
  -1.450700e+02   7.548542e+01
  -2.060943e+02   4.142753e-01
  -1.044467e+02  -4.443723e+01
   5.951707e+01  -7.501250e+00
   6.940316e+01   2.341149e+01
  -1.279322e+02   8.659270e+01
  -2.957722e+02   2.830649e+01
  -2.910773e+02  -1.075079e+02
  -9.437039e+01  -2.670177e+02
   1.861484e+02  -2.483352e+02
   2.234077e+02  -1.552442e+02
   1.887892e+02   2.756453e+00
   1.564059e+01   1.169010e+02
  -8.389104e+01   4.079305e+01
   2.857329e+01  -1.171789e+02
   2.107575e+02  -1.064296e+02
   2.281528e+02   1.050519e+02
   7.217084e+01   1.682218e+02
  -1.177185e+02   1.829209e+02
  -1.527574e+02   3.738280e+01
  -4.252860e+01  -5.833883e+01
  -5.296090e+00   5.016246e+00
   4.836764e+01   5.338949e+01
  -7.216897e+01   4.759504e+01
  -1.560416e+02   1.064727e+00
  -2.181058e+02  -1.397513e+02
  -2.743358e+01  -2.513078e+02
   1.458333e+02  -1.130176e+02
   2.072723e+02  -3.663848e+01
   8.249157e+01   1.494365e+02
  -7.712633e+01   1.498341e+02
  -9.443128e+01   3.846518e+01
  -4.231722e+01  -3.324006e+01
   5.367377e+01  -7.817963e+01
   4.593762e+00  -2.137897e+01
  -8.886713e+01  -1.341923e+01
  -6.724587e+01  -9.040264e+01
   3.688422e+01  -1.536900e+02
   1.330317e+02  -1.297164e+02
   2.330347e+02  -2.844743e+01
   2.117648e+02   1.315743e+02
   4.747246e+01   2.409437e+02
  -1.292287e+02   1.909468e+02
  -1.012985e+02   5.076444e+01
  -9.619575e+01  -6.845731e+01
  -4.989567e+01  -3.361440e+01
  -5.229003e+01   8.703558e+00
  -1.286144e+02  -1.027448e+01
  -5.741649e+01  -3.640979e+01
   4.571936e+01  -9.074329e+01
   8.796364e+01  -1.036388e+02
   1.044778e+02   1.434791e+01
   1.549943e+00   9.665832e+01
  -1.041403e+02   8.921702e+01
  -1.797564e+02  -2.311525e+01
  -1.028172e+02  -1.836901e+02
   1.244930e+02  -2.209826e+02
   2.520613e+02  -8.592737e+01
   2.234612e+02   8.637778e+01
   1.197484e+02   1.544398e+02
  -2.709570e+01   1.277877e+02
  -1.166961e+02   4.139722e+01
  -6.760388e+01   5.428718e+01
  -3.446745e+01   9.401865e+01
  -7.714021e+01   7.302068e+01
  -1.294440e+02   6.608621e+00
  -1.061565e+02  -1.664198e+02
  -4.622060e+01  -2.085915e+02
   1.216986e+02  -1.524524e+02
   1.607153e+02  -1.211888e+01
   1.054648e+02   9.572741e+01
   5.243011e+01   1.714382e+02
  -2.323576e+01   1.147406e+02
  -3.875153e+01  -4.918125e+00
   1.945193e+01  -3.782724e+01
   8.392151e+00   1.900363e+01
  -6.715850e+01   3.506811e+01
  -1.415289e+02   4.579627e+00
  -8.920006e+01  -5.737538e+01
   7.102959e+01  -5.943820e+01
   1.613949e+02  -4.367020e+00
   1.214039e+02   4.072532e+01
   5.976366e+01   5.580272e+01
  -7.056207e+01   6.821066e+01
  -1.263986e+02   3.222412e+01
  -1.697062e+01  -2.203970e+01
   4.900500e+01  -5.643564e+01
   7.736037e+01   1.857994e+01
  -4.906226e+01   7.284322e+01
  -8.830948e+01   6.100132e+01
  -4.818741e+01   9.471656e+00
  -6.113632e+00  -3.588778e+01
  -1.351834e+01  -3.894828e+01
  -5.785786e+01  -1.531982e+01
  -6.441692e+01   9.798451e+00
  -5.457436e+01  -6.038833e+01
   2.448327e+01  -1.145210e+02
   1.202574e+02  -1.327756e+02
   2.340030e+02  -2.942604e+01
   1.436531e+02   9.645941e+01
   5.692803e+00   8.058498e+01
  -7.586684e+01   7.962650e+01
  -5.286333e+01   3.272695e+01
   8.228437e+01  -1.822678e+01
   1.281230e+02   3.927667e+01
   1.050032e+02   1.015191e+02
  -8.142313e+01   1.918010e+02
  -2.190434e+02   2.670300e+01
  -1.477645e+02  -1.049863e+02
  -1.116586e+01  -9.414422e+01
   4.382273e+01  -9.158800e+01
   5.134919e+01   1.280373e+01
  -5.455141e+00   4.258615e+01
  -1.081333e+02  -1.014403e+01
  -4.970029e+01  -1.295496e+02
   1.118330e+02  -1.835881e+02
   1.682163e+02  -7.443966e+01
   1.014113e+02   1.053249e+02
   5.448584e+00   1.828438e+02
  -5.959833e+01   1.680940e+02
  -9.252616e+01  -2.044889e+00
  -6.413157e+01  -7.883943e+01
   1.215503e+01  -8.644533e+01
   5.090261e+01  -3.306330e+01
   3.893565e+01   9.906294e+00
   2.081378e+01  -1.314963e+01
   3.246068e+01  -1.677588e+01
  -2.276307e+00   2.527647e+01
   4.523062e+01   9.287306e+01
   3.554760e+01   1.319350e+02
  -3.072138e+01   2.678004e+01
  -1.412631e+02  -4.345562e+01
  -1.512743e+02  -8.139122e+01
  -5.127057e+01  -3.331698e+01
   9.343443e+01  -4.347730e+01
   8.371792e+01  -2.736179e+01
  -8.413823e+00  -9.261192e+00
  -3.646436e-01   1.025887e+01
   3.719652e+01   3.125216e+01
   9.232364e+00  -2.286542e+01
  -1.614473e+01  -3.501141e+01
  -7.374618e+01   2.451016e+01
  -8.120801e+01  -2.808322e+01
  -1.672549e+01  -1.379239e+02
   1.304586e+02  -1.465026e+02
   1.904824e+02  -9.346860e+01
   1.675158e+02   3.057055e+01
   4.538302e+01   9.830156e+01
  -6.162573e+01   1.057736e+02
  -1.364029e+02   7.258205e+01
  -1.078334e+02  -2.276495e+01
  -8.011716e+00  -3.966883e+01
  -1.380655e+01   1.190100e+01
  -3.536865e+01  -7.291810e+00
  -4.828484e+01  -3.380625e+01
  -2.101174e+01  -6.078620e+01
   6.618891e+01  -5.224880e+01
   3.995126e+01   2.817333e+00
   6.552501e+01   1.285655e+02
   2.089975e+01   1.235815e+02
  -6.037658e+01   7.647616e+00
  -9.121870e+01  -6.426079e+01
  -4.176831e+01  -1.301889e+02
   7.426038e+01  -7.988307e+01
   6.961183e+01   9.736857e+00
  -8.702665e+00   3.009040e+01
  -4.685810e+01   4.982768e+01
  -3.804260e+01   1.298878e+01
   6.738102e+01  -2.874629e+01
   9.203478e+01   2.612703e+00
   3.444790e+01   2.342529e+01
  -1.158493e+02   5.503130e+01
  -9.191552e+01   1.064233e+02
  -4.561190e+01  -1.342453e+01
   1.588264e+01  -1.220733e+02
   3.119463e+01  -9.703428e+01
   7.782210e+01  -6.213769e+00
  -3.888251e+00   5.521712e+01
  -4.732802e+01   8.126032e+01
  -4.733926e+01   1.398810e+01
  -4.567352e+01  -7.170594e+01
  -7.196262e+00  -1.949807e+01
   7.824333e+00   2.881494e+01
  -3.349406e+00  -3.332770e+01
   2.938834e+01   1.414466e+01
  -1.345702e+01  -2.959186e+01
   5.381436e+01  -6.086192e+00
  -1.224088e+01   4.619009e+01
  -3.724224e+01   2.989595e+01
  -4.329717e+01   1.344097e+01
   5.269463e+01  -8.558450e+01
   1.168748e+01  -5.257559e+01
   5.448836e+01  -2.693137e+01
   5.016120e+01   5.436963e+01
   3.172477e+01   7.884826e+01
  -8.605858e+01   2.997533e+01
  -1.052520e+02   4.676675e+00
  -2.309939e+01  -6.274557e+01
   1.586351e+01  -3.124549e+01
   8.898666e+01  -1.076019e+01
   1.637564e+01  -1.849506e+01
  -4.214437e+01  -6.814989e+00
  -5.887577e+01   5.837286e+00
   2.113329e+01  -2.589238e-02
   7.963100e+01   1.320132e+00
