
 $NMID
 id='ANONYMOUS ', fmtdat='(2E16.6)'
 volume=1.0
 tramp=1.0
 $END
  -4.436118e+03  -4.763920e+01
  -2.533461e+03  -2.705446e+03
   7.969347e+02  -2.779897e+03
   2.248156e+03  -9.023649e+02
   1.016796e+03   9.060261e+02
  -7.477447e+02   5.995947e+02
  -9.851842e+02  -4.433357e+02
  -2.164078e+01  -1.084778e+03
   9.085872e+02  -8.523764e+02
   9.491924e+02   1.164951e+02
   4.683859e+02   8.758814e+02
  -1.717849e+02   9.213546e+02
  -6.260179e+02   1.442889e+02
  -4.529935e+02  -7.545175e+02
   3.090748e+02  -7.455086e+02
   6.245148e+02   2.439604e+01
   2.939329e+02   7.152206e+02
  -4.074488e+02   6.383570e+02
  -6.513344e+02   2.773131e+01
  -3.663344e+02  -3.797586e+02
  -1.586130e+01  -4.712061e+02
   2.415255e+02  -1.811483e+02
   2.188228e+02  -1.497446e+01
  -1.014490e+02   2.449614e+00
  -4.033549e+02  -1.498976e+02
  -1.927657e+02  -4.017740e+02
   4.637330e+02  -4.584905e+02
   8.454516e+02   8.162852e+01
   4.274770e+02   5.750636e+02
  -3.761368e+02   4.780722e+02
  -7.409810e+02  -1.239374e+01
  -3.634442e+02  -5.211361e+02
   2.497924e+02  -5.507409e+02
   5.837897e+02  -2.027579e+02
   4.321501e+02   2.537425e+02
   4.108936e+01   4.277688e+02
  -2.676868e+02   2.965063e+02
  -1.963755e+02  -2.317862e+02
   1.455643e+02  -4.769284e+02
   5.108183e+02  -2.064438e+01
   3.150933e+02   7.070279e+02
  -2.898030e+02   7.539034e+02
  -6.241002e+02   3.663282e+01
  -3.294863e+02  -5.650160e+02
   2.850609e+02  -3.439070e+02
   4.119778e+02   3.124990e+02
  -6.347375e+01   5.636434e+02
  -5.667001e+02   1.338556e+02
  -5.730410e+02  -4.124695e+02
  -1.575276e+02  -5.688470e+02
   3.954744e+02  -3.132597e+02
   6.320638e+02   5.029125e+01
   3.810736e+02   3.383167e+02
  -1.598851e+02   3.572288e+02
  -4.600609e+02   6.805676e+01
  -2.514472e+02  -1.873616e+02
   1.058433e+02  -1.356700e+02
   1.599145e+02   1.767243e+02
  -1.525021e+02   2.363531e+02
  -3.170813e+02  -4.936841e+01
  -1.324550e+02  -3.485273e+02
   2.153430e+02  -2.805373e+02
   2.991651e+02  -4.074194e+01
   1.703083e+02   7.156080e+01
   6.877704e+00   2.092832e+02
  -1.864436e+02   2.655419e+02
  -3.131215e+02   2.273733e+02
  -2.464827e+02  -8.799833e+01
  -7.025504e+01  -3.943826e+02
   1.025333e+02  -3.529632e+02
   1.231351e+02  -1.074492e+02
   1.998055e+01  -9.570222e+00
   6.059408e+01  -7.725517e+01
   2.081892e+02  -1.304240e+02
   3.377936e+02   4.239859e+01
   1.390602e+02   3.146980e+02
  -6.534333e+01   2.505664e+02
  -2.478019e+02   2.256348e+01
  -2.482516e+02  -2.275609e+02
  -2.977714e+01  -2.913660e+02
   2.286088e+02  -1.278960e+02
   3.510571e+02   1.782162e+02
   1.979454e+02   3.585321e+02
  -1.168083e+02   2.942520e+02
  -2.319647e+02   1.354971e+02
  -1.362836e+02   3.146457e+01
  -8.097820e+01   4.372442e+01
  -2.480495e+02   9.539316e+01
  -4.008214e+02  -7.689634e+01
  -3.106417e+02  -2.888884e+02
   4.104330e+01  -4.046400e+02
   3.637328e+02  -3.854428e+02
   5.017470e+02  -1.691446e+02
   3.758218e+02   1.353193e+02
   3.430400e+01   2.759881e+02
  -1.378111e+02   2.552132e+02
  -9.166923e+01   3.629826e+01
   1.489786e+02  -1.306231e+02
   2.119865e+02  -1.104227e+01
   4.260249e+01   1.901202e+02
  -1.747593e+02   1.604497e+02
  -1.743265e+02  -6.316597e+01
   1.311247e+01  -1.600625e+02
   2.448927e+02  -5.756806e+01
   1.873908e+02   2.455388e+02
  -1.963366e+01   3.638534e+02
  -2.541478e+02   1.843096e+02
  -3.757055e+02  -8.927036e+01
  -2.615225e+02  -2.788284e+02
  -1.020375e+02  -2.909519e+02
   1.374245e+02  -1.353981e+02
   1.924504e+02   4.093902e+01
   5.721812e+01   3.403391e+01
  -1.310253e+02  -8.416158e+01
  -4.126604e+01  -1.470385e+02
   1.129387e+02  -5.872864e+01
   1.625284e+02   5.798716e+01
   5.454985e+01   6.455899e+01
  -7.517129e+01   1.381309e+01
  -5.575537e+01  -4.694922e+01
   1.194583e+02  -8.362586e+01
   2.728419e+02   8.882181e+00
   2.454220e+02   1.157793e+02
   7.345135e+01   2.413195e+02
  -2.247402e+02   2.217678e+02
  -2.638460e+02   1.296716e+02
  -1.606069e+02  -5.470057e+01
   2.313649e+01  -1.311038e+02
   7.821192e+01  -2.778740e+00
  -2.282301e+01   9.429646e+01
  -1.398399e+02   4.484706e+01
  -2.279315e+02  -1.163599e+02
  -1.013597e+02  -1.961674e+02
   9.123928e+01  -1.381183e+02
   1.243269e+02   6.034955e+01
   8.926400e+01   6.325877e+01
  -2.815867e+01  -8.046022e+00
  -2.571675e+00  -4.793940e+01
   6.538976e+01  -1.183929e+02
   1.483841e+02  -8.892249e+00
   2.103045e+02   1.613219e+02
   1.186071e+01   2.194835e+02
  -1.997804e+02   1.387585e+02
  -1.812158e+02  -1.634660e+01
  -3.223022e+01  -1.195164e+02
   9.666168e+01  -8.100955e+01
   9.466453e+01  -6.563777e+00
   7.120410e+00   1.991559e+01
  -1.608379e+01   1.929630e+01
   1.431587e+01  -3.575137e+01
   8.371806e+01  -2.594900e+01
   9.548927e+01   1.045340e+02
   1.581830e+01   2.197038e+02
  -1.174983e+02   1.342919e+02
  -2.362805e+02  -2.601194e-02
  -1.971370e+02  -1.913346e+02
  -2.996539e+01  -2.326153e+02
   1.229559e+02  -1.480234e+02
   1.817018e+02  -2.538911e+01
   6.478664e+01   1.002212e+02
   5.205697e+01   4.824561e+01
   9.905332e+01  -4.168824e+00
   6.135292e+01   1.725296e+01
   4.906837e-01   8.960393e+01
  -7.638068e+01   1.180321e+02
  -7.897579e+01   3.155112e+01
  -4.585929e+01  -7.048432e+01
   4.671689e+00  -9.998112e+01
   1.396097e+02  -1.322479e+02
   1.773424e+02   3.534304e+01
   1.025479e+02   2.223003e+02
  -1.103680e+02   1.905712e+02
  -2.788724e+02   8.260488e+01
  -2.788507e+02  -1.047633e+02
  -1.070799e+02  -1.733527e+02
   6.323182e+01  -1.627007e+02
   1.096434e+02  -1.072140e+02
   1.289402e+02  -4.688029e+01
   5.773054e+01  -8.888580e+01
   8.452385e+01  -8.509168e+01
   9.612214e+01   9.518643e+00
   1.332191e+02   1.015430e+02
  -2.727880e-01   2.307748e+02
  -1.151045e+02   1.649152e+02
  -1.644228e+02   1.191742e+01
  -1.589385e+02  -1.083337e+02
  -3.945028e+01  -1.578830e+02
   4.938951e+01  -9.135562e+01
   4.650347e+01   3.923064e+00
   1.257010e+01   4.414289e+01
   2.127904e+01   4.256948e+01
  -2.441076e+01   1.067039e+01
   2.076974e+01   5.004380e+01
  -2.152260e+00   1.136882e+01
  -4.523635e+01   5.782134e+01
  -1.224267e+02  -3.102481e+01
  -1.381053e+02  -3.874092e+01
  -3.218974e+01  -7.891235e+01
   1.287762e+02  -1.038017e+02
   1.616693e+02  -1.105650e+01
   7.644228e+01   4.973480e+01
  -6.487913e+01   2.839258e+01
  -1.182143e+02  -6.070317e+00
  -6.650760e+00  -3.645917e+01
   8.590635e+01  -1.145966e+02
   8.141136e+01  -1.210208e+01
   5.672401e+01   4.752416e+01
   4.211468e+01   4.174089e+01
   4.115279e+01   7.022687e+00
   9.152543e+01   2.697320e+01
   4.478928e+01   7.236437e+01
  -3.864155e+01   9.760691e+01
  -1.403130e+02   1.772815e+02
  -1.664621e+02   2.497481e+01
  -1.433216e+02  -9.218895e+01
   3.158197e+01  -1.254567e+02
   8.642229e+01  -8.076974e+01
   5.928403e+01  -2.998601e+00
  -5.255848e+01   4.229796e+00
  -1.181433e+02  -7.033291e+01
  -5.706430e+01  -7.659942e+01
   4.679107e+01  -1.189060e+02
   1.600484e+02  -1.538445e+01
   1.384000e+02   3.974477e+01
   6.717694e+01   6.429868e+01
  -8.415604e+01   4.168365e+01
  -4.312938e+01   4.308084e+01
  -3.348460e+00  -2.580290e+01
   9.209398e+01  -1.174059e+01
   3.808597e+01   9.043506e+01
  -8.349105e+01   1.399205e+02
  -1.409342e+02   5.256280e+01
  -1.695497e+02  -7.533125e+01
  -2.229658e+00  -1.949654e+02
   6.344495e+01  -1.581377e+02
   8.735881e+01   1.555501e+01
   3.941193e+01   8.466760e+01
   3.960147e+01   1.426496e+02
  -3.535089e+01   8.864585e+00
  -6.510239e+01  -5.597828e+01
  -4.902689e+01  -1.475201e+00
   4.813548e+00   3.942906e+01
  -5.161358e+01   6.700023e+00
  -3.493466e+01  -9.721480e+01
  -3.327624e+01  -1.316767e+02
   1.011264e+02  -5.512350e+01
   1.270080e+02   6.867990e+01
   8.743192e+01   6.832634e+01
   1.434657e+01   6.459931e+01
  -8.797030e+01   2.890197e+01
  -9.181296e+01  -7.076505e+00
  -3.399288e+01  -1.527219e+01
   2.463424e+01  -3.025331e+01
  -2.460903e+01  -4.637054e+01
  -1.454709e+01   2.514037e+01
   6.035272e+01  -6.579148e+00
   7.390890e+01   4.054342e+00
   7.460837e+01  -3.398207e+00
   2.105961e+01   9.612541e+01
  -1.065213e+02   1.243604e+02
  -1.937436e+02   7.309727e+01
  -1.437734e+02  -5.326333e+01
  -1.933342e+01  -1.755067e+02
   8.560570e+01  -6.881774e+01
   8.835567e+01  -3.250745e+01
   7.145526e+01   3.023252e+01
   1.179497e+01   1.290002e+01
   9.139535e+00   2.202682e+01
   2.631562e+01  -1.509280e+01
   4.933876e+01   2.487922e+01
   9.013070e+00   9.264835e+01
  -4.312120e+01   7.476504e+01
  -6.462424e+01   1.919869e+00
  -9.919618e+01  -1.082120e+02
  -5.363363e-01  -1.031221e+02
   1.322502e+02   1.031414e+01
   8.997066e+01   7.669478e+01
   2.496367e+01   1.381016e+02
  -4.171808e+01   8.230814e+01
  -7.987910e+01  -2.608478e+01
  -4.536646e+01  -1.041589e+02
   3.220792e+01  -9.537600e+01
  -1.521225e+01  -3.283449e+01
  -4.110396e+01   4.898803e+00
  -5.144382e+01  -7.953113e+00
  -1.442914e+01  -3.372331e+01
   6.358814e+01  -7.741348e+01
   1.108100e+02  -2.885631e+01
   1.081480e+02   1.617377e+01
  -1.891689e+01   1.059626e+02
  -2.622192e+01   7.600830e+01
  -3.354285e+01   1.461929e+00
  -3.432317e+01  -9.398019e+01
   5.098356e+01  -5.545888e+01
   5.625923e+01   1.309238e+01
   3.020809e+01   4.646582e+01
   2.492226e+01   5.925722e+01
   1.358022e+01   1.356521e+01
  -5.709385e+01  -5.000706e+01
   1.918148e+01   1.382223e+01
   4.014078e+01  -1.419824e+01
   2.249682e+01   1.098070e+01
   3.953562e+00   6.413339e+00
   1.492778e+00  -5.965405e+01
   3.243716e+00  -1.459815e+01
   3.112001e+01   1.477483e+01
  -1.378858e+01   6.108578e+01
  -4.730053e+01   4.588233e+01
  -8.312562e+01   1.591055e+01
  -4.132780e+01  -6.922498e+01
   6.814392e+01  -3.438195e+01
   8.671617e+01  -3.848061e+00
   3.562428e+01   3.866701e+01
  -3.315929e+01   6.570710e+01
  -5.731728e+01   1.994063e+01
  -7.395053e+01   1.555896e+01
   4.642612e+01  -1.727317e+01
   1.762162e+01   7.179387e+01
  -5.813687e+01   7.135986e+00
  -1.082934e+02   1.261125e+01
