
 $NMID
 id='ANONYMOUS ', fmtdat='(2E16.6)'
 volume=1.0
 tramp=1.0
 $END
  -3.540187e+03   1.484809e+02
  -2.011288e+03  -2.181277e+03
   5.899914e+02  -2.262537e+03
   1.751840e+03  -7.131909e+02
   7.740912e+02   6.483558e+02
  -5.416478e+02   4.423448e+02
  -7.842917e+02  -3.361513e+02
   4.093506e+01  -8.493694e+02
   7.314372e+02  -6.641507e+02
   8.347887e+02   1.337100e+02
   3.303038e+02   6.976527e+02
  -1.709488e+02   6.509692e+02
  -6.172956e+02   8.570517e+01
  -3.186540e+02  -5.663353e+02
   1.925457e+02  -5.486064e+02
   5.692093e+02   5.612768e+01
   1.340065e+02   5.521533e+02
  -2.832661e+02   4.870700e+02
  -4.878883e+02   1.156722e+02
  -2.643755e+02  -2.487907e+02
   6.728094e+01  -4.358730e+02
   2.645274e+02  -1.186935e+02
   2.270934e+02   5.327686e+00
  -7.082765e+01   1.391040e+02
  -3.457372e+02  -1.526401e+02
  -1.440362e+02  -3.474633e+02
   3.241848e+02  -2.881972e+02
   7.307027e+02   3.170727e+01
   3.361888e+02   4.310697e+02
  -3.241171e+02   3.783701e+02
  -6.483109e+02  -1.622021e+01
  -2.953864e+02  -3.784852e+02
   2.216476e+02  -4.295249e+02
   4.951127e+02  -1.825875e+02
   3.276991e+02   2.039346e+02
   4.583008e+01   3.977485e+02
  -2.045916e+02   2.460345e+02
  -1.787137e+02  -1.640813e+02
   1.614902e+02  -3.297947e+02
   3.617385e+02   7.225262e+01
   1.581589e+02   5.615646e+02
  -3.303600e+02   5.364783e+02
  -5.490706e+02  -4.012879e+01
  -2.148996e+02  -4.829804e+02
   2.578487e+02  -2.856170e+02
   3.264206e+02   2.503793e+02
  -5.936000e+01   4.447140e+02
  -4.630532e+02   1.215501e+02
  -4.987019e+02  -3.422852e+02
  -1.445325e+02  -4.611467e+02
   2.777907e+02  -2.793873e+02
   4.945140e+02   8.386089e+01
   2.844829e+02   3.384439e+02
  -1.611473e+02   3.009570e+02
  -3.847918e+02   1.091863e+01
  -2.188208e+02  -2.037360e+02
   1.094173e+02  -9.906081e+01
   1.401838e+02   1.445942e+02
  -9.555484e+01   1.488302e+02
  -2.157709e+02  -1.145759e+02
  -1.083246e+02  -2.954836e+02
   1.786569e+02  -1.986070e+02
   2.800497e+02  -1.304232e+01
   1.871797e+02   1.095552e+02
  -4.383090e+00   1.557183e+02
  -1.441233e+02   2.642499e+02
  -2.798407e+02   1.790359e+02
  -2.521692e+02  -8.010593e+01
  -8.640728e+01  -3.850767e+02
   1.120977e+02  -2.978083e+02
   9.001869e+01  -1.051312e+02
  -1.130438e+01  -1.284001e+01
   3.642820e+01  -9.449385e+01
   1.791292e+02  -1.076517e+02
   2.493200e+02   6.489995e+01
   1.464023e+02   2.268277e+02
  -4.543213e+01   2.293078e+02
  -1.831832e+02   1.047574e+01
  -1.639444e+02  -1.750619e+02
  -7.590641e+00  -2.716216e+02
   1.995424e+02  -9.245657e+01
   2.873035e+02   1.257538e+02
   1.733259e+02   3.199235e+02
  -7.412628e+01   2.420226e+02
  -2.272718e+02   1.129680e+02
  -1.070165e+02   1.325815e+01
  -5.943951e+01   1.570477e+01
  -1.563340e+02   6.374924e+01
  -3.377067e+02  -4.973669e+01
  -2.895817e+02  -2.393720e+02
   2.535849e+00  -3.280573e+02
   2.757502e+02  -2.953278e+02
   3.480970e+02  -1.509222e+02
   2.518228e+02   8.805665e+01
   6.209135e+01   2.248442e+02
  -8.457149e+01   1.708477e+02
  -1.089634e+02   4.187788e+01
   7.006316e+01  -9.830712e+01
   1.367269e+02  -5.115265e+00
   7.769133e+01   1.548630e+02
  -1.369617e+02   1.677148e+02
  -1.846161e+02  -3.410637e+01
   5.298312e+00  -1.893207e+02
   1.428491e+02  -2.296101e+01
   1.016769e+02   1.833749e+02
  -4.071590e+01   2.326848e+02
  -2.378006e+02   1.588362e+02
  -2.307464e+02  -2.604886e+01
  -1.954468e+02  -1.834832e+02
  -1.066546e+02  -2.302791e+02
   1.265458e+02  -1.791762e+02
   1.963384e+02  -6.397776e+01
   3.172696e+01   7.037704e+01
  -4.048082e+01  -4.391817e+01
  -3.133290e+01  -1.089964e+02
   1.431139e+02  -8.681953e+01
   1.509972e+02  -5.274099e+00
   4.172450e+01   4.926608e+01
  -2.311571e+01   1.212383e+01
  -3.983000e+01  -6.961053e+00
   9.541151e+01  -4.483940e+01
   2.342404e+02  -1.139786e+01
   1.694286e+02   1.182260e+02
   6.884702e+01   2.122363e+02
  -1.589471e+02   2.280417e+02
  -2.330879e+02   1.474361e+02
  -1.528303e+02  -4.155505e+01
   6.446059e+00  -1.293050e+02
   8.898265e+01  -6.422947e+01
   6.549911e+00   6.094339e+01
  -1.367880e+02   8.798867e+01
  -1.412324e+02  -6.589646e+01
  -2.336574e+01  -1.468971e+02
   8.913210e+01  -1.615243e+02
   1.038384e+02  -1.956569e+01
   4.069473e+01   3.544785e+01
  -8.475268e-01  -2.772962e+01
   6.541602e+00  -3.147535e+01
   7.454224e+01  -6.659481e+01
   1.689177e+02  -6.721800e+01
   1.282793e+02   8.555519e+01
   6.526648e+01   1.612354e+02
  -1.456468e+02   1.436595e+02
  -1.822431e+02   2.343323e+01
  -5.209996e+01  -3.316116e+01
   2.075118e+01  -9.340251e+01
   4.379469e+01  -1.951786e+01
   3.540027e+00  -1.461631e+01
  -3.234395e+01  -3.335274e+01
   1.290343e+01   4.062165e+00
   4.593716e+01   5.899825e+01
   6.975089e+01   2.626972e+01
  -1.035029e+01   7.980205e+01
  -1.280933e+02   1.134785e+02
  -2.247210e+02   5.250024e+01
  -1.817726e+02  -8.342964e+01
  -9.067809e+01  -1.925523e+02
   5.586363e+01  -1.453928e+02
   7.468943e+01  -3.309060e+01
   9.488836e+00   5.455658e+01
   3.441455e+01   5.567380e+01
   5.000325e+01  -2.415535e+00
   9.084913e+01   1.419289e+01
   3.491903e+01   6.349222e+01
  -2.624690e+01   5.533627e+01
  -7.039502e+01   2.348722e+01
  -9.492524e+01  -3.241667e+01
   1.364713e+01  -8.881588e+01
   7.701769e+01  -4.294032e+01
   1.353964e+02   2.085119e+01
   5.352539e+01   1.255129e+02
  -6.800816e+01   1.318961e+02
  -2.221803e+02   9.877728e+01
  -2.212029e+02  -1.048736e+02
  -2.798478e+01  -1.973160e+02
   6.461844e+01  -1.296182e+02
   7.145179e+01  -6.088296e+01
   6.118013e+01  -8.403975e+01
   1.276882e+02  -6.097257e+01
   1.263285e+02  -5.001508e+01
   1.157972e+02   4.036747e+01
   6.323938e+01   1.629565e+02
  -1.223324e+01   1.611749e+02
  -1.037555e+02   1.281586e+02
  -1.317789e+02   1.846058e+01
  -1.379416e+02  -1.028169e+02
  -2.959919e+01  -1.194948e+02
   7.887706e+01  -9.728842e+01
   1.019884e+02  -3.463866e+01
   2.367906e+01   1.951245e+01
   1.449020e+01   1.616591e+00
   4.529116e+01   2.313174e+01
   4.500105e+01   5.450264e+01
   9.253142e+00   6.199910e+01
  -4.670217e+01   1.765208e+01
  -8.966679e+01  -1.457345e+01
  -9.135447e+01  -5.331882e+01
  -1.069010e+01  -8.900687e+01
   8.922333e+01  -9.218571e+01
   9.630175e+01  -1.322130e+01
   7.580036e+01   4.384573e+01
  -8.290563e+01   3.801768e+01
  -4.996022e+01   2.099008e+01
   4.774861e+00  -6.379566e+01
   4.085285e+01  -3.867831e+01
   3.163052e+01  -5.195537e+00
   5.621441e+01   1.099459e+01
   3.432336e+01   5.530128e+01
   7.047336e+01   4.881772e+00
   8.306131e+01   1.987829e+01
   3.432813e+01   7.555364e+01
  -4.510710e+01   1.640034e+02
  -6.183926e+01   1.725287e+02
  -1.518468e+02   5.871867e+01
  -1.412852e+02  -6.501516e+01
  -7.228922e+01  -6.609706e+01
   5.510779e+01  -6.624260e+01
   4.833216e+01  -1.850174e+00
  -4.230577e+01  -4.384736e+01
  -8.799094e+01  -4.920094e+01
  -2.603535e+01  -9.465957e+01
   5.169329e+01  -1.234053e+02
   1.837106e+02  -3.783410e+01
   1.028919e+02  -9.737686e+00
   4.575550e+01   5.466739e+01
  -5.799069e+01   8.020817e+01
  -3.228004e+01  -6.091108e+00
   6.969834e+00   2.586250e+01
   8.774568e+01   5.115352e+00
   1.914820e+01   9.485290e+01
  -7.502134e+01   1.011900e+02
  -1.484989e+02   2.175429e+01
  -7.891720e+01  -7.240607e+01
  -2.500591e+01  -1.843933e+02
   8.504618e+01  -1.172700e+02
   1.194380e+02   1.502285e+01
   5.293404e+01   5.089384e+01
  -2.027689e+01   8.078217e+01
   2.876598e+00   3.482497e+01
  -4.834442e+01  -1.835748e+01
  -3.047001e+00   1.705711e+01
   3.581755e+01  -7.031888e+00
  -1.724221e+01  -2.171713e+01
  -6.630380e+01  -2.646531e+01
  -5.625243e+01  -1.036723e+02
   6.107127e+01  -7.666525e+01
   1.224544e+02   3.755055e+01
   1.043231e+02   3.088950e+01
   1.941314e+01   3.708276e+01
  -7.065035e+01   1.347114e+01
  -8.480051e+01   1.634275e+01
  -3.242193e+01   3.944957e+00
  -2.181756e+00  -7.276162e+00
   1.669415e+01  -3.375912e+01
  -4.575885e+01   1.539257e+01
  -3.447988e+01   5.802447e+01
   7.115733e+01  -1.395927e+01
   3.695185e+01   8.402197e+00
   3.159704e+01   4.535731e+01
  -5.719332e+01   7.279666e+01
  -1.551831e+02   3.743461e+01
  -6.858519e+01  -6.898827e+01
  -1.109935e+01  -1.333973e+02
   5.404873e+01  -1.041838e+02
   7.759945e+01  -1.595115e+01
   6.735564e+01   1.034485e+01
   9.492602e+01  -1.234682e+01
   2.011525e+01   1.886509e+01
  -4.092991e+01   3.291616e+01
   3.461951e+00   3.131522e+01
   6.261604e+00   4.311488e+01
   9.910764e-01   3.201783e+01
  -5.188441e+01  -1.744799e+01
  -5.406784e+01  -7.216506e+01
   8.928839e+00  -6.630738e+01
   6.635534e+01   1.168860e+00
   8.646918e+01   2.814547e+01
   1.973841e+01   3.344683e+01
  -6.203840e+01   1.118989e+01
  -5.747349e+01  -7.811510e+00
  -1.289657e+01  -2.279570e+01
   8.437340e+00  -1.229233e+01
   3.976025e+01  -1.376294e+01
  -1.870490e+01  -3.583689e+01
  -3.983833e+01  -1.125895e+01
  -3.986444e+00   1.196453e+01
   3.997076e+01  -3.453097e+01
   6.862263e+01  -5.948398e+01
   5.749518e+01   9.341326e+00
  -2.476425e+00   7.253296e+01
  -5.799135e+01   5.538060e+01
  -3.223399e+01  -5.248387e+00
   8.522790e+00  -4.909846e+01
   5.068932e+00  -9.575418e+00
   2.533151e+01   2.238214e+01
  -8.712050e-01   1.055006e+01
   1.165743e+01   2.041981e+01
  -5.243272e+01  -7.747115e+00
  -6.266878e+01  -4.578287e+01
   1.492839e+01  -2.256682e+01
   5.150611e+00  -2.944065e+01
   1.514278e+01  -7.080012e+00
   6.386449e+00  -6.704283e+01
   2.029034e+00  -4.066965e+01
   6.177128e+01   4.577659e+01
   1.377371e+01   1.034137e+01
   2.227790e+01   5.111079e+01
  -3.892640e+01   1.378249e+01
  -4.526618e+01  -6.244373e+01
  -1.403311e+01  -5.901962e+01
   1.288221e+01  -3.901173e+01
   8.796521e+01  -1.452915e+01
   4.721123e+01   5.257021e+01
  -2.623305e+01   5.039378e+00
  -7.099201e+01  -8.342398e-01
  -3.716820e+00   2.833047e+01
  -1.290499e+01   3.305671e+01
   3.710363e+01   4.277205e+01
  -4.421322e+01   3.816155e+01
  -1.020609e+02   2.764208e+01
