
 $NMID
 id='ANONYMOUS ', fmtdat='(2E16.6)'
 volume=1.0
 tramp=1.0
 $END
   3.037634e+03   1.532755e+01
   1.691129e+03   1.656347e+03
  -4.842935e+02   1.958288e+03
  -1.479837e+03   5.806469e+02
  -6.835497e+02  -5.573141e+02
   5.859934e+02  -4.880585e+02
   6.193696e+02   3.733457e+02
  -2.804076e+00   7.310388e+02
  -6.371814e+02   5.339494e+02
  -6.157461e+02  -7.543777e+01
  -3.111247e+02  -5.812796e+02
   9.727963e+01  -5.649988e+02
   4.269447e+02  -9.565695e+01
   2.941804e+02   4.451230e+02
  -2.137358e+02   5.342728e+02
  -4.167893e+02   5.076679e+01
  -2.039713e+02  -3.806715e+02
   2.134720e+02  -3.753124e+02
   4.455876e+02   2.247619e+01
   2.021735e+02   2.928502e+02
  -2.395841e+01   2.876687e+02
  -1.766408e+02   1.726785e+02
  -1.379106e+02  -6.506459e+01
   1.069902e+02  -8.871228e+01
   2.788003e+02   8.456536e+01
   6.762814e+01   2.730363e+02
  -2.947476e+02   2.681879e+02
  -6.062344e+02  -8.680125e+01
  -3.379675e+02  -3.256861e+02
   2.498232e+02  -3.814117e+02
   4.510352e+02   4.268617e+01
   2.154208e+02   3.451293e+02
  -2.082427e+02   3.089722e+02
  -4.180700e+02   1.561999e+02
  -2.834039e+02  -7.462642e+01
  -1.028889e+02  -2.955094e+02
   6.617466e+01  -1.269144e+02
   1.547733e+02   1.412534e+02
  -1.161389e+02   3.320052e+02
  -3.299206e+02  -1.237539e+01
  -1.916131e+02  -4.231579e+02
   2.058236e+02  -4.459570e+02
   4.088358e+02  -8.876814e+00
   1.884703e+02   4.040716e+02
  -2.192728e+02   1.813697e+02
  -2.723627e+02  -2.607448e+02
  -2.684727e+00  -3.917690e+02
   3.543256e+02  -7.694874e+01
   4.212403e+02   2.396281e+02
   1.552096e+02   3.645515e+02
  -1.867519e+02   2.341764e+02
  -4.028645e+02  -1.547230e+01
  -2.601525e+02  -2.136453e+02
   1.362477e+02  -2.509351e+02
   3.476706e+02  -1.093646e+01
   1.573236e+02   1.247378e+02
  -8.960093e+01   1.322795e+02
  -1.260822e+02  -9.994335e+01
   8.479608e+01  -1.257812e+02
   2.012504e+02   5.098652e+01
   5.065082e+01   1.278722e+02
  -1.462329e+02   1.802002e+02
  -1.747284e+02   1.187273e+01
  -8.969803e+01  -5.529266e+01
   2.217178e+01  -1.704022e+02
   1.702453e+02  -2.137054e+02
   2.406071e+02  -1.786509e+02
   2.187770e+02   5.817375e+01
   5.698532e+01   3.177879e+02
  -5.529209e+01   2.348641e+02
  -4.111017e+01   9.319169e+01
   1.408901e+01  -1.696494e+01
  -1.262560e+01   6.288986e+01
  -1.443676e+02   8.647752e+01
  -1.542887e+02   3.442307e+00
  -1.218333e+02  -1.756653e+02
   4.554248e+01  -1.969193e+02
   1.369322e+02  -4.785472e+01
   1.371921e+02   1.453859e+02
  -2.381339e+01   1.958949e+02
  -1.542071e+02   9.029539e+01
  -2.416826e+02  -1.108118e+02
  -1.279149e+02  -2.335605e+02
   8.284401e+01  -1.665863e+02
   1.284122e+02  -8.800449e+01
   9.775173e+01  -1.293071e+01
   8.521050e+00  -3.895974e+01
   1.475764e+02  -1.013162e+02
   2.814605e+02   3.198805e+01
   2.400342e+02   1.656114e+02
   2.871009e+01   3.030941e+02
  -2.924672e+02   2.483022e+02
  -3.026428e+02   1.456661e+02
  -2.112842e+02  -2.769656e+01
  -4.223446e+01  -1.887951e+02
   1.148389e+02  -1.336692e+02
   6.044730e+01  -1.093655e+01
  -6.208437e+01   9.102141e+01
  -1.649773e+02   7.135420e+00
  -4.365867e+01  -1.475015e+02
   8.994172e+01  -9.687618e+01
   9.522566e+01   5.570341e+01
  -3.353269e+01   1.011506e+02
  -1.190186e+02  -2.135516e+01
  -1.195043e+02  -1.664246e+02
   2.871901e+01  -2.431602e+02
   1.510243e+02  -1.253480e+02
   1.967352e+02   5.862173e+01
   2.019485e+02   1.831817e+02
   5.723480e+01   1.278628e+02
  -4.136312e+01   1.159566e+02
  -1.353031e+02   1.301694e+01
  -6.008877e+01  -3.550657e+01
   3.237029e+01   5.004559e+01
   2.084740e+01   8.519250e+01
  -5.256269e+01   5.397603e+01
  -1.507708e+02  -2.617358e+00
  -7.455342e+01  -5.236887e+01
   3.671584e+01  -4.889055e+01
   3.714251e+01   3.606723e+01
  -8.311530e+01   6.361841e+01
  -1.974196e+02  -4.241467e+00
  -1.657825e+02  -5.247810e+01
  -5.977161e+01  -1.679392e+02
   1.067496e+02  -1.717527e+02
   1.817098e+02  -9.294889e+01
   1.036073e+02   4.279931e+01
  -1.781236e+01   6.099299e+01
  -6.903683e+01   3.588604e+01
  -1.802483e+01  -6.631268e+00
   1.194679e+02  -3.648678e+01
   8.057673e+01   5.717058e+01
   1.008743e+01   1.442182e+02
  -8.082624e+01   6.510192e+01
  -7.164128e+01   4.604981e+01
  -5.226589e+01  -8.520314e+00
   1.409727e+01   7.875006e+00
   1.927001e+01   4.102542e+01
  -8.301280e+01   8.984078e+01
  -1.192775e+02   1.359797e+01
  -9.108513e+01  -5.101724e+01
  -6.058885e+01  -1.465601e+02
   1.012721e+02  -9.810433e+01
   1.091505e+02  -9.455970e+00
   5.972111e+01   6.691251e+01
  -7.474223e+01   7.581063e+01
  -3.521536e+01   4.309829e+01
   2.501394e-01   1.532255e+01
  -3.556911e+01   3.236297e+01
  -3.346247e+01   1.287447e+01
  -1.026492e+02  -1.195755e+00
  -4.126704e+01  -6.149950e+01
  -2.697606e+01  -1.135697e+02
   5.393060e+01  -7.161145e+01
   1.346658e+02  -4.763318e+01
   9.707224e+01   1.215314e+02
  -2.662205e-01   1.740826e+02
  -4.290117e+01   1.008775e+02
  -1.284037e+02   5.125974e+01
  -4.044096e+01  -6.397988e+01
  -4.154856e+01  -1.410368e+01
  -5.075962e+01  -5.710047e-01
  -3.181409e+01   5.594803e+00
  -2.251895e+01  -2.413294e+01
   9.779227e+01  -6.255675e+01
   1.002377e+02  -2.578733e+01
   7.917816e+01   4.006831e+01
  -1.147074e+01   8.243945e+01
  -6.929724e+01   7.655592e+01
  -1.306694e+02  -5.863420e+01
  -4.179642e+01  -1.026066e+02
   8.121699e+01  -1.505820e+02
   1.641338e+02  -4.821744e+01
   1.849854e+02   7.280050e+01
   4.759948e+01   1.148285e+02
  -3.828602e+01   7.720497e+01
  -9.364831e+01   6.592071e+01
  -5.021485e+01   4.080760e+01
  -2.046478e+01   5.900717e+01
  -6.933037e+01   5.521730e+01
  -9.148171e+01  -2.460570e+01
  -9.521351e+01  -1.071551e+02
   6.418744e+00  -1.634161e+02
   6.209037e+01  -1.358135e+02
   1.669682e+02  -3.665327e+01
   6.712720e+01   8.932307e+01
  -1.717491e+01   8.355783e+01
  -3.628865e+01   9.058294e+01
  -4.677044e+01  -8.886900e-02
  -5.651279e+00  -4.226317e+01
  -5.507126e+00  -2.446826e+01
  -7.106594e+01  -3.761536e+01
  -5.496178e+01  -3.179872e+01
  -2.273571e+01  -2.507503e+01
   4.688790e+01  -2.944367e+00
   7.686679e+01   5.584607e+01
   7.968061e+01   5.176314e+01
  -1.648869e+01   5.057380e+01
  -8.134848e+01   5.066067e+01
  -1.091933e+02   2.289153e+01
  -9.824803e+00  -2.668278e+01
   4.919046e+01   2.026317e+01
   7.668474e+01   4.813282e+01
   1.343970e+01   6.383300e+01
  -8.376969e+01   6.577419e+01
  -4.603049e+01   3.271920e+01
  -2.831436e+01  -2.482361e+01
  -5.115895e+01  -5.571851e+00
  -3.563275e+01  -1.305107e+00
  -1.634386e+01   1.786616e+01
  -3.554738e+01  -3.626250e+01
   2.623761e+01  -9.093982e+01
   7.576551e+01  -1.097164e+02
   1.565059e+02  -3.341126e+01
   8.099117e+01   1.112364e+02
   9.100512e-01   1.111344e+02
  -5.738295e+01   4.338257e+01
  -7.498048e+01   4.018685e+00
   6.018620e+01  -3.979645e+01
   1.064404e+02   2.920379e+01
   4.096491e+01   3.679542e+01
  -5.800124e+01   7.302163e+01
  -1.291358e+02   3.821177e+01
  -1.196668e+02  -4.088310e+01
  -6.964340e+00  -7.881230e+01
   9.312949e+00  -5.549028e+01
   2.636144e+01   1.560492e+01
  -2.452134e+01   2.795453e+01
  -4.778659e+01  -1.128483e+01
  -4.884850e+00  -9.280873e+01
   8.431182e+01  -7.922514e+01
   1.323655e+02  -4.788573e+01
   7.616393e+01   6.914293e+01
   4.535537e+01   1.457095e+02
  -6.107206e+01   6.973989e+01
  -7.785021e+01   2.148963e-01
  -1.550954e+01  -7.736953e+01
  -1.639849e+01  -7.160108e+01
   2.706635e+01  -4.184241e+01
   1.280171e+01   2.405533e+01
   1.574336e+01  -2.218235e+01
   4.651020e+01  -3.293398e+01
  -1.003814e+01  -1.971634e+01
   5.141573e+01   1.529982e+01
  -7.480968e+00   9.668854e+01
  -4.188908e+01  -1.118574e+01
  -1.052703e+02  -1.313587e+01
  -1.060138e+02  -7.899416e+01
  -3.972409e+01  -3.146449e+01
   2.907940e+01   1.927385e+01
   4.167507e+01   1.003322e+01
   4.696403e+01  -2.068292e+01
   5.780482e+00   4.083666e+01
  -4.028479e+01   2.534146e+01
   1.987888e+01   7.279295e+01
  -2.282496e+01  -4.509169e+00
  -5.956971e+01   2.584598e+01
  -9.270631e+01  -1.367025e+01
   2.048797e+01  -1.998356e+01
   5.480047e+01  -4.247596e+01
   1.199977e+02  -2.430561e+01
   1.153835e+02   5.046451e+01
   6.584752e+01   8.631020e+01
  -4.581063e+01   1.188827e+02
  -1.051560e+02   6.489062e+01
  -7.369026e+01   4.608501e+01
   9.456795e+00  -3.259697e+01
   4.973566e+01  -1.706429e+01
  -2.295809e+01   1.645330e+01
  -2.476717e+01  -3.197081e+01
  -8.825521e+00  -6.706739e+01
   3.235869e+01  -2.954529e+01
   5.946350e+01  -2.601349e+01
   5.358414e+01   5.409663e+01
   9.746030e+00   8.255472e+01
  -3.785114e+01  -2.223028e+01
  -4.054333e+01  -2.382778e+01
  -2.200046e+01  -5.928342e+01
   7.435383e+01  -7.279862e+01
   5.555462e+01   1.145906e+00
   1.430972e+01   4.893291e+01
  -4.866386e+00   8.712979e+00
  -1.620404e+01   2.563565e+01
   3.481664e+01   8.606782e+00
   4.706854e+01   4.313794e+00
  -3.932513e+01   3.683242e+01
  -9.565954e+01   3.598214e+01
  -6.872890e+01   2.778334e+01
  -3.321938e+01  -7.015221e+00
   1.080549e+01  -2.856198e+01
   8.760868e+01  -6.859071e+01
   2.792084e+01  -1.763639e+01
   4.855912e+01   6.034580e+01
  -2.227949e+00   4.795216e+01
  -1.699917e+01  -1.971034e+01
  -3.451387e+01  -5.498670e+01
  -1.578734e+01  -5.228686e+01
   4.378850e+01   1.056219e+00
   3.417509e+01   2.393034e+01
   4.076926e+01  -2.601582e+01
  -1.730614e+00  -1.497719e+01
  -8.630000e-02  -1.574501e-01
  -2.610767e+00   6.429246e+01
  -2.171001e+01   2.759652e+01
  -1.481736e+01   1.318959e+01
  -3.439370e+01  -1.914884e+01
  -7.139646e+00  -2.008477e+01
   1.315458e+01   5.472811e+00
   1.514004e+01   4.225795e+01
   1.105065e+01   4.573534e+01
  -5.275528e+01   8.370874e+00
  -4.828504e+01  -1.126869e+01
  -8.370881e+00  -1.180780e+01
   5.161752e+01   1.331279e+01
   3.998144e+01   1.062175e+01
  -2.109009e+01  -5.336165e+00
  -3.763545e+01  -3.368704e+00
  -9.078199e+00  -1.020663e+01
   2.465538e+01  -5.232324e+00
   4.501159e+01  -2.603704e+01
