
 $NMID
 id='ANONYMOUS ', fmtdat='(2E16.6)'
 volume=1.0
 tramp=1.0
 $END
  -4.851513e+03  -3.628276e+01
  -2.623226e+03  -2.668823e+03
   8.466047e+02  -2.907824e+03
   2.327944e+03  -9.170132e+02
   9.920936e+02   8.378648e+02
  -7.984631e+02   6.724483e+02
  -9.805780e+02  -5.378418e+02
  -2.794445e+01  -1.176125e+03
   8.823952e+02  -8.089501e+02
   1.015208e+03   1.084940e+02
   5.131673e+02   9.106678e+02
  -2.882292e+02   9.473517e+02
  -6.926524e+02   1.828949e+02
  -4.105886e+02  -8.109501e+02
   2.592811e+02  -8.061168e+02
   5.930984e+02  -3.734042e+01
   2.429426e+02   6.942810e+02
  -3.404521e+02   6.094437e+02
  -6.058852e+02   3.537819e+01
  -3.978175e+02  -3.653674e+02
  -7.990018e+01  -4.604491e+02
   2.900192e+02  -2.749042e+02
   2.727146e+02  -5.373621e+00
  -1.203290e+02   1.723890e+02
  -4.474822e+02  -1.615579e+02
  -2.631581e+02  -4.655093e+02
   4.888529e+02  -4.740793e+02
   9.603338e+02   1.579853e+02
   4.544837e+02   5.712656e+02
  -4.056064e+02   5.787648e+02
  -8.474174e+02  -7.719438e+01
  -4.090641e+02  -5.284301e+02
   2.267867e+02  -5.427586e+02
   6.225251e+02  -1.927642e+02
   5.314951e+02   2.168420e+02
   7.910145e+01   5.445107e+02
  -2.003972e+02   3.119147e+02
  -2.317665e+02  -2.416430e+02
   1.049436e+02  -4.422682e+02
   4.809832e+02  -9.916538e+00
   3.227687e+02   7.454132e+02
  -3.271951e+02   8.130256e+02
  -7.038765e+02  -5.071798e+01
  -3.644422e+02  -6.502124e+02
   3.308227e+02  -4.096700e+02
   4.961473e+02   3.597231e+02
  -1.597899e+01   6.431027e+02
  -6.109762e+02   1.845507e+02
  -6.716536e+02  -4.128568e+02
  -1.905627e+02  -5.556796e+02
   3.977420e+02  -3.611003e+02
   6.486602e+02   4.313910e+01
   3.778380e+02   4.134501e+02
  -2.170714e+02   3.758692e+02
  -4.838670e+02   6.943966e+01
  -2.802691e+02  -2.552591e+02
   1.486298e+02  -1.448447e+02
   2.093764e+02   1.386377e+02
  -1.211048e+02   2.001757e+02
  -3.726185e+02  -6.680042e+01
  -1.585814e+02  -3.231900e+02
   1.964556e+02  -2.417416e+02
   2.829998e+02  -7.646806e+01
   1.585789e+02   5.822500e+01
  -2.882246e+01   2.145352e+02
  -1.507167e+02   3.321102e+02
  -3.434145e+02   2.516046e+02
  -2.501865e+02  -1.372247e+02
  -8.956362e+01  -4.798557e+02
   1.029579e+02  -4.059225e+02
   1.441815e+02  -1.260710e+02
  -1.777428e+01   4.775553e+01
   1.800217e+01  -1.172242e+02
   2.046280e+02  -1.699200e+02
   3.135393e+02   3.632367e+01
   1.732284e+02   2.715442e+02
  -5.255889e+01   2.760910e+02
  -2.745638e+02   1.244941e+01
  -2.048220e+02  -3.140653e+02
  -7.745331e+00  -3.448340e+02
   2.467151e+02  -1.245700e+02
   4.095114e+02   1.178230e+02
   2.036346e+02   3.594610e+02
  -1.069587e+02   2.844139e+02
  -2.159582e+02   1.105876e+02
  -1.426179e+02  -1.767112e+01
  -6.864686e+01   2.558979e+01
  -1.719452e+02   1.123898e+02
  -3.803309e+02   7.203724e+00
  -3.775462e+02  -2.170195e+02
  -4.959758e+01  -3.834257e+02
   3.326208e+02  -4.318727e+02
   5.015467e+02  -2.455953e+02
   3.483058e+02   9.311830e+01
   7.540659e+01   3.133045e+02
  -1.539828e+02   2.869283e+02
  -1.355181e+02   5.419075e+01
   9.553125e+01  -6.487354e+01
   2.003719e+02  -7.231910e+00
   7.025011e+01   2.237204e+02
  -2.048067e+02   2.134607e+02
  -2.478465e+02  -8.191362e+01
   1.676909e+01  -2.380712e+02
   1.994091e+02  -7.984357e+01
   1.644483e+02   2.236296e+02
  -1.155086e+01   3.803154e+02
  -2.302957e+02   2.325950e+02
  -2.815603e+02  -1.231319e+02
  -2.529845e+02  -2.706630e+02
  -8.742042e+01  -2.269614e+02
   1.302038e+02  -1.499669e+02
   1.575848e+02   5.681679e+00
   4.555836e+01   4.040585e+01
  -8.119916e+01  -5.415408e+01
  -1.824661e+01  -1.186804e+02
   1.392637e+02  -1.424663e+02
   1.833189e+02  -1.365752e+01
   6.575073e+01   8.040384e+01
  -8.439246e+01   5.192541e+01
  -9.562062e+01  -3.036632e+01
   7.655006e+01  -6.743368e+01
   2.464731e+02  -3.762345e+01
   2.891875e+02   1.410019e+02
   7.825983e+01   2.570115e+02
  -2.177810e+02   2.603284e+02
  -3.314563e+02   1.237998e+02
  -1.913712e+02  -7.577997e+01
  -1.980632e+00  -1.349324e+02
   1.040443e+02  -4.305036e+01
  -1.073462e+00   1.202996e+02
  -1.990898e+02   4.409456e+01
  -2.111242e+02  -1.224953e+02
  -6.885743e+01  -2.212745e+02
   6.598143e+01  -1.374443e+02
   1.793142e+02  -6.679448e+01
   7.002007e+01   4.189538e+01
   1.515229e+00   9.919124e+00
  -7.802926e+00   7.778420e+00
   8.434977e+01  -1.018007e+02
   1.828271e+02  -1.088291e+01
   2.207154e+02   1.098373e+02
   1.503162e+01   1.651998e+02
  -1.565024e+02   1.626112e+02
  -2.005513e+02   2.120393e+01
  -7.098858e+01  -1.166432e+02
   1.026904e+02  -9.215183e+01
   1.303279e+02  -9.479771e+00
   2.174376e+01   3.148869e+01
  -1.533657e+01  -2.325365e+00
   1.168041e+01   4.223426e+00
   9.868901e+01   1.809097e+01
   6.677621e+01   1.023722e+02
  -1.077142e+01   1.334608e+02
  -1.294718e+02   1.719097e+02
  -1.956513e+02   1.948755e+01
  -1.861010e+02  -7.908897e+01
  -6.188981e+01  -2.061581e+02
   8.847207e+01  -1.588246e+02
   1.229060e+02  -1.735085e+01
  -3.198038e+00   9.850069e+01
   2.005780e+01   3.430794e+01
   2.078263e+01   7.294251e+00
   1.049698e+02  -2.755995e+01
   7.545630e+01   1.302414e+01
  -2.950812e+01   1.130859e+02
  -9.022045e+01   6.464451e+01
  -9.331666e+01   3.122846e+01
  -1.396223e+01  -7.773469e+01
   1.261313e+02  -9.688732e+01
   1.592494e+02   4.334008e+01
   7.461019e+01   2.179936e+02
  -9.342785e+01   2.096918e+02
  -2.605167e+02   8.181331e+01
  -2.578708e+02  -5.554827e+01
  -1.246305e+02  -2.214729e+02
   7.131754e+01  -1.212526e+02
   1.325478e+02  -5.649727e+01
   6.926952e+01  -4.155416e+01
   6.548093e+01  -8.330212e+01
   8.141646e+01  -1.034362e+02
   1.394536e+02   1.060399e+01
   1.247315e+02   1.351093e+02
   8.425730e+01   2.850905e+02
  -9.094113e+01   1.780370e+02
  -1.394587e+02   1.452869e+01
  -1.486580e+02  -1.327562e+02
  -5.424446e+01  -1.481353e+02
   6.285726e+01  -1.114322e+02
   6.279328e+01   6.922225e+00
   1.525192e+01   3.308845e+01
   1.464623e+01   3.411518e+01
   4.122006e+01   4.734536e+00
   7.812005e+01   2.064880e+01
   2.148006e+01  -5.610973e-01
  -9.835205e+01   1.282683e+01
  -1.265464e+02   1.664488e+01
  -1.297179e+02  -4.927734e+01
  -1.374558e+01  -2.764972e+01
   1.429228e+02  -6.233066e+01
   1.707053e+02   8.425656e+00
   2.605852e+01   2.998477e+01
  -6.216544e+01  -6.361888e-01
  -3.954152e+01  -7.583780e+00
   9.622074e+00  -4.607705e+01
   6.733878e+01  -2.964625e+01
   8.277649e+01  -3.758560e+01
   9.675074e+01   3.889774e+01
   2.232502e+01   7.993750e+01
   4.946188e+01   8.618162e+00
   4.728407e+01   6.782855e+01
   3.352574e+01   6.396970e+01
   1.669715e+00   1.656271e+02
  -1.119647e+02   1.227927e+02
  -1.586372e+02   8.463247e+01
  -1.425603e+02  -9.096752e+01
   7.330838e+00  -1.392243e+02
   9.616630e+01  -6.502767e+01
   9.930730e+01   2.950469e+01
  -2.587842e+01   7.534905e+00
  -1.273398e+02  -2.096600e+01
  -1.179846e+02  -9.465179e+01
   7.005618e+01  -1.322688e+02
   1.841677e+02  -4.279228e+01
   1.440894e+02   2.231504e+01
   2.882642e+01   1.176557e+02
  -3.563976e+01   8.574685e+01
  -2.993289e+01   5.302979e+01
   4.459764e+01  -4.413485e+01
   1.257916e+02  -2.205549e+01
   1.269602e+01   1.487323e+02
  -1.003972e+02   1.858555e+02
  -1.300950e+02   5.441347e+01
  -1.130111e+02  -7.542425e+01
  -3.415692e+01  -2.026338e+02
   1.056412e+02  -1.962276e+02
   1.457678e+02   1.247018e+01
   8.683969e+01   1.571047e+02
  -1.639695e+00   1.258358e+02
  -5.462790e+01   6.658316e+01
  -8.532353e+01  -5.177086e+01
  -3.560531e-01  -1.575317e+01
   1.086837e+01   2.575371e+01
  -4.689267e+01  -2.971769e+00
  -6.382673e+01  -1.084256e+02
  -7.766657e+01  -7.946819e+01
   5.322658e+01  -1.153182e+01
   1.316377e+02   8.456588e+00
   1.393463e+02   3.285784e+01
   5.349329e+01   2.800793e+01
  -5.511116e+01   3.570901e+01
  -8.735529e+01   1.727633e+01
  -1.301193e+01   1.584226e+01
   6.761477e+01  -2.056301e+01
   8.996081e+00   7.765909e+00
  -1.505560e+01   4.697145e+00
   1.554601e+01   1.428241e+01
   1.014991e+02   2.004746e+01
   4.672102e+01   9.505928e+00
   6.605677e+00   5.000895e+01
  -1.269363e+02   9.157505e+01
  -1.534876e+02   3.386560e+01
  -1.125489e+02  -6.114450e+01
  -3.401487e+00  -1.178035e+02
   8.574237e+01  -1.603978e+02
   1.132603e+02  -2.533700e+01
   5.263920e+01   5.080418e+01
   4.785182e-01   4.040860e+01
   2.284168e+01   6.481088e+00
   2.916297e+01   3.899228e+00
   3.591944e+01   7.197314e+01
  -2.348306e+01   8.879023e+01
  -5.108498e+01   3.314123e+01
  -7.679601e+01  -8.513003e+01
  -9.713509e+01  -7.834925e+01
  -2.270873e+01  -1.257585e+02
   7.398304e+01  -1.687034e+01
   8.728236e+01   4.901997e+01
   2.499286e+01   9.727901e+01
  -9.667139e+01   2.472664e+01
  -9.091605e+01  -2.025919e+01
   4.594411e+00  -6.216275e+01
   4.212827e+01  -6.580531e+01
   2.123556e+01   3.963294e+01
  -6.334232e+01  -3.044462e+01
  -4.686514e+01  -1.462159e+01
   5.415433e+00  -6.491960e+00
   4.591053e+01  -1.920723e+00
   8.929964e+01  -1.023648e+02
   3.828193e+01  -4.447807e+00
  -3.795188e+01   7.912716e+01
  -1.552714e+01   7.561382e+01
  -8.440611e+00   3.085446e+00
  -4.106848e+01  -9.736684e+01
  -9.251603e+00  -1.019070e+02
   4.607856e+01   3.798582e+01
   2.450341e+01   6.984327e+01
  -3.119433e+01   1.992798e+01
  -1.042398e+01  -6.898973e+01
  -1.489737e+00  -2.154234e+00
  -2.406925e+01  -2.222122e+01
  -1.517206e+01  -3.368272e+00
   6.313560e+01   6.674622e+00
   8.263622e+01  -2.604620e+01
   1.591657e+01  -1.869843e+01
  -2.869325e+01   6.362491e+01
   1.780995e+01   7.125283e+01
   1.103795e+00   9.275316e+01
  -1.026054e+02  -1.355501e+00
  -9.038447e+01  -7.818509e+01
  -5.127027e+01  -4.975156e+01
   6.227328e+01  -8.599812e+01
   1.157298e+02  -3.321794e+00
   4.432453e+01   1.904510e+01
  -6.158527e+01   4.666372e+01
  -5.750196e+01   1.092444e+01
  -2.752357e+01   3.520524e+01
   4.841352e+01   4.026681e+01
  -1.080301e+01   1.658471e+01
  -3.874917e+01   1.512104e+01
  -1.690648e+02   6.170381e+00
