
 $NMID
 id='ANONYMOUS ', fmtdat='(2E16.6)'
 volume=1.0
 tramp=1.0
 $END
   4.132735e+03  -4.796238e+01
   2.580348e+03   2.373162e+03
  -6.758444e+02   2.686609e+03
  -2.170329e+03   9.252478e+02
  -9.874026e+02  -6.429955e+02
   6.487087e+02  -5.030401e+02
   8.466721e+02   5.006480e+02
  -6.465330e+00   9.572805e+02
  -8.329651e+02   7.334043e+02
  -9.542172e+02  -4.873518e+01
  -4.482426e+02  -8.856336e+02
   2.235895e+02  -8.989314e+02
   6.247909e+02  -7.248038e+01
   3.498511e+02   6.665121e+02
  -2.638831e+02   7.541299e+02
  -6.468860e+02  -3.694168e+01
  -3.225094e+02  -7.221477e+02
   2.610460e+02  -6.182137e+02
   6.161080e+02  -1.529823e+02
   4.509361e+02   3.338821e+02
  -2.048769e+01   4.571596e+02
  -2.778123e+02   2.559161e+02
  -2.204787e+02   2.119926e+01
   1.322463e+02  -1.821939e+02
   3.936668e+02   1.794112e+02
   1.851287e+02   4.094157e+02
  -4.831357e+02   4.159547e+02
  -8.763693e+02  -5.703616e+01
  -4.225793e+02  -4.796543e+02
   4.523515e+02  -4.697489e+02
   7.967518e+02   2.881334e+01
   3.382525e+02   4.943535e+02
  -2.946668e+02   4.804650e+02
  -5.526105e+02   2.492667e+02
  -4.202040e+02  -2.223883e+02
  -1.369598e+02  -5.352199e+02
   1.853112e+02  -2.849263e+02
   1.595139e+02   2.355658e+02
  -1.827334e+02   3.912948e+02
  -4.524578e+02  -7.294554e+01
  -2.447339e+02  -6.116389e+02
   3.035919e+02  -6.603054e+02
   6.157160e+02   1.835897e+01
   2.552040e+02   5.187342e+02
  -2.986027e+02   3.145286e+02
  -3.570915e+02  -3.412431e+02
   7.217789e+01  -5.558881e+02
   5.500238e+02  -1.129305e+02
   5.926805e+02   4.200041e+02
   1.414126e+02   5.973240e+02
  -4.152886e+02   3.502611e+02
  -6.483281e+02  -1.261738e+02
  -3.833600e+02  -4.143001e+02
   1.855706e+02  -3.886612e+02
   4.933146e+02  -1.160539e+02
   2.747030e+02   1.519682e+02
  -1.045158e+02   1.285743e+02
  -1.977758e+02  -8.309195e+01
   8.403540e+01  -1.581424e+02
   3.285181e+02   2.382923e+01
   1.960147e+02   2.342270e+02
  -2.067549e+02   2.312395e+02
  -3.068519e+02   9.604383e+01
  -2.240197e+02  -1.081626e+02
   9.577220e+00  -2.605661e+02
   2.257984e+02  -3.605345e+02
   3.520785e+02  -2.430551e+02
   2.508018e+02   1.725421e+02
   8.752991e+01   4.637932e+02
  -7.686427e+01   3.816330e+02
  -9.502863e+01   1.416520e+02
  -2.962360e+01   2.913747e+01
  -7.462098e+01   6.581644e+01
  -2.416923e+02   1.045392e+02
  -2.931327e+02  -9.929121e+01
  -1.574191e+02  -2.852547e+02
   3.479720e+01  -2.411045e+02
   2.412637e+02  -4.910285e+01
   1.873457e+02   1.888001e+02
  -1.024136e+01   3.123630e+02
  -2.801310e+02   1.238618e+02
  -3.852929e+02  -1.774849e+02
  -2.181465e+02  -3.698306e+02
   4.624538e+01  -3.246184e+02
   1.806219e+02  -1.080582e+02
   1.690445e+02  -3.717117e+01
   1.189853e+02  -4.054782e+01
   2.633196e+02  -9.350928e+01
   3.874287e+02   7.695084e+01
   3.362713e+02   2.538973e+02
  -2.698945e+01   4.471092e+02
  -3.698771e+02   4.264041e+02
  -4.959649e+02   2.205753e+02
  -3.382277e+02  -1.028709e+02
  -6.380131e+01  -2.763268e+02
   1.335699e+02  -2.804635e+02
   8.082077e+01  -1.304395e+01
  -1.298116e+02   1.489628e+02
  -2.323722e+02   2.106611e+01
  -2.717142e+01  -2.136776e+02
   1.595933e+02  -1.942765e+02
   1.571831e+02   2.972798e+01
  -7.415968e+00   1.745399e+02
  -2.158396e+02   5.956351e+01
  -1.830310e+02  -2.711278e+02
   5.819165e+01  -3.396344e+02
   2.280121e+02  -2.235624e+02
   3.238106e+02   8.405493e+01
   2.581426e+02   2.398101e+02
   9.294816e+01   2.771509e+02
  -1.167979e+02   1.492677e+02
  -1.831676e+02   2.346537e+01
  -1.430392e+02  -6.411967e+00
   8.024155e+01   4.359445e+01
   3.290047e+00   1.112553e+02
  -9.188677e+01   1.129961e+01
  -1.620550e+02  -8.703148e+01
  -3.580803e+01  -9.532101e+01
   7.335881e+01  -1.866515e+01
   8.103427e+01   7.913760e+01
  -8.931959e+01   9.783259e+01
  -2.800428e+02   1.932946e+01
  -2.869016e+02  -1.415654e+02
  -4.180033e+01  -2.439278e+02
   2.097916e+02  -2.359127e+02
   2.775939e+02  -1.435048e+02
   1.885737e+02   3.857667e+01
  -4.726989e+01   1.196758e+02
  -9.854261e+01   2.279588e+00
   1.560885e+01  -8.359610e+01
   2.191903e+02  -4.923558e+01
   2.154500e+02   1.083118e+02
   8.428176e+01   1.954063e+02
  -9.520244e+01   2.035204e+02
  -1.683053e+02   4.462755e+01
  -7.222211e+01  -1.486776e+01
   2.730967e+01  -2.244262e+01
   5.169374e+01   9.156749e+01
  -4.905741e+01   9.796159e+01
  -2.042518e+02   2.658687e+01
  -2.330040e+02  -1.212572e+02
  -4.804614e+01  -2.067755e+02
   1.532378e+02  -2.089767e+02
   2.380644e+02  -4.507569e+01
   1.324759e+02   8.257378e+01
  -9.034825e+01   1.448554e+02
  -9.221594e+01   6.578191e+01
  -1.450657e+01  -1.797114e+01
   2.258432e+01  -5.096823e+01
   5.593731e+01  -1.635453e+00
  -4.198796e+01   1.750803e+01
  -1.265723e+02  -5.035496e+01
  -6.588732e+00  -1.517256e+02
   1.016394e+02  -1.523183e+02
   2.124171e+02  -2.397740e+01
   1.794909e+02   1.321449e+02
  -1.520997e+01   2.361732e+02
  -1.723014e+02   1.849080e+02
  -1.522150e+02   2.887543e+01
  -5.442156e+01  -1.071291e+02
  -2.098675e+01  -7.059576e+01
  -7.218105e+00  -7.147937e+00
  -3.327195e+01  -3.094300e+01
   5.969607e+00  -5.150717e+01
   9.790237e+01  -7.920122e+01
   1.097595e+02  -2.416384e+01
   1.171587e+02   5.669133e+01
   1.081259e+01   1.328782e+02
  -1.638567e+02   1.202738e+02
  -2.523875e+02  -4.385454e+01
  -1.148651e+02  -1.826002e+02
   1.215184e+02  -2.394899e+02
   2.611974e+02  -1.111821e+02
   2.350548e+02   1.364839e+02
   5.734255e+01   1.897587e+02
  -7.340518e+00   1.117557e+02
  -9.775144e+01   6.729637e+01
  -7.219120e+01   5.758836e+01
  -2.486114e+01   8.617624e+01
  -6.951171e+01   1.072455e+02
  -1.265806e+02  -1.976576e+01
  -1.233360e+02  -1.327016e+02
  -3.837630e+01  -2.229411e+02
   1.243076e+02  -2.143909e+02
   1.445684e+02  -3.923357e+01
   1.501234e+02   1.493277e+02
  -2.357813e+01   1.791193e+02
  -7.630658e+01   9.081259e+01
  -6.489370e+01  -2.057302e+01
   6.023326e+00  -5.678365e+01
   9.965072e+00  -7.904683e+01
  -5.220613e+00  -2.044284e+01
  -1.491023e+01  -1.217490e+00
  -5.339933e+01  -5.042909e+00
   8.444059e+01  -2.862445e+01
   1.666501e+02  -3.396473e+01
   1.594215e+02   5.244336e+01
   1.315175e+01   1.391389e+02
  -1.158669e+02   5.627215e+01
  -1.662121e+02   1.413556e+01
  -2.575445e+01  -6.565366e+01
   5.826667e+01  -6.300435e+01
   3.763623e+01  -9.460903e+00
  -2.404791e+01   4.511739e+01
  -4.498445e+01   6.408054e+01
  -6.615577e+01  -2.938127e+01
  -4.466951e+01  -5.432662e+01
  -5.738312e+00  -3.925845e+01
  -8.119021e+01  -1.751496e+01
  -6.650371e+01   3.159123e+01
  -5.489739e+01  -6.098085e+01
   1.283763e+01  -1.467574e+02
   1.587205e+02  -1.501275e+02
   1.499322e+02   5.443625e+00
   1.322138e+02   9.283509e+01
  -2.289094e+01   1.277680e+02
  -1.103135e+02   9.649111e+00
  -7.677466e+01  -1.376901e+01
   8.380933e+01   1.539935e+00
   8.373205e+01   3.237933e+01
   5.531122e+01   1.514012e+02
  -1.212712e+02   1.450580e+02
  -2.033713e+02   3.755836e+01
  -1.612901e+02  -5.362227e+01
   1.110619e+01  -1.341631e+02
   8.138840e+01  -8.812442e+01
   7.878955e+01   7.528781e+00
  -6.200575e+01  -3.822192e+00
  -8.877807e+01  -2.320863e+01
  -6.785889e+01  -1.570953e+02
   1.004292e+02  -1.544803e+02
   1.740059e+02  -5.152171e+01
   1.637240e+02   1.224365e+02
   1.433213e+01   2.069584e+02
  -8.898178e+01   1.756150e+02
  -1.309396e+02   2.675761e+01
  -6.055330e+01  -6.590145e+01
   2.286871e+01  -9.041624e+01
   2.423446e+01   3.165706e+00
   5.349283e+01   5.918114e+01
   1.055358e+00  -2.729982e+01
  -2.860095e+01  -5.623105e+01
  -5.326335e+00  -3.182539e+01
   5.332182e+01   8.699293e+01
   5.402005e+01   1.092360e+02
  -3.409101e+01   7.763338e+00
  -1.191900e+02  -2.565828e+01
  -1.644980e+02  -7.087722e+01
  -1.801511e+01  -4.193109e+01
   9.054973e+01  -5.891810e+01
   8.722708e+01  -9.317459e+00
   5.050405e+01   1.286633e+01
  -3.982481e+01  -2.355473e+00
   8.341810e+00   4.712093e+00
   5.515719e+01   9.718574e+00
  -5.722451e+00   2.041958e+01
  -9.198602e+01   2.350138e+01
  -9.372192e+01  -5.673304e+01
  -3.333453e+01  -1.496260e+02
   1.220863e+02  -1.338773e+02
   1.889152e+02  -6.435532e+01
   1.358152e+02   8.028514e+01
   5.882421e+01   1.912985e+02
  -4.281366e+01   1.403249e+02
  -9.391320e+01   4.861874e+01
  -7.850623e+01  -4.611197e+01
   1.665138e+01  -3.862076e+01
   1.481558e+01  -1.012572e+01
  -1.748838e+00   3.642257e+01
  -9.321321e+00  -2.078371e+01
  -3.750484e+01  -8.330519e+01
   2.070491e+01  -6.461180e+01
   4.608800e+01   1.185333e+00
   2.299963e+01   1.324176e+02
   2.061222e+01   1.062152e+02
  -4.855260e+01   5.361032e+01
  -9.517836e+01  -4.931593e+01
  -8.754654e-01  -1.196583e+02
   8.238062e+01  -5.627272e+01
   1.264306e+02   2.987572e+01
   5.363623e+01   3.232968e+01
  -2.902112e+01   4.950307e+01
  -5.719881e+01   1.256457e+01
   2.829775e+01   1.549133e+01
   7.469958e+01  -1.125836e+01
  -1.416037e+01   1.670074e+01
  -5.120295e+01   5.427103e+01
  -8.000749e+01   9.752802e+01
  -5.027239e+00   2.033030e+01
   1.253183e+01  -7.122344e+01
   4.417895e+01  -5.683399e+01
   9.031617e-01   3.553801e+01
  -1.401664e+01   8.053371e+01
  -2.181048e+01   4.592128e+01
  -6.048404e+01  -4.001078e+00
  -3.320033e+01  -8.862536e+01
   1.939557e+01  -2.889165e+01
   4.992001e+01  -4.488951e+01
   4.163276e+01  -2.816386e+01
   4.169945e+01  -3.470826e+01
  -4.524728e+00  -2.041283e+01
   1.423551e+01  -8.733489e+00
   4.796086e+01   4.526502e+01
   1.864290e+01   5.548546e+01
  -8.346761e+01   1.247637e+01
  -6.583775e+01  -2.428678e+01
   1.710894e+00  -6.704945e+01
   6.328273e+01  -4.069399e+01
   6.886678e+01   3.111701e+01
   1.425748e+01   5.342252e+00
  -5.494146e+01  -3.259818e+01
  -5.902020e+01  -6.697021e+01
  -3.277050e+01  -1.006269e+01
  -5.443346e+00  -5.022505e+01
   5.278364e+01  -2.894418e+01
   1.568776e+01  -1.652590e+01
  -8.675866e+01  -8.935902e+00
  -3.903631e+01  -2.791222e+00
   3.494747e+01  -2.150151e+00
   9.694260e+01  -4.288449e+01
