
 $NMID
 id='ANONYMOUS ', fmtdat='(2E16.6)'
 volume=1.0
 tramp=1.0
 $END
  -4.316697e+03  -3.403672e+00
  -2.654679e+03  -2.619663e+03
   7.425126e+02  -2.818370e+03
   2.294090e+03  -9.375107e+02
   1.052194e+03   7.850001e+02
  -6.509480e+02   5.610701e+02
  -9.677491e+02  -4.020168e+02
  -3.018855e+01  -1.095268e+03
   7.277431e+02  -8.027829e+02
   9.877671e+02   5.271230e+01
   5.543390e+02   8.886553e+02
  -1.639182e+02   9.717975e+02
  -6.937548e+02   1.479079e+02
  -4.466985e+02  -7.782443e+02
   2.171465e+02  -7.244307e+02
   6.683723e+02  -6.904385e+01
   3.283101e+02   7.141517e+02
  -3.070657e+02   6.508953e+02
  -5.986214e+02   2.606894e+01
  -3.512505e+02  -4.427507e+02
  -1.553874e+01  -4.907919e+02
   2.230598e+02  -2.680117e+02
   2.545772e+02  -1.411422e+01
  -1.124606e+02   8.210895e+01
  -4.137035e+02  -4.267081e+01
  -2.372228e+02  -4.681268e+02
   4.727486e+02  -4.366655e+02
   8.817532e+02   8.393316e+01
   4.387141e+02   5.785440e+02
  -4.022522e+02   5.092456e+02
  -7.413668e+02  -6.260765e+01
  -3.774469e+02  -5.103675e+02
   2.526260e+02  -5.066475e+02
   6.009588e+02  -1.972999e+02
   5.067947e+02   2.450011e+02
   1.069965e+02   4.892117e+02
  -2.445567e+02   2.952675e+02
  -2.383494e+02  -2.297394e+02
   1.342989e+02  -4.366552e+02
   4.833589e+02  -3.961385e+01
   3.100865e+02   7.521464e+02
  -3.081200e+02   7.582810e+02
  -6.564141e+02   3.002947e+01
  -3.025190e+02  -6.014338e+02
   3.076214e+02  -3.676875e+02
   3.846631e+02   2.805097e+02
  -6.398679e+01   5.603593e+02
  -5.930529e+02   1.570951e+02
  -6.571578e+02  -4.387721e+02
  -2.042307e+02  -6.915335e+02
   4.038994e+02  -3.868312e+02
   6.666225e+02   7.051025e+01
   3.608237e+02   3.990785e+02
  -1.586138e+02   3.821243e+02
  -4.189518e+02   4.570859e+01
  -2.402702e+02  -2.389285e+02
   1.210772e+02  -1.082774e+02
   1.632058e+02   1.549670e+02
  -1.883081e+02   1.999976e+02
  -3.627113e+02  -4.247640e+01
  -1.533108e+02  -3.439588e+02
   2.159396e+02  -3.316303e+02
   3.164234e+02  -5.964633e+01
   1.442299e+02   9.422183e+01
  -7.262742e+01   1.920502e+02
  -2.305963e+02   2.882771e+02
  -3.473052e+02   2.123658e+02
  -2.098118e+02  -1.223128e+02
  -6.209289e+01  -4.327140e+02
   1.363299e+02  -3.489959e+02
   1.007797e+02  -1.074079e+02
   5.578526e-01   1.919376e+01
  -2.226950e+01  -5.495368e+01
   1.763584e+02  -1.728214e+02
   2.967321e+02   2.138078e+01
   1.858281e+02   2.665301e+02
  -4.157780e+01   2.502484e+02
  -2.246719e+02   2.975323e+01
  -1.961048e+02  -2.186331e+02
   1.881250e+01  -2.980327e+02
   2.658214e+02  -9.426246e+01
   3.506799e+02   1.867568e+02
   1.696933e+02   3.878647e+02
  -8.007769e+01   3.263007e+02
  -2.265603e+02   7.532630e+01
  -1.775170e+02  -6.694892e+00
  -1.261343e+02   1.624957e+01
  -2.731978e+02   4.753349e+01
  -3.654725e+02  -7.536754e+01
  -2.984169e+02  -2.619471e+02
   2.201041e+01  -4.467028e+02
   3.673512e+02  -4.288274e+02
   4.974018e+02  -2.228729e+02
   3.394079e+02   6.873836e+01
   3.535922e+01   2.651876e+02
  -1.045062e+02   2.632255e+02
  -5.819072e+01   3.917735e+01
   1.751319e+02  -9.666247e+01
   2.087983e+02   4.154580e+01
   3.557400e+01   2.457863e+02
  -2.106512e+02   2.199256e+02
  -2.420690e+02  -5.810608e+01
   7.903104e+00  -1.612321e+02
   1.677079e+02   1.968937e+01
   1.800866e+02   2.229632e+02
  -6.840156e+01   2.939857e+02
  -2.075043e+02   1.553649e+02
  -3.541147e+02  -5.228091e+01
  -2.950879e+02  -2.467949e+02
  -9.653348e+01  -2.442118e+02
   1.358698e+02  -1.974117e+02
   1.924097e+02   3.137287e+01
   7.624360e+01   6.106110e+01
  -6.785324e+01  -3.704478e+01
  -4.467697e+01  -1.424326e+02
   9.418063e+01  -1.034450e+02
   1.523243e+02   5.776884e+00
   3.613485e+01   4.925108e+01
  -6.608834e+01   5.032867e+01
  -4.523616e+01  -3.422648e+01
   1.663315e+02  -9.467707e+01
   2.739950e+02   2.058361e+01
   2.491191e+02   1.295303e+02
   1.154555e+01   3.021394e+02
  -2.126700e+02   3.159845e+02
  -2.782861e+02   1.816804e+02
  -1.567369e+02  -1.163750e+01
   1.221585e+01  -9.616090e+01
   9.386150e+01   7.844475e+00
  -2.574682e+01   8.185450e+01
  -1.977653e+02   4.648794e+01
  -2.218618e+02  -1.805818e+02
  -4.803628e+01  -2.024560e+02
   1.224854e+02  -1.554106e+02
   1.593518e+02  -3.665991e+01
   5.157322e+01   2.794937e+01
  -3.610052e+01  -1.485194e+00
  -6.382658e+01  -9.421834e+01
   4.739992e+01  -8.769202e+01
   1.710554e+02   3.789363e+01
   2.350971e+02   1.434880e+02
   4.168241e+01   2.340704e+02
  -1.474479e+02   2.220910e+02
  -1.549769e+02   4.787869e+01
  -9.545300e+01  -1.294397e+02
   5.313377e+01  -1.070190e+02
   9.585830e+01  -1.684766e+01
   4.697148e+01   2.601654e+01
  -3.099822e+01   3.932829e+01
   1.020154e+01  -2.463880e+01
   1.066706e+02  -5.654597e+01
   1.047461e+02   2.406559e+01
   4.169483e+01   1.552554e+02
  -1.262889e+02   1.832287e+02
  -2.793355e+02   8.423321e+01
  -2.158187e+02  -1.398913e+02
  -5.926118e+01  -2.570105e+02
   6.867130e+01  -1.627525e+02
   1.122163e+02  -6.736731e+01
   6.111684e+01   6.621753e+01
   1.410080e+01   3.344101e+01
   7.803565e+00  -3.812146e+01
   4.944181e+01  -2.300670e+01
   5.561822e+01   1.468480e+01
   4.645766e+00   1.204651e+02
  -7.140209e+01   2.875713e+01
  -6.246144e+01  -2.554189e+01
   1.892809e+01  -8.763635e+01
   1.449525e+02  -6.037253e+01
   1.990451e+02   6.320637e+01
   1.381959e+02   1.881778e+02
  -7.070115e+01   2.169006e+02
  -2.322497e+02   8.506683e+01
  -2.817244e+02  -6.247628e+01
  -1.423997e+02  -1.794001e+02
   7.027917e+01  -1.211356e+02
   8.307503e+01  -7.217576e+01
   2.811307e+01  -6.416758e+01
   3.087597e+01  -9.541303e+01
   1.172189e+02  -2.650152e+01
   1.354111e+02   3.770861e+01
   9.766962e+01   1.652100e+02
   3.646160e+00   2.103998e+02
  -7.957090e+01   1.812380e+02
  -1.481961e+02   2.144982e+01
  -1.278165e+02  -1.076448e+02
   4.910394e+00  -1.462693e+02
   6.393982e+01  -6.716633e+01
   5.637385e+01   4.520737e+01
   2.667773e+01   7.439110e+01
  -1.702786e+01  -2.494612e+00
   4.006758e+01   1.080936e+01
   7.540498e+01   4.854593e+01
   4.634172e+01   4.351350e+01
  -8.655175e+01   6.663294e+01
  -1.348987e+02  -2.400007e+01
  -1.015244e+02  -6.718023e+01
  -5.000693e+01  -8.273204e+01
   9.843707e+01  -9.006023e+01
   1.703940e+02  -4.156301e+01
   9.424072e+01   3.325451e+01
  -3.202051e+01   6.444897e+01
  -4.234840e+01   1.570499e+01
  -1.708319e+01  -3.349459e+01
   8.116545e+01  -9.905625e+01
   7.221683e+01  -3.600196e+01
   5.198965e+01   7.244353e+01
   5.514017e+01   9.293374e+01
   7.435120e+01  -1.708555e+01
   2.728319e+01   3.501535e+01
   3.069269e+01   2.202832e+01
  -2.998726e+01   1.309069e+02
  -8.844824e+01   9.522318e+01
  -1.427990e+02   3.335875e+01
  -1.326480e+02  -1.000215e+02
  -1.973608e+01  -1.102257e+02
   7.894900e+01  -8.220100e+01
   5.509807e+01   4.363385e+00
  -6.026202e+01   3.399505e+01
  -1.200013e+02  -6.272528e+01
  -6.878410e+01  -1.285735e+02
   8.609325e+01  -9.896818e+01
   2.102041e+02  -7.748507e+01
   1.756584e+02   1.946254e+01
   5.328497e+01   4.939956e+01
  -3.666049e+01   4.091994e+01
  -3.728276e+01   3.059811e+00
   5.007651e+01  -2.606437e+01
   8.847371e+01  -2.793531e+01
   4.525521e+01   7.387100e+01
  -9.947808e+01   1.247409e+02
  -2.071491e+02   8.336972e+01
  -1.289102e+02  -9.456344e+01
  -1.318344e+01  -1.651843e+02
   9.287986e+01  -1.370795e+02
   1.016764e+02   4.086318e+01
   8.777390e+01   1.041635e+02
   2.188050e+01   1.286976e+02
  -2.554936e+01   8.075349e-02
  -7.856958e+01  -2.990560e+01
  -4.480615e+01  -4.353230e+01
   5.595071e+00   2.581553e+01
  -4.529076e+01  -7.956250e+00
  -3.329007e+01  -7.996805e+01
  -7.239981e+01  -1.317078e+02
   1.904848e+01  -9.801942e+01
   1.039465e+02   6.194927e+01
   1.266543e+02   8.585616e+01
   3.669852e+01   5.133720e+01
  -8.286353e+01   1.169879e+01
  -6.032448e+01  -3.379616e+00
  -3.605662e+00   2.306002e+01
   5.582658e+01  -4.321099e+00
   2.345153e+01  -4.509684e+01
   3.124600e+01  -1.262305e+01
   1.086825e+01   3.823817e+01
   9.984548e+01   2.901939e+01
   1.133902e+02   5.451292e+01
  -3.617635e+01   1.060560e+02
  -1.346863e+02   7.788358e+01
  -2.089031e+02   6.836438e+01
  -1.506876e+02  -5.852949e+01
  -1.421445e+01  -1.625735e+02
   4.920532e+01  -1.784794e+02
   1.401868e+02  -9.988701e+01
   7.531049e+01  -3.786457e+00
   3.128155e+01   2.677422e+01
  -1.988123e+01   3.438519e+01
   1.519996e+01  -1.118219e+01
   2.725218e+01   2.360613e+01
  -9.301253e+00   3.233558e+01
  -4.512643e+01   7.992613e+01
  -8.026971e+01   2.145286e-01
  -8.883119e+01  -6.168523e+01
  -3.335698e+01  -9.405586e+01
   9.488159e+01  -2.220204e+01
   1.036204e+02   1.160945e+02
   4.583596e+01   1.139789e+02
  -9.013556e+01   4.826637e+01
  -9.290064e+01  -2.684471e+01
  -1.107730e+01  -3.850320e+01
   7.478879e+01  -7.484957e+01
   2.041104e+01  -3.713083e+01
  -9.913495e+00   6.583430e+00
  -7.326852e+01   1.535984e+01
  -3.383637e+01  -3.112498e+01
   1.010285e+02  -5.226190e+01
   1.173634e+02  -9.409060e+01
   5.490207e+01  -8.351155e+00
  -3.202065e+00   7.462382e+01
  -4.126262e+01   9.938064e+01
  -8.147866e+01  -3.260433e+01
  -2.210749e+01  -2.918539e+01
   3.637040e+01  -3.344969e+01
   7.089283e+01   2.351553e+01
   8.015313e+00   6.257465e+01
  -2.443161e+01   5.269657e+01
  -7.151098e+01   1.303387e+01
  -2.748796e+01  -1.656755e+01
  -1.957595e+01  -2.052970e+00
   4.082159e+01   1.230124e+01
   1.105300e+01   2.342291e+01
  -2.887635e+00  -4.947866e+01
   2.101703e+00   1.490925e+00
   4.063992e+00  -4.752950e+01
   2.154943e+01  -2.222794e+01
  -4.666442e+01   4.673471e+01
  -3.305774e+01   2.276778e+00
  -6.287297e+01  -9.107173e+00
   3.987169e+00  -5.520648e+01
   6.325122e+01  -2.723669e+01
   6.932311e+01  -5.794215e+00
   5.529894e+01   2.503317e+01
  -3.681011e+01   7.444667e+01
  -9.016493e+01   3.596252e+01
  -5.697132e+01   1.933291e+00
   1.422346e+01  -1.505554e+01
   4.574253e+01  -1.617144e+00
  -4.416093e+01   1.062927e+01
  -8.397704e+01   2.736275e+00
