
 $NMID
 id='ANONYMOUS ', fmtdat='(2E16.6)'
 volume=1.0
 tramp=1.0
 $END
   2.873361e+03  -8.563128e+01
   1.527548e+03   1.499966e+03
  -5.047884e+02   1.752468e+03
  -1.325269e+03   5.273402e+02
  -5.214725e+02  -5.214792e+02
   4.411154e+02  -4.138582e+02
   5.080001e+02   2.883245e+02
   6.608887e+01   6.700072e+02
  -5.336451e+02   4.873721e+02
  -6.259201e+02  -8.415934e+01
  -2.982810e+02  -4.888602e+02
   1.470651e+02  -5.671338e+02
   4.448608e+02  -6.600331e+01
   1.923727e+02   4.309721e+02
  -1.304861e+02   5.248364e+02
  -4.249633e+02   1.593226e+00
  -1.899473e+02  -3.804209e+02
   2.265047e+02  -3.987203e+02
   3.784878e+02  -3.264150e+01
   2.872646e+02   2.913154e+02
   3.204590e+01   2.591730e+02
  -1.103153e+02   1.522744e+02
  -1.708526e+02  -5.104841e+01
   2.253437e+01  -1.654949e+02
   2.568573e+02   3.402801e+01
   1.608067e+02   2.469433e+02
  -2.704956e+02   2.326257e+02
  -5.074306e+02  -5.641578e+01
  -2.642852e+02  -3.273023e+02
   2.384657e+02  -3.623235e+02
   4.544079e+02   1.627727e+01
   2.037210e+02   2.927716e+02
  -1.648775e+02   3.002842e+02
  -2.886754e+02   1.169944e+02
  -2.513800e+02  -1.135637e+02
  -2.853771e+01  -2.727962e+02
   1.215140e+02  -1.814493e+02
   8.355847e+01   9.254349e+01
  -1.216603e+02   2.745951e+02
  -2.607841e+02   1.790334e+01
  -1.575450e+02  -3.682466e+02
   1.585411e+02  -3.797238e+02
   3.614331e+02   1.452123e+01
   1.449261e+02   3.605902e+02
  -1.643421e+02   1.365693e+02
  -2.213848e+02  -1.772863e+02
   8.250156e+01  -2.960545e+02
   3.193037e+02  -9.453991e+01
   3.159678e+02   2.494948e+02
   7.521934e+01   3.607218e+02
  -2.099414e+02   2.103857e+02
  -3.467858e+02  -1.196470e+01
  -2.078197e+02  -2.402701e+02
   8.617425e+01  -2.530780e+02
   2.100765e+02  -5.032164e+01
   1.105759e+02   1.450847e+02
  -6.641711e+01   9.158653e+01
  -7.148332e+01  -1.232353e+02
   9.630124e+01  -1.108654e+02
   1.968729e+02   9.025051e+01
   9.213717e+01   2.170923e+02
  -1.219939e+02   1.458175e+02
  -1.954519e+02   1.761044e+01
  -1.193472e+02  -6.837291e+01
   3.072129e+01  -1.276860e+02
   1.379359e+02  -1.993156e+02
   2.718934e+02  -1.379586e+02
   1.764299e+02   7.318334e+01
   4.231559e+01   2.787044e+02
  -6.464166e+01   2.578898e+02
  -4.925710e+01   5.252846e+01
  -2.499770e+01  -4.027998e+00
  -4.230675e+01   8.559107e+01
  -9.888982e+01   7.626313e+01
  -1.598046e+02  -8.200183e+01
  -7.517114e+01  -1.450753e+02
   2.122775e+01  -1.555701e+02
   1.123327e+02  -1.314656e+01
   1.453463e+02   1.167681e+02
   6.025302e+00   1.592966e+02
  -1.454828e+02   9.682257e+01
  -1.843222e+02  -1.228060e+02
  -1.035594e+02  -2.551952e+02
   1.327088e+02  -1.768171e+02
   1.769464e+02  -4.982055e+01
   4.681971e+01   3.051100e+01
   2.363000e+01  -4.701964e+01
   1.577757e+02  -3.236493e+01
   2.727736e+02   5.394587e+01
   1.759385e+02   1.762661e+02
  -2.174732e+01   2.847225e+02
  -2.596404e+02   2.487824e+02
  -3.184689e+02   8.176673e+01
  -2.304700e+02  -8.641715e+01
  -6.476021e+01  -1.734221e+02
   3.899818e+01  -1.452244e+02
   9.614756e+01   5.170685e+00
  -9.839413e+01   6.584548e+01
  -1.533972e+02  -3.773276e+00
  -5.390118e+01  -1.657506e+02
   1.329654e+02  -1.360398e+02
   1.541805e+02   2.131592e+00
   2.879483e+01   1.342876e+02
  -9.850300e+01   3.095279e+01
  -9.390649e+01  -1.143476e+02
   1.000327e+01  -1.729624e+02
   1.287345e+02  -1.105590e+02
   1.811704e+02   1.234493e+01
   1.767745e+02   1.388254e+02
   3.079881e+01   1.195878e+02
  -8.929107e+01   8.939688e+01
  -1.059746e+02   1.194656e+01
  -1.531390e+01  -6.143304e+01
   8.419210e+01   1.158497e+01
   4.828282e+01   8.254020e+01
  -7.617299e+01   9.339784e+01
  -1.122361e+02  -1.547116e+01
  -4.772689e+01  -5.894156e+01
   5.654660e+01   1.166007e+01
   5.441402e+01   1.537793e+01
  -6.132631e+01   5.609544e+01
  -1.586859e+02   5.334510e+00
  -1.858679e+02  -8.317477e+01
  -5.116874e+01  -1.392092e+02
   9.864909e+01  -1.390626e+02
   1.517190e+02  -6.406975e+01
   7.551605e+01   4.290912e+01
  -3.346157e+01   6.580713e+01
  -1.127514e+02   4.899158e+01
   4.802962e+01  -9.405521e+01
   1.452528e+02  -5.532026e+01
   1.335419e+02   5.121907e+01
   5.611618e+00   1.131451e+02
  -7.792444e+01   8.949115e+01
  -7.125846e+01   8.510869e+01
  -1.251588e+01  -1.282468e+01
   2.504018e+01   1.308424e+01
   3.215561e+01   5.809843e+01
  -1.452383e+01   6.322151e+01
  -9.844371e+01   1.795044e+01
  -1.163823e+02  -7.633516e+01
  -1.443227e+01  -1.291113e+02
   9.377009e+01  -9.025028e+01
   1.507863e+02   1.663409e+01
   5.788430e+01   8.468400e+01
  -2.458094e+01   9.674856e+01
  -8.123748e+01   4.949420e+01
   2.626176e+01  -3.372646e+01
   3.291252e+01  -6.096179e+00
   3.451536e+00   2.419274e+00
  -2.301273e+01   1.556424e+01
  -4.179768e+01  -3.758795e+01
  -2.576779e+01  -6.662759e+01
   3.754992e+01  -1.037677e+02
   1.403178e+02  -2.536594e+01
   1.176712e+02   9.473603e+01
   1.259513e+01   1.322408e+02
  -5.942091e+01   4.150783e+01
  -7.089102e+01  -2.483711e+00
   1.897653e+01  -3.143356e+01
  -8.769076e+00  -2.614509e+01
  -3.027265e+01   9.443179e+00
  -8.164890e+01   1.602157e+01
  -3.219897e+01   9.539602e+00
   6.009149e+00  -4.666453e+01
   8.135348e+01  -7.529188e+01
   8.496030e+01  -1.138021e+01
   6.663384e+00   5.031849e+01
  -5.939822e+01   1.479730e+01
  -1.065657e+02  -2.331835e+01
  -4.707166e+01  -1.352057e+02
   7.567249e+01  -1.559215e+02
   1.666586e+02  -7.273561e+01
   1.529595e+02   8.599594e+01
   3.753098e+01   1.439161e+02
  -4.071496e+01   7.861382e+01
  -7.390653e+01   5.248235e+01
  -5.293952e+01   3.640873e+01
  -6.393061e+01   4.834275e+01
  -3.529931e+01   1.073120e+01
  -6.846781e+01  -3.775195e+01
  -3.781951e+01  -9.589380e+01
  -7.429271e-02  -1.342448e+02
   7.439114e+01  -8.298015e+01
   7.804293e+01  -6.584402e+00
   6.350361e+01   9.856553e+01
   1.118970e+01   6.016279e+01
  -2.138659e+01   3.241331e+01
  -2.311986e+01   4.431082e+01
   1.877006e+01   2.842719e+00
  -2.267621e+00  -1.235148e+01
  -4.638283e+01  -2.781721e+00
  -6.440192e+01   1.750682e+01
  -1.418876e+01  -9.548061e-01
   1.348124e+00  -3.186636e+01
   1.152820e+02   1.745778e+00
   5.693371e+01  -1.358434e+01
   3.235410e+01   5.251963e+01
  -6.046831e+01   4.744681e+01
  -7.432837e+01   1.491100e+01
  -1.599853e+01  -3.498979e+01
   3.369273e+01  -9.079672e+00
   3.723979e+01   2.842538e+01
   7.653762e+00   6.169680e+01
   1.516281e+01   1.274969e+01
  -1.354912e+01  -4.744194e+00
   4.583334e+00  -2.890468e+01
  -4.607263e+01  -6.179361e+01
  -5.303235e+01  -2.266727e+01
  -4.085059e+01  -3.058984e+01
  -2.886085e+01  -5.296206e+01
   4.850378e+01  -8.900263e+01
   5.482389e+01  -1.323834e+02
   8.865126e+01  -1.440356e+01
   7.859919e+01   5.761898e+01
   5.462597e+01   7.246500e+01
  -5.525757e+01   3.138332e+01
  -2.463876e+01   1.299829e+01
   2.405214e+01   1.689895e+01
   6.157768e+01   3.279098e+01
   4.306077e+01   8.109578e+01
  -5.841864e+01   3.913372e+01
  -9.027243e+01  -1.049615e+01
  -1.018207e+02  -9.578737e+00
  -3.697547e+01  -4.051222e+01
   3.548636e+01  -4.439464e+01
   8.260227e+00  -7.918505e+00
  -3.071921e+01   8.214651e+00
  -5.094522e+01  -8.754156e+00
  -1.589539e+01  -7.559504e+01
   2.669521e+01  -8.074599e+01
   9.784812e+01  -6.942621e+01
   5.356620e+01   5.160810e+01
   3.099824e+01   1.140678e+02
  -3.416684e+01   7.849554e+01
  -8.963822e+01  -5.843363e+00
  -7.139690e+01  -6.323931e+01
  -2.418811e+01  -6.765862e+01
   6.506629e+00  -4.483899e+01
   1.012166e+01   1.626294e+01
   2.504057e+00   8.971341e+00
  -5.012789e+00   6.202356e+00
  -2.242768e+01   1.010581e+01
   4.757660e+01   5.173678e+01
   1.851186e+01   6.774529e+01
  -4.990184e+00   2.512456e+01
  -9.306693e+01  -9.044827e-01
  -9.601263e+01  -2.896298e+01
   3.000980e+00  -1.264172e+00
   7.445100e+01   1.830408e+01
   4.291207e+01  -1.143763e+01
  -2.680855e+01   8.554412e+00
   3.024377e+00   4.158246e+01
  -3.154459e+01   7.301431e+00
  -2.222673e+01  -2.168252e+01
   3.052658e+01  -1.251128e+01
   1.535442e+01  -1.718855e+00
  -5.580554e+01  -4.091393e+00
   1.149644e+01  -2.621629e+01
   5.951933e+01  -4.648203e+01
   1.041565e+02  -2.880322e+01
   8.468109e+01   5.750144e+01
   6.337215e+01   9.813628e+01
  -5.489194e+01   9.178373e+01
  -6.880563e+01   5.533504e+01
  -1.827458e+01  -1.620961e+01
   9.238549e+00  -2.636782e+00
  -1.804047e+01  -3.748996e+01
  -1.113569e+01   2.644244e+01
  -2.096573e+01  -3.364717e+01
  -2.082407e+01  -6.434118e+00
  -3.407088e+01  -5.033457e+01
   5.453756e+01   3.220016e+01
   5.797919e+01   3.630068e+01
   2.473682e+01   4.371764e+01
  -1.461715e+01  -1.722002e+01
  -8.468028e+00  -5.789078e+01
  -2.661675e+01  -5.892298e+01
   2.139736e+01  -1.174885e+01
   5.011946e+01   1.729631e+01
   4.504026e+01   1.904594e+00
   3.716089e+00  -4.254885e+00
  -9.178381e+00   3.026694e+01
   1.661637e+01   2.471921e+01
  -1.657390e+01   2.050484e+01
  -2.226504e+01   3.350718e+01
  -6.422188e+01   6.946622e+00
  -3.716826e+01   4.372460e+01
  -5.017411e+01   3.878892e+00
   3.600214e+01  -3.673114e+01
   3.781348e+01  -6.829322e+01
   1.832716e+01   2.600949e+01
  -1.231193e+01   1.546895e+01
  -1.825994e+01   2.571519e+01
  -1.266070e+00  -5.688151e+01
  -9.070060e+00  -1.263582e+01
  -6.570110e+00  -2.480506e+01
   3.294079e+00  -2.249695e+01
  -8.523940e+00   1.052925e+01
   7.781072e+00   2.399612e+01
  -9.356556e+00   2.675692e+00
  -2.601511e+00   2.698182e+01
  -3.249654e+01   3.615290e+01
  -3.846866e+01   3.805042e+01
  -3.951445e+01   2.578762e+00
   1.473321e+01  -3.607769e+01
   2.964709e+01  -5.278430e+01
   4.547868e+01   2.356965e+00
  -5.062281e+00   3.340644e+01
   3.713886e+00   2.154526e+01
  -2.558973e+01  -6.725671e+00
  -5.459516e+01   2.745611e+01
  -1.047075e+01  -6.481643e+00
   3.701491e+01  -7.260023e+00
   4.851272e+01  -1.956435e+01
   1.366743e+01  -1.258746e+01
  -1.247289e+01  -6.168032e+00
   1.256972e+00  -3.966669e+01
   5.017508e+01  -3.161947e+00
   1.057439e+02  -4.999848e+01
