
 $NMID
 id='ANONYMOUS ', fmtdat='(2E16.6)'
 volume=1.0
 tramp=1.0
 $END
  -4.083237e+03   1.172915e+02
  -2.536862e+03  -2.355063e+03
   4.921263e+02  -2.661181e+03
   1.988632e+03  -1.087580e+03
   1.053866e+03   2.811631e+02
  -4.016885e+02   5.238158e+02
  -7.664709e+02  -2.167049e+02
   1.651846e+00  -9.754551e+02
   7.302852e+02  -7.347717e+02
   8.987453e+02   4.320140e+00
   4.672089e+02   8.952900e+02
  -1.701354e+02   9.849926e+02
  -5.616331e+02   1.515908e+02
  -3.125714e+02  -6.010508e+02
   1.601056e+02  -7.601050e+02
   5.686807e+02   6.096252e+01
   3.413870e+02   6.649562e+02
  -2.028890e+02   6.485707e+02
  -5.686529e+02   2.248226e+02
  -4.886279e+02  -3.343797e+02
  -5.999135e+01  -4.771872e+02
   2.765499e+02  -2.858879e+02
   1.293366e+02  -1.884960e+01
  -1.636020e+02   2.571892e+01
  -3.857669e+02  -2.644824e+02
  -1.229384e+02  -4.416124e+02
   5.342739e+02  -3.016024e+02
   7.719853e+02   1.057257e+02
   3.795904e+02   5.041722e+02
  -3.934393e+02   3.982101e+02
  -6.291003e+02  -8.146556e+01
  -3.321783e+02  -4.388589e+02
   2.860182e+02  -4.449164e+02
   6.064829e+02  -1.498006e+02
   3.546974e+02   2.072444e+02
   8.027273e+01   4.076642e+02
  -1.195463e+02   2.400810e+02
  -3.509080e+01  -1.476546e+02
   1.869550e+02  -3.282786e+02
   3.484487e+02   1.211810e+02
   1.680639e+02   6.519608e+02
  -2.807700e+02   6.696137e+02
  -4.845703e+02   6.552534e+01
  -1.877933e+02  -4.363785e+02
   1.970507e+02  -1.997029e+02
   3.040930e+02   3.136767e+02
  -1.243943e+02   5.079814e+02
  -5.846713e+02   9.428759e+01
  -5.969272e+02  -4.087416e+02
  -1.430098e+02  -6.138803e+02
   4.129403e+02  -3.363928e+02
   6.058751e+02   1.406398e+02
   3.178569e+02   3.904665e+02
  -1.613005e+02   3.444156e+02
  -3.965567e+02   6.234670e+01
  -1.759961e+02  -1.321306e+02
   6.207538e+01  -7.737161e+01
   8.318399e+01   1.311052e+02
  -1.669736e+02   1.593913e+02
  -3.223179e+02  -5.178486e+01
  -1.387115e+02  -2.491653e+02
   2.095253e+02  -2.708265e+02
   3.429751e+02  -9.907066e+01
   2.204863e+02   1.378866e+02
  -3.871872e+01   2.991933e+02
  -2.953860e+02   3.378901e+02
  -3.935820e+02   1.670021e+02
  -2.884863e+02  -1.672952e+02
  -4.097694e+01  -4.032668e+02
   1.155576e+02  -3.779720e+02
   1.119760e+02  -1.622632e+02
   2.484275e+01   6.627522e-01
   6.020147e+01  -1.139995e+02
   1.966098e+02  -1.245021e+02
   2.759649e+02   3.219435e+01
   1.542392e+02   2.923129e+02
  -9.676510e+01   2.515973e+02
  -2.717227e+02   2.844804e+00
  -1.854859e+02  -2.580841e+02
   6.410545e+01  -3.029615e+02
   2.993721e+02  -4.834230e+01
   3.693540e+02   2.223987e+02
   1.472290e+02   3.824707e+02
  -8.289282e+01   3.498376e+02
  -2.049296e+02   1.736930e+02
  -1.906571e+02   3.347262e+01
  -1.472893e+02   6.369450e+01
  -2.628317e+02   2.912111e+01
  -4.083132e+02  -4.073553e+01
  -3.394830e+02  -3.332599e+02
   4.088250e+00  -4.881615e+02
   4.192647e+02  -4.337941e+02
   4.914788e+02  -1.741645e+02
   3.221961e+02   1.077127e+02
   6.651580e+01   2.933642e+02
  -1.351474e+02   1.931822e+02
  -2.864724e+01   3.490813e+01
   1.468477e+02  -7.642089e+01
   1.737539e+02   3.586161e+01
   1.001095e+01   1.942144e+02
  -1.659546e+02   1.400727e+02
  -1.345385e+02  -4.074852e+01
   3.288100e+01  -1.530237e+02
   2.029209e+02   1.114132e+01
   1.440448e+02   2.552591e+02
  -4.430999e+01   3.348215e+02
  -2.701246e+02   2.008112e+02
  -3.633481e+02  -5.559429e+01
  -2.829536e+02  -2.617740e+02
  -1.247704e+02  -2.715802e+02
   1.000695e+02  -1.897430e+02
   1.984152e+02  -1.777082e+01
   6.600018e+01   1.311201e+01
  -3.148795e+01  -9.076606e+01
  -4.944410e-01  -1.527061e+02
   1.322738e+02  -1.079491e+02
   1.429605e+02   5.814607e+01
   3.980972e+01   1.297495e+02
  -8.566180e+01   2.492151e+01
  -4.411774e+01  -1.133511e+02
   1.543739e+02  -7.542712e+01
   3.087372e+02   1.639707e+01
   2.570000e+02   1.699623e+02
   4.126965e+01   2.819714e+02
  -2.508343e+02   3.138055e+02
  -2.731365e+02   8.471013e+01
  -1.354074e+02  -6.243153e+01
   2.358812e+01  -1.305022e+02
   1.262056e+02   2.918003e+00
  -4.713310e+01   1.017001e+02
  -1.305054e+02   3.101229e+01
  -1.875621e+02  -1.068864e+02
  -9.476067e+01  -1.855160e+02
   1.021486e+02  -1.700898e+02
   1.819823e+02   1.938118e+01
   7.615495e+01   6.637521e+01
  -3.908788e+01   1.271442e+01
  -5.451021e+01  -3.750147e+01
   6.619353e+01  -6.920171e+01
   1.920703e+02  -8.639994e+00
   1.949774e+02   1.383801e+02
  -9.751526e+00   1.811446e+02
  -1.630575e+02   1.615416e+02
  -1.934146e+02   2.137375e+00
  -6.050725e+01  -1.437208e+02
   6.223832e+01  -1.209461e+02
   5.905345e+01   9.262896e+00
  -2.511857e+01   4.506842e+01
  -4.175844e+01   4.026133e+01
  -9.411176e+00  -1.513429e+01
   6.536530e+01  -3.841535e+01
   1.315226e+02   9.347915e+01
   2.237979e+01   1.767172e+02
  -1.454369e+02   2.039071e+02
  -3.009529e+02   6.911279e+01
  -2.403211e+02  -1.799703e+02
  -3.036717e+01  -2.504287e+02
   1.156180e+02  -1.702680e+02
   1.019037e+02  -1.168708e+01
   1.160056e+02   3.148275e+01
   1.292853e+01   4.502431e+01
   6.435373e+01  -6.268863e+01
   6.835971e+01  -3.923776e+01
   1.327492e+01   3.461065e+01
  -9.051155e+00   1.212010e+02
  -1.061564e+02   5.009975e+01
  -8.772612e+01  -4.144795e+01
   5.011413e+00  -1.437056e+02
   1.736800e+02  -1.150371e+02
   1.992067e+02   6.813266e+01
   8.891772e+01   2.044025e+02
  -1.339915e+02   2.309024e+02
  -2.752877e+02   7.448514e+01
  -2.796269e+02  -1.338827e+02
  -1.211540e+02  -1.937309e+02
  -7.175970e+00  -1.979425e+02
   1.000343e+02  -1.337492e+02
   6.473295e+01  -5.048411e+01
   8.098231e+01  -7.373434e+01
   7.474203e+01  -4.923578e+01
   1.119714e+02   1.517736e+00
   1.007649e+02   1.366156e+02
   2.656739e+00   2.415865e+02
  -8.930170e+01   1.756131e+02
  -1.861339e+02   1.127897e+01
  -1.331689e+02  -1.133824e+02
   3.193916e+00  -1.762507e+02
   4.394563e+01  -8.927031e+01
   8.475228e+01  -5.235459e+00
   2.246546e+00   5.980314e+00
   1.702518e+01  -2.892782e+01
   4.381388e+01   1.339882e+01
   1.009968e+02   5.578371e+01
   7.249408e+01   2.697274e+01
  -6.776145e+01   7.382174e+01
  -1.882317e+02  -2.651410e+01
  -1.686437e+02  -4.469673e+01
   1.097592e+01  -7.839488e+01
   1.759769e+02  -6.115224e+01
   1.470148e+02   7.029300e+00
   4.315533e+01   8.211852e+01
  -8.014646e+01   4.576007e+01
  -9.392038e+01  -2.965269e-01
  -3.810348e+01  -9.695951e+01
   8.043704e+01  -6.133443e+01
   6.072705e+01   1.845519e+01
   7.064337e+01   9.061435e+01
   5.596147e+01   6.474605e+01
   7.804621e+01   9.106380e+00
   9.726855e+01   2.877840e+00
   1.641616e+01   7.846399e+01
  -3.970913e+01   1.553181e+02
  -1.528026e+02   1.511047e+02
  -1.824677e+02   2.321019e+01
  -1.151153e+02  -1.092767e+02
  -1.195991e+01  -1.302466e+02
   7.149241e+01  -6.956779e+01
   7.288198e+01   3.983747e+01
  -8.526735e+01   1.694523e+01
  -1.092056e+02  -5.979233e+01
  -8.879971e+01  -8.800973e+01
   5.441665e+01  -1.081234e+02
   2.212507e+02  -9.161545e+01
   1.845764e+02   4.196652e+01
   4.374209e+01   1.126481e+02
  -9.442567e+01   7.473527e+01
  -9.445141e+01   1.664306e+01
   3.713410e+01  -2.476577e+01
   9.085349e+01   2.038830e+01
   5.593156e+01   1.062998e+02
  -8.880336e+01   1.616443e+02
  -2.120567e+02   8.046889e+01
  -1.328664e+02  -8.921745e+01
   1.456898e+01  -2.454384e+02
   1.167241e+02  -1.068988e+02
   4.686770e+01   4.957072e+01
   4.739440e+01   1.161914e+02
   5.801940e+00   1.014148e+02
  -4.215846e+01   1.589338e+01
  -1.778984e+01  -6.100628e+01
  -7.861192e+00  -3.891782e+00
   1.808030e+00   6.858222e+01
  -4.426375e+01   1.247068e+01
  -5.507232e+01  -8.438794e+01
  -5.287743e+01  -1.614643e+02
   2.932688e+01  -5.971504e+01
   1.192187e+02   5.469693e+01
   1.233403e+02   1.024669e+02
   4.662786e+01   6.785811e+01
  -1.392191e+02   9.786694e+00
  -7.435354e+01  -2.112434e+00
  -1.313719e+01  -2.310099e+00
   8.427478e+00  -1.338403e+01
   1.317060e+01   4.338346e+01
  -6.391021e+01   7.020903e+00
  -2.738604e+01   1.521666e+01
   4.865646e+01  -6.055626e+00
   9.775668e+01   2.928400e+01
   1.968453e+01   1.337716e+02
  -1.454959e+02   1.127278e+02
  -1.975390e+02   9.153171e+01
  -2.047153e+02  -6.493571e+01
  -3.959994e+01  -1.223133e+02
   7.206402e+01  -1.408533e+02
   1.115440e+02  -1.510952e+01
   7.693832e+01   3.718528e+01
  -2.854017e+01   2.742834e+01
  -4.812407e+01  -1.582021e+01
   1.440565e+01  -2.482514e+01
   2.521024e+01   5.013082e+01
   5.476278e+01   9.106597e+01
  -2.828191e+01   6.821019e+01
  -6.675127e+01  -5.706772e+01
  -4.567948e+01  -1.375539e+02
   1.686041e+01  -1.049903e+02
   1.200594e+02  -5.067880e+01
   9.200752e+01   3.872178e+01
   1.671909e+01   1.080056e+02
  -2.041656e+01   3.716744e+01
  -9.916650e+01  -2.423309e+01
  -2.931435e+01  -9.610755e+01
   6.618327e+01  -5.541862e+01
   4.631597e+01  -8.203736e+00
  -6.643651e+01  -9.460714e-01
  -1.169394e+02  -1.342012e+01
  -5.135414e+01  -6.546146e+01
   1.227202e+02  -2.485823e+01
   1.485231e+02  -7.279169e+01
   6.141673e+01   2.292558e+00
  -2.857469e+01   5.902103e+01
  -8.849201e+01   9.903834e+01
  -4.985513e+01  -2.730429e+01
  -1.051562e+01  -6.495809e+01
   3.979592e+01  -7.317370e+01
   3.583122e+01   2.842115e+01
   5.083637e+01   5.514755e+01
   2.515366e+01  -4.806011e+00
   8.141934e+00  -3.088065e+00
  -1.270089e+01  -4.818756e+01
  -6.542360e+00   2.373332e+00
   6.314966e+01   5.433561e+01
   3.573728e+01   3.262677e+01
   1.342499e+01  -3.314423e+01
   4.531225e+01  -5.219907e+01
   1.177120e+01   2.526110e+01
   2.306015e+01   2.476166e+01
   3.019958e+01   3.262992e+01
  -6.286626e+01   9.607535e+00
  -9.035816e+01  -3.631772e+01
  -7.154892e+01  -4.200127e+01
   5.608475e+01  -3.194505e+01
   5.814953e+01   4.127299e+01
   8.832874e+01   6.903323e+01
  -4.437656e+01   3.810902e+01
  -1.032307e+02   3.514051e+01
  -8.629957e+01  -5.547094e+00
  -8.326219e+00   4.220017e+00
   2.706953e+01   2.923374e+01
  -3.395029e+01   7.287604e+00
  -6.263180e+01   3.698785e+01
