
 $NMID
 id='ANONYMOUS ', fmtdat='(2E16.6)'
 volume=1.0
 tramp=1.0
 $END
   4.511236e+03  -1.164600e+01
   2.761527e+03   2.524256e+03
  -6.222399e+02   2.974671e+03
  -2.052468e+03   1.002015e+03
  -1.078935e+03  -4.935056e+02
   6.205631e+02  -4.588829e+02
   8.993444e+02   4.517004e+02
  -2.644002e+01   1.022512e+03
  -7.690169e+02   8.036931e+02
  -9.299242e+02  -9.923103e+00
  -3.794818e+02  -8.496367e+02
   2.200626e+02  -9.752862e+02
   6.358351e+02  -9.852171e+01
   3.687575e+02   7.246730e+02
  -2.498354e+02   7.627129e+02
  -6.682383e+02   6.902738e+00
  -2.999767e+02  -6.701107e+02
   3.533702e+02  -7.302361e+02
   5.799416e+02  -1.310490e+02
   4.152947e+02   3.421614e+02
   4.356273e+01   4.431312e+02
  -1.853117e+02   2.090319e+02
  -1.395246e+02   4.750261e+01
   1.906988e+02  -6.824702e+01
   3.960914e+02   1.701052e+02
   1.763260e+02   4.579741e+02
  -4.585575e+02   3.436329e+02
  -8.856655e+02  -1.186446e+02
  -4.267988e+02  -6.144718e+02
   4.363293e+02  -4.862584e+02
   8.218669e+02   3.485912e+01
   3.426467e+02   4.797481e+02
  -2.636835e+02   5.772024e+02
  -5.200777e+02   2.210024e+02
  -4.114497e+02  -1.942482e+02
  -7.184356e+01  -3.955616e+02
   1.492743e+02  -3.422744e+02
   1.538622e+02   2.453695e+02
  -1.668005e+02   4.710488e+02
  -4.664471e+02   1.312262e+01
  -2.160144e+02  -7.052385e+02
   3.333033e+02  -7.592346e+02
   6.010766e+02  -5.872710e+00
   2.380207e+02   5.278457e+02
  -2.911911e+02   2.717450e+02
  -3.830599e+02  -4.063327e+02
   1.015640e+02  -5.462949e+02
   5.792729e+02  -9.026903e+01
   6.502755e+02   4.629029e+02
   1.849143e+02   6.262951e+02
  -4.155139e+02   3.301850e+02
  -6.553680e+02  -3.625727e+01
  -3.890607e+02  -3.877740e+02
   1.241502e+02  -4.104344e+02
   4.385379e+02  -8.192795e+01
   2.838347e+02   1.600892e+02
  -9.147693e+01   8.897023e+01
  -1.163331e+02  -1.819506e+02
   2.076378e+02  -1.752640e+02
   4.105156e+02   1.222633e+02
   1.785354e+02   3.536691e+02
  -2.476608e+02   2.443301e+02
  -4.102356e+02   8.285222e+01
  -2.232963e+02  -8.542233e+01
   3.937895e+01  -2.692213e+02
   2.423329e+02  -3.680354e+02
   3.697567e+02  -2.312082e+02
   2.922118e+02   1.337793e+02
   1.024851e+02   4.580709e+02
  -9.584800e+01   4.430267e+02
  -1.231789e+02   1.284913e+02
  -8.004020e+01   1.695787e+01
  -9.191648e+01   1.225149e+02
  -2.171057e+02   1.386929e+02
  -2.526687e+02  -5.885425e+01
  -1.570349e+02  -2.630004e+02
   4.491787e+01  -2.479100e+02
   2.078205e+02   5.477422e+00
   1.624255e+02   2.430432e+02
  -1.893019e+01   3.027174e+02
  -2.875541e+02   9.178430e+01
  -3.873585e+02  -1.924306e+02
  -2.003466e+02  -3.842276e+02
   1.160291e+02  -2.968700e+02
   2.378626e+02  -1.566089e+02
   1.712641e+02  -4.469181e+01
   1.008745e+02  -6.501505e+01
   2.313575e+02  -7.520606e+01
   4.381439e+02   6.318182e+01
   3.552725e+02   3.370379e+02
   1.510659e+01   4.628823e+02
  -3.754810e+02   4.026182e+02
  -5.204727e+02   2.024212e+02
  -3.647243e+02  -4.669328e+01
  -7.943978e+01  -2.627215e+02
   1.117781e+02  -2.598062e+02
   6.723804e+01  -1.999994e+01
  -1.362644e+02   4.506735e+01
  -1.829889e+02  -1.748533e+01
  -4.759045e+01  -2.419738e+02
   1.437971e+02  -2.064521e+02
   1.902724e+02   7.534031e+01
   7.196775e+00   1.762019e+02
  -1.852745e+02   6.305859e+01
  -1.723191e+02  -2.461669e+02
   3.696781e+01  -3.530268e+02
   2.136087e+02  -1.958451e+02
   2.981036e+02   1.002303e+02
   2.744154e+02   2.781910e+02
   4.758382e+01   2.759419e+02
  -1.754460e+02   1.951771e+02
  -1.998592e+02  -4.137097e-01
  -3.726695e+01  -8.754137e+01
   7.301097e+01   3.714683e+01
   5.068923e+01   1.428065e+02
  -1.189650e+02   8.929332e+01
  -1.928289e+02  -6.285721e+00
  -5.680038e+01  -9.988237e+01
   1.223944e+02  -4.154754e+01
   1.021106e+02   8.537537e+01
  -8.986104e+01   7.181922e+01
  -3.126631e+02   1.445862e+01
  -3.122013e+02  -1.408056e+02
  -7.895454e+01  -2.139137e+02
   1.389624e+02  -2.515216e+02
   2.673334e+02  -1.640689e+02
   1.791821e+02   3.534428e+01
  -4.311677e+01   1.005426e+02
  -7.261590e+01   1.321302e+01
   7.450979e+01  -1.102593e+02
   1.818871e+02  -8.311849e+01
   2.314903e+02   5.717229e+01
   6.730025e+01   2.412782e+02
  -1.158862e+02   1.689747e+02
  -1.292144e+02   3.251763e+01
  -6.215821e+01  -3.100773e+01
   1.840672e+01  -3.833208e+00
   5.803839e+01   6.641122e+01
  -1.028500e+02   1.728574e+02
  -2.151876e+02   4.206903e+01
  -1.941713e+02  -1.265251e+02
  -1.943331e+01  -2.595840e+02
   1.787433e+02  -1.823018e+02
   2.177450e+02  -1.215892e+00
   6.320796e+01   9.486825e+01
  -7.017514e+01   1.164048e+02
  -1.207367e+02   3.620251e+01
  -1.648454e+01  -1.033807e+01
   1.471435e+01  -4.403173e+00
  -3.484863e-02  -2.907909e+00
  -7.581384e+01   1.182753e+01
  -9.839158e+01  -1.081551e+02
  -3.192571e+01  -1.661768e+02
   1.043133e+02  -1.748636e+02
   2.505271e+02  -8.574389e+01
   1.975364e+02   1.492646e+02
   7.428937e+01   2.152033e+02
  -1.115793e+02   1.990566e+02
  -1.553275e+02   6.807134e+01
  -7.717858e+01  -1.943382e+01
  -3.363328e+01  -6.148394e+01
  -4.814516e+01  -1.377573e+01
  -8.615177e+01  -3.873666e-01
   9.838429e+00  -7.143583e+01
   6.169772e+01  -7.434601e+01
   1.182022e+02  -3.711273e+01
   4.648017e+01   6.761991e+01
  -7.679491e+00   9.670813e+01
  -1.235532e+02   6.420477e+01
  -2.338052e+02  -1.188366e+02
  -9.837714e+01  -2.309943e+02
   1.098389e+02  -2.191184e+02
   2.629872e+02  -9.831670e+01
   2.875061e+02   4.541905e+01
   1.296100e+02   1.794209e+02
  -8.391411e+01   1.402569e+02
  -8.316771e+01   1.028969e+02
  -1.183053e+02   7.729741e+01
  -9.783940e+01   1.177419e+02
  -6.149418e+01   6.133148e+01
  -1.093587e+02  -1.653923e+01
  -1.039601e+02  -1.749056e+02
  -2.478055e+01  -2.034236e+02
   1.117918e+02  -1.703017e+02
   1.981550e+02  -2.793014e+00
   1.073067e+02   1.149517e+02
   1.321941e+01   1.624916e+02
  -7.077333e+01   1.198220e+02
  -8.861654e+01   1.745342e+01
   5.082086e+01  -3.412156e+01
  -1.612205e+00  -3.829725e+01
  -1.532936e+01  -1.546824e+01
  -1.048867e+02   5.586022e+00
  -5.317660e+01  -4.405426e+01
   7.051904e+01  -2.400265e+01
   1.682223e+02  -2.375157e+01
   1.391843e+02   3.723740e+01
   2.038717e+01   8.308687e+01
  -1.464423e+02   7.490362e+01
  -1.854333e+02   2.309038e+01
  -7.932360e+01  -6.095165e+01
   5.577675e+01  -6.759599e+01
   5.493759e+01   3.396409e+01
   4.528816e+01   4.916516e+01
  -1.493705e+01   8.039679e+01
  -2.472166e+01   2.408303e+01
  -4.992704e+01  -2.727028e+01
  -6.424121e+01  -1.639136e+01
  -3.462572e+01  -3.554887e+00
  -6.027103e+01  -3.091171e+01
  -1.851764e+01  -7.991186e+01
   2.726825e+01  -1.298943e+02
   1.281412e+02  -1.643223e+02
   1.595429e+02  -2.571004e+01
   1.884289e+02   1.042088e+02
   4.069624e+01   1.978268e+02
  -1.365094e+02   9.217123e+01
  -7.835415e+01  -1.640698e+01
   9.678366e+01  -7.203382e+00
   1.579487e+02   3.870280e+01
   7.520509e+01   9.579676e+01
  -7.455256e+01   1.559366e+02
  -1.937046e+02   5.333699e+01
  -1.530699e+02  -2.938875e+01
  -8.436947e+01  -5.688425e+01
   4.539485e+01  -8.932333e+01
   6.245450e+01  -1.986337e+01
   5.487768e+00   2.307520e+01
  -9.166400e+01  -2.147616e+01
  -5.303259e+01  -1.430293e+02
   8.098795e+01  -1.612950e+02
   1.573578e+02  -6.699284e+01
   1.478825e+02   9.951892e+01
   3.112927e+01   1.981308e+02
  -6.475829e+01   1.327745e+02
  -1.320185e+02   2.247785e+01
  -8.658338e+00  -1.511539e+02
   1.811229e+01  -1.145565e+02
   3.846622e+01  -9.586189e+00
   3.372362e+01   6.292720e+01
  -4.221615e+01   7.052923e+00
  -2.756469e+01  -2.056048e+01
   2.444142e+01  -3.333547e+01
   7.103890e+01   3.871348e+01
   8.490321e+01   9.687643e+01
  -5.132499e+01   4.348996e+01
  -1.777955e+02  -1.045466e+01
  -1.267167e+02  -3.183300e+01
  -5.476706e+01  -9.502468e+01
   6.070062e+01  -3.573997e+01
   9.036361e+01  -3.397305e+01
   5.949444e+01   1.227136e+01
  -1.597539e+00   5.541225e+01
  -1.657921e+01   2.464627e+01
   5.301160e+00   1.538812e+01
  -1.321421e+01  -8.309729e+00
  -3.577161e+01  -1.151622e+01
  -7.237761e+01  -2.139860e+01
   1.733647e+01  -8.714631e+01
   1.263713e+02  -1.272289e+02
   2.240249e+02  -2.476575e+01
   1.779843e+02   8.491475e+01
  -8.147482e-01   1.682204e+02
  -1.222051e+02   1.575084e+02
  -1.237355e+02   3.844756e+01
  -4.967556e+01  -1.728055e+01
  -4.253947e+00  -4.929509e+01
   4.991193e+00  -3.477856e+01
   2.444495e+01  -2.218342e+01
  -1.667995e+01  -4.519866e+01
  -1.034640e+01  -1.022712e+02
   3.807555e+01  -5.658729e+01
   7.968337e+01  -1.423583e+01
   1.583605e+02   8.940611e+01
  -2.540640e+00   1.432977e+02
  -8.749539e+01   2.898197e+01
  -1.241541e+02  -9.876183e+01
  -4.785583e+00  -1.186194e+02
   1.042432e+02  -1.065925e+02
   1.101450e+02   2.805711e+01
   1.022077e+02   3.442195e+01
   3.852442e+01   9.815644e+01
   1.285185e+01   5.424833e+01
   5.262090e+01   5.307337e+01
   3.797096e+01  -9.745379e+00
  -1.130009e+01   1.525658e+01
  -6.477347e+01   7.220783e+01
  -1.329476e+02   7.113004e+01
  -7.177899e+01  -4.233812e+01
   3.594541e+00  -6.394830e+01
   1.047492e+02  -9.501449e+01
   7.243855e+01  -1.582006e+00
   1.626056e+01   1.655412e+01
  -4.495759e+01   4.391301e+01
  -7.561878e+01  -1.157461e+01
  -6.143125e+01   9.963173e+00
   1.505030e+01  -6.219040e+01
   3.826641e+01  -2.250263e+01
   3.931113e+01   2.780261e+01
   7.447920e+00   1.959286e+01
   2.383871e+01  -2.527893e+01
  -1.216939e+01  -5.805410e+00
  -3.555170e-01   6.166517e+01
  -4.123511e+01   2.821644e+01
   7.794690e-01   9.290969e+00
  -1.780440e+01  -2.634922e+01
   3.269036e+00  -8.070336e+01
   8.702644e+01  -3.575855e+01
   6.345853e+01   3.526167e+01
  -9.103064e+00   5.163351e+01
  -5.685782e+01   3.887194e+01
  -8.408586e+01  -2.507874e+00
  -4.260099e+01  -2.419066e+01
   2.867264e+01  -6.403322e+01
   5.002353e+01  -4.277992e+01
  -7.636192e-01   2.510859e+01
  -5.536198e+01  -2.960597e+00
  -1.004938e+02  -1.957953e+01
   8.223329e+00  -1.261433e+01
   3.932058e+01  -6.444884e+01
