
 $NMID
 id='ANONYMOUS ', fmtdat='(2E16.6)'
 volume=1.0
 tramp=1.0
 $END
   4.184953e+03  -5.014337e+01
   2.543060e+03   2.380583e+03
  -6.072396e+02   2.731039e+03
  -2.027176e+03   9.974604e+02
  -8.005082e+02  -5.069743e+02
   5.617014e+02  -4.307294e+02
   7.749852e+02   3.408620e+02
   8.755588e+01   9.272889e+02
  -7.353536e+02   7.763552e+02
  -9.034036e+02  -3.042104e+01
  -4.816969e+02  -8.942934e+02
   1.807389e+02  -8.692802e+02
   5.954698e+02  -2.249352e+01
   3.963359e+02   5.559825e+02
  -3.073918e+02   7.228304e+02
  -6.123222e+02   3.999150e-01
  -3.070813e+02  -6.533809e+02
   3.843234e+02  -6.116405e+02
   5.762435e+02  -3.772772e+01
   3.743928e+02   3.537522e+02
   1.865187e+01   4.135518e+02
  -2.173011e+02   2.925806e+02
  -1.926773e+02  -1.082624e+01
   1.180948e+02  -1.253259e+01
   3.958177e+02   1.645678e+02
   2.079161e+02   4.174923e+02
  -4.675674e+02   3.746605e+02
  -7.720357e+02  -1.191404e+02
  -3.775306e+02  -5.399126e+02
   4.050463e+02  -4.739645e+02
   6.810718e+02   3.532671e+01
   2.742121e+02   4.684643e+02
  -2.576209e+02   4.461140e+02
  -5.532728e+02   2.476422e+02
  -3.582359e+02  -1.894996e+02
  -9.553911e+01  -4.327672e+02
   1.735389e+02  -2.652193e+02
   8.717767e+01   1.832972e+02
  -1.674427e+02   3.816587e+02
  -4.115278e+02  -4.149838e+01
  -2.032254e+02  -6.903111e+02
   3.540646e+02  -6.156225e+02
   5.469971e+02  -1.516513e+00
   2.170918e+02   5.526217e+02
  -2.438411e+02   3.148335e+02
  -3.760501e+02  -3.293832e+02
   1.163016e+02  -5.351461e+02
   5.103043e+02  -1.440151e+02
   5.638738e+02   3.957504e+02
   1.380186e+02   5.558919e+02
  -3.081684e+02   3.772878e+02
  -5.623443e+02  -1.003885e+02
  -3.095559e+02  -3.763496e+02
   1.166780e+02  -3.311321e+02
   4.183483e+02  -5.939305e+01
   2.446253e+02   1.850219e+02
  -1.264326e+02   9.627894e+01
  -1.647199e+02  -1.392031e+02
   1.119541e+02  -2.227672e+02
   3.363805e+02   8.575436e+01
   1.616629e+02   2.740452e+02
  -1.929340e+02   2.284736e+02
  -3.510133e+02   1.024278e+02
  -2.401529e+02  -1.248282e+02
   3.365544e+01  -2.190226e+02
   2.154090e+02  -3.343976e+02
   2.966118e+02  -2.230155e+02
   2.836634e+02   1.558133e+02
   6.201286e+01   4.217402e+02
  -8.166293e+01   3.645212e+02
  -1.282159e+02   1.095643e+02
  -3.629416e+01   3.155752e+01
  -8.040311e+01   7.100486e+01
  -2.275634e+02   1.335662e+02
  -2.176138e+02  -9.224473e+01
  -1.026356e+02  -1.965630e+02
   6.908275e+01  -2.725917e+02
   2.077426e+02  -1.148593e+01
   1.492356e+02   2.369008e+02
  -6.781037e+00   2.844496e+02
  -2.188407e+02   1.462299e+02
  -3.469668e+02  -1.862495e+02
  -2.122823e+02  -3.356223e+02
   6.135456e+01  -3.109902e+02
   2.072734e+02  -1.526971e+02
   1.545184e+02   3.138820e+01
   6.332171e+01  -4.980516e+01
   1.922586e+02  -7.161155e+01
   3.630818e+02   5.739508e+01
   3.332642e+02   3.115522e+02
  -9.276976e+00   4.530726e+02
  -3.561049e+02   3.573934e+02
  -4.778993e+02   2.205634e+02
  -3.556066e+02  -1.221108e+02
  -5.467063e+01  -2.759098e+02
   1.327729e+02  -2.221349e+02
   8.337731e+01  -6.034865e+01
  -9.445537e+01   5.564675e+01
  -2.141561e+02   7.852728e+00
  -2.111127e+01  -2.064194e+02
   1.520725e+02  -1.687724e+02
   1.850820e+02   7.795730e+01
   1.418278e+01   1.966312e+02
  -1.719714e+02   6.112193e+01
  -1.531159e+02  -1.931971e+02
   4.627915e+01  -3.099948e+02
   1.994965e+02  -1.776682e+02
   2.712001e+02   9.198166e+01
   2.412369e+02   2.337909e+02
   5.200727e+01   2.593237e+02
  -1.410063e+02   1.636961e+02
  -1.935906e+02   2.827467e+00
  -2.957826e+01  -2.381870e+01
   6.290593e+01   7.236730e+01
   3.392889e+01   1.562102e+02
  -1.061591e+02   1.209506e+02
  -1.913432e+02  -2.983817e+01
  -4.385993e+01  -6.347799e+01
   5.462145e+01  -2.633923e+00
   2.523931e+01   8.237127e+01
  -1.332329e+02   6.476040e+01
  -2.585568e+02   1.226262e+01
  -2.590830e+02  -1.479533e+02
  -5.089783e+01  -2.607067e+02
   2.152002e+02  -2.238823e+02
   2.421755e+02  -1.229979e+02
   1.490441e+02   6.107275e+01
  -2.703761e+01   1.081083e+02
  -1.016055e+02  -1.708669e+01
   1.115318e+01  -8.511123e+01
   1.402721e+02  -9.122780e+00
   2.167009e+02   9.935350e+01
   4.794219e+01   2.023330e+02
  -6.450351e+01   1.562096e+02
  -1.413597e+02   4.442723e+01
  -1.321334e+02  -2.525553e+01
   1.173065e+01  -2.284471e+01
   3.638151e+01   1.017446e+02
  -2.069555e+01   8.768998e+01
  -2.144498e+02   8.610439e+00
  -1.681015e+02  -1.699592e+02
  -2.723316e+01  -2.340146e+02
   1.380695e+02  -1.674498e+02
   1.916322e+02  -3.907687e+01
   5.824679e+01   1.219756e+02
  -3.719249e+01   8.186528e+01
  -1.107075e+02   3.015895e+01
  -4.082050e+01  -6.297547e+01
  -9.910667e+00  -4.941249e+01
  -2.389653e+00   1.522283e+01
  -4.287795e+01  -4.921940e+01
  -6.699078e+01  -4.741084e+01
   9.557137e+00  -1.395975e+02
   1.630471e+02  -1.441609e+02
   2.147774e+02  -2.641015e+01
   1.709849e+02   1.527277e+02
   3.389954e+01   1.933929e+02
  -6.603952e+01   1.736459e+02
  -1.450401e+02   6.552898e+01
  -8.866872e+01  -7.740116e+00
  -2.556016e+01  -4.993781e+01
  -9.691663e+01   5.194560e-01
  -7.489281e+01  -3.544463e+01
  -4.693569e+01  -5.478990e+01
   1.994631e+01  -8.919881e+01
   6.395993e+01  -7.727220e+01
   1.145350e+02  -2.955026e+00
  -3.122222e+01   6.496333e+01
  -9.201895e+01   4.402646e+01
  -1.656941e+02  -5.614634e+01
  -2.877662e+01  -1.370543e+02
   9.403695e+01  -1.550900e+02
   2.812390e+02  -4.762178e+01
   2.041782e+02   1.020082e+02
   1.279959e+02   1.583994e+02
  -5.769911e+00   1.217583e+02
  -6.770260e+01   4.900476e+01
  -7.056548e+01   5.467486e+01
  -5.358111e+01   1.042869e+02
  -6.120690e+01   8.845640e+01
  -1.325442e+02  -3.151333e+01
  -1.191264e+02  -1.513757e+02
  -1.236622e+01  -2.365677e+02
   9.998581e+01  -1.868379e+02
   1.582460e+02  -3.327773e+01
   1.340372e+02   1.096834e+02
   3.754369e-01   1.824386e+02
  -4.018632e+01   7.167302e+01
  -2.101964e+00  -3.192775e+01
  -2.106519e+01  -5.025344e+01
   5.322786e+00  -5.599772e+01
  -5.518689e+01   3.214228e+00
  -7.692851e+01   1.509638e+01
  -5.492625e+01  -6.607291e+00
   7.608634e+01  -1.839765e+01
   1.879119e+02  -4.085208e-01
   1.228141e+02   2.268036e+01
   3.187044e+01   3.211806e+01
  -1.021854e+02   7.339694e+01
  -1.540622e+02   3.079073e+01
  -1.374331e+01  -4.250492e+01
   7.019513e+01  -2.517270e+01
   3.195159e+01   5.672744e+01
  -1.942217e+01   9.121299e+01
  -7.858009e+01   5.184838e+01
  -3.242051e+01  -1.835695e+01
  -7.515639e+01  -6.745117e+01
  -1.050683e+02  -5.948709e+01
  -5.917114e+01  -1.832840e+01
  -5.740663e+01  -3.266562e+01
  -4.387751e+00  -4.844347e+01
   6.214187e+01  -1.551525e+02
   1.314750e+02  -1.164227e+02
   1.463088e+02   2.739102e+00
   1.070942e+02   1.098907e+02
  -1.324088e+01   1.264581e+02
  -7.357459e+01   2.394725e+01
  -1.426200e+01   1.836694e+01
   9.774766e+01  -2.925725e+01
   1.394925e+02   3.620828e+01
   2.664433e+01   1.174086e+02
  -4.297324e+01   1.332404e+02
  -2.126756e+02   9.806166e+01
  -1.626972e+02  -3.218451e+01
  -4.803956e+01  -1.019637e+02
   6.308669e+01  -6.386659e+01
   2.905985e+01   6.041804e+00
  -3.885755e+01   2.055616e+01
  -1.031600e+02  -3.219074e+01
  -2.190415e+01  -8.628598e+01
   6.141169e+01  -1.351464e+02
   1.324176e+02  -1.186135e+02
   1.394421e+02   9.914711e+01
   3.622647e+01   1.884923e+02
  -6.609722e+01   9.931884e+01
  -1.023785e+02  -4.351349e+00
  -6.346045e+01  -1.327693e+02
   1.275323e+00  -7.540106e+01
   4.049910e+01   7.295523e+00
   7.159675e+01   3.762611e+01
   4.387312e+01  -1.340841e+01
   1.171619e+01  -5.650767e+01
  -1.552813e+01  -7.541798e-01
   5.877505e+01   1.130561e+02
   6.862067e+01   1.078639e+02
  -6.742128e+01   7.233552e+01
  -1.520800e+02   3.488648e+01
  -1.694803e+02  -1.725023e+01
  -2.527320e+01  -7.012212e+01
   8.988104e+01  -4.335260e+01
   8.561137e+01  -4.692360e+01
   4.391156e+00   4.354330e+01
   9.044885e-01   1.618734e+01
  -1.852976e+01   1.653997e+01
   4.415363e+01  -2.253147e+01
   1.920570e+01   3.506583e+00
  -8.235382e+01  -1.577289e+01
  -9.048741e+01   9.590471e+00
  -2.837311e+00  -8.723740e+01
   1.566115e+02  -9.313634e+01
   1.867714e+02  -5.420540e+01
   8.160952e+01   9.038450e+01
   2.388429e+00   1.494353e+02
  -6.633428e+01   1.330178e+02
  -1.090564e+02   7.600930e+01
  -6.043226e+01  -4.782853e+01
   2.659286e+00  -2.042916e+01
   2.977350e+01   1.557147e+01
  -2.312139e+01   3.331515e+01
  -2.475347e+01  -4.752552e+01
  -5.099782e+01  -1.349206e+02
   1.202030e+00  -1.041374e+02
   6.168481e+01   6.222708e+01
   1.820594e+01   1.115427e+02
   3.220678e+01   1.558740e+02
  -8.001677e+01   1.993325e+01
  -9.173875e+01  -3.152534e+01
   1.284155e+00  -1.259664e+02
   3.292708e+01  -6.674031e+01
   1.080126e+02   5.094575e+01
   2.583907e+00   6.666640e+01
  -6.204935e+01   6.008518e+01
  -3.667777e+01  -2.007123e+00
   2.421781e+01   1.143296e+01
   3.787503e+01  -2.018589e+01
   6.501284e+01  -9.493429e+00
  -1.951493e+01   3.774734e+01
  -9.618538e+01   8.222401e+01
  -8.188416e+01   1.999952e+00
  -3.739374e+01  -7.732657e+01
   2.126611e+01  -1.085700e+02
   1.235683e+01  -2.427079e+01
   7.169034e-01   5.444130e+01
  -3.890636e+01  -1.601518e+01
   3.142382e+00  -2.323726e+01
  -3.477309e+01  -5.310170e+01
  -7.499566e+00  -4.355406e+01
   3.140328e+01  -3.558821e+01
   8.649676e+01   1.101437e+01
  -4.721733e+00  -3.774617e+01
  -3.458876e-01  -5.239915e+01
   2.344273e+00   2.256818e+01
   9.140304e+00   5.127111e+01
  -1.975880e+01   1.338047e+01
  -2.034592e+01   2.378797e+01
  -3.212614e+01  -2.935959e+01
   3.871628e+01  -4.878652e+01
   5.878299e+01  -1.592969e+01
   7.378796e+01   3.834367e+01
   2.833328e+01   3.106419e+01
  -3.807296e+01   3.519215e+01
  -6.084516e+01  -2.308213e+00
  -4.530703e+01  -4.129796e+01
  -3.877331e+00  -2.690195e+01
   4.398187e+01   2.038928e+00
   2.928102e+00   2.497629e+00
  -1.733274e+01  -3.692105e+01
  -3.500798e+01   1.025163e+01
   4.567225e+01  -2.956949e+01
   8.441891e+01  -8.894389e+00
