
 $NMID
 id='ANONYMOUS ', fmtdat='(2E16.6)'
 volume=1.0
 tramp=1.0
 $END
  -3.813420e+03   1.641000e+01
  -2.349534e+03  -2.032708e+03
   3.844823e+02  -2.379285e+03
   1.526279e+03  -1.084244e+03
   9.358449e+02   1.915919e+02
  -3.000234e+02   3.236766e+02
  -5.217111e+02  -2.839082e+02
   4.623858e+00  -6.888205e+02
   6.584582e+02  -5.255220e+02
   7.462259e+02   5.677248e+01
   3.887590e+02   6.513308e+02
  -1.697753e+02   8.074407e+02
  -4.816726e+02   1.801734e+02
  -3.086056e+02  -5.353133e+02
   2.094529e+02  -6.377941e+02
   5.082591e+02  -1.901251e+01
   3.715863e+02   6.349610e+02
  -2.751164e+02   7.010795e+02
  -5.159946e+02   1.814764e+02
  -3.738035e+02  -3.154067e+02
  -5.772549e+01  -3.984975e+02
   2.252690e+02  -2.660341e+02
   1.481730e+02  -5.071745e+01
  -1.885709e+02  -1.931417e+01
  -2.548259e+02  -2.087974e+02
  -7.858645e+01  -3.930743e+02
   4.371567e+02  -2.362417e+02
   7.257731e+02   1.699941e+02
   3.041353e+02   4.342331e+02
  -2.865066e+02   3.267159e+02
  -6.519278e+02  -6.895016e+01
  -2.881141e+02  -4.326797e+02
   3.005390e+02  -4.552289e+02
   5.033525e+02  -2.134132e+02
   4.217067e+02   2.026062e+02
   5.721647e+01   3.716742e+02
  -1.322104e+02   2.219819e+02
  -1.059657e+02  -1.677962e+02
   1.582565e+02  -2.121839e+02
   3.121414e+02   1.335519e+02
   5.589574e+01   6.100345e+02
  -2.910226e+02   5.200362e+02
  -4.547075e+02  -3.101350e+01
  -2.276927e+02  -4.256162e+02
   1.870714e+02  -2.122078e+02
   2.688622e+02   3.063117e+02
  -1.112668e+02   4.884382e+02
  -4.817296e+02   9.698891e+01
  -5.171523e+02  -4.274416e+02
  -1.581384e+02  -5.465426e+02
   3.332687e+02  -3.126656e+02
   5.947321e+02   4.098530e+00
   3.822729e+02   3.423917e+02
  -7.397613e+01   3.421345e+02
  -3.615181e+02   1.430804e+02
  -2.386800e+02  -7.756158e+01
   1.884339e+01  -8.145280e+00
   5.371841e+01   8.647086e+01
  -1.546986e+02   1.391386e+02
  -2.975383e+02  -7.759532e+01
  -1.205313e+02  -3.406638e+02
   2.067285e+02  -2.303754e+02
   3.665671e+02  -7.874830e+01
   2.176403e+02   1.829455e+02
  -8.683210e+01   2.871055e+02
  -3.286523e+02   3.498676e+02
  -4.499858e+02   1.848554e+02
  -2.830052e+02  -1.228928e+02
  -7.552986e+01  -4.636812e+02
   6.834118e+01  -3.833641e+02
   4.413027e+01  -1.461807e+02
   1.607484e+01  -8.247728e+01
   1.368655e+02  -9.059565e+01
   2.526472e+02  -8.559536e+01
   3.007080e+02   7.846399e+01
   1.085422e+02   2.972645e+02
  -1.159294e+02   2.116650e+02
  -2.645713e+02  -2.360481e+01
  -1.560488e+02  -2.784996e+02
   5.514843e+01  -1.909090e+02
   2.453403e+02  -8.830166e+01
   3.281873e+02   1.689070e+02
   1.671709e+02   2.778734e+02
  -1.059836e+02   2.609152e+02
  -2.227272e+02   1.341940e+02
  -1.617646e+02   9.338410e+00
  -1.414251e+02   2.623325e+01
  -2.681389e+02   1.080720e+01
  -3.481767e+02  -6.269446e+01
  -2.857612e+02  -3.034415e+02
   4.236056e+01  -3.659807e+02
   3.959051e+02  -4.003215e+02
   5.012526e+02  -1.701410e+02
   3.108031e+02   1.219969e+02
   3.702137e+01   2.765669e+02
  -1.350661e+02   2.307155e+02
  -8.165337e+01   5.178210e+01
   8.745805e+01  -7.551301e+01
   1.390352e+02  -1.985075e+01
   3.163975e+01   1.688716e+02
  -1.642160e+02   1.441512e+02
  -1.627755e+02  -5.065934e+01
   5.772313e+00  -2.022950e+02
   1.995981e+02   9.077898e-01
   2.090711e+02   2.612568e+02
  -2.204800e+01   3.843157e+02
  -2.508827e+02   2.239058e+02
  -3.290247e+02  -9.159905e+01
  -3.166956e+02  -2.740005e+02
  -7.944654e+01  -2.820978e+02
   1.122704e+02  -1.510203e+02
   1.090311e+02   1.099552e+01
   2.774724e+01   5.477000e+01
  -5.732254e+01  -4.393937e+01
   4.303619e+00  -1.249493e+02
   1.176183e+02  -7.620289e+01
   1.792514e+02   2.524591e+01
   6.286839e+01   4.317111e+01
  -1.148490e+02  -7.024170e+00
  -7.358899e+01  -9.318624e+00
   1.374767e+02  -7.664607e+01
   2.889094e+02   4.496192e+01
   2.371570e+02   1.698094e+02
   5.432994e+01   2.728476e+02
  -2.295234e+02   2.361322e+02
  -2.577080e+02   1.439756e+02
  -1.592111e+02  -4.885620e+01
   1.163655e+01  -9.106701e+01
   1.256002e+02  -7.097044e+00
  -2.201142e+01   8.013314e+01
  -2.035029e+02   4.112697e+01
  -2.152192e+02  -8.758804e+01
  -6.838987e+01  -1.736344e+02
   8.624992e+01  -1.430733e+02
   8.932819e+01  -4.969903e+01
   8.135480e+01   3.830428e+01
  -3.140664e+01   3.131463e+01
  -1.706095e+01  -1.135947e+02
   1.212981e+02  -6.840806e+01
   2.637449e+02  -4.056590e+01
   1.886411e+02   1.376593e+02
   7.510755e+00   1.907488e+02
  -8.826729e+01   1.975813e+02
  -2.045878e+02   6.676782e+00
  -9.617868e+01  -1.467589e+02
   7.903522e+01  -1.136096e+02
   1.257315e+02   1.747269e-01
   1.473774e+01   2.346825e+01
   1.059519e+01   6.772885e+00
   9.832754e+00  -3.157863e+01
   8.375047e+01  -1.255903e+01
   1.357986e+02   1.005248e+02
   9.210481e+00   1.699297e+02
  -1.406474e+02   1.652754e+02
  -2.291059e+02   2.384960e+01
  -1.692387e+02  -1.584607e+02
  -1.512090e+01  -2.708197e+02
   8.521136e+01  -1.990982e+02
   1.449313e+02  -3.769315e+01
   1.310193e+02   1.020631e+02
   4.146016e+01   7.930035e+01
   6.779306e+01   1.963912e+01
   6.441156e+01   2.088354e+01
   7.720138e+01   5.071995e+01
  -5.642736e+01   1.124072e+02
  -1.083546e+02   8.568975e+01
  -7.398912e+01  -4.859508e+01
  -1.975227e+01  -1.128828e+02
   1.204710e+02  -1.060694e+02
   1.615568e+02   3.681515e+01
   8.305381e+01   1.892551e+02
  -1.284680e+02   2.655651e+02
  -2.448673e+02   9.929027e+01
  -2.484367e+02  -1.094738e+02
  -7.431600e+01  -1.808547e+02
   4.854031e+01  -1.360819e+02
   1.115765e+02  -6.048116e+01
   1.042616e+02  -4.543935e+01
   1.004500e+02  -7.545218e+01
   9.639791e+01  -8.855691e+01
   1.388677e+02   3.786937e+01
   1.602973e+02   1.939399e+02
   3.464629e+01   2.163694e+02
  -1.363908e+02   1.609490e+02
  -2.343711e+02   3.303336e+01
  -1.524746e+02  -1.396133e+02
   1.371501e+01  -1.865790e+02
   6.230094e+01  -1.040294e+02
   6.218674e+01  -9.468702e+00
  -1.162050e+01   5.167123e+01
  -2.863931e+01   5.051523e+01
   4.505561e+01   3.081286e+01
   1.113593e+02   3.963953e+01
   9.825456e+01   1.609564e+01
  -8.556640e+01   5.295670e+01
  -2.056931e+02  -5.589504e+00
  -1.321909e+02  -7.359143e+01
   3.288671e+01  -9.505308e+01
   1.206482e+02  -9.037682e+01
   1.635860e+02  -2.678954e+01
   8.679863e+01   4.841784e+01
  -4.546755e+01   4.838188e+01
  -1.125488e+02  -1.879037e+01
  -1.672828e+01  -3.356371e+01
   6.366989e+01  -7.686862e+01
   4.958362e+01  -1.733113e+01
   3.824927e+01   6.734430e+01
   4.181917e+01   3.104905e+01
   4.615923e+01   1.932924e+01
   6.205986e+01  -1.842599e+01
   6.557410e+01   9.304055e+01
  -3.991781e+01   1.454174e+02
  -8.161401e+01   1.618881e+02
  -1.584121e+02   5.303748e+01
  -1.106503e+02  -6.339573e+01
   1.291817e+01  -1.104412e+02
   6.579650e+01  -6.094646e+01
   4.403529e+01   6.289993e+01
  -8.997283e+01   5.225419e+00
  -1.462754e+02  -4.664139e+01
  -8.577420e+01  -7.443234e+01
   3.912725e+01  -1.183097e+02
   1.725729e+02  -5.489852e+01
   1.300304e+02   2.409286e+01
   9.652037e+00   1.249533e+02
  -8.039192e+01   8.053155e+01
  -4.665759e+01  -9.857702e+00
   4.897994e+01  -5.039806e+00
   9.180708e+01   2.397089e+00
   3.335301e+01   1.304809e+02
  -9.901292e+01   1.618142e+02
  -1.795587e+02   4.928121e+01
  -1.640262e+02  -1.006390e+02
  -1.265844e+01  -1.739232e+02
   7.756901e+01  -1.521308e+02
   1.057936e+02  -1.429174e+00
   5.992185e+01   1.356980e+02
  -2.863510e+00   7.271340e+01
  -4.931687e+01   1.257672e+01
  -5.313460e+01  -2.687832e+01
   1.537320e+01   5.934765e+00
   3.683261e+00   5.675658e+01
  -1.614618e+01  -3.866281e-01
  -6.120041e+01  -1.189188e+02
  -2.969326e+01  -1.489919e+02
   3.641057e+01  -2.744897e+01
   1.101682e+02   5.001625e+01
   1.713276e+02   8.736863e+01
  -3.995267e+00   7.822544e+01
  -7.972964e+01   1.121555e+02
  -1.316586e+02   2.823530e+00
  -1.804641e+01  -3.852890e+01
   7.351173e+01  -1.164159e+01
  -8.948233e+00  -1.155228e+01
  -4.128220e+01  -1.726093e+00
   1.951338e+01  -7.394645e+00
   1.022871e+02  -6.805772e-01
   1.234954e+02   4.888525e+00
   2.934640e+01   7.339977e+01
  -1.331335e+02   1.170341e+02
  -1.924535e+02   9.202958e+01
  -1.628365e+02  -4.276974e+01
  -4.189537e+01  -1.725710e+02
   9.440387e+01  -1.485511e+02
   1.046202e+02  -7.178738e+01
   7.992801e+01  -1.434245e+00
   2.159811e+01   4.001210e+01
  -2.726631e+01   1.846813e+01
   3.606876e+01  -9.540526e+00
  -1.988035e+01   4.944143e+01
   3.786018e+01   1.031417e+02
  -3.957900e+01   5.582131e+01
  -6.424924e+01  -5.178056e+01
  -5.788360e+01  -9.924343e+01
  -3.014091e-02  -1.282845e+02
   5.195455e+01  -4.916942e+01
   9.203367e+01   5.183815e+01
   8.807435e+01   1.149013e+02
  -7.297522e+01   7.405809e+01
  -1.390235e+02   6.171083e+00
  -2.141439e+01  -1.191985e+02
   4.214822e+01  -4.623237e+01
   3.043194e+01  -1.913512e+01
  -5.435955e+01   5.036274e+00
  -8.251212e+01  -1.347310e+01
   1.724933e+01  -4.016430e+01
   8.155833e+01  -4.420660e+01
   1.104983e+02  -8.216097e+01
   1.399013e+01   1.562991e+01
  -3.213041e+01   9.707386e+01
  -8.307183e+01   9.180878e+01
  -1.781075e+01   1.970414e+01
  -1.386971e+01  -1.003578e+02
   2.522327e+01  -6.248529e+01
   7.338474e+01   3.245323e+00
  -4.096020e+00   3.818005e+01
   2.860886e+01   2.874412e+01
  -5.524196e+01  -4.645262e+00
  -3.310769e+01  -3.877982e+01
   2.382268e+01  -1.750282e+00
   1.007006e+01   2.397535e+01
   4.859422e+01   2.046682e+01
   1.740981e+01  -4.120998e+01
   5.829912e+00  -1.439122e+01
   4.224467e+01  -4.423268e-01
   4.577591e+01   4.486738e+01
   3.842756e+00   9.587137e+01
  -6.852551e+01   2.739631e+00
  -6.313366e+01  -4.840548e+01
  -4.392463e+01  -7.802768e+01
   4.609490e+01  -2.418455e+01
   8.174565e+01   1.687182e+01
   1.833080e+01   6.326994e+00
  -1.610077e+01   5.393648e+01
  -4.193288e+01   2.933071e+01
  -3.451718e+01   4.521119e+00
   6.438808e+01  -1.536249e+01
   3.901381e+01  -1.459365e+01
  -5.283311e+01   3.591729e+01
  -1.096926e+02   4.696695e+01
