
 $NMID
 id='ANONYMOUS ', fmtdat='(2E16.6)'
 volume=1.0
 tramp=1.0
 $END
  -2.910185e+03  -8.784993e+01
  -1.886641e+03  -1.589640e+03
   1.664611e+01  -1.765498e+03
   1.044113e+03  -1.123209e+03
   7.836532e+02  -1.851288e+02
   8.297564e+01   1.462456e+02
  -3.126690e+02  -4.712556e+01
  -5.706605e+01  -4.704761e+02
   3.705767e+02  -4.253693e+02
   5.187318e+02  -9.060014e+01
   3.892501e+02   5.248311e+02
   1.711054e+01   5.471093e+02
  -2.412132e+02   1.927699e+02
  -1.932447e+02  -3.433775e+02
   1.115892e+02  -4.913585e+02
   3.335418e+02  -2.183015e+01
   2.737679e+02   4.534674e+02
  -1.130618e+02   6.050086e+02
  -3.478638e+02   2.048309e+02
  -4.310432e+02  -1.652306e+02
  -1.800251e+02  -2.877041e+02
   8.112049e+01  -1.708730e+02
   1.038382e+02  -1.385909e+02
  -2.113070e+02  -1.093299e+02
  -1.832969e+02  -2.509840e+02
   6.271727e+01  -2.186632e+02
   3.133854e+02  -1.827403e+02
   5.505416e+02   2.041270e+02
   1.928021e+02   3.102597e+02
  -2.491424e+02   1.772349e+02
  -4.288095e+02  -1.516738e+02
  -1.524519e+02  -2.942139e+02
   2.273858e+02  -3.638050e+02
   3.707485e+02  -1.303193e+02
   3.213076e+02   1.539562e+02
   8.835135e+01   3.038572e+02
   1.016567e+01   1.416399e+02
   3.351063e+00  -8.431138e+01
   1.782001e+02  -1.724667e+02
   1.554347e+02   1.210267e+02
  -9.026177e+00   3.867468e+02
  -1.814674e+02   3.835758e+02
  -2.889457e+02  -1.740266e+01
  -1.093203e+02  -2.467039e+02
   1.288788e+02  -8.069201e+01
   1.278525e+02   2.589645e+02
  -1.389209e+02   2.524584e+02
  -3.462848e+02  -2.274282e+00
  -4.045558e+02  -3.158033e+02
  -1.493989e+02  -4.002607e+02
   2.379013e+02  -2.265660e+02
   4.488216e+02   4.834394e+01
   3.039380e+02   2.281444e+02
   1.607944e+00   2.018585e+02
  -2.438023e+02   1.151529e+02
  -2.669435e+02  -1.312719e+01
  -2.466514e+01  -1.621710e+01
   6.936151e+01   3.709599e+01
  -6.977818e+01   7.468191e+01
  -1.999831e+02  -3.558171e+01
  -6.588054e+01  -1.156669e+02
   1.324767e+02  -1.755832e+02
   2.560932e+02  -7.016853e+01
   1.746704e+02   8.833063e+01
  -2.114551e+00   2.804306e+02
  -2.219224e+02   2.954274e+02
  -2.875886e+02   1.428858e+02
  -2.251061e+02  -1.344593e+02
  -5.624759e+01  -3.064876e+02
   3.593504e+01  -2.931259e+02
   8.897885e+01  -1.586867e+02
   1.711987e+01  -6.423997e+01
   9.959044e+01  -1.059856e+02
   2.320981e+02  -8.100754e+01
   2.240763e+02   9.031983e+01
   9.017599e+01   2.292351e+02
  -8.345194e+01   1.540108e+02
  -1.449957e+02  -4.751599e+01
  -1.348312e+02  -2.135351e+02
   2.645481e+01  -2.633181e+02
   1.780454e+02  -2.417397e+01
   2.648727e+02   1.766881e+02
   1.695593e+02   2.770168e+02
  -5.701235e+01   2.067526e+02
  -1.486814e+02   1.499709e+02
  -1.704137e+02   8.225863e+01
  -1.640624e+02   4.360858e+01
  -2.787280e+02   1.968756e+01
  -3.713541e+02  -7.905319e+01
  -2.531701e+02  -3.021073e+02
   6.675043e+01  -3.909390e+02
   3.501036e+02  -3.124293e+02
   4.257631e+02  -1.323507e+02
   2.467654e+02   7.675516e+01
   1.859519e+01   2.133465e+02
  -7.214360e+01   1.898685e+02
  -3.083881e+01   6.401677e+01
   7.788338e+01  -5.707294e+00
   1.122642e+02   2.999361e+01
   2.109813e+01   1.039406e+02
  -5.796791e+01   7.493183e+01
  -9.857506e+01  -4.393746e+01
   1.488670e+01  -1.543905e+02
   1.342083e+02   1.216791e+01
   1.339824e+02   3.040425e+02
  -3.748742e+01   3.719647e+02
  -2.189341e+02   1.788736e+02
  -3.209003e+02  -9.005882e+01
  -2.433892e+02  -2.661176e+02
  -8.100449e+01  -2.548749e+02
   6.492909e+01  -1.365250e+02
   1.154693e+02  -4.602549e+01
   4.481091e+01   4.642183e+00
  -5.036370e+01  -9.252599e+01
   1.503567e+01  -1.175266e+02
   1.353118e+02  -4.676517e+01
   1.290476e+02   2.373086e+01
  -1.815632e+01   7.012348e+01
  -5.360584e+01  -5.899640e+00
  -1.636271e+01  -8.846072e+01
   1.421660e+02  -7.562177e+01
   2.386040e+02   8.004588e+01
   2.216259e+02   1.667000e+02
   9.368093e+00   2.304610e+02
  -1.623343e+02   1.874895e+02
  -2.250755e+02   9.558483e+01
  -1.010385e+02  -5.931480e+01
   1.572602e+01  -3.781169e+01
   3.190826e+01   5.339042e+01
  -4.117579e+01   1.206755e+02
  -1.604462e+02   2.849917e+00
  -1.051303e+02  -1.202609e+02
  -3.952228e+01  -1.941742e+02
   8.964427e+01  -1.499987e+02
   1.423729e+02  -1.836007e+01
   6.261226e+01   9.561851e+00
  -1.175679e+01  -1.552804e+01
  -4.928931e+00  -9.890615e+01
   5.711193e+01  -1.114773e+02
   1.586462e+02  -6.711593e+01
   1.403289e+02   1.202896e+02
  -1.949585e+01   1.320008e+02
  -1.824311e+02   1.075682e+02
  -1.807997e+02  -1.495155e+01
  -2.625292e+01  -1.231554e+02
   7.137650e+01  -1.136137e+02
   7.681618e+01  -3.661922e+01
  -2.338575e+01   3.088946e+01
  -1.371293e+01   6.062216e+00
  -2.734259e+01  -1.956585e+01
   7.311652e+01  -1.335905e+01
   8.574504e+01   8.298616e+01
   1.050029e+01   1.601779e+02
  -1.093140e+02   1.519432e+02
  -2.382470e+02   6.709073e-01
  -1.634050e+02  -1.465112e+02
  -2.693721e+01  -2.306165e+02
   6.089445e+01  -1.779518e+02
   1.467101e+02  -8.336765e+01
   1.108891e+02   3.718148e+01
   2.889325e+01   2.764806e+01
   3.392856e+01   1.330385e+01
   8.078333e+01   3.807566e+01
   6.446915e+01   7.538663e+01
  -6.832406e+00   9.798771e+01
  -1.314127e+02   3.753071e+01
  -1.273757e+02  -3.799430e+01
  -1.605636e+01  -9.999338e+01
   1.545848e+02  -4.778370e+01
   1.416254e+02   7.670463e+01
   6.864324e+01   1.630698e+02
  -1.053881e+02   1.758688e+02
  -2.066933e+02   1.995955e+01
  -2.193092e+02  -1.045379e+02
  -1.927020e+01  -1.224389e+02
  -3.572935e+00  -1.206447e+02
   5.725015e+01  -8.247206e+01
   3.325343e+01  -4.728371e+01
   3.307370e+01  -8.723573e+01
   8.455370e+01  -9.092603e+01
   1.142698e+02   2.799356e+01
   1.314940e+02   7.030291e+01
  -1.367921e+01   1.722663e+02
  -9.955592e+01   1.249709e+02
  -1.306357e+02   1.109770e+01
  -6.643252e+01  -1.361439e+02
  -3.001043e+01  -1.412947e+02
   6.425213e+01  -5.666906e+01
   6.215283e+01   3.091286e+01
   2.158077e+01   2.498341e+00
  -3.881170e+01   1.195102e+01
   1.752358e+01  -2.270118e+01
   1.216010e+02   2.629117e+01
   7.948170e+01   7.989712e+01
  -1.122165e+02   7.083235e+01
  -1.373860e+02   7.435560e+00
  -1.465397e+02  -5.159364e+01
  -2.549971e+01  -1.068733e+02
   8.657651e+01  -7.827866e+01
   1.680202e+02  -7.916437e+00
   3.406668e+01   2.143675e+01
  -4.993274e+01   4.355915e+01
  -9.106645e+01  -2.363765e+01
   1.428542e-01  -1.218186e+02
   4.683310e+01  -1.069024e+02
   1.003048e+02   1.641079e+01
   6.344460e+01   4.838090e+01
   5.860285e+01   2.548360e+01
   3.881762e+01  -1.961140e+01
   4.462612e+01  -1.410010e+01
  -7.820508e+00   6.868339e+01
  -6.476745e+01   1.294665e+02
  -1.314868e+02   1.078654e+02
  -1.771937e+02   3.620432e+01
  -1.120775e+02  -7.389542e+01
   7.074521e+00  -1.284204e+02
   9.207796e+01  -8.232558e+01
   6.542568e+01   2.411575e+01
  -5.814688e+01   7.493058e+00
  -1.069059e+02  -4.793287e+01
  -5.286432e+01  -1.051525e+02
   9.930044e+01  -9.724263e+01
   1.870900e+02  -7.854768e+01
   1.681010e+02   7.815473e+01
   4.051037e+01   1.142194e+02
  -6.281031e+01   8.452473e+01
  -6.080075e+01  -3.691624e+01
   1.948115e+01  -9.076058e-01
   6.991002e+01   1.248386e+01
   6.126444e+01   8.535784e+01
  -8.833884e+01   1.470577e+02
  -1.236037e+02   4.877897e+01
  -9.185741e+01  -9.455322e+01
  -1.294925e+01  -1.405220e+02
   7.769092e+01  -1.368298e+02
   9.676127e+01   4.337530e+01
   3.171761e+01   1.286743e+02
  -3.305701e+01   1.131497e+02
  -3.436695e+01  -3.619427e+00
  -3.489972e+01  -2.756639e+00
   2.746964e+01  -1.258553e+01
  -9.161599e+00   2.658931e+00
  -1.847062e+01  -1.982051e+01
  -6.437377e+01  -5.011733e+01
  -8.604657e+00  -1.126056e+02
   2.295059e+01  -2.725970e+01
   1.237632e+02   5.090659e+01
   1.250099e+02   3.935175e+01
   1.872052e+01   4.534695e+01
  -8.022566e+01   6.125193e+01
  -4.334110e+01   2.709622e-01
   1.545259e+01  -1.730096e+00
   1.123984e+01  -6.142216e+00
   1.426783e+01   9.813676e+00
  -1.989400e+01  -2.984594e+01
   6.167424e+00  -4.284605e+01
   1.958327e+01   1.251275e+01
   6.804184e+01   1.066504e+01
   8.644737e+00   5.185449e+01
  -7.841590e+01   9.394305e+01
  -1.434159e+02   1.103032e+02
  -1.361589e+02  -3.529794e+01
  -2.427605e+01  -1.320089e+02
   7.561717e+01  -1.524996e+02
   1.104803e+02  -5.490734e+01
   1.086468e+02  -2.151119e+01
   7.286275e+01   4.942581e+00
   8.138960e+00   4.875659e+01
   4.878994e+01   4.459335e+01
   2.312498e+00   4.348664e+01
   9.405364e+00   8.043646e+01
  -3.013380e+00   8.509632e+01
  -5.893516e+01  -1.708494e+01
  -5.523277e+01  -6.869965e+01
  -1.644370e+01  -8.959358e+01
   7.003518e+01  -1.914635e+01
   1.115198e+02   5.805378e+01
   2.576711e+01   1.184618e+02
  -5.660591e+01   5.902732e+01
  -3.772849e+01   4.523037e+00
  -4.854431e+01  -1.802402e+01
   9.351387e+00  -1.885388e+01
   5.742967e+00  -5.547864e+01
  -1.640112e+01   2.649434e+01
  -5.445110e+01   2.088865e-01
  -3.198461e+01  -3.015120e+01
   6.797496e+01  -5.974376e+01
   9.817851e+01  -5.458638e+01
   1.034881e+02   3.933338e+01
  -2.359621e+01   1.233028e+02
  -4.990226e+01   6.802259e+01
  -8.096020e+00   1.018838e+01
   3.155079e+01  -5.228926e+01
   2.936288e+01  -1.921879e+01
   2.063444e+01  -1.960895e+01
   1.736252e+01   2.620031e+01
  -7.496232e+00   3.875655e+01
  -8.566640e+00   1.813787e+01
  -1.702541e+01  -5.051359e+00
   2.729770e+00   2.202940e+01
   6.745239e+00  -4.040320e+00
   5.893157e+01   4.918215e+00
  -1.139689e+01   2.829525e+01
  -2.829616e+01  -4.122985e+01
  -3.005909e+01   3.559983e+01
   2.347047e+01   3.755374e+01
  -2.027452e+01   4.457733e+01
  -6.722214e+01   3.296884e+01
  -5.826005e+01  -1.110394e+01
  -2.010387e+00  -6.107640e+01
   2.436407e+01  -6.348170e+01
   6.758455e+01   2.223490e+01
   5.966057e+01   8.035225e+00
   1.105654e+01   6.455340e+01
  -6.313541e+01   4.194720e+01
  -6.053107e+01   9.239327e+00
   3.617611e+01  -2.380131e+01
   7.239569e-02  -2.585748e+01
   3.771956e+01   1.486466e+01
  -4.963383e+01   2.816383e+01
