
 $NMID
 id='ANONYMOUS ', fmtdat='(2E16.6)'
 volume=1.0
 tramp=1.0
 $END
   3.019338e+03   7.886886e+01
   2.017239e+03   1.564678e+03
   3.123996e+01   1.954860e+03
  -1.194224e+03   1.198659e+03
  -7.791067e+02   1.966275e+02
  -6.930848e+01  -1.893970e+02
   3.825961e+02   4.896500e+01
   1.069684e+02   6.046404e+02
  -4.195060e+02   5.793124e+02
  -6.326499e+02   9.167909e+00
  -3.668813e+02  -4.909234e+02
   1.663545e+01  -6.091744e+02
   3.112505e+02  -5.687828e+01
   2.950333e+02   4.383359e+02
  -1.323933e+02   5.822033e+02
  -3.680900e+02   2.114653e+01
  -3.055690e+02  -4.596244e+02
   1.104246e+02  -6.081652e+02
   4.255265e+02  -1.792349e+02
   4.595795e+02   2.036499e+02
   9.379384e+01   3.160073e+02
  -7.746442e+01   2.278878e+02
  -1.021784e+02   1.368939e+02
   1.639665e+02   1.051607e+02
   2.566337e+02   2.462654e+02
   2.448835e+01   3.316790e+02
  -4.104779e+02   1.794726e+02
  -5.487904e+02  -1.599342e+02
  -1.820137e+02  -3.016960e+02
   2.658799e+02  -1.813960e+02
   4.487572e+02   1.116218e+02
   1.635338e+02   3.058540e+02
  -2.106463e+02   2.842853e+02
  -3.719391e+02   1.348465e+02
  -3.170914e+02  -1.671429e+02
  -4.490679e+01  -3.032616e+02
   6.149414e+01  -1.945379e+02
   1.149707e+01   4.561343e+01
  -1.320328e+02   1.082312e+02
  -1.415562e+02  -1.081916e+02
  -3.063577e+01  -4.175995e+02
   1.812297e+02  -3.628025e+02
   3.195672e+02  -4.538616e+01
   1.390063e+02   2.711058e+02
  -1.647913e+02   1.428657e+02
  -1.841941e+02  -2.299413e+02
   1.215632e+02  -3.859364e+02
   4.310323e+02  -1.104244e+02
   4.687092e+02   2.869638e+02
   1.679151e+02   4.331189e+02
  -2.182201e+02   2.395147e+02
  -4.558573e+02   7.325148e+00
  -3.214360e+02  -2.011768e+02
   5.618924e+00  -2.196512e+02
   2.628044e+02  -1.007602e+02
   2.209807e+02   3.193839e+01
  -3.000029e+00   1.614280e+01
  -3.459904e+01  -8.988364e+01
   1.060596e+02  -7.920601e+01
   2.422559e+02   1.154430e+01
   1.397993e+02   1.963642e+02
  -1.250964e+02   2.399365e+02
  -3.284377e+02   1.454625e+02
  -2.502871e+02  -1.312918e+02
   2.465797e+01  -3.094887e+02
   2.647213e+02  -3.789498e+02
   3.402694e+02  -1.491683e+02
   2.494464e+02   1.901225e+02
   4.754930e+01   3.339091e+02
  -1.409898e+01   3.177499e+02
  -4.081577e+01   1.601940e+02
  -5.435365e+01   8.950102e+01
  -8.771235e+01   5.476241e+01
  -2.560722e+02   7.776617e+01
  -2.055401e+02  -1.112965e+02
  -1.199571e+02  -2.181382e+02
   6.466217e+01  -1.963446e+02
   1.850967e+02   5.180174e+01
   1.374418e+02   2.199735e+02
  -2.582101e+01   2.366727e+02
  -1.614990e+02   4.524717e+01
  -2.876808e+02  -1.348364e+02
  -2.007686e+02  -2.434461e+02
   1.519586e+01  -2.424044e+02
   1.474347e+02  -1.523406e+02
   1.276160e+02  -7.957777e+01
   1.498003e+02  -9.219175e+01
   2.262830e+02  -3.273389e+01
   3.782657e+02   9.327745e+01
   3.181468e+02   2.414368e+02
  -2.009591e+00   3.733641e+02
  -3.248598e+02   3.547335e+02
  -4.573529e+02   2.195028e+02
  -2.958661e+02  -9.370876e+01
  -7.119114e+01  -2.154268e+02
   5.379521e+01  -1.951284e+02
   3.428151e+01  -3.141262e+01
  -1.092948e+02   1.456059e+01
  -1.520114e+02  -2.235372e+01
  -4.645510e+01  -1.747424e+02
   1.098732e+02  -9.268860e+01
   1.150389e+02   1.831632e+01
  -2.233308e-01   8.954691e+01
  -1.093238e+02  -5.929537e+01
  -1.488439e+02  -1.805497e+02
   2.067635e+01  -2.635499e+02
   2.567693e+02  -1.840618e+02
   3.347770e+02   5.602525e+01
   2.512566e+02   2.337664e+02
   5.097196e+01   2.312456e+02
  -1.357179e+02   1.776834e+02
  -1.428318e+02   3.098232e+01
  -4.101689e+01  -1.335979e+01
   3.870333e+01   4.952495e+01
  -2.357346e+01   1.076110e+02
  -1.116186e+02   2.424548e+01
  -9.199570e+01  -5.458840e+01
  -3.630627e+01  -7.887101e+01
   7.529459e+01  -5.602291e+01
   8.984597e+00   7.918063e+01
  -1.300335e+02   9.060450e+01
  -2.352483e+02   1.573459e+01
  -2.272779e+02  -1.279375e+02
  -2.308098e+01  -2.346942e+02
   1.796209e+02  -2.230897e+02
   2.020366e+02  -1.050055e+02
   1.094181e+02   2.497474e+01
  -4.164198e+01   8.477918e+01
  -5.227819e+01  -4.660014e+01
   4.054206e+01  -1.023291e+02
   2.023968e+02  -4.059409e+00
   2.068182e+02   8.434688e+01
   5.592687e+01   1.595066e+02
  -1.078579e+02   1.048296e+02
  -1.265878e+02   1.733470e+01
  -3.092241e+01  -3.509396e+00
   2.437664e+01   7.778214e+01
   2.830165e+01   9.374140e+01
  -1.121148e+02   1.366940e+02
  -1.941870e+02   1.595324e+01
  -1.771781e+02  -1.525184e+02
   2.145404e+00  -1.966600e+02
   1.288993e+02  -1.169514e+02
   1.407734e+02  -9.401875e+00
   5.616621e+01   7.648180e+01
  -4.112102e+01   7.910846e+01
  -8.255195e+01   7.877266e+00
   5.006779e+00  -4.354798e+01
   6.371829e+01  -6.605410e+01
   5.714029e+00   5.720150e+01
  -5.498294e+01   2.313369e+01
  -8.773575e+01  -5.281915e+01
  -3.032962e+01  -1.533640e+02
   1.613534e+02  -1.336026e+02
   2.496187e+02  -1.515505e+01
   1.900923e+02   1.172963e+02
  -2.068087e-02   1.974975e+02
  -1.018952e+02   1.875683e+02
  -1.509496e+02   2.188742e+01
  -7.393275e+01  -3.485190e+01
  -4.699528e+01  -4.990289e+01
  -1.996196e+01  -3.829284e+00
  -7.827500e+01  -4.353366e+01
  -4.104379e+01  -4.402769e+01
   1.300562e+01  -8.138101e+01
   9.797044e+01  -6.573492e+01
   8.805903e+01   5.154108e+01
   4.938093e+00   1.339550e+02
  -1.773946e+02   7.144207e+01
  -2.028252e+02  -2.853009e+01
  -5.896535e+01  -2.008839e+02
   1.202248e+02  -2.288445e+02
   2.474008e+02  -1.178297e+02
   2.125397e+02   7.491504e+01
   1.096559e+02   1.649438e+02
  -1.431942e+01   1.750047e+02
  -9.395008e+01   1.124204e+02
  -8.912081e+01   7.086703e+01
  -7.635786e+01   5.965696e+01
  -8.535849e+01   4.247782e+01
  -1.307198e+02  -5.592807e+00
  -1.192100e+02  -1.173618e+02
  -1.238402e+01  -2.004578e+02
   1.068037e+02  -1.637156e+02
   1.746128e+02  -3.597843e+01
   1.098237e+02   1.226741e+02
   1.137248e+01   1.844554e+02
  -5.960024e+01   8.821410e+01
  -6.276757e+01  -5.411325e+00
  -4.144009e+01  -4.446435e+01
   1.701822e+01  -4.996906e+01
  -4.394598e+01  -2.876871e+01
  -4.561974e+01  -2.273784e+01
  -2.126755e+01  -2.985553e+01
   7.582608e+01  -2.298813e+01
   1.829861e+02   4.855381e+00
   1.201254e+02   3.819264e+01
  -3.227675e+00   1.118533e+02
  -1.106069e+02   6.468829e+01
  -1.558831e+02   9.804757e+00
  -3.228539e+01  -4.696229e+01
   7.889540e+01  -5.759950e+01
   5.735530e+01  -7.838420e+00
   1.320553e+01   7.594504e+01
  -1.544413e+01   6.441114e+01
  -3.378231e+01   1.398752e+01
  -8.864342e+01  -4.506642e+01
  -9.457425e+01  -3.238966e+01
  -4.786665e+01  -3.420147e+01
  -4.540768e+01  -5.002554e+01
  -4.137133e+01  -8.676949e+01
   3.565005e+01  -1.626902e+02
   1.383419e+02  -1.540373e+02
   1.661286e+02  -6.379921e+01
   1.524782e+02   6.459531e+01
   1.532842e-01   8.731590e+01
  -7.171678e+01   7.582944e+01
  -3.451286e+01  -4.961513e+00
   6.349306e+01   5.727233e+00
   1.323596e+02   3.822534e+01
   6.823400e+01   9.545630e+01
  -8.212477e+01   1.036297e+02
  -1.709377e+02   4.900223e+01
  -1.375843e+02  -9.205974e+00
  -2.678913e+01  -8.482507e+01
   5.184385e+01  -4.248663e+01
   1.032894e+00   1.798993e+01
  -5.039794e+01   3.935487e+01
  -1.089859e+02  -3.252589e-02
  -6.117992e+01  -1.090037e+02
   5.157116e+01  -1.168510e+02
   1.260824e+02  -8.274329e+01
   1.037291e+02   4.808040e+01
   3.705037e+01   1.460064e+02
  -8.003270e+01   1.540018e+02
  -9.235101e+01   2.555889e+01
  -3.784391e+01  -7.819722e+01
  -2.202133e+00  -8.338259e+01
   5.787515e+01  -3.585337e+01
   6.294157e+01   4.872327e+00
   1.042548e+01  -1.192866e+01
  -1.294756e+01  -2.470052e+01
   1.976926e+01   1.467062e+01
   8.398442e+01   5.730659e+01
   4.851218e+01   8.342531e+01
  -4.083753e+01   6.211524e+01
  -9.467631e+01  -1.257882e+01
  -1.266460e+02  -4.018627e+01
  -2.092905e+01  -5.746165e+01
   7.036303e+01  -5.014312e+01
   7.255284e+01  -3.769964e+00
   3.322497e+01   2.611110e+01
   8.419992e+00   3.131981e+01
  -9.976952e+00  -8.940322e+00
  -1.352487e+01   2.659370e+01
  -1.397827e+01  -3.493933e+01
  -2.450176e+01   3.402119e+01
  -9.312395e+01  -2.210271e+01
  -1.087507e+00  -2.021631e+01
   1.092372e+02  -7.710525e+01
   1.598100e+02  -7.546019e+01
   1.115361e+02   5.398630e+01
   2.443889e+01   1.472596e+02
  -4.870497e+01   1.688861e+02
  -1.133985e+02   8.455880e+01
  -4.776534e+01  -6.857370e+00
  -1.986557e+01  -1.910655e+01
  -1.057031e+01  -2.565131e+01
  -1.571323e+01  -4.098006e+01
  -4.527600e+01  -6.550210e+01
  -4.051969e+01  -8.733407e+01
   2.127481e+01  -3.535902e+01
   6.345874e+01  -1.106780e+01
   4.923307e+01   1.052802e+02
   3.850673e+01   1.107881e+02
  -2.195089e+01   4.012515e+01
  -8.848504e+01  -6.421159e+01
  -3.958471e+01  -8.326022e+01
   9.267558e+01  -6.993721e+01
   1.219625e+02   8.845374e+00
   5.741931e+01   4.898927e+01
  -3.305875e+01   6.334119e+01
  -3.374298e+01   4.236606e+01
   1.725647e+01   2.853010e+01
   4.298531e+01  -3.368051e+01
  -8.585791e-01   5.245538e+01
  -4.114894e+01   4.197941e+01
  -1.065845e+02   5.458986e+01
  -6.428147e+01  -4.363149e+01
   1.350707e+01  -9.339064e+01
   7.523550e+01  -9.411600e+01
   1.871779e+01  -1.024863e+01
   1.272805e+01   3.030733e+01
  -4.555186e+01   5.160419e+01
  -4.876618e+01  -2.217673e+01
  -5.536951e+01  -6.535311e+01
   5.039259e+01  -5.409014e+01
   6.541989e+01  -1.508859e+00
   2.197005e+01  -4.220193e+00
  -1.000910e+01  -8.615993e+00
  -1.138090e+01  -1.831871e+01
  -1.669378e+01  -6.785442e+00
   1.905330e+01   6.602371e+01
   2.684108e+01   4.187777e+01
   1.820476e+01   1.697758e+00
  -8.655605e+00  -5.144332e+01
  -2.580573e+01  -2.457268e-02
   5.171341e+01  -2.811252e+01
   5.684042e+01  -1.755035e+00
   1.623455e+01   6.363025e+00
  -1.701306e+01   9.891865e+00
  -6.592447e+01  -2.840327e+01
  -2.297351e+01  -1.954381e+01
   3.596102e+01  -2.751659e+01
   4.362238e+01  -4.412775e+01
   1.149928e+01  -2.689611e+01
   1.171213e+00   2.939877e+01
  -3.866964e+01   2.540272e+01
   1.613402e+01  -3.774510e+01
   4.377470e+01  -1.552082e+01
