
 $NMID
 id='ANONYMOUS ', fmtdat='(2E16.6)'
 volume=1.0
 tramp=1.0
 $END
   3.655650e+03   3.344685e+01
   2.346035e+03   2.047943e+03
  -2.543522e+02   2.276739e+03
  -1.695769e+03   1.026492e+03
  -8.701511e+02   9.361832e+00
   3.099117e+02  -2.676689e+02
   5.807313e+02   2.693888e+02
   1.371253e+01   7.221089e+02
  -5.794732e+02   6.691249e+02
  -7.013791e+02  -4.280715e+01
  -4.443700e+02  -6.922492e+02
   1.307456e+02  -7.229067e+02
   4.464794e+02  -1.446735e+02
   2.546110e+02   5.433643e+02
  -1.650920e+02   5.756271e+02
  -4.796794e+02   1.171897e+02
  -2.613514e+02  -4.756396e+02
   2.211450e+02  -5.462149e+02
   5.563835e+02  -2.643738e+02
   3.839013e+02   2.355229e+02
   4.924727e+01   4.130589e+02
  -2.317672e+02   3.255423e+02
  -1.008763e+02   5.666789e+01
   1.289089e+02   1.938108e+01
   3.267419e+02   1.876915e+02
   8.504378e+01   3.840426e+02
  -4.097585e+02   3.021543e+02
  -7.440180e+02  -2.103588e+02
  -2.927202e+02  -4.753380e+02
   3.542078e+02  -2.894389e+02
   6.386001e+02   7.384539e+01
   3.130030e+02   4.171313e+02
  -2.118402e+02   3.690325e+02
  -4.986980e+02   1.713564e+02
  -3.475715e+02  -2.147165e+02
  -4.622609e+01  -3.073493e+02
   1.345916e+02  -1.906519e+02
   8.084165e+01   1.345386e+02
  -2.009006e+02   3.338982e+02
  -3.486671e+02  -5.599709e+01
  -1.604896e+02  -5.855671e+02
   3.068537e+02  -5.491434e+02
   4.359246e+02  -4.527056e+01
   1.923002e+02   3.773319e+02
  -2.329469e+02   1.988925e+02
  -2.871684e+02  -2.532990e+02
   5.793171e+01  -4.582026e+02
   4.997699e+02  -8.449260e+01
   5.336309e+02   3.663663e+02
   1.495765e+02   5.041041e+02
  -3.765665e+02   2.470230e+02
  -5.840854e+02  -6.774989e+01
  -3.997153e+02  -2.547560e+02
   8.058687e+01  -2.823575e+02
   3.860504e+02  -1.175992e+02
   2.760893e+02   1.176462e+02
  -9.031346e+01   4.766676e+01
  -1.605327e+02  -1.153099e+02
   1.118203e+02  -1.216663e+02
   2.622157e+02   5.493863e+01
   1.430138e+02   2.154741e+02
  -1.995943e+02   1.849138e+02
  -3.056289e+02   9.285034e+01
  -2.254649e+02  -1.276252e+02
   6.683857e+01  -2.431191e+02
   3.328137e+02  -3.470959e+02
   3.511637e+02  -1.617826e+02
   2.372839e+02   1.871063e+02
   8.125019e+00   4.110604e+02
  -6.259644e+01   3.323549e+02
  -7.576083e+01   1.584417e+02
  -1.864550e+01   6.728033e+01
  -1.082622e+02   1.009416e+02
  -3.049664e+02   8.091153e+01
  -2.780190e+02  -1.196894e+02
  -1.033617e+02  -2.519409e+02
   8.973934e+01  -2.317166e+02
   1.940415e+02   2.448826e+01
   1.818817e+02   2.322982e+02
  -4.007755e+01   2.497554e+02
  -2.507271e+02   4.199203e+01
  -2.934362e+02  -1.617168e+02
  -1.579592e+02  -2.742936e+02
   6.914311e+01  -2.686177e+02
   1.900295e+02  -1.559456e+02
   1.312928e+02  -7.042619e+01
   1.283431e+02  -5.040438e+01
   2.918054e+02  -2.017553e+01
   4.155238e+02   8.788456e+01
   3.517801e+02   2.849416e+02
  -2.183674e+01   4.272084e+02
  -3.767536e+02   3.593238e+02
  -4.778662e+02   1.821064e+02
  -2.753277e+02  -7.028512e+01
  -2.556644e+00  -2.483280e+02
   1.219704e+02  -2.130043e+02
   7.829837e+01  -7.608975e+01
  -1.142581e+02   1.326622e+02
  -1.991584e+02   1.700724e+01
  -2.411540e+01  -1.559020e+02
   8.581981e+01  -1.151099e+02
   9.352019e+01   1.939111e+01
  -6.945522e+00   1.447055e+02
  -1.784327e+02   1.383824e+00
  -1.654629e+02  -2.798798e+02
   4.265530e+01  -3.805659e+02
   2.423563e+02  -1.850696e+02
   3.178572e+02   8.373180e+01
   2.386353e+02   2.991949e+02
   6.872685e+01   2.077866e+02
  -7.981267e+01   1.152230e+02
  -1.753885e+02  -2.061371e+01
  -4.499217e+01   2.254676e+00
   1.966803e+01   7.893060e+01
   3.656535e+01   7.468124e+01
  -1.480937e+02   7.508366e+01
  -1.838807e+02  -4.294604e+01
  -3.738329e+01  -1.196952e+02
   1.033541e+02   1.047748e+01
   6.222432e+01   9.932185e+01
  -9.286954e+01   8.802325e+01
  -2.942271e+02  -2.790466e+01
  -2.928993e+02  -1.611186e+02
  -5.904336e+01  -2.366268e+02
   2.115130e+02  -2.096879e+02
   2.658148e+02  -1.212085e+02
   1.238570e+02   4.660087e+01
  -9.211872e+01   7.198858e+01
  -7.344999e+01  -3.218595e+01
   6.062809e+01  -5.272583e+01
   1.800356e+02   3.770458e+00
   2.013479e+02   8.531975e+01
   8.573901e+01   1.914836e+02
  -1.103832e+02   1.496856e+02
  -1.186806e+02   1.517119e+01
  -4.822169e+01  -2.898598e+01
   2.774249e+01   3.556431e+01
   1.183590e+01   9.004976e+01
  -8.862916e+01   1.613904e+02
  -1.979879e+02   2.521821e+01
  -2.222247e+02  -9.879186e+01
  -5.478483e+01  -2.064217e+02
   1.570460e+02  -1.260053e+02
   1.299546e+02  -5.460299e+01
   2.799647e+01   8.052641e+01
  -4.592717e+01   6.811333e+01
  -7.087069e+01   3.681377e+01
  -3.244851e+01   8.725130e-01
   2.593601e+01  -3.044510e+01
   2.886185e+01   1.606315e+01
  -9.784194e+00  -1.657337e+01
  -1.008047e+02  -1.013136e+02
  -2.266320e+01  -1.263300e+02
   1.298017e+02  -1.013548e+02
   2.248650e+02   3.608143e+01
   1.721636e+02   1.089482e+02
   1.821446e+01   2.164692e+02
  -1.217458e+02   1.498668e+02
  -1.408293e+02   8.058069e+01
  -3.404621e+01  -7.394241e+01
  -5.303874e+01  -3.046245e+01
  -9.355809e+01  -4.612733e-01
  -1.132446e+02  -2.648207e+01
  -3.334646e+01  -3.724656e+01
   3.546044e+01  -1.267697e+02
   1.423428e+02  -6.089705e+01
   1.129801e+02   4.261649e+01
  -2.355852e+01   1.630301e+02
  -1.704464e+02   1.067586e+02
  -2.106143e+02  -8.837538e+01
  -1.322391e+02  -2.186163e+02
   4.716255e+01  -2.269531e+02
   2.457897e+02  -7.815954e+01
   2.591440e+02   3.655192e+01
   1.339220e+02   1.345305e+02
  -4.452409e+01   1.110339e+02
  -8.568579e+01   5.202809e+01
  -3.597477e+01   6.986361e+01
  -2.366626e+01   1.305252e+02
  -9.083292e+01   1.025309e+02
  -1.122697e+02  -7.454748e+00
  -1.236427e+02  -1.281332e+02
  -4.105846e+01  -2.290192e+02
   7.360652e+01  -2.388765e+02
   1.860334e+02  -2.218759e+01
   9.736728e+01   1.357884e+02
   5.507483e+01   1.488498e+02
  -7.382157e+01   1.363097e+02
  -8.044078e+01   4.247840e+00
  -1.608608e+01  -6.984934e+01
   4.700205e+01  -6.108538e+01
   1.159151e+01  -3.080091e+01
  -6.466932e+01  -2.803927e+01
  -4.680207e+01  -2.111070e+01
   5.591904e+01  -2.175618e+01
   1.733225e+02   5.892183e+01
   1.309000e+02   4.100296e+01
  -2.356426e+01   7.348873e+01
  -8.534110e+01   1.691903e+01
  -1.927775e+02   1.271422e+01
  -2.227890e+01  -7.198717e+01
   4.432086e+01  -2.443297e+01
   5.291366e+01   1.604475e+00
   2.049084e+01   6.833980e+01
  -8.149931e+00   1.100680e+02
  -5.294058e+01  -2.978228e+01
  -3.665068e+01  -4.601703e+01
  -5.424840e+01  -8.124268e+01
  -5.608290e+01   1.991999e+01
  -4.232100e+01   1.270575e+01
  -2.462768e+01  -3.736144e+01
   6.898017e+01  -1.470983e+02
   1.415223e+02  -1.428107e+02
   1.188704e+02  -1.635116e+01
   7.744942e+01   6.816923e+01
  -4.177499e+01   1.258207e+02
  -7.365384e+01   3.644538e+01
  -7.285896e+01   1.870340e+01
   1.301622e+01  -2.406119e+01
   1.381684e+02   1.792151e+01
   5.548925e+01   1.344002e+02
  -5.873237e+01   1.288008e+02
  -1.902625e+02   2.580191e+01
  -1.780494e+02  -8.875568e+01
  -1.105891e+01  -3.924240e+01
   4.482910e+01   5.067480e+00
   3.479502e+01  -1.953889e+01
  -4.621964e+01   3.092763e+01
  -8.984618e+01  -5.311415e+01
  -4.110841e+01  -1.353108e+02
   9.350380e+01  -1.341959e+02
   1.589909e+02  -1.107768e+02
   1.039398e+02   5.962438e+01
   1.928769e+01   1.891833e+02
  -5.724553e+01   1.415543e+02
  -1.106756e+02  -1.732216e+01
  -4.453558e+01  -1.541479e+02
  -1.217579e+01  -1.558619e+02
   4.298515e+01  -3.864543e+01
   6.523810e+01  -1.201805e+01
   3.881585e+01  -1.879291e+01
   1.902681e+01  -1.144838e+01
   2.237854e+01  -1.779379e+00
   7.806198e+01   9.622704e+01
   2.763933e+01   1.122504e+02
  -7.671404e+01   3.601723e+01
  -1.161808e+02  -2.607571e+01
  -1.661049e+02  -7.320592e+01
  -1.708018e+01  -4.433631e+01
   6.127194e+01  -8.562659e+00
   9.841742e+01  -2.595010e+01
   9.055118e-01   1.039954e+01
  -5.063482e+01   2.465126e+01
   5.309931e-01   1.816218e+01
   2.604722e+01   1.861377e+01
  -1.813074e+01  -2.287096e+01
  -6.800823e+01  -4.526382e+01
  -8.284242e+01  -5.213275e+00
  -3.547479e+00  -5.685918e+01
   1.328354e+02  -9.623066e+01
   2.015532e+02  -5.864329e+01
   1.514350e+02   4.447269e+01
   4.734669e+01   1.629641e+02
  -8.571040e+01   1.746874e+02
  -8.784969e+01   8.613605e+01
  -9.132624e+01   1.215014e+01
  -2.300170e+01   1.649197e+01
   1.158826e+01  -4.649571e+01
   8.975136e+00   1.899454e+00
   4.935904e+00  -5.837742e+01
  -4.235410e+01  -5.569661e+01
   2.843160e+01  -4.756078e+01
   5.711552e+01   3.708892e+01
   3.345840e+01   8.783628e+01
   5.420104e+00   9.293625e+01
  -8.268104e+01   4.257155e+01
  -5.305434e+01  -7.575627e+01
  -4.485018e+01  -1.017091e+02
   8.484344e+01  -9.958543e+01
   3.893111e+01  -1.263803e+00
   7.566880e+01   3.776263e+01
  -1.020428e+01   8.543159e+00
  -1.487090e+01   4.196301e+01
   3.224352e+01   4.119710e-01
   4.006758e+01   2.102788e+01
   4.964360e+01   1.877255e+00
  -9.269401e+01   4.874244e+01
  -1.272335e+02   5.319973e+01
  -6.959095e+01  -4.306025e+00
   1.629001e+01  -9.700472e+01
   7.299597e+01  -5.417109e+01
   3.507828e+01   1.756348e+01
  -3.255107e+01   6.642544e+01
  -4.082736e+01   3.235011e+01
  -5.409028e+01   7.779479e+00
   4.525758e+00  -6.841273e+01
   1.314764e+01  -2.671158e+01
   4.403289e-01   2.969061e+01
   6.962698e+01   1.801233e+01
   6.394042e+01  -1.977271e+01
  -3.040139e+01   2.297761e+00
  -3.273938e+01  -2.208559e+00
  -3.189904e+01   4.563889e+01
  -5.985092e+00   1.258149e+01
  -1.657501e+01  -3.709042e+00
  -4.271485e+01  -3.752565e+01
   6.002717e+00  -2.673439e+01
   5.107834e+01  -6.020923e+01
   8.157162e+01   2.189126e+01
   5.162768e+01   5.135574e+01
  -2.053961e+01   4.092201e+01
  -9.580682e+01   4.243836e+01
  -6.213784e+01  -2.123309e+01
   7.285365e-01  -3.659035e+01
   3.789522e+01  -1.281332e+01
   1.034817e+01  -3.409760e+01
  -5.839050e+01  -7.671286e-01
  -4.929152e+01  -7.843764e+01
   5.121427e+01  -2.444436e+01
   8.388053e+01  -2.308094e+01
