
 $NMID
 id='ANONYMOUS ', fmtdat='(2E16.6)'
 volume=1.0
 tramp=1.0
 $END
  -2.004049e+03   5.920826e+01
  -1.288374e+03  -1.045450e+03
  -1.129727e+01  -1.247541e+03
   7.486712e+02  -7.790886e+02
   6.940566e+02  -1.592231e+02
   9.235812e+01   5.389000e+01
  -1.472235e+02  -9.268292e+01
  -3.281891e+01  -3.226452e+02
   2.748003e+02  -3.394244e+02
   4.081365e+02  -6.491148e+01
   3.111432e+02   2.421452e+02
  -3.684452e+00   3.826088e+02
  -2.106853e+02   2.094957e+02
  -1.253264e+02  -1.582773e+02
   4.005858e+01  -2.845656e+02
   2.686285e+02   1.275359e+01
   1.689440e+02   3.456570e+02
  -6.291828e+01   3.682599e+02
  -2.928140e+02   2.985330e+02
  -2.303660e+02  -9.300835e+01
  -9.393204e+01  -1.205149e+02
  -1.146910e+01  -1.428159e+02
  -4.096239e+01  -1.194383e+02
  -1.358370e+02  -1.052907e+02
  -1.208786e+02  -1.717912e+02
   7.515782e+01  -2.167119e+02
   3.026112e+02  -4.948273e+01
   3.336427e+02   1.661852e+02
   1.482335e+02   1.709135e+02
  -1.813009e+02   3.986605e+01
  -3.043916e+02  -9.282327e+01
  -1.334441e+02  -2.671723e+02
   1.264456e+02  -1.590217e+02
   2.771608e+02  -7.267443e+01
   2.341175e+02   1.009630e+02
   1.038093e+02   1.927603e+02
   2.488566e+01   8.973335e+01
   5.890573e+01  -3.422441e+01
   9.096804e+01  -3.096420e+01
   6.841493e+01   1.117658e+02
  -3.286479e+01   3.177754e+02
  -1.217614e+02   2.545011e+02
  -2.009834e+02  -2.124019e+01
  -6.595499e+01  -2.083597e+02
   6.754657e+01  -4.459841e+01
   7.410933e+01   1.429259e+02
  -9.232183e+01   2.120313e+02
  -2.782095e+02   3.427528e+01
  -2.882334e+02  -2.079550e+02
  -1.169322e+02  -2.877041e+02
   1.397372e+02  -2.025896e+02
   2.884933e+02   7.350512e+00
   2.383619e+02   7.483656e+01
  -1.905032e+01   8.955973e+01
  -1.695203e+02   5.152390e+01
  -1.308540e+02  -1.074748e+01
   1.838183e+01   1.993612e+01
   6.366151e+01   3.611969e+01
  -5.056726e+01   2.394677e+01
  -1.251231e+02  -4.302994e+01
  -6.948765e+01  -9.969630e+01
   1.139410e+02  -1.386572e+02
   2.159048e+02  -7.892892e+01
   1.413325e+02   7.408306e+01
  -2.374446e+01   1.429415e+02
  -1.802454e+02   1.958621e+02
  -2.218896e+02   1.283325e+02
  -1.580977e+02  -5.792751e+01
  -3.089220e+01  -2.519257e+02
  -1.783193e+00  -2.088974e+02
   1.426052e+01  -1.759006e+02
   5.580409e+01  -1.220536e+02
   1.334040e+02  -1.850518e+01
   1.615383e+02  -1.521400e+01
   1.701145e+02   8.266410e+01
   6.366068e+01   1.352778e+02
  -5.567963e+01   1.337959e+02
  -1.092400e+02  -4.365239e+01
  -7.696643e+01  -1.773786e+02
   5.108926e+01  -1.301557e+02
   1.675270e+02  -2.232283e+01
   1.900072e+02   1.004691e+02
   1.021825e+02   1.849803e+02
  -1.987455e+01   1.857054e+02
  -1.310485e+02   1.353519e+02
  -1.760760e+02   6.363175e+01
  -1.620319e+02   4.664800e+01
  -2.064090e+02  -2.019908e+01
  -2.890063e+02  -7.915062e+01
  -1.872779e+02  -1.732961e+02
   4.682247e+01  -2.538661e+02
   2.562883e+02  -2.763421e+02
   2.941331e+02  -1.564512e+02
   1.494817e+02   2.831346e+01
   2.129564e+01   1.302699e+02
  -4.840460e+01   1.397021e+02
   4.538029e+00   3.400262e+01
   7.477931e+01   6.139942e+00
   1.134596e+02   6.908600e+01
   2.699749e+01   8.155298e+01
  -8.317049e+01   4.821974e+01
  -7.586394e+01  -1.813069e+01
   4.170595e+01  -3.692717e+01
   7.809506e+01  -6.040530e+00
   4.826203e+01   1.498384e+02
  -3.992097e+01   2.147255e+02
  -1.753934e+02   1.098492e+02
  -2.122822e+02  -6.515148e+01
  -1.720802e+02  -1.830407e+02
  -5.810651e+00  -1.863275e+02
   8.506459e+01  -7.665838e+01
   7.819332e+01   7.295078e+00
   3.399725e+01   2.590138e+01
   1.074867e+01  -5.502431e+01
  -2.027119e+01  -8.789793e+01
   7.869026e+01  -3.032872e+01
   1.014249e+02   4.259173e+01
   5.902158e+00   2.454494e+01
  -7.612222e+01  -4.161074e+01
  -7.767396e+00  -5.182486e+01
   1.221385e+02  -6.367439e+01
   1.953405e+02   3.887747e+00
   1.580809e+02   1.071441e+02
   3.981373e+01   1.838902e+02
  -1.272422e+02   1.667410e+02
  -1.747587e+02   4.247397e+01
  -5.763868e+01  -3.071949e+01
   2.854333e+01  -4.753887e+01
   5.006588e+01   7.129158e+00
  -7.963493e+00   1.128459e+01
  -9.399138e+01   1.924795e+01
  -1.253900e+02  -5.413810e+01
  -6.192369e+01  -1.384058e+02
   6.270020e+00  -1.243229e+02
   6.195666e+01  -3.488989e+01
   5.736447e+01  -2.840254e+00
   6.600780e+00  -3.744980e+01
   2.821653e+01  -4.535257e+01
   3.308641e+01  -8.775143e+01
   1.318464e+02  -4.897116e+00
   8.534002e+01   1.027988e+02
  -1.055547e+01   1.005252e+02
  -3.510309e+01   8.494823e+01
  -1.102440e+02  -9.401764e+00
  -8.286488e+01  -3.922775e+01
   1.211058e+01  -2.451432e+01
   5.163385e+01  -7.870937e+00
  -1.216368e+01   3.678382e-01
   9.817436e+00  -2.435976e+00
   1.670967e+01  -2.935542e+01
   1.872721e+01  -2.503015e+01
   8.063147e+01   3.789415e+01
   1.639659e+00   7.904627e+01
  -1.105625e+02   9.298308e+01
  -1.398994e+02  -1.765557e+01
  -9.185119e+01  -8.480260e+01
  -1.003199e+01  -1.392318e+02
   2.201552e+01  -1.040921e+02
   9.001909e+01  -5.419299e+01
   5.761537e+01   1.331437e+01
   4.709651e+01   2.882077e+01
   3.435497e+01   5.483498e+00
   6.295919e+01  -3.590919e+01
   1.807121e+01   1.082909e+01
  -2.289969e+01   6.302361e+01
  -8.813043e+01  -1.422540e+01
  -2.261581e+01  -1.519109e+01
   2.940123e+01  -9.495084e+01
   7.801222e+01  -7.367638e+01
   1.013934e+02   4.157715e+01
   3.691015e+00   1.406330e+02
  -5.891133e+01   1.481254e+02
  -1.524786e+02   6.566100e+01
  -1.701420e+02  -1.854243e+01
  -8.517410e+01  -1.029447e+02
   3.086682e+01  -8.826638e+01
   6.437580e+01  -4.677503e+01
   1.897419e+01  -6.850400e+01
   5.907181e+01  -3.760721e+01
   4.736133e+01  -3.577117e+01
   7.749284e+01  -9.503177e+00
   7.878900e+01   8.024406e+01
   2.619338e+01   1.217031e+02
  -5.811373e+01   9.199492e+01
  -7.042983e+01   4.455550e+00
  -5.557069e+01  -3.991825e+01
   3.070990e+01  -6.077641e+01
   3.026283e+01  -1.559589e+01
   3.520329e+01   1.288752e+01
   1.054246e+01   5.714307e+01
  -7.274284e+00   4.861834e+01
   1.022911e+01   4.395063e+01
   3.229097e+01   1.993620e+01
   4.162405e+01   3.970594e+01
  -8.643862e+01   3.057011e+01
  -8.818744e+01  -1.902362e+01
  -4.155925e+01  -5.207522e+01
   6.451488e+00  -6.457210e+01
   1.117557e+02  -5.578424e+01
   1.292784e+02  -3.286810e+01
   6.500809e+01   3.478960e+01
  -4.130699e+01   4.926328e+01
  -5.627635e+01   8.014072e+00
  -4.047072e+01  -3.493547e+01
   3.827796e+01  -2.738860e+01
   2.144579e+01   2.530283e+01
   6.286254e+01  -1.061746e+01
   5.712723e+01   5.279170e+00
   5.700945e+01   1.938367e+01
   2.650627e+01   5.856340e+00
   1.221203e+01   4.929482e+01
  -2.470478e+00   7.389447e+01
  -7.397665e+01   8.324436e+01
  -1.093063e+02   3.642049e+01
  -8.769352e+01  -7.389766e+01
  -1.155380e+01  -9.145801e+01
   5.735599e+01  -5.794292e+01
   2.434323e+01   4.930933e+00
  -2.357204e+01  -1.296091e+01
  -8.753482e+01  -1.752958e+01
  -9.130539e+01  -4.986014e+01
   3.254126e+01  -7.257784e+01
   1.184491e+02  -6.701008e+01
   1.022163e+02   1.053227e+01
   7.691906e+00   3.639748e+01
   1.842895e+00   2.359378e+01
  -1.549466e+01  -2.775406e+00
   6.204513e+01  -1.704282e+01
   4.510981e+01   1.279633e+00
   3.142314e+01   5.432620e+01
  -5.892740e+01   8.805074e+01
  -9.291343e+01   4.822262e+01
  -8.037736e+01  -6.236357e+01
   1.705477e+01  -1.306076e+02
   7.049538e+01  -1.032223e+02
   4.916749e+01  -2.942418e+01
   4.299183e+01   8.973994e+01
  -1.078553e+01   4.351162e+01
  -2.140979e+01   3.210692e+01
  -1.456303e+01  -2.658888e+01
   8.378974e-01   2.799238e+01
   1.144940e+01   8.519703e+00
   2.876704e+00  -1.744169e+01
  -2.429814e+01  -2.860779e+01
  -3.683720e+01  -7.362307e+01
   2.467863e+01  -1.423779e+01
   1.139721e+02   3.828984e+01
   9.742568e+01   4.860812e+01
  -6.441870e+00   1.870658e+01
  -6.384399e+01   4.222058e+01
  -6.422346e+01   3.302085e+01
  -9.142195e+00   3.991732e+01
   1.075793e+01   1.384388e+01
  -7.514896e+00  -1.340697e+01
  -3.826576e+00   1.595998e+01
   3.601817e+00  -5.360357e+00
   4.141671e+01  -2.579884e+01
   3.289951e+01   4.406106e+01
  -6.463832e+00   2.471462e+01
  -6.804791e+01   7.956071e+01
  -9.933081e+01   8.016187e+01
  -6.219233e+01  -3.600981e+01
  -2.695837e+01  -1.367299e+02
   6.163286e+01  -8.953449e+01
   2.279580e+01  -7.462001e+01
   5.569025e+01   3.083226e+01
   2.608933e+01   1.783944e+01
   3.524738e+00  -1.440826e+01
   2.893025e+00   6.181781e+00
  -1.103016e+01   3.665449e+01
  -1.676607e+01   7.077793e+01
  -2.178050e+01   3.792464e+01
  -2.862477e+01  -7.300120e+01
  -3.954749e+01  -9.749131e+01
  -1.340999e+01  -6.844805e+01
   4.452392e+01  -1.526054e+01
   5.669665e+01   5.890883e+01
   8.924463e+01   6.398648e+01
  -6.285434e+01   2.788382e+01
  -1.020260e+02  -3.629556e+01
  -1.040291e+01  -3.181340e+01
   2.689920e+01  -2.191309e+01
   2.060083e+01  -5.053581e+00
   1.447065e+01  -1.287754e+01
  -5.995531e+01  -2.121936e+01
  -1.236318e+01  -2.852691e+00
   5.042754e+01  -4.266460e+01
   6.591770e+01  -1.619635e+01
   4.315478e+01   3.007274e+01
  -1.011856e+01   5.722220e+01
  -6.122175e+00   5.325315e+01
  -3.810524e+01  -2.016314e+01
  -1.179819e+01  -3.446006e+01
  -1.835156e+01  -4.265533e+01
   1.732139e+01   9.168116e-02
   1.121978e+01   4.548231e+01
   6.860656e+00   1.048666e+01
  -3.054441e+01  -6.446909e+00
  -6.375904e+01  -4.219773e+01
  -5.479056e+01   1.735197e+01
   1.425686e+00   2.715527e+01
  -2.026250e+01  -7.872044e+00
  -5.833141e+01  -2.978239e+01
  -3.316663e+01  -6.026055e+01
   4.522618e+01  -2.977630e+01
   5.789311e+01  -9.032316e+00
   3.830680e+01   3.554507e+01
   6.789817e+00   1.361297e+01
  -5.071090e+01  -5.926660e+00
   1.405115e+01  -5.660945e+01
   3.019528e+01  -1.627199e+00
   5.935540e+01   9.720409e+00
   5.502181e+01   4.613547e+00
  -6.302892e+00   5.189890e+01
  -4.931232e+01   1.238722e+01
  -5.298339e+01   5.404571e+01
   2.072691e+01   6.478883e+00
   1.534626e+01  -2.062704e+01
  -4.091063e-01  -9.330100e+00
  -6.609054e+01  -1.556757e+01
