
 $NMID
 id='ANONYMOUS ', fmtdat='(2E16.6)'
 volume=1.0
 tramp=1.0
 $END
  -2.037108e+03   1.379415e+01
  -1.390742e+03  -1.022946e+03
  -9.062291e+01  -1.356766e+03
   7.595138e+02  -9.531063e+02
   6.634838e+02  -2.883097e+02
   1.581275e+02   1.046458e+02
  -1.639658e+02  -3.104742e+01
  -1.364404e+01  -2.524348e+02
   2.197475e+02  -3.449886e+02
   4.387620e+02  -9.242125e+01
   2.716128e+02   2.805186e+02
   4.485541e+01   3.631462e+02
  -1.473565e+02   2.005817e+02
  -1.200683e+02  -1.924603e+02
   1.161934e+02  -3.693332e+02
   3.157769e+02  -1.051399e+02
   2.428130e+02   2.773353e+02
   7.847227e+00   4.885217e+02
  -2.888205e+02   2.465358e+02
  -3.496105e+02  -7.000966e+01
  -2.049255e+02  -2.103822e+02
   2.638727e+00  -2.023334e+02
   3.543595e+00  -1.184944e+02
  -1.394280e+02  -1.157069e+02
  -1.979193e+02  -1.545062e+02
   6.552658e+01  -2.107394e+02
   3.261910e+02  -1.215620e+01
   3.361986e+02   1.670272e+02
   1.054390e+02   1.990053e+02
  -2.482845e+02   1.248466e+02
  -3.180185e+02  -1.399458e+02
  -8.163049e+01  -2.072012e+02
   1.894264e+02  -2.818035e+02
   3.075962e+02  -7.082149e+01
   2.237471e+02   9.685833e+01
   1.029501e+02   2.356819e+02
   5.256592e+01   1.411178e+02
   7.117920e+01  -3.727006e+01
   1.170236e+02  -3.764920e+01
   4.919167e+01   1.147291e+02
  -6.949477e+01   3.017233e+02
  -1.495556e+02   2.782873e+02
  -1.884841e+02   3.197947e+01
  -9.086163e+01  -1.739100e+02
   4.712456e+01  -7.600805e+01
   4.043173e+01   1.916697e+02
  -1.025207e+02   2.128840e+02
  -3.025226e+02   3.838321e+01
  -2.796439e+02  -2.429156e+02
  -8.727509e+01  -3.508576e+02
   1.841284e+02  -1.770427e+02
   3.274288e+02   6.466519e+01
   2.379684e+02   1.670694e+02
  -1.065412e+01   1.425102e+02
  -1.402510e+02   7.537592e+01
  -1.547518e+02   4.111056e+01
  -1.519267e+01   2.655947e+00
   3.380029e+01  -8.560688e+00
  -7.072371e+01  -2.645970e+01
  -1.498805e+02  -6.820935e+01
  -7.371597e+01  -1.296751e+02
   1.058007e+02  -1.401052e+02
   2.711618e+02  -9.557273e+01
   1.758578e+02   8.702530e+01
   1.121416e+01   2.294880e+02
  -2.412772e+02   2.320192e+02
  -2.826111e+02   7.847713e+01
  -1.708521e+02  -1.468787e+02
  -4.953966e+01  -2.470712e+02
   2.176593e+01  -2.213697e+02
  -4.349721e-01  -1.301916e+02
   3.409137e+01  -7.515971e+01
   1.387645e+02  -6.043544e+01
   2.233047e+02  -9.844163e+00
   1.927620e+02   8.401287e+01
   8.133941e+01   1.914664e+02
  -6.582454e+01   1.470577e+02
  -1.291867e+02  -2.430757e+01
  -1.122385e+02  -1.525085e+02
   3.064875e+01  -1.377186e+02
   1.776849e+02  -3.837920e+01
   2.140800e+02   1.379980e+02
   1.137565e+02   1.995325e+02
  -4.805840e+01   1.851258e+02
  -9.705408e+01   1.183954e+02
  -9.465197e+01   4.989074e+01
  -1.358394e+02   7.203378e+01
  -2.436872e+02   1.986095e+01
  -3.004592e+02  -7.258986e+01
  -1.847205e+02  -2.361800e+02
   4.081871e+01  -3.074454e+02
   2.883816e+02  -2.696427e+02
   3.244498e+02  -9.432722e+01
   1.725162e+02   9.157945e+01
  -3.624900e+00   1.605332e+02
  -7.208312e+01   1.287964e+02
  -3.131160e+01   8.293739e+00
   7.625462e+01  -2.740535e+01
   7.280753e+01   3.136278e+01
   1.241823e+01   1.080037e+02
  -5.757492e+01   8.436471e+01
  -6.613598e+01  -2.617111e+01
   2.625556e+01  -8.444589e+01
   9.694481e+01   1.783556e+01
   1.269933e+02   1.430044e+02
   3.303477e+01   2.410907e+02
  -1.666101e+02   1.459570e+02
  -2.388330e+02  -6.385506e+01
  -1.828644e+02  -2.132411e+02
  -1.378635e+01  -2.463211e+02
   1.088589e+02  -1.086127e+02
   8.006253e+01   2.769384e+01
   6.901461e+00   4.945437e+00
  -5.082276e+01  -6.133016e+01
   6.068907e+00  -1.026741e+02
   9.217719e+01  -5.618688e+01
   8.906837e+01   2.597451e+01
   4.224988e+01   2.218086e+01
  -6.998287e+01   1.402382e+01
  -7.383405e+00  -6.241415e+01
   1.190458e+02  -5.055686e+01
   2.240841e+02   2.162558e+01
   1.938419e+02   1.669605e+02
   3.269606e+01   2.230041e+02
  -1.597318e+02   1.819010e+02
  -1.784796e+02   1.804510e+01
  -8.350963e+01  -5.671977e+01
   2.454510e+01  -3.115621e+01
   3.448442e+01   4.554774e+01
  -4.686949e+01   5.084421e+01
  -1.354341e+02  -3.191049e+00
  -1.388410e+02  -9.683611e+01
  -6.914928e+01  -1.489366e+02
   7.490245e+01  -8.851827e+01
   9.550442e+01  -1.985980e+01
   2.215960e+00   2.726412e+01
  -4.346136e+01  -7.374929e+01
  -1.129584e+01  -9.592884e+01
   8.768375e+01  -9.520235e+01
   2.145673e+02   1.591880e+01
   1.406802e+02   1.457326e+02
   2.286129e+00   1.809815e+02
  -1.229472e+02   1.310990e+02
  -1.258467e+02   9.457692e+00
  -6.228634e+00  -4.701931e+01
   8.335596e+01  -4.620267e+01
   7.542397e+01  -1.498702e+01
   4.703807e+00   3.418801e+01
  -6.549158e+01   5.469228e+01
  -4.691639e+01  -2.520144e+01
   8.030955e+01  -2.329484e+01
   7.881200e+01   6.660711e+01
   2.512775e+01   1.305019e+02
  -1.226706e+02   9.695457e+01
  -1.642621e+02  -7.516048e+00
  -1.131626e+02  -1.434213e+02
  -2.315449e+01  -1.684714e+02
   7.956139e+01  -8.889690e+01
   1.006843e+02   2.238402e+00
   3.469344e+01   2.945386e+01
   2.080487e+01   1.921164e+01
   4.806540e+01   2.566818e+01
   3.995934e+01   4.043285e+01
   8.803452e+01   3.114638e+01
   1.672840e+01   1.213601e+02
  -8.554592e+01   6.193658e+01
  -6.004637e+01  -5.332097e+01
   4.302398e+01  -9.673910e+01
   1.287849e+02  -5.874728e+01
   1.373789e+02   3.842742e+01
   5.136001e+01   1.294169e+02
  -7.882537e+01   1.428678e+02
  -1.625454e+02   4.681547e+01
  -1.341567e+02  -4.142164e+01
  -6.045532e+01  -9.747074e+01
   1.768790e+01  -6.392233e+01
   4.096911e+01  -6.080236e+01
   1.613033e+01  -8.848983e+01
   6.454509e+01  -3.981035e+01
   7.426399e+01  -5.504318e+01
   1.368777e+02   3.474961e+01
   6.860048e+01   1.571959e+02
  -2.147537e+01   1.330223e+02
  -9.555862e+01   9.810450e+01
  -1.449196e+02   1.623981e+00
  -9.756562e+01  -1.123694e+02
   4.319519e+00  -1.166787e+02
   6.584311e+01  -4.202903e+01
   4.617552e+01   3.426326e+01
  -4.230112e+00   4.607343e+01
  -3.489022e+01   7.494325e+01
   1.382014e+01  -2.789625e+01
   7.567051e+01   5.358335e-01
   5.433591e+01   1.112503e+01
  -7.623898e+01   4.364901e+01
  -1.078939e+02  -1.121830e+01
  -6.643738e+01  -4.822990e+01
   2.101441e+01  -6.807238e+01
   1.130779e+02  -3.428529e+01
   9.683392e+01  -2.242557e+00
   3.563491e+01   1.612345e+01
  -3.119810e+01   3.306698e+01
  -4.264975e+01  -9.227700e+00
   5.425379e-01  -4.206541e+01
   2.716560e+01  -2.553006e+01
   6.778691e+01   7.668093e+00
   5.243420e+01   4.565627e+01
   2.280981e+01   1.583735e+00
   6.578739e+01  -1.595971e+01
   8.467064e+00   2.938864e+01
  -6.111761e+00   7.757518e+01
  -2.391396e+01   1.088337e+02
  -1.059883e+02   8.331107e+01
  -1.475811e+02  -1.598630e+01
  -7.301003e+01  -4.048880e+01
   1.320943e+01  -1.236790e+02
   8.341049e+01  -8.555076e+01
   6.430544e+01  -2.921471e+01
  -7.270411e+01  -2.719501e+01
  -8.974643e+01  -8.143071e+01
  -4.784313e+01  -8.600091e+01
   7.423384e+01  -8.107562e+01
   1.406262e+02  -1.550393e+01
   1.081694e+02  -2.026229e+00
   1.515404e+01   5.034513e+01
  -5.997659e+01   2.535639e+01
  -5.207794e+01   7.453807e+00
   2.852801e+01  -3.476903e+01
   8.075020e+01   1.290391e+01
  -2.429721e+00   8.433222e+01
  -9.180516e+01   1.245832e+02
  -1.238422e+02   6.582027e+01
  -5.762165e+01  -6.917025e+01
   9.199960e+00  -1.240360e+02
   3.469256e+01  -1.267783e+02
   8.411433e+01   6.482437e+00
   4.240310e+01   8.916666e+01
   6.602143e-01   7.063865e+01
  -5.483515e+00   3.297845e+01
  -3.083932e+01  -3.198249e+01
  -8.223201e+00  -7.197382e+00
  -2.343043e+01  -5.640021e-01
  -1.740600e+01  -2.793478e+01
  -2.749038e+01  -6.054609e+01
  -3.376936e+01  -4.529791e+01
  -3.041524e+00  -3.577143e+01
   5.580958e+01   4.675566e+01
   5.848461e+01   5.292092e+01
   5.638533e+00   5.958168e+01
  -6.510795e+01   2.688084e+00
  -8.094941e+01  -5.105592e+00
  -8.080310e+00   9.167299e+00
   1.707015e+01  -6.590538e+00
   1.331997e+01  -4.742160e-01
   4.800986e+00   5.337470e+00
  -1.603999e+01  -8.052724e-01
   4.876893e+01  -1.035313e+01
   8.570170e+01   2.447264e+01
   1.251790e+01   5.970358e+01
  -4.461541e+01   8.966170e+01
  -1.301780e+02   5.979331e+01
  -1.086570e+02  -3.207726e+01
   2.710022e+00  -1.170784e+02
   5.242676e+01  -1.475756e+02
   8.710438e+01  -4.194779e+01
   5.580926e+01   7.913373e+00
   3.863026e+01   2.391672e+01
  -8.387296e+00   2.356057e+01
   5.285424e+00  -4.292722e+01
   1.912847e+01   1.726311e+01
   4.084481e+01   7.600673e+01
  -5.521955e+01   3.559396e+01
  -5.658876e+01  -1.355418e+01
  -3.348694e+01  -3.907610e+01
  -1.182852e+01  -4.268593e+01
   8.429118e+01  -9.577534e+00
   9.321152e+01   4.018261e+00
   1.998002e+01   6.817175e+01
  -1.647002e+01   2.492964e+01
  -7.951440e+01   1.155800e+01
  -4.854535e+01  -4.843137e+01
   6.174363e+01  -4.163208e+01
   6.507164e+01  -1.110238e+01
  -1.188585e+01   7.779847e+00
  -5.339197e+01   6.356331e+00
   2.596630e+00   1.938817e+01
   6.088748e+01  -2.076864e+01
   1.084032e+02  -5.483208e+01
   4.928316e+01   4.520239e+01
   2.664950e+01   9.253685e+01
  -4.479746e+01   6.713681e+01
  -4.787704e+01   1.551239e+01
  -9.196152e+00  -2.520384e+01
  -4.788379e-01  -2.807401e+01
   3.265025e+01   3.905330e+01
  -9.703398e+00   5.721453e+01
  -1.689627e+01   1.363916e+01
  -4.922203e+00   5.467070e+01
   9.166426e+00  -3.936764e+01
   1.316306e+01   2.711360e+01
  -1.198457e+01   2.412550e+01
  -1.962936e+01   1.510520e+01
   1.051188e+00  -1.077021e+01
  -3.040802e+01  -6.803797e+01
   2.704788e+01   4.422889e+00
  -1.190602e+00   3.127069e+01
   6.122824e+01  -9.724754e+00
  -4.023004e+01   4.517450e+01
  -3.819832e+01  -4.065380e+01
  -5.760041e+00  -2.841658e+01
   4.934265e+01  -4.962887e+01
   1.041302e+02  -2.101913e+00
   7.312736e+01   2.065369e+01
  -2.318650e+01   4.946707e+01
  -3.118831e+01   1.968403e+01
  -6.039614e+01  -1.371332e+01
   5.311355e+01  -7.304969e+00
   4.203559e+01   5.530390e+00
   8.279211e+00   2.316531e+01
  -4.959971e+01   1.974655e+01
