
 $NMID
 id='ANONYMOUS ', fmtdat='(2E16.6)'
 volume=1.0
 tramp=1.0
 $END
  -1.857900e+03  -1.929165e+02
  -1.068518e+03  -9.148939e+02
  -3.610276e+01  -1.089593e+03
   5.365404e+02  -7.012617e+02
   5.045680e+02  -2.222848e+02
   1.682901e+02   5.920105e+01
  -5.656887e+01  -3.052560e+01
  -5.598542e+01  -2.824023e+02
   1.944603e+02  -3.161537e+02
   4.012515e+02  -2.326613e+01
   2.980514e+02   1.751461e+02
   3.392945e+01   3.492852e+02
  -1.460524e+02   9.675651e+01
  -1.053614e+02  -2.088503e+02
   7.966582e+01  -2.637434e+02
   2.102020e+02  -9.648344e+01
   1.460565e+02   2.150341e+02
  -6.573605e+01   3.994599e+02
  -2.169542e+02   2.146870e+02
  -2.623711e+02  -9.086900e+01
  -1.314404e+02  -1.764228e+02
   1.098665e+01  -1.871660e+02
   8.037853e+01  -9.191851e+01
  -1.023255e+02  -1.701810e+02
  -1.197134e+02  -1.869179e+02
   1.036653e+02  -1.860731e+02
   2.903820e+02  -6.140005e+01
   3.228278e+02   1.084580e+02
   1.268808e+02   2.148998e+02
  -1.465474e+02   9.309382e+01
  -2.216546e+02  -1.116122e+02
  -1.232609e+02  -2.019766e+02
   1.523588e+02  -2.055542e+02
   3.023461e+02  -5.539140e+01
   2.562148e+02   1.059756e+02
   1.042043e+02   1.898297e+02
  -1.321526e+01   1.003882e+02
   1.738049e+01  -6.538705e+01
   1.241373e+02  -4.901140e+01
   8.538412e+01   1.278434e+02
  -3.031280e+01   2.847320e+02
  -9.795520e+01   1.863803e+02
  -1.228973e+02   2.901188e+01
  -3.487871e+01  -1.761412e+02
   6.892440e+01  -4.141768e+01
   1.011713e+02   1.102378e+02
  -8.192561e+01   1.990218e+02
  -2.854093e+02   3.802547e+01
  -2.658780e+02  -2.126633e+02
  -7.374489e+01  -2.680548e+02
   1.810063e+02  -1.484900e+02
   3.075133e+02   3.394232e+01
   2.127504e+02   1.285356e+02
   2.727061e+01   9.514075e+01
  -1.916116e+02   3.432140e+01
  -1.597361e+02  -1.115209e+01
  -5.571047e+01  -3.776814e+00
   2.187992e+00  -1.357650e+01
  -5.657551e+01  -2.073590e+00
  -1.136005e+02  -4.671057e+01
  -6.360240e+01  -1.448669e+02
   8.606047e+01  -1.584798e+02
   2.071101e+02  -1.102299e+02
   1.359418e+02   8.048366e+01
  -1.226100e+01   1.947798e+02
  -1.474166e+02   2.082720e+02
  -1.788975e+02   9.217206e+01
  -1.281297e+02  -8.198069e+01
  -6.279970e+01  -2.200318e+02
   5.784857e+00  -1.815574e+02
   1.400463e+01  -1.270069e+02
   2.856430e+01  -7.767594e+01
   1.396576e+02  -6.905367e+01
   1.805765e+02   2.376241e+01
   1.500976e+02   1.122375e+02
   6.198295e+01   1.957860e+02
  -1.100271e+02   9.552655e+01
  -1.282356e+02  -6.125880e+01
  -6.277084e+01  -1.668709e+02
   2.687130e+01  -1.399395e+02
   1.724766e+02  -4.039272e+01
   1.936087e+02   8.139989e+01
   1.431854e+02   1.856115e+02
   2.583819e+01   1.610945e+02
  -1.116916e+02   1.238841e+02
  -1.060700e+02   6.838011e+01
  -8.625906e+01   6.606545e+01
  -2.177477e+02   3.347927e+01
  -2.562664e+02  -6.902485e+01
  -1.724593e+02  -1.813292e+02
   2.083072e+01  -2.381580e+02
   2.367029e+02  -2.352056e+02
   2.591804e+02  -1.159919e+02
   1.823512e+02   4.294825e+01
   1.940274e+01   1.382670e+02
  -3.491159e+01   1.543322e+02
  -2.218412e+00   4.127116e+01
   6.466012e+01  -1.990092e+01
   5.483151e+01   5.981454e+00
   2.558473e+01   5.712703e+01
  -5.240219e+01   3.191727e+01
  -6.242649e+01  -1.914884e+01
   5.488492e+01  -6.105776e+01
   1.231057e+02   2.436360e+01
   8.130483e+01   1.535775e+02
  -6.340840e+01   2.235590e+02
  -1.660656e+02   1.316840e+02
  -2.485869e+02  -3.430940e+01
  -1.893102e+02  -1.829041e+02
  -5.828536e+01  -1.724664e+02
   7.178081e+01  -9.209855e+01
   6.183443e+01  -3.949871e+01
   1.528866e+01  -1.870964e+01
  -5.986159e+00  -7.068557e+01
   1.130174e+01  -6.614899e+01
   5.375638e+01  -4.725999e+01
   7.940432e+01   2.823800e+01
  -1.168235e+01   1.219804e+01
   1.667458e+00   1.820593e+01
  -1.623958e+01  -5.807120e+01
   7.386862e+01  -5.285019e+01
   1.859425e+02   2.553523e+01
   1.651712e+02   1.527835e+02
   3.149978e+01   1.532823e+02
  -1.647009e+02   1.481245e+02
  -1.808819e+02   5.450664e+01
  -9.862444e+01  -9.644673e+00
  -3.247280e+01  -6.467000e+01
  -1.225700e+00   3.627979e+01
  -4.931282e+01   1.968596e+01
  -1.148699e+02   9.944885e+00
  -1.063632e+02  -9.181381e+01
  -1.239220e+01  -1.079523e+02
   1.160478e+02  -6.690912e+01
   8.450203e+01  -2.197621e+01
   4.583917e+01   1.465894e+01
  -2.235277e+01  -3.830207e+01
  -2.504945e+01  -5.107141e+01
   7.516667e+01  -8.208585e+01
   1.492605e+02   7.432211e+00
   8.738398e+01   4.908030e+01
   5.296068e+01   1.175519e+02
  -6.498688e+01   3.167529e+01
  -9.427401e+01   9.608619e+00
  -9.877775e+00  -5.115247e+01
   6.108593e+01  -4.345370e+01
   6.328320e+01  -2.316337e+01
  -2.303840e+01   1.046151e+01
  -2.755441e+01   1.907801e+01
   4.794018e-01   3.177017e+01
   4.280416e+01  -4.516901e+00
   3.193238e+01   9.705047e+01
   1.512785e+01   9.135622e+01
  -1.031362e+02   1.027725e+02
  -1.494695e+02  -5.012171e-02
  -1.393242e+02  -1.079934e+02
   3.329237e+01  -1.115566e+02
   6.958357e+01  -9.281891e+01
   9.390839e+01   1.618733e+01
   3.009858e+01   1.272297e+01
   2.030937e+01   4.726942e+01
   4.729339e+01  -1.650124e+01
   1.008972e+02  -1.843283e+01
   3.000794e+01   9.796013e+00
   2.082088e+01   5.807098e+01
  -5.315613e+01   3.451375e+01
  -5.215300e+01  -5.668635e+01
  -9.850449e+00  -8.811324e+01
   1.140055e+02  -4.731694e+01
   1.467923e+02   6.089154e+01
   4.774310e+01   1.324542e+02
  -6.491116e+01   1.330631e+02
  -1.689320e+02   6.076022e+01
  -1.301590e+02  -9.799762e+01
  -6.534878e+01  -1.084215e+02
   3.133438e+01  -7.238456e+01
   8.475190e+00  -5.901767e+01
   4.694296e+01  -5.071510e+01
   6.341512e+01  -6.687881e+01
   6.424793e+01  -4.795433e+01
   8.049117e+01   3.371502e+01
   7.341894e+01   1.026928e+02
   1.552597e+01   1.106841e+02
  -6.109603e+01   9.577699e+01
  -1.673761e+02   1.381280e+01
  -6.588851e+01  -9.361448e+01
  -3.912237e+00  -1.105161e+02
   6.472054e+01  -3.417935e+01
   6.410286e+01   1.815251e+01
  -2.068860e+01   2.263839e+01
  -9.512783e+00   1.003532e+01
  -1.308218e+01  -6.027265e+00
   8.436945e+01  -2.511246e+01
   4.313456e+01   1.520701e+01
  -1.013743e+01   2.104861e+01
  -1.156743e+02  -1.760383e+01
  -1.066775e+02  -4.424655e+01
   1.578921e+01  -5.566311e+01
   7.571241e+01  -2.991442e+01
   7.401629e+01   5.059578e-02
   2.096285e+01   4.254850e+01
  -2.220791e+01   5.399265e+01
  -6.053512e+01  -3.933766e+01
  -6.646325e+01  -3.246573e+01
   5.370248e+01  -5.465382e+01
   4.231378e+01  -9.285231e+00
  -2.632025e+00  -1.070540e+01
   1.055678e+01   8.674355e+00
   3.238467e+01   1.581632e+00
   5.159556e+01  -7.324311e+00
   8.819161e+01   4.681133e+01
  -1.028140e+01   7.995457e+01
  -7.487962e+01   9.521792e+01
  -9.460450e+01   2.470934e+01
  -1.143188e+02  -4.370031e+01
  -3.450198e+01  -5.712870e+01
   2.821948e+01  -4.414059e+01
   5.060597e+01   8.165151e-02
   6.376001e+00   9.465487e+00
  -1.116239e+02  -3.344509e+01
  -4.878974e+01  -4.180640e+01
   4.750433e+01  -8.840900e+01
   1.087399e+02  -3.453509e+01
   1.049903e+02   2.310116e+01
   5.341031e+01   4.523057e+01
  -1.961618e+01   5.480897e+01
  -4.571596e+01  -2.015778e+00
   2.420943e+01   1.681890e+01
   8.097969e+01   5.009432e+01
   2.283759e+01   1.073031e+02
  -4.362630e+01   7.324738e+01
  -1.111206e+02   8.117684e+01
  -1.360802e+02  -1.541292e+01
   1.371335e+01  -1.304938e+02
   2.267253e+01  -1.024134e+02
   7.593037e+01  -4.966368e+01
   4.454301e+01   7.686123e+01
   2.015897e-01   8.934923e+01
  -1.234603e+01  -6.389403e+00
  -3.306071e+01  -1.995790e+01
   1.538888e+01  -2.923101e+01
   4.072676e+01  -1.714852e+01
   3.106029e+00  -3.744174e+01
  -3.320610e+01  -6.128715e+01
  -1.441178e+01  -2.268081e+01
  -2.157781e+01  -4.299970e+01
   7.626500e+01  -9.830110e+00
   4.977479e+01   2.556678e+01
   5.286687e+01   4.770478e+01
  -3.921871e+01   2.420266e+00
  -4.459203e+01  -5.991826e+00
   2.971704e+01   8.301231e+00
   3.081267e+01   3.401367e+01
   4.392150e+01   1.102864e+01
   9.942342e+00   2.122874e+01
  -3.310164e+01   2.765293e+01
   2.355065e+01  -9.022843e+00
   3.973122e+01  -2.035495e+01
   3.936248e+01   4.435675e+01
  -6.930638e+01   4.957604e+01
  -1.278926e+02   4.996984e+01
  -1.265789e+02  -7.069270e+01
  -3.927277e+01  -1.083999e+02
   4.880984e+01  -1.269103e+02
   1.040166e+02  -2.337466e+01
   5.102207e+01  -1.911670e+01
   2.317825e+01   1.120435e+01
  -9.336338e+00   9.270099e+00
   2.774908e+01  -3.664285e+00
   3.434298e+01  -2.104512e+00
   3.387824e+01   5.518527e+01
  -1.815079e+01   6.481957e+01
  -4.824994e+01  -2.344508e+01
  -6.889116e+01  -9.363598e+01
  -4.437429e+01  -4.998626e+01
   4.817244e+01  -1.923507e+01
   9.981666e+01   3.102419e+01
   4.021470e+01   9.897237e+01
  -9.251654e+01   6.615182e+01
  -8.977018e+01  -2.341528e+01
  -3.413372e+01  -8.543502e+01
   8.805301e-01  -4.447754e+01
   1.800087e+01  -6.562763e+00
  -4.722630e+01   1.953666e+01
  -6.085683e+01   2.770969e+01
  -2.908707e+01  -3.462153e+01
   1.803998e+01  -3.900737e+01
   9.929127e+01  -2.976361e+01
   4.279373e+01   1.833255e+01
  -1.671087e+01   4.443496e+01
  -3.630399e+01   6.191505e+01
  -5.351089e+01   3.469441e+00
   1.015107e+01  -8.358265e+00
  -2.279177e+00  -4.047191e+01
   2.595278e+01   1.818708e+01
   2.624024e+01   3.656987e+01
  -2.178747e+01   1.618178e+01
  -5.070664e+01   3.453007e+01
  -2.603194e+01   1.863940e+01
   1.601931e+01  -3.659414e+01
  -4.145419e+01   2.845274e+01
  -5.914850e+01  -2.050926e+00
   1.522642e+01  -4.876940e+01
   3.391285e+00  -1.342955e+01
   1.100746e+01  -5.889335e+01
   5.008987e+01   2.785236e+01
   3.865699e+01   4.551115e+01
  -5.016037e+01   2.650750e+01
  -9.566402e+01  -5.581743e+01
  -2.036182e+01  -5.196140e+01
   4.046068e+01  -6.031373e+01
   7.064199e+01  -5.835260e+00
   7.807404e+01   6.388451e+00
  -4.345985e+01   4.752504e+01
   4.238771e-01   1.770255e+01
  -2.381231e+01  -3.050091e+01
  -8.564717e+00  -1.760094e+00
   1.124492e+01   3.389191e+01
   1.803091e+01   5.766408e+01
   1.561852e+01   1.105863e+01
