
 $NMID
 id='ANONYMOUS ', fmtdat='(2E16.6)'
 volume=1.0
 tramp=1.0
 $END
  -2.402360e+03  -6.926268e+01
  -1.564540e+03  -1.360690e+03
   1.398936e+02  -1.539665e+03
   1.014169e+03  -8.058317e+02
   7.165853e+02  -1.179126e+02
  -4.875116e+01   1.006525e+02
  -3.147509e+02  -1.769146e+02
  -4.023888e+01  -4.757273e+02
   3.817334e+02  -3.882338e+02
   4.812296e+02  -4.929260e+01
   2.745957e+02   4.104337e+02
   4.884566e+00   5.131340e+02
  -3.074264e+02   1.403833e+02
  -1.767524e+02  -3.450203e+02
   3.093909e+01  -4.277158e+02
   2.897588e+02  -4.346907e+01
   2.153004e+02   3.951111e+02
  -9.547234e+01   4.156665e+02
  -3.754952e+02   2.206341e+02
  -3.551379e+02  -1.634474e+02
  -4.388287e+01  -3.710678e+02
   7.589562e+01  -1.786052e+02
   1.277640e+02  -4.285542e+01
  -1.144745e+02  -3.232365e+01
  -2.448999e+02  -1.059271e+02
  -5.785885e+01  -2.871543e+02
   3.171689e+02  -1.614918e+02
   4.473788e+02   2.017189e+02
   1.566376e+02   2.790002e+02
  -2.760774e+02   1.597090e+02
  -3.936406e+02  -7.673874e+01
  -1.451390e+02  -2.311269e+02
   2.279768e+02  -2.820176e+02
   3.358423e+02  -1.058565e+02
   2.112234e+02   1.303581e+02
   5.818213e+01   2.631057e+02
  -5.741130e+01   1.195752e+02
   1.746146e+01  -9.560057e+01
   1.303036e+02  -1.312908e+02
   1.847955e+02   9.658308e+01
   5.132696e+01   3.740168e+02
  -1.763728e+02   3.560517e+02
  -2.922880e+02  -2.562911e+01
  -8.715057e+01  -2.326744e+02
   1.244711e+02  -1.106283e+02
   1.184751e+02   2.021849e+02
  -8.492560e+01   2.960060e+02
  -3.197292e+02   4.963546e+01
  -3.331546e+02  -3.073044e+02
  -8.481273e+01  -3.550868e+02
   2.314883e+02  -2.078141e+02
   4.097386e+02   7.103346e+01
   2.551781e+02   2.383384e+02
  -1.038996e+02   2.130934e+02
  -2.255949e+02   3.762359e+01
  -1.260639e+02  -3.150664e+01
   2.419111e+01  -4.135266e+00
   2.245727e+01   5.374715e+01
  -1.172686e+02   5.113466e+01
  -2.172920e+02  -6.700600e+01
  -9.455595e+01  -1.610468e+02
   7.520402e+01  -1.536979e+02
   2.408655e+02  -6.208224e+01
   1.491316e+02   7.644437e+01
  -2.793365e+01   2.083765e+02
  -2.016166e+02   2.310207e+02
  -2.670192e+02   1.361133e+02
  -1.963991e+02  -1.255450e+02
  -8.276059e+01  -2.718359e+02
   2.665283e+01  -2.499139e+02
   6.921993e+01  -1.195790e+02
   7.736062e+01  -6.942727e+01
   7.772412e+01  -8.386356e+01
   1.659932e+02  -5.098324e+01
   1.797062e+02   4.699228e+01
   5.686107e+01   1.566883e+02
  -5.385440e+01   1.608264e+02
  -1.265618e+02  -3.543559e+01
  -1.280440e+02  -1.603336e+02
   4.002865e+01  -2.027448e+02
   2.014557e+02  -4.167390e+01
   2.342481e+02   9.447706e+01
   1.250474e+02   2.292824e+02
  -9.384097e+01   2.172257e+02
  -1.172388e+02   1.001032e+02
  -7.986908e+01   6.711114e+01
  -8.858477e+01   4.104423e+01
  -1.940072e+02  -5.162124e+00
  -2.809181e+02  -7.946062e+01
  -2.086946e+02  -2.233211e+02
   2.195709e+01  -3.305058e+02
   2.433963e+02  -2.819218e+02
   3.863556e+02  -1.454732e+02
   2.167697e+02   9.360575e+00
   2.925277e+01   1.971382e+02
  -2.982989e+01   1.312974e+02
  -1.854807e+01   3.733510e+01
   1.062620e+02  -9.042535e+01
   1.256473e+02   1.809944e+01
   3.136841e+01   1.765365e+02
  -1.188952e+02   7.158195e+01
  -1.198011e+02  -2.312291e+01
   2.332315e+01  -1.149657e+02
   1.559325e+02  -1.056491e+01
   1.345322e+02   1.819919e+02
  -6.074003e+01   2.452591e+02
  -1.774738e+02   1.715019e+02
  -2.552338e+02  -4.721411e+01
  -1.872757e+02  -1.954943e+02
  -8.083817e+01  -1.448629e+02
   7.834871e+01  -1.199154e+02
   9.853594e+01  -4.398614e+01
   5.535843e+01  -7.080464e+00
  -4.630472e+01  -6.541977e+01
  -1.027058e+01  -5.208972e+01
   1.228425e+02  -3.168337e+01
   1.307698e+02   5.822719e+01
   4.513736e+01   9.083219e+01
  -5.211744e+01  -3.776714e+01
  -2.579145e+01  -5.760945e+01
   7.857167e+01  -6.122629e+01
   1.645389e+02   2.722489e+01
   2.083691e+02   1.339198e+02
   1.179491e+01   1.520661e+02
  -1.384627e+02   1.608195e+02
  -2.087288e+02   1.070082e+02
  -1.215526e+02  -5.433157e+01
   4.507838e+00  -6.434021e+01
   6.835007e+01  -1.578165e+00
  -1.683872e+01   9.031420e+01
  -1.709145e+02   2.801942e+01
  -2.112837e+02  -5.016269e+01
  -8.781793e+00  -1.612828e+02
   9.920061e+01  -1.263673e+02
   1.136257e+02  -3.787633e+01
   4.845195e+01   3.098940e+01
  -4.646473e+01  -1.805150e+01
  -5.245458e+00  -7.546794e+01
   8.085961e+01  -9.861320e+01
   1.946041e+02  -2.418873e+01
   1.511859e+02   6.712650e+01
  -1.167073e+01   1.619192e+02
  -1.057865e+02   1.075961e+02
  -1.140619e+02   2.475297e+01
  -3.364500e+01  -7.038648e+01
   2.366111e+01  -6.901655e+01
   7.663467e+01  -5.888444e+00
   3.704274e+01   4.900947e+01
  -3.004147e+01   1.158303e+01
   2.059029e+01   2.451594e+00
   4.203013e+01  -1.343043e+01
   4.066237e+01   5.219093e+01
  -3.466150e+00   8.988351e+01
  -1.463329e+02   1.077458e+02
  -2.284320e+02   7.275365e+00
  -1.603971e+02  -1.405230e+02
  -1.054742e+01  -1.905466e+02
   1.215831e+02  -1.147867e+02
   1.165113e+02   1.143758e+00
   5.445545e+01   1.503486e+01
   6.267943e+01   1.790020e+01
   4.077376e+01   4.145764e+00
   1.412931e+02   3.501588e+01
   1.188879e+01   7.655292e+01
  -5.301854e+01   5.922761e+01
  -1.022457e+02   2.069346e+01
  -8.124475e+01  -2.670510e+01
   1.415433e+00  -8.762883e+01
   1.180100e+02  -5.863168e+01
   1.722489e+02   7.679453e+01
   4.057855e+01   1.387951e+02
  -1.116521e+02   1.918204e+02
  -2.103386e+02   9.515934e+01
  -2.048555e+02  -6.722872e+01
  -5.334469e+01  -1.569105e+02
   7.135479e+01  -6.855127e+01
   1.744724e+01  -3.554123e+01
   4.952810e+01  -4.176346e+01
   3.844385e+01  -7.247586e+01
   8.333196e+01  -6.837095e+01
   1.214436e+02   4.001422e+01
   1.024644e+02   1.339422e+02
   4.442338e-01   1.861506e+02
  -1.007676e+02   1.220637e+02
  -1.567343e+02   1.542683e+01
  -9.124043e+01  -8.269919e+01
  -5.113352e+01  -1.109985e+02
   8.536832e+01  -7.502904e+01
   6.749223e+01   9.860673e+00
   2.339749e+01   4.138940e+01
  -1.062887e+01   3.283651e+01
   1.783172e+01   4.913436e+00
   9.113384e+01  -2.052598e+01
   3.081369e+01   1.232935e+01
  -9.593013e+01   5.312566e+01
  -1.070573e+02  -3.536765e+01
  -1.052698e+02  -7.347814e+01
   1.250160e+01  -8.066115e+01
   8.131421e+01  -5.424416e+01
   1.015918e+02  -2.601721e+01
   5.239447e+01   4.650330e+01
  -3.302299e+01   4.921201e+01
  -2.077449e+01  -3.726034e+01
  -5.398744e+00  -7.753661e+01
  -2.736531e+01  -7.781698e+01
   8.578927e+01  -2.168154e+01
   3.837623e+01   9.828364e+00
   1.694437e+00   3.084653e+01
   4.587433e+01   9.027815e+00
   1.801361e+01  -9.334200e+00
   2.688081e+01   8.989193e+01
  -5.541329e+01   1.517914e+02
  -1.386851e+02   8.020012e+01
  -1.127092e+02   2.469927e+01
  -1.316641e+02  -1.982848e+01
   2.079238e+00  -1.157353e+02
   5.282286e+01  -4.998632e+01
   2.409217e+01   4.180919e+00
  -1.520602e+01   1.946992e+01
  -7.797625e+01  -3.331154e+01
  -5.210608e+01  -9.216312e+01
   8.701534e+01  -6.674766e+01
   1.426253e+02  -1.377595e+01
   7.292477e+01   3.546681e+01
   9.057073e+00   6.040192e+01
  -5.160493e+01   6.101125e+01
  -3.483669e+01   6.942847e+00
   4.747013e+01   8.325098e+00
   6.003506e+01   2.101837e+01
   2.995691e+01   5.107665e+01
  -1.041448e+02   1.082002e+02
  -1.129174e+02   5.751509e+01
  -1.072207e+02  -5.545734e+01
  -1.220280e+01  -1.447450e+02
   2.882373e+01  -5.102764e+01
   6.176124e+01  -1.106372e+01
   4.318422e+01   7.268441e+01
   2.545014e+01   1.054988e+02
  -3.812091e+01   5.785844e+01
  -2.346098e+01  -5.814768e+00
  -3.239219e+01   3.336769e+01
   1.187964e+01  -1.339755e+01
  -3.719341e+01   1.523744e+01
  -7.763992e+01  -8.880610e+01
  -8.098008e-01  -3.334433e+01
  -2.877736e+00  -5.522303e+01
   7.872910e+01  -3.287581e+00
   7.291838e+01   3.502037e+01
   1.806441e+01  -9.038352e+00
  -6.652475e+01   6.158301e+01
  -5.690578e+01   2.584461e+01
   4.966762e+00  -7.375125e+00
   4.433639e+01   1.055222e+01
   1.964049e+01  -2.091474e+01
  -4.617386e+01   1.736399e+01
   3.703783e+01  -1.390889e+01
   8.608621e+01   4.124509e+01
   5.491644e+01   8.887157e+01
   2.661233e+00   5.799798e+01
  -1.030756e+02   5.904712e+01
  -1.294919e+02   1.847204e+01
  -1.218385e+02  -6.545764e+01
  -3.608459e+01  -1.079499e+02
   7.200791e+01  -1.571370e+02
   8.599235e+01  -5.730374e+01
   5.042388e+01  -3.938875e+00
  -2.894390e+00   3.891336e+01
   2.545872e+01   2.918631e+01
   3.117758e+01  -1.098929e+01
   3.272081e+01   3.428526e+01
   4.315321e+01   1.026655e+02
  -5.756656e+01   6.524058e+01
  -9.862557e+01  -5.470462e+01
  -7.767337e+01  -6.336552e+01
  -5.574664e+01  -7.683524e+01
   2.104637e+01  -4.930357e+00
   4.613157e+01   7.042285e+01
   1.979871e+01   6.508735e+01
  -2.877307e+01   5.853351e+01
  -7.259849e+01  -3.620487e+00
   1.027961e+00  -2.540664e+01
   2.301608e+01  -1.407068e+01
   3.652073e+01  -3.327876e+00
  -3.253523e+01  -1.855790e+01
  -5.876375e+01  -4.724025e+00
   1.425675e+00   5.145333e+00
   2.893060e+01  -4.564656e+01
   9.692486e+01  -5.420603e+01
   7.202188e+01   1.044635e+01
  -1.166870e+01   4.989123e+01
  -3.349182e+01   6.865197e+01
  -5.990025e+01   1.238659e+00
   3.986762e+00  -2.970886e+01
  -7.129585e+00  -2.401083e+01
   2.888637e+01  -8.083859e+00
  -2.983055e+01   2.808212e+01
   1.356178e+00   8.169045e+00
   2.052905e+01   1.101593e+01
  -2.924390e+01   6.041477e+00
  -9.465684e+00   1.052569e+01
   2.867719e+00   2.138315e+01
  -2.205099e+01   9.732141e+00
  -2.446822e+00  -2.702832e+01
  -9.486702e+00  -5.122598e+01
   3.082546e-01  -1.352972e+01
   2.956419e+01   4.264473e+01
   5.796400e+00   5.911007e-02
  -2.096926e+01  -1.711530e+01
   2.909895e+00  -3.911767e+01
  -2.961349e+01  -3.723411e+01
   5.479820e+01   1.210383e+01
   7.240970e+01   1.938589e+01
   2.880707e+01   5.572275e+01
  -3.626646e+01   1.644276e+01
  -6.126476e+01   3.371277e+00
  -1.082967e+01   3.202521e+00
   6.356869e+01   5.149957e-01
   3.095540e+00   1.841478e+00
  -1.455084e+01   6.492358e+00
  -5.436089e+01   1.807851e+01
