
 $NMID
 id='ANONYMOUS ', fmtdat='(2E16.6)'
 volume=1.0
 tramp=1.0
 $END
   6.003152e+07   6.281841e+05
   3.512091e+07   3.867591e+07
  -9.397867e+06   4.080950e+07
  -2.993156e+07   1.402606e+07
  -1.684814e+07  -8.912326e+06
   4.257695e+06  -9.749718e+06
   1.018041e+07   2.275118e+06
   2.030574e+06   1.048935e+07
  -7.149256e+06   8.984601e+06
  -1.012991e+07   1.336978e+06
  -7.086749e+06  -6.508536e+06
  -7.540631e+05  -8.712660e+06
   4.075125e+06  -2.930191e+06
   2.533978e+06   5.194904e+06
  -4.106972e+06   6.224439e+06
  -8.124975e+06  -1.838305e+06
  -4.260685e+06  -1.077129e+07
   4.311621e+06  -1.219256e+07
   1.072247e+07  -6.075916e+06
   1.147678e+07   2.125910e+06
   7.256926e+06   7.998270e+06
   8.442930e+05   9.574906e+06
  -3.557971e+06   6.779198e+06
  -2.831267e+06   2.589311e+06
   6.389024e+05   1.445518e+06
   5.188511e+05   3.696874e+06
  -4.940429e+06   4.532832e+06
  -9.527467e+06   8.513711e+05
  -7.301758e+06  -4.022872e+06
  -7.078938e+05  -5.261846e+06
   3.348694e+06  -2.991931e+06
   2.572699e+06  -5.836772e+05
   7.849814e+04   5.373441e+05
  -1.543595e+06   6.683792e+05
  -2.099605e+06  -8.224477e+05
  -1.125745e+06  -3.604084e+06
   1.660802e+06  -4.139447e+06
   3.716859e+06  -2.413420e+05
   2.208695e+06   3.854177e+06
  -8.292674e+05   2.530546e+06
  -6.552289e+05  -2.030542e+06
   2.374895e+06  -2.118828e+06
   2.358455e+06   3.457095e+06
  -3.013905e+06   6.392895e+06
  -7.778613e+06   8.186287e+05
  -5.409055e+06  -7.600429e+06
   2.330119e+06  -9.089642e+06
   7.872342e+06  -2.446926e+06
   6.884806e+06   4.695295e+06
   1.509268e+06   6.070726e+06
  -3.577481e+06   2.453018e+06
  -5.025212e+06  -1.830488e+06
  -2.078226e+06  -3.621870e+06
   2.694685e+06  -2.107306e+06
   4.637442e+06   1.170569e+06
   1.852955e+06   2.933729e+06
  -1.846234e+06   1.375450e+06
  -1.615578e+06  -1.096519e+06
   1.626945e+06  -7.029166e+05
   2.474656e+06   2.305876e+06
  -1.165218e+06   3.869345e+06
  -5.295086e+06   1.794308e+06
  -5.551774e+06  -1.825007e+06
  -2.220249e+06  -4.328442e+06
   1.805840e+06  -5.360925e+06
   4.843163e+06  -4.911770e+06
   6.179786e+06  -1.893666e+06
   4.787994e+06   3.075172e+06
   1.029451e+06   6.180705e+06
  -2.064423e+06   4.650715e+06
  -1.929242e+06   8.630449e+05
   5.915314e+04  -6.298410e+05
   5.450450e+05   8.717597e+05
  -1.156123e+06   2.006979e+06
  -2.635358e+06   6.458283e+05
  -2.107799e+06  -1.508809e+06
  -2.998570e+05  -1.897906e+06
   1.218172e+06  -2.790508e+05
   1.508735e+06   1.777270e+06
   9.484777e+04   2.735895e+06
  -2.616409e+06   1.743930e+06
  -4.508863e+06  -1.002586e+06
  -3.393302e+06  -3.769246e+06
  -1.242997e+04  -4.439788e+06
   2.435723e+06  -2.883822e+06
   2.430478e+06  -1.105870e+06
   1.895377e+06  -5.229742e+05
   2.846332e+06  -3.175471e+05
   4.150239e+06   8.443543e+05
   3.278694e+06   2.699867e+06
   7.511441e+04   3.903942e+06
  -3.009903e+06   3.675269e+06
  -3.878139e+06   2.096009e+06
  -2.552580e+06  -2.483730e+05
  -4.319057e+05  -2.068799e+06
   9.161289e+05  -1.909078e+06
   5.538930e+05  -2.261470e+04
  -9.844755e+05   1.265230e+06
  -1.848316e+06   3.875902e+05
  -9.467628e+05  -1.177219e+06
   4.377795e+05  -1.047734e+06
   2.967152e+05   3.847665e+05
  -1.168596e+06   4.786468e+05
  -1.730197e+06  -1.608454e+06
  -2.421512e+05  -3.541358e+06
   1.967102e+06  -3.021263e+06
   3.113076e+06  -5.888363e+05
   2.890933e+06   1.639110e+06
   1.855438e+06   2.552028e+06
   3.333495e+05   2.322874e+06
  -1.124666e+06   1.355848e+06
  -1.453075e+06   2.466758e+05
  -4.634271e+05  -4.564531e+04
   3.277012e+05   7.164911e+05
  -4.458243e+05   1.306765e+06
  -1.892093e+06   5.331699e+05
  -1.950741e+06  -9.359769e+05
  -3.069635e+05  -1.401828e+06
   1.133826e+06  -5.022764e+05
   7.680186e+05   4.454105e+05
  -8.507270e+05   3.695649e+05
  -1.953274e+06  -4.566844e+05
  -1.459021e+06  -1.291248e+06
   3.359998e+05  -1.735203e+06
   2.168602e+06  -1.446400e+06
   2.596530e+06  -2.056007e+05
   1.144456e+06   1.246107e+06
  -9.143900e+05   1.475538e+06
  -1.553947e+06   1.791617e+05
  -2.212121e+05  -1.067236e+06
   1.456794e+06  -6.982712e+05
   1.607126e+06   7.929396e+05
   2.293912e+05   1.569739e+06
  -1.098942e+06   8.342887e+05
  -1.157870e+06  -3.978634e+05
  -1.545773e+05  -7.685072e+05
   7.977634e+05  -2.759103e+04
   7.068040e+05   1.016488e+06
  -5.367986e+05   1.357550e+06
  -1.896874e+06   5.256357e+05
  -1.931822e+06  -9.953691e+05
  -3.462505e+05  -1.977393e+06
   1.404611e+06  -1.540185e+06
   1.644214e+06  -1.519590e+05
   4.336605e+05   8.411417e+05
  -6.468514e+05   7.312376e+05
  -5.558376e+05   7.200753e+04
   1.490802e+05  -2.604323e+05
   4.001767e+05  -1.144636e+05
  -1.018598e+04   3.618502e+04
  -4.821928e+05  -1.890724e+05
  -4.395806e+05  -7.263336e+05
   2.712034e+05  -1.130747e+06
   1.336332e+06  -8.128556e+05
   1.961167e+06   4.224047e+05
   1.370130e+06   1.852245e+06
  -2.221106e+05   2.263044e+06
  -1.520291e+06   1.258036e+06
  -1.527882e+06  -1.767894e+05
  -7.119877e+05  -7.922197e+05
  -2.708730e+05  -4.799463e+05
  -5.216851e+05  -1.302831e+05
  -6.710599e+05  -3.357110e+05
  -8.859215e+04  -7.768658e+05
   8.603689e+05  -8.232297e+05
   1.347103e+06  -2.463945e+05
   9.179615e+05   6.707561e+05
  -2.873338e+05   1.297002e+06
  -1.619570e+06   9.413769e+05
  -2.080430e+06  -4.885142e+05
  -1.004469e+06  -1.998905e+06
   1.038290e+06  -2.219539e+06
   2.450219e+06  -8.974581e+05
   2.169088e+06   7.126014e+05
   7.861051e+05   1.266899e+06
  -2.530863e+05   7.991881e+05
  -3.060239e+05   4.000410e+05
   3.094102e+04   7.233301e+05
  -5.577919e+04   1.300365e+06
  -6.622142e+05   1.258413e+06
  -1.255999e+06   3.057868e+05
  -1.268381e+06  -1.019323e+06
  -5.205003e+05  -1.782100e+06
   5.844159e+05  -1.348221e+06
   1.201224e+06   2.565127e+04
   7.328502e+05   1.245889e+06
  -4.325677e+05   1.313297e+06
  -1.156614e+06   3.049188e+05
  -7.604752e+05  -7.618077e+05
   1.954922e+05  -1.063085e+06
   5.969999e+05  -7.153875e+05
   1.168824e+05  -3.535950e+05
  -4.229903e+05  -2.999579e+05
  -6.522114e+04  -3.534359e+05
   1.112185e+06  -1.765689e+05
   1.980883e+06   3.472674e+05
   1.513635e+06   1.017076e+06
  -1.018476e+05   1.388514e+06
  -1.568200e+06   1.077750e+06
  -1.746423e+06   2.073353e+05
  -7.569240e+05  -5.428785e+05
   2.802170e+05  -5.664558e+05
   4.998220e+05   2.727823e+03
   4.700513e+04   4.417091e+05
  -3.944730e+05   2.557519e+05
  -4.607487e+05  -3.226039e+05
  -2.922256e+05  -6.679146e+05
  -1.411716e+05  -4.499847e+05
  -1.213092e+05   5.008257e+04
  -2.185283e+05   2.276565e+05
  -2.466806e+05  -2.257842e+05
   1.084510e+05  -9.091518e+05
   8.537137e+05  -1.009546e+06
   1.350503e+06  -1.941638e+05
   8.655549e+05   8.643280e+05
  -3.968740e+05   1.124132e+06
  -1.225892e+06   3.674109e+05
  -6.985397e+05  -5.226303e+05
   6.774726e+05  -5.937915e+05
   1.464233e+06   1.298520e+05
   8.608962e+05   8.280146e+05
  -5.156621e+05   8.741545e+05
  -1.389558e+06   3.580850e+05
  -1.100013e+06  -2.275434e+05
  -9.275063e+04  -4.674644e+05
   6.170318e+05  -2.200089e+05
   3.786134e+05   2.980075e+05
  -5.233453e+05   5.214470e+05
  -1.120418e+06  -3.046264e+04
  -6.895444e+05  -1.088641e+06
   4.859244e+05  -1.628647e+06
   1.362073e+06  -8.795966e+05
   1.184915e+06   6.843601e+05
   2.025420e+05   1.665214e+06
  -6.897988e+05   1.178875e+06
  -8.522064e+05  -2.055509e+05
  -3.599038e+05  -1.119505e+06
   2.596968e+05  -8.723860e+05
   5.416637e+05  -5.367192e+04
   3.957641e+05   3.415233e+05
   1.082350e+05   1.113330e+05
   6.228944e+04  -7.393235e+04
   3.262689e+05   3.117827e+05
   5.019669e+05   9.193601e+05
   1.238125e+05   9.955881e+05
  -7.323901e+05   3.559666e+05
  -1.371585e+06  -4.310968e+05
  -1.145351e+06  -7.785513e+05
  -1.668328e+05  -6.647643e+05
   7.506437e+05  -4.030648e+05
   9.019746e+05  -1.555515e+05
   3.768253e+05   7.996152e+04
  -1.168737e+05   2.181885e+05
  -8.829511e+04   1.601923e+05
   1.892759e+05   5.025424e+04
   7.276589e+04   1.221706e+05
  -5.538024e+05   2.542852e+05
  -9.918064e+05   1.716379e+04
  -5.042741e+05  -6.618260e+05
   7.210838e+05  -1.156088e+06
   1.634194e+06  -7.723853e+05
   1.411130e+06   3.582158e+05
   3.002357e+05   1.308445e+06
  -7.234546e+05   1.321645e+06
  -9.839377e+05   5.616521e+05
  -6.116222e+05  -1.741120e+05
  -1.577716e+05  -3.379423e+05
   1.208539e+04  -1.043875e+05
  -9.434642e+04  -2.795389e+04
  -2.556467e+05  -3.599339e+05
  -2.160678e+05  -7.557524e+05
   1.472056e+05  -6.556038e+05
   6.319629e+05   5.949830e+04
   7.500739e+05   8.426716e+05
   1.958651e+05   9.792362e+05
  -6.686189e+05   3.094025e+05
  -1.009222e+06  -6.037111e+05
  -3.877805e+05  -1.024719e+06
   6.515262e+05  -6.972762e+05
   1.086091e+06   3.462485e+04
   5.443397e+05   6.128435e+05
  -2.662173e+05   7.006539e+05
  -4.039879e+05   3.633123e+05
   1.762284e+05  -2.116051e+04
   5.955186e+05  -5.823842e+04
   1.627079e+05   2.996595e+05
  -7.649772e+05   6.439482e+05
  -1.223410e+06   4.819548e+05
  -7.759027e+05  -2.033974e+05
   7.182912e+04  -8.431072e+05
   5.574945e+05  -8.362218e+05
   4.585171e+05  -1.993070e+05
   9.179945e+04   4.271072e+05
  -2.075073e+05   4.467690e+05
  -3.334107e+05  -7.883856e+04
  -2.585835e+05  -5.368090e+05
   2.949601e+04  -4.525390e+05
   3.723259e+05   1.102699e+04
   4.697911e+05   2.932651e+05
   2.288910e+05   1.196368e+05
  -6.017922e+04  -1.840181e+05
  -7.519159e+04  -1.263281e+05
   9.478648e+04   3.015034e+05
   6.752033e+04   5.833392e+05
  -2.664577e+05   3.126457e+05
  -5.144341e+05  -2.863668e+05
  -2.581180e+05  -6.025114e+05
   3.510959e+05  -3.332895e+05
   6.698677e+05   2.139781e+05
   2.807765e+05   5.135582e+05
  -4.866984e+05   3.624904e+05
  -8.665156e+05  -2.843391e+04
  -4.758913e+05  -3.443804e+05
   2.696603e+05  -4.248523e+05
   6.139768e+05  -2.792704e+05
   2.793275e+05  -2.970748e+04
  -2.655215e+05   1.200028e+05
  -3.641905e+05   1.279308e+04
   9.969918e+04  -2.432058e+05
   6.112915e+05  -2.790243e+05
