
 $NMID
 id='ANONYMOUS ', fmtdat='(2E16.6)'
 volume=1.0
 tramp=1.0
 $END
   2.516114e+07  -1.456945e+06
   1.559238e+07   1.527113e+07
  -3.192526e+06   1.737679e+07
  -1.244690e+07   6.521967e+06
  -7.266179e+06  -3.777524e+06
   1.887491e+06  -4.858468e+06
   4.835086e+06   3.446756e+05
   1.498079e+06   4.616871e+06
  -2.752540e+06   4.491734e+06
  -4.503867e+06   9.556348e+05
  -3.341746e+06  -3.014340e+06
  -2.922677e+05  -4.184006e+06
   2.238142e+06  -1.405718e+06
   1.709979e+06   2.449930e+06
  -1.385569e+06   2.981851e+06
  -3.411551e+06  -5.433430e+05
  -1.886665e+06  -4.334695e+06
   1.727345e+06  -4.832928e+06
   4.361271e+06  -2.263877e+06
   4.624452e+06   1.012325e+06
   2.916578e+06   3.344881e+06
   2.821578e+05   4.006577e+06
  -1.634714e+06   2.778512e+06
  -1.339700e+06   8.099423e+05
   3.650773e+05   2.457550e+05
   5.760782e+05   1.517803e+06
  -1.872125e+06   2.351079e+06
  -4.287589e+06   8.472265e+05
  -3.573649e+06  -1.744163e+06
  -4.571043e+05  -2.824849e+06
   1.731335e+06  -1.850407e+06
   1.485166e+06  -3.411241e+05
   1.747480e+05   4.934977e+05
  -6.590325e+05   4.547532e+05
  -7.821583e+05  -4.402010e+05
  -2.461667e+05  -1.635938e+06
   8.999235e+05  -1.628536e+06
   1.686735e+06   1.907650e+05
   9.976296e+05   1.852204e+06
  -3.906107e+05   1.116840e+06
  -4.586671e+05  -8.941473e+05
   8.527402e+05  -9.006462e+05
   1.104983e+06   1.516896e+06
  -9.868217e+05   2.833414e+06
  -3.200036e+06   5.813973e+05
  -2.608947e+06  -2.954477e+06
   5.022963e+05  -3.794604e+06
   3.106322e+06  -1.339399e+06
   3.056461e+06   1.541514e+06
   8.761720e+05   2.394582e+06
  -1.466109e+06   1.245254e+06
  -2.250424e+06  -5.523060e+05
  -9.350741e+05  -1.672100e+06
   1.304818e+06  -1.264724e+06
   2.239540e+06   3.526156e+05
   9.364002e+05   1.488488e+06
  -8.536876e+05   8.672923e+05
  -8.361839e+05  -4.976112e+05
   6.738461e+05  -5.440202e+05
   1.221702e+06   8.719313e+05
  -2.650157e+05   1.777036e+06
  -2.092032e+06   9.424200e+05
  -2.295063e+06  -6.714672e+05
  -9.611604e+05  -1.721509e+06
   6.393110e+05  -2.097944e+06
   1.835126e+06  -1.983462e+06
   2.443462e+06  -8.772874e+05
   2.013433e+06   1.183618e+06
   5.090220e+05   2.605387e+06
  -8.808279e+05   1.979997e+06
  -9.004987e+05   2.212248e+05
   5.677368e+04  -5.074553e+05
   4.597105e+05   3.029530e+05
  -2.700491e+05   1.069324e+06
  -1.154820e+06   5.535022e+05
  -1.136298e+06  -5.871218e+05
  -2.702208e+05  -9.982157e+05
   6.484680e+05  -3.313396e+05
   9.012718e+05   7.119083e+05
   1.880700e+05   1.282398e+06
  -1.126763e+06   9.015751e+05
  -1.969677e+06  -3.146742e+05
  -1.452913e+06  -1.540137e+06
  -1.436333e+04  -1.822832e+06
   9.746905e+05  -1.125196e+06
   9.295778e+05  -3.693730e+05
   6.748712e+05  -2.118911e+05
   1.046140e+06  -2.742637e+05
   1.619276e+06   1.129791e+05
   1.401438e+06   9.209701e+05
   2.578994e+05   1.572074e+06
  -9.808472e+05   1.645630e+06
  -1.521205e+06   1.058811e+06
  -1.193157e+06  -5.906044e+03
  -3.304666e+05  -9.346542e+05
   4.140156e+05  -9.346751e+05
   3.942805e+05  -1.550007e+04
  -3.416944e+05   7.041472e+05
  -8.890859e+05   3.274324e+05
  -5.400541e+05  -5.437608e+05
   2.089831e+05  -6.504041e+05
   3.126917e+05   5.654707e+04
  -3.235973e+05   3.564000e+05
  -7.303708e+05  -3.924550e+05
  -2.694764e+05  -1.317035e+06
   6.023796e+05  -1.298286e+06
   1.139749e+06  -3.891269e+05
   1.174333e+06   5.387327e+05
   8.698142e+05   9.582713e+05
   2.743315e+05   9.199073e+05
  -4.080148e+05   5.780574e+05
  -6.337609e+05   1.292692e+05
  -2.019534e+05  -3.574179e+04
   2.331425e+05   2.731891e+05
  -5.461126e+04   6.143165e+05
  -7.812115e+05   3.981684e+05
  -9.769953e+05  -2.617787e+05
  -3.234859e+05  -6.621584e+05
   4.312249e+05  -4.493986e+05
   4.755788e+05   1.010265e+04
  -1.368646e+05   2.162528e+05
  -7.130099e+05   5.298121e+04
  -6.923906e+05  -3.300331e+05
  -4.378857e+04  -7.084230e+05
   7.746314e+05  -7.473221e+05
   1.092007e+06  -2.230451e+05
   5.701236e+05   5.172191e+05
  -3.355416e+05   7.232978e+05
  -7.158222e+05   1.554066e+05
  -2.052997e+05  -4.973088e+05
   5.770555e+05  -4.428966e+05
   7.695221e+05   2.188794e+05
   2.355611e+05   6.910922e+05
  -4.182009e+05   5.028008e+05
  -5.952130e+05  -3.914383e+04
  -2.364834e+05  -3.536401e+05
   2.591675e+05  -1.958426e+05
   3.968969e+05   2.398589e+05
  -2.528939e+04   5.390626e+05
  -6.587343e+05   3.579020e+05
  -8.311142e+05  -2.571098e+05
  -2.654838e+05  -7.926706e+05
   5.134449e+05  -7.292139e+05
   7.400102e+05  -1.320932e+05
   2.990745e+05   4.057116e+05
  -2.225782e+05   4.469684e+05
  -3.257890e+05   1.311898e+05
  -1.062216e+05  -1.350383e+05
   6.606767e+04  -1.733925e+05
   4.112961e+04  -9.984929e+04
  -7.404550e+04  -8.591582e+04
  -1.167416e+05  -2.017601e+05
   4.741582e+04  -3.674355e+05
   4.289867e+05  -3.496023e+05
   7.552054e+05   4.393071e+04
   6.240631e+05   6.389764e+05
   9.310407e+03   9.275766e+05
  -5.779314e+05   6.112964e+05
  -6.549200e+05  -4.508960e+03
  -3.393956e+05  -3.566533e+05
  -1.130979e+05  -2.756858e+05
  -1.506692e+05  -7.907403e+04
  -1.877240e+05  -7.468082e+04
  -3.101482e+03  -2.170494e+05
   2.823312e+05  -2.737516e+05
   4.245716e+05  -1.182956e+05
   3.129266e+05   1.944426e+05
  -4.315564e+04   4.654374e+05
  -5.237241e+05   4.189264e+05
  -8.060906e+05  -6.615722e+04
  -5.350049e+05  -6.967174e+05
   2.247472e+05  -9.249958e+05
   8.910003e+05  -5.219972e+05
   9.351338e+05   1.303986e+05
   4.517264e+05   4.706410e+05
  -1.644521e+04   3.817848e+05
  -1.273340e+05   2.202540e+05
  -2.058494e+04   2.920052e+05
  -1.048531e+04   4.970188e+05
  -2.095367e+05   5.109079e+05
  -4.720487e+05   1.733808e+05
  -5.535929e+05  -3.485014e+05
  -3.037126e+05  -6.936287e+05
   1.669959e+05  -5.868746e+05
   4.951016e+05  -8.502184e+04
   3.802184e+05   4.228156e+05
  -6.299285e+04   5.402228e+05
  -3.902194e+05   2.308085e+05
  -3.192502e+05  -1.817878e+05
  -2.606355e+04  -3.763987e+05
   1.176066e+05  -3.193359e+05
   3.413177e+02  -1.875765e+05
  -1.352009e+05  -1.231974e+05
  -5.952230e+03  -1.243690e+05
   3.842616e+05  -1.001354e+05
   7.166880e+05   3.818980e+04
   6.342726e+05   2.889329e+05
   1.000513e+05   5.057341e+05
  -4.970083e+05   4.891774e+05
  -6.762431e+05   2.084094e+05
  -3.567505e+05  -1.093553e+05
   6.304271e+04  -1.961258e+05
   1.703209e+05  -3.767363e+04
  -2.249678e+04   1.222100e+05
  -1.970247e+05   7.203189e+04
  -1.727513e+05  -1.380712e+05
  -5.951343e+04  -2.743058e+05
  -1.521888e+04  -1.839648e+05
  -4.676216e+04   3.784571e+04
  -8.010348e+04   1.362538e+05
  -6.573047e+04  -3.494064e+04
   3.933671e+04  -3.208220e+05
   2.452090e+05  -3.899442e+05
   4.088747e+05  -1.032817e+05
   2.950625e+05   2.862915e+05
  -1.039891e+05   3.900167e+05
  -4.211138e+05   1.230653e+05
  -2.749820e+05  -2.072875e+05
   2.423967e+05  -2.610881e+05
   6.059615e+05  -1.377255e+04
   4.267593e+05   2.849666e+05
  -1.303177e+05   3.947163e+05
  -5.465190e+05   2.602381e+05
  -4.862167e+05  -2.937874e+03
  -8.613211e+04  -1.940526e+05
   2.276150e+05  -1.540237e+05
   1.568076e+05   7.075005e+04
  -1.971212e+05   2.036340e+05
  -4.362640e+05   5.979362e+02
  -2.630544e+05  -4.251959e+05
   2.065123e+05  -6.421511e+05
   5.544729e+05  -3.457568e+05
   4.892491e+05   2.725373e+05
   1.124266e+05   6.774952e+05
  -2.436822e+05   5.213666e+05
  -3.533436e+05  -1.373352e+04
  -2.256565e+05  -4.195882e+05
   2.172187e+03  -3.841242e+05
   1.821993e+05  -7.340957e+04
   2.109371e+05   1.186103e+05
   1.013418e+05   4.704805e+04
   1.084575e+04  -5.220981e+04
   8.129166e+04   7.634954e+04
   2.172677e+05   3.401135e+05
   1.454586e+05   4.169434e+05
  -2.212049e+05   1.848520e+05
  -5.789482e+05  -1.336456e+05
  -5.348047e+05  -2.789543e+05
  -8.777734e+04  -2.437268e+05
   3.363141e+05  -1.706994e+05
   3.710886e+05  -1.059170e+05
   1.107402e+05  -5.960705e+03
  -6.557409e+04   9.278871e+04
   1.156515e+04   9.659153e+04
   1.275223e+05   3.358302e+04
   1.596262e+04   3.366366e+04
  -2.640365e+05   9.238032e+04
  -3.831394e+05   2.642147e+04
  -1.364128e+05  -2.345810e+05
   3.110178e+05  -4.477153e+05
   5.919122e+05  -3.090904e+05
   4.940811e+05   1.414017e+05
   1.243770e+05   5.191042e+05
  -2.316273e+05   5.146500e+05
  -3.590530e+05   2.075836e+05
  -2.478399e+05  -7.293984e+04
  -5.338681e+04  -1.165769e+05
   4.423488e+04  -6.509259e+03
  -1.834557e+04   2.920550e+04
  -1.382629e+05  -1.124762e+05
  -1.406654e+05  -2.891775e+05
   4.098106e+04  -2.599092e+05
   2.656332e+05   3.300233e+04
   2.954606e+05   3.511530e+05
   4.260284e+04   3.841315e+05
  -2.965858e+05   8.632163e+04
  -3.977108e+05  -2.710968e+05
  -1.372279e+05  -3.948524e+05
   2.503922e+05  -2.454284e+05
   3.972801e+05   3.093316e+03
   1.981823e+05   1.813762e+05
  -7.383549e+04   2.270577e+05
  -9.422901e+04   1.494817e+05
   1.205235e+05   1.991504e+04
   2.418797e+05  -2.386247e+04
   4.939033e+04   1.036129e+05
  -2.908014e+05   2.808825e+05
  -4.342344e+05   2.604653e+05
  -2.643152e+05  -2.409328e+04
   1.548060e+04  -3.196436e+05
   1.593824e+05  -3.237440e+05
   1.233497e+05  -4.975016e+04
   1.377873e+04   1.876899e+05
  -8.228177e+04   1.489624e+05
  -1.327941e+05  -7.310510e+04
  -1.046316e+05  -2.084386e+05
   1.409565e+04  -1.367068e+05
   1.473162e+05   1.667002e+04
   1.797003e+05   7.484526e+04
   9.332826e+04   1.632986e+04
  -7.707095e+03  -3.330108e+04
  -3.461410e+04   2.672737e+04
  -2.105549e+04   1.466060e+05
  -5.299859e+04   1.776121e+05
  -1.290038e+05   4.241200e+04
  -1.459816e+05  -1.596381e+05
  -2.876780e+04  -2.386203e+05
   1.554193e+05  -1.123990e+05
   2.336904e+05   1.022439e+05
   9.479978e+04   2.127191e+05
  -1.692533e+05   1.441159e+05
  -3.136057e+05  -1.384151e+04
  -1.822166e+05  -1.278485e+05
   9.828223e+04  -1.412663e+05
   2.288880e+05  -8.064368e+04
   7.647658e+04  -5.800427e+03
  -1.569525e+05   1.892712e+04
  -1.689737e+05  -4.165835e+04
   7.706836e+04  -1.333302e+05
   3.099013e+05  -1.204451e+05
