
 $NMID
 id='ANONYMOUS ', fmtdat='(2E16.6)'
 volume=1.0
 tramp=1.0
 $END
   2.005445e+07   1.513713e+05
   1.346065e+07   9.159519e+06
   1.902206e+05   1.257811e+07
  -8.554358e+06   8.759923e+06
  -7.437692e+06   1.223137e+06
  -6.436717e+05  -3.641684e+06
   4.137869e+06  -2.094779e+06
   3.334352e+06   3.184849e+06
  -7.809813e+05   5.823105e+06
  -3.812774e+06   2.702929e+06
  -3.373201e+06  -2.675497e+06
  -4.276334e+05  -4.398301e+06
   2.039625e+06  -8.696612e+05
   1.662241e+06   3.725413e+06
  -1.151268e+06   4.374889e+06
  -3.458531e+06   4.979179e+05
  -2.633828e+06  -4.015833e+06
   8.661206e+05  -5.138697e+06
   3.906867e+06  -2.419181e+06
   3.941219e+06   1.255463e+06
   1.555324e+06   2.883818e+06
  -4.036668e+05   2.117864e+06
   3.203603e+03   1.049661e+06
   1.763284e+06   1.555576e+06
   2.054938e+06   3.161726e+06
  -6.019233e+05   3.726675e+06
  -4.404289e+06   2.009565e+06
  -5.768152e+06  -9.003331e+05
  -3.071344e+06  -2.751625e+06
   1.309037e+06  -2.300473e+06
   3.243358e+06  -2.098741e+05
   1.194531e+06   1.700947e+06
  -2.249788e+06   1.812042e+06
  -3.434004e+06  -1.303147e+05
  -1.589690e+06  -2.572685e+06
   8.690056e+05  -3.211579e+06
   1.525467e+06  -1.288686e+06
   4.405747e+05   1.213205e+06
  -6.125361e+05   1.495666e+06
  -4.294572e+05  -7.265596e+05
   6.742238e+05  -2.664941e+06
   1.606957e+06  -1.781173e+06
   1.492454e+06   1.021359e+06
   2.014539e+05   2.452476e+06
  -1.382016e+06   8.269060e+05
  -1.695079e+06  -2.003269e+06
   1.143761e+05  -2.928166e+06
   2.840010e+06  -1.006646e+06
   3.884493e+06   1.864886e+06
   1.869577e+06   3.189115e+06
  -1.632212e+06   2.163201e+06
  -3.504130e+06  -2.181902e+04
  -2.257072e+06  -1.523163e+06
   5.498324e+05  -1.372531e+06
   2.110601e+06  -9.652912e+04
   1.262682e+06   9.014189e+05
  -6.024137e+05   6.806413e+05
  -1.294194e+06  -3.791450e+05
  -1.879074e+05  -1.060080e+06
   1.237648e+06  -6.090826e+05
   1.131096e+06   5.191617e+05
  -6.015070e+05   1.148692e+06
  -2.072096e+06   4.806216e+05
  -1.418103e+06  -1.187006e+06
   1.115894e+06  -2.590891e+06
   3.371272e+06  -2.409164e+06
   3.535444e+06  -4.124466e+05
   1.884929e+06   2.124296e+06
   1.466389e+05   3.434031e+06
  -5.112742e+05   2.925674e+06
  -4.499210e+05   1.670818e+06
  -6.768507e+05   1.015569e+06
  -1.508476e+06   9.671748e+05
  -2.297096e+06   4.190900e+05
  -2.193487e+06  -1.079788e+06
  -9.592890e+05  -2.389579e+06
   7.843549e+05  -2.003616e+06
   1.893171e+06   6.053030e+04
   1.476360e+06   2.060778e+06
  -2.835835e+05   2.271655e+06
  -2.054654e+06   6.504640e+05
  -2.423144e+06  -1.315114e+06
  -1.233860e+06  -2.177675e+06
   2.847512e+05  -1.760658e+06
   8.931671e+05  -9.676424e+05
   6.926819e+05  -6.565190e+05
   8.426589e+05  -8.109191e+05
   1.943541e+06  -7.055048e+05
   3.042374e+06   2.495460e+05
   2.560882e+06   1.823085e+06
   1.844618e+05   3.026999e+06
  -2.472281e+06   2.876998e+06
  -3.318006e+06   1.265051e+06
  -1.865660e+06  -7.816575e+05
   3.082177e+05  -1.815068e+06
   1.209500e+06  -1.209235e+06
   3.670819e+05   1.997936e+05
  -9.561141e+05   8.896925e+05
  -1.293984e+06   2.347107e+05
  -4.480488e+05  -8.115403e+05
   5.462777e+05  -8.478596e+05
   6.208956e+05   2.320092e+05
  -3.153119e+05   9.937399e+05
  -1.369186e+06   1.393123e+05
  -1.439141e+06  -1.834267e+06
  -1.197246e+05  -3.008154e+06
   1.859046e+06  -2.069031e+06
   3.056885e+06   3.085245e+05
   2.487493e+06   2.198724e+06
   5.883920e+05   2.339319e+06
  -1.076987e+06   1.160953e+06
  -1.294741e+06   6.758276e+04
  -3.751550e+05  -3.495393e+04
   2.869682e+05   5.544440e+05
  -1.876692e+05   8.877723e+05
  -1.199752e+06   4.304830e+05
  -1.426050e+06  -4.419570e+05
  -4.122181e+05  -8.965634e+05
   8.189979e+05  -5.090764e+05
   8.550186e+05   3.097338e+05
  -5.040848e+05   6.979637e+05
  -1.904478e+06   1.471663e+05
  -1.794313e+06  -1.002113e+06
  -6.458643e+04  -1.805930e+06
   1.786417e+06  -1.520485e+06
   2.155629e+06  -3.043104e+05
   9.073626e+05   8.422098e+05
  -6.051172e+05   9.664815e+05
  -9.722842e+05   1.084924e+05
  -4.706034e+04  -7.041303e+05
   1.099133e+06  -5.261307e+05
   1.325260e+06   4.777930e+05
   4.575638e+05   1.225075e+06
  -6.604450e+05   9.410588e+05
  -1.012249e+06   9.303810e+03
  -3.670275e+05  -5.112247e+05
   4.882592e+05  -8.474814e+04
   5.143185e+05   7.594861e+05
  -4.782478e+05   1.045603e+06
  -1.535826e+06   3.518911e+05
  -1.510522e+06  -8.200004e+05
  -3.004011e+05  -1.537367e+06
   1.007103e+06  -1.251272e+06
   1.276312e+06  -2.476922e+05
   4.672695e+05   6.127544e+05
  -4.493747e+05   6.668163e+05
  -5.905801e+05   5.379066e+04
  -7.521332e+03  -4.702410e+05
   5.280982e+05  -3.674090e+05
   4.135140e+05   1.001480e+05
  -1.753055e+05   2.206183e+05
  -4.946701e+05  -2.816158e+05
  -1.361639e+04  -8.645643e+05
   9.836529e+05  -7.371708e+05
   1.585247e+06   2.674142e+05
   1.117800e+06   1.456331e+06
  -1.528474e+05   1.893979e+06
  -1.251175e+06   1.239779e+06
  -1.443491e+06   3.137239e+04
  -8.893855e+05  -8.169809e+05
  -3.209201e+05  -8.356236e+05
  -1.913772e+05  -3.754493e+05
  -2.688604e+05  -1.578029e+05
  -4.374577e+04  -4.443788e+05
   5.938694e+05  -7.352474e+05
   1.148126e+06  -3.768607e+05
   9.693008e+05   5.830512e+05
  -7.484200e+04   1.300123e+06
  -1.331176e+06   9.667966e+05
  -1.802067e+06  -3.159960e+05
  -9.919476e+05  -1.565881e+06
   5.915959e+05  -1.808513e+06
   1.816787e+06  -9.286496e+05
   1.891086e+06   3.079567e+05
   9.935496e+05   1.010129e+06
  -1.433646e+04   9.394663e+05
  -4.442683e+05   5.918977e+05
  -3.299622e+05   5.556311e+05
  -2.079220e+05   8.345025e+05
  -4.606213e+05   8.642399e+05
  -9.039179e+05   2.090455e+05
  -9.911666e+05  -8.408550e+05
  -4.139113e+05  -1.463946e+06
   4.963273e+05  -1.107619e+06
   1.005781e+06  -4.058562e+04
   6.794645e+05   8.996433e+05
  -1.595872e+05   1.060190e+06
  -7.362539e+05   4.748859e+05
  -6.070061e+05  -2.889025e+05
  -7.834862e+04  -6.903916e+05
   1.958558e+05  -6.319666e+05
  -2.346647e+04  -4.054277e+05
  -2.949160e+05  -3.030257e+05
  -2.181510e+04  -3.137420e+05
   8.071255e+05  -1.946990e+05
   1.482411e+06   2.010144e+05
   1.245323e+06   7.147835e+05
   1.078605e+05   1.002597e+06
  -1.061390e+06   8.391471e+05
  -1.349609e+06   3.179540e+05
  -6.908046e+05  -2.008795e+05
   1.286785e+05  -3.565636e+05
   3.458377e+05  -9.958192e+04
  -2.859999e+04   2.192362e+05
  -3.961334e+05   1.686582e+05
  -3.501310e+05  -2.655704e+05
  -6.768923e+04  -5.928076e+05
   4.593606e+04  -3.774463e+05
  -1.198663e+05   1.621131e+05
  -3.128629e+05   3.362947e+05
  -2.374400e+05  -1.632627e+05
   1.695031e+05  -8.037969e+05
   6.829910e+05  -7.985080e+05
   8.974615e+05  -5.247621e+04
   5.072976e+05   7.075321e+05
  -3.180018e+05   7.579276e+05
  -8.815506e+05   1.379348e+05
  -5.460895e+05  -4.820839e+05
   5.066790e+05  -5.279308e+05
   1.283635e+06  -2.819680e+03
   9.508435e+05   6.296971e+05
  -2.451789e+05   8.729630e+05
  -1.192778e+06   5.563900e+05
  -1.071712e+06  -4.881088e+04
  -1.720935e+05  -4.284566e+05
   4.871708e+05  -2.720843e+05
   2.572071e+05   1.866861e+05
  -5.121471e+05   3.431774e+05
  -9.042466e+05  -1.574428e+05
  -4.044404e+05  -9.648888e+05
   5.954540e+05  -1.271620e+06
   1.219660e+06  -5.988454e+05
   9.695847e+05   6.417215e+05
   1.354257e+05   1.429168e+06
  -5.849651e+05   1.077906e+06
  -7.483362e+05  -6.153314e+04
  -4.187839e+05  -9.243952e+05
   6.947344e+04  -8.198614e+05
   4.099024e+05  -1.101528e+05
   4.411835e+05   3.151999e+05
   2.121397e+05   1.359289e+05
   6.170521e+03  -1.012674e+05
   9.863218e+04   1.730978e+05
   3.528477e+05   7.336429e+05
   2.494977e+05   8.667268e+05
  -4.452755e+05   3.284969e+05
  -1.174027e+06  -3.715493e+05
  -1.099178e+06  -6.604721e+05
  -1.556014e+05  -5.284779e+05
   7.540100e+05  -3.160888e+05
   8.045868e+05  -1.717665e+05
   2.133647e+05  -7.567877e+03
  -1.474654e+05   1.672692e+05
   6.813546e+04   2.104458e+05
   3.101995e+05   1.325358e+05
  -1.738910e+03   1.106747e+05
  -6.302854e+05   1.387897e+05
  -8.051576e+05  -5.026541e+04
  -1.805239e+05  -5.271182e+05
   7.674126e+05  -8.488685e+05
   1.266663e+06  -4.973395e+05
   9.707324e+05   4.102153e+05
   1.579663e+05   1.119250e+06
  -5.880690e+05   1.031809e+06
  -8.236117e+05   3.388659e+05
  -5.232656e+05  -2.459035e+05
  -5.664031e+04  -2.795022e+05
   1.421287e+05   8.883441e+03
  -3.174525e+04   8.022405e+04
  -2.770755e+05  -2.609297e+05
  -2.232736e+05  -6.339774e+05
   1.687746e+05  -5.066053e+05
   5.491128e+05   1.700444e+05
   5.052229e+05   8.173702e+05
  -3.082210e+04   7.954040e+05
  -6.483954e+05   9.037067e+04
  -7.657470e+05  -6.627522e+05
  -1.939474e+05  -8.498586e+05
   5.813509e+05  -4.484492e+05
   8.250704e+05   1.017804e+05
   3.525948e+05   4.215454e+05
  -2.270434e+05   4.398711e+05
  -2.247601e+05   2.617560e+05
   2.766048e+05   4.390714e+04
   5.294839e+05  -7.096053e+03
   8.070963e+04   2.260229e+05
  -6.542224e+05   5.291680e+05
  -9.189826e+05   4.666600e+05
  -5.086395e+05  -8.315044e+04
   9.565600e+04  -6.432052e+05
   3.701351e+05  -6.255279e+05
   2.506054e+05  -5.953996e+04
  -1.016949e+04   4.089304e+05
  -2.090846e+05   2.903526e+05
  -2.766589e+05  -1.948491e+05
  -1.770100e+05  -4.572851e+05
   6.792627e+04  -2.639520e+05
   3.008169e+05   7.409062e+04
   3.404086e+05   1.743015e+05
   1.870045e+05   3.236128e+04
   1.320005e+04  -5.876707e+04
  -6.318552e+04   8.637042e+04
  -1.007950e+05   3.235983e+05
  -1.953506e+05   3.452609e+05
  -2.991210e+05   2.813007e+04
  -2.509546e+05  -3.923737e+05
   2.190842e+04  -5.191236e+05
   3.618598e+05  -2.008411e+05
   4.629058e+05   2.793526e+05
   1.491431e+05   4.818331e+05
  -3.797467e+05   2.649988e+05
  -6.423287e+05  -1.082867e+05
  -3.444436e+05  -3.049411e+05
   2.361376e+05  -2.506453e+05
   4.820345e+05  -9.741157e+04
   1.369348e+05   2.031513e+03
  -3.530704e+05  -1.364336e+04
  -3.486064e+05  -1.409114e+05
   2.038143e+05  -2.736712e+05
   6.949060e+05  -1.944663e+05
