
 $NMID
 id='ANONYMOUS ', fmtdat='(2E16.6)'
 volume=1.0
 tramp=1.0
 $END
   3.217434e+07   3.735678e+05
   2.077888e+07   1.649736e+07
  -1.278894e+06   2.068342e+07
  -1.445524e+07   1.215231e+07
  -1.113499e+07  -1.053984e+04
  -6.523849e+04  -5.682096e+06
   6.328908e+06  -2.027810e+06
   4.118705e+06   5.288782e+06
  -2.035711e+06   8.055777e+06
  -5.948054e+06   3.281003e+06
  -4.934547e+06  -4.086516e+06
  -5.740036e+05  -6.378678e+06
   2.965842e+06  -1.430749e+06
   2.262592e+06   5.079173e+06
  -1.984131e+06   5.963147e+06
  -5.216970e+06   2.673301e+05
  -3.647966e+06  -6.272349e+06
   1.685488e+06  -7.755061e+06
   6.134089e+06  -3.680530e+06
   6.264263e+06   1.785753e+06
   2.876918e+06   4.532756e+06
  -3.384388e+05   3.886691e+06
  -5.391485e+05   2.247342e+06
   1.576155e+06   2.204220e+06
   2.421620e+06   3.867037e+06
  -6.443933e+05   4.830274e+06
  -5.818264e+06   2.958539e+06
  -8.058875e+06  -9.467831e+05
  -4.615815e+06  -3.789693e+06
   1.407518e+06  -3.426788e+06
   4.227246e+06  -6.693407e+05
   1.743348e+06   1.868859e+06
  -2.586049e+06   2.134776e+06
  -4.170243e+06  -8.187976e+04
  -2.116886e+06  -3.088672e+06
   8.525075e+05  -4.221487e+06
   2.009166e+06  -2.097010e+06
   1.059927e+06   1.351718e+06
  -3.733194e+05   2.293385e+06
  -6.063363e+05  -4.489094e+05
   6.980313e+05  -3.357122e+06
   2.221015e+06  -2.353036e+06
   2.067273e+06   1.711690e+06
  -2.446524e+05   3.797704e+06
  -2.781881e+06   1.073151e+06
  -2.763577e+06  -3.467451e+06
   5.020454e+05  -4.750744e+06
   4.466471e+06  -1.512487e+06
   5.495174e+06   2.885518e+06
   2.350962e+06   4.602397e+06
  -2.437562e+06   2.844256e+06
  -4.789354e+06  -3.338169e+05
  -2.895745e+06  -2.321168e+06
   1.053712e+06  -1.895195e+06
   3.132551e+06   8.263639e+04
   1.726842e+06   1.492655e+06
  -9.779458e+05   9.877834e+05
  -1.728861e+06  -6.135553e+05
   4.379450e+04  -1.328153e+06
   1.808694e+06  -3.366944e+05
   1.120305e+06   1.201907e+06
  -1.508774e+06   1.595089e+06
  -3.233635e+06   2.597647e+05
  -1.960726e+06  -2.034268e+06
   1.573642e+06  -3.781537e+06
   4.622753e+06  -3.485572e+06
   4.999332e+06  -7.356167e+05
   2.875980e+06   2.917232e+06
   2.997850e+05   4.882026e+06
  -9.251778e+05   4.063912e+06
  -8.276957e+05   2.046202e+06
  -7.792739e+05   1.060244e+06
  -1.654819e+06   1.224483e+06
  -2.810956e+06   7.645522e+05
  -2.904729e+06  -1.158016e+06
  -1.398937e+06  -2.976761e+06
   8.716574e+05  -2.578218e+06
   2.355595e+06   4.509854e+04
   1.904214e+06   2.647743e+06
  -3.302516e+05   3.019581e+06
  -2.759575e+06   9.950151e+05
  -3.455230e+06  -1.678964e+06
  -1.916977e+06  -3.080170e+06
   3.353323e+05  -2.694497e+06
   1.401623e+06  -1.545348e+06
   1.170974e+06  -9.188655e+05
   1.263866e+06  -1.004053e+06
   2.670652e+06  -8.415643e+05
   4.121604e+06   4.406089e+05
   3.422610e+06   2.524815e+06
   1.972945e+05   4.069322e+06
  -3.319183e+06   3.839174e+06
  -4.406957e+06   1.741998e+06
  -2.521269e+06  -9.496677e+05
   3.031883e+05  -2.393133e+06
   1.536386e+06  -1.666866e+06
   5.033948e+05   2.285627e+05
  -1.254042e+06   1.204980e+06
  -1.768105e+06   3.177690e+05
  -6.518951e+05  -1.113592e+06
   7.005651e+05  -1.127214e+06
   7.554768e+05   3.310675e+05
  -5.502047e+05   1.211333e+06
  -1.839014e+06  -9.796117e+04
  -1.673644e+06  -2.659920e+06
   1.908546e+05  -3.915958e+06
   2.629068e+06  -2.447687e+06
   3.946504e+06   6.324467e+05
   3.116343e+06   2.934828e+06
   7.043460e+05   3.043020e+06
  -1.416865e+06   1.528691e+06
  -1.706893e+06   1.037846e+05
  -5.006881e+05  -5.029563e+04
   3.744448e+05   7.477555e+05
  -2.905428e+05   1.216506e+06
  -1.668591e+06   5.656101e+05
  -1.930306e+06  -6.617340e+05
  -5.124583e+05  -1.246282e+06
   1.116998e+06  -6.537391e+05
   1.095233e+06   4.310829e+05
  -7.149161e+05   8.528312e+05
  -2.484620e+06   8.177501e+04
  -2.271756e+06  -1.363224e+06
  -6.199358e+03  -2.337175e+06
   2.393633e+06  -1.948989e+06
   2.871444e+06  -3.616744e+05
   1.208481e+06   1.163937e+06
  -8.413752e+05   1.328883e+06
  -1.353255e+06   1.441210e+05
  -8.215242e+04  -9.706170e+05
   1.487369e+06  -7.007769e+05
   1.761491e+06   6.804937e+05
   5.492632e+05   1.649209e+06
  -9.340022e+05   1.201405e+06
  -1.338523e+06  -5.905390e+04
  -4.403471e+05  -7.074109e+05
   6.826516e+05  -9.762992e+04
   6.914139e+05   1.030415e+06
  -6.391901e+05   1.402155e+06
  -2.053698e+06   4.706589e+05
  -2.020147e+06  -1.105163e+06
  -3.843127e+05  -2.067606e+06
   1.380212e+06  -1.661778e+06
   1.717186e+06  -2.963647e+05
   5.969602e+05   8.354888e+05
  -6.200418e+05   8.726870e+05
  -7.625853e+05   6.729616e+04
   1.878470e+04  -5.793264e+05
   6.704277e+05  -4.337369e+05
   4.714955e+05   1.248708e+05
  -2.774795e+05   2.230024e+05
  -6.326291e+05  -4.385143e+05
   3.317528e+04  -1.164771e+06
   1.338603e+06  -9.612289e+05
   2.115237e+06   3.847854e+05
   1.478657e+06   1.962528e+06
  -2.256320e+05   2.516248e+06
  -1.678144e+06   1.602975e+06
  -1.889285e+06  -3.984389e+03
  -1.121088e+06  -1.066225e+06
  -4.010752e+05  -1.034440e+06
  -2.952972e+05  -4.514587e+05
  -4.097636e+05  -2.338954e+05
  -6.030595e+04  -6.285544e+05
   8.189098e+05  -9.639434e+05
   1.525932e+06  -4.597164e+05
   1.246512e+06   7.798890e+05
  -1.415225e+05   1.688610e+06
  -1.782611e+06   1.240869e+06
  -2.381644e+06  -4.527477e+05
  -1.277543e+06  -2.109878e+06
   8.525820e+05  -2.408374e+06
   2.466080e+06  -1.186730e+06
   2.497822e+06   4.786134e+05
   1.250674e+06   1.361244e+06
  -6.391242e+04   1.199642e+06
  -5.618782e+05   7.354878e+05
  -3.782726e+05   7.439467e+05
  -2.535620e+05   1.153425e+06
  -6.364227e+05   1.179506e+06
  -1.230106e+06   2.789362e+05
  -1.323065e+06  -1.128337e+06
  -5.415169e+05  -1.954460e+06
   6.679576e+05  -1.471733e+06
   1.337314e+06  -3.389814e+04
   8.836097e+05   1.227993e+06
  -2.582081e+05   1.415418e+06
  -1.025601e+06   5.852483e+05
  -8.105247e+05  -4.528994e+05
  -5.441997e+04  -9.553297e+05
   3.213808e+05  -8.329557e+05
  -5.261620e+03  -5.193885e+05
  -4.000350e+05  -3.957084e+05
  -3.220919e+04  -4.138528e+05
   1.097219e+06  -2.435012e+05
   2.000924e+06   2.960074e+05
   1.653332e+06   9.857593e+05
   9.978746e+04   1.363176e+06
  -1.463793e+06   1.118268e+06
  -1.817475e+06   3.848053e+05
  -9.066112e+05  -3.194349e+05
   1.931920e+05  -4.945408e+05
   4.740264e+05  -1.109240e+05
  -2.717065e+04   3.184762e+05
  -5.158570e+05   2.288650e+05
  -4.695761e+05  -3.567716e+05
  -1.170459e+05  -7.819612e+05
   3.436808e+04  -5.007697e+05
  -1.576620e+05   1.924343e+05
  -3.953619e+05   4.173601e+05
  -3.085705e+05  -2.238176e+05
   2.179965e+05  -1.058893e+06
   9.203855e+05  -1.063995e+06
   1.235609e+06  -8.261446e+04
   7.078506e+05   9.472311e+05
  -4.314166e+05   1.038113e+06
  -1.198935e+06   2.069980e+05
  -7.286107e+05  -6.372787e+05
   6.891547e+05  -6.918115e+05
   1.695871e+06   2.790020e+04
   1.216471e+06   8.573478e+05
  -3.678485e+05   1.132829e+06
  -1.585427e+06   6.822457e+05
  -1.396835e+06  -1.003986e+05
  -2.076893e+05  -5.644222e+05
   6.554574e+05  -3.414399e+05
   3.513125e+05   2.616865e+05
  -6.699577e+05   4.685681e+05
  -1.206365e+06  -1.929346e+05
  -5.606231e+05  -1.275816e+06
   7.678254e+05  -1.701336e+06
   1.611500e+06  -8.102928e+05
   1.287082e+06   8.487527e+05
   1.737429e+05   1.894270e+06
  -7.857103e+05   1.410991e+06
  -9.880037e+05  -1.085462e+05
  -5.271868e+05  -1.234907e+06
   1.266671e+05  -1.073117e+06
   5.538780e+05  -1.310523e+05
   5.635390e+05   4.176814e+05
   2.585027e+05   1.749924e+05
   1.756945e+04  -1.274679e+05
   1.616643e+05   2.465690e+05
   4.750126e+05   9.846042e+05
   2.973962e+05   1.148453e+06
  -6.254088e+05   4.275875e+05
  -1.552507e+06  -5.021524e+05
  -1.429602e+06  -8.861502e+05
  -1.993854e+05  -7.089318e+05
   9.819578e+05  -4.171851e+05
   1.061971e+06  -2.136196e+05
   3.024733e+05   5.157258e+03
  -1.883635e+05   2.237427e+05
   6.261704e+04   2.667019e+05
   3.832337e+05   1.626858e+05
   8.151207e+03   1.454017e+05
  -8.083437e+05   1.921387e+05
  -1.074180e+06  -6.193385e+04
  -2.795498e+05  -7.065373e+05
   9.972012e+05  -1.142954e+06
   1.706073e+06  -6.775391e+05
   1.324883e+06   5.330276e+05
   2.172387e+05   1.484447e+06
  -7.936194e+05   1.379990e+06
  -1.097351e+06   4.672345e+05
  -6.910770e+05  -3.131213e+05
  -8.664298e+04  -3.724336e+05
   1.645035e+05  -4.226441e+03
  -5.175683e+04   8.754571e+04
  -3.545941e+05  -3.567395e+05
  -2.835267e+05  -8.444527e+05
   2.203053e+05  -6.795010e+05
   7.244375e+05   2.088701e+05
   6.865718e+05   1.070074e+06
  -1.224785e+04   1.060943e+06
  -8.460227e+05   1.450730e+05
  -1.026123e+06  -8.586340e+05
  -2.742876e+05  -1.132429e+06
   7.697209e+05  -6.156253e+05
   1.110954e+06   1.289535e+05
   4.840331e+05   5.798175e+05
  -3.044811e+05   6.094549e+05
  -3.216192e+05   3.539732e+05
   3.435599e+05   4.981732e+04
   6.980779e+05  -1.236842e+04
   1.155035e+05   3.055236e+05
  -8.716098e+05   6.994472e+05
  -1.244876e+06   6.009996e+05
  -7.012701e+05  -1.305106e+05
   1.260920e+05  -8.654375e+05
   5.148526e+05  -8.420425e+05
   3.576834e+05  -9.686571e+04
  -1.300846e+03   5.338596e+05
  -2.737720e+05   3.992982e+05
  -3.661766e+05  -2.378574e+05
  -2.384910e+05  -6.078049e+05
   8.441274e+04  -3.711176e+05
   4.010239e+05   8.922174e+04
   4.607653e+05   2.475043e+05
   2.492781e+05   5.700312e+04
   6.222713e+03  -9.524212e+04
  -8.514050e+04   7.917477e+04
  -1.040586e+05   4.158178e+05
  -2.163282e+05   4.827420e+05
  -3.833902e+05   7.726245e+04
  -3.626025e+05  -4.954157e+05
  -9.789292e+03  -6.865580e+05
   4.701237e+05  -2.779200e+05
   6.304816e+05   3.567935e+05
   2.096148e+05   6.320457e+05
  -5.120067e+05   3.560149e+05
  -8.677831e+05  -1.338847e+05
  -4.649837e+05  -4.051383e+05
   3.138956e+05  -3.502476e+05
   6.470607e+05  -1.502658e+05
   1.996197e+05  -1.247873e+03
  -4.450234e+05  -6.710457e+02
  -4.537937e+05  -1.627405e+05
   2.514679e+05  -3.489100e+05
   8.917962e+05  -2.591585e+05
