
 $NMID
 id='ANONYMOUS ', fmtdat='(2E16.6)'
 volume=1.0
 tramp=1.0
 $END
   1.563045e+07   1.495940e+06
   8.740638e+06   9.017478e+06
  -1.950510e+06   9.658009e+06
  -7.110468e+06   4.707033e+06
  -4.649759e+06  -6.375379e+05
   3.573542e+05  -2.441224e+06
   2.690114e+06  -5.386951e+05
   1.472194e+06   2.405028e+06
  -1.091581e+06   3.324300e+06
  -2.670500e+06   1.182591e+06
  -2.201059e+06  -1.997750e+06
  -2.084025e+05  -2.949665e+06
   1.446369e+06  -6.808879e+05
   1.086259e+06   2.245727e+06
  -9.123389e+05   2.554434e+06
  -2.318710e+06  -9.295198e+04
  -1.453654e+06  -2.989575e+06
   1.046575e+06  -3.516034e+06
   3.046988e+06  -1.546707e+06
   3.040003e+06   1.052601e+06
   1.334125e+06   2.420995e+06
  -4.019456e+05   2.083168e+06
  -6.441094e+05   1.031123e+06
   4.951540e+05   6.905973e+05
   1.203188e+06   1.450242e+06
  -8.531784e+04   2.175744e+06
  -2.599996e+06   1.533456e+06
  -3.781219e+06  -3.086029e+05
  -2.221774e+06  -1.799262e+06
   5.902456e+05  -1.768158e+06
   1.975055e+06  -5.290131e+05
   1.000312e+06   7.391802e+05
  -8.853958e+05   1.081283e+06
  -1.775341e+06   2.311739e+05
  -1.131809e+06  -1.230077e+06
   1.803394e+05  -1.985944e+06
   9.761892e+05  -1.082922e+06
   7.222093e+05   6.788267e+05
  -1.074584e+05   1.266244e+06
  -4.788566e+05  -6.075275e+04
   1.093181e+05  -1.524950e+06
   9.441863e+05  -1.057204e+06
   8.454925e+05   8.328198e+05
  -3.534477e+05   1.637762e+06
  -1.445154e+06   1.836762e+05
  -1.140711e+06  -1.869810e+06
   5.206672e+05  -2.210024e+06
   2.186836e+06  -5.638874e+05
   2.434741e+06   1.377490e+06
   9.775024e+05   2.026585e+06
  -1.070519e+06   1.207453e+06
  -2.047651e+06  -1.646728e+05
  -1.197762e+06  -9.982867e+05
   5.327568e+05  -7.620504e+05
   1.395450e+06   1.396766e+05
   7.026534e+05   7.151014e+05
  -4.866332e+05   4.160726e+05
  -7.405790e+05  -2.628510e+05
   3.586286e+04  -4.583378e+05
   6.603284e+05  -5.823376e+03
   2.331277e+05   4.988338e+05
  -8.425218e+05   4.965866e+05
  -1.410520e+06  -8.674182e+04
  -7.660462e+05  -1.002330e+06
   7.560244e+05  -1.764980e+06
   2.104711e+06  -1.672151e+06
   2.342008e+06  -3.810458e+05
   1.403431e+06   1.384247e+06
   1.573831e+05   2.274396e+06
  -4.434625e+05   1.774280e+06
  -3.142856e+05   7.933334e+05
  -1.810694e+05   4.551029e+05
  -5.880492e+05   6.933601e+05
  -1.237630e+06   5.480687e+05
  -1.410923e+06  -3.668275e+05
  -7.945882e+05  -1.276404e+06
   2.484233e+05  -1.200931e+06
   1.013012e+06  -1.039368e+05
   9.222736e+05   1.080398e+06
  -6.298804e+04   1.360070e+06
  -1.252542e+06   5.285079e+05
  -1.654598e+06  -7.297775e+05
  -9.244821e+05  -1.468467e+06
   2.045849e+05  -1.308964e+06
   7.360613e+05  -7.055423e+05
   5.796127e+05  -3.535549e+05
   5.461791e+05  -4.009066e+05
   1.148787e+06  -3.768678e+05
   1.813119e+06   1.559549e+05
   1.539905e+06   1.070121e+06
   1.528299e+05   1.789140e+06
  -1.392162e+06   1.766993e+06
  -1.929318e+06   8.906222e+05
  -1.180945e+06  -3.525353e+05
   4.270050e+04  -1.099390e+06
   6.433689e+05  -8.150764e+05
   2.456027e+05   8.512021e+04
  -5.300657e+05   5.742057e+05
  -7.891000e+05   1.656521e+05
  -3.163038e+05  -5.070742e+05
   2.765743e+05  -5.242356e+05
   3.148082e+05   1.088706e+05
  -2.091379e+05   4.709599e+05
  -7.158112e+05  -8.232062e+04
  -6.570104e+05  -1.107270e+06
   5.483887e+04  -1.584850e+06
   1.035288e+06  -1.005424e+06
   1.646879e+06   2.029862e+05
   1.391881e+06   1.157804e+06
   3.866170e+05   1.282774e+06
  -5.815198e+05   7.107297e+05
  -7.537389e+05   9.477628e+04
  -2.217018e+05  -1.225727e+04
   1.771888e+05   3.221119e+05
  -1.243570e+05   5.390915e+05
  -7.415977e+05   2.600605e+05
  -8.506624e+05  -2.798741e+05
  -2.261904e+05  -5.402665e+05
   4.775476e+05  -2.985300e+05
   4.761424e+05   1.548750e+05
  -2.804555e+05   3.573274e+05
  -1.042271e+06   8.136053e+04
  -9.948545e+05  -5.160866e+05
  -5.968863e+04  -9.870951e+05
   9.912283e+05  -8.916386e+05
   1.246993e+06  -2.135265e+05
   5.458045e+05   4.989688e+05
  -3.670186e+05   6.052539e+05
  -6.110045e+05   7.290830e+04
  -5.139746e+04  -4.435920e+05
   6.487339e+05  -3.352478e+05
   7.779537e+05   2.716426e+05
   2.581730e+05   7.000419e+05
  -3.813802e+05   5.192046e+05
  -5.649089e+05  -1.108693e+04
  -1.883372e+05  -2.922103e+05
   3.028789e+05  -4.260929e+04
   3.240573e+05   4.479045e+05
  -2.554116e+05   6.368802e+05
  -9.014355e+05   2.523262e+05
  -9.167356e+05  -4.500317e+05
  -2.054186e+05  -9.060761e+05
   5.818482e+05  -7.513429e+05
   7.456449e+05  -1.549306e+05
   2.693564e+05   3.520034e+05
  -2.546549e+05   3.883030e+05
  -3.280391e+05   5.477870e+04
  -1.445022e+04  -2.337881e+05
   2.577814e+05  -2.045694e+05
   1.937087e+05   1.317337e+04
  -1.033709e+05   7.005245e+04
  -2.597179e+05  -1.869638e+05
   6.789801e+03  -5.010448e+05
   5.708240e+05  -4.399178e+05
   9.356372e+05   1.314591e+05
   6.879599e+05   8.376678e+05
  -4.637035e+04   1.109281e+06
  -6.918770e+05   7.306039e+05
  -8.108199e+05   4.125357e+04
  -5.118305e+05  -4.173929e+05
  -2.230599e+05  -4.183882e+05
  -1.696092e+05  -1.952588e+05
  -1.916365e+05  -1.196501e+05
  -2.793923e+04  -2.874288e+05
   3.424917e+05  -4.310003e+05
   6.487969e+05  -2.281193e+05
   5.565860e+05   3.015659e+05
  -1.962197e+04   7.240331e+05
  -7.464274e+05   5.738087e+05
  -1.048015e+06  -1.481185e+05
  -5.928519e+05  -8.954700e+05
   3.398773e+05  -1.061556e+06
   1.058623e+06  -5.508764e+05
   1.085853e+06   1.656782e+05
   5.594638e+05   5.516702e+05
   6.089950e+03   5.023394e+05
  -2.046865e+05   3.353811e+05
  -1.358653e+05   3.615583e+05
  -9.542184e+04   5.361101e+05
  -2.715810e+05   5.356613e+05
  -5.453773e+05   1.418250e+05
  -6.089710e+05  -4.728651e+05
  -2.797120e+05  -8.506135e+05
   2.629025e+05  -6.632032e+05
   5.832149e+05  -4.080235e+04
   4.023469e+05   5.236197e+05
  -9.557012e+04   6.164993e+05
  -4.352437e+05   2.532041e+05
  -3.444784e+05  -2.009411e+05
  -1.928835e+04  -4.127433e+05
   1.362039e+05  -3.513599e+05
  -1.483494e+04  -2.147590e+05
  -1.909259e+05  -1.667233e+05
  -2.596340e+04  -1.826199e+05
   4.803107e+05  -1.202749e+05
   8.891611e+05   1.030164e+05
   7.404229e+05   4.059465e+05
   5.314058e+04   5.923922e+05
  -6.362248e+05   5.098672e+05
  -7.868871e+05   1.939327e+05
  -3.858600e+05  -1.296364e+05
   8.735950e+04  -2.204700e+05
   2.028874e+05  -4.914702e+04
  -1.168685e+04   1.526880e+05
  -2.216461e+05   1.185133e+05
  -2.157275e+05  -1.493081e+05
  -7.949237e+04  -3.514809e+05
  -3.965175e+03  -2.318772e+05
  -5.624856e+04   8.329446e+04
  -1.486623e+05   1.935161e+05
  -1.373092e+05  -9.099838e+04
   6.617073e+04  -4.735570e+05
   3.864261e+05  -4.880726e+05
   5.605678e+05  -5.301995e+04
   3.415722e+05   4.165352e+05
  -1.801605e+05   4.740586e+05
  -5.413036e+05   1.158162e+05
  -3.391446e+05  -2.648278e+05
   2.890286e+05  -3.136195e+05
   7.360959e+05  -2.280478e+04
   5.378771e+05   3.384875e+05
  -1.370848e+05   4.867096e+05
  -6.638656e+05   3.235961e+05
  -5.995136e+05  -1.087504e+04
  -1.013422e+05  -2.355695e+05
   2.764479e+05  -1.580183e+05
   1.589440e+05   1.145830e+05
  -2.870226e+05   2.301610e+05
  -5.451849e+05  -5.438937e+04
  -2.863712e+05  -5.577817e+05
   2.975191e+05  -7.820021e+05
   6.963481e+05  -4.034273e+05
   5.901327e+05   3.434197e+05
   1.215193e+05   8.298150e+05
  -3.085065e+05   6.335218e+05
  -4.277426e+05  -2.949969e+04
  -2.519003e+05  -5.244594e+05
   3.385137e+04  -4.603438e+05
   2.385649e+05  -6.347385e+04
   2.533598e+05   1.626900e+05
   1.142646e+05   6.111987e+04
   4.621861e+03  -5.140811e+04
   7.926337e+04   1.209529e+05
   2.311899e+05   4.289914e+05
   1.506344e+05   4.872188e+05
  -2.720934e+05   1.888785e+05
  -6.930615e+05  -1.849265e+05
  -6.415029e+05  -3.489214e+05
  -1.003890e+05  -3.077876e+05
   4.179657e+05  -2.142001e+05
   4.571629e+05  -1.181962e+05
   1.332501e+05   6.234896e+03
  -7.653583e+04   1.065553e+05
   3.134201e+04   1.026550e+05
   1.705382e+05   4.861774e+04
   1.040899e+04   6.753556e+04
  -3.479712e+05   1.168254e+05
  -4.793025e+05  -2.417664e+03
  -1.484907e+05  -3.221211e+05
   4.135469e+05  -5.411054e+05
   7.506106e+05  -3.356149e+05
   6.120595e+05   2.142479e+05
   1.339587e+05   6.531575e+05
  -3.249622e+05   6.266346e+05
  -4.812348e+05   2.357943e+05
  -3.168257e+05  -1.169944e+05
  -4.969869e+04  -1.671157e+05
   7.210326e+04  -1.902499e+04
  -1.630520e+04   3.130871e+04
  -1.578353e+05  -1.470080e+05
  -1.409576e+05  -3.623297e+05
   8.270946e+04  -3.087360e+05
   3.301323e+05   6.883200e+04
   3.387033e+05   4.583176e+05
   2.568841e+04   4.810455e+05
  -3.757457e+05   9.645397e+04
  -4.843143e+05  -3.528009e+05
  -1.511500e+05  -5.011860e+05
   3.323975e+05  -2.965586e+05
   5.004167e+05   3.462143e+04
   2.244619e+05   2.559406e+05
  -1.302792e+05   2.822087e+05
  -1.422512e+05   1.571753e+05
   1.498529e+05   2.773572e+03
   3.079715e+05  -2.471024e+04
   5.852778e+04   1.368007e+05
  -3.681232e+05   3.279077e+05
  -5.354614e+05   2.811203e+05
  -3.124371e+05  -5.593515e+04
   3.909826e+04  -3.888182e+05
   2.179500e+05  -3.787390e+05
   1.690010e+05  -4.680968e+04
   1.876488e+04   2.380540e+05
  -1.155641e+05   1.880660e+05
  -1.749126e+05  -9.041040e+04
  -1.205503e+05  -2.643687e+05
   3.459012e+04  -1.736472e+05
   1.831623e+05   2.803886e+04
   2.058803e+05   1.059332e+05
   1.065695e+05   2.334938e+04
   3.863685e+03  -5.100924e+04
  -2.289546e+04   2.710849e+04
  -2.302391e+04   1.935933e+05
  -8.166831e+04   2.409205e+05
  -1.787263e+05   5.900285e+04
  -1.893404e+05  -2.143955e+05
  -3.202796e+04  -3.168648e+05
   2.025565e+05  -1.408414e+05
   2.965689e+05   1.447812e+05
   1.136263e+05   2.765627e+05
  -2.213990e+05   1.677333e+05
  -3.943077e+05  -4.140467e+04
  -2.170673e+05  -1.708612e+05
   1.369397e+05  -1.667582e+05
   2.919925e+05  -8.477200e+04
   9.438346e+04   2.458811e+02
  -1.968176e+05   2.376023e+04
  -2.110291e+05  -5.125928e+04
   9.235404e+04  -1.634282e+05
   3.800539e+05  -1.474709e+05
