
 $NMID
 id='ANONYMOUS ', fmtdat='(2E16.6)'
 volume=1.0
 tramp=1.0
 $END
   2.740734e+07  -8.059485e+05
   1.870369e+07   1.316898e+07
  -4.779136e+03   1.784638e+07
  -1.207766e+07   1.130196e+07
  -9.971245e+06   5.919607e+05
  -4.355294e+05  -5.005369e+06
   5.551779e+06  -2.116618e+06
   3.914451e+06   4.507482e+06
  -1.520832e+06   7.242949e+06
  -5.135203e+06   3.149872e+06
  -4.394481e+06  -3.387439e+06
  -6.504174e+05  -5.520527e+06
   2.481795e+06  -1.285360e+06
   2.000427e+06   4.419866e+06
  -1.638631e+06   5.318828e+06
  -4.578243e+06   4.361557e+05
  -3.394418e+06  -5.351187e+06
   1.205984e+06  -6.822315e+06
   5.173876e+06  -3.386820e+06
   5.395602e+06   1.338786e+06
   2.552213e+06   3.712850e+06
  -1.022329e+05   3.198582e+06
  -1.830395e+05   1.954549e+06
   1.571560e+06   2.114914e+06
   2.113025e+06   3.574272e+06
  -6.479896e+05   4.256941e+06
  -5.091312e+06   2.526177e+06
  -6.974288e+06  -8.144774e+05
  -3.991542e+06  -3.189934e+06
   1.211608e+06  -2.852446e+06
   3.632646e+06  -4.826100e+05
   1.403803e+06   1.684842e+06
  -2.424372e+06   1.837076e+06
  -3.744147e+06  -1.832829e+05
  -1.814975e+06  -2.799377e+06
   8.046711e+05  -3.689238e+06
   1.694386e+06  -1.796343e+06
   7.980517e+05   1.123602e+06
  -3.427347e+05   1.862028e+06
  -4.141713e+05  -4.912402e+05
   7.043021e+05  -2.957934e+06
   1.961961e+06  -2.100125e+06
   1.889674e+06   1.420781e+06
  -8.863687e+03   3.351187e+06
  -2.280464e+06   1.144758e+06
  -2.495483e+06  -2.803800e+06
   2.178650e+05  -4.099199e+06
   3.783225e+06  -1.430829e+06
   4.865701e+06   2.421599e+06
   2.168920e+06   4.034331e+06
  -2.106323e+06   2.571848e+06
  -4.267377e+06  -2.124174e+05
  -2.655042e+06  -2.009996e+06
   8.281384e+05  -1.722780e+06
   2.735769e+06  -4.504289e+04
   1.588186e+06   1.233127e+06
  -7.963546e+05   8.853520e+05
  -1.547367e+06  -5.107447e+05
  -1.202399e+04  -1.241850e+06
   1.658668e+06  -4.290263e+05
   1.172574e+06   1.029531e+06
  -1.183154e+06   1.537500e+06
  -2.852500e+06   4.012998e+05
  -1.816312e+06  -1.701552e+06
   1.316773e+06  -3.309275e+06
   4.022163e+06  -3.061751e+06
   4.336774e+06  -6.705057e+05
   2.493231e+06   2.492345e+06
   3.117253e+05   4.238571e+06
  -7.311972e+05   3.620396e+06
  -7.275794e+05   1.909367e+06
  -7.892272e+05   9.822365e+05
  -1.563194e+06   1.014881e+06
  -2.494866e+06   5.633489e+05
  -2.501335e+06  -1.095062e+06
  -1.157561e+06  -2.640751e+06
   8.219592e+05  -2.246978e+06
   2.093735e+06   8.644688e+04
   1.663512e+06   2.365905e+06
  -3.028662e+05   2.651932e+06
  -2.402397e+06   8.554954e+05
  -2.993403e+06  -1.452130e+06
  -1.682920e+06  -2.634652e+06
   2.306097e+05  -2.312192e+06
   1.150894e+06  -1.368782e+06
   9.885494e+05  -8.609896e+05
   1.115053e+06  -9.305133e+05
   2.372430e+06  -7.694674e+05
   3.657361e+06   3.705181e+05
   3.041405e+06   2.223688e+06
   1.795907e+05   3.601356e+06
  -2.942018e+06   3.389164e+06
  -3.890663e+06   1.517980e+06
  -2.196259e+06  -8.491269e+05
   2.980744e+05  -2.091325e+06
   1.354311e+06  -1.444821e+06
   4.259034e+05   1.991007e+05
  -1.105514e+06   1.047412e+06
  -1.542446e+06   2.874878e+05
  -5.690568e+05  -9.584747e+05
   6.142993e+05  -9.830852e+05
   6.727172e+05   3.010512e+05
  -4.876854e+05   1.106890e+06
  -1.674106e+06  -4.291090e+04
  -1.561238e+06  -2.367404e+06
   1.290139e+05  -3.550358e+06
   2.366869e+06  -2.247310e+06
   3.563954e+06   5.515605e+05
   2.792153e+06   2.640937e+06
   6.159008e+05   2.723365e+06
  -1.264428e+06   1.351529e+06
  -1.509995e+06   8.645751e+04
  -4.445666e+05  -4.195967e+04
   3.291684e+05   6.591691e+05
  -2.456675e+05   1.070287e+06
  -1.458485e+06   5.086996e+05
  -1.705436e+06  -5.640085e+05
  -4.657508e+05  -1.088379e+06
   9.807244e+05  -5.749069e+05
   9.662703e+05   3.897049e+05
  -6.503605e+05   7.667016e+05
  -2.230453e+06   6.657367e+04
  -2.028325e+06  -1.234095e+06
   3.259271e+03  -2.093492e+06
   2.133845e+06  -1.732147e+06
   2.546485e+06  -3.235504e+05
   1.075303e+06   1.018260e+06
  -7.264610e+05   1.169449e+06
  -1.180309e+06   1.397819e+05
  -7.279600e+04  -8.413262e+05
   1.307625e+06  -6.170199e+05
   1.560675e+06   5.957701e+05
   4.969506e+05   1.461978e+06
  -8.225880e+05   1.076276e+06
  -1.191103e+06  -4.169148e+04
  -3.975544e+05  -6.220225e+05
   5.974586e+05  -8.309748e+04
   6.018945e+05   9.131568e+05
  -5.753620e+05   1.233799e+06
  -1.818418e+06   4.058506e+05
  -1.783169e+06  -9.813204e+05
  -3.409443e+05  -1.827517e+06
   1.215455e+06  -1.474394e+06
   1.518998e+06  -2.725444e+05
   5.344486e+05   7.330862e+05
  -5.440791e+05   7.711123e+05
  -6.712635e+05   5.448195e+04
   2.903151e+04  -5.192961e+05
   6.118873e+05  -3.766817e+05
   4.234284e+05   1.333430e+05
  -2.599133e+05   2.153827e+05
  -5.785636e+05  -3.903072e+05
   2.440443e+04  -1.043352e+06
   1.191106e+06  -8.561424e+05
   1.877293e+06   3.435353e+05
   1.309203e+06   1.740786e+06
  -2.018567e+05   2.231856e+06
  -1.493148e+06   1.425794e+06
  -1.686074e+06  -3.694107e+03
  -1.000402e+06  -9.584234e+05
  -3.477509e+05  -9.328526e+05
  -2.486279e+05  -4.022126e+05
  -3.605232e+05  -1.992384e+05
  -5.828655e+04  -5.569598e+05
   7.303936e+05  -8.639678e+05
   1.368442e+06  -4.085516e+05
   1.114257e+06   7.071446e+05
  -1.332642e+05   1.514263e+06
  -1.594182e+06   1.103243e+06
  -2.118086e+06  -4.080046e+05
  -1.134141e+06  -1.875654e+06
   7.532108e+05  -2.138893e+06
   2.186687e+06  -1.058397e+06
   2.222844e+06   4.217004e+05
   1.116841e+06   1.215383e+06
  -6.105918e+04   1.075727e+06
  -5.120209e+05   6.528154e+05
  -3.441985e+05   6.476267e+05
  -2.222158e+05   1.011028e+06
  -5.570001e+05   1.042683e+06
  -1.085402e+06   2.485212e+05
  -1.169377e+06  -9.998208e+05
  -4.768243e+05  -1.731402e+06
   5.934772e+05  -1.301716e+06
   1.185595e+06  -2.866367e+04
   7.855868e+05   1.088338e+06
  -2.252818e+05   1.258469e+06
  -9.102264e+05   5.279247e+05
  -7.263030e+05  -3.947380e+05
  -5.701711e+04  -8.490589e+05
   2.808445e+05  -7.456952e+05
  -4.722724e+03  -4.652684e+05
  -3.538507e+05  -3.523369e+05
  -2.746708e+04  -3.690489e+05
   9.744039e+05  -2.191268e+05
   1.775316e+06   2.608733e+05
   1.467450e+06   8.744508e+05
   9.234858e+04   1.209384e+06
  -1.293468e+06   9.929786e+05
  -1.611898e+06   3.446329e+05
  -8.095447e+05  -2.800145e+05
   1.673144e+05  -4.389851e+05
   4.223697e+05  -1.017155e+05
  -2.078862e+04   2.801887e+05
  -4.580639e+05   2.032337e+05
  -4.175928e+05  -3.152293e+05
  -1.007146e+05  -6.915991e+05
   3.342788e+04  -4.405790e+05
  -1.444290e+05   1.735783e+05
  -3.594197e+05   3.685385e+05
  -2.757500e+05  -2.035748e+05
   1.994956e+05  -9.419693e+05
   8.203127e+05  -9.422002e+05
   1.091911e+06  -7.182656e+04
   6.229389e+05   8.382005e+05
  -3.810113e+05   9.178694e+05
  -1.058872e+06   1.825669e+05
  -6.451578e+05  -5.661975e+05
   6.114906e+05  -6.160864e+05
   1.509245e+06   2.450526e+04
   1.085468e+06   7.662571e+05
  -3.270169e+05   1.013009e+06
  -1.414316e+06   6.084351e+05
  -1.245444e+06  -9.168499e+04
  -1.844967e+05  -5.036573e+05
   5.825695e+05  -3.035506e+05
   3.101610e+05   2.303060e+05
  -5.950178e+05   4.105930e+05
  -1.066180e+06  -1.751382e+05
  -4.913998e+05  -1.129916e+06
   6.839401e+05  -1.503351e+06
   1.428865e+06  -7.143541e+05
   1.140223e+06   7.542252e+05
   1.521290e+05   1.681190e+06
  -7.003852e+05   1.253208e+06
  -8.796785e+05  -9.641394e+04
  -4.681917e+05  -1.098875e+06
   1.140224e+05  -9.558484e+05
   4.926130e+05  -1.163197e+05
   5.001068e+05   3.745174e+05
   2.293710e+05   1.585808e+05
   1.513553e+04  -1.144925e+05
   1.416046e+05   2.143220e+05
   4.197205e+05   8.716490e+05
   2.645288e+05   1.021613e+06
  -5.528192e+05   3.822038e+05
  -1.377143e+06  -4.471858e+05
  -1.269990e+06  -7.903116e+05
  -1.771612e+05  -6.297806e+05
   8.734917e+05  -3.671690e+05
   9.443344e+05  -1.882840e+05
   2.685498e+05   1.859600e+03
  -1.670718e+05   1.971392e+05
   5.681819e+04   2.410243e+05
   3.403233e+05   1.500342e+05
   4.879413e+03   1.286024e+05
  -7.193237e+05   1.649842e+05
  -9.512292e+05  -5.724357e+04
  -2.438208e+05  -6.223334e+05
   8.859931e+05  -1.008062e+06
   1.509963e+06  -5.992165e+05
   1.170187e+06   4.719439e+05
   1.896122e+05   1.316440e+06
  -7.046857e+05   1.223212e+06
  -9.726362e+05   4.108633e+05
  -6.110002e+05  -2.813384e+05
  -7.446363e+04  -3.294449e+05
   1.465968e+05   6.757664e+02
  -4.741254e+04   8.009379e+04
  -3.156699e+05  -3.178375e+05
  -2.504181e+05  -7.501369e+05
   1.963706e+05  -6.001607e+05
   6.398475e+05   1.889197e+05
   6.033866e+05   9.491629e+05
  -1.429983e+04   9.367544e+05
  -7.485914e+05   1.237831e+05
  -9.055953e+05  -7.634191e+05
  -2.406832e+05  -1.002653e+06
   6.818548e+05  -5.430322e+05
   9.833195e+05   1.154282e+05
   4.286188e+05   5.123019e+05
  -2.690201e+05   5.380547e+05
  -2.835683e+05   3.142874e+05
   3.060634e+05   4.713448e+04
   6.196643e+05  -9.045995e+03
   1.020134e+05   2.701063e+05
  -7.739567e+05   6.194137e+05
  -1.104548e+06   5.349320e+05
  -6.216308e+05  -1.124082e+05
   1.118207e+05  -7.660716e+05
   4.547738e+05  -7.474446e+05
   3.138419e+05  -8.654876e+04
  -3.661387e+03   4.730792e+05
  -2.424887e+05   3.524488e+05
  -3.226137e+05  -2.132152e+05
  -2.103880e+05  -5.390657e+05
   7.382184e+04  -3.268226e+05
   3.542935e+05   8.022675e+04
   4.090222e+05   2.178744e+05
   2.224267e+05   4.960499e+04
   5.026697e+03  -8.192847e+04
  -7.904615e+04   7.302213e+04
  -9.664025e+04   3.665793e+05
  -1.933767e+05   4.214908e+05
  -3.370649e+05   6.358628e+04
  -3.160198e+05  -4.387908e+05
  -4.416081e+03  -6.052509e+05
   4.171433e+05  -2.439223e+05
   5.560792e+05   3.170581e+05
   1.831325e+05   5.605202e+05
  -4.537985e+05   3.153708e+05
  -7.671865e+05  -1.195155e+05
  -4.110378e+05  -3.591684e+05
   2.769510e+05  -3.086139e+05
   5.710402e+05  -1.314533e+05
   1.752562e+05  -2.696515e+03
  -3.942652e+05  -5.208478e+03
  -4.000792e+05  -1.475347e+05
   2.263200e+05  -3.078813e+05
   7.932120e+05  -2.252515e+05
