
 $NMID
 id='ANONYMOUS ', fmtdat='(2E16.6)'
 volume=1.0
 tramp=1.0
 $END
  -4.847077e+07  -2.329399e+06
  -2.786326e+07  -3.048891e+07
   7.314839e+06  -3.206323e+07
   2.378894e+07  -1.228149e+07
   1.404508e+07   5.674709e+06
  -2.750870e+06   7.858503e+06
  -8.404116e+06  -7.751644e+05
  -2.562502e+06  -8.293353e+06
   5.193932e+06  -8.316503e+06
   8.349370e+06  -1.849385e+06
   6.018359e+06   5.679440e+06
   4.752993e+05   7.760779e+06
  -3.708792e+06   2.215123e+06
  -2.344054e+06  -5.186173e+06
   3.324262e+06  -5.978529e+06
   6.819311e+06   1.184547e+06
   3.694790e+06   8.987619e+06
  -3.552685e+06   1.019821e+07
  -8.990189e+06   4.770192e+06
  -9.274719e+06  -2.327304e+06
  -5.211465e+06  -6.816350e+06
  -2.426604e+04  -7.274759e+06
   2.564153e+06  -4.751583e+06
   1.065590e+06  -2.235643e+06
  -1.433232e+06  -2.386870e+06
  -2.648511e+04  -4.204948e+06
   5.412587e+06  -3.839752e+06
   8.985055e+06   7.398829e+04
   6.123951e+06   4.117634e+06
  -2.996595e+05   4.584860e+06
  -3.828426e+06   2.017642e+06
  -2.321876e+06  -4.902848e+05
   9.701337e+05  -1.287054e+06
   2.657588e+06  -4.270502e+05
   2.169500e+06   1.784416e+06
   2.787570e+05   3.938619e+06
  -1.932561e+06   3.281832e+06
  -2.677956e+06  -5.597193e+05
  -1.035516e+06  -3.327852e+06
   8.746559e+05  -1.282015e+06
   1.144722e+05   2.629381e+06
  -2.330471e+06   2.172915e+06
  -2.127105e+06  -2.778367e+06
   2.049407e+06  -5.179058e+06
   5.714804e+06  -6.408243e+05
   4.064152e+06   6.056340e+06
  -1.851688e+06   7.195571e+06
  -6.526399e+06   1.830747e+06
  -6.174810e+06  -4.088843e+06
  -1.717096e+06  -5.450668e+06
   3.125168e+06  -2.521541e+06
   4.844656e+06   1.291273e+06
   2.316326e+06   3.084595e+06
  -2.053362e+06   1.924769e+06
  -3.959369e+06  -8.380890e+05
  -1.708749e+06  -2.368718e+06
   1.519243e+06  -1.159498e+06
   1.628759e+06   9.155335e+05
  -9.614742e+05   8.830116e+05
  -2.074729e+06  -1.272894e+06
   3.684785e+05  -2.672104e+06
   3.761838e+06  -1.505221e+06
   4.493106e+06   1.123393e+06
   1.970050e+06   3.419234e+06
  -1.838936e+06   4.669486e+06
  -4.865176e+06   4.240783e+06
  -5.752292e+06   1.285558e+06
  -3.945353e+06  -3.140053e+06
  -5.950421e+05  -5.678223e+06
   1.679920e+06  -4.335102e+06
   1.446292e+06  -1.283205e+06
   2.197072e+05  -9.484313e+04
   3.606558e+05  -1.097946e+06
   1.905545e+06  -1.533506e+06
   2.813372e+06   1.247027e+05
   1.842885e+06   2.164798e+06
  -1.855898e+05   2.220408e+06
  -1.699950e+06   1.679014e+05
  -1.674910e+06  -2.140723e+06
   1.088910e+05  -2.865397e+06
   2.722474e+06  -1.401651e+06
   4.078455e+06   1.379880e+06
   2.703843e+06   3.579974e+06
  -2.541991e+05   3.727904e+06
  -2.094311e+06   2.258603e+06
  -1.931263e+06   9.489617e+05
  -1.623736e+06   6.711808e+05
  -2.756217e+06   4.861466e+05
  -4.106309e+06  -7.370577e+05
  -3.288696e+06  -2.665757e+06
  -7.564475e+04  -3.963281e+06
   3.179266e+06  -3.705253e+06
   4.132349e+06  -1.910555e+06
   2.557230e+06   5.737338e+05
   1.109836e+05   2.230977e+06
  -1.205800e+06   1.815720e+06
  -5.420271e+05  -9.004316e+04
   1.113716e+06  -1.234512e+06
   1.821082e+06  -3.300737e+05
   8.058990e+05   1.173131e+06
  -5.573292e+05   1.082829e+06
  -4.783587e+05  -3.498644e+05
   8.934012e+05  -7.419580e+05
   1.697476e+06   1.004730e+06
   7.503083e+05   3.127701e+06
  -1.245492e+06   3.296441e+06
  -2.853984e+06   1.292076e+06
  -3.263355e+06  -1.227771e+06
  -2.348607e+06  -2.689364e+06
  -4.772687e+05  -2.607971e+06
   1.256843e+06  -1.419010e+06
   1.564227e+06  -1.755097e+05
   4.777731e+05   5.294879e+04
  -3.376536e+05  -7.312368e+05
   4.024943e+05  -1.256262e+06
   1.803856e+06  -5.117651e+05
   1.917488e+06   8.497359e+05
   3.667363e+05   1.333326e+06
  -1.126767e+06   5.480555e+05
  -8.950826e+05  -4.376791e+05
   7.814870e+05  -5.508535e+05
   2.143536e+06   2.436557e+05
   1.775441e+06   1.311394e+06
  -1.983893e+05   1.963767e+06
  -2.261258e+06   1.628255e+06
  -2.703795e+06   2.422402e+05
  -1.149064e+06  -1.224783e+06
   9.089710e+05  -1.398070e+06
   1.473298e+06  -1.358378e+05
   1.456826e+05   1.034027e+06
  -1.477023e+06   6.791159e+05
  -1.653582e+06  -7.627904e+05
  -3.415944e+05  -1.592695e+06
   1.028603e+06  -9.634907e+05
   1.213674e+06   2.675786e+05
   2.596971e+05   7.345919e+05
  -7.466204e+05   4.159912e+04
  -6.854335e+05  -1.030594e+06
   5.954814e+05  -1.369386e+06
   1.967585e+06  -4.807006e+05
   1.954932e+06   1.063346e+06
   3.365725e+05   2.015317e+06
  -1.410305e+06   1.567487e+06
  -1.669539e+06   1.904812e+05
  -4.886981e+05  -8.383828e+05
   6.401439e+05  -7.788343e+05
   6.415959e+05  -6.972281e+04
  -8.732501e+04   3.844555e+05
  -5.008971e+05   2.494913e+05
  -1.904876e+05  -5.543093e+04
   3.800168e+05   3.351926e+04
   4.976686e+05   6.064374e+05
  -1.879836e+05   1.130705e+06
  -1.341656e+06   8.534945e+05
  -2.014187e+06  -4.289316e+05
  -1.390119e+06  -1.910635e+06
   2.467905e+05  -2.361059e+06
   1.589239e+06  -1.382207e+06
   1.666199e+06   1.147429e+05
   8.776926e+05   9.002978e+05
   3.363434e+05   7.073488e+05
   4.367271e+05   2.778192e+05
   5.538161e+05   3.119131e+05
   6.018367e+04   7.167236e+05
  -8.491229e+05   8.658368e+05
  -1.414662e+06   3.203350e+05
  -1.045605e+06  -7.166353e+05
   2.321108e+05  -1.446939e+06
   1.687260e+06  -1.045477e+06
   2.192967e+06   4.923879e+05
   1.090815e+06   2.046345e+06
  -9.851482e+05   2.272714e+06
  -2.455811e+06   9.810169e+05
  -2.283181e+06  -6.345921e+05
  -9.617304e+05  -1.299047e+06
   1.722281e+05  -9.529047e+05
   4.051144e+05  -5.421728e+05
   1.473896e+05  -7.453806e+05
   1.608930e+05  -1.244003e+06
   6.713219e+05  -1.213748e+06
   1.248765e+06  -2.754767e+05
   1.278295e+06   1.078913e+06
   5.090103e+05   1.857173e+06
  -6.328575e+05   1.391750e+06
  -1.253083e+06  -1.334026e+04
  -7.755426e+05  -1.241769e+06
   3.751832e+05  -1.341201e+06
   1.095416e+06  -3.990278e+05
   7.582964e+05   6.423606e+05
  -1.110641e+05   1.005515e+06
  -4.884755e+05   7.446546e+05
  -6.558046e+04   4.155963e+05
   4.117891e+05   3.459601e+05
   4.838092e+04   3.798835e+05
  -1.104492e+06   1.873032e+05
  -1.979192e+06  -3.533626e+05
  -1.553233e+06  -1.019337e+06
   3.913512e+04  -1.367342e+06
   1.536627e+06  -1.066750e+06
   1.769898e+06  -2.578260e+05
   8.020431e+05   4.554077e+05
  -2.545237e+05   5.288449e+05
  -4.844041e+05   3.605411e+04
  -5.516128e+03  -3.934882e+05
   4.487711e+05  -2.427701e+05
   4.602627e+05   3.426594e+05
   2.137676e+05   7.243518e+05
   6.381052e+04   4.784487e+05
   1.319222e+05  -1.081690e+05
   2.876836e+05  -3.084984e+05
   2.682205e+05   2.259660e+05
  -1.614906e+05   9.715678e+05
  -8.923569e+05   1.020289e+06
  -1.307418e+06   1.243717e+05
  -7.895008e+05  -9.150585e+05
   4.296381e+05  -1.082312e+06
   1.223728e+06  -2.820212e+05
   7.063512e+05   5.781878e+05
  -6.864303e+05   6.240114e+05
  -1.552220e+06  -1.006013e+05
  -9.954119e+05  -8.388749e+05
   4.574867e+05  -9.669919e+05
   1.462116e+06  -4.781579e+05
   1.213092e+06   1.801520e+05
   1.367325e+05   5.040789e+05
  -6.308169e+05   2.623481e+05
  -3.612430e+05  -2.888378e+05
   5.922895e+05  -4.964030e+05
   1.159348e+06   1.104970e+05
   6.261827e+05   1.178589e+06
  -6.224044e+05   1.659035e+06
  -1.478062e+06   8.387825e+05
  -1.221215e+06  -7.646881e+05
  -1.743839e+05  -1.761183e+06
   7.371881e+05  -1.266323e+06
   9.005852e+05   1.726860e+05
   4.163551e+05   1.164687e+06
  -2.098057e+05   9.454678e+05
  -5.438322e+05   7.819127e+04
  -4.621547e+05  -3.721913e+05
  -1.707667e+05  -1.336835e+05
  -4.292275e+04   9.350740e+04
  -2.510329e+05  -2.947742e+05
  -4.791813e+05  -9.530095e+05
  -1.864138e+05  -1.052900e+06
   6.896706e+05  -3.707630e+05
   1.440492e+06   4.731436e+05
   1.253535e+06   8.283023e+05
   1.719647e+05   6.832177e+05
  -8.503307e+05   4.055477e+05
  -9.668404e+05   1.719126e+05
  -3.417525e+05  -5.697983e+04
   1.491708e+05  -2.210149e+05
   2.445627e+04  -1.974167e+05
  -2.722297e+05  -9.249934e+04
  -4.501162e+04  -1.347943e+05
   6.638396e+05  -2.291408e+05
   1.027250e+06   2.685950e+04
   4.027394e+05   6.943424e+05
  -8.510467e+05   1.148185e+06
  -1.675750e+06   7.110582e+05
  -1.374273e+06  -4.531686e+05
  -2.528215e+05  -1.386305e+06
   7.682452e+05  -1.335678e+06
   1.040546e+06  -5.115708e+05
   6.457788e+05   2.372147e+05
   1.245027e+05   3.563434e+05
  -7.998754e+04   6.800185e+04
   7.216089e+04  -1.693153e+04
   2.908117e+05   3.582297e+05
   2.358774e+05   7.918896e+05
  -1.856695e+05   6.648974e+05
  -6.735162e+05  -1.268664e+05
  -7.185773e+05  -9.482241e+05
  -9.844061e+04  -1.021571e+06
   7.510545e+05  -2.376835e+05
   1.014898e+06   7.219689e+05
   3.293385e+05   1.077157e+06
  -7.122069e+05   6.572207e+05
  -1.097433e+06  -8.827087e+04
  -5.085903e+05  -6.081318e+05
   2.948313e+05  -6.593517e+05
   3.748139e+05  -3.502002e+05
  -2.478857e+05  -4.907549e+03
  -6.393704e+05   3.420418e+04
  -1.388338e+05  -3.056084e+05
   8.151338e+05  -6.586138e+05
   1.233120e+06  -5.135575e+05
   7.384012e+05   1.867416e+05
  -1.054569e+05   8.518998e+05
  -5.508299e+05   8.278157e+05
  -4.226025e+05   1.465432e+05
  -5.078607e+04  -4.751190e+05
   2.426471e+05  -4.257828e+05
   3.508537e+05   1.480583e+05
   2.446434e+05   5.697126e+05
  -6.149062e+04   4.196970e+05
  -3.861842e+05  -4.764530e+04
  -4.595246e+05  -2.809687e+05
  -2.330458e+05  -9.616606e+04
   2.691203e+04   1.502397e+05
   7.017403e+04   4.197930e+04
  -1.218356e+04  -3.565762e+05
   6.173390e+04  -5.517957e+05
   3.270888e+05  -2.152019e+05
   4.541285e+05   3.849848e+05
   1.494192e+05   6.486937e+05
  -4.064423e+05   3.090089e+05
  -6.544611e+05  -2.836458e+05
  -2.476980e+05  -5.682087e+05
   5.018196e+05  -3.531245e+05
   8.689546e+05   8.435045e+04
   4.678239e+05   3.761517e+05
  -2.962207e+05   3.910608e+05
  -6.352285e+05   2.179030e+05
  -2.474177e+05   1.108829e+04
   3.451986e+05  -7.247791e+04
   4.069893e+05   6.180974e+04
  -1.620044e+05   2.903869e+05
  -7.309070e+05   2.714432e+05
