
 $NMID
 id='ANONYMOUS ', fmtdat='(2E16.6)'
 volume=1.0
 tramp=1.0
 $END
  -4.058451e+07   2.161798e+06
  -2.705093e+07  -2.108024e+07
   1.445463e+06  -2.700457e+07
   1.831189e+07  -1.464677e+07
   1.354372e+07   1.334677e+06
  -5.013785e+05   7.182626e+06
  -7.726483e+06   1.625269e+06
  -4.369492e+06  -6.734685e+06
   2.946486e+06  -9.104407e+06
   7.233613e+06  -3.487237e+06
   6.026905e+06   4.603218e+06
   1.022517e+06   7.297562e+06
  -3.294326e+06   2.045475e+06
  -2.703331e+06  -5.321394e+06
   2.323430e+06  -6.581675e+06
   6.290889e+06  -1.535553e+05
   4.477773e+06   7.511961e+06
  -1.874895e+06   9.435348e+06
  -7.309709e+06   4.907947e+06
  -7.935535e+06  -1.490492e+06
  -4.397884e+06  -5.298315e+06
  -3.220516e+05  -5.395002e+06
   9.749092e+05  -3.581594e+06
  -7.674926e+05  -2.554282e+06
  -2.217897e+06  -3.522920e+06
   2.587113e+05  -4.845145e+06
   5.780704e+06  -3.718046e+06
   8.864955e+06   1.791148e+05
   5.703217e+06   3.768251e+06
  -7.784445e+05   4.043254e+06
  -4.165333e+06   1.399292e+06
  -2.022319e+06  -1.309493e+06
   2.114455e+06  -1.898536e+06
   3.799672e+06  -1.460118e+05
   2.271062e+06   2.680532e+06
  -3.113632e+05   4.298279e+06
  -1.885061e+06   2.762579e+06
  -1.726298e+06  -9.176004e+05
  -3.626256e+05  -2.701965e+06
   5.826546e+05  -2.420450e+05
  -3.462081e+05   3.232732e+06
  -2.304438e+06   2.545026e+06
  -2.415949e+06  -2.121322e+06
   6.124128e+05  -4.765423e+06
   4.063659e+06  -1.425437e+06
   3.877595e+06   4.390069e+06
  -5.493493e+05   6.139806e+06
  -5.414337e+06   2.164798e+06
  -6.359385e+06  -3.178109e+06
  -2.567266e+06  -5.161139e+06
   2.748444e+06  -3.090737e+06
   5.226638e+06   4.813091e+05
   3.047283e+06   2.685109e+06
  -1.409652e+06   2.191772e+06
  -3.732931e+06  -1.340095e+05
  -1.996674e+06  -1.845486e+06
   1.179952e+06  -1.226716e+06
   1.863250e+06   6.959101e+05
  -3.794413e+05   1.347648e+06
  -2.182596e+06  -1.384892e+05
  -8.432531e+05  -1.945752e+06
   2.390215e+06  -1.975698e+06
   4.047391e+06  -3.783412e+04
   2.329277e+06   2.591635e+06
  -1.496910e+06   4.450613e+06
  -4.750910e+06   4.228134e+06
  -5.496675e+06   1.307351e+06
  -3.621314e+06  -2.929610e+06
  -7.476572e+05  -5.440882e+06
   1.050118e+06  -4.543247e+06
   1.103555e+06  -1.983552e+06
   6.684561e+05  -7.275216e+05
   1.213791e+06  -1.187717e+06
   2.513611e+06  -1.144778e+06
   2.992408e+06   7.007863e+05
   1.714135e+06   2.734773e+06
  -5.757141e+05   2.573141e+06
  -2.232779e+06   8.074137e+04
  -2.011754e+06  -2.550189e+06
   1.358148e+05  -3.141734e+06
   2.825103e+06  -1.342029e+06
   3.954304e+06   1.436058e+06
   2.533908e+06   3.285102e+06
  -8.792321e+04   3.260515e+06
  -1.602431e+06   2.049841e+06
  -1.484735e+06   1.120173e+06
  -1.464159e+06   1.036023e+06
  -2.861476e+06   8.956046e+05
  -4.417508e+06  -3.828746e+05
  -3.715786e+06  -2.581786e+06
  -3.488251e+05  -4.280403e+06
   3.296079e+06  -4.167000e+06
   4.470211e+06  -2.095697e+06
   2.697696e+06   7.391027e+05
  -6.434477e+04   2.449777e+06
  -1.410866e+06   1.867221e+06
  -5.495706e+05  -1.607881e+05
   1.214980e+06  -1.338844e+06
   1.883182e+06  -4.362152e+05
   8.138488e+05   1.158284e+06
  -6.402268e+05   1.203515e+06
  -7.185772e+05  -3.485781e+05
   7.025258e+05  -1.172978e+06
   1.998374e+06   3.703922e+05
   1.603626e+06   3.016652e+06
  -4.804015e+05   4.042705e+06
  -2.880081e+06   2.308785e+06
  -4.021070e+06  -7.821381e+05
  -3.129514e+06  -2.954388e+06
  -7.610771e+05  -3.053793e+06
   1.381399e+06  -1.630508e+06
   1.745817e+06  -2.033486e+05
   5.258330e+05   3.374569e+04
  -4.193771e+05  -7.725198e+05
   2.855656e+05  -1.333285e+06
   1.800733e+06  -6.776573e+05
   2.099277e+06   6.801261e+05
   5.623804e+05   1.348584e+06
  -1.167339e+06   7.136852e+05
  -1.110552e+06  -4.241571e+05
   7.700948e+05  -8.312687e+05
   2.534297e+06  -4.911990e+04
   2.282097e+06   1.367521e+06
   3.486450e+03   2.358893e+06
  -2.428918e+06   2.048332e+06
  -2.979688e+06   4.592990e+05
  -1.324101e+06  -1.207750e+06
   8.471447e+05  -1.486607e+06
   1.477856e+06  -2.289813e+05
   1.673110e+05   1.044619e+06
  -1.542613e+06   8.084968e+05
  -1.871730e+06  -6.787936e+05
  -5.795846e+05  -1.725808e+06
   9.944420e+05  -1.242863e+06
   1.400805e+06   8.829858e+04
   4.398359e+05   7.597368e+05
  -7.471722e+05   1.258300e+05
  -7.817320e+05  -1.056329e+06
   5.942510e+05  -1.499313e+06
   2.119665e+06  -5.936850e+05
   2.166885e+06   1.064878e+06
   4.844899e+05   2.160473e+06
  -1.406178e+06   1.798271e+06
  -1.803341e+06   3.521546e+05
  -6.357536e+05  -8.723433e+05
   6.326643e+05  -9.256352e+05
   7.619948e+05  -9.872384e+04
  -3.481389e+04   5.485720e+05
  -6.428228e+05   4.064319e+05
  -3.924030e+05  -1.105115e+05
   3.471295e+05  -1.619389e+05
   6.562137e+05   5.118967e+05
  -4.203412e+04   1.238362e+06
  -1.385022e+06   1.042043e+06
  -2.227271e+06  -3.335411e+05
  -1.623248e+06  -1.999685e+06
   1.432914e+05  -2.623954e+06
   1.693892e+06  -1.689029e+06
   1.932821e+06  -2.050168e+04
   1.131179e+06   1.042564e+06
   4.152712e+05   9.637971e+05
   3.683212e+05   3.853011e+05
   5.062118e+05   2.422074e+05
   1.012385e+05   6.953350e+05
  -8.444860e+05   1.025219e+06
  -1.567007e+06   4.941971e+05
  -1.274142e+06  -7.649348e+05
   1.296939e+05  -1.714347e+06
   1.814397e+06  -1.316130e+06
   2.479425e+06   4.006814e+05
   1.379747e+06   2.171094e+06
  -8.512428e+05   2.557922e+06
  -2.575792e+06   1.299456e+06
  -2.608896e+06  -4.683218e+05
  -1.278035e+06  -1.391163e+06
   7.634323e+04  -1.194920e+06
   5.225505e+05  -7.182935e+05
   2.795406e+05  -7.833925e+05
   1.699867e+05  -1.259688e+06
   6.281315e+05  -1.298042e+06
   1.298558e+06  -3.555037e+05
   1.435438e+06   1.119411e+06
   6.459776e+05   2.013948e+06
  -6.328858e+05   1.559764e+06
  -1.390299e+06   7.442015e+04
  -9.574678e+05  -1.275788e+06
   2.569296e+05  -1.498017e+06
   1.104567e+06  -6.082691e+05
   8.812438e+05   5.167151e+05
   4.749977e+04   1.045873e+06
  -3.713668e+05   8.833033e+05
  -6.479853e+03   5.199784e+05
   4.412791e+05   3.813425e+05
   5.540641e+04   4.226919e+05
  -1.159808e+06   2.895979e+05
  -2.132249e+06  -2.422471e+05
  -1.766157e+06  -9.885887e+05
  -1.209449e+05  -1.455937e+06
   1.530120e+06  -1.244135e+06
   1.904604e+06  -4.434637e+05
   9.525423e+05   3.559830e+05
  -2.003519e+05   5.522391e+05
  -5.086697e+05   1.134288e+05
  -4.981705e+03  -3.630360e+05
   5.110159e+05  -2.645892e+05
   5.097110e+05   3.525665e+05
   1.899079e+05   7.926993e+05
   2.080639e+04   5.144549e+05
   1.573270e+05  -1.772937e+05
   3.701609e+05  -4.097430e+05
   3.215141e+05   2.268697e+05
  -1.697622e+05   1.093437e+06
  -9.182829e+05   1.151529e+06
  -1.326340e+06   1.688712e+05
  -8.212890e+05  -9.497881e+05
   4.026883e+05  -1.136399e+06
   1.262250e+06  -3.058335e+05
   7.881327e+05   6.220334e+05
  -7.041514e+05   7.408053e+05
  -1.754181e+06   8.829860e+03
  -1.247011e+06  -8.675226e+05
   3.866362e+05  -1.166606e+06
   1.624286e+06  -7.106917e+05
   1.426321e+06   8.826434e+04
   2.148330e+05   5.737093e+05
  -6.776395e+05   3.620365e+05
  -3.915445e+05  -2.691165e+05
   6.561957e+05  -5.306855e+05
   1.262114e+06   1.216382e+05
   6.688009e+05   1.283457e+06
  -6.847458e+05   1.809615e+06
  -1.618681e+06   9.318375e+05
  -1.371987e+06  -8.153235e+05
  -2.600946e+05  -1.951457e+06
   7.634345e+05  -1.475102e+06
   1.027011e+06   1.006278e+05
   5.697307e+05   1.269538e+06
  -1.263015e+05   1.105312e+06
  -5.821226e+05   1.450493e+05
  -5.755220e+05  -4.094933e+05
  -2.463862e+05  -1.669104e+05
  -2.538544e+04   1.264158e+05
  -2.205125e+05  -2.618704e+05
  -5.486699e+05  -1.009252e+06
  -3.197981e+05  -1.180150e+06
   6.718411e+05  -4.689739e+05
   1.625902e+06   4.597882e+05
   1.487371e+06   8.687578e+05
   2.320510e+05   7.353503e+05
  -9.746330e+05   4.707492e+05
  -1.085202e+06   2.517125e+05
  -3.403025e+05  -6.039431e+03
   1.752846e+05  -2.413208e+05
  -3.997811e+04  -2.636137e+05
  -3.661478e+05  -1.398627e+05
  -2.786856e+04  -1.456183e+05
   7.911641e+05  -2.404412e+05
   1.120699e+06   6.634267e+03
   3.732470e+05   7.185071e+05
  -9.492867e+05   1.245729e+06
  -1.761890e+06   8.079783e+05
  -1.439188e+06  -4.683945e+05
  -3.032029e+05  -1.523835e+06
   7.711084e+05  -1.481240e+06
   1.115435e+06  -5.572938e+05
   7.228144e+05   2.759548e+05
   1.216627e+05   3.805540e+05
  -1.367791e+05   2.671202e+04
   6.529108e+04  -7.164655e+04
   3.696898e+05   3.681986e+05
   3.181207e+05   8.671916e+05
  -1.898652e+05   7.219533e+05
  -7.508551e+05  -1.621415e+05
  -7.778341e+05  -1.054068e+06
  -7.352633e+04  -1.099687e+06
   8.460759e+05  -2.178109e+05
   1.110310e+06   8.132121e+05
   3.585368e+05   1.161684e+06
  -7.616247e+05   6.980137e+05
  -1.174371e+06  -7.074541e+04
  -5.521688e+05  -5.991246e+05
   2.850347e+05  -6.772310e+05
   3.434362e+05  -3.945779e+05
  -3.273407e+05  -3.034830e+04
  -7.156567e+05   4.790025e+04
  -1.452075e+05  -3.160059e+05
   8.744742e+05  -7.620568e+05
   1.295738e+06  -6.630779e+05
   7.687186e+05   1.217924e+05
  -8.662475e+04   9.163594e+05
  -5.204106e+05   9.153582e+05
  -3.929466e+05   1.441018e+05
  -3.663783e+04  -5.393232e+05
   2.573490e+05  -4.424642e+05
   3.845888e+05   2.039165e+05
   2.798140e+05   6.184985e+05
  -5.867169e+04   4.125809e+05
  -4.197007e+05  -6.202718e+04
  -5.031200e+05  -2.527947e+05
  -2.650348e+05  -6.454496e+04
   1.558414e+04   1.177254e+05
   9.346299e+04  -4.253422e+04
   5.453828e+04  -4.123443e+05
   1.434316e+05  -5.311744e+05
   3.683090e+05  -1.442349e+05
   4.296541e+05   4.586686e+05
   8.949690e+04   6.992657e+05
  -4.589057e+05   3.214895e+05
  -6.862400e+05  -3.194286e+05
  -2.592728e+05  -6.328899e+05
   5.223898e+05  -3.993886e+05
   9.214031e+05   8.277430e+04
   5.100980e+05   3.966041e+05
  -3.055547e+05   3.991422e+05
  -6.676472e+05   2.132350e+05
  -2.279563e+05   1.909849e+04
   4.281432e+05  -3.683578e+04
   4.615933e+05   1.192047e+05
  -2.235265e+05   3.515050e+05
  -8.735010e+05   3.049919e+05
