
 $NMID
 id='ANONYMOUS ', fmtdat='(2E16.6)'
 volume=1.0
 tramp=1.0
 $END
  -9.414315e+06   6.172232e+05
  -7.234903e+06  -2.786177e+06
  -1.523045e+06  -5.676211e+06
   3.404365e+06  -5.638306e+06
   4.098805e+06  -2.014185e+06
   1.027585e+06   1.853673e+06
  -2.161215e+06   1.941974e+06
  -2.460701e+06  -1.357535e+06
  -2.272151e+05  -3.629364e+06
   1.883597e+06  -2.049088e+06
   1.955330e+06   1.313058e+06
   3.632501e+05   2.489273e+06
  -1.119843e+06   4.277527e+05
  -1.088219e+06  -2.295877e+06
   3.914666e+05  -2.770584e+06
   1.855800e+06  -6.563875e+05
   1.716339e+06   1.953165e+06
  -9.417051e+04   2.773270e+06
  -1.860442e+06   1.375828e+06
  -1.911264e+06  -6.184926e+05
  -5.677250e+05  -1.339515e+06
   2.883637e+05  -6.712197e+05
  -4.227024e+05  -1.696253e+05
  -1.658500e+06  -9.518929e+05
  -1.537058e+06  -2.256234e+06
   4.561513e+05  -2.480185e+06
   2.822807e+06  -1.158078e+06
   3.461962e+06   6.492869e+05
   1.678854e+06   1.616362e+06
  -1.004507e+06   1.235890e+06
  -2.113590e+06  -8.557067e+04
  -6.609508e+05  -1.323967e+06
   1.709679e+06  -1.341474e+06
   2.464553e+06   1.310760e+05
   1.032173e+06   1.854389e+06
  -7.188920e+05   2.093334e+06
  -9.542296e+05   6.037925e+05
   2.336981e+04  -9.101594e+05
   6.392229e+05  -7.444792e+05
   2.266756e+05   7.934630e+05
  -5.452344e+05   1.832516e+06
  -9.641280e+05   1.183307e+06
  -9.459952e+05  -4.080711e+05
  -5.235078e+05  -1.269232e+06
   2.775631e+05  -6.302231e+05
   8.426654e+05   7.220961e+05
   2.410336e+05   1.363317e+06
  -1.366141e+06   6.160653e+05
  -2.342049e+06  -8.769969e+05
  -1.353239e+06  -1.813356e+06
   8.580667e+05  -1.452633e+06
   2.197465e+06  -2.306834e+05
   1.562844e+06   7.726871e+05
  -1.240316e+05   8.676687e+05
  -1.163685e+06   2.453146e+05
  -8.151146e+05  -3.724773e+05
   2.597302e+05  -4.038145e+05
   8.411804e+05   1.578120e+05
   3.175012e+05   7.527463e+05
  -7.180737e+05   7.226316e+05
  -1.016792e+06  -1.806142e+04
  -8.479553e+04  -7.521446e+05
   1.050736e+06  -6.101597e+05
   9.118583e+05   4.522091e+05
  -6.103227e+05   1.475983e+06
  -2.039770e+06   1.422607e+06
  -2.073098e+06   2.069174e+05
  -1.010092e+06  -1.264563e+06
  -8.901393e+04  -2.004123e+06
   1.259982e+05  -1.799506e+06
   1.356977e+05  -1.213389e+06
   5.237482e+05  -8.426877e+05
   1.193514e+06  -6.564686e+05
   1.619894e+06  -1.450009e+05
   1.415079e+06   8.519384e+05
   5.520820e+05   1.650301e+06
  -5.986881e+05   1.343513e+06
  -1.321920e+06  -5.166575e+04
  -1.006307e+06  -1.375097e+06
   1.869480e+05  -1.465181e+06
   1.290751e+06  -3.612356e+05
   1.423738e+06   8.493114e+05
   6.568843e+05   1.253534e+06
  -1.666895e+05   9.100864e+05
  -4.105530e+05   4.841490e+05
  -2.768295e+05   4.199171e+05
  -4.483094e+05   5.902809e+05
  -1.197695e+06   5.443751e+05
  -1.924770e+06  -5.251750e+04
  -1.668722e+06  -1.082076e+06
  -1.865183e+05  -1.925659e+06
   1.541925e+06  -1.877145e+06
   2.125457e+06  -8.148224e+05
   1.179689e+06   5.374789e+05
  -2.482202e+05   1.179533e+06
  -8.076356e+05   7.509577e+05
  -2.257157e+05  -1.467178e+05
   6.159200e+05  -5.685709e+05
   7.999495e+05  -1.656388e+05
   2.642643e+05   4.914938e+05
  -3.580892e+05   5.505524e+05
  -4.482149e+05  -1.327300e+05
   1.159183e+05  -7.228758e+05
   8.885034e+05  -2.870109e+05
   1.117624e+06   1.042190e+06
   3.299036e+05   2.016846e+06
  -1.096232e+06   1.560943e+06
  -2.067240e+06  -3.009463e+04
  -1.753450e+06  -1.396242e+06
  -4.513571e+05  -1.551335e+06
   6.926267e+05  -7.700877e+05
   8.429728e+05  -4.876213e+04
   2.416169e+05   1.543696e+04
  -1.962182e+05  -3.479683e+05
   8.253338e+04  -5.538039e+05
   7.219895e+05  -3.000492e+05
   9.070685e+05   2.188346e+05
   3.021430e+05   5.401470e+05
  -5.054922e+05   3.530965e+05
  -5.816624e+05  -1.809656e+05
   2.949551e+05  -5.063278e+05
   1.265530e+06  -1.849197e+05
   1.243588e+06   6.149950e+05
   1.081648e+05   1.210719e+06
  -1.128706e+06   1.048590e+06
  -1.386652e+06   2.486355e+05
  -5.965806e+05  -5.041316e+05
   3.524531e+05  -6.043493e+05
   5.866484e+05  -8.540660e+04
   2.787698e+04   4.296383e+05
  -6.860713e+05   3.522648e+05
  -8.632808e+05  -2.642483e+05
  -3.481836e+05  -7.755232e+05
   3.824659e+05  -6.497038e+05
   6.615652e+05  -6.277438e+04
   2.743157e+05   3.102218e+05
  -2.934240e+05   7.078721e+04
  -3.358988e+05  -4.712654e+05
   2.949864e+05  -6.723634e+05
   9.797917e+05  -2.425739e+05
   9.771573e+05   5.022000e+05
   2.222129e+05   9.744019e+05
  -6.092226e+05   8.225549e+05
  -8.095236e+05   1.971097e+05
  -3.252236e+05  -3.774878e+05
   2.684399e+05  -4.449414e+05
   3.942835e+05  -4.248266e+04
   2.459980e+04   3.339448e+05
  -3.608471e+05   2.749505e+05
  -3.169196e+05  -7.112930e+04
   8.786027e+04  -1.921300e+05
   3.431141e+05   1.375939e+05
   5.194620e+04   5.520581e+05
  -6.086886e+05   5.009286e+05
  -1.023371e+06  -1.359692e+05
  -7.442251e+05  -9.113036e+05
   6.303418e+04  -1.226718e+06
   7.868448e+05  -8.441474e+05
   9.532813e+05  -6.397787e+04
   6.214493e+05   5.336376e+05
   2.283757e+05   5.859811e+05
   9.898030e+04   2.680121e+05
   1.438503e+05   8.049500e+04
   3.443419e+04   2.628528e+05
  -3.576808e+05   4.924261e+05
  -7.407682e+05   2.824531e+05
  -6.599919e+05  -3.658082e+05
   9.771800e+03  -8.687960e+05
   8.437602e+05  -6.682114e+05
   1.178121e+06   1.641735e+05
   6.856126e+05   9.844798e+05
  -3.195207e+05   1.175435e+06
  -1.132947e+06   6.533314e+05
  -1.238646e+06  -1.344422e+05
  -6.983698e+05  -6.334122e+05
  -2.668536e+04  -6.406481e+05
   3.016421e+05  -4.179039e+05
   2.446995e+05  -3.551933e+05
   1.363750e+05  -5.115786e+05
   2.702237e+05  -5.451518e+05
   5.629355e+05  -1.462766e+05
   6.464381e+05   5.245518e+05
   2.896751e+05   9.354824e+05
  -3.027195e+05   7.213668e+05
  -6.496843e+05   5.014887e+04
  -4.630444e+05  -5.540065e+05
   6.151940e+04  -6.851577e+05
   4.430787e+05  -3.468444e+05
   3.970979e+05   1.359360e+05
   9.211359e+04   4.241356e+05
  -8.122484e+04   4.183702e+05
   3.501079e+04   2.753260e+05
   1.885951e+05   1.963947e+05
   1.551311e+04   2.043914e+05
  -5.047276e+05   1.461022e+05
  -9.422397e+05  -9.310871e+04
  -8.155443e+05  -4.251683e+05
  -1.101108e+05  -6.294247e+05
   6.422514e+05  -5.550790e+05
   8.550391e+05  -2.458744e+05
   4.586677e+05   8.944230e+04
  -6.383589e+04   2.200925e+05
  -2.145199e+05   8.264724e+04
   2.097334e+04  -1.243901e+05
   2.602682e+05  -1.101615e+05
   2.269037e+05   1.647393e+05
   3.325357e+04   3.842586e+05
  -4.215724e+04   2.432182e+05
   7.811870e+04  -1.206103e+05
   2.131825e+05  -2.380600e+05
   1.602001e+05   9.933595e+04
  -1.057072e+05   5.269583e+05
  -4.243485e+05   5.224801e+05
  -5.515541e+05   3.823036e+04
  -3.148912e+05  -4.450573e+05
   1.895332e+05  -4.742981e+05
   5.492822e+05  -8.587032e+04
   3.562921e+05   3.071092e+05
  -3.118437e+05   3.539701e+05
  -8.373548e+05   3.590075e+04
  -6.523795e+05  -3.858332e+05
   1.235612e+05  -5.865005e+05
   7.673892e+05  -4.090313e+05
   7.121911e+05  -1.348057e+03
   1.289457e+05   2.791581e+05
  -3.076432e+05   1.943237e+05
  -1.629139e+05  -1.085733e+05
   3.329524e+05  -2.188551e+05
   5.818791e+05   1.015080e+05
   2.572022e+05   6.213202e+05
  -3.841801e+05   8.195408e+05
  -7.859360e+05   3.911423e+05
  -6.343118e+05  -4.059749e+05
  -1.075027e+05  -9.251014e+05
   3.615615e+05  -7.169501e+05
   4.897512e+05   1.480102e+04
   2.997943e+05   5.900422e+05
  -1.506569e+04   5.426348e+05
  -2.587295e+05   8.584603e+04
  -3.027171e+05  -2.007421e+05
  -1.528436e+05  -9.031257e+04
   2.702610e+03   7.047217e+04
  -4.738329e+04  -9.853556e+04
  -2.329484e+05  -4.633778e+05
  -1.922884e+05  -5.609816e+05
   2.632026e+05  -2.248116e+05
   7.678577e+05   2.217289e+05
   7.375751e+05   4.105793e+05
   1.115873e+05   3.359276e+05
  -4.962069e+05   2.134765e+05
  -5.231845e+05   1.289007e+05
  -1.267755e+05   1.796937e+04
   9.794959e+04  -1.083540e+05
  -6.327596e+04  -1.449582e+05
  -2.192854e+05  -9.231735e+04
   6.637554e+03  -7.203583e+04
   4.235332e+05  -9.026083e+04
   5.177157e+05   2.618116e+04
   9.804814e+04   3.323393e+05
  -4.993267e+05   5.463753e+05
  -7.972190e+05   3.265906e+05
  -6.091643e+05  -2.594653e+05
  -1.100604e+05  -7.226225e+05
   3.600526e+05  -6.684075e+05
   5.254799e+05  -2.177685e+05
   3.426928e+05   1.618184e+05
   3.259129e+04   1.786584e+05
  -1.063196e+05  -1.562540e+04
   1.471425e+04  -6.470351e+04
   1.910387e+05   1.599564e+05
   1.597241e+05   4.064874e+05
  -1.054257e+05   3.248788e+05
  -3.588691e+05  -1.147028e+05
  -3.251016e+05  -5.314160e+05
   2.862475e+04  -5.099284e+05
   4.260989e+05  -4.918909e+04
   4.955537e+05   4.326947e+05
   1.247887e+05   5.438793e+05
  -3.710646e+05   2.838167e+05
  -5.246705e+05  -5.948697e+04
  -2.239541e+05  -2.551393e+05
   1.385651e+05  -2.712485e+05
   1.275035e+05  -1.690285e+05
  -1.937867e+05  -3.186664e+04
  -3.453085e+05   8.457179e+03
  -4.986174e+04  -1.413905e+05
   4.153681e+05  -3.517624e+05
   5.745427e+05  -3.252889e+05
   3.147628e+05   3.386730e+04
  -5.444788e+04   4.097839e+05
  -2.169029e+05   4.028582e+05
  -1.447394e+05   3.163164e+04
   1.009027e+04  -2.695745e+05
   1.335420e+05  -1.812994e+05
   1.806673e+05   1.360005e+05
   1.175253e+05   2.931097e+05
  -4.336063e+04   1.581795e+05
  -1.938111e+05  -5.013915e+04
  -2.175111e+05  -9.824616e+04
  -1.215039e+05  -9.930612e+03
  -1.398635e+04   2.670348e+04
   4.114449e+04  -7.890893e+04
   8.097947e+04  -2.173523e+05
   1.479846e+05  -2.077410e+05
   1.994256e+05   4.221539e+03
   1.468345e+05   2.651991e+05
  -3.279960e+04   3.354106e+05
  -2.375690e+05   1.263439e+05
  -2.917794e+05  -1.833489e+05
  -9.419321e+04  -3.140890e+05
   2.374593e+05  -1.735181e+05
   4.066720e+05   6.809750e+04
   2.214069e+05   1.926849e+05
  -1.486058e+05   1.538193e+05
  -3.049475e+05   5.575557e+04
  -7.717846e+04  -1.158140e+03
   2.423178e+05   1.715463e+04
   2.312675e+05   1.029352e+05
  -1.415228e+05   1.872052e+05
  -4.664288e+05   1.312506e+05
