
 $NMID
 id='ANONYMOUS ', fmtdat='(2E16.6)'
 volume=1.0
 tramp=1.0
 $END
   2.799633e+07   2.095942e+06
   1.695997e+07   1.533582e+07
  -2.260657e+06   1.768783e+07
  -1.293498e+07   9.741656e+06
  -9.417418e+06  -4.139097e+05
   1.984750e+05  -4.766215e+06
   5.413501e+06  -1.472313e+06
   3.278887e+06   4.637410e+06
  -2.013746e+06   6.796121e+06
  -5.195121e+06   2.573518e+06
  -4.096257e+06  -3.743366e+06
  -2.556530e+05  -5.553658e+06
   2.643491e+06  -1.109250e+06
   1.800914e+06   4.508415e+06
  -1.910177e+06   5.085900e+06
  -4.492686e+06   1.220068e+04
  -2.888770e+06  -5.582668e+06
   1.788276e+06  -6.650552e+06
   5.504374e+06  -2.927917e+06
   5.399049e+06   1.867035e+06
   2.275327e+06   4.148098e+06
  -5.724267e+05   3.390684e+06
  -6.391325e+05   1.831030e+06
   1.354451e+06   1.842068e+06
   2.109528e+06   3.427498e+06
  -6.782658e+05   4.262668e+06
  -5.241129e+06   2.436764e+06
  -7.066907e+06  -1.124382e+06
  -3.886540e+06  -3.522575e+06
   1.412570e+06  -2.983684e+06
   3.787693e+06  -4.481770e+05
   1.526804e+06   1.735590e+06
  -2.298625e+06   1.881902e+06
  -3.688965e+06  -1.114497e+05
  -1.846622e+06  -2.760910e+06
   8.359820e+05  -3.722805e+06
   1.861026e+06  -1.782447e+06
   9.104947e+05   1.287231e+06
  -4.588848e+05   2.054431e+06
  -6.082160e+05  -4.378187e+05
   6.749307e+05  -2.970991e+06
   2.002748e+06  -2.001690e+06
   1.701010e+06   1.546656e+06
  -3.925747e+05   3.212476e+06
  -2.431068e+06   7.039214e+05
  -2.172044e+06  -3.180662e+06
   7.085353e+05  -4.072508e+06
   3.971873e+06  -1.086111e+06
   4.670349e+06   2.723594e+06
   1.889768e+06   4.065146e+06
  -2.192465e+06   2.381913e+06
  -4.130523e+06  -4.272133e+05
  -2.431731e+06  -2.063092e+06
   9.654616e+05  -1.552756e+06
   2.681537e+06   2.065553e+05
   1.411806e+06   1.333297e+06
  -8.896856e+05   7.912866e+05
  -1.472427e+06  -5.757715e+05
   4.959447e+04  -1.101615e+06
   1.496894e+06  -2.345973e+05
   8.648739e+05   9.894013e+05
  -1.354836e+06   1.231571e+06
  -2.760745e+06   8.249537e+04
  -1.592016e+06  -1.828859e+06
   1.522366e+06  -3.262622e+06
   4.183733e+06  -2.925584e+06
   4.430555e+06  -4.723035e+05
   2.427385e+06   2.688662e+06
   8.932585e+04   4.293484e+06
  -9.229274e+05   3.490529e+06
  -7.236222e+05   1.748241e+06
  -6.573999e+05   9.589720e+05
  -1.493201e+06   1.108579e+06
  -2.544940e+06   6.330220e+05
  -2.572983e+06  -1.107087e+06
  -1.175596e+06  -2.679263e+06
   8.276053e+05  -2.265386e+06
   2.073883e+06   8.200999e+04
   1.613172e+06   2.366242e+06
  -3.712502e+05   2.643704e+06
  -2.465571e+06   7.896185e+05
  -2.992187e+06  -1.600843e+06
  -1.567717e+06  -2.787012e+06
   4.169286e+05  -2.350713e+06
   1.300422e+06  -1.282144e+06
   1.048204e+06  -7.419342e+05
   1.118949e+06  -8.333268e+05
   2.352268e+06  -6.619747e+05
   3.594621e+06   4.989772e+05
   2.929251e+06   2.302511e+06
   6.396854e+04   3.571285e+06
  -3.016356e+06   3.285813e+06
  -3.923779e+06   1.418520e+06
  -2.198122e+06  -9.086568e+05
   3.307471e+05  -2.110185e+06
   1.399092e+06  -1.428191e+06
   4.327179e+05   2.202508e+05
  -1.139494e+06   1.021940e+06
  -1.553855e+06   2.178556e+05
  -5.286774e+05  -9.999752e+05
   6.444033e+05  -9.639682e+05
   6.454125e+05   3.051101e+05
  -4.991173e+05   1.026403e+06
  -1.567219e+06  -1.359071e+05
  -1.373007e+06  -2.333477e+06
   2.411071e+05  -3.375297e+06
   2.314630e+06  -2.067190e+06
   3.417667e+06   6.219697e+05
   2.668826e+06   2.618426e+06
   5.571429e+05   2.679249e+06
  -1.278481e+06   1.312449e+06
  -1.500898e+06   5.238295e+04
  -4.362008e+05  -5.477964e+04
   3.050064e+05   6.663171e+05
  -2.960901e+05   1.050916e+06
  -1.476601e+06   4.360365e+05
  -1.657260e+06  -6.382059e+05
  -4.000398e+05  -1.096451e+06
   9.974584e+05  -5.312792e+05
   9.442979e+05   4.087720e+05
  -6.455143e+05   7.287625e+05
  -2.174516e+06   1.688398e+04
  -1.960634e+06  -1.239673e+06
   4.328334e+04  -2.043559e+06
   2.140403e+06  -1.649560e+06
   2.521059e+06  -2.451147e+05
   1.020401e+06   1.048814e+06
  -7.790811e+05   1.133095e+06
  -1.185502e+06   7.914139e+04
  -3.566770e+04  -8.547387e+05
   1.324645e+06  -5.684545e+05
   1.518432e+06   6.433785e+05
   4.342456e+05   1.448780e+06
  -8.414176e+05   1.016689e+06
  -1.156923e+06  -8.803802e+04
  -3.564371e+05  -6.232907e+05
   6.057664e+05  -5.624916e+04
   5.779491e+05   9.327348e+05
  -6.046796e+05   1.220562e+06
  -1.822400e+06   3.596986e+05
  -1.745866e+06  -1.025624e+06
  -2.808059e+05  -1.822858e+06
   1.251953e+06  -1.415751e+06
   1.504372e+06  -2.136800e+05
   4.937350e+05   7.407672e+05
  -5.663088e+05   7.408226e+05
  -6.673760e+05   3.769142e+04
   3.090240e+04  -5.070401e+05
   5.983568e+05  -3.680541e+05
   4.152920e+05   1.147126e+05
  -2.416615e+05   1.879553e+05
  -5.411515e+05  -3.960923e+05
   5.709778e+04  -1.018764e+06
   1.198512e+06  -8.107503e+05
   1.847575e+06   3.911516e+05
   1.248435e+06   1.760670e+06
  -2.586724e+05   2.200827e+06
  -1.504423e+06   1.363350e+06
  -1.650374e+06  -4.349584e+04
  -9.616527e+05  -9.497636e+05
  -3.406625e+05  -9.101281e+05
  -2.586690e+05  -4.082016e+05
  -3.548480e+05  -2.238200e+05
  -3.683481e+04  -5.567145e+05
   7.388560e+05  -8.281896e+05
   1.349462e+06  -3.730314e+05
   1.082397e+06   7.075091e+05
  -1.560596e+05   1.477946e+06
  -1.592111e+06   1.049726e+06
  -2.079952e+06  -4.531667e+05
  -1.066208e+06  -1.881260e+06
   8.118124e+05  -2.086213e+06
   2.189961e+06  -9.729577e+05
   2.170424e+06   4.806995e+05
   1.059805e+06   1.215263e+06
  -7.914399e+04   1.043985e+06
  -5.027669e+05   6.360755e+05
  -3.494016e+05   6.536935e+05
  -2.562670e+05   1.010795e+06
  -5.923319e+05   1.017043e+06
  -1.088031e+06   2.106631e+05
  -1.133192e+06  -1.024586e+06
  -4.260540e+05  -1.729015e+06
   6.233141e+05  -1.274522e+06
   1.172577e+06   4.967033e+03
   7.405243e+05   1.099383e+06
  -2.640449e+05   1.230441e+06
  -9.105845e+05   4.801306e+05
  -6.917986e+05  -4.211888e+05
  -1.716994e+04  -8.354208e+05
   3.050418e+05  -7.149683e+05
   6.495673e+03  -4.506867e+05
  -3.452156e+05  -3.566421e+05
  -2.119764e+04  -3.650519e+05
   9.691877e+05  -1.857552e+05
   1.750631e+06   3.119609e+05
   1.424676e+06   9.075716e+05
   4.693422e+04   1.196614e+06
  -1.317060e+06   9.400793e+05
  -1.600832e+06   2.882775e+05
  -7.797260e+05  -3.042119e+05
   1.852790e+05  -4.283488e+05
   4.170495e+05  -8.369384e+04
  -3.203689e+04   2.819825e+05
  -4.558820e+05   1.919427e+05
  -4.039386e+05  -3.232196e+05
  -8.880549e+04  -6.917960e+05
   3.960176e+04  -4.420391e+05
  -1.392928e+05   1.654719e+05
  -3.533648e+05   3.596215e+05
  -2.682755e+05  -2.041759e+05
   2.123848e+05  -9.286794e+05
   8.364366e+05  -9.145902e+05
   1.095293e+06  -3.948792e+04
   6.026286e+05   8.545359e+05
  -4.080573e+05   9.039627e+05
  -1.063336e+06   1.530447e+05
  -6.262567e+05  -5.759030e+05
   6.201045e+05  -5.890277e+05
   1.483210e+06   6.330993e+04
   1.043264e+06   7.752431e+05
  -3.472444e+05   9.792131e+05
  -1.400207e+06   5.592386e+05
  -1.218139e+06  -1.192371e+05
  -1.683988e+05  -4.973488e+05
   5.818565e+05  -2.812262e+05
   3.008771e+05   2.414984e+05
  -6.013393e+05   3.985273e+05
  -1.058167e+06  -1.975890e+05
  -4.653581e+05  -1.136456e+06
   7.130197e+05  -1.480179e+06
   1.434188e+06  -6.769961e+05
   1.110858e+06   7.735202e+05
   1.098369e+05   1.665568e+06
  -7.197691e+05   1.218326e+06
  -8.614126e+05  -1.192651e+05
  -4.314160e+05  -1.093898e+06
   1.375992e+05  -9.342777e+05
   4.893952e+05  -9.966540e+04
   4.837759e+05   3.774966e+05
   2.213338e+05   1.567843e+05
   1.809085e+04  -1.091709e+05
   1.367329e+05   2.261705e+05
   3.931815e+05   8.773131e+05
   2.314532e+05   1.010118e+06
  -5.608873e+05   3.554638e+05
  -1.349589e+06  -4.762381e+05
  -1.231205e+06  -8.073760e+05
  -1.578827e+05  -6.269183e+05
   8.692996e+05  -3.466290e+05
   9.349908e+05  -1.630889e+05
   2.654238e+05   1.507571e+04
  -1.697761e+05   1.926836e+05
   4.868044e+04   2.304239e+05
   3.326675e+05   1.472349e+05
   5.049970e+03   1.301741e+05
  -7.132335e+05   1.550715e+05
  -9.433716e+05  -7.960332e+04
  -2.320560e+05  -6.328745e+05
   9.018843e+05  -9.848678e+05
   1.517883e+06  -5.543227e+05
   1.156132e+06   5.015586e+05
   1.581887e+05   1.309300e+06
  -7.309159e+05   1.193653e+06
  -9.777060e+05   3.868032e+05
  -6.018487e+05  -2.895921e+05
  -6.835699e+04  -3.315039e+05
   1.448202e+05  -4.763221e+03
  -4.593639e+04   7.284570e+04
  -3.008369e+05  -3.209731e+05
  -2.275872e+05  -7.471898e+05
   2.104454e+05  -5.925907e+05
   6.333253e+05   1.986743e+05
   5.812359e+05   9.564076e+05
  -3.338762e+04   9.351626e+05
  -7.478265e+05   1.120231e+05
  -8.848092e+05  -7.764187e+05
  -2.162242e+05  -1.003039e+06
   6.922508e+05  -5.254451e+05
   9.752258e+05   1.399256e+05
   4.109866e+05   5.246950e+05
  -2.853018e+05   5.308300e+05
  -2.943413e+05   3.009677e+05
   2.990543e+05   4.708050e+04
   6.134269e+05   3.748059e+03
   9.483722e+04   2.724588e+05
  -7.810862e+05   5.935194e+05
  -1.106643e+06   4.942201e+05
  -6.124921e+05  -1.357466e+05
   1.318381e+05  -7.579677e+05
   4.748447e+05  -7.256911e+05
   3.209816e+05  -7.564412e+04
  -1.073170e+04   4.693505e+05
  -2.507541e+05   3.464314e+05
  -3.187697e+05  -2.148122e+05
  -1.959317e+05  -5.396249e+05
   8.463189e+04  -3.266989e+05
   3.513151e+05   8.687709e+04
   3.975350e+05   2.304999e+05
   2.158179e+05   5.704549e+04
   8.871326e+03  -8.673821e+04
  -7.206026e+04   6.399393e+04
  -9.625904e+04   3.652104e+05
  -1.999004e+05   4.267131e+05
  -3.420357e+05   6.470862e+04
  -3.131581e+05  -4.444422e+05
   2.817026e+03  -6.077554e+05
   4.195379e+05  -2.358977e+05
   5.490302e+05   3.282314e+05
   1.719550e+05   5.606674e+05
  -4.590478e+05   3.005338e+05
  -7.617643e+05  -1.383201e+05
  -3.997026e+05  -3.673849e+05
   2.859278e+05  -3.018317e+05
   5.747054e+05  -1.181141e+05
   1.772073e+05   5.173546e+03
  -3.906479e+05  -6.418738e+03
  -3.966484e+05  -1.498640e+05
   2.252417e+05  -3.014526e+05
   7.859761e+05  -2.110688e+05
