
 $NMID
 id='ANONYMOUS ', fmtdat='(2E16.6)'
 volume=1.0
 tramp=1.0
 $END
  -5.080552e+07   1.517054e+06
  -3.210536e+07  -2.986107e+07
   4.905961e+06  -3.457510e+07
   2.444532e+07  -1.492911e+07
   1.572322e+07   5.088151e+06
  -2.298406e+06   8.722058e+06
  -9.232745e+06  -2.626879e+05
  -3.365312e+06  -8.831342e+06
   5.166806e+06  -9.299466e+06
   8.884094e+06  -2.524727e+06
   6.666250e+06   5.570618e+06
   9.218259e+05   8.068721e+06
  -3.659167e+06   2.525908e+06
  -2.569812e+06  -5.306661e+06
   3.318017e+06  -6.511786e+06
   7.369621e+06   8.032161e+05
   4.516491e+06   9.257179e+06
  -3.042415e+06   1.101661e+07
  -9.058356e+06   5.669061e+06
  -9.802189e+06  -1.681025e+06
  -5.983653e+06  -6.565881e+06
  -7.880600e+05  -7.511627e+06
   2.126008e+06  -5.364760e+06
   1.065823e+06  -2.814006e+06
  -1.273754e+06  -2.613861e+06
  -1.428840e+04  -4.241872e+06
   5.373235e+06  -4.039107e+06
   9.176558e+06  -2.955790e+05
   6.516162e+06   3.865778e+06
   9.767746e+03   4.572151e+06
  -3.679919e+06   2.119184e+06
  -2.179049e+06  -3.425723e+05
   1.115329e+06  -1.067199e+06
   2.650958e+06  -2.415214e+05
   2.069654e+06   1.787366e+06
   3.417274e+05   3.887106e+06
  -1.723101e+06   3.450643e+06
  -2.667379e+06  -2.271971e+05
  -1.343273e+06  -3.188239e+06
   5.765774e+05  -1.407932e+06
   5.527791e+04   2.579544e+06
  -2.404037e+06   2.326900e+06
  -2.459900e+06  -2.829529e+06
   1.778491e+06  -5.743871e+06
   6.009803e+06  -1.304140e+06
   4.813385e+06   5.981414e+06
  -1.343020e+06   7.759305e+06
  -6.690031e+06   2.407596e+06
  -6.714166e+06  -3.994797e+06
  -2.049338e+06  -5.735616e+06
   3.245251e+06  -2.806705e+06
   5.224840e+06   1.225283e+06
   2.608961e+06   3.252994e+06
  -2.081050e+06   2.219407e+06
  -4.262899e+06  -6.360902e+05
  -1.984319e+06  -2.423377e+06
   1.519088e+06  -1.332601e+06
   1.763803e+06   9.297277e+05
  -1.057558e+06   1.094241e+06
  -2.463550e+06  -1.234887e+06
   7.258790e+04  -3.047023e+06
   3.899273e+06  -2.039530e+06
   4.940461e+06   8.519300e+05
   2.365706e+06   3.512507e+06
  -1.651949e+06   4.943987e+06
  -4.828196e+06   4.561974e+06
  -5.853758e+06   1.599735e+06
  -4.213752e+06  -2.985909e+06
  -8.893117e+05  -5.835649e+06
   1.600757e+06  -4.674894e+06
   1.610088e+06  -1.473287e+06
   3.954966e+05  -3.149081e+03
   3.680772e+05  -9.194975e+05
   1.804035e+06  -1.477076e+06
   2.739542e+06   7.762335e+04
   1.821087e+06   2.121063e+06
  -1.991788e+05   2.184377e+06
  -1.716463e+06   9.963732e+04
  -1.695705e+06  -2.218827e+06
   7.249858e+04  -2.935596e+06
   2.721437e+06  -1.512901e+06
   4.216849e+06   1.228660e+06
   2.981872e+06   3.521272e+06
   2.492111e+03   3.869759e+06
  -2.003976e+06   2.519644e+06
  -1.985284e+06   1.163222e+06
  -1.732697e+06   7.942006e+05
  -2.914003e+06   5.779640e+05
  -4.332065e+06  -6.795077e+05
  -3.498236e+06  -2.719215e+06
  -1.473865e+05  -4.133212e+06
   3.241217e+06  -3.891792e+06
   4.215926e+06  -2.029322e+06
   2.601114e+06   5.279771e+05
   1.398883e+05   2.238615e+06
  -1.180462e+06   1.855709e+06
  -5.390504e+05  -7.130198e+04
   1.120786e+06  -1.280587e+06
   1.878371e+06  -3.938865e+05
   8.744170e+05   1.170697e+06
  -5.575799e+05   1.110167e+06
  -5.030170e+05  -3.994851e+05
   9.944923e+05  -8.445631e+05
   1.940057e+06   1.037288e+06
   9.240656e+05   3.394900e+06
  -1.333609e+06   3.630263e+06
  -3.137678e+06   1.437139e+06
  -3.516771e+06  -1.324705e+06
  -2.452010e+06  -2.872029e+06
  -4.764298e+05  -2.733980e+06
   1.291616e+06  -1.473436e+06
   1.606755e+06  -1.939594e+05
   4.979700e+05   4.766123e+04
  -3.630072e+05  -7.570549e+05
   3.833445e+05  -1.331302e+06
   1.869664e+06  -5.943452e+05
   2.040370e+06   8.408789e+05
   4.248782e+05   1.398744e+06
  -1.173403e+06   5.929558e+05
  -9.355905e+05  -4.689058e+05
   8.539080e+05  -5.964297e+05
   2.285011e+06   2.693004e+05
   1.858822e+06   1.408956e+06
  -2.294976e+05   2.075742e+06
  -2.366104e+06   1.715119e+06
  -2.820846e+06   2.825942e+05
  -1.231003e+06  -1.255121e+06
   8.992082e+05  -1.483441e+06
   1.527364e+06  -1.960217e+05
   1.859883e+05   1.057736e+06
  -1.520515e+06   7.353396e+05
  -1.746268e+06  -7.734022e+05
  -3.794332e+05  -1.680065e+06
   1.086576e+06  -1.037372e+06
   1.299480e+06   2.728041e+05
   2.888821e+05   7.859368e+05
  -7.830097e+05   6.806536e+04
  -7.319592e+05  -1.056517e+06
   5.951933e+05  -1.425900e+06
   2.030126e+06  -5.262282e+05
   2.045019e+06   1.072109e+06
   3.848401e+05   2.092345e+06
  -1.445021e+06   1.663447e+06
  -1.746423e+06   2.274482e+05
  -5.262510e+05  -8.761753e+05
   6.620336e+05  -8.244097e+05
   6.612055e+05  -6.621191e+04
  -1.179051e+05   4.096049e+05
  -5.452658e+05   2.371795e+05
  -1.833414e+05  -1.026490e+05
   4.425082e+05   1.120709e+04
   5.589411e+05   6.450705e+05
  -1.781947e+05   1.206036e+06
  -1.394150e+06   9.155550e+05
  -2.108172e+06  -4.194033e+05
  -1.476025e+06  -1.968598e+06
   2.305145e+05  -2.459829e+06
   1.656426e+06  -1.453884e+06
   1.750345e+06   1.208690e+05
   9.020343e+05   9.556156e+05
   3.092714e+05   7.356141e+05
   4.316380e+05   2.534940e+05
   5.970680e+05   2.885419e+05
   9.337416e+04   7.453552e+05
  -8.812192e+05   9.234952e+05
  -1.487247e+06   3.431049e+05
  -1.090165e+06  -7.570170e+05
   2.523822e+05  -1.522701e+06
   1.763552e+06  -1.104773e+06
   2.293994e+06   4.965217e+05
   1.164886e+06   2.132717e+06
  -9.977623e+05   2.402999e+06
  -2.563663e+06   1.069197e+06
  -2.409648e+06  -6.463722e+05
  -1.014249e+06  -1.376255e+06
   2.009780e+05  -1.009547e+06
   4.404681e+05  -5.434506e+05
   1.341258e+05  -7.379123e+05
   1.228675e+05  -1.280565e+06
   6.645019e+05  -1.281772e+06
   1.291455e+06  -3.169415e+05
   1.342469e+06   1.099319e+06
   5.526945e+05   1.921887e+06
  -6.395976e+05   1.452330e+06
  -1.308450e+06  -1.129933e+03
  -8.338192e+05  -1.291030e+06
   3.738626e+05  -1.420289e+06
   1.161194e+06  -4.484261e+05
   8.333825e+05   6.614852e+05
  -8.650972e+04   1.075502e+06
  -5.078165e+05   8.113934e+05
  -7.705885e+04   4.438608e+05
   4.275696e+05   3.481313e+05
   5.311238e+04   3.910480e+05
  -1.153390e+06   2.195923e+05
  -2.073734e+06  -3.282768e+05
  -1.640320e+06  -1.042210e+06
   1.184834e+04  -1.444380e+06
   1.582240e+06  -1.153310e+06
   1.853339e+06  -2.974814e+05
   8.646749e+05   4.743623e+05
  -2.477203e+05   5.658324e+05
  -5.153839e+05   4.904206e+04
  -2.773402e+04  -4.046338e+05
   4.578501e+05  -2.517648e+05
   4.837696e+05   3.470838e+05
   2.299221e+05   7.311900e+05
   7.443346e+04   4.788917e+05
   1.489247e+05  -1.101962e+05
   3.096946e+05  -3.070390e+05
   2.836022e+05   2.368219e+05
  -1.611530e+05   1.003207e+06
  -9.126188e+05   1.074098e+06
  -1.349826e+06   1.697112e+05
  -8.357813e+05  -9.196531e+05
   4.154053e+05  -1.134166e+06
   1.253150e+06  -3.250342e+05
   7.366640e+05   5.882005e+05
  -7.107332e+05   6.624633e+05
  -1.625693e+06  -9.502865e+04
  -1.047254e+06  -8.866779e+05
   4.829306e+05  -1.028222e+06
   1.541536e+06  -5.059962e+05
   1.275558e+06   1.923719e+05
   1.421585e+05   5.318612e+05
  -6.623604e+05   2.811757e+05
  -3.859620e+05  -2.907564e+05
   5.989360e+05  -5.157567e+05
   1.192334e+06   9.637298e+04
   6.609082e+05   1.198494e+06
  -6.152840e+05   1.712531e+06
  -1.510705e+06   8.823041e+05
  -1.271009e+06  -7.773855e+05
  -1.979822e+05  -1.824353e+06
   7.616262e+05  -1.322159e+06
   9.492021e+05   1.750945e+05
   4.449343e+05   1.218678e+06
  -2.198443e+05   9.990334e+05
  -5.720819e+05   9.050808e+04
  -4.792675e+05  -3.930456e+05
  -1.721088e+05  -1.492268e+05
  -4.837788e+04   1.018961e+05
  -2.763721e+05  -2.864584e+05
  -5.135450e+05  -9.783690e+05
  -1.995472e+05  -1.106911e+06
   7.185999e+05  -4.103465e+05
   1.500807e+06   4.780795e+05
   1.308826e+06   8.616358e+05
   1.890709e+05   7.105096e+05
  -8.749079e+05   4.181269e+05
  -1.006577e+06   1.834853e+05
  -3.655777e+05  -4.583839e+04
   1.498822e+05  -2.263725e+05
   3.358355e+04  -2.194275e+05
  -2.716412e+05  -1.079762e+05
  -4.814357e+04  -1.328898e+05
   6.768105e+05  -2.289277e+05
   1.061374e+06   1.285061e+04
   4.332134e+05   6.918862e+05
  -8.561552e+05   1.187361e+06
  -1.719481e+06   7.710741e+05
  -1.425306e+06  -4.313515e+05
  -2.773072e+05  -1.427749e+06
   7.761223e+05  -1.399935e+06
   1.061978e+06  -5.453276e+05
   6.628552e+05   2.390937e+05
   1.347535e+05   3.610378e+05
  -6.996572e+04   5.905809e+04
   8.669068e+04  -2.165001e+04
   3.093536e+05   3.765501e+05
   2.528837e+05   8.247594e+05
  -1.803088e+05   6.886837e+05
  -6.880213e+05  -1.245549e+05
  -7.473941e+05  -9.623574e+05
  -1.196904e+05  -1.040157e+06
   7.583507e+05  -2.489035e+05
   1.047492e+06   7.278146e+05
   3.574458e+05   1.102093e+06
  -7.179339e+05   6.895451e+05
  -1.135309e+06  -6.941107e+04
  -5.467154e+05  -6.171045e+05
   2.836204e+05  -6.905439e+05
   3.831148e+05  -3.806733e+05
  -2.490750e+05  -1.483911e+04
  -6.592976e+05   4.006788e+04
  -1.513311e+05  -3.106809e+05
   8.384943e+05  -6.923132e+05
   1.284317e+06  -5.576126e+05
   7.811983e+05   1.723053e+05
  -9.274804e+04   8.838346e+05
  -5.569619e+05   8.780805e+05
  -4.285450e+05   1.730357e+05
  -5.417231e+04  -4.831610e+05
   2.379951e+05  -4.429729e+05
   3.527312e+05   1.474872e+05
   2.604741e+05   5.850807e+05
  -4.627972e+04   4.342823e+05
  -3.951639e+05  -4.290825e+04
  -4.891792e+05  -2.824377e+05
  -2.506012e+05  -9.799109e+04
   4.080983e+04   1.507131e+05
   9.379206e+04   4.616436e+04
  -1.218933e+04  -3.500779e+05
   3.843031e+04  -5.498888e+05
   3.114065e+05  -2.233090e+05
   4.631993e+05   3.733029e+05
   1.650961e+05   6.470312e+05
  -4.095399e+05   3.198516e+05
  -6.744427e+05  -2.754213e+05
  -2.597132e+05  -5.778305e+05
   5.140580e+05  -3.762052e+05
   8.965150e+05   6.772831e+04
   4.895547e+05   3.796845e+05
  -2.921141e+05   4.104131e+05
  -6.437510e+05   2.393582e+05
  -2.558581e+05   2.515177e+04
   3.434576e+05  -6.723464e+04
   4.067486e+05   6.163244e+04
  -1.704400e+05   2.895436e+05
  -7.492152e+05   2.715147e+05
