
 $NMID
 id='ANONYMOUS ', fmtdat='(2E16.6)'
 volume=1.0
 tramp=1.0
 $END
  -2.138587e+07   6.296476e+03
  -1.448952e+07  -9.618960e+06
  -3.639622e+05  -1.342776e+07
   9.067766e+06  -9.482550e+06
   7.986266e+06  -1.407129e+06
   7.416259e+05   3.903231e+06
  -4.432710e+06   2.300925e+06
  -3.622157e+06  -3.389466e+06
   7.890523e+05  -6.270682e+06
   4.070866e+06  -2.941239e+06
   3.628366e+06   2.841653e+06
   4.806140e+05   4.708975e+06
  -2.176235e+06   9.362478e+05
  -1.795839e+06  -3.994313e+06
   1.210156e+06  -4.708760e+06
   3.704755e+06  -5.680597e+05
   2.854667e+06   4.277613e+06
  -8.831087e+05   5.506846e+06
  -4.154039e+06   2.614187e+06
  -4.209120e+06  -1.314688e+06
  -1.668152e+06  -3.056723e+06
   4.120879e+05  -2.239958e+06
  -4.035918e+04  -1.113683e+06
  -1.924210e+06  -1.679617e+06
  -2.217425e+06  -3.409224e+06
   6.455272e+05  -4.006059e+06
   4.722735e+06  -2.159962e+06
   6.182847e+06   9.533665e+05
   3.293269e+06   2.934319e+06
  -1.403475e+06   2.456801e+06
  -3.478837e+06   2.194762e+05
  -1.274454e+06  -1.833454e+06
   2.431294e+06  -1.951866e+06
   3.700083e+06   1.433537e+05
   1.706726e+06   2.770680e+06
  -9.367007e+05   3.447805e+06
  -1.628622e+06   1.376104e+06
  -4.562901e+05  -1.300452e+06
   6.615614e+05  -1.589934e+06
   4.510140e+05   7.945435e+05
  -7.282848e+05   2.866377e+06
  -1.720325e+06   1.919762e+06
  -1.611019e+06  -1.081620e+06
  -2.490558e+05  -2.629471e+06
   1.455104e+06  -9.126651e+05
   1.827772e+06   2.113404e+06
  -8.721061e+04   3.128109e+06
  -3.024637e+06   1.097670e+06
  -4.176821e+06  -1.975508e+06
  -2.027966e+06  -3.414297e+06
   1.741471e+06  -2.334779e+06
   3.767806e+06   3.425034e+03
   2.438158e+06   1.624848e+06
  -5.764982e+05   1.480902e+06
  -2.262343e+06   1.218872e+05
  -1.363653e+06  -9.558808e+05
   6.386637e+05  -7.340822e+05
   1.393596e+06   4.009843e+05
   2.114392e+05   1.147419e+06
  -1.333685e+06   6.750567e+05
  -1.239096e+06  -5.480560e+05
   6.208036e+05  -1.248768e+06
   2.218971e+06  -5.428265e+05
   1.533898e+06   1.256788e+06
  -1.183175e+06   2.778109e+06
  -3.606568e+06   2.590717e+06
  -3.784777e+06   4.519542e+05
  -2.020972e+06  -2.267509e+06
  -1.689729e+05  -3.677701e+06
   5.315914e+05  -3.144743e+06
   4.764731e+05  -1.806425e+06
   7.347686e+05  -1.098850e+06
   1.630456e+06  -1.036999e+06
   2.470093e+06  -4.441637e+05
   2.353777e+06   1.163765e+06
   1.028258e+06   2.568793e+06
  -8.451784e+05   2.153649e+06
  -2.038498e+06  -6.517985e+04
  -1.590911e+06  -2.214953e+06
   3.009251e+05  -2.440579e+06
   2.202616e+06  -7.003028e+05
   2.598115e+06   1.404648e+06
   1.326317e+06   2.325582e+06
  -2.957185e+05   1.880833e+06
  -9.454898e+05   1.038471e+06
  -7.342189e+05   7.109083e+05
  -9.007867e+05   8.785354e+05
  -2.086097e+06   7.672846e+05
  -3.269525e+06  -2.562115e+05
  -2.757403e+06  -1.949558e+06
  -2.075639e+05  -3.251701e+06
   2.648525e+06  -3.097215e+06
   3.561096e+06  -1.364974e+06
   2.003303e+06   8.374451e+05
  -3.306487e+05   1.949324e+06
  -1.297761e+06   1.298784e+06
  -3.936811e+05  -2.146367e+05
   1.025336e+06  -9.571639e+05
   1.388317e+06  -2.560323e+05
   4.823557e+05   8.687485e+05
  -5.858354e+05   9.117798e+05
  -6.703369e+05  -2.486607e+05
   3.348759e+05  -1.074648e+06
   1.476344e+06  -1.618473e+05
   1.562526e+06   1.966006e+06
   1.443418e+05   3.241952e+06
  -1.994479e+06   2.239934e+06
  -3.293567e+06  -3.203076e+05
  -2.683815e+06  -2.360533e+06
  -6.385022e+05  -2.515905e+06
   1.155318e+06  -1.250007e+06
   1.391177e+06  -7.483590e+04
   4.032040e+05   3.655527e+04
  -3.100775e+05  -5.949147e+05
   1.975758e+05  -9.541352e+05
   1.286064e+06  -4.671060e+05
   1.533880e+06   4.686252e+05
   4.472580e+05   9.615614e+05
  -8.784810e+05   5.502385e+05
  -9.211345e+05  -3.311090e+05
   5.402232e+05  -7.543487e+05
   2.049832e+06  -1.649709e+05
   1.934372e+06   1.074105e+06
   7.460849e+04   1.943927e+06
  -1.916970e+06   1.640437e+06
  -2.316257e+06   3.333344e+05
  -9.777720e+05  -9.015026e+05
   6.459311e+05  -1.039343e+06
   1.042658e+06  -1.201042e+05
   5.234681e+04   7.550340e+05
  -1.178988e+06   5.683877e+05
  -1.426076e+06  -5.089782e+05
  -4.966965e+05  -1.315945e+06
   7.068640e+05  -1.015405e+06
   1.089412e+06  -1.433870e+04
   3.976161e+05   5.486656e+05
  -5.237240e+05   9.340623e+04
  -5.546055e+05  -8.140400e+05
   5.110668e+05  -1.124276e+06
   1.648965e+06  -3.818100e+05
   1.624870e+06   8.768871e+05
   3.272720e+05   1.650796e+06
  -1.078045e+06   1.347728e+06
  -1.370927e+06   2.704911e+05
  -5.046832e+05  -6.572467e+05
   4.809332e+05  -7.184568e+05
   6.352564e+05  -5.881643e+04
   9.098953e+03   5.072641e+05
  -5.686925e+05   3.969998e+05
  -4.467494e+05  -1.085493e+05
   1.879759e+05  -2.405220e+05
   5.342590e+05   3.000288e+05
   1.849647e+04   9.295271e+05
  -1.054672e+06   7.955480e+05
  -1.704307e+06  -2.826371e+05
  -1.205178e+06  -1.561587e+06
   1.592559e+05  -2.035930e+06
   1.342060e+06  -1.336681e+06
   1.552823e+06  -3.775456e+04
   9.589284e+05   8.777365e+05
   3.458593e+05   9.000203e+05
   2.042085e+05   4.035556e+05
   2.881487e+05   1.670763e+05
   4.874561e+04   4.761543e+05
  -6.358077e+05   7.923754e+05
  -1.233638e+06   4.087859e+05
  -1.044176e+06  -6.250035e+05
   7.701683e+04  -1.399211e+06
   1.428644e+06  -1.043463e+06
   1.938121e+06   3.347076e+05
   1.071279e+06   1.680252e+06
  -6.294013e+05   1.945861e+06
  -1.949453e+06   1.004531e+06
  -2.034630e+06  -3.248025e+05
  -1.072406e+06  -1.084044e+06
   1.293989e+04  -1.011944e+06
   4.779839e+05  -6.379529e+05
   3.550021e+05  -5.963154e+05
   2.212610e+05  -8.953019e+05
   4.915679e+05  -9.292480e+05
   9.698774e+05  -2.272612e+05
   1.066977e+06   9.007813e+05
   4.485373e+05   1.571975e+06
  -5.305286e+05   1.191457e+06
  -1.081031e+06   4.653525e+04
  -7.334244e+05  -9.645361e+05
   1.675087e+05  -1.140326e+06
   7.895584e+05  -5.143597e+05
   6.542424e+05   3.068423e+05
   8.809393e+04   7.415478e+05
  -2.072759e+05   6.810155e+05
   2.651541e+04   4.367347e+05
   3.171639e+05   3.249718e+05
   2.397923e+04   3.370831e+05
  -8.663734e+05   2.120250e+05
  -1.592956e+06  -2.110695e+05
  -1.340537e+06  -7.641276e+05
  -1.201861e+05  -1.077027e+06
   1.136842e+06  -9.051255e+05
   1.449508e+06  -3.463859e+05
   7.442081e+05   2.129039e+05
  -1.363280e+05   3.832552e+05
  -3.713874e+05   1.087518e+05
   2.999690e+04  -2.345607e+05
   4.254942e+05  -1.817367e+05
   3.767624e+05   2.843584e+05
   7.310660e+04   6.364152e+05
  -4.934457e+04   4.051239e+05
   1.289698e+05  -1.751278e+05
   3.366568e+05  -3.625283e+05
   2.558443e+05   1.748094e+05
  -1.807296e+05   8.641702e+05
  -7.315866e+05   8.597206e+05
  -9.625807e+05   5.895333e+04
  -5.458013e+05  -7.581416e+05
   3.390324e+05  -8.143432e+05
   9.455505e+05  -1.500643e+05
   5.876986e+05   5.168029e+05
  -5.429526e+05   5.690461e+05
  -1.380240e+06   6.695978e+03
  -1.024994e+06  -6.748301e+05
   2.607574e+05  -9.402887e+05
   1.281589e+06  -6.023098e+05
   1.153266e+06   4.950648e+04
   1.864281e+05   4.605886e+05
  -5.230301e+05   2.942585e+05
  -2.767958e+05  -1.993815e+05
   5.495750e+05  -3.692926e+05
   9.714713e+05   1.675167e+05
   4.359072e+05   1.035552e+06
  -6.374101e+05   1.366844e+06
  -1.309143e+06   6.455725e+05
  -1.043226e+06  -6.874894e+05
  -1.488354e+05  -1.535618e+06
   6.263037e+05  -1.160372e+06
   8.049969e+05   6.373145e+04
   4.531246e+05   9.927362e+05
  -7.207389e+04   8.823394e+05
  -4.402296e+05   1.199630e+05
  -4.754437e+05  -3.382015e+05
  -2.288582e+05  -1.462490e+05
  -6.265588e+03   1.092487e+05
  -1.057829e+05  -1.845985e+05
  -3.808186e+05  -7.870677e+05
  -2.710368e+05  -9.315711e+05
   4.768535e+05  -3.549812e+05
   1.262749e+06   3.964736e+05
   1.183703e+06   7.075915e+05
   1.687601e+05   5.674461e+05
  -8.101475e+05   3.410002e+05
  -8.646743e+05   1.866828e+05
  -2.289817e+05   9.492368e+03
   1.582789e+05  -1.798581e+05
  -7.427008e+04  -2.269702e+05
  -3.342153e+05  -1.427402e+05
   1.974730e+03  -1.187451e+05
   6.776606e+05  -1.496909e+05
   8.650173e+05   5.224157e+04
   1.940707e+05   5.649369e+05
  -8.230384e+05   9.129003e+05
  -1.358835e+06   5.372361e+05
  -1.042637e+06  -4.382013e+05
  -1.719800e+05  -1.202204e+06
   6.289717e+05  -1.109992e+06
   8.837424e+05  -3.655147e+05
   5.626416e+05   2.635466e+05
   6.116569e+04   2.999163e+05
  -1.531445e+05  -1.024287e+04
   3.404086e+04  -8.706779e+04
   2.989444e+05   2.797207e+05
   2.417985e+05   6.809213e+05
  -1.801836e+05   5.444518e+05
  -5.902026e+05  -1.821055e+05
  -5.439007e+05  -8.772889e+05
   3.211860e+04  -8.539928e+05
   6.964430e+05  -9.746420e+04
   8.235568e+05   7.108921e+05
   2.098740e+05   9.122806e+05
  -6.233076e+05   4.825028e+05
  -8.861786e+05  -1.073750e+05
  -3.797601e+05  -4.512058e+05
   2.423354e+05  -4.724407e+05
   2.400648e+05  -2.820713e+05
  -2.978710e+05  -4.733560e+04
  -5.690190e+05   8.613210e+03
  -8.708837e+04  -2.423401e+05
   7.017732e+05  -5.702364e+05
   9.860660e+05  -5.046091e+05
   5.463655e+05   8.702845e+04
  -1.011272e+05   6.909869e+05
  -3.953483e+05   6.731261e+05
  -2.679938e+05   6.452240e+04
   1.058570e+04  -4.394510e+05
   2.238400e+05  -3.119508e+05
   2.973023e+05   2.094234e+05
   1.911338e+05   4.908760e+05
  -7.213249e+04   2.830128e+05
  -3.231575e+05  -7.918727e+04
  -3.662448e+05  -1.858430e+05
  -2.012859e+05  -3.389896e+04
  -1.403151e+04   6.239997e+04
   6.842598e+04  -9.407622e+04
   1.088018e+05  -3.477320e+05
   2.099482e+05  -3.697535e+05
   3.209217e+05  -2.936413e+04
   2.690780e+05   4.212166e+05
  -2.364133e+04   5.571123e+05
  -3.884579e+05   2.160496e+05
  -4.972373e+05  -2.992322e+05
  -1.608138e+05  -5.173992e+05
   4.071240e+05  -2.856389e+05
   6.897697e+05   1.149029e+05
   3.705681e+05   3.267246e+05
  -2.527894e+05   2.693239e+05
  -5.170770e+05   1.052555e+05
  -1.465099e+05  -1.617366e+03
   3.797790e+05   1.491811e+04
   3.746644e+05   1.515823e+05
  -2.192953e+05   2.945636e+05
  -7.472000e+05   2.098258e+05
