
 $NMID
 id='ANONYMOUS ', fmtdat='(2E16.6)'
 volume=1.0
 tramp=1.0
 $END
  -3.565911e+07  -3.254920e+05
  -2.189734e+07  -2.097560e+07
   3.748129e+06  -2.374723e+07
   1.709188e+07  -1.056254e+07
   1.107631e+07   3.067599e+06
  -1.438511e+06   6.034712e+06
  -6.520784e+06   1.521212e+05
  -2.635523e+06  -6.132548e+06
   3.465134e+06  -6.892829e+06
   6.304781e+06  -1.991124e+06
   4.724187e+06   4.159841e+06
   4.940825e+05   5.967133e+06
  -2.777782e+06   1.647670e+06
  -1.880405e+06  -4.187570e+06
   2.386086e+06  -4.941471e+06
   5.255746e+06   5.087360e+05
   3.178214e+06   6.647064e+06
  -2.261914e+06   7.827816e+06
  -6.535146e+06   3.817752e+06
  -6.851140e+06  -1.544665e+06
  -3.837217e+06  -4.828943e+06
  -1.652468e+05  -5.077929e+06
   1.431180e+06  -3.396000e+06
   2.280147e+05  -1.976507e+06
  -1.312079e+06  -2.352249e+06
   1.735644e+05  -3.524557e+06
   4.437713e+06  -2.889154e+06
   7.023433e+06   2.064142e+05
   4.631171e+06   3.169993e+06
  -4.419637e+05   3.372035e+06
  -3.121894e+06   1.282396e+06
  -1.656607e+06  -6.938696e+05
   1.228792e+06  -1.140968e+06
   2.482027e+06  -1.306771e+05
   1.663890e+06   1.742639e+06
  -5.288828e+04   3.178719e+06
  -1.498034e+06   2.376263e+06
  -1.731009e+06  -5.316876e+05
  -5.726566e+05  -2.362374e+06
   5.337543e+05  -6.496728e+05
  -1.445534e+05   2.255548e+06
  -1.874593e+06   1.819099e+06
  -1.780477e+06  -1.998010e+06
   1.148946e+06  -4.001248e+06
   3.980078e+06  -8.180146e+05
   3.169135e+06   4.226028e+06
  -1.021252e+06   5.364989e+06
  -4.796957e+06   1.554564e+06
  -4.942133e+06  -2.990195e+06
  -1.605831e+06  -4.268233e+06
   2.396622e+06  -2.168039e+06
   3.984047e+06   8.182151e+05
   2.063079e+06   2.355910e+06
  -1.434639e+06   1.611598e+06
  -3.067010e+06  -4.532938e+05
  -1.440386e+06  -1.715180e+06
   1.099659e+06  -9.311996e+05
   1.362107e+06   6.797343e+05
  -5.990081e+05   8.784622e+05
  -1.726292e+06  -6.404443e+05
  -1.424776e+05  -1.922866e+06
   2.532057e+06  -1.394279e+06
   3.441864e+06   4.981686e+05
   1.692335e+06   2.445870e+06
  -1.361548e+06   3.603301e+06
  -3.833363e+06   3.291352e+06
  -4.454694e+06   9.739828e+05
  -2.970409e+06  -2.420517e+06
  -4.717976e+05  -4.399778e+06
   1.161620e+06  -3.502179e+06
   1.069486e+06  -1.260955e+06
   3.649196e+05  -2.718945e+05
   6.039860e+05  -8.447816e+05
   1.715454e+06  -1.010967e+06
   2.244221e+06   3.504737e+05
   1.339286e+06   1.922877e+06
  -3.391952e+05   1.842460e+06
  -1.523236e+06   3.964791e+04
  -1.380304e+06  -1.875740e+06
   1.517616e+05  -2.348477e+06
   2.192787e+06  -1.039861e+06
   3.145898e+06   1.146506e+06
   2.046287e+06   2.732217e+06
  -1.518228e+05   2.776207e+06
  -1.484246e+06   1.714310e+06
  -1.382434e+06   8.182874e+05
  -1.253918e+06   6.518186e+05
  -2.243213e+06   4.900646e+05
  -3.362435e+06  -5.222021e+05
  -2.717450e+06  -2.135687e+06
  -8.822076e+04  -3.254126e+06
   2.620639e+06  -3.039029e+06
   3.408432e+06  -1.499177e+06
   2.043304e+06   5.522401e+05
  -1.822038e+04   1.823980e+06
  -1.046741e+06   1.415404e+06
  -4.198431e+05  -1.071384e+05
   9.383765e+05  -9.867674e+05
   1.466523e+06  -2.655232e+05
   6.197085e+05   9.298155e+05
  -4.927880e+05   8.767602e+05
  -4.555453e+05  -3.033512e+05
   6.797123e+05  -7.384617e+05
   1.478141e+06   6.119413e+05
   8.631982e+05   2.491965e+06
  -8.009113e+05   2.894881e+06
  -2.340424e+06   1.341264e+06
  -2.851997e+06  -8.956207e+05
  -2.075344e+06  -2.288635e+06
  -4.162079e+05  -2.235681e+06
   1.062797e+06  -1.169839e+06
   1.297565e+06  -1.175979e+05
   3.924867e+05   4.308943e+04
  -2.821255e+05  -6.019086e+05
   2.992363e+05  -1.020350e+06
   1.439066e+06  -4.373199e+05
   1.573297e+06   6.491766e+05
   3.346466e+05   1.074505e+06
  -9.250716e+05   4.699605e+05
  -7.773121e+05  -3.716870e+05
   6.412848e+05  -5.289057e+05
   1.848335e+06   1.397647e+05
   1.560288e+06   1.109967e+06
  -1.356464e+05   1.699429e+06
  -1.888898e+06   1.392901e+06
  -2.243340e+06   2.159928e+05
  -9.505929e+05  -9.837591e+05
   7.183504e+05  -1.123353e+06
   1.168462e+06  -1.191772e+05
   1.059997e+05   8.220382e+05
  -1.205443e+06   5.565249e+05
  -1.374952e+06  -6.079406e+05
  -3.218614e+05  -1.321459e+06
   8.308674e+05  -8.442516e+05
   1.029834e+06   1.790588e+05
   2.528434e+05   6.052964e+05
  -6.003955e+05   5.211695e+04
  -5.631182e+05  -8.403403e+05
   4.947734e+05  -1.122574e+06
   1.620207e+06  -3.872481e+05
   1.604055e+06   8.759745e+05
   2.834322e+05   1.653163e+06
  -1.143710e+06   1.298569e+06
  -1.373022e+06   1.764494e+05
  -4.201634e+05  -6.882643e+05
   5.240401e+05  -6.556058e+05
   5.503058e+05  -4.512932e+04
  -6.956008e+04   3.667991e+05
  -4.625164e+05   2.368983e+05
  -2.189490e+05  -8.187917e+04
   3.020697e+05  -4.416604e+04
   4.509281e+05   4.595448e+05
  -1.142032e+05   9.384917e+05
  -1.094814e+06   7.234647e+05
  -1.665395e+06  -3.405775e+05
  -1.151122e+06  -1.568363e+06
   2.022223e+05  -1.956161e+06
   1.325023e+06  -1.170144e+06
   1.412792e+06   8.018033e+04
   7.583520e+05   7.843417e+05
   2.657187e+05   6.531799e+05
   3.102647e+05   2.539673e+05
   4.238979e+05   2.225092e+05
   5.926473e+04   5.607494e+05
  -6.853432e+05   7.316352e+05
  -1.184020e+06   2.914676e+05
  -8.955885e+05  -6.063094e+05
   1.789664e+05  -1.239607e+06
   1.404312e+06  -8.944403e+05
   1.830916e+06   3.985710e+05
   9.302446e+05   1.689896e+06
  -7.754859e+05   1.891264e+06
  -2.011709e+06   8.491799e+05
  -1.917642e+06  -4.911977e+05
  -8.460229e+05  -1.089613e+06
   1.311916e+05  -8.400414e+05
   3.785700e+05  -4.749568e+05
   1.717859e+05  -5.885831e+05
   1.432352e+05  -9.827671e+05
   5.324902e+05  -9.817253e+05
   1.010102e+06  -2.283692e+05
   1.047651e+06   8.891058e+05
   4.174867e+05   1.533422e+06
  -5.261044e+05   1.148152e+06
  -1.041973e+06  -4.184067e+03
  -6.591308e+05  -1.012949e+06
   2.806752e+05  -1.116823e+06
   8.875497e+05  -3.750412e+05
   6.444832e+05   4.803357e+05
  -4.570022e+04   8.185305e+05
  -3.636520e+05   6.398366e+05
  -4.437689e+04   3.670334e+05
   3.290847e+05   2.896305e+05
   3.479306e+04   3.145805e+05
  -8.990910e+05   1.693559e+05
  -1.618934e+06  -2.694182e+05
  -1.290888e+06  -8.245141e+05
  -3.751300e+03  -1.122055e+06
   1.233788e+06  -8.885074e+05
   1.458548e+06  -2.386884e+05
   6.874607e+05   3.455260e+05
  -1.884199e+05   4.272731e+05
  -3.967964e+05   4.891762e+04
  -4.628060e+03  -2.988768e+05
   3.769772e+05  -1.894509e+05
   3.752079e+05   2.804474e+05
   1.489626e+05   5.925636e+05
   2.865269e+04   3.855509e+05
   1.188509e+05  -1.059658e+05
   2.664985e+05  -2.690711e+05
   2.297121e+05   1.845521e+05
  -1.466710e+05   8.059170e+05
  -7.318980e+05   8.409629e+05
  -1.043071e+06   1.020761e+05
  -6.234664e+05  -7.420633e+05
   3.426830e+05  -8.706968e+05
   9.814928e+05  -2.176795e+05
   5.756699e+05   4.827291e+05
  -5.615902e+05   5.239126e+05
  -1.299460e+06  -7.202084e+04
  -8.602579e+05  -7.000873e+05
   3.610658e+05  -8.318049e+05
   1.230806e+06  -4.296713e+05
   1.034758e+06   1.392567e+05
   1.238946e+05   4.287484e+05
  -5.242642e+05   2.308543e+05
  -2.944367e+05  -2.272730e+05
   4.958313e+05  -3.927467e+05
   9.468565e+05   1.094133e+05
   4.891581e+05   9.730247e+05
  -5.378531e+05   1.347283e+06
  -1.226360e+06   6.679158e+05
  -1.002053e+06  -6.422055e+05
  -1.356253e+05  -1.460229e+06
   6.179874e+05  -1.059892e+06
   7.574526e+05   1.300203e+05
   3.614651e+05   9.703349e+05
  -1.592743e+05   8.053254e+05
  -4.487320e+05   7.670901e+04
  -3.963964e+05  -3.199901e+05
  -1.559246e+05  -1.251737e+05
  -3.172060e+04   8.569855e+04
  -1.884384e+05  -2.205918e+05
  -3.882768e+05  -7.800135e+05
  -1.715304e+05  -8.859417e+05
   5.494039e+05  -3.213191e+05
   1.194653e+06   3.962391e+05
   1.056153e+06   6.969525e+05
   1.460916e+05   5.625541e+05
  -7.203987e+05   3.237401e+05
  -8.101162e+05   1.442442e+05
  -2.730998e+05  -3.006251e+04
   1.298483e+05  -1.770572e+05
   5.024622e+03  -1.831036e+05
  -2.414796e+05  -9.952496e+04
  -2.806485e+04  -1.091387e+05
   5.687211e+05  -1.680384e+05
   8.428070e+05   3.075391e+04
   3.001268e+05   5.556677e+05
  -7.211842e+05   9.219311e+05
  -1.363513e+06   5.722897e+05
  -1.099842e+06  -3.781810e+05
  -1.933307e+05  -1.144893e+06
   6.294978e+05  -1.095702e+06
   8.533495e+05  -4.042845e+05
   5.298938e+05   2.118833e+05
   9.247717e+04   2.900489e+05
  -7.890729e+04   3.412737e+04
   5.973454e+04  -3.186919e+04
   2.522104e+05   2.952231e+05
   2.004888e+05   6.590636e+05
  -1.584455e+05   5.414655e+05
  -5.527907e+05  -1.243266e+05
  -5.690754e+05  -7.938725e+05
  -5.411259e+04  -8.295324e+05
   6.235339e+05  -1.660560e+05
   8.177075e+05   6.157753e+05
   2.535565e+05   8.821077e+05
  -5.862654e+05   5.218178e+05
  -8.916861e+05  -7.875769e+04
  -4.120327e+05  -4.841859e+05
   2.356171e+05  -5.247414e+05
   2.920088e+05  -2.911464e+05
  -2.191697e+05  -2.135715e+04
  -5.308955e+05   2.002985e+04
  -1.084617e+05  -2.458036e+05
   6.766127e+05  -5.420320e+05
   1.010309e+06  -4.397337e+05
   5.965560e+05   1.336505e+05
  -8.911963e+04   6.936947e+05
  -4.380151e+05   6.803452e+05
  -3.238697e+05   1.144646e+05
  -2.592905e+04  -3.948080e+05
   2.006437e+05  -3.380340e+05
   2.814437e+05   1.409122e+05
   1.958925e+05   4.702704e+05
  -4.987872e+04   3.281523e+05
  -3.137948e+05  -4.836438e+04
  -3.771647e+05  -2.194487e+05
  -1.965090e+05  -6.981758e+04
   1.933793e+04   1.067569e+05
   7.063521e+04   7.518589e+03
   2.055610e+04  -2.934983e+05
   7.808676e+04  -4.197755e+05
   2.663939e+05  -1.395570e+05
   3.399109e+05   3.289795e+05
   8.830919e+04   5.235141e+05
  -3.411660e+05   2.398840e+05
  -5.210116e+05  -2.431013e+05
  -1.890247e+05  -4.722910e+05
   4.091809e+05  -2.882759e+05
   7.018766e+05   7.714127e+04
   3.781127e+05   3.106383e+05
  -2.402257e+05   3.077407e+05
  -5.124797e+05   1.623163e+05
  -1.890633e+05   1.143110e+04
   2.970544e+05  -3.470538e+04
   3.330166e+05   7.613762e+04
  -1.562220e+05   2.422681e+05
  -6.287446e+05   2.063277e+05
