
 $NMID
 id='ANONYMOUS ', fmtdat='(2E16.6)'
 volume=1.0
 tramp=1.0
 $END
   1.793890e+07   1.875386e+06
   1.107272e+07   9.496618e+06
  -1.104529e+06   1.123733e+07
  -8.373500e+06   6.871800e+06
  -6.566706e+06   3.032809e+05
  -1.787042e+05  -3.242481e+06
   3.769771e+06  -1.405712e+06
   2.576728e+06   3.079226e+06
  -1.197997e+06   4.967753e+06
  -3.564006e+06   1.996911e+06
  -2.757468e+06  -2.634316e+06
  -3.847254e+04  -3.900810e+06
   1.871305e+06  -6.295635e+05
   1.183595e+06   3.359401e+06
  -1.355176e+06   3.701444e+06
  -3.073703e+06   1.141126e+05
  -1.964499e+06  -3.771573e+06
   1.220311e+06  -4.461493e+06
   3.684757e+06  -1.818917e+06
   3.432722e+06   1.437736e+06
   1.191023e+06   2.732455e+06
  -5.418812e+05   1.933006e+06
  -1.783570e+05   9.665809e+05
   1.333379e+06   1.439870e+06
   1.550876e+06   2.831586e+06
  -7.567536e+05   3.186684e+06
  -3.971784e+06   1.469511e+06
  -4.995199e+06  -1.176710e+06
  -2.521619e+06  -2.642875e+06
   1.279407e+06  -1.962452e+06
   2.839944e+06  -4.842974e+03
   9.580239e+05   1.525084e+06
  -2.017282e+06   1.412244e+06
  -2.934511e+06  -3.168305e+05
  -1.223070e+06  -2.308764e+06
   9.407456e+05  -2.741642e+06
   1.434801e+06  -1.054992e+06
   3.651291e+05   1.084187e+06
  -6.066694e+05   1.313324e+06
  -3.574281e+05  -6.087490e+05
   7.372781e+05  -2.257652e+06
   1.525401e+06  -1.426878e+06
   1.211624e+06   1.030206e+06
  -7.987897e+04   2.164074e+06
  -1.350793e+06   5.606915e+05
  -1.333853e+06  -1.967844e+06
   3.910201e+05  -2.597025e+06
   2.614155e+06  -6.512280e+05
   3.248148e+06   1.948310e+06
   1.364536e+06   2.924292e+06
  -1.590154e+06   1.744136e+06
  -3.032402e+06  -2.999053e+05
  -1.825170e+06  -1.501217e+06
   6.069713e+05  -1.141127e+06
   1.857649e+06   1.021981e+05
   1.021740e+06   9.014623e+05
  -5.911988e+05   5.468415e+05
  -1.091005e+06  -4.291908e+05
  -6.604914e+04  -9.061138e+05
   1.103043e+06  -3.852111e+05
   8.753595e+05   5.563353e+05
  -6.776179e+05   9.176519e+05
  -1.856828e+06   2.050222e+05
  -1.127666e+06  -1.179624e+06
   1.178412e+06  -2.199769e+06
   3.124436e+06  -1.876924e+06
   3.138330e+06  -1.135167e+05
   1.520616e+06   2.005981e+06
  -1.186799e+05   3.028560e+06
  -6.816509e+05   2.506363e+06
  -5.195991e+05   1.387320e+06
  -6.288479e+05   8.120312e+05
  -1.336506e+06   7.488079e+05
  -2.008693e+06   2.396089e+05
  -1.842752e+06  -1.059220e+06
  -6.917326e+05  -2.125202e+06
   7.950499e+05  -1.684933e+06
   1.622596e+06   1.691765e+05
   1.137761e+06   1.875483e+06
  -3.975161e+05   1.953319e+06
  -1.837613e+06   4.341578e+05
  -2.039387e+06  -1.315423e+06
  -9.370726e+05  -2.010836e+06
   3.862654e+05  -1.547253e+06
   8.804794e+05  -7.913076e+05
   6.757656e+05  -5.107617e+05
   7.977004e+05  -6.282280e+05
   1.737548e+06  -4.615150e+05
   2.622594e+06   4.437767e+05
   2.090468e+06   1.770535e+06
  -5.749951e+04   2.639725e+06
  -2.347979e+06   2.323212e+06
  -2.968808e+06   8.740330e+05
  -1.573836e+06  -7.998079e+05
   3.804065e+05  -1.557158e+06
   1.128451e+06  -9.762535e+05
   3.083584e+05   1.948358e+05
  -8.897162e+05   7.086297e+05
  -1.143163e+06   1.124353e+05
  -3.365325e+05  -7.412300e+05
   5.285993e+05  -6.994621e+05
   5.132488e+05   2.411975e+05
  -3.482655e+05   8.199072e+05
  -1.180479e+06  -4.397142e+03
  -1.082465e+06  -1.698371e+06
   1.350558e+05  -2.587031e+06
   1.753088e+06  -1.624750e+06
   2.604578e+06   4.950986e+05
   1.985330e+06   2.068858e+06
   3.444868e+05   2.058082e+06
  -1.012331e+06   9.319558e+05
  -1.127337e+06  -2.838074e+04
  -3.231803e+05  -5.670164e+04
   2.090318e+05   5.010308e+05
  -2.303889e+05   7.576886e+05
  -1.076903e+06   2.851513e+05
  -1.204881e+06  -4.909588e+05
  -2.889794e+05  -8.085700e+05
   7.458834e+05  -3.804824e+05
   7.137638e+05   3.265304e+05
  -4.855199e+05   5.588548e+05
  -1.649454e+06  -1.370795e+04
  -1.472671e+06  -9.895118e+05
   7.339768e+04  -1.558917e+06
   1.651951e+06  -1.186292e+06
   1.888619e+06  -1.101880e+05
   7.265199e+05   7.976520e+05
  -5.977692e+05   7.986831e+05
  -8.568498e+05   2.353338e+04
   7.733745e+03  -6.182427e+05
   9.919773e+05  -3.787313e+05
   1.113306e+06   5.103539e+05
   3.050796e+05   1.092232e+06
  -6.399282e+05   7.619394e+05
  -8.729418e+05  -6.825797e+04
  -2.765390e+05  -4.677903e+05
   4.309932e+05  -3.549839e+04
   3.920302e+05   6.967588e+05
  -4.887586e+05   8.740639e+05
  -1.357693e+06   1.977551e+05
  -1.253341e+06  -8.182606e+05
  -1.510487e+05  -1.355591e+06
   9.640814e+05  -1.012887e+06
   1.124207e+06  -1.223240e+05
   3.595385e+05   5.638585e+05
  -4.366711e+05   5.442812e+05
  -5.128496e+05   7.284509e+03
   2.615739e+04  -4.009689e+05
   4.763367e+05  -2.778270e+05
   3.435512e+05   1.096664e+05
  -1.678231e+05   1.685394e+05
  -4.026918e+05  -2.841792e+05
   5.491652e+04  -7.492948e+05
   9.066186e+05  -5.670157e+05
   1.355327e+06   3.456646e+05
   8.660006e+05   1.343067e+06
  -2.659754e+05   1.630729e+06
  -1.169645e+06   9.832865e+05
  -1.248399e+06  -7.540645e+04
  -7.102958e+05  -7.642771e+05
  -2.232549e+05  -7.377302e+05
  -1.474968e+05  -3.370052e+05
  -2.260045e+05  -1.618782e+05
  -4.505874e+03  -3.929961e+05
   5.688735e+05  -5.933455e+05
   1.019796e+06  -2.425345e+05
   7.956979e+05   5.713758e+05
  -1.572634e+05   1.115899e+06
  -1.220543e+06   7.405441e+05
  -1.537615e+06  -4.018120e+05
  -7.455328e+05  -1.427129e+06
   6.456694e+05  -1.523460e+06
   1.642194e+06  -6.711871e+05
   1.612653e+06   4.040795e+05
   7.834382e+05   9.420603e+05
  -7.876987e+04   8.057500e+05
  -4.199547e+05   4.793011e+05
  -3.188385e+05   4.638131e+05
  -2.387495e+05   7.156741e+05
  -4.639596e+05   7.193624e+05
  -8.015748e+05   1.168964e+05
  -8.013477e+05  -7.994929e+05
  -2.561540e+05  -1.298748e+06
   5.079629e+05  -9.257206e+05
   8.737450e+05   3.653162e+04
   5.227152e+05   8.293459e+05
  -2.170618e+05   9.059838e+05
  -6.731454e+05   3.528497e+05
  -5.020248e+05  -3.001121e+05
  -1.227936e+04  -6.047017e+05
   2.195047e+05  -5.294932e+05
   8.934386e+03  -3.494559e+05
  -2.362605e+05  -2.833458e+05
   2.346721e+03  -2.737760e+05
   7.153075e+05  -1.095540e+05
   1.273241e+06   2.825304e+05
   1.027932e+06   7.099826e+05
   1.730377e+04   8.770720e+05
  -9.845455e+05   6.507887e+05
  -1.192440e+06   1.768038e+05
  -5.803281e+05  -2.266163e+05
   1.401647e+05  -3.009715e+05
   3.069292e+05  -5.912865e+04
  -4.085536e+04   1.920555e+05
  -3.547514e+05   1.203576e+05
  -2.857044e+05  -2.553998e+05
  -2.097652e+04  -5.205080e+05
   6.310388e+04  -3.261649e+05
  -1.135209e+05   1.300638e+05
  -2.905281e+05   2.682689e+05
  -1.932704e+05  -1.586470e+05
   2.016636e+05  -6.852470e+05
   6.496014e+05  -6.445086e+05
   7.875987e+05   1.878535e+04
   3.939460e+05   6.522553e+05
  -3.316669e+05   6.380175e+05
  -7.790172e+05   5.900264e+04
  -4.409838e+05  -4.559700e+05
   4.771037e+05  -4.208206e+05
   1.110582e+06   8.899871e+04
   7.749393e+05   6.109323e+05
  -2.756170e+05   7.345465e+05
  -1.069248e+06   3.941075e+05
  -9.209088e+05  -1.183114e+05
  -1.177973e+05  -3.815509e+05
   4.407399e+05  -1.995918e+05
   2.100839e+05   1.818104e+05
  -4.678728e+05   2.642135e+05
  -7.751587e+05  -1.979015e+05
  -2.868950e+05  -8.661054e+05
   6.030292e+05  -1.064916e+06
   1.099726e+06  -4.373491e+05
   7.969822e+05   6.233386e+05
   1.829144e+04   1.248366e+06
  -5.814386e+05   8.918251e+05
  -6.422993e+05  -1.075539e+05
  -2.956942e+05  -8.294535e+05
   1.194533e+05  -7.020790e+05
   3.630047e+05  -6.477775e+04
   3.585511e+05   3.021888e+05
   1.725482e+05   1.302210e+05
   1.276267e+04  -8.601159e+04
   7.548657e+04   1.610039e+05
   2.552272e+05   6.623177e+05
   1.531867e+05   7.662381e+05
  -4.118445e+05   2.506979e+05
  -9.914035e+05  -4.039017e+05
  -9.040207e+05  -6.476691e+05
  -9.709707e+04  -4.694538e+05
   6.737886e+05  -2.232523e+05
   7.080892e+05  -9.230649e+04
   1.864788e+05   1.124746e+04
  -1.387830e+05   1.356706e+05
   4.262749e+04   1.839119e+05
   2.578553e+05   1.329381e+05
  -8.065138e+03   9.649145e+04
  -5.539782e+05   7.969795e+04
  -6.957928e+05  -9.921202e+04
  -1.237635e+05  -4.734191e+05
   7.233019e+05  -6.865599e+05
   1.136979e+06  -3.437833e+05
   8.183468e+05   4.245018e+05
   6.050620e+04   9.822485e+05
  -5.836471e+05   8.544148e+05
  -7.396048e+05   2.384028e+05
  -4.374456e+05  -2.478883e+05
  -3.080803e+04  -2.473409e+05
   1.213677e+05   1.408369e+04
  -3.266869e+04   6.467962e+04
  -2.200923e+05  -2.455833e+05
  -1.482265e+05  -5.646169e+05
   1.815262e+05  -4.286896e+05
   4.652622e+05   1.833686e+05
   3.844787e+05   7.434988e+05
  -7.908254e+04   6.904727e+05
  -5.690153e+05   3.731759e+04
  -6.210227e+05  -6.263276e+05
  -1.109132e+05  -7.523295e+05
   5.366374e+05  -3.510696e+05
   7.107436e+05   1.459219e+05
   2.767700e+05   3.933709e+05
  -2.296621e+05   3.682226e+05
  -2.159461e+05   2.103472e+05
   2.351439e+05   5.451933e+04
   4.595305e+05   2.981926e+04
   5.483504e+04   2.028728e+05
  -6.041660e+05   4.132327e+05
  -8.305974e+05   3.374431e+05
  -4.366608e+05  -1.113567e+05
   1.282058e+05  -5.525985e+05
   3.676517e+05  -5.164524e+05
   2.254835e+05  -3.427277e+04
  -3.513813e+04   3.540254e+05
  -2.021250e+05   2.391432e+05
  -2.279950e+05  -1.859073e+05
  -1.222310e+05  -4.092571e+05
   7.814791e+04  -2.268649e+05
   2.566784e+05   8.423054e+04
   2.829328e+05   1.770678e+05
   1.590331e+05   4.254301e+04
   1.565413e+04  -5.270474e+04
  -5.821810e+04   6.675881e+04
  -1.056539e+05   2.745459e+05
  -1.906812e+05   2.917986e+05
  -2.630159e+05   8.940744e+03
  -1.955771e+05  -3.572849e+05
   5.064486e+04  -4.514836e+05
   3.275798e+05  -1.511521e+05
   3.849589e+05   2.740955e+05
   9.782293e+04   4.283727e+05
  -3.488871e+05   2.034390e+05
  -5.520028e+05  -1.384734e+05
  -2.784728e+05  -2.889447e+05
   2.235165e+05  -2.028836e+05
   4.271885e+05  -5.283887e+04
   1.208271e+05   1.214613e+04
  -3.041316e+05  -3.261437e+04
  -2.935511e+05  -1.430754e+05
   1.926015e+05  -2.232327e+05
   6.130788e+05  -1.230906e+05
