
 $NMID
 id='ANONYMOUS ', fmtdat='(2E16.6)'
 volume=1.0
 tramp=1.0
 $END
  -5.689235e+07  -2.352201e+06
  -3.263950e+07  -3.679697e+07
   9.276235e+06  -3.820395e+07
   2.850146e+07  -1.344713e+07
   1.622788e+07   7.940380e+06
  -3.819371e+06   9.258692e+06
  -9.819028e+06  -1.751520e+06
  -2.287806e+06  -9.969487e+06
   6.685464e+06  -9.041835e+06
   9.789432e+06  -1.525757e+06
   6.774065e+06   6.526785e+06
   4.764673e+05   8.665066e+06
  -4.126265e+06   2.624285e+06
  -2.430176e+06  -5.509703e+06
   4.054730e+06  -6.356717e+06
   7.850172e+06   1.718418e+06
   4.011640e+06   1.046024e+07
  -4.328320e+06   1.170023e+07
  -1.043529e+07   5.525690e+06
  -1.083384e+07  -2.500049e+06
  -6.419702e+06  -7.840693e+06
  -3.591629e+05  -8.824885e+06
   3.264111e+06  -6.038169e+06
   2.104324e+06  -2.581329e+06
  -9.767078e+05  -2.078054e+06
  -1.545778e+05  -4.124825e+06
   5.506343e+06  -4.235259e+06
   9.684584e+06  -1.959574e+05
   6.946169e+06   4.391004e+06
   1.271782e+05   5.129861e+06
  -3.781986e+06   2.518262e+06
  -2.516052e+06   3.964520e+03
   5.291871e+05  -8.847264e+05
   2.202145e+06  -4.560602e+05
   2.149107e+06   1.429939e+06
   6.150470e+05   3.933324e+06
  -1.942453e+06   3.835699e+06
  -3.315681e+06  -1.953087e+05
  -1.642491e+06  -3.754316e+06
   8.753361e+05  -1.982795e+06
   3.101615e+05   2.423856e+06
  -2.532120e+06   2.190864e+06
  -2.312081e+06  -3.327132e+06
   2.748754e+06  -6.070129e+06
   7.104234e+06  -7.034926e+05
   4.885936e+06   7.227965e+06
  -2.307388e+06   8.529343e+06
  -7.587880e+06   2.131836e+06
  -6.776469e+06  -4.749163e+06
  -1.572895e+06  -6.107647e+06
   3.593793e+06  -2.548888e+06
   5.173895e+06   1.764472e+06
   2.247152e+06   3.601371e+06
  -2.542488e+06   2.096335e+06
  -4.513340e+06  -1.132725e+06
  -1.834304e+06  -2.831313e+06
   1.791360e+06  -1.309276e+06
   1.689062e+06   1.103037e+06
  -1.393560e+06   8.384741e+05
  -2.403865e+06  -1.921789e+06
   8.261912e+05  -3.467243e+06
   4.789980e+06  -1.700054e+06
   5.279665e+06   1.628109e+06
   2.147548e+06   4.115411e+06
  -2.011989e+06   5.216359e+06
  -5.184437e+06   4.672546e+06
  -6.275276e+06   1.532647e+06
  -4.500574e+06  -3.334614e+06
  -7.213515e+05  -6.228048e+06
   2.074492e+06  -4.692088e+06
   1.831187e+06  -1.105239e+06
   1.185323e+05   3.061980e+05
  -6.338385e+04  -9.814907e+05
   1.622167e+06  -1.777915e+06
   2.822856e+06  -1.955642e+05
   1.990575e+06   1.964038e+06
  -1.056206e+04   2.137176e+06
  -1.531186e+06   1.705426e+05
  -1.599688e+06  -2.108212e+06
   8.879431e+04  -2.930576e+06
   2.826955e+06  -1.576160e+06
   4.457983e+06   1.341690e+06
   3.114991e+06   3.904562e+06
  -1.975744e+05   4.273708e+06
  -2.415478e+06   2.659485e+06
  -2.311698e+06   1.046833e+06
  -1.873071e+06   5.929358e+05
  -2.961235e+06   3.503210e+05
  -4.318314e+06  -9.400473e+05
  -3.376446e+06  -2.906783e+06
   3.031366e+04  -4.132002e+06
   3.349492e+06  -3.780972e+06
   4.248624e+06  -1.981573e+06
   2.654805e+06   4.993871e+05
   2.200466e+05   2.246769e+06
  -1.159135e+06   1.912644e+06
  -5.704342e+05  -4.852083e+04
   1.132450e+06  -1.278628e+06
   1.934812e+06  -3.308562e+05
   8.911407e+05   1.250591e+06
  -5.529939e+05   1.101259e+06
  -4.002777e+05  -4.049019e+05
   1.113356e+06  -6.287532e+05
   1.798076e+06   1.416787e+06
   4.522730e+05   3.544759e+06
  -1.790740e+06   3.313882e+06
  -3.199148e+06   9.184478e+05
  -3.213771e+06  -1.612546e+06
  -2.126147e+06  -2.837199e+06
  -3.419326e+05  -2.606770e+06
   1.291417e+06  -1.416359e+06
   1.586236e+06  -1.743199e+05
   4.926897e+05   6.581043e+04
  -3.297366e+05  -7.692744e+05
   4.761270e+05  -1.337479e+06
   1.953839e+06  -5.052857e+05
   2.013768e+06   9.873108e+05
   3.227992e+05   1.449797e+06
  -1.202791e+06   5.237187e+05
  -8.624729e+05  -4.910426e+05
   8.774993e+05  -4.638469e+05
   2.150957e+06   4.336454e+05
   1.660358e+06   1.426716e+06
  -3.432784e+05   1.941253e+06
  -2.376870e+06   1.548731e+06
  -2.791161e+06   1.573922e+05
  -1.172897e+06  -1.329400e+06
   9.918175e+05  -1.485977e+06
   1.592731e+06  -1.298611e+05
   1.677044e+05   1.104648e+06
  -1.557608e+06   6.836917e+05
  -1.693442e+06  -8.630375e+05
  -2.564106e+05  -1.675130e+06
   1.148825e+06  -9.202605e+05
   1.244647e+06   3.838362e+05
   2.008500e+05   8.010758e+05
  -8.112090e+05   2.008527e+04
  -7.026903e+05  -1.090070e+06
   6.302405e+05  -1.411754e+06
   2.038180e+06  -4.724203e+05
   2.008432e+06   1.133811e+06
   3.027216e+05   2.104745e+06
  -1.521614e+06   1.593649e+06
  -1.747748e+06   1.335555e+05
  -4.630277e+05  -8.982964e+05
   6.983081e+05  -7.772392e+05
   6.311919e+05  -5.476374e+04
  -1.380834e+05   3.380217e+05
  -4.836753e+05   1.734998e+05
  -9.149975e+04  -6.035474e+04
   4.575098e+05   1.243219e+05
   4.790877e+05   7.157917e+05
  -2.724462e+05   1.184459e+06
  -1.430102e+06   8.371504e+05
  -2.074015e+06  -5.036973e+05
  -1.394239e+06  -2.013348e+06
   3.145484e+05  -2.419595e+06
   1.675455e+06  -1.340039e+06
   1.676468e+06   2.046030e+05
   8.052116e+05   9.202708e+05
   2.893550e+05   6.358604e+05
   4.887161e+05   2.227051e+05
   6.346521e+05   3.499390e+05
   6.007784e+04   7.838087e+05
  -9.230469e+05   8.625777e+05
  -1.460386e+06   2.547087e+05
  -1.007470e+06  -7.622398e+05
   3.190707e+05  -1.435099e+06
   1.767828e+06  -9.929809e+05
   2.228642e+06   5.792639e+05
   1.042290e+06   2.155990e+06
  -1.125372e+06   2.333233e+06
  -2.605041e+06   9.194128e+05
  -2.323414e+06  -7.737167e+05
  -8.812795e+05  -1.380541e+06
   2.554477e+05  -9.186103e+05
   3.941071e+05  -4.793878e+05
   8.251128e+04  -7.593592e+05
   1.453411e+05  -1.326803e+06
   7.311373e+05  -1.279114e+06
   1.320928e+06  -2.715490e+05
   1.304978e+06   1.136426e+06
   4.869854e+05   1.923566e+06
  -6.784019e+05   1.419200e+06
  -1.288452e+06  -5.622105e+04
  -7.584141e+05  -1.328238e+06
   4.612742e+05  -1.385546e+06
   1.196502e+06  -3.426828e+05
   7.845593e+05   7.570179e+05
  -1.855049e+05   1.085922e+06
  -5.905698e+05   7.576404e+05
  -1.094386e+05   4.045012e+05
   4.262903e+05   3.501322e+05
   4.763864e+04   3.854152e+05
  -1.168699e+06   1.607979e+05
  -2.067814e+06  -4.217427e+05
  -1.581660e+06  -1.112420e+06
   1.096195e+05  -1.447495e+06
   1.657527e+06  -1.085013e+06
   1.854794e+06  -1.954856e+05
   8.098642e+05   5.470763e+05
  -2.933964e+05   5.687038e+05
  -5.189953e+05   4.955670e+03
  -1.810990e+04  -4.365314e+05
   4.494257e+05  -2.467345e+05
   4.731054e+05   3.621931e+05
   2.426515e+05   7.336956e+05
   9.286193e+04   4.860150e+05
   1.383849e+05  -7.895663e+04
   2.773326e+05  -2.707415e+05
   2.632655e+05   2.450021e+05
  -1.714187e+05   9.798548e+05
  -9.442372e+05   1.038664e+06
  -1.394274e+06   1.328619e+05
  -8.407324e+05  -9.521345e+05
   4.616076e+05  -1.144303e+06
   1.289522e+06  -3.068116e+05
   7.190925e+05   5.977684e+05
  -7.343040e+05   6.200677e+05
  -1.582029e+06  -1.671228e+05
  -9.513201e+05  -9.077824e+05
   5.409302e+05  -9.565120e+05
   1.514992e+06  -3.963708e+05
   1.211437e+06   2.515176e+05
   1.054151e+05   5.156023e+05
  -6.637548e+05   2.358037e+05
  -3.807941e+05  -3.167565e+05
   5.980642e+05  -5.149560e+05
   1.190111e+06   1.074796e+05
   6.542218e+05   1.204659e+06
  -6.290461e+05   1.702853e+06
  -1.512528e+06   8.562806e+05
  -1.238728e+06  -7.959908e+05
  -1.453785e+05  -1.802406e+06
   7.874554e+05  -1.261573e+06
   9.166813e+05   2.248879e+05
   3.740300e+05   1.212505e+06
  -2.746458e+05   9.506158e+05
  -5.725051e+05   5.449224e+04
  -4.391664e+05  -3.899021e+05
  -1.423613e+05  -1.358190e+05
  -5.848431e+04   8.775016e+04
  -2.951014e+05  -3.217924e+05
  -4.874367e+05  -9.948795e+05
  -1.322878e+05  -1.083156e+06
   7.566510e+05  -3.645153e+05
   1.461568e+06   5.170060e+05
   1.234906e+06   8.823195e+05
   1.582732e+05   7.123397e+05
  -8.520828e+05   3.968793e+05
  -9.864700e+05   1.428218e+05
  -3.761634e+05  -7.961610e+04
   1.460634e+05  -2.252141e+05
   6.579176e+04  -1.899874e+05
  -2.383389e+05  -8.593973e+04
  -5.740377e+04  -1.347549e+05
   6.448116e+05  -2.307333e+05
   1.057084e+06   3.479675e+04
   4.549238e+05   7.185900e+05
  -8.569083e+05   1.180538e+06
  -1.754061e+06   7.305358e+05
  -1.445003e+06  -4.625204e+05
  -2.487049e+05  -1.419535e+06
   8.200873e+05  -1.371509e+06
   1.074419e+06  -5.319529e+05
   6.508028e+05   2.351964e+05
   1.374268e+05   3.662689e+05
  -4.906346e+04   8.515687e+04
   8.951151e+04   6.534477e+03
   2.772699e+05   3.861308e+05
   2.143341e+05   8.194939e+05
  -1.932703e+05   6.863822e+05
  -6.790583e+05  -1.181826e+05
  -7.403304e+05  -9.587422e+05
  -1.241724e+05  -1.048949e+06
   7.491481e+05  -2.626978e+05
   1.037630e+06   7.244993e+05
   3.442489e+05   1.109921e+06
  -7.323491e+05   6.884382e+05
  -1.141132e+06  -9.532125e+04
  -5.357778e+05  -6.529099e+05
   3.107813e+05  -7.039606e+05
   4.172613e+05  -3.653280e+05
  -2.219486e+05  -1.556763e+03
  -6.481930e+05   2.897294e+04
  -1.493909e+05  -3.204540e+05
   8.481222e+05  -6.593090e+05
   1.304447e+06  -4.886043e+05
   7.899482e+05   2.232143e+05
  -1.169034e+05   8.852891e+05
  -6.037993e+05   8.583569e+05
  -4.638786e+05   1.709653e+05
  -5.949026e+04  -4.735036e+05
   2.472636e+05  -4.495567e+05
   3.522602e+05   1.299493e+05
   2.470122e+05   5.869830e+05
  -5.809810e+04   4.544238e+05
  -3.953331e+05  -4.217162e+04
  -4.804449e+05  -3.133419e+05
  -2.407818e+05  -1.196264e+05
   4.276586e+04   1.744586e+05
   7.859712e+04   8.936369e+04
  -4.348823e+04  -3.426671e+05
   1.173677e+04  -5.883862e+05
   3.138070e+05  -2.647803e+05
   4.931871e+05   3.629827e+05
   1.933501e+05   6.564953e+05
  -4.053722e+05   3.234222e+05
  -6.841203e+05  -2.789063e+05
  -2.592378e+05  -5.734126e+05
   5.280528e+05  -3.610665e+05
   9.060270e+05   8.342673e+04
   4.835671e+05   3.907579e+05
  -3.064093e+05   4.187326e+05
  -6.591315e+05   2.422284e+05
  -2.757539e+05   1.577983e+04
   3.211172e+05  -8.800924e+04
   4.003091e+05   3.915601e+04
  -1.476488e+05   2.734241e+05
  -7.123576e+05   2.639421e+05
