
 $NMID
 id='ANONYMOUS ', fmtdat='(2E16.6)'
 volume=1.0
 tramp=1.0
 $END
  -3.474041e+07   2.640938e+05
  -2.162972e+07  -2.050369e+07
   3.553033e+06  -2.342476e+07
   1.676130e+07  -1.023519e+07
   1.082693e+07   3.280440e+06
  -1.485572e+06   5.959693e+06
  -6.360284e+06  -1.473996e+04
  -2.440096e+06  -6.032682e+06
   3.482068e+06  -6.557184e+06
   6.138355e+06  -1.827536e+06
   4.584120e+06   3.954764e+06
   5.394743e+05   5.686911e+06
  -2.613970e+06   1.671831e+06
  -1.781251e+06  -3.860123e+06
   2.323359e+06  -4.632400e+06
   5.091381e+06   5.432852e+05
   3.068778e+06   6.430987e+06
  -2.188622e+06   7.586117e+06
  -6.314824e+06   3.772658e+06
  -6.690808e+06  -1.360846e+06
  -3.900349e+06  -4.612517e+06
  -3.426503e+05  -5.043980e+06
   1.426937e+06  -3.503214e+06
   4.957761e+05  -1.957201e+06
  -1.034424e+06  -2.062535e+06
   1.143805e+05  -3.156048e+06
   4.007247e+06  -2.750316e+06
   6.548388e+06   3.514895e+04
   4.475198e+06   2.878311e+06
  -2.095338e+05   3.196727e+06
  -2.767608e+06   1.335917e+06
  -1.535272e+06  -4.535136e+05
   9.949455e+05  -8.964654e+05
   2.114870e+06  -1.109991e+05
   1.495267e+06   1.484466e+06
   6.028108e+04   2.881210e+06
  -1.334992e+06   2.331606e+06
  -1.752823e+06  -3.360679e+05
  -7.358497e+05  -2.233447e+06
   4.431920e+05  -7.953488e+05
  -7.677324e+04   1.972188e+06
  -1.753791e+06   1.667417e+06
  -1.710502e+06  -1.953438e+06
   1.175822e+06  -3.920876e+06
   3.997830e+06  -8.465458e+05
   3.182396e+06   4.104957e+06
  -9.686337e+05   5.262470e+06
  -4.626440e+06   1.562870e+06
  -4.688579e+06  -2.849025e+06
  -1.459887e+06  -4.057822e+06
   2.294482e+06  -2.010266e+06
   3.733903e+06   8.420351e+05
   1.897330e+06   2.285930e+06
  -1.413739e+06   1.556119e+06
  -2.959393e+06  -4.427844e+05
  -1.388585e+06  -1.675501e+06
   1.053537e+06  -9.134160e+05
   1.270439e+06   6.573559e+05
  -6.562801e+05   8.125439e+05
  -1.697290e+06  -7.359078e+05
  -5.603932e+04  -1.990622e+06
   2.571300e+06  -1.381062e+06
   3.377372e+06   5.463959e+05
   1.628888e+06   2.405997e+06
  -1.253978e+06   3.437348e+06
  -3.545067e+06   3.132192e+06
  -4.176994e+06   9.897116e+05
  -2.870535e+06  -2.216337e+06
  -5.077496e+05  -4.144444e+06
   1.138941e+06  -3.310617e+06
   1.096305e+06  -1.121757e+06
   3.351580e+05  -1.237729e+05
   4.323241e+05  -7.011519e+05
   1.448854e+06  -9.696810e+05
   2.012605e+06   2.152820e+05
   1.253749e+06   1.665827e+06
  -2.466862e+05   1.636852e+06
  -1.326631e+06   4.022908e+04
  -1.236880e+06  -1.682568e+06
   1.145793e+05  -2.146391e+06
   2.002617e+06  -1.009481e+06
   2.964355e+06   9.973481e+05
   2.000655e+06   2.546572e+06
  -8.660582e+04   2.676010e+06
  -1.418305e+06   1.691200e+06
  -1.361680e+06   7.908149e+05
  -1.212834e+06   5.809209e+05
  -2.095335e+06   4.176439e+05
  -3.116209e+06  -5.160515e+05
  -2.503525e+06  -1.994891e+06
  -6.645013e+04  -2.999726e+06
   2.410723e+06  -2.787090e+06
   3.113485e+06  -1.394653e+06
   1.878734e+06   4.630800e+05
   2.496313e+04   1.649701e+06
  -9.227391e+05   1.316993e+06
  -3.889366e+05  -7.495280e+04
   8.441565e+05  -9.110776e+05
   1.357752e+06  -2.585803e+05
   5.980175e+05   8.545374e+05
  -4.333671e+05   8.063235e+05
  -3.920961e+05  -2.844645e+05
   6.759495e+05  -6.458143e+05
   1.382619e+06   6.620766e+05
   7.216780e+05   2.388548e+06
  -8.720866e+05   2.657162e+06
  -2.234336e+06   1.130040e+06
  -2.593418e+06  -9.199365e+05
  -1.831773e+06  -2.123493e+06
  -3.438707e+05  -2.030718e+06
   9.718171e+05  -1.064070e+06
   1.184275e+06  -1.125400e+05
   3.626515e+05   4.079652e+04
  -2.573429e+05  -5.527425e+05
   2.815431e+05  -9.495979e+05
   1.341498e+06  -4.085291e+05
   1.461766e+06   6.111837e+05
   3.060659e+05   1.002713e+06
  -8.506689e+05   4.267617e+05
  -6.938527e+05  -3.437823e+05
   6.086725e+05  -4.525885e+05
   1.679811e+06   1.790912e+05
   1.384721e+06   1.038124e+06
  -1.608028e+05   1.537132e+06
  -1.742413e+06   1.249104e+06
  -2.061272e+06   1.840106e+05
  -8.795729e+05  -9.158516e+05
   6.633849e+05  -1.051150e+06
   1.092878e+06  -1.199846e+05
   1.120812e+05   7.608764e+05
  -1.109353e+06   5.143784e+05
  -1.263432e+06  -5.698076e+05
  -2.789023e+05  -1.221949e+06
   7.819288e+05  -7.629363e+05
   9.464424e+05   1.852060e+05
   2.212189e+05   5.637051e+05
  -5.556030e+05   4.435619e+04
  -5.140862e+05  -7.717620e+05
   4.539751e+05  -1.025609e+06
   1.484220e+06  -3.523184e+05
   1.471690e+06   8.066796e+05
   2.564200e+05   1.522991e+06
  -1.061774e+06   1.193812e+06
  -1.270030e+06   1.549514e+05
  -3.831866e+05  -6.378076e+05
   4.840754e+05  -5.988470e+05
   4.938220e+05  -4.300779e+04
  -7.651874e+04   3.150793e+05
  -4.119161e+05   1.900401e+05
  -1.659591e+05  -7.737288e+04
   3.006861e+05  -1.286661e+04
   4.060360e+05   4.511192e+05
  -1.271562e+05   8.690119e+05
  -1.017676e+06   6.542154e+05
  -1.528570e+06  -3.253451e+05
  -1.050824e+06  -1.447872e+06
   1.949868e+05  -1.793613e+06
   1.223537e+06  -1.057395e+06
   1.288758e+06   9.304385e+04
   6.731057e+05   7.187504e+05
   2.294205e+05   5.756892e+05
   2.950871e+05   2.148778e+05
   4.070042e+05   2.115180e+05
   5.338350e+04   5.293235e+05
  -6.450132e+05   6.653387e+05
  -1.089924e+06   2.450261e+05
  -8.021858e+05  -5.664839e+05
   1.880406e+05  -1.123896e+06
   1.297240e+06  -7.985992e+05
   1.672624e+06   3.823084e+05
   8.361087e+05   1.560614e+06
  -7.350449e+05   1.735570e+06
  -1.863859e+06   7.622196e+05
  -1.755250e+06  -4.762861e+05
  -7.512921e+05  -1.009313e+06
   1.396690e+05  -7.545732e+05
   3.405184e+05  -4.144725e+05
   1.360772e+05  -5.373474e+05
   1.208502e+05  -9.153346e+05
   4.951309e+05  -9.121328e+05
   9.355997e+05  -2.107653e+05
   9.616020e+05   8.185361e+05
   3.789230e+05   1.408094e+06
  -4.849225e+05   1.051597e+06
  -9.547278e+05  -1.097345e+04
  -5.973301e+05  -9.401230e+05
   2.738330e+05  -1.027288e+06
   8.318221e+05  -3.288858e+05
   5.940891e+05   4.649901e+05
  -5.870417e+04   7.652435e+05
  -3.552102e+05   5.854860e+05
  -5.019910e+04   3.308974e+05
   3.036969e+05   2.647729e+05
   3.118203e+04   2.882361e+05
  -8.344775e+05   1.484360e+05
  -1.494875e+06  -2.598968e+05
  -1.181886e+06  -7.698259e+05
   1.186938e+04  -1.038929e+06
   1.149322e+06  -8.151118e+05
   1.346253e+06  -2.059009e+05
   6.275544e+05   3.350746e+05
  -1.805868e+05   3.993275e+05
  -3.698510e+05   3.692579e+04
  -7.506878e+03  -2.847120e+05
   3.440653e+05  -1.755277e+05
   3.464104e+05   2.598037e+05
   1.448512e+05   5.422263e+05
   3.515100e+04   3.529803e+05
   1.103248e+05  -8.854743e+04
   2.385007e+05  -2.336645e+05
   2.056278e+05   1.741100e+05
  -1.364390e+05   7.348582e+05
  -6.773859e+05   7.685200e+05
  -9.695972e+05   9.526139e+04
  -5.809464e+05  -6.831669e+05
   3.182921e+05  -8.079283e+05
   9.095570e+05  -2.063074e+05
   5.284090e+05   4.428742e+05
  -5.219716e+05   4.771739e+05
  -1.189934e+06  -7.925860e+04
  -7.723474e+05  -6.523918e+05
   3.482971e+05  -7.545382e+05
   1.131392e+06  -3.724096e+05
   9.399286e+05   1.423378e+05
   1.057087e+05   3.920322e+05
  -4.834655e+05   2.044249e+05
  -2.726685e+05  -2.123073e+05
   4.507481e+05  -3.626409e+05
   8.684877e+05   9.591552e+04
   4.547946e+05   8.899223e+05
  -4.867924e+05   1.238493e+06
  -1.122657e+06   6.160793e+05
  -9.182997e+05  -5.892714e+05
  -1.202534e+05  -1.338577e+06
   5.717975e+05  -9.642703e+05
   6.926334e+05   1.297924e+05
   3.197925e+05   8.928369e+05
  -1.590768e+05   7.323200e+05
  -4.142430e+05   6.395714e+04
  -3.546857e+05  -2.936997e+05
  -1.345417e+05  -1.128115e+05
  -3.221324e+04   7.662172e+04
  -1.827933e+05  -2.075031e+05
  -3.574219e+05  -7.186667e+05
  -1.451743e+05  -8.117956e+05
   5.154855e+05  -2.914893e+05
   1.092925e+06   3.677860e+05
   9.574644e+05   6.440564e+05
   1.303734e+05   5.187753e+05
  -6.549442e+05   2.947634e+05
  -7.410365e+05   1.259685e+05
  -2.570235e+05  -3.313826e+04
   1.165155e+05  -1.630948e+05
   1.447168e+04  -1.644650e+05
  -2.106949e+05  -8.757274e+04
  -2.835898e+04  -9.896523e+04
   5.118551e+05  -1.550241e+05
   7.737761e+05   2.779986e+04
   2.877186e+05   5.115402e+05
  -6.547908e+05   8.494027e+05
  -1.258901e+06   5.288638e+05
  -1.019978e+06  -3.442779e+05
  -1.778789e+05  -1.049521e+06
   5.833776e+05  -1.006683e+06
   7.839187e+05  -3.744881e+05
   4.833683e+05   1.907376e+05
   8.771578e+04   2.658797e+05
  -6.398449e+04   3.600076e+04
   5.828242e+04  -2.269193e+04
   2.260494e+05   2.745188e+05
   1.783799e+05   6.048456e+05
  -1.441212e+05   4.979307e+05
  -5.042121e+05  -1.087960e+05
  -5.257759e+05  -7.227149e+05
  -5.856702e+04  -7.618475e+05
   5.665714e+05  -1.599881e+05
   7.520251e+05   5.583637e+05
   2.368782e+05   8.104786e+05
  -5.375633e+05   4.842689e+05
  -8.223895e+05  -7.158707e+04
  -3.820243e+05  -4.510575e+05
   2.177717e+05  -4.887137e+05
   2.754025e+05  -2.683500e+05
  -1.934407e+05  -1.730481e+04
  -4.851930e+05   1.818797e+04
  -1.018083e+05  -2.274883e+05
   6.221055e+05  -4.950156e+05
   9.352772e+05  -3.957388e+05
   5.557415e+05   1.299307e+05
  -8.214304e+04   6.398360e+05
  -4.104206e+05   6.272406e+05
  -3.055297e+05   1.104797e+05
  -2.718880e+04  -3.590690e+05
   1.832989e+05  -3.142115e+05
   2.574291e+05   1.227674e+05
   1.800358e+05   4.317202e+05
  -4.418588e+04   3.077166e+05
  -2.881274e+05  -4.160329e+04
  -3.486167e+05  -2.069792e+05
  -1.806066e+05  -6.905505e+04
   2.143703e+04   1.034890e+05
   6.538889e+04   1.888538e+04
   9.287509e+03  -2.642151e+05
   5.753151e+04  -3.927665e+05
   2.396682e+05  -1.410260e+05
   3.210320e+05   2.933871e+05
   9.322761e+04   4.790888e+05
  -3.097295e+05   2.231134e+05
  -4.825409e+05  -2.189896e+05
  -1.762717e+05  -4.306699e+05
   3.782552e+05  -2.650049e+05
   6.482750e+05   6.840746e+04
   3.487886e+05   2.853331e+05
  -2.205703e+05   2.877336e+05
  -4.723401e+05   1.554096e+05
  -1.796025e+05   1.174602e+04
   2.640618e+05  -3.736826e+04
   3.021165e+05   6.184471e+04
  -1.369637e+05   2.169300e+05
  -5.662851e+05   1.886109e+05
