
 $NMID
 id='ANONYMOUS ', fmtdat='(2E16.6)'
 volume=1.0
 tramp=1.0
 $END
   2.356573e+07  -6.106590e+05
   1.684264e+07   9.771211e+06
   1.386233e+06   1.492542e+07
  -9.876238e+06   1.146157e+07
  -9.424316e+06   2.256172e+06
  -1.210152e+06  -4.527996e+06
   5.194744e+06  -3.031771e+06
   4.524406e+06   3.827329e+06
  -7.050797e+05   7.513480e+06
  -4.675969e+06   3.663001e+06
  -4.185811e+06  -3.199004e+06
  -5.514955e+05  -5.420165e+06
   2.465824e+06  -1.012951e+06
   2.032795e+06   4.732623e+06
  -1.378748e+06   5.596120e+06
  -4.282768e+06   8.325041e+05
  -3.412907e+06  -4.808857e+06
   8.285817e+05  -6.309161e+06
   4.589776e+06  -3.026433e+06
   4.640551e+06   1.425142e+06
   1.769338e+06   3.274133e+06
  -3.983121e+05   2.249270e+06
   3.713578e+05   1.147462e+06
   2.522196e+06   2.152454e+06
   2.576620e+06   4.277535e+06
  -9.483443e+05   4.745452e+06
  -5.614078e+06   2.334682e+06
  -7.128812e+06  -1.298760e+06
  -3.678092e+06  -3.416427e+06
   1.766460e+06  -2.687285e+06
   4.082107e+06  -2.127473e+04
   1.332611e+06   2.308230e+06
  -3.125888e+06   2.261365e+06
  -4.499016e+06  -3.774459e+05
  -1.884041e+06  -3.441582e+06
   1.312378e+06  -4.020572e+06
   1.897159e+06  -1.457939e+06
   2.963124e+05   1.546208e+06
  -9.123870e+05   1.678100e+06
  -3.982750e+05  -1.119800e+06
   1.042991e+06  -3.403250e+06
   2.066170e+06  -2.254170e+06
   1.926101e+06   1.190664e+06
   5.051837e+05   3.049647e+06
  -1.440393e+06   1.243043e+06
  -2.104118e+06  -2.184429e+06
  -1.033128e+05  -3.492791e+06
   3.351602e+06  -1.303281e+06
   4.874196e+06   2.251556e+06
   2.433654e+06   4.009890e+06
  -2.044386e+06   2.788189e+06
  -4.487231e+06   2.472120e+04
  -2.944229e+06  -1.913854e+06
   6.008323e+05  -1.782808e+06
   2.620294e+06  -2.211336e+05
   1.635622e+06   1.061764e+06
  -7.011128e+05   8.618226e+05
  -1.661835e+06  -4.740899e+05
  -3.022895e+05  -1.452716e+06
   1.640465e+06  -9.563584e+05
   1.686248e+06   5.890619e+05
  -5.191540e+05   1.584946e+06
  -2.563204e+06   8.083841e+05
  -1.853215e+06  -1.363968e+06
   1.378865e+06  -3.170344e+06
   4.242881e+06  -2.912596e+06
   4.364390e+06  -4.342751e+05
   2.233127e+06   2.637647e+06
   1.324413e+05   4.240557e+06
  -5.963338e+05   3.707831e+06
  -5.713421e+05   2.235127e+06
  -9.991465e+05   1.356859e+06
  -2.090945e+06   1.137248e+06
  -2.981376e+06   3.437191e+05
  -2.709583e+06  -1.537522e+06
  -1.070606e+06  -3.116262e+06
   1.133618e+06  -2.526578e+06
   2.463114e+06   1.753105e+05
   1.829883e+06   2.711873e+06
  -4.369416e+05   2.877980e+06
  -2.595781e+06   7.349228e+05
  -2.953191e+06  -1.710830e+06
  -1.457197e+06  -2.676346e+06
   3.435106e+05  -2.096770e+06
   1.025434e+06  -1.163863e+06
   7.970813e+05  -8.590583e+05
   1.058785e+06  -1.072097e+06
   2.485431e+06  -9.048736e+05
   3.868200e+06   3.383109e+05
   3.234126e+06   2.348049e+06
   1.856256e+05   3.857577e+06
  -3.209872e+06   3.606212e+06
  -4.249752e+06   1.504582e+06
  -2.322723e+06  -1.067805e+06
   4.831573e+05  -2.288921e+06
   1.585603e+06  -1.472364e+06
   4.486789e+05   2.742263e+05
  -1.242784e+06   1.097559e+06
  -1.636488e+06   2.748310e+05
  -5.375002e+05  -1.020340e+06
   7.274701e+05  -1.060915e+06
   8.164286e+05   3.191978e+05
  -4.040099e+05   1.328904e+06
  -1.806327e+06   2.512100e+05
  -1.926260e+06  -2.347833e+06
  -1.858448e+05  -3.947864e+06
   2.433452e+06  -2.737439e+06
   3.982653e+06   4.161815e+05
   3.187620e+06   2.905382e+06
   7.037039e+05   3.039445e+06
  -1.411412e+06   1.454401e+06
  -1.654299e+06   4.463655e+04
  -4.774791e+05  -5.228823e+04
   3.566304e+05   7.117776e+05
  -2.385716e+05   1.122797e+06
  -1.514730e+06   5.372246e+05
  -1.810625e+06  -5.646637e+05
  -5.279664e+05  -1.141412e+06
   1.051851e+06  -6.428336e+05
   1.101624e+06   4.190271e+05
  -6.610260e+05   9.146597e+05
  -2.474786e+06   1.700916e+05
  -2.310575e+06  -1.337760e+06
  -5.101409e+04  -2.345318e+06
   2.325653e+06  -1.923445e+06
   2.763268e+06  -3.498767e+05
   1.144337e+06   1.079950e+06
  -7.724566e+05   1.208658e+06
  -1.219798e+06   1.272558e+05
  -4.258154e+04  -8.815712e+05
   1.404605e+06  -6.479860e+05
   1.687527e+06   6.263352e+05
   5.783611e+05   1.579156e+06
  -8.565900e+05   1.213710e+06
  -1.309429e+06   1.066036e+04
  -4.786096e+05  -6.616106e+05
   6.156216e+05  -1.086611e+05
   6.380465e+05   9.719488e+05
  -6.324265e+05   1.316941e+06
  -1.961748e+06   4.109167e+05
  -1.903516e+06  -1.075667e+06
  -3.545483e+05  -1.962061e+06
   1.300930e+06  -1.579284e+06
   1.633221e+06  -2.998811e+05
   5.936333e+05   7.908305e+05
  -5.846739e+05   8.487122e+05
  -7.634472e+05   4.987581e+04
   2.282178e+03  -6.230497e+05
   7.067038e+05  -4.677893e+05
   5.515168e+05   1.590992e+05
  -2.287395e+05   3.127659e+05
  -6.471828e+05  -3.536961e+05
  -1.764083e+04  -1.108440e+06
   1.265648e+06  -9.284919e+05
   2.017730e+06   3.688876e+05
   1.396373e+06   1.876970e+06
  -2.353937e+05   2.416119e+06
  -1.631441e+06   1.568415e+06
  -1.862209e+06   1.316361e+04
  -1.130914e+06  -1.085426e+06
  -3.797783e+05  -1.107391e+06
  -2.084653e+05  -4.917793e+05
  -3.248920e+05  -1.872676e+05
  -5.220305e+04  -5.531917e+05
   7.680755e+05  -9.337457e+05
   1.482769e+06  -4.661662e+05
   1.237321e+06   7.758573e+05
  -1.222176e+05   1.679650e+06
  -1.726989e+06   1.217675e+06
  -2.301699e+06  -4.400802e+05
  -1.245981e+06  -2.020449e+06
   7.751148e+05  -2.303751e+06
   2.331829e+06  -1.166474e+06
   2.424457e+06   4.191209e+05
   1.270701e+06   1.322239e+06
  -3.698129e+04   1.225565e+06
  -6.037366e+05   7.555609e+05
  -4.558827e+05   6.841783e+05
  -2.848104e+05   1.037036e+06
  -5.934629e+05   1.084096e+06
  -1.146898e+06   2.494320e+05
  -1.242362e+06  -1.092137e+06
  -4.952739e+05  -1.875676e+06
   6.581988e+05  -1.401347e+06
   1.287621e+06  -3.343774e+04
   8.576399e+05   1.156879e+06
  -2.122284e+05   1.355638e+06
  -9.438989e+05   6.141280e+05
  -7.807090e+05  -3.576393e+05
  -1.090578e+05  -8.795542e+05
   2.449934e+05  -8.170887e+05
  -2.464786e+04  -5.305206e+05
  -3.636429e+05  -3.946432e+05
  -1.787190e+04  -4.009707e+05
   1.028428e+06  -2.387007e+05
   1.879979e+06   2.767064e+05
   1.578067e+06   9.304467e+05
   1.347847e+05   1.279551e+06
  -1.354419e+06   1.053534e+06
  -1.728559e+06   3.900287e+05
  -8.916814e+05  -2.571147e+05
   1.603416e+05  -4.487043e+05
   4.430244e+05  -1.292427e+05
  -3.991443e+04   2.663261e+05
  -5.121860e+05   2.007169e+05
  -4.388715e+05  -3.451799e+05
  -5.977480e+04  -7.535187e+05
   7.827220e+04  -4.742788e+05
  -1.628130e+05   2.117106e+05
  -4.217556e+05   4.269611e+05
  -3.026598e+05  -2.133200e+05
   2.415392e+05  -1.022216e+06
   8.859528e+05  -1.002346e+06
   1.126814e+06  -4.885366e+04
   6.177683e+05   9.048683e+05
  -4.146406e+05   9.487621e+05
  -1.111976e+06   1.507156e+05
  -6.820079e+05  -6.292307e+05
   6.559291e+05  -6.672492e+05
   1.647475e+06   1.998500e+04
   1.218102e+06   8.303842e+05
  -3.257228e+05   1.126258e+06
  -1.547861e+06   6.998391e+05
  -1.383257e+06  -8.289655e+04
  -2.150092e+05  -5.572704e+05
   6.297056e+05  -3.436113e+05
   3.227059e+05   2.374559e+05
  -6.628483e+05   4.173396e+05
  -1.143372e+06  -2.288970e+05
  -4.808513e+05  -1.237666e+06
   7.978714e+05  -1.596371e+06
   1.570504e+06  -7.247044e+05
   1.219268e+06   8.448607e+05
   1.371108e+05   1.828808e+06
  -7.752782e+05   1.369020e+06
  -9.609588e+05  -8.928573e+04
  -5.224431e+05  -1.193581e+06
   1.007217e+05  -1.057321e+06
   5.255413e+05  -1.376266e+05
   5.624868e+05   4.188021e+05
   2.743061e+05   1.861472e+05
   8.630733e+03  -1.336936e+05
   1.137920e+05   2.101858e+05
   4.309491e+05   9.394617e+05
   3.076426e+05   1.120413e+06
  -5.657658e+05   4.183148e+05
  -1.491985e+06  -5.025086e+05
  -1.397778e+06  -8.742482e+05
  -1.890348e+05  -6.770087e+05
   9.774645e+05  -3.801246e+05
   1.036200e+06  -2.020649e+05
   2.687054e+05  -1.406875e+04
  -1.947715e+05   2.072027e+05
   8.880501e+04   2.811694e+05
   3.997013e+05   1.884813e+05
  -9.295695e+03   1.393029e+05
  -8.161590e+05   1.512767e+05
  -1.022577e+06  -8.561060e+04
  -2.033857e+05  -6.654465e+05
   1.005153e+06  -1.051912e+06
   1.615515e+06  -6.005880e+05
   1.211489e+06   5.444739e+05
   1.692829e+05   1.430443e+06
  -7.697900e+05   1.299889e+06
  -1.053868e+06   4.052894e+05
  -6.592893e+05  -3.329629e+05
  -6.106852e+04  -3.548525e+05
   1.863111e+05   2.641561e+04
  -4.334056e+04   1.106579e+05
  -3.538285e+05  -3.392015e+05
  -2.736648e+05  -8.162876e+05
   2.282360e+05  -6.383344e+05
   6.937707e+05   2.384032e+05
   6.138679e+05   1.057564e+06
  -6.941187e+04   1.005324e+06
  -8.290623e+05   8.580995e+04
  -9.510911e+05  -8.708378e+05
  -2.200349e+05  -1.083613e+06
   7.492801e+05  -5.489167e+05
   1.042519e+06   1.499858e+05
   4.374647e+05   5.357648e+05
  -2.940955e+05   5.464296e+05
  -2.834464e+05   3.308969e+05
   3.584313e+05   7.167790e+04
   6.766180e+05   6.899130e+03
   9.522870e+04   2.864645e+05
  -8.477243e+05   6.597333e+05
  -1.179274e+06   5.837660e+05
  -6.415595e+05  -1.059560e+05
   1.364314e+05  -8.134186e+05
   4.770593e+05  -7.892467e+05
   3.079290e+05  -6.853780e+04
  -3.014033e+04   5.218468e+05
  -2.724770e+05   3.589313e+05
  -3.434728e+05  -2.636224e+05
  -2.127533e+05  -5.867711e+05
   9.091657e+04  -3.259534e+05
   3.790523e+05   1.053022e+05
   4.300328e+05   2.232163e+05
   2.404832e+05   4.073404e+04
   1.861330e+04  -6.570163e+04
  -9.042945e+04   1.218679e+05
  -1.510526e+05   4.084212e+05
  -2.684280e+05   4.165292e+05
  -3.782200e+05   1.029134e+04
  -2.932452e+05  -5.096626e+05
   5.634273e+04  -6.536669e+05
   4.679626e+05  -2.402626e+05
   5.740759e+05   3.698844e+05
   1.716877e+05   6.185865e+05
  -4.873742e+05   3.283508e+05
  -8.086437e+05  -1.550269e+05
  -4.286147e+05  -3.960180e+05
   3.035666e+05  -3.071892e+05
   6.099478e+05  -1.056173e+05
   1.671359e+05   3.552400e+03
  -4.547235e+05  -3.838475e+04
  -4.387462e+05  -1.997857e+05
   2.773711e+05  -3.447116e+05
   9.024452e+05  -2.226165e+05
