
 $NMID
 id='ANONYMOUS ', fmtdat='(2E16.6)'
 volume=1.0
 tramp=1.0
 $END
   2.422533e+07  -4.496028e+05
   1.682393e+07   1.113617e+07
   4.879115e+05   1.565303e+07
  -1.061282e+07   1.069916e+07
  -9.283009e+06   1.189313e+06
  -7.333232e+05  -4.570515e+06
   5.144989e+06  -2.367039e+06
   3.950498e+06   4.024913e+06
  -1.164793e+06   6.984434e+06
  -4.712186e+06   3.168268e+06
  -4.043739e+06  -3.164783e+06
  -5.212097e+05  -5.192432e+06
   2.344071e+06  -1.083522e+06
   1.846146e+06   4.331696e+06
  -1.508923e+06   5.138534e+06
  -4.222231e+06   5.372938e+05
  -3.167469e+06  -4.876494e+06
   1.059128e+06  -6.236579e+06
   4.688808e+06  -3.000081e+06
   4.764683e+06   1.357103e+06
   2.040605e+06   3.334489e+06
  -2.341726e+05   2.602705e+06
   7.410452e+04   1.520724e+06
   1.869831e+06   2.085503e+06
   2.118884e+06   3.742471e+06
  -8.254562e+05   4.217590e+06
  -5.067931e+06   2.212414e+06
  -6.630731e+06  -1.077098e+06
  -3.593612e+06  -3.146929e+06
   1.403930e+06  -2.585250e+06
   3.607956e+06  -1.971014e+05
   1.247573e+06   1.874149e+06
  -2.639651e+06   1.862770e+06
  -3.865850e+06  -3.392554e+05
  -1.692014e+06  -2.967182e+06
   1.044126e+06  -3.620307e+06
   1.709855e+06  -1.530297e+06
   5.135361e+05   1.237359e+06
  -5.861194e+05   1.653828e+06
  -3.525525e+05  -7.466498e+05
   8.732669e+05  -2.970968e+06
   1.940021e+06  -2.022971e+06
   1.798932e+06   1.267710e+06
   1.893249e+05   3.052722e+06
  -1.801831e+06   1.127048e+06
  -2.169255e+06  -2.391552e+06
   9.896296e+04  -3.610475e+06
   3.399423e+06  -1.257503e+06
   4.573838e+06   2.281763e+06
   2.112931e+06   3.844566e+06
  -2.004640e+06   2.505238e+06
  -4.140041e+06  -1.584198e+05
  -2.626072e+06  -1.906984e+06
   6.960357e+05  -1.661968e+06
   2.543644e+06  -9.796649e+04
   1.524950e+06   1.109914e+06
  -7.132183e+05   8.235701e+05
  -1.512534e+06  -4.874559e+05
  -1.234515e+05  -1.280363e+06
   1.586277e+06  -6.239132e+05
   1.345957e+06   8.086211e+05
  -8.447100e+05   1.482694e+06
  -2.594021e+06   5.311757e+05
  -1.724523e+06  -1.489066e+06
   1.320601e+06  -3.051592e+06
   3.948855e+06  -2.766790e+06
   4.120362e+06  -4.661348e+05
   2.205429e+06   2.450322e+06
   1.592838e+05   4.012973e+06
  -6.846944e+05   3.466014e+06
  -6.637457e+05   1.953539e+06
  -8.772187e+05   1.077298e+06
  -1.736046e+06   9.664859e+05
  -2.571251e+06   3.761694e+05
  -2.420732e+06  -1.274230e+06
  -1.002356e+06  -2.716350e+06
   9.510414e+05  -2.224256e+06
   2.134875e+06   1.594983e+05
   1.602809e+06   2.414649e+06
  -3.864542e+05   2.598420e+06
  -2.363218e+06   7.182683e+05
  -2.785983e+06  -1.526996e+06
  -1.456859e+06  -2.528784e+06
   2.927316e+05  -2.088931e+06
   1.049265e+06  -1.194926e+06
   8.677447e+05  -8.064249e+05
   1.050794e+06  -9.273512e+05
   2.309706e+06  -7.469783e+05
   3.547801e+06   3.996437e+05
   2.925461e+06   2.210916e+06
   1.112938e+05   3.521488e+06
  -2.958217e+06   3.247824e+06
  -3.860223e+06   1.362195e+06
  -2.113747e+06  -9.318477e+05
   3.981853e+05  -2.052778e+06
   1.401456e+06  -1.355053e+06
   4.073913e+05   2.227440e+05
  -1.118586e+06   9.915841e+05
  -1.500654e+06   2.459633e+05
  -5.114338e+05  -9.369985e+05
   6.408745e+05  -9.537007e+05
   6.919144e+05   3.016372e+05
  -4.438651e+05   1.137331e+06
  -1.645872e+06   6.061823e+04
  -1.603156e+06  -2.265099e+06
   4.625379e+04  -3.543050e+06
   2.317608e+06  -2.305526e+06
   3.555537e+06   5.291927e+05
   2.770953e+06   2.670019e+06
   5.711884e+05   2.727966e+06
  -1.285468e+06   1.301429e+06
  -1.493506e+06   3.832764e+04
  -4.355157e+05  -5.127174e+04
   3.118969e+05   6.502044e+05
  -2.442935e+05   1.029673e+06
  -1.409056e+06   4.718722e+05
  -1.650099e+06  -5.567560e+05
  -4.541661e+05  -1.056528e+06
   9.630037e+05  -5.565272e+05
   9.624050e+05   3.957287e+05
  -6.357942e+05   7.747812e+05
  -2.218538e+06   6.462345e+04
  -2.018664e+06  -1.251632e+06
   1.843611e+04  -2.091014e+06
   2.133454e+06  -1.684771e+06
   2.509890e+06  -2.752049e+05
   1.033084e+06   1.006380e+06
  -7.226226e+05   1.112137e+06
  -1.134523e+06   1.115234e+05
  -4.414490e+04  -8.108583e+05
   1.286541e+06  -5.754016e+05
   1.521690e+06   6.011438e+05
   4.834045e+05   1.442238e+06
  -8.092326e+05   1.066353e+06
  -1.177750e+06  -3.358823e+04
  -4.032007e+05  -6.093282e+05
   5.701238e+05  -7.795658e+04
   5.648814e+05   8.980760e+05
  -5.921794e+05   1.189180e+06
  -1.788115e+06   3.515032e+05
  -1.720643e+06  -1.000314e+06
  -2.975963e+05  -1.792583e+06
   1.211048e+06  -1.421132e+06
   1.492337e+06  -2.470549e+05
   5.220665e+05   7.254854e+05
  -5.421955e+05   7.540266e+05
  -6.735852e+05   3.994922e+04
   2.638776e+04  -5.325430e+05
   6.263092e+05  -3.812708e+05
   4.508263e+05   1.471927e+05
  -2.399503e+05   2.402752e+05
  -5.713937e+05  -3.670266e+05
   2.520826e+04  -1.016980e+06
   1.176397e+06  -8.197679e+05
   1.831267e+06   3.704290e+05
   1.245585e+06   1.729879e+06
  -2.444858e+05   2.189222e+06
  -1.498303e+06   1.386498e+06
  -1.673972e+06  -2.535013e+04
  -9.887380e+05  -9.815030e+05
  -3.270863e+05  -9.669341e+05
  -2.101657e+05  -4.249207e+05
  -3.217436e+05  -1.906306e+05
  -4.143074e+04  -5.284040e+05
   7.261198e+05  -8.358564e+05
   1.355243e+06  -3.847395e+05
   1.095432e+06   7.232591e+05
  -1.513276e+05   1.504446e+06
  -1.588664e+06   1.063958e+06
  -2.077232e+06  -4.394081e+05
  -1.088027e+06  -1.857825e+06
   7.597754e+05  -2.081636e+06
   2.150475e+06  -1.010428e+06
   2.184247e+06   4.360318e+05
   1.103404e+06   1.216045e+06
  -6.619771e+04   1.082515e+06
  -5.367086e+05   6.534576e+05
  -3.859800e+05   6.222764e+05
  -2.546709e+05   9.640912e+05
  -5.605605e+05   9.953042e+05
  -1.057925e+06   2.168390e+05
  -1.120676e+06  -1.006536e+06
  -4.289620e+05  -1.709095e+06
   6.120169e+05  -1.264456e+06
   1.165997e+06  -8.698198e+03
   7.552893e+05   1.072976e+06
  -2.292965e+05   1.229020e+06
  -8.847423e+05   5.211220e+05
  -7.036406e+05  -3.701544e+05
  -6.152418e+04  -8.174175e+05
   2.629715e+05  -7.311177e+05
  -5.705106e+03  -4.687694e+05
  -3.333906e+05  -3.593059e+05
  -1.481150e+04  -3.647429e+05
   9.505134e+05  -1.980852e+05
   1.721383e+06   2.866984e+05
   1.420896e+06   8.781423e+05
   8.400689e+04   1.175358e+06
  -1.267902e+06   9.422684e+05
  -1.581614e+06   3.180204e+05
  -7.963372e+05  -2.684134e+05
   1.634808e+05  -4.166004e+05
   4.106520e+05  -1.005275e+05
  -3.349395e+04   2.601693e+05
  -4.618611e+05   1.845060e+05
  -3.999730e+05  -3.191908e+05
  -6.568527e+04  -6.849178e+05
   5.873869e+04  -4.318862e+05
  -1.482399e+05   1.784934e+05
  -3.740046e+05   3.672989e+05
  -2.681257e+05  -2.035744e+05
   2.256361e+05  -9.239506e+05
   8.231346e+05  -9.021115e+05
   1.050238e+06  -3.616805e+04
   5.718148e+05   8.348180e+05
  -3.926886e+05   8.752664e+05
  -1.029769e+06   1.394440e+05
  -6.173507e+05  -5.753081e+05
   6.092261e+05  -5.950495e+05
   1.489004e+06   4.746091e+04
   1.072147e+06   7.722489e+05
  -3.267339e+05   1.002650e+06
  -1.407456e+06   5.911389e+05
  -1.237050e+06  -1.045852e+05
  -1.792431e+05  -5.030497e+05
   5.765479e+05  -2.943987e+05
   2.942165e+05   2.263829e+05
  -6.003477e+05   3.807722e+05
  -1.039864e+06  -2.083446e+05
  -4.406921e+05  -1.125826e+06
   7.238897e+05  -1.452640e+06
   1.427804e+06  -6.564141e+05
   1.101498e+06   7.736660e+05
   1.083460e+05   1.659256e+06
  -7.175010e+05   1.224921e+06
  -8.660912e+05  -1.036458e+05
  -4.472017e+05  -1.089302e+06
   1.187419e+05  -9.459020e+05
   4.821954e+05  -1.099599e+05
   4.937667e+05   3.821739e+05
   2.338587e+05   1.653114e+05
   1.305862e+04  -1.164258e+05
   1.174676e+05   2.043306e+05
   3.867701e+05   8.621482e+05
   2.518200e+05   1.013854e+06
  -5.352934e+05   3.670658e+05
  -1.346165e+06  -4.713343e+05
  -1.244386e+06  -8.064449e+05
  -1.615312e+05  -6.201258e+05
   8.791596e+05  -3.387058e+05
   9.372915e+05  -1.678635e+05
   2.539629e+05   1.872098e+02
  -1.735317e+05   1.885655e+05
   6.405080e+04   2.463414e+05
   3.455562e+05   1.643031e+05
  -4.355304e+03   1.267189e+05
  -7.266538e+05   1.380725e+05
  -9.306863e+05  -8.360506e+04
  -2.019302e+05  -6.134722e+05
   9.089808e+05  -9.587412e+05
   1.486818e+06  -5.408508e+05
   1.118264e+06   5.002504e+05
   1.475388e+05   1.300053e+06
  -7.178081e+05   1.178836e+06
  -9.642910e+05   3.689086e+05
  -5.946957e+05  -2.998721e+05
  -5.839111e+04  -3.245135e+05
   1.566717e+05   1.398460e+04
  -4.401779e+04   8.802505e+04
  -3.094593e+05  -3.154543e+05
  -2.337822e+05  -7.428107e+05
   2.103764e+05  -5.811513e+05
   6.261133e+05   2.115748e+05
   5.595495e+05   9.567554e+05
  -5.397345e+04   9.173618e+05
  -7.467762e+05   8.809172e+04
  -8.647413e+05  -7.858507e+05
  -2.012113e+05  -9.895883e+05
   6.853742e+05  -5.048634e+05
   9.550843e+05   1.423316e+05
   3.997647e+05   5.034100e+05
  -2.761587e+05   5.079848e+05
  -2.739769e+05   2.987385e+05
   3.125001e+05   5.989744e+04
   6.120477e+05   9.301554e+03
   8.870299e+04   2.651074e+05
  -7.757957e+05   5.905157e+05
  -1.087238e+06   5.077913e+05
  -5.947786e+05  -1.152496e+05
   1.302790e+05  -7.441654e+05
   4.538193e+05  -7.173675e+05
   2.967896e+05  -6.773917e+04
  -2.303100e+04   4.697187e+05
  -2.494740e+05   3.324695e+05
  -3.116302e+05  -2.296157e+05
  -1.907658e+05  -5.351399e+05
   8.378170e+04  -3.079903e+05
   3.451594e+05   9.312034e+04
   3.921673e+05   2.159888e+05
   2.172745e+05   4.701493e+04
   1.274410e+04  -7.068138e+04
  -7.996557e+04   8.909910e+04
  -1.212469e+05   3.646288e+05
  -2.240221e+05   3.949543e+05
  -3.395606e+05   3.153756e+04
  -2.824896e+05  -4.529291e+05
   3.289030e+04  -5.956625e+05
   4.219222e+05  -2.223867e+05
   5.293237e+05   3.336824e+05
   1.587141e+05   5.597816e+05
  -4.501177e+05   2.960220e+05
  -7.427440e+05  -1.426791e+05
  -3.905658e+05  -3.636082e+05
   2.797362e+05  -2.867313e+05
   5.606178e+05  -1.030969e+05
   1.627096e+05   3.681098e+03
  -4.000034e+05  -2.549659e+04
  -3.938997e+05  -1.690515e+05
   2.413871e+05  -3.042088e+05
   8.026958e+05  -1.993234e+05
