
 $NMID
 id='ANONYMOUS ', fmtdat='(2E16.6)'
 volume=1.0
 tramp=1.0
 $END
  -3.891178e+07  -3.299001e+06
  -2.186268e+07  -2.380176e+07
   5.676657e+06  -2.491448e+07
   1.865684e+07  -1.058631e+07
   1.148492e+07   3.278501e+06
  -1.664666e+06   6.245708e+06
  -6.826715e+06   2.614625e+05
  -2.800867e+06  -6.445144e+06
   3.618453e+06  -7.499736e+06
   6.777351e+06  -2.121152e+06
   5.085668e+06   4.884009e+06
   3.067810e+05   6.820591e+06
  -3.337696e+06   1.669997e+06
  -2.198974e+06  -4.955785e+06
   2.596743e+06  -5.573518e+06
   5.646053e+06   6.795812e+05
   3.185843e+06   7.400382e+06
  -2.867067e+06   8.436364e+06
  -7.456746e+06   3.717281e+06
  -7.453447e+06  -2.358631e+06
  -3.658256e+06  -5.783461e+06
   5.509529e+05  -5.488170e+06
   1.853559e+06  -3.183736e+06
  -1.511181e+05  -1.807236e+06
  -1.987130e+06  -2.826533e+06
   2.015645e+05  -4.387650e+06
   5.476314e+06  -3.332679e+06
   8.307062e+06   5.811583e+05
   5.156076e+06   3.997868e+06
  -9.345472e+05   4.023218e+06
  -4.027445e+06   1.378666e+06
  -2.137370e+06  -1.163402e+06
   1.558241e+06  -1.806228e+06
   3.284115e+06  -3.527111e+05
   2.191730e+06   2.305834e+06
  -2.294752e+05   4.027563e+06
  -2.035225e+06   2.606655e+06
  -1.927880e+06  -1.096737e+06
  -2.308662e+05  -2.897500e+06
   9.218639e+05  -4.208508e+05
  -1.723198e+05   2.941129e+06
  -2.162637e+06   2.144454e+06
  -1.882214e+06  -2.200422e+06
   1.320467e+06  -4.138307e+06
   4.113283e+06  -4.643695e+05
   3.011745e+06   4.798191e+06
  -1.451779e+06   5.643025e+06
  -5.366647e+06   1.370583e+06
  -5.471770e+06  -3.459153e+06
  -1.826131e+06  -4.769908e+06
   2.657512e+06  -2.479042e+06
   4.509105e+06   8.231491e+05
   2.379497e+06   2.558862e+06
  -1.541479e+06   1.719784e+06
  -3.345171e+06  -5.711992e+05
  -1.537567e+06  -1.891418e+06
   1.243887e+06  -9.760898e+05
   1.571935e+06   7.391969e+05
  -4.660324e+05   9.460979e+05
  -1.687850e+06  -5.350236e+05
  -1.425324e+05  -1.738885e+06
   2.586214e+06  -1.221722e+06
   3.576657e+06   6.099444e+05
   1.716002e+06   2.657563e+06
  -1.749854e+06   4.033588e+06
  -4.639090e+06   3.680498e+06
  -5.232525e+06   8.873501e+05
  -3.265854e+06  -3.036470e+06
  -3.321988e+05  -5.117047e+06
   1.315567e+06  -3.938063e+06
   1.024982e+06  -1.487576e+06
   3.445407e+05  -5.775306e+05
   9.030848e+05  -1.256813e+06
   2.318077e+06  -1.234687e+06
   2.859296e+06   5.698619e+05
   1.662447e+06   2.495018e+06
  -4.486951e+05   2.374018e+06
  -1.954851e+06   1.408463e+05
  -1.768383e+06  -2.258766e+06
   1.911555e+05  -2.844943e+06
   2.677887e+06  -1.161866e+06
   3.660580e+06   1.535721e+06
   2.170404e+06   3.300601e+06
  -4.078868e+05   3.113592e+06
  -1.779922e+06   1.755273e+06
  -1.509703e+06   8.003877e+05
  -1.352617e+06   7.474557e+05
  -2.558143e+06   6.145681e+05
  -3.901728e+06  -5.719762e+05
  -3.189161e+06  -2.475833e+06
  -1.369863e+05  -3.829654e+06
   3.093155e+06  -3.622835e+06
   4.103169e+06  -1.781501e+06
   2.479754e+06   7.277877e+05
  -6.278188e+04   2.261369e+06
  -1.328330e+06   1.710299e+06
  -5.233950e+05  -1.570993e+05
   1.136640e+06  -1.189233e+06
   1.729460e+06  -3.030074e+05
   6.966993e+05   1.121052e+06
  -6.007692e+05   1.078628e+06
  -5.878228e+05  -2.959028e+05
   6.469233e+05  -8.873932e+05
   1.587150e+06   5.344646e+05
   1.078074e+06   2.678295e+06
  -6.515850e+05   3.313858e+06
  -2.499534e+06   1.728209e+06
  -3.359240e+06  -8.341667e+05
  -2.617474e+06  -2.600962e+06
  -6.066323e+05  -2.667185e+06
   1.264194e+06  -1.423635e+06
   1.571385e+06  -1.481105e+05
   4.671220e+05   4.906817e+04
  -3.435406e+05  -7.050054e+05
   3.397957e+05  -1.175860e+06
   1.664558e+06  -4.999665e+05
   1.825786e+06   7.317065e+05
   4.082404e+05   1.228402e+06
  -1.066743e+06   5.773068e+05
  -9.535283e+05  -3.920938e+05
   6.783004e+05  -6.590335e+05
   2.167322e+06   4.373096e+04
   1.930795e+06   1.220625e+06
  -5.415503e+04   2.025774e+06
  -2.189658e+06   1.718532e+06
  -2.653115e+06   3.015758e+05
  -1.119462e+06  -1.143398e+06
   8.521886e+05  -1.301825e+06
   1.360085e+06  -1.174109e+05
   1.039872e+05   9.732418e+05
  -1.419721e+06   6.629016e+05
  -1.625334e+06  -6.835165e+05
  -4.262614e+05  -1.531119e+06
   9.193233e+05  -1.021472e+06
   1.199620e+06   1.494844e+05
   3.299878e+05   6.756449e+05
  -6.805416e+05   6.374469e+04
  -6.631343e+05  -9.827647e+05
   5.818072e+05  -1.331508e+06
   1.922148e+06  -4.675060e+05
   1.906118e+06   1.029343e+06
   3.487893e+05   1.949108e+06
  -1.329227e+06   1.539681e+06
  -1.611210e+06   2.318095e+05
  -5.168271e+05  -7.945953e+05
   5.962546e+05  -7.895760e+05
   6.742429e+05  -7.961468e+04
  -2.591457e+04   4.513399e+05
  -5.335875e+05   3.458630e+05
  -3.197793e+05  -4.907700e+04
   2.834989e+05  -7.203370e+04
   5.152083e+05   4.862634e+05
  -1.055972e+05   1.076632e+06
  -1.268406e+06   8.637680e+05
  -1.967074e+06  -3.789615e+05
  -1.375140e+06  -1.842001e+06
   2.117599e+05  -2.327651e+06
   1.539338e+06  -1.431692e+06
   1.683692e+06   3.735816e+04
   9.664735e+05   9.125297e+05
   3.848168e+05   8.198482e+05
   3.708136e+05   3.607226e+05
   4.536083e+05   2.775208e+05
   4.626564e+04   6.420776e+05
  -7.863438e+05   8.655876e+05
  -1.384017e+06   3.808156e+05
  -1.094899e+06  -6.897715e+05
   1.538785e+05  -1.480731e+06
   1.633200e+06  -1.098047e+06
   2.177885e+06   4.320345e+05
   1.135970e+06   1.966094e+06
  -8.669390e+05   2.222079e+06
  -2.332547e+06   1.033147e+06
  -2.266157e+06  -5.140687e+05
  -1.058944e+06  -1.241243e+06
   8.852694e+04  -1.013164e+06
   4.384017e+05  -6.242329e+05
   2.478064e+05  -7.378139e+05
   2.081202e+05  -1.158904e+06
   6.316655e+05  -1.141280e+06
   1.186313e+06  -2.621695e+05
   1.248516e+06   1.051056e+06
   5.116854e+05   1.818787e+06
  -6.139809e+05   1.372540e+06
  -1.233318e+06   1.805584e+04
  -7.901670e+05  -1.170153e+06
   2.976527e+05  -1.304503e+06
   9.956815e+05  -4.597569e+05
   7.283510e+05   5.212592e+05
  -3.560825e+04   9.203160e+05
  -3.803367e+05   7.350666e+05
  -1.936711e+04   4.383945e+05
   3.920696e+05   3.550944e+05
   4.149428e+04   3.795373e+05
  -1.045595e+06   2.029005e+05
  -1.894542e+06  -3.097522e+05
  -1.527438e+06  -9.487400e+05
  -2.700335e+04  -1.290930e+06
   1.430348e+06  -1.035836e+06
   1.702046e+06  -3.094674e+05
   8.014154e+05   3.618430e+05
  -2.188596e+05   4.826256e+05
  -4.498786e+05   6.760277e+04
   1.946880e+04  -3.436918e+05
   4.624365e+05  -2.305889e+05
   4.445427e+05   3.343466e+05
   1.635473e+05   7.294540e+05
   1.673216e+04   4.783965e+05
   1.286496e+05  -1.445143e+05
   3.123768e+05  -3.572511e+05
   2.736316e+05   2.085531e+05
  -1.713635e+05   9.729651e+05
  -8.599139e+05   9.977386e+05
  -1.219088e+06   9.214108e+04
  -7.191286e+05  -8.978752e+05
   4.164314e+05  -1.013377e+06
   1.165690e+06  -2.305681e+05
   6.907378e+05   5.786819e+05
  -6.510843e+05   6.272226e+05
  -1.542577e+06  -4.922242e+04
  -1.055090e+06  -7.878863e+05
   3.790421e+05  -9.909787e+05
   1.433652e+06  -5.636522e+05
   1.236538e+06   1.163482e+05
   1.698628e+05   5.026654e+05
  -6.066419e+05   2.903995e+05
  -3.383779e+05  -2.644831e+05
   6.052645e+05  -4.697430e+05
   1.138961e+06   1.395663e+05
   5.773566e+05   1.179422e+06
  -6.602749e+05   1.620300e+06
  -1.479299e+06   8.005456e+05
  -1.205860e+06  -7.650282e+05
  -1.780885e+05  -1.745832e+06
   7.134137e+05  -1.282214e+06
   8.946192e+05   1.264777e+05
   4.565094e+05   1.134468e+06
  -1.481815e+05   9.548002e+05
  -5.185692e+05   1.008195e+05
  -4.940403e+05  -3.663544e+05
  -2.091540e+05  -1.380129e+05
  -2.597201e+04   1.027704e+05
  -1.928962e+05  -2.684709e+05
  -4.587666e+05  -9.267568e+05
  -2.394446e+05  -1.040310e+06
   6.235114e+05  -3.739436e+05
   1.432042e+06   4.556657e+05
   1.285890e+06   8.016340e+05
   1.791485e+05   6.619347e+05
  -8.736105e+05   4.056188e+05
  -9.643539e+05   1.929155e+05
  -3.024640e+05  -3.447237e+04
   1.613253e+05  -2.165663e+05
  -2.414792e+04  -2.119877e+05
  -3.195914e+05  -1.094518e+05
  -2.720385e+04  -1.371920e+05
   7.059683e+05  -2.162167e+05
   1.007438e+06   3.772541e+04
   3.277626e+05   6.823680e+05
  -8.836963e+05   1.109438e+06
  -1.619882e+06   6.654308e+05
  -1.297763e+06  -4.770534e+05
  -2.337342e+05  -1.374675e+06
   7.422095e+05  -1.298967e+06
   1.025549e+06  -4.732784e+05
   6.461191e+05   2.576037e+05
   1.030353e+05   3.518301e+05
  -1.226373e+05   4.384212e+04
   5.190990e+04  -4.720027e+04
   3.076021e+05   3.349761e+05
   2.532044e+05   7.767480e+05
  -1.924652e+05   6.462778e+05
  -6.764047e+05  -1.546201e+05
  -6.840203e+05  -9.675774e+05
  -4.521346e+04  -1.006748e+06
   7.725363e+05  -1.927912e+05
   9.887606e+05   7.541814e+05
   2.934879e+05   1.061349e+06
  -7.124609e+05   6.136792e+05
  -1.059030e+06  -1.028580e+05
  -4.711608e+05  -5.703810e+05
   2.915107e+05  -6.073105e+05
   3.327275e+05  -3.310718e+05
  -2.864243e+05  -1.655923e+04
  -6.406182e+05   2.792595e+04
  -1.212655e+05  -2.944049e+05
   8.019433e+05  -6.537801e+05
   1.175383e+06  -5.321433e+05
   6.821415e+05   1.565676e+05
  -1.099576e+05   8.226219e+05
  -5.087142e+05   7.934900e+05
  -3.783804e+05   1.094316e+05
  -2.953057e+04  -4.870615e+05
   2.495827e+05  -3.972350e+05
   3.515227e+05   1.825677e+05
   2.342880e+05   5.631481e+05
  -7.496534e+04   3.804462e+05
  -3.803797e+05  -6.394169e+04
  -4.360647e+05  -2.530719e+05
  -2.261386e+05  -7.204656e+04
   4.385208e+03   1.211000e+05
   6.153601e+04  -1.846088e+04
   3.729748e+04  -3.807741e+05
   1.395676e+05  -5.107506e+05
   3.536690e+05  -1.460991e+05
   4.018907e+05   4.299102e+05
   8.025678e+04   6.522858e+05
  -4.218260e+05   2.867947e+05
  -6.212886e+05  -3.085012e+05
  -2.248868e+05  -5.770484e+05
   4.841951e+05  -3.393855e+05
   8.348214e+05   1.047330e+05
   4.484378e+05   3.738075e+05
  -2.960376e+05   3.561381e+05
  -6.199961e+05   1.769833e+05
  -2.149656e+05   5.414828e+02
   3.848107e+05  -4.499493e+04
   4.216161e+05   1.022589e+05
  -1.912046e+05   3.144224e+05
  -7.759586e+05   2.696923e+05
