
 $NMID
 id='ANONYMOUS ', fmtdat='(2E16.6)'
 volume=1.0
 tramp=1.0
 $END
  -5.955446e+07  -1.550725e+06
  -3.456788e+07  -3.842169e+07
   9.464729e+06  -4.026322e+07
   2.979537e+07  -1.406018e+07
   1.692240e+07   8.544828e+06
  -4.090379e+06   9.705131e+06
  -1.022989e+07  -2.024582e+06
  -2.236295e+06  -1.044886e+07
   7.063086e+06  -9.238513e+06
   1.017966e+07  -1.481164e+06
   7.062908e+06   6.660698e+06
   6.063880e+05   8.872211e+06
  -4.183649e+06   2.814162e+06
  -2.508393e+06  -5.494431e+06
   4.188018e+06  -6.443530e+06
   8.161944e+06   1.807632e+06
   4.223209e+06   1.083815e+07
  -4.408405e+06   1.219367e+07
  -1.078782e+07   5.909813e+06
  -1.135789e+07  -2.368301e+06
  -6.947264e+06  -8.061212e+06
  -6.130018e+05  -9.345168e+06
   3.441092e+06  -6.522344e+06
   2.478030e+06  -2.679273e+06
  -8.182469e+05  -1.863766e+06
  -2.952463e+05  -4.014982e+06
   5.375054e+06  -4.434098e+06
   9.810275e+06  -4.739648e+05
   7.243101e+06   4.319078e+06
   3.889020e+05   5.277403e+06
  -3.655726e+06   2.760087e+06
  -2.570373e+06   2.619887e+05
   2.884760e+05  -7.198991e+05
   1.950359e+06  -5.283308e+05
   2.149245e+06   1.194543e+06
   8.416641e+05   3.853714e+06
  -1.848815e+06   4.047628e+06
  -3.550727e+06   1.362067e+04
  -1.934671e+06  -3.860336e+06
   8.514446e+05  -2.270812e+06
   4.501428e+05   2.289421e+06
  -2.527472e+06   2.201286e+06
  -2.389282e+06  -3.462524e+06
   2.924455e+06  -6.366231e+06
   7.568837e+06  -7.950336e+05
   5.243597e+06   7.546777e+06
  -2.356685e+06   8.980691e+06
  -7.882853e+06   2.327768e+06
  -6.977488e+06  -4.840911e+06
  -1.573332e+06  -6.240510e+06
   3.677931e+06  -2.560507e+06
   5.229739e+06   1.848336e+06
   2.221628e+06   3.703094e+06
  -2.670592e+06   2.151467e+06
  -4.673199e+06  -1.175927e+06
  -1.886084e+06  -2.942010e+06
   1.855885e+06  -1.367837e+06
   1.693133e+06   1.130659e+06
  -1.538147e+06   8.048699e+05
  -2.506574e+06  -2.138490e+06
   9.838145e+05  -3.742384e+06
   5.126798e+06  -1.800218e+06
   5.533516e+06   1.746533e+06
   2.237121e+06   4.306375e+06
  -1.964905e+06   5.394172e+06
  -5.147551e+06   4.870960e+06
  -6.365993e+06   1.720686e+06
  -4.720580e+06  -3.287986e+06
  -8.685523e+05  -6.339484e+06
   2.123895e+06  -4.781342e+06
   1.928605e+06  -1.027087e+06
   5.606881e+04   4.639187e+05
  -2.724977e+05  -9.347076e+05
   1.445307e+06  -1.898008e+06
   2.785111e+06  -3.880584e+05
   2.065207e+06   1.803781e+06
   1.135866e+05   2.064638e+06
  -1.421615e+06   2.052629e+05
  -1.577467e+06  -2.016058e+06
   2.155607e+04  -2.902954e+06
   2.792795e+06  -1.674782e+06
   4.568365e+06   1.223677e+06
   3.303278e+06   3.925656e+06
  -1.038278e+05   4.438844e+06
  -2.473080e+06   2.822233e+06
  -2.417667e+06   1.102644e+06
  -1.931702e+06   5.756107e+05
  -2.982827e+06   3.355574e+05
  -4.341177e+06  -9.320626e+05
  -3.400684e+06  -2.891420e+06
  -7.402864e+02  -4.123331e+06
   3.286721e+06  -3.804222e+06
   4.180316e+06  -2.057792e+06
   2.658654e+06   4.067312e+05
   3.085808e+05   2.210156e+06
  -1.079318e+06   1.942626e+06
  -5.716345e+05  -1.952301e+04
   1.095533e+06  -1.293611e+06
   1.938550e+06  -3.567676e+05
   9.311718e+05   1.245147e+06
  -5.180365e+05   1.095449e+06
  -3.606738e+05  -4.119095e+05
   1.173459e+06  -5.770967e+05
   1.818341e+06   1.542769e+06
   3.650828e+05   3.638328e+06
  -1.929537e+06   3.267837e+06
  -3.253357e+06   7.854781e+05
  -3.145601e+06  -1.680619e+06
  -2.039331e+06  -2.791455e+06
  -3.301346e+05  -2.542493e+06
   1.251570e+06  -1.414048e+06
   1.560567e+06  -2.032103e+05
   4.900763e+05   5.989989e+04
  -3.327671e+05  -7.645658e+05
   4.775414e+05  -1.353123e+06
   1.971740e+06  -5.237587e+05
   2.028622e+06   9.935170e+05
   3.180188e+05   1.463146e+06
  -1.202591e+06   5.202758e+05
  -8.370736e+05  -4.891696e+05
   8.929764e+05  -4.307348e+05
   2.115413e+06   4.667120e+05
   1.601876e+06   1.412214e+06
  -3.605773e+05   1.894757e+06
  -2.346946e+06   1.527105e+06
  -2.767859e+06   1.704230e+05
  -1.182086e+06  -1.325789e+06
   9.827540e+05  -1.511053e+06
   1.610206e+06  -1.510904e+05
   1.918586e+05   1.111347e+06
  -1.549623e+06   6.991926e+05
  -1.690152e+06  -8.584381e+05
  -2.429162e+05  -1.668790e+06
   1.158879e+06  -8.989760e+05
   1.234724e+06   4.054731e+05
   1.811107e+05   8.077358e+05
  -8.250999e+05   2.118873e+04
  -7.164206e+05  -1.085077e+06
   6.085357e+05  -1.416727e+06
   2.022370e+06  -4.984372e+05
   2.014372e+06   1.105026e+06
   3.209051e+05   2.096071e+06
  -1.509527e+06   1.600093e+06
  -1.741419e+06   1.381352e+05
  -4.562517e+05  -8.953134e+05
   6.951843e+05  -7.708617e+05
   6.109654e+05  -5.865924e+04
  -1.516765e+05   3.118786e+05
  -4.618026e+05   1.461120e+05
  -4.692320e+04  -5.687431e+04
   4.833222e+05   1.549829e+05
   4.735311e+05   7.402237e+05
  -2.819274e+05   1.189146e+06
  -1.424690e+06   8.408711e+05
  -2.069113e+06  -4.868954e+05
  -1.407243e+06  -1.992079e+06
   2.904129e+05  -2.402376e+06
   1.650885e+06  -1.325873e+06
   1.647992e+06   2.056659e+05
   7.754482e+05   8.893318e+05
   2.800946e+05   5.814240e+05
   5.111039e+05   1.850443e+05
   6.659642e+05   3.509480e+05
   7.396014e+04   7.987522e+05
  -9.196381e+05   8.625604e+05
  -1.445907e+06   2.509667e+05
  -9.872542e+05  -7.446546e+05
   3.202292e+05  -1.406275e+06
   1.747604e+06  -9.853323e+05
   2.211075e+06   5.617880e+05
   1.040398e+06   2.140443e+06
  -1.121681e+06   2.332950e+06
  -2.600263e+06   9.211972e+05
  -2.305770e+06  -7.749264e+05
  -8.522223e+05  -1.368000e+06
   2.674731e+05  -8.862755e+05
   3.680952e+05  -4.503566e+05
   3.557828e+04  -7.558321e+05
   1.108725e+05  -1.342390e+06
   7.199398e+05  -1.296518e+06
   1.322146e+06  -2.890220e+05
   1.313055e+06   1.114143e+06
   5.048729e+05   1.904989e+06
  -6.573579e+05   1.415973e+06
  -1.278575e+06  -4.966824e+04
  -7.596307e+05  -1.325422e+06
   4.646471e+05  -1.384512e+06
   1.209871e+06  -3.304365e+05
   7.922293e+05   7.798738e+05
  -1.969773e+05   1.102443e+06
  -6.110712e+05   7.565614e+05
  -1.185155e+05   3.912535e+05
   4.326666e+05   3.362827e+05
   5.513973e+04   3.795530e+05
  -1.171077e+06   1.681654e+05
  -2.075092e+06  -4.045103e+05
  -1.583553e+06  -1.101428e+06
   1.135920e+05  -1.455741e+06
   1.659189e+06  -1.102011e+06
   1.850299e+06  -1.980822e+05
   8.045519e+05   5.622517e+05
  -2.952990e+05   5.807556e+05
  -5.234223e+05   1.262258e+02
  -3.193725e+04  -4.482518e+05
   4.347742e+05  -2.539580e+05
   4.767876e+05   3.538155e+05
   2.675713e+05   7.192881e+05
   1.150622e+05   4.790904e+05
   1.354568e+05  -6.687188e+04
   2.599303e+05  -2.545900e+05
   2.614832e+05   2.435615e+05
  -1.511243e+05   9.688048e+05
  -9.289613e+05   1.045800e+06
  -1.406232e+06   1.605925e+05
  -8.676841e+05  -9.352141e+05
   4.456104e+05  -1.159759e+06
   1.289557e+06  -3.377958e+05
   7.231001e+05   5.797200e+05
  -7.281920e+05   6.197310e+05
  -1.564903e+06  -1.615296e+05
  -9.284525e+05  -8.989942e+05
   5.476588e+05  -9.405455e+05
   1.497118e+06  -3.807843e+05
   1.188772e+06   2.536033e+05
   9.921413e+04   5.069750e+05
  -6.597848e+05   2.311612e+05
  -3.878280e+05  -3.166816e+05
   5.789316e+05  -5.262872e+05
   1.183618e+06   7.965214e+04
   6.795083e+05   1.180127e+06
  -5.843060e+05   1.702990e+06
  -1.480387e+06   8.790725e+05
  -1.238151e+06  -7.682261e+05
  -1.665634e+05  -1.781104e+06
   7.674595e+05  -1.249024e+06
   9.085413e+05   2.257970e+05
   3.707908e+05   1.200950e+06
  -2.797177e+05   9.371707e+05
  -5.727788e+05   5.322346e+04
  -4.272136e+05  -3.800719e+05
  -1.287010e+05  -1.298683e+05
  -6.245277e+04   8.360482e+04
  -3.159319e+05  -3.240132e+05
  -5.012496e+05  -9.845831e+05
  -1.259383e+05  -1.070151e+06
   7.651060e+05  -3.674831e+05
   1.451407e+06   4.963495e+05
   1.218065e+06   8.622027e+05
   1.630480e+05   7.078760e+05
  -8.265245e+05   4.036233e+05
  -9.715287e+05   1.469226e+05
  -3.857884e+05  -8.212254e+04
   1.367725e+05  -2.258579e+05
   7.942948e+04  -1.819591e+05
  -2.198163e+05  -7.442960e+04
  -6.512892e+04  -1.317538e+05
   6.180015e+05  -2.420937e+05
   1.050650e+06   1.622531e+04
   4.853582e+05   7.083395e+05
  -8.180760e+05   1.190787e+06
  -1.741062e+06   7.600167e+05
  -1.459583e+06  -4.291526e+05
  -2.715613e+05  -1.401260e+06
   7.999585e+05  -1.376934e+06
   1.058620e+06  -5.531968e+05
   6.456679e+05   2.156439e+05
   1.483724e+05   3.615656e+05
  -3.239795e+04   9.426878e+04
   9.505566e+04   1.643343e+04
   2.724411e+05   3.851082e+05
   2.162341e+05   8.106878e+05
  -1.792677e+05   6.866708e+05
  -6.711338e+05  -9.729022e+04
  -7.562326e+05  -9.293973e+05
  -1.556296e+05  -1.039338e+06
   7.285028e+05  -2.858769e+05
   1.043408e+06   6.893053e+05
   3.674155e+05   1.096378e+06
  -7.135738e+05   7.048104e+05
  -1.141019e+06  -7.371537e+04
  -5.503516e+05  -6.509340e+05
   2.989823e+05  -7.174565e+05
   4.221663e+05  -3.723153e+05
  -2.051600e+05   6.455386e+03
  -6.386009e+05   3.988435e+04
  -1.579008e+05  -3.183281e+05
   8.323322e+05  -6.634676e+05
   1.300364e+06  -4.921060e+05
   8.018641e+05   2.212133e+05
  -1.021102e+05   8.854051e+05
  -5.995172e+05   8.664898e+05
  -4.717432e+05   1.875664e+05
  -7.307353e+04  -4.622854e+05
   2.356832e+05  -4.572290e+05
   3.496216e+05   1.108705e+05
   2.553395e+05   5.781143e+05
  -4.693019e+04   4.633811e+05
  -3.929148e+05  -3.043899e+04
  -4.860965e+05  -3.129545e+05
  -2.411426e+05  -1.234645e+05
   5.214664e+04   1.824222e+05
   8.072900e+04   1.089522e+05
  -6.582628e+04  -3.296345e+05
  -2.370538e+04  -5.967055e+05
   2.976016e+05  -2.907806e+05
   5.110329e+05   3.360715e+05
   2.246779e+05   6.448541e+05
  -3.902473e+05   3.328775e+05
  -6.910307e+05  -2.573236e+05
  -2.720166e+05  -5.592680e+05
   5.224506e+05  -3.680654e+05
   9.074979e+05   6.310917e+04
   4.892800e+05   3.799985e+05
  -2.972294e+05   4.297720e+05
  -6.530545e+05   2.623456e+05
  -2.835561e+05   2.251164e+04
   3.018832e+05  -1.017730e+05
   3.908680e+05   1.839496e+04
  -1.310092e+05   2.636396e+05
  -6.828912e+05   2.715615e+05
