
 $NMID
 id='ANONYMOUS ', fmtdat='(2E16.6)'
 volume=1.0
 tramp=1.0
 $END
  -3.389520e+07  -1.534242e+06
  -2.066936e+07  -1.888591e+07
   2.923614e+06  -2.178451e+07
   1.573155e+07  -1.125077e+07
   1.103456e+07   1.267501e+06
  -5.878752e+05   5.764024e+06
  -6.378069e+06   1.294327e+06
  -3.510824e+06  -5.616654e+06
   2.617503e+06  -7.649365e+06
   6.133452e+06  -2.748670e+06
   4.855675e+06   4.294376e+06
   4.406288e+05   6.381773e+06
  -3.022687e+06   1.476113e+06
  -2.146795e+06  -4.909318e+06
   2.199833e+06  -5.660904e+06
   5.259795e+06   1.131022e+05
   3.368778e+06   6.561355e+06
  -2.113063e+06   7.827975e+06
  -6.493612e+06   3.595697e+06
  -6.552528e+06  -1.966141e+06
  -3.092926e+06  -4.886521e+06
   4.024868e+05  -4.384895e+06
   1.007133e+06  -2.557680e+06
  -9.927422e+05  -2.038292e+06
  -2.160490e+06  -3.409991e+06
   5.019319e+05  -4.533801e+06
   5.555652e+06  -2.979565e+06
   7.930723e+06   8.303936e+05
   4.676915e+06   3.781953e+06
  -1.202919e+06   3.536059e+06
  -4.029963e+06   8.836042e+05
  -1.817859e+06  -1.562186e+06
   2.157294e+06  -1.925615e+06
   3.729902e+06  -4.356714e+04
   2.066924e+06   2.730964e+06
  -6.200621e+05   4.030799e+06
  -1.969062e+06   2.227326e+06
  -1.344380e+06  -1.209728e+06
   1.419103e+05  -2.444116e+06
   6.912029e+05   1.147296e+05
  -5.121508e+05   3.105845e+06
  -2.161524e+06   2.203849e+06
  -1.944915e+06  -1.861021e+06
   6.538179e+05  -3.839545e+06
   3.218994e+06  -8.230864e+05
   2.781853e+06   3.884628e+06
  -8.593254e+05   4.970921e+06
  -4.698797e+06   1.406730e+06
  -5.337573e+06  -3.059724e+06
  -2.072336e+06  -4.570220e+06
   2.476899e+06  -2.625570e+06
   4.568096e+06   5.373101e+05
   2.624982e+06   2.370700e+06
  -1.213898e+06   1.780426e+06
  -3.134196e+06  -2.735863e+05
  -1.612043e+06  -1.608885e+06
   1.053282e+06  -9.538323e+05
   1.624297e+06   6.538484e+05
  -2.094202e+05   1.155730e+06
  -1.730115e+06  -5.139355e+03
  -7.304422e+05  -1.386739e+06
   1.884143e+06  -1.421882e+06
   3.294515e+06   8.133492e+04
   1.819435e+06   2.229215e+06
  -1.618148e+06   3.777070e+06
  -4.532352e+06   3.447633e+06
  -4.964448e+06   7.492255e+05
  -2.934868e+06  -2.899026e+06
  -2.822109e+05  -4.847690e+06
   1.068436e+06  -3.917262e+06
   8.986249e+05  -1.790687e+06
   6.144412e+05  -8.485499e+05
   1.345658e+06  -1.185207e+06
   2.556988e+06  -8.920793e+05
   2.797552e+06   9.312547e+05
   1.434638e+06   2.726063e+06
  -7.102555e+05   2.423010e+06
  -2.141476e+06   4.416718e+03
  -1.782509e+06  -2.447858e+06
   2.897529e+05  -2.872511e+06
   2.661187e+06  -1.014267e+06
   3.432401e+06   1.599529e+06
   1.950120e+06   3.091304e+06
  -3.614446e+05   2.782562e+06
  -1.512805e+06   1.584365e+06
  -1.275953e+06   8.523079e+05
  -1.276347e+06   8.782406e+05
  -2.571590e+06   7.178382e+05
  -3.937515e+06  -5.074690e+05
  -3.235407e+06  -2.468027e+06
  -1.415606e+05  -3.880503e+06
   3.179476e+06  -3.639309e+06
   4.193333e+06  -1.682542e+06
   2.432109e+06   8.578553e+05
  -2.226869e+05   2.277229e+06
  -1.427237e+06   1.628571e+06
  -4.932378e+05  -1.973494e+05
   1.185407e+06  -1.157533e+06
   1.708294e+06  -2.931346e+05
   6.447976e+05   1.089153e+06
  -6.503572e+05   1.072808e+06
  -6.683576e+05  -3.163212e+05
   5.848172e+05  -1.055990e+06
   1.703755e+06   2.748557e+05
   1.394288e+06   2.619492e+06
  -3.889636e+05   3.599448e+06
  -2.540656e+06   2.101584e+06
  -3.630355e+06  -7.230252e+05
  -2.831891e+06  -2.762720e+06
  -6.268831e+05  -2.833080e+06
   1.335431e+06  -1.441638e+06
   1.613517e+06  -1.067289e+05
   4.755637e+05   5.127265e+04
  -3.474297e+05  -7.153262e+05
   3.099369e+05  -1.168236e+06
   1.628139e+06  -5.157523e+05
   1.837553e+06   6.832927e+05
   4.519728e+05   1.209890e+06
  -1.073751e+06   5.983942e+05
  -1.008666e+06  -4.152641e+05
   6.940350e+05  -7.528146e+05
   2.307441e+06  -1.089726e+04
   2.076875e+06   1.296082e+06
  -3.609252e+04   2.163517e+06
  -2.273022e+06   1.796551e+06
  -2.720756e+06   3.103867e+05
  -1.137760e+06  -1.134134e+06
   8.314434e+05  -1.279580e+06
   1.321478e+06  -1.231628e+05
   8.188136e+04   9.457062e+05
  -1.428720e+06   6.579936e+05
  -1.661333e+06  -6.767163e+05
  -4.779293e+05  -1.567381e+06
   9.135264e+05  -1.097081e+06
   1.251966e+06   1.011011e+05
   3.818930e+05   6.799418e+05
  -6.655745e+05   7.542564e+04
  -6.545238e+05  -9.933496e+05
   6.138389e+05  -1.335829e+06
   1.957488e+06  -4.419360e+05
   1.919258e+06   1.064056e+06
   3.470558e+05   1.974395e+06
  -1.337800e+06   1.565498e+06
  -1.636304e+06   2.541444e+05
  -5.461223e+05  -8.018904e+05
   6.010803e+05  -8.139572e+05
   7.086360e+05  -6.409458e+04
  -2.845922e+04   5.156734e+05
  -6.072829e+05   3.819638e+05
  -4.000777e+05  -9.996865e+04
   2.784690e+05  -1.592939e+05
   5.722312e+05   4.525851e+05
  -6.840111e+04   1.105371e+06
  -1.287817e+06   8.921743e+05
  -2.005776e+06  -3.888006e+05
  -1.389845e+06  -1.880050e+06
   2.323406e+05  -2.382025e+06
   1.596015e+06  -1.487249e+06
   1.765884e+06   2.992900e+04
   1.027817e+06   9.900789e+05
   3.772598e+05   9.303306e+05
   3.136024e+05   4.071684e+05
   4.162998e+05   2.475432e+05
   5.028962e+04   6.205848e+05
  -7.947998e+05   8.994975e+05
  -1.441247e+06   4.077755e+05
  -1.154586e+06  -7.378385e+05
   1.562371e+05  -1.569842e+06
   1.693849e+06  -1.144163e+06
   2.244357e+06   4.518398e+05
   1.177433e+06   2.014207e+06
  -8.552640e+05   2.273759e+06
  -2.364709e+06   1.082307e+06
  -2.346237e+06  -4.985568e+05
  -1.137365e+06  -1.292179e+06
   8.142567e+04  -1.099302e+06
   5.071808e+05  -6.704246e+05
   3.239577e+05  -7.197639e+05
   2.367939e+05  -1.125506e+06
   6.266490e+05  -1.132454e+06
   1.185505e+06  -2.577053e+05
   1.254676e+06   1.080623e+06
   5.032025e+05   1.859005e+06
  -6.414253e+05   1.393210e+06
  -1.265307e+06   1.718538e+04
  -8.179072e+05  -1.182980e+06
   2.772877e+05  -1.337638e+06
   9.945993e+05  -5.160853e+05
   7.575331e+05   4.745888e+05
   1.198733e+04   9.205059e+05
  -3.429655e+05   7.738298e+05
  -8.312980e+03   4.758208e+05
   3.852224e+05   3.733857e+05
   3.239322e+04   3.914759e+05
  -1.053844e+06   2.149638e+05
  -1.911527e+06  -3.082275e+05
  -1.558930e+06  -9.601192e+05
  -5.933733e+04  -1.304217e+06
   1.424297e+06  -1.050066e+06
   1.732553e+06  -3.339182e+05
   8.424940e+05   3.350085e+05
  -2.018352e+05   4.774843e+05
  -4.548527e+05   8.838648e+04
   2.469385e+04  -3.210674e+05
   4.841605e+05  -2.212742e+05
   4.468729e+05   3.424770e+05
   1.276246e+05   7.436136e+05
  -1.676206e+04   4.795482e+05
   1.446312e+05  -1.683620e+05
   3.576850e+05  -3.806937e+05
   2.867301e+05   2.160309e+05
  -2.025895e+05   9.999310e+05
  -8.836876e+05   1.007056e+06
  -1.201517e+06   7.588104e+04
  -6.893930e+05  -9.106818e+05
   4.225060e+05  -1.001584e+06
   1.159346e+06  -2.037535e+05
   6.925822e+05   6.043505e+05
  -6.629986e+05   6.460987e+05
  -1.596714e+06  -4.718879e+04
  -1.119487e+06  -8.193940e+05
   3.719169e+05  -1.049276e+06
   1.494746e+06  -6.089340e+05
   1.301305e+06   1.146248e+05
   1.839310e+05   5.287828e+05
  -6.235837e+05   3.087075e+05
  -3.360798e+05  -2.591124e+05
   6.322085e+05  -4.530545e+05
   1.150095e+06   1.760039e+05
   5.451569e+05   1.211746e+06
  -7.190386e+05   1.624259e+06
  -1.527221e+06   7.766627e+05
  -1.219484e+06  -8.046924e+05
  -1.585934e+05  -1.793166e+06
   7.490219e+05  -1.322351e+06
   9.280511e+05   1.201377e+05
   4.784854e+05   1.170964e+06
  -1.403289e+05   1.001111e+06
  -5.284804e+05   1.120305e+05
  -5.199519e+05  -3.922254e+05
  -2.314265e+05  -1.585197e+05
  -2.133379e+04   1.147088e+05
  -1.687625e+05  -2.502804e+05
  -4.508471e+05  -9.420638e+05
  -2.595452e+05  -1.081460e+06
   6.132701e+05  -3.925852e+05
   1.465622e+06   4.828765e+05
   1.333799e+06   8.425587e+05
   1.820515e+05   6.756652e+05
  -9.193476e+05   3.960988e+05
  -1.000604e+06   1.930658e+05
  -2.958281e+05  -1.847595e+04
   1.746181e+05  -2.142862e+05
  -4.408271e+04  -2.398088e+05
  -3.478185e+05  -1.412132e+05
  -1.423462e+04  -1.389222e+05
   7.505485e+05  -1.911590e+05
   1.022481e+06   5.846715e+04
   2.874133e+05   6.820741e+05
  -9.368424e+05   1.096088e+06
  -1.637060e+06   6.457570e+05
  -1.279947e+06  -5.071361e+05
  -2.085688e+05  -1.408275e+06
   7.645987e+05  -1.310968e+06
   1.046904e+06  -4.512460e+05
   6.549813e+05   2.890318e+05
   8.836386e+04   3.562710e+05
  -1.439992e+05   1.828338e+04
   5.158676e+04  -6.930582e+04
   3.254036e+05   3.426985e+05
   2.588887e+05   8.003272e+05
  -2.089316e+05   6.488527e+05
  -6.868317e+05  -1.878380e+05
  -6.619136e+05  -1.009235e+06
  -3.594829e+03  -1.014363e+06
   7.978990e+05  -1.546215e+05
   9.814591e+05   8.042835e+05
   2.679191e+05   1.079868e+06
  -7.333146e+05   5.954497e+05
  -1.063956e+06  -1.231693e+05
  -4.640273e+05  -5.660803e+05
   2.964280e+05  -5.925795e+05
   3.211590e+05  -3.346456e+05
  -3.125795e+05  -3.798065e+04
  -6.594221e+05   1.337079e+04
  -1.131849e+05  -2.948424e+05
   8.287877e+05  -6.592677e+05
   1.193109e+06  -5.515857e+05
   6.769990e+05   1.422908e+05
  -1.225343e+05   8.276426e+05
  -5.062480e+05   8.002674e+05
  -3.582034e+05   9.759819e+04
  -7.233262e+03  -5.028616e+05
   2.604674e+05  -3.874689e+05
   3.500759e+05   2.129337e+05
   2.271872e+05   5.777471e+05
  -8.097334e+04   3.656858e+05
  -3.828330e+05  -7.985369e+04
  -4.388844e+05  -2.470690e+05
  -2.342123e+05  -6.335452e+04
  -2.311273e+03   1.031428e+05
   7.487067e+04  -5.263066e+04
   7.819065e+04  -3.911557e+05
   1.837522e+05  -4.806822e+05
   3.626753e+05  -1.000811e+05
   3.661559e+05   4.600189e+05
   3.286712e+04   6.567066e+05
  -4.419245e+05   2.717261e+05
  -6.097795e+05  -3.335622e+05
  -2.064008e+05  -5.970451e+05
   4.916875e+05  -3.378414e+05
   8.337500e+05   1.250358e+05
   4.449338e+05   3.864935e+05
  -3.017248e+05   3.423631e+05
  -6.221052e+05   1.531175e+05
  -2.010975e+05  -5.406228e+01
   4.104783e+05  -1.401273e+04
   4.289954e+05   1.381511e+05
  -2.243292e+05   3.250645e+05
  -8.269665e+05   2.507660e+05
