
 $NMID
 id='ANONYMOUS ', fmtdat='(2E16.6)'
 volume=1.0
 tramp=1.0
 $END
  -2.917235e+07   3.037384e+05
  -1.997814e+07  -1.334220e+07
  -4.655010e+05  -1.860168e+07
   1.260375e+07  -1.280147e+07
   1.097354e+07  -1.564768e+06
   8.694278e+05   5.404168e+06
  -6.120693e+06   2.912432e+06
  -4.779969e+06  -4.758080e+06
   1.294537e+06  -8.418295e+06
   5.609537e+06  -3.850580e+06
   4.873201e+06   3.840819e+06
   6.190174e+05   6.298461e+06
  -2.888492e+06   1.277248e+06
  -2.314929e+06  -5.299704e+06
   1.741798e+06  -6.255462e+06
   5.048794e+06  -6.867623e+05
   3.825501e+06   5.832434e+06
  -1.240768e+06   7.468935e+06
  -5.626248e+06   3.572941e+06
  -5.719218e+06  -1.693174e+06
  -2.381194e+06  -4.075436e+06
   4.056537e+05  -3.112662e+06
  -4.288480e+04  -1.695543e+06
  -2.374759e+06  -2.370159e+06
  -2.752165e+06  -4.502118e+06
   9.092934e+05  -5.212808e+06
   6.205273e+06  -2.802587e+06
   8.152432e+06   1.268334e+06
   4.393410e+06   3.872068e+06
  -1.778931e+06   3.228904e+06
  -4.510090e+06   2.868096e+05
  -1.619513e+06  -2.340103e+06
   3.192597e+06  -2.418281e+06
   4.777602e+06   2.899405e+05
   2.152872e+06   3.612225e+06
  -1.242653e+06   4.469374e+06
  -2.112792e+06   1.850491e+06
  -6.314808e+05  -1.606841e+06
   7.763477e+05  -2.077684e+06
   5.179183e+05   9.521097e+05
  -9.970062e+05   3.695623e+06
  -2.315171e+06   2.501721e+06
  -2.160665e+06  -1.506130e+06
  -2.541357e+05  -3.628378e+06
   2.109268e+06  -1.291286e+06
   2.563956e+06   2.895817e+06
  -1.260921e+05   4.316826e+06
  -4.103628e+06   1.510167e+06
  -5.570690e+06  -2.706821e+06
  -2.626699e+06  -4.611825e+06
   2.385877e+06  -3.067479e+06
   5.018294e+06   1.123758e+05
   3.196535e+06   2.249008e+06
  -8.343194e+05   1.991632e+06
  -3.064627e+06   1.230938e+05
  -1.823659e+06  -1.329039e+06
   8.744006e+05  -9.917358e+05
   1.840987e+06   5.712349e+05
   1.927272e+05   1.535104e+06
  -1.857344e+06   7.970279e+05
  -1.614525e+06  -8.873357e+05
   9.622355e+05  -1.735213e+06
   3.066598e+06  -6.652527e+05
   2.067851e+06   1.755934e+06
  -1.579685e+06   3.707181e+06
  -4.780073e+06   3.413206e+06
  -5.017405e+06   5.995981e+05
  -2.698004e+06  -2.987992e+06
  -2.166770e+05  -4.884993e+06
   7.786099e+05  -4.190707e+06
   7.247546e+05  -2.365084e+06
   1.002040e+06  -1.362905e+06
   2.106442e+06  -1.277081e+06
   3.184391e+06  -5.455597e+05
   3.035589e+06   1.523357e+06
   1.302258e+06   3.342991e+06
  -1.129433e+06   2.778000e+06
  -2.644140e+06  -1.370948e+05
  -2.028679e+06  -2.931531e+06
   4.311094e+05  -3.197384e+06
   2.897146e+06  -9.088943e+05
   3.425755e+06   1.850811e+06
   1.778004e+06   3.080926e+06
  -3.687425e+05   2.528743e+06
  -1.268746e+06   1.425081e+06
  -1.019559e+06   9.629806e+05
  -1.237285e+06   1.143839e+06
  -2.786203e+06   9.641248e+05
  -4.323659e+06  -4.070786e+05
  -3.607318e+06  -2.630663e+06
  -2.105836e+05  -4.294545e+06
   3.543727e+06  -4.031612e+06
   4.699242e+06  -1.741011e+06
   2.614979e+06   1.115369e+06
  -4.529186e+05   2.539574e+06
  -1.708625e+06   1.686170e+06
  -5.114123e+05  -2.800653e+05
   1.359418e+06  -1.241586e+06
   1.837867e+06  -3.188215e+05
   6.334336e+05   1.149853e+06
  -7.814608e+05   1.184664e+06
  -8.661703e+05  -3.522711e+05
   4.985978e+05  -1.402988e+06
   1.984180e+06  -1.350677e+05
   2.002815e+06   2.686289e+06
   5.482856e+04   4.295675e+06
  -2.732316e+06   2.873175e+06
  -4.332600e+06  -5.377589e+05
  -3.452637e+06  -3.179855e+06
  -7.707115e+05  -3.317789e+06
   1.541211e+06  -1.618321e+06
   1.826331e+06  -7.412147e+04
   5.304989e+05   5.571235e+04
  -3.968068e+05  -7.907394e+05
   2.801866e+05  -1.262858e+06
   1.713981e+06  -5.989481e+05
   2.024129e+06   6.532605e+05
   5.709394e+05   1.286695e+06
  -1.173042e+06   7.063638e+05
  -1.199345e+06  -4.611992e+05
   7.427072e+05  -9.734687e+05
   2.704567e+06  -1.516911e+05
   2.506761e+06   1.468435e+06
   3.939975e+04   2.556014e+06
  -2.563604e+06   2.111136e+06
  -3.058536e+06   3.890680e+05
  -1.275596e+06  -1.210961e+06
   8.692358e+05  -1.367854e+06
   1.384348e+06  -1.469925e+05
   6.318346e+04   9.973844e+05
  -1.565216e+06   7.294168e+05
  -1.871615e+06  -7.036415e+05
  -6.208850e+05  -1.750675e+06
   9.645541e+05  -1.320147e+06
   1.440299e+06   1.511537e+04
   5.073370e+05   7.395791e+05
  -6.984575e+05   1.142181e+05
  -7.181090e+05  -1.083777e+06
   6.921137e+05  -1.471718e+06
   2.177467e+06  -4.738075e+05
   2.124937e+06   1.184153e+06
   4.005572e+05   2.183158e+06
  -1.449994e+06   1.757712e+06
  -1.815614e+06   3.275213e+05
  -6.498791e+05  -8.800459e+05
   6.512429e+05  -9.360459e+05
   8.323198e+05  -6.212111e+04
  -8.957075e+03   6.619980e+05
  -7.562915e+05   4.969250e+05
  -5.694997e+05  -1.596850e+05
   2.693994e+05  -3.053228e+05
   7.008880e+05   4.198966e+05
  -4.169561e+02   1.232531e+06
  -1.409970e+06   1.027481e+06
  -2.241500e+06  -4.073885e+05
  -1.558499e+06  -2.081608e+06
   2.508224e+05  -2.677137e+06
   1.797679e+06  -1.726904e+06
   2.043075e+06  -9.163873e+03
   1.231280e+06   1.175689e+06
   4.241498e+05   1.178720e+06
   2.630086e+05   5.202916e+05
   3.889906e+05   2.230392e+05
   6.070706e+04   6.342931e+05
  -8.581015e+05   1.032012e+06
  -1.635486e+06   5.072943e+05
  -1.354808e+06  -8.475722e+05
   1.398995e+05  -1.836907e+06
   1.906276e+06  -1.339577e+06
   2.544417e+06   4.835599e+05
   1.373973e+06   2.239837e+06
  -8.752214e+05   2.556668e+06
  -2.597674e+06   1.282964e+06
  -2.675508e+06  -4.792339e+05
  -1.379662e+06  -1.457415e+06
   5.016035e+04  -1.326907e+06
   6.412949e+05  -8.169231e+05
   4.655767e+05  -7.711130e+05
   2.972573e+05  -1.178844e+06
   6.639627e+05  -1.221990e+06
   1.284857e+06  -2.850610e+05
   1.389157e+06   1.205304e+06
   5.606790e+05   2.078100e+06
  -7.209579e+05   1.558074e+06
  -1.425004e+06   3.772848e+04
  -9.472447e+05  -1.290367e+06
   2.490121e+05  -1.503548e+06
   1.062415e+06  -6.592089e+05
   8.641964e+05   4.281173e+05
   9.761736e+04   9.902592e+05
  -2.975311e+05   8.981259e+05
   1.957651e+04   5.743278e+05
   4.119639e+05   4.308353e+05
   2.566251e+04   4.428560e+05
  -1.149938e+06   2.632771e+05
  -2.100667e+06  -3.082884e+05
  -1.753152e+06  -1.036399e+06
  -1.338709e+05  -1.429840e+06
   1.521307e+06  -1.176800e+06
   1.921711e+06  -4.249337e+05
   9.791313e+05   3.049591e+05
  -1.879142e+05   5.082940e+05
  -4.958707e+05   1.339827e+05
   3.814872e+04  -3.118773e+05
   5.602326e+05  -2.310193e+05
   4.917123e+05   3.809500e+05
   8.914145e+04   8.338115e+05
  -6.720297e+04   5.283753e+05
   1.754240e+05  -2.234141e+05
   4.492425e+05  -4.623540e+05
   3.328659e+05   2.369705e+05
  -2.532834e+05   1.130687e+06
  -9.800449e+05   1.119416e+06
  -1.273709e+06   6.769871e+04
  -7.113131e+05  -1.004183e+06
   4.585650e+05  -1.071818e+06
   1.248578e+06  -1.881474e+05
   7.636749e+05   6.893091e+05
  -7.286096e+05   7.386396e+05
  -1.817352e+06  -2.352662e+04
  -1.329290e+06  -9.159351e+05
   3.714646e+05  -1.231926e+06
   1.703586e+06  -7.579090e+05
   1.514945e+06   9.632887e+04
   2.321399e+05   6.107682e+05
  -6.971977e+05   3.745554e+05
  -3.638244e+05  -2.686696e+05
   7.258867e+05  -4.766748e+05
   1.273362e+06   2.342949e+05
   5.580566e+05   1.365638e+06
  -8.571157e+05   1.785219e+06
  -1.729749e+06   8.268795e+05
  -1.358716e+06  -9.224101e+05
  -1.660836e+05  -2.022013e+06
   8.489901e+05  -1.511562e+06
   1.059590e+06   1.044073e+05
   5.729933e+05   1.318691e+06
  -1.195320e+05   1.160127e+06
  -5.848166e+05   1.478782e+05
  -6.145393e+05  -4.560413e+05
  -2.930487e+05  -1.983106e+05
  -1.287872e+04   1.433454e+05
  -1.436816e+05  -2.440817e+05
  -4.888689e+05  -1.043053e+06
  -3.325229e+05  -1.233563e+06
   6.411308e+05  -4.606110e+05
   1.652987e+06   5.468729e+05
   1.538897e+06   9.575236e+05
   2.110366e+05   7.515426e+05
  -1.068113e+06   4.307293e+05
  -1.140950e+06   2.260824e+05
  -3.068617e+05   7.736500e+03
   2.097284e+05  -2.329900e+05
  -8.659917e+04  -3.008253e+05
  -4.296633e+05  -1.948496e+05
   3.002893e+03  -1.545406e+05
   8.873492e+05  -1.823840e+05
   1.136823e+06   8.299327e+04
   2.533400e+05   7.427222e+05
  -1.092729e+06   1.185654e+06
  -1.799076e+06   6.878748e+05
  -1.368453e+06  -5.885460e+05
  -2.053946e+05  -1.582685e+06
   8.486061e+05  -1.451543e+06
   1.167346e+06  -4.682177e+05
   7.326079e+05   3.547641e+05
   7.725698e+04   3.943325e+05
  -1.945469e+05  -1.619914e+04
   5.056887e+04  -1.113936e+05
   3.866544e+05   3.769248e+05
   3.032674e+05   9.018659e+05
  -2.453201e+05   7.133899e+05
  -7.696801e+05  -2.475985e+05
  -7.002287e+05  -1.158578e+06
   5.171715e+04  -1.119659e+06
   9.115189e+05  -1.184116e+05
   1.069049e+06   9.445043e+05
   2.630204e+05   1.202087e+06
  -8.254951e+05   6.266749e+05
  -1.165493e+06  -1.543070e+05
  -4.966192e+05  -6.021793e+05
   3.247692e+05  -6.220447e+05
   3.245166e+05  -3.705631e+05
  -3.852001e+05  -6.895100e+04
  -7.470631e+05   8.700484e+02
  -1.123711e+05  -3.202709e+05
   9.341382e+05  -7.367183e+05
   1.312854e+06  -6.449335e+05
   7.243113e+05   1.250846e+05
  -1.440031e+05   9.088017e+05
  -5.352392e+05   8.829780e+05
  -3.561860e+05   8.647166e+04
   2.071581e+04  -5.743775e+05
   2.975913e+05  -4.082865e+05
   3.842984e+05   2.769204e+05
   2.430940e+05   6.486437e+05
  -9.634985e+04   3.740868e+05
  -4.226382e+05  -1.080619e+05
  -4.818526e+05  -2.530669e+05
  -2.659831e+05  -5.083539e+04
  -1.528842e+04   8.371478e+04
   9.632720e+04  -1.157494e+05
   1.453870e+05  -4.488751e+05
   2.714896e+05  -4.817087e+05
   4.149066e+05  -3.875259e+04
   3.486212e+05   5.501906e+05
  -3.409654e+04   7.267766e+05
  -5.113484e+05   2.778764e+05
  -6.496640e+05  -3.978705e+05
  -2.032686e+05  -6.803549e+05
   5.415500e+05  -3.699071e+05
   9.065283e+05   1.599498e+05
   4.827828e+05   4.354837e+05
  -3.352157e+05   3.529134e+05
  -6.805723e+05   1.338620e+05
  -1.955647e+05  -1.816409e+03
   4.923189e+05   2.614617e+04
   4.850831e+05   2.025701e+05
  -2.918204e+05   3.781260e+05
  -9.802253e+05   2.585939e+05
