
 $NMID
 id='ANONYMOUS ', fmtdat='(2E16.6)'
 volume=1.0
 tramp=1.0
 $END
   2.996492e+07  -3.195079e+05
   1.992707e+07   1.479486e+07
  -5.422340e+05   1.935664e+07
  -1.328892e+07   1.188944e+07
  -1.062974e+07   3.762623e+05
  -2.747177e+05  -5.390554e+06
   6.002241e+06  -2.143994e+06
   4.099864e+06   4.925822e+06
  -1.752765e+06   7.757660e+06
  -5.581675e+06   3.282632e+06
  -4.713214e+06  -3.769252e+06
  -6.172637e+05  -6.014086e+06
   2.764027e+06  -1.360762e+06
   2.177340e+06   4.821652e+06
  -1.802305e+06   5.725507e+06
  -4.935454e+06   3.875133e+05
  -3.574904e+06  -5.834447e+06
   1.419859e+06  -7.335105e+06
   5.667824e+06  -3.561659e+06
   5.853457e+06   1.566894e+06
   2.716783e+06   4.138041e+06
  -2.294966e+05   3.540230e+06
  -3.434142e+05   2.084527e+06
   1.632356e+06   2.163305e+06
   2.328874e+06   3.767437e+06
  -6.399371e+05   4.614697e+06
  -5.524189e+06   2.793265e+06
  -7.615783e+06  -8.806308e+05
  -4.354542e+06  -3.533870e+06
   1.344543e+06  -3.188085e+06
   4.005677e+06  -5.843178e+05
   1.605352e+06   1.819618e+06
  -2.550722e+06   2.039850e+06
  -4.028192e+06  -1.237704e+05
  -1.992523e+06  -2.990998e+06
   8.525934e+05  -4.007578e+06
   1.876035e+06  -1.950686e+06
   9.206271e+05   1.275074e+06
  -3.814018e+05   2.101129e+06
  -5.203377e+05  -4.964089e+05
   7.068250e+05  -3.212329e+06
   2.105347e+06  -2.262697e+06
   2.003340e+06   1.571343e+06
  -9.648796e+04   3.605305e+06
  -2.523764e+06   1.134195e+06
  -2.659466e+06  -3.137865e+06
   3.292215e+05  -4.453593e+06
   4.145949e+06  -1.502325e+06
   5.249719e+06   2.651254e+06
   2.312064e+06   4.352750e+06
  -2.287047e+06   2.753870e+06
  -4.587693e+06  -2.516579e+05
  -2.816134e+06  -2.179492e+06
   9.491490e+05  -1.836070e+06
   2.967617e+06   7.928837e+03
   1.676418e+06   1.374998e+06
  -8.979760e+05   9.523218e+05
  -1.662544e+06  -5.658226e+05
   6.177371e+03  -1.310728e+06
   1.753295e+06  -4.092697e+05
   1.180373e+06   1.113673e+06
  -1.330204e+06   1.591693e+06
  -3.059754e+06   3.590285e+05
  -1.914211e+06  -1.866004e+06
   1.446132e+06  -3.576342e+06
   4.356880e+06  -3.313349e+06
   4.710207e+06  -7.184709e+05
   2.710221e+06   2.727144e+06
   3.155131e+05   4.605368e+06
  -8.216281e+05   3.883870e+06
  -7.720620e+05   2.004556e+06
  -7.894051e+05   1.042191e+06
  -1.633352e+06   1.144411e+06
  -2.694756e+06   6.812531e+05
  -2.748430e+06  -1.139768e+06
  -1.303683e+06  -2.854505e+06
   8.598762e+05  -2.457691e+06
   2.268345e+06   6.000285e+04
   1.822511e+06   2.543259e+06
  -3.154561e+05   2.879130e+06
  -2.615166e+06   9.406856e+05
  -3.262662e+06  -1.580791e+06
  -1.817725e+06  -2.881719e+06
   2.830720e+05  -2.519227e+06
   1.277500e+06  -1.464815e+06
   1.076055e+06  -8.998763e+05
   1.192257e+06  -9.870724e+05
   2.546266e+06  -8.321008e+05
   3.937222e+06   3.883570e+05
   3.281751e+06   2.387321e+06
   2.087002e+05   3.883960e+06
  -3.155008e+06   3.674491e+06
  -4.198526e+06   1.663996e+06
  -2.394300e+06  -9.096326e+05
   3.014460e+05  -2.277323e+06
   1.467255e+06  -1.579044e+06
   4.750754e+05   2.207549e+05
  -1.194904e+06   1.148372e+06
  -1.680270e+06   3.114832e+05
  -6.206161e+05  -1.051093e+06
   6.701219e+05  -1.075119e+06
   7.343261e+05   3.187101e+05
  -5.159171e+05   1.187146e+06
  -1.783507e+06  -4.772455e+04
  -1.660987e+06  -2.530406e+06
   1.332802e+05  -3.788332e+06
   2.514946e+06  -2.402214e+06
   3.809787e+06   5.764726e+05
   3.010132e+06   2.814119e+06
   6.830306e+05   2.921823e+06
  -1.353272e+06   1.463265e+06
  -1.630184e+06   9.931152e+04
  -4.783293e+05  -4.619596e+04
   3.612768e+05   7.124474e+05
  -2.651977e+05   1.161459e+06
  -1.582408e+06   5.523976e+05
  -1.847593e+06  -6.136183e+05
  -5.027586e+05  -1.185025e+06
   1.063646e+06  -6.328563e+05
   1.054606e+06   4.109369e+05
  -6.824517e+05   8.311908e+05
  -2.391010e+06   9.448846e+04
  -2.191458e+06  -1.304447e+06
  -1.545383e+04  -2.249073e+06
   2.286414e+06  -1.878373e+06
   2.744802e+06  -3.581954e+05
   1.160819e+06   1.102326e+06
  -7.906852e+05   1.268424e+06
  -1.283333e+06   1.469624e+05
  -8.142301e+04  -9.197012e+05
   1.414910e+06  -6.749332e+05
   1.688295e+06   6.396393e+05
   5.385163e+05   1.576932e+06
  -8.866196e+05   1.162102e+06
  -1.286793e+06  -4.420755e+04
  -4.316243e+05  -6.756498e+05
   6.485082e+05  -1.003483e+05
   6.635475e+05   9.787054e+05
  -6.055684e+05   1.338921e+06
  -1.958030e+06   4.547143e+05
  -1.931267e+06  -1.047541e+06
  -3.760664e+05  -1.971707e+06
   1.308691e+06  -1.594369e+06
   1.639646e+06  -2.934929e+05
   5.774340e+05   7.961096e+05
  -5.884487e+05   8.389661e+05
  -7.316383e+05   6.410919e+04
   1.748682e+04  -5.627181e+05
   6.494799e+05  -4.199660e+05
   4.606306e+05   1.276566e+05
  -2.656556e+05   2.281353e+05
  -6.153314e+05  -4.109720e+05
   2.031194e+04  -1.115537e+06
   1.273754e+06  -9.266592e+05
   2.022616e+06   3.579074e+05
   1.420004e+06   1.867826e+06
  -2.070269e+05   2.405784e+06
  -1.601639e+06   1.542189e+06
  -1.813043e+06   3.572019e+03
  -1.079325e+06  -1.024953e+06
  -3.807338e+05  -1.000348e+06
  -2.721603e+05  -4.328357e+05
  -3.869645e+05  -2.135320e+05
  -6.264046e+04  -5.945173e+05
   7.771568e+05  -9.272307e+05
   1.460504e+06  -4.480457e+05
   1.198385e+06   7.457761e+05
  -1.297722e+05   1.622763e+06
  -1.702363e+06   1.196347e+06
  -2.280579e+06  -4.240581e+05
  -1.233220e+06  -2.012293e+06
   7.991697e+05  -2.307941e+06
   2.350132e+06  -1.150604e+06
   2.395730e+06   4.435916e+05
   1.208988e+06   1.301941e+06
  -5.733362e+04   1.157320e+06
  -5.444071e+05   7.077072e+05
  -3.675336e+05   7.040678e+05
  -2.381900e+05   1.093310e+06
  -5.985357e+05   1.125893e+06
  -1.169883e+06   2.718650e+05
  -1.266146e+06  -1.072513e+06
  -5.234058e+05  -1.864851e+06
   6.335702e+05  -1.407725e+06
   1.278980e+06  -3.810041e+04
   8.525373e+05   1.168247e+06
  -2.363858e+05   1.356125e+06
  -9.763361e+05   5.724824e+05
  -7.816997e+05  -4.206500e+05
  -6.499061e+04  -9.120795e+05
   2.972557e+05  -8.035198e+05
  -7.724733e+03  -5.014341e+05
  -3.809653e+05  -3.771469e+05
  -3.085967e+04  -3.952250e+05
   1.045393e+06  -2.396038e+05
   1.910066e+06   2.710843e+05
   1.584919e+06   9.329404e+05
   1.075653e+05   1.301790e+06
  -1.387614e+06   1.076164e+06
  -1.735352e+06   3.791575e+05
  -8.735764e+05  -2.969343e+05
   1.781234e+05  -4.720934e+05
   4.526569e+05  -1.114707e+05
  -2.392302e+04   2.992153e+05
  -4.931027e+05   2.178626e+05
  -4.489725e+05  -3.386961e+05
  -1.090038e+05  -7.444208e+05
   3.559635e+04  -4.755655e+05
  -1.528077e+05   1.871613e+05
  -3.826534e+05   4.013890e+05
  -2.968478e+05  -2.128481e+05
   2.079234e+05  -1.012171e+06
   8.745502e+05  -1.018941e+06
   1.172338e+06  -8.424348e+04
   6.739543e+05   8.984898e+05
  -4.052608e+05   9.888240e+05
  -1.138091e+06   1.997803e+05
  -6.963576e+05  -6.071730e+05
   6.554275e+05  -6.651383e+05
   1.624238e+06   1.964182e+04
   1.172261e+06   8.182121e+05
  -3.458305e+05   1.090828e+06
  -1.518512e+06   6.629361e+05
  -1.341696e+06  -9.080302e+04
  -2.019573e+05  -5.414593e+05
   6.261851e+05  -3.311238e+05
   3.361318e+05   2.462291e+05
  -6.389411e+05   4.459839e+05
  -1.150015e+06  -1.834745e+05
  -5.341225e+05  -1.215577e+06
   7.316960e+05  -1.622183e+06
   1.536922e+06  -7.741678e+05
   1.230640e+06   8.084795e+05
   1.702843e+05   1.809874e+06
  -7.483932e+05   1.352960e+06
  -9.474420e+05  -9.847336e+04
  -5.108572e+05  -1.180319e+06
   1.155844e+05  -1.030956e+06
   5.289691e+05  -1.294451e+05
   5.421000e+05   4.002333e+05
   2.499185e+05   1.698266e+05
   1.594003e+04  -1.237494e+05
   1.523456e+05   2.295518e+05
   4.558525e+05   9.372110e+05
   2.908800e+05   1.100139e+06
  -5.925206e+05   4.144617e+05
  -1.485561e+06  -4.758523e+05
  -1.372314e+06  -8.452741e+05
  -1.936455e+05  -6.764033e+05
   9.399351e+05  -3.987492e+05
   1.016219e+06  -2.075384e+05
   2.877964e+05   1.405956e+02
  -1.803135e+05   2.130477e+05
   6.292024e+04   2.593234e+05
   3.689635e+05   1.594969e+05
   6.443525e+03   1.379617e+05
  -7.748020e+05   1.810189e+05
  -1.024789e+06  -5.710336e+04
  -2.635104e+05  -6.690552e+05
   9.514356e+05  -1.089067e+06
   1.622771e+06  -6.506928e+05
   1.260112e+06   5.042063e+05
   2.092590e+05   1.416716e+06
  -7.522812e+05   1.319517e+06
  -1.044710e+06   4.464260e+05
  -6.597528e+05  -2.999179e+05
  -8.203377e+04  -3.541207e+05
   1.588139e+05   4.468295e+02
  -4.990772e+04   8.740350e+04
  -3.423396e+05  -3.399422e+05
  -2.745997e+05  -8.069079e+05
   2.088316e+05  -6.480377e+05
   6.911626e+05   2.008838e+05
   6.540544e+05   1.021050e+06
  -1.306856e+04   1.009560e+06
  -8.071392e+05   1.351624e+05
  -9.781592e+05  -8.199625e+05
  -2.623222e+05  -1.078626e+06
   7.320389e+05  -5.864424e+05
   1.058446e+06   1.201353e+05
   4.633459e+05   5.482608e+05
  -2.864423e+05   5.794199e+05
  -3.024990e+05   3.402640e+05
   3.306567e+05   5.058163e+04
   6.670581e+05  -1.229223e+04
   1.103316e+05   2.899093e+05
  -8.309260e+05   6.705339e+05
  -1.186189e+06   5.817446e+05
  -6.684899e+05  -1.176456e+05
   1.175870e+05  -8.250856e+05
   4.854875e+05  -8.060950e+05
   3.360120e+05  -9.336988e+04
  -2.838702e+03   5.098541e+05
  -2.597369e+05   3.795587e+05
  -3.481557e+05  -2.294800e+05
  -2.285850e+05  -5.795416e+05
   7.849212e+04  -3.510875e+05
   3.819825e+05   8.551466e+04
   4.410195e+05   2.322499e+05
   2.395353e+05   5.185434e+04
   5.519551e+03  -8.735394e+04
  -8.473423e+04   8.091896e+04
  -1.041930e+05   3.961354e+05
  -2.091107e+05   4.535014e+05
  -3.637137e+05   6.749162e+04
  -3.404653e+05  -4.728970e+05
  -4.983226e+03  -6.519435e+05
   4.486910e+05  -2.637039e+05
   5.991389e+05   3.397842e+05
   1.990285e+05   6.030678e+05
  -4.867303e+05   3.412906e+05
  -8.258982e+05  -1.259173e+05
  -4.438544e+05  -3.851378e+05
   2.971763e+05  -3.327219e+05
   6.144633e+05  -1.426232e+05
   1.877194e+05  -2.926141e+03
  -4.265202e+05  -4.708873e+03
  -4.324243e+05  -1.588924e+05
   2.436815e+05  -3.337454e+05
   8.554267e+05  -2.459185e+05
