
 $NMID
 id='ANONYMOUS ', fmtdat='(2E16.6)'
 volume=1.0
 tramp=1.0
 $END
  -6.292406e+07  -7.515207e+04
  -3.760212e+07  -3.949374e+07
   8.778465e+06  -4.272463e+07
   3.104014e+07  -1.582343e+07
   1.819314e+07   8.388434e+06
  -3.969334e+06   1.038013e+07
  -1.090027e+07  -1.739018e+06
  -2.760619e+06  -1.096965e+07
   7.151638e+06  -1.007839e+07
   1.073864e+07  -1.934691e+06
   7.677024e+06   6.875281e+06
   8.749584e+05   9.422318e+06
  -4.374868e+06   3.072835e+06
  -2.822541e+06  -5.832639e+06
   4.252177e+06  -7.022056e+06
   8.704829e+06   1.645514e+06
   4.798544e+06   1.135761e+07
  -4.312220e+06   1.304312e+07
  -1.125245e+07   6.540067e+06
  -1.205758e+07  -2.228850e+06
  -7.505117e+06  -8.336102e+06
  -8.641692e+05  -9.797759e+06
   3.401541e+06  -6.924433e+06
   2.421311e+06  -2.937034e+06
  -9.891244e+05  -2.079899e+06
  -3.705823e+05  -4.345969e+06
   5.691017e+06  -4.835098e+06
   1.046306e+07  -6.912552e+05
   7.784858e+06   4.439512e+06
   4.736729e+05   5.581259e+06
  -3.884618e+06   2.964108e+06
  -2.715284e+06   2.532279e+05
   3.993569e+05  -8.354906e+05
   2.181436e+06  -5.808571e+05
   2.333487e+06   1.316348e+06
   9.234179e+05   4.136326e+06
  -1.891117e+06   4.314000e+06
  -3.705811e+06   4.984123e+04
  -2.079442e+06  -4.029748e+06
   8.405683e+05  -2.345439e+06
   4.854156e+05   2.495567e+06
  -2.653550e+06   2.437903e+06
  -2.647054e+06  -3.589867e+06
   2.865733e+06  -6.818245e+06
   7.916057e+06  -1.068428e+06
   5.731080e+06   7.805789e+06
  -2.221702e+06   9.542039e+06
  -8.273259e+06   2.672387e+06
  -7.567712e+06  -4.949052e+06
  -1.884387e+06  -6.608135e+06
   3.842271e+06  -2.861314e+06
   5.658548e+06   1.794172e+06
   2.514940e+06   3.872526e+06
  -2.749661e+06   2.374096e+06
  -4.993304e+06  -1.098696e+06
  -2.098878e+06  -3.055690e+06
   1.924041e+06  -1.503105e+06
   1.852663e+06   1.153071e+06
  -1.571971e+06   9.316298e+05
  -2.727288e+06  -2.129207e+06
   8.664661e+05  -3.946844e+06
   5.313537e+06  -2.065469e+06
   5.903023e+06   1.648738e+06
   2.507822e+06   4.478913e+06
  -1.960548e+06   5.782871e+06
  -5.393057e+06   5.307507e+06
  -6.745077e+06   1.967614e+06
  -5.079729e+06  -3.400770e+06
  -1.068553e+06  -6.734606e+06
   2.114227e+06  -5.169345e+06
   2.005534e+06  -1.200828e+06
   1.087621e+05   4.332430e+05
  -2.299715e+05  -1.005184e+06
   1.565487e+06  -2.022652e+06
   2.987401e+06  -4.164750e+05
   2.232387e+06   1.940283e+06
   1.269005e+05   2.237928e+06
  -1.564986e+06   2.407453e+05
  -1.758288e+06  -2.160315e+06
  -3.302558e+04  -3.128332e+06
   2.960814e+06  -1.840014e+06
   4.895005e+06   1.222110e+06
   3.591875e+06   4.102069e+06
  -7.952529e+03   4.701550e+06
  -2.541046e+06   3.044717e+06
  -2.519380e+06   1.241696e+06
  -2.036959e+06   6.875725e+05
  -3.189899e+06   4.567870e+05
  -4.686390e+06  -8.753884e+05
  -3.731912e+06  -3.013043e+06
  -1.095093e+05  -4.435518e+06
   3.446322e+06  -4.174856e+06
   4.457446e+06  -2.300953e+06
   2.862752e+06   3.967192e+05
   3.579492e+05   2.376695e+06
  -1.133480e+06   2.102704e+06
  -6.117298e+05  -1.619082e+04
   1.154309e+06  -1.414043e+06
   2.069757e+06  -4.296376e+05
   1.020272e+06   1.310548e+06
  -5.391274e+05   1.191924e+06
  -4.156819e+05  -4.325531e+05
   1.223827e+06  -6.795825e+05
   2.000370e+06   1.552785e+06
   5.421421e+05   3.868180e+06
  -1.923136e+06   3.598116e+06
  -3.460556e+06   9.994756e+05
  -3.464780e+06  -1.689068e+06
  -2.309019e+06  -2.964685e+06
  -4.314975e+05  -2.751390e+06
   1.320226e+06  -1.556454e+06
   1.680436e+06  -2.515841e+05
   5.292987e+05   5.218018e+04
  -3.784662e+05  -8.141484e+05
   4.724736e+05  -1.462343e+06
   2.095974e+06  -6.142388e+05
   2.203885e+06   1.005146e+06
   3.868461e+05   1.557971e+06
  -1.278352e+06   5.950548e+05
  -9.241749e+05  -5.046764e+05
   9.443502e+05  -5.044487e+05
   2.306099e+06   4.282397e+05
   1.787692e+06   1.481262e+06
  -3.276445e+05   2.068549e+06
  -2.492213e+06   1.718563e+06
  -2.979620e+06   2.584511e+05
  -1.305852e+06  -1.391018e+06
   1.014095e+06  -1.642296e+06
   1.717719e+06  -2.021601e+05
   2.289803e+05   1.184689e+06
  -1.647937e+06   7.901732e+05
  -1.843329e+06  -8.753261e+05
  -3.152909e+05  -1.790158e+06
   1.216563e+06  -1.009498e+06
   1.344301e+06   3.916724e+05
   2.260985e+05   8.613951e+05
  -8.815309e+05   4.659835e+04
  -7.963740e+05  -1.147951e+06
   6.218939e+05  -1.538654e+06
   2.165595e+06  -5.840506e+05
   2.194752e+06   1.140395e+06
   3.989786e+05   2.246825e+06
  -1.580201e+06   1.761596e+06
  -1.870061e+06   1.978436e+05
  -5.189634e+05  -9.502689e+05
   7.265571e+05  -8.510432e+05
   6.627149e+05  -7.764556e+04
  -1.509081e+05   3.516044e+05
  -5.037491e+05   1.802935e+05
  -7.033247e+04  -6.469264e+04
   5.162492e+05   1.376085e+05
   5.357003e+05   7.723939e+05
  -2.634949e+05   1.286391e+06
  -1.509432e+06   9.450675e+05
  -2.240856e+06  -4.694892e+05
  -1.565906e+06  -2.108589e+06
   2.518672e+05  -2.597502e+06
   1.746615e+06  -1.478842e+06
   1.789723e+06   1.734048e+05
   8.705282e+05   9.472150e+05
   3.191477e+05   6.391680e+05
   5.440590e+05   1.976067e+05
   7.144016e+05   3.554177e+05
   9.905926e+04   8.502497e+05
  -9.646332e+05   9.554031e+05
  -1.554202e+06   3.140882e+05
  -1.091797e+06  -7.798670e+05
   3.036552e+05  -1.534188e+06
   1.859247e+06  -1.113861e+06
   2.400935e+06   5.467848e+05
   1.181999e+06   2.277730e+06
  -1.139022e+06   2.542052e+06
  -2.770983e+06   1.066477e+06
  -2.509575e+06  -7.657592e+05
  -9.677279e+05  -1.452660e+06
   2.585977e+05  -9.747208e+05
   3.947577e+05  -5.053485e+05
   3.495093e+04  -8.124270e+05
   9.232631e+04  -1.438422e+06
   7.392125e+05  -1.407821e+06
   1.411704e+06  -3.429626e+05
   1.440389e+06   1.167790e+06
   5.908853e+05   2.040068e+06
  -6.737635e+05   1.542083e+06
  -1.379997e+06  -1.903946e+04
  -8.553748e+05  -1.404111e+06
   4.575311e+05  -1.503290e+06
   1.286844e+06  -3.967682e+05
   8.734771e+05   8.057776e+05
  -1.736777e+05   1.185641e+06
  -6.268546e+05   8.334059e+05
  -1.131199e+05   4.299745e+05
   4.721207e+05   3.538459e+05
   6.743675e+04   4.085213e+05
  -1.253189e+06   2.129684e+05
  -2.240044e+06  -3.799308e+05
  -1.734303e+06  -1.142081e+06
   7.726969e+04  -1.566082e+06
   1.750293e+06  -1.227575e+06
   1.985602e+06  -2.663003e+05
   8.848003e+05   5.753123e+05
  -2.988940e+05   6.287378e+05
  -5.615179e+05   1.787539e+04
  -4.317361e+04  -4.756795e+05
   4.651236e+05  -2.824334e+05
   5.213262e+05   3.692599e+05
   2.985747e+05   7.697011e+05
   1.288196e+05   5.131401e+05
   1.455821e+05  -8.067623e+04
   2.801053e+05  -2.869094e+05
   2.894867e+05   2.550716e+05
  -1.423605e+05   1.049941e+06
  -9.740212e+05   1.148812e+06
  -1.501661e+06   2.041764e+05
  -9.493972e+05  -9.852867e+05
   4.503192e+05  -1.253594e+06
   1.375063e+06  -3.894202e+05
   7.922255e+05   6.088359e+05
  -7.671414e+05   6.878648e+05
  -1.694161e+06  -1.305064e+05
  -1.033694e+06  -9.441606e+05
   5.593774e+05  -1.034515e+06
   1.606841e+06  -4.589420e+05
   1.295099e+06   2.381606e+05
   1.235876e+05   5.460845e+05
  -7.046391e+05   2.695874e+05
  -4.236388e+05  -3.288560e+05
   6.140136e+05  -5.775234e+05
   1.276220e+06   6.206034e+04
   7.542880e+05   1.257215e+06
  -5.954961e+05   1.846013e+06
  -1.577208e+06   9.783812e+05
  -1.352853e+06  -8.003666e+05
  -2.223304e+05  -1.917600e+06
   7.969895e+05  -1.369722e+06
   9.870990e+05   2.161211e+05
   4.348557e+05   1.285459e+06
  -2.721165e+05   1.021831e+06
  -6.145749e+05   7.464408e+04
  -4.747738e+05  -4.008153e+05
  -1.471469e+05  -1.391119e+05
  -6.338421e+04   9.356430e+04
  -3.413921e+05  -3.370460e+05
  -5.621292e+05  -1.047274e+06
  -1.686634e+05  -1.152628e+06
   8.085570e+05  -4.171670e+05
   1.578313e+06   4.995667e+05
   1.340847e+06   9.001381e+05
   1.942215e+05   7.579881e+05
  -8.864852e+05   4.543969e+05
  -1.046123e+06   1.842435e+05
  -4.138004e+05  -7.532979e+04
   1.439503e+05  -2.460680e+05
   7.517051e+04  -2.019745e+05
  -2.451706e+05  -7.925047e+04
  -7.074498e+04  -1.405966e+05
   6.673052e+05  -2.726079e+05
   1.131879e+06  -5.931167e+03
   5.304966e+05   7.496227e+05
  -8.591108e+05   1.298492e+06
  -1.853307e+06   8.566253e+05
  -1.574809e+06  -4.304351e+05
  -3.235339e+05  -1.504761e+06
   8.271844e+05  -1.501315e+06
   1.127156e+06  -6.170877e+05
   7.016700e+05   2.208361e+05
   1.656990e+05   3.857401e+05
  -3.801131e+04   9.779410e+04
   1.011958e+05   1.066669e+04
   3.062226e+05   4.068934e+05
   2.551632e+05   8.688952e+05
  -1.780377e+05   7.428181e+05
  -7.264879e+05  -9.350899e+04
  -8.327489e+05  -9.876888e+05
  -1.852590e+05  -1.114975e+06
   7.816155e+05  -3.186993e+05
   1.138142e+06   7.237973e+05
   4.177701e+05   1.172137e+06
  -7.529040e+05   7.716587e+05
  -1.228140e+06  -5.394636e+04
  -6.054131e+05  -6.837783e+05
   3.041688e+05  -7.745903e+05
   4.408187e+05  -4.104804e+05
  -2.264445e+05   8.941763e+03
  -6.887383e+05   5.698650e+04
  -1.758417e+05  -3.380051e+05
   8.814482e+05  -7.355784e+05
   1.385401e+06  -5.660734e+05
   8.642156e+05   2.142526e+05
  -8.937893e+04   9.543091e+05
  -6.203391e+05   9.462425e+05
  -4.977701e+05   2.097639e+05
  -8.632810e+04  -4.985414e+05
   2.439717e+05  -4.950750e+05
   3.791605e+05   1.164374e+05
   2.879500e+05   6.171578e+05
  -4.054598e+04   4.956166e+05
  -4.236889e+05  -2.582619e+04
  -5.298297e+05  -3.220293e+05
  -2.631014e+05  -1.241386e+05
   5.832368e+04   1.910127e+05
   9.042965e+04   1.070851e+05
  -7.107879e+04  -3.562431e+05
  -2.993297e+04  -6.356498e+05
   3.161288e+05  -3.104745e+05
   5.509864e+05   3.556482e+05
   2.478748e+05   6.894867e+05
  -4.151559e+05   3.649762e+05
  -7.468483e+05  -2.642605e+05
  -3.032857e+05  -5.981826e+05
   5.527885e+05  -4.082711e+05
   9.761013e+05   4.884043e+04
   5.345819e+05   3.980614e+05
  -3.098542e+05   4.661543e+05
  -6.957062e+05   2.932777e+05
  -3.008398e+05   3.049715e+04
   3.282557e+05  -1.118116e+05
   4.232579e+05   1.686539e+04
  -1.401800e+05   2.901462e+05
  -7.373634e+05   3.074502e+05
