
 $NMID
 id='ANONYMOUS ', fmtdat='(2E16.6)'
 volume=1.0
 tramp=1.0
 $END
   2.474298e+07   8.559797e+05
   1.615542e+07   1.119403e+07
   1.153504e+05   1.508033e+07
  -1.025446e+07   1.080666e+07
  -8.974608e+06   1.943318e+06
  -9.370496e+05  -4.216355e+06
   4.910980e+06  -2.707833e+06
   4.159741e+06   3.732921e+06
  -7.659297e+05   7.193113e+06
  -4.579142e+06   3.432616e+06
  -4.154035e+06  -3.294981e+06
  -5.495891e+05  -5.455964e+06
   2.518576e+06  -1.005918e+06
   2.083229e+06   4.745332e+06
  -1.373877e+06   5.531789e+06
  -4.261195e+06   6.827599e+05
  -3.315569e+06  -4.967727e+06
   1.009113e+06  -6.417107e+06
   4.851374e+06  -3.025800e+06
   4.897860e+06   1.629187e+06
   1.806099e+06   3.655374e+06
  -6.794991e+05   2.531859e+06
   4.252531e+04   1.068840e+06
   2.521945e+06   1.838757e+06
   2.879119e+06   4.126424e+06
  -7.526665e+05   4.919231e+06
  -5.761993e+06   2.591449e+06
  -7.414587e+06  -1.237710e+06
  -3.804951e+06  -3.557932e+06
   1.839359e+06  -2.881953e+06
   4.255056e+06  -1.560811e+05
   1.555993e+06   2.327933e+06
  -2.948756e+06   2.498376e+06
  -4.559328e+06  -5.993769e+04
  -2.192430e+06  -3.335868e+06
   1.065350e+06  -4.200925e+06
   1.963228e+06  -1.627608e+06
   4.953184e+05   1.654302e+06
  -9.336153e+05   1.917894e+06
  -6.513969e+05  -1.065845e+06
   8.483788e+05  -3.545070e+06
   2.032813e+06  -2.342951e+06
   1.852319e+06   1.207739e+06
   2.944208e+05   2.944416e+06
  -1.568167e+06   9.129588e+05
  -1.945516e+06  -2.509035e+06
   2.170923e+05  -3.565227e+06
   3.569711e+06  -1.177831e+06
   4.925123e+06   2.354781e+06
   2.439942e+06   4.007926e+06
  -2.004171e+06   2.766255e+06
  -4.437014e+06   6.773923e+04
  -2.911355e+06  -1.797786e+06
   6.051373e+05  -1.638135e+06
   2.570901e+06  -1.309461e+05
   1.549692e+06   1.035622e+06
  -7.387448e+05   7.897614e+05
  -1.631905e+06  -4.347585e+05
  -3.353985e+05  -1.289897e+06
   1.438186e+06  -8.733213e+05
   1.427225e+06   4.438201e+05
  -6.295470e+05   1.339151e+06
  -2.502122e+06   6.692266e+05
  -1.771135e+06  -1.421822e+06
   1.419397e+06  -3.321179e+06
   4.337753e+06  -3.143932e+06
   4.553894e+06  -5.305751e+05
   2.399456e+06   2.755571e+06
   1.904295e+05   4.382720e+06
  -5.532722e+05   3.707424e+06
  -4.271248e+05   2.192326e+06
  -8.147972e+05   1.464523e+06
  -2.031114e+06   1.392410e+06
  -3.103242e+06   5.720714e+05
  -2.925341e+06  -1.451773e+06
  -1.269175e+06  -3.155276e+06
   1.023418e+06  -2.634221e+06
   2.482181e+06   5.450998e+04
   1.948504e+06   2.658853e+06
  -3.506925e+05   2.938339e+06
  -2.660255e+06   8.298309e+05
  -3.119286e+06  -1.713955e+06
  -1.556398e+06  -2.795112e+06
   3.894428e+05  -2.216994e+06
   1.125577e+06  -1.196976e+06
   8.371797e+05  -8.370745e+05
   1.042162e+06  -1.073278e+06
   2.492363e+06  -9.573760e+05
   3.941146e+06   2.621866e+05
   3.348367e+06   2.305808e+06
   2.886542e+05   3.916186e+06
  -3.169374e+06   3.778212e+06
  -4.296692e+06   1.687930e+06
  -2.423706e+06  -1.012879e+06
   4.011444e+05  -2.375698e+06
   1.560826e+06  -1.568912e+06
   4.542982e+05   2.713958e+05
  -1.243732e+06   1.147902e+06
  -1.647016e+06   2.922438e+05
  -5.535965e+05  -1.039115e+06
   6.985869e+05  -1.076032e+06
   7.947705e+05   2.970844e+05
  -3.715044e+05   1.279650e+06
  -1.731491e+06   2.291843e+05
  -1.909463e+06  -2.280902e+06
  -2.904340e+05  -3.854141e+06
   2.297463e+06  -2.754395e+06
   3.966004e+06   2.676674e+05
   3.308995e+06   2.765052e+06
   8.337436e+05   3.028832e+06
  -1.373377e+06   1.538791e+06
  -1.674970e+06   1.157850e+05
  -4.823454e+05  -3.192009e+04
   3.707147e+05   7.165136e+05
  -2.430842e+05   1.134440e+06
  -1.534922e+06   5.479715e+05
  -1.815362e+06  -5.550498e+05
  -5.166094e+05  -1.128923e+06
   1.058289e+06  -6.414067e+05
   1.104561e+06   4.072732e+05
  -6.526783e+05   9.296179e+05
  -2.484723e+06   2.403042e+05
  -2.367787e+06  -1.262863e+06
  -1.305795e+05  -2.349729e+06
   2.284508e+06  -2.011931e+06
   2.778274e+06  -4.367048e+05
   1.172199e+06   1.061067e+06
  -7.703648e+05   1.234038e+06
  -1.233830e+06   1.378738e+05
  -4.625777e+04  -9.030174e+05
   1.416780e+06  -6.809526e+05
   1.709191e+06   5.975443e+05
   6.080944e+05   1.559821e+06
  -8.244683e+05   1.212093e+06
  -1.286775e+06   2.732008e+04
  -4.619825e+05  -6.422172e+05
   6.443685e+05  -9.286732e+04
   6.749506e+05   1.004239e+06
  -6.245051e+05   1.380204e+06
  -2.007108e+06   4.789078e+05
  -1.976800e+06  -1.047266e+06
  -4.108236e+05  -1.985690e+06
   1.276890e+06  -1.628641e+06
   1.628369e+06  -3.436505e+05
   5.983817e+05   7.687957e+05
  -5.731928e+05   8.518717e+05
  -7.567346e+05   6.628530e+04
  -5.258586e+03  -6.200950e+05
   6.971578e+05  -4.919491e+05
   5.564368e+05   1.302382e+05
  -2.206968e+05   3.084455e+05
  -6.609522e+05  -3.452013e+05
  -4.583582e+04  -1.128425e+06
   1.265069e+06  -9.862058e+05
   2.070728e+06   3.161012e+05
   1.482471e+06   1.872550e+06
  -1.571167e+05   2.459814e+06
  -1.588589e+06   1.633917e+06
  -1.866369e+06   8.233308e+04
  -1.180723e+06  -1.024289e+06
  -4.517941e+05  -1.071438e+06
  -2.668750e+05  -4.891843e+05
  -3.568081e+05  -2.054999e+05
  -7.513605e+04  -5.819878e+05
   7.476582e+05  -9.828311e+05
   1.492949e+06  -5.349777e+05
   1.296583e+06   7.295299e+05
  -5.316033e+04   1.703941e+06
  -1.713134e+06   1.300425e+06
  -2.357030e+06  -3.694927e+05
  -1.319089e+06  -2.016427e+06
   7.378686e+05  -2.357026e+06
   2.337384e+06  -1.235776e+06
   2.451753e+06   3.593248e+05
   1.307412e+06   1.281397e+06
   6.848386e+03   1.216295e+06
  -5.596761e+05   7.848151e+05
  -4.194570e+05   7.361727e+05
  -2.578119e+05   1.087676e+06
  -5.824909e+05   1.126222e+06
  -1.169176e+06   2.855006e+05
  -1.302710e+06  -1.073896e+06
  -5.641176e+05  -1.893054e+06
   6.246577e+05  -1.445622e+06
   1.303581e+06  -6.809348e+04
   8.957570e+05   1.156298e+06
  -1.880715e+05   1.375470e+06
  -9.438984e+05   6.247060e+05
  -7.891961e+05  -3.661284e+05
  -1.106607e+05  -8.928007e+05
   2.455294e+05  -8.190213e+05
  -3.945508e+04  -5.198208e+05
  -3.966098e+05  -3.842932e+05
  -4.201897e+04  -4.090925e+05
   1.046236e+06  -2.740544e+05
   1.937491e+06   2.292859e+05
   1.633188e+06   9.058418e+05
   1.514592e+05   1.301907e+06
  -1.368518e+06   1.108345e+06
  -1.742274e+06   4.348513e+05
  -8.932130e+05  -2.503957e+05
   1.619081e+05  -4.669782e+05
   4.469914e+05  -1.364373e+05
  -2.633675e+04   2.882011e+05
  -5.027529e+05   2.337896e+05
  -4.617639e+05  -3.316947e+05
  -1.101475e+05  -7.673157e+05
   4.689039e+04  -4.918755e+05
  -1.488249e+05   2.157440e+05
  -3.997103e+05   4.471852e+05
  -3.226330e+05  -2.098920e+05
   1.941929e+05  -1.058404e+06
   8.764762e+05  -1.061792e+06
   1.180645e+06  -8.884955e+04
   6.835229e+05   9.139560e+05
  -3.992202e+05   9.986659e+05
  -1.148113e+06   2.041407e+05
  -7.231412e+05  -6.104481e+05
   6.434789e+05  -6.966369e+05
   1.662365e+06  -3.628242e+04
   1.246413e+06   7.907071e+05
  -2.958458e+05   1.135201e+06
  -1.530794e+06   7.480253e+05
  -1.388911e+06  -3.895322e+04
  -2.316651e+05  -5.502813e+05
   6.267620e+05  -3.594930e+05
   3.371248e+05   2.423115e+05
  -6.602722e+05   4.608418e+05
  -1.181950e+06  -1.834183e+05
  -5.518730e+05  -1.245615e+06
   7.390667e+05  -1.668800e+06
   1.566433e+06  -8.111808e+05
   1.274480e+06   8.057748e+05
   2.131051e+05   1.849601e+06
  -7.310171e+05   1.411393e+06
  -9.716711e+05  -6.436237e+04
  -5.625007e+05  -1.190998e+06
   7.682627e+04  -1.063687e+06
   5.336112e+05  -1.495874e+05
   5.781294e+05   3.991848e+05
   2.743690e+05   1.709090e+05
   5.966000e+03  -1.283778e+05
   1.359274e+05   2.284527e+05
   4.750982e+05   9.461573e+05
   3.381823e+05   1.115005e+06
  -5.750458e+05   4.326614e+05
  -1.530855e+06  -4.535258e+05
  -1.438412e+06  -8.285730e+05
  -2.154304e+05  -6.836106e+05
   9.665495e+05  -4.316966e+05
   1.038665e+06  -2.420058e+05
   2.797460e+05  -1.205887e+04
  -1.851966e+05   2.199192e+05
   9.189525e+04   2.664432e+05
   4.042491e+05   1.619868e+05
   2.434887e+03   1.474621e+05
  -8.124927e+05   2.003612e+05
  -1.049313e+06  -4.594605e+04
  -2.539315e+05  -6.845154e+05
   9.725730e+05  -1.124975e+06
   1.637160e+06  -6.789332e+05
   1.278278e+06   5.074555e+05
   2.360251e+05   1.449771e+06
  -7.407833e+05   1.357875e+06
  -1.065395e+06   4.648977e+05
  -6.881221e+05  -3.054018e+05
  -8.206855e+04  -3.651321e+05
   1.828782e+05   3.109554e+03
  -3.990211e+04   1.014872e+05
  -3.638637e+05  -3.340417e+05
  -3.017145e+05  -8.191052e+05
   2.089712e+05  -6.628952e+05
   7.180744e+05   2.064198e+05
   6.784129e+05   1.048292e+06
  -1.648680e+04   1.035243e+06
  -8.378632e+05   1.381891e+05
  -1.013333e+06  -8.374586e+05
  -2.765991e+05  -1.100037e+06
   7.442110e+05  -6.015791e+05
   1.078338e+06   1.109976e+05
   4.709389e+05   5.448775e+05
  -2.873249e+05   5.831306e+05
  -2.923499e+05   3.448087e+05
   3.555719e+05   4.503662e+04
   6.874892e+05  -2.460961e+04
   1.126028e+05   2.928764e+05
  -8.361951e+05   7.026644e+05
  -1.184518e+06   6.238223e+05
  -6.655939e+05  -1.000490e+05
   1.084018e+05  -8.389227e+05
   4.693370e+05  -8.222502e+05
   3.297081e+05  -8.620589e+04
   7.231634e+02   5.300667e+05
  -2.638461e+05   3.858717e+05
  -3.655289e+05  -2.413195e+05
  -2.424251e+05  -5.895819e+05
   8.152779e+04  -3.487543e+05
   3.929899e+05   8.713913e+04
   4.465452e+05   2.211825e+05
   2.428327e+05   3.945434e+04
   1.492506e+04  -8.095384e+04
  -7.776769e+04   1.070076e+05
  -1.164195e+05   4.218376e+05
  -2.381657e+05   4.600796e+05
  -3.869808e+05   5.242910e+04
  -3.427119e+05  -4.996324e+05
   7.383295e+03  -6.763194e+05
   4.633811e+05  -2.732095e+05
   6.126355e+05   3.489996e+05
   2.090888e+05   6.216268e+05
  -4.883145e+05   3.546263e+05
  -8.405761e+05  -1.234153e+05
  -4.562291e+05  -3.878323e+05
   3.014773e+05  -3.341171e+05
   6.252218e+05  -1.416758e+05
   1.804880e+05  -1.124131e+03
  -4.551665e+05  -5.315822e+03
  -4.548813e+05  -1.693602e+05
   2.537591e+05  -3.581770e+05
   8.911862e+05  -2.715233e+05
