
 $NMID
 id='ANONYMOUS ', fmtdat='(2E16.6)'
 volume=1.0
 tramp=1.0
 $END
   4.410887e+07  -2.806050e+06
   2.896264e+07   2.454680e+07
  -2.859588e+06   3.004881e+07
  -2.062054e+07   1.418082e+07
  -1.401959e+07  -3.448794e+06
   1.489326e+06  -7.702802e+06
   8.117512e+06  -4.084586e+05
   3.518824e+06   7.528111e+06
  -4.003012e+06   8.585155e+06
  -7.695267e+06   2.738737e+06
  -6.090920e+06  -4.713575e+06
  -1.063779e+06  -7.183315e+06
   3.204190e+06  -2.298398e+06
   2.512690e+06   4.782254e+06
  -2.649714e+06   6.042730e+06
  -6.513698e+06  -3.429367e+05
  -4.341180e+06  -7.959804e+06
   2.256668e+06  -9.784985e+06
   7.751549e+06  -5.227403e+06
   8.582029e+06   1.254508e+06
   5.279006e+06   5.569885e+06
   8.061950e+05   6.378486e+06
  -1.559135e+06   4.567787e+06
  -5.147356e+05   2.542771e+06
   1.421699e+06   2.548177e+06
   5.789033e+04   3.994882e+06
  -4.885413e+06   3.747716e+06
  -8.296774e+06   3.981926e+05
  -5.871909e+06  -3.343120e+06
   4.065476e+04  -4.062165e+06
   3.407524e+06  -1.876706e+06
   1.963670e+06   4.624736e+05
  -1.206136e+06   1.177553e+06
  -2.658463e+06   2.607704e+05
  -1.970117e+06  -1.777125e+06
  -2.600829e+05  -3.628590e+06
   1.525944e+06  -3.041455e+06
   2.238670e+06   2.912033e+05
   1.096333e+06   2.771031e+06
  -4.887860e+05   1.048786e+06
  -2.589475e+04  -2.490107e+06
   2.115400e+06  -2.226775e+06
   2.308240e+06   2.370436e+06
  -1.224816e+06   5.077706e+06
  -5.031108e+06   1.371041e+06
  -4.343255e+06  -4.989583e+06
   8.554479e+05  -6.762230e+06
   5.765434e+06  -2.312637e+06
   6.147415e+06   3.299553e+06
   2.123001e+06   5.058722e+06
  -2.785914e+06   2.704766e+06
  -4.800505e+06  -8.285865e+05
  -2.557636e+06  -2.787431e+06
   1.700117e+06  -2.079337e+06
   3.796209e+06   3.632516e+05
   1.878711e+06   2.041891e+06
  -1.279151e+06   1.236097e+06
  -1.656840e+06  -7.553531e+05
   7.914142e+05  -1.084899e+06
   2.223589e+06   8.275328e+05
   2.133543e+05   2.549168e+06
  -3.180464e+06   1.948554e+06
  -4.338722e+06  -4.629756e+05
  -2.238229e+06  -2.948618e+06
   1.353627e+06  -4.441833e+06
   4.276578e+06  -4.203359e+06
   5.222150e+06  -1.537828e+06
   3.788027e+06   2.607707e+06
   9.232925e+05   5.217609e+06
  -1.229952e+06   4.278702e+06
  -1.330050e+06   1.493665e+06
  -4.247330e+05   1.630575e+05
  -4.943088e+05   8.985576e+05
  -1.756674e+06   1.317469e+06
  -2.551243e+06  -1.359618e+05
  -1.689948e+06  -2.020391e+06
   2.081678e+05  -2.081577e+06
   1.674828e+06  -1.301429e+05
   1.670525e+06   2.053699e+06
  -7.048726e+03   2.725061e+06
  -2.467478e+06   1.411073e+06
  -3.819865e+06  -1.061622e+06
  -2.709632e+06  -3.088275e+06
  -7.758078e+04  -3.398870e+06
   1.680149e+06  -2.245899e+06
   1.675489e+06  -1.099426e+06
   1.503668e+06  -8.179587e+05
   2.631678e+06  -6.661486e+05
   3.984647e+06   4.508132e+05
   3.302704e+06   2.365737e+06
   2.785647e+05   3.797323e+06
  -2.872474e+06   3.686300e+06
  -3.850218e+06   1.967152e+06
  -2.406808e+06  -4.628597e+05
  -1.390960e+05  -2.083434e+06
   1.081615e+06  -1.725270e+06
   4.978182e+05   6.977764e+04
  -1.009862e+06   1.209280e+06
  -1.705866e+06   4.169558e+05
  -8.155046e+05  -1.043754e+06
   4.987418e+05  -1.049474e+06
   5.169135e+05   3.390418e+05
  -8.218500e+05   8.670110e+05
  -1.807750e+06  -7.526664e+05
  -1.072966e+06  -2.993139e+06
   9.448024e+05  -3.435167e+06
   2.773290e+06  -1.575456e+06
   3.349508e+06   1.008460e+06
   2.451689e+06   2.580302e+06
   5.613096e+05   2.551290e+06
  -1.162399e+06   1.408238e+06
  -1.491605e+06   2.173729e+05
  -4.618730e+05  -2.890626e+04
   3.625308e+05   6.843465e+05
  -2.943410e+05   1.224466e+06
  -1.675457e+06   6.076794e+05
  -1.896338e+06  -6.807014e+05
  -4.545624e+05  -1.255159e+06
   1.052723e+06  -5.982109e+05
   9.032786e+05   3.924874e+05
  -7.440347e+05   6.142251e+05
  -2.142483e+06  -1.211789e+05
  -1.820144e+06  -1.230270e+06
   1.084080e+05  -1.959395e+06
   2.129674e+06  -1.693691e+06
   2.600895e+06  -3.645970e+05
   1.174779e+06   1.105137e+06
  -7.721564e+05   1.377082e+06
  -1.378673e+06   2.244801e+05
  -1.931807e+05  -9.574423e+05
   1.372968e+06  -7.248327e+05
   1.639619e+06   6.415739e+05
   4.316213e+05   1.533805e+06
  -9.456279e+05   1.019020e+06
  -1.215250e+06  -1.756339e+05
  -3.178528e+05  -7.040279e+05
   7.024164e+05  -9.538232e+04
   7.034549e+05   9.429707e+05
  -5.065179e+05   1.328663e+06
  -1.856054e+06   5.434280e+05
  -1.916610e+06  -9.258599e+05
  -4.236758e+05  -1.913410e+06
   1.269137e+06  -1.582044e+06
   1.601039e+06  -2.773472e+05
   5.269873e+05   7.862121e+05
  -5.764048e+05   7.915941e+05
  -6.239702e+05   8.520115e+04
   7.775204e+04  -4.055328e+05
   5.108432e+05  -2.662863e+05
   2.142279e+05   8.972170e+04
  -3.824343e+05   3.662506e+04
  -5.448951e+05  -5.461930e+05
   1.047434e+05  -1.110042e+06
   1.246842e+06  -8.947759e+05
   1.957364e+06   3.131233e+05
   1.424743e+06   1.765888e+06
  -1.322740e+05   2.284436e+06
  -1.484145e+06   1.417289e+06
  -1.639472e+06  -3.771078e+04
  -8.957033e+05  -8.701445e+05
  -3.223202e+05  -7.145635e+05
  -3.849365e+05  -2.501581e+05
  -5.302839e+05  -2.386303e+05
  -1.032934e+05  -6.658895e+05
   7.741595e+05  -8.839067e+05
   1.364497e+06  -3.795474e+05
   1.050443e+06   6.667007e+05
  -1.680316e+05   1.435312e+06
  -1.592171e+06   1.094243e+06
  -2.143045e+06  -3.771120e+05
  -1.160197e+06  -1.924231e+06
   8.191581e+05  -2.248308e+06
   2.313922e+06  -1.087123e+06
   2.256565e+06   4.920816e+05
   1.016266e+06   1.233849e+06
  -1.314744e+05   9.662423e+05
  -4.068468e+05   5.444553e+05
  -1.368960e+05   6.858618e+05
  -9.190252e+04   1.165887e+06
  -5.671599e+05   1.188189e+06
  -1.171307e+06   3.284184e+05
  -1.270679e+06  -9.744190e+05
  -5.706037e+05  -1.759081e+06
   5.466134e+05  -1.363193e+06
   1.210833e+06  -4.744135e+04
   8.184293e+05   1.153195e+06
  -2.807614e+05   1.320818e+06
  -1.034937e+06   4.721328e+05
  -7.857939e+05  -5.507000e+05
   2.338434e+04  -9.755347e+05
   4.127812e+05  -7.675357e+05
   4.374088e+04  -4.236498e+05
  -4.006099e+05  -3.150614e+05
  -5.758960e+04  -3.622425e+05
   1.047419e+06  -2.425005e+05
   1.910286e+06   2.313492e+05
   1.547578e+06   8.988245e+05
   5.355135e+04   1.318754e+06
  -1.402664e+06   1.108859e+06
  -1.693671e+06   3.481243e+05
  -8.191573e+05  -3.849566e+05
   2.018889e+05  -5.183423e+05
   4.669723e+05  -7.112152e+04
   2.897945e+04   3.589943e+05
  -4.241072e+05   2.429789e+05
  -4.550014e+05  -3.067108e+05
  -2.173662e+05  -6.753349e+05
  -6.694272e+04  -4.430029e+05
  -1.351351e+05   1.187231e+05
  -2.881490e+05   3.098961e+05
  -2.714720e+05  -2.068426e+05
   1.258804e+05  -9.376834e+05
   8.073373e+05  -1.016888e+06
   1.220022e+06  -1.857294e+05
   7.795536e+05   8.252034e+05
  -3.491511e+05   1.043520e+06
  -1.136533e+06   3.209194e+05
  -6.967793e+05  -5.266631e+05
   6.309133e+05  -6.381055e+05
   1.513007e+06   2.518910e+04
   1.020208e+06   7.792566e+05
  -3.944460e+05   9.795334e+05
  -1.411626e+06   5.434823e+05
  -1.200877e+06  -1.217173e+05
  -1.585567e+05  -4.907480e+05
   6.002443e+05  -2.903248e+05
   3.598459e+05   2.506782e+05
  -5.464262e+05   4.874286e+05
  -1.104570e+06  -6.537101e+04
  -6.322934e+05  -1.095966e+06
   5.364085e+05  -1.597367e+06
   1.380898e+06  -8.508208e+05
   1.199648e+06   6.875007e+05
   2.372044e+05   1.687030e+06
  -6.635351e+05   1.257494e+06
  -8.866025e+05  -1.203913e+05
  -4.623343e+05  -1.111413e+06
   1.553166e+05  -9.393405e+05
   5.210753e+05  -1.082429e+05
   4.677787e+05   3.503554e+05
   1.773607e+05   1.356339e+05
   3.642873e+04  -9.967590e+04
   2.457274e+05   2.490060e+05
   4.990211e+05   8.865553e+05
   2.354562e+05   1.020628e+06
  -6.344738e+05   4.040757e+05
  -1.407473e+06  -3.963000e+05
  -1.253593e+06  -7.560606e+05
  -1.985357e+05  -6.486556e+05
   8.103730e+05  -4.135479e+05
   9.308226e+05  -2.063262e+05
   3.283092e+05   2.431280e+04
  -1.371331e+05   2.134332e+05
  -8.744390e+03   2.108111e+05
   2.714968e+05   9.902460e+04
   4.228647e+04   1.226471e+05
  -6.374077e+05   2.271300e+05
  -9.809168e+05   1.463543e+04
  -3.972336e+05  -6.265870e+05
   7.737096e+05  -1.115578e+06
   1.558659e+06  -7.512247e+05
   1.312152e+06   3.684836e+05
   2.919416e+05   1.316564e+06
  -6.734049e+05   1.312159e+06
  -9.670755e+05   5.243317e+05
  -6.231712e+05  -2.106378e+05
  -1.282285e+05  -3.301255e+05
   7.763606e+04  -4.814206e+04
  -7.347035e+04   3.307781e+04
  -3.043690e+05  -3.337956e+05
  -2.647607e+05  -7.550526e+05
   1.501410e+05  -6.394076e+05
   6.442383e+05   1.057179e+05
   7.107992e+05   8.803446e+05
   1.229805e+05   9.588948e+05
  -7.054788e+05   2.376557e+05
  -9.861447e+05  -6.583142e+05
  -3.517074e+05  -1.009691e+06
   6.482309e+05  -6.470355e+05
   1.045036e+06   3.712110e+04
   5.136390e+05   5.453845e+05
  -2.426786e+05   6.326325e+05
  -3.309303e+05   3.588689e+05
   2.454008e+05   1.123869e+04
   6.127031e+05  -5.364510e+04
   1.436562e+05   2.808632e+05
  -7.560933e+05   6.664543e+05
  -1.159779e+06   5.621940e+05
  -7.129543e+05  -1.273596e+05
   6.248962e+04  -8.150799e+05
   4.787260e+05  -8.215641e+05
   3.784368e+05  -1.608460e+05
   5.665751e+04   4.519791e+05
  -2.110794e+05   4.090727e+05
  -3.322939e+05  -1.391205e+05
  -2.554336e+05  -5.347343e+05
   3.500092e+04  -3.918823e+05
   3.667962e+05   3.421619e+04
   4.554987e+05   2.391848e+05
   2.338826e+05   7.582092e+04
  -3.484467e+04  -1.288604e+05
  -8.624570e+04  -1.956909e+04
   4.134134e+03   3.331793e+05
  -4.635862e+04   4.980173e+05
  -2.918836e+05   1.927761e+05
  -4.233355e+05  -3.491077e+05
  -1.482562e+05  -5.979772e+05
   3.771025e+05  -3.014447e+05
   6.237636e+05   2.454150e+05
   2.500689e+05   5.331115e+05
  -4.615514e+05   3.600354e+05
  -8.242469e+05  -4.428781e+04
  -4.596970e+05  -3.384373e+05
   2.597538e+05  -3.782837e+05
   5.866773e+05  -2.272124e+05
   2.262954e+05  -2.736541e+04
  -3.308934e+05   6.262313e+04
  -3.848975e+05  -5.970559e+04
   1.605259e+05  -2.822034e+05
   7.048416e+05  -2.728870e+05
