
 $NMID
 id='ANONYMOUS ', fmtdat='(2E16.6)'
 volume=1.0
 tramp=1.0
 $END
   5.924479e+07  -7.610934e+05
   3.617143e+07   3.606063e+07
  -7.168930e+06   4.013979e+07
  -2.874692e+07   1.596093e+07
  -1.750104e+07  -6.955269e+06
   3.258851e+06  -9.871464e+06
   1.038284e+07   1.019211e+06
   3.176570e+06   1.021734e+07
  -6.313702e+06   1.003289e+07
  -1.013701e+07   2.336380e+06
  -7.487740e+06  -6.447042e+06
  -9.883743e+05  -9.103330e+06
   4.191614e+06  -2.938416e+06
   2.884942e+06   5.774726e+06
  -3.855974e+06   7.042341e+06
  -8.330184e+06  -1.246623e+06
  -4.868541e+06  -1.068922e+07
   3.786709e+06  -1.250682e+07
   1.055938e+07  -6.370969e+06
   1.140384e+07   2.030064e+06
   7.034034e+06   7.792966e+06
   8.197051e+05   9.041892e+06
  -2.926862e+06   6.354385e+06
  -1.790806e+06   2.887492e+06
   1.283353e+06   2.369709e+06
   2.994273e+05   4.502696e+06
  -5.743085e+06   4.731387e+06
  -1.027695e+07   6.149419e+05
  -7.503693e+06  -4.304108e+06
  -2.698891e+05  -5.351250e+06
   3.974430e+06  -2.730205e+06
   2.624438e+06   3.452840e+04
  -7.250676e+05   1.079288e+06
  -2.528645e+06   5.419162e+05
  -2.379454e+06  -1.579106e+06
  -7.356315e+05  -4.222921e+06
   1.884710e+06  -4.079174e+06
   3.368000e+06   1.241390e+05
   1.790522e+06   3.812676e+06
  -7.990689e+05   1.962379e+06
  -3.597142e+05  -2.677135e+06
   2.591136e+06  -2.513099e+06
   2.653879e+06   3.317574e+06
  -2.407785e+06   6.498870e+06
  -7.234627e+06   1.190086e+06
  -5.475096e+06  -7.187227e+06
   1.858802e+06  -8.989514e+06
   7.787327e+06  -2.657065e+06
   7.452540e+06   4.595949e+06
   2.094598e+06   6.376249e+06
  -3.640680e+06   2.968720e+06
  -5.646045e+06  -1.503007e+06
  -2.677933e+06  -3.651702e+06
   2.494671e+06  -2.378414e+06
   4.803970e+06   8.842417e+05
   2.121366e+06   2.831421e+06
  -1.787628e+06   1.476783e+06
  -1.883578e+06  -1.057196e+06
   1.340683e+06  -1.027273e+06
   2.651621e+06   1.738911e+06
  -5.208026e+05   3.587550e+06
  -4.779343e+06   2.094539e+06
  -5.605906e+06  -1.294326e+06
  -2.528563e+06  -4.136020e+06
   1.847957e+06  -5.605925e+06
   5.289990e+06  -5.208373e+06
   6.568415e+06  -1.916762e+06
   4.883173e+06   3.313404e+06
   1.073113e+06   6.553499e+06
  -1.882329e+06   5.118637e+06
  -1.829166e+06   1.382229e+06
  -2.123011e+05  -1.994174e+05
  -4.228268e+04   1.068505e+06
  -1.763341e+06   1.899629e+06
  -3.033803e+06   2.295233e+05
  -2.185096e+06  -2.105174e+06
  -1.507926e+04  -2.337930e+06
   1.715787e+06  -2.345367e+05
   1.855912e+06   2.243752e+06
   3.169928e+04   3.170714e+06
  -2.957017e+06   1.792274e+06
  -4.783630e+06  -1.239999e+06
  -3.459592e+06  -3.965381e+06
  -8.715967e+03  -4.474757e+06
   2.365786e+06  -2.901149e+06
   2.333864e+06  -1.248025e+06
   1.937886e+06  -7.801654e+05
   3.155312e+06  -5.785417e+05
   4.695383e+06   7.436987e+05
   3.801461e+06   2.927047e+06
   2.017625e+05   4.456299e+06
  -3.417221e+06   4.258932e+06
  -4.494163e+06   2.334448e+06
  -2.872870e+06  -4.423122e+05
  -3.032754e+05  -2.421490e+06
   1.183347e+06  -2.096142e+06
   6.079340e+05   3.970944e+04
  -1.167354e+06   1.428510e+06
  -2.053394e+06   4.546696e+05
  -1.003008e+06  -1.288183e+06
   5.534997e+05  -1.214580e+06
   4.836875e+05   4.142861e+05
  -1.123874e+06   7.921975e+05
  -2.027833e+06  -1.317894e+06
  -7.895586e+05  -3.730324e+06
   1.619160e+06  -3.734606e+06
   3.363835e+06  -1.300683e+06
   3.625678e+06   1.488183e+06
   2.530848e+06   2.966565e+06
   5.337393e+05   2.837614e+06
  -1.331940e+06   1.604863e+06
  -1.711992e+06   2.631970e+05
  -5.354117e+05  -4.361653e+04
   3.988213e+05   8.118156e+05
  -4.282162e+05   1.457445e+06
  -2.056458e+06   6.520201e+05
  -2.216496e+06  -9.321833e+05
  -4.392028e+05  -1.529542e+06
   1.265150e+06  -6.368532e+05
   9.764113e+05   4.843224e+05
  -9.136703e+05   5.834373e+05
  -2.379820e+06  -3.132382e+05
  -1.921948e+06  -1.453931e+06
   2.420266e+05  -2.151747e+06
   2.489664e+06  -1.829967e+06
   3.011629e+06  -3.318488e+05
   1.337549e+06   1.358164e+06
  -9.785393e+05   1.639874e+06
  -1.688697e+06   2.246408e+05
  -2.296656e+05  -1.169746e+06
   1.639338e+06  -8.188230e+05
   1.878294e+06   8.283223e+05
   3.887970e+05   1.793243e+06
  -1.174780e+06   1.077714e+06
  -1.372383e+06  -3.224693e+05
  -2.782053e+05  -8.471762e+05
   8.650336e+05  -6.973662e+04
   8.139983e+05   1.136912e+06
  -6.094689e+05   1.556470e+06
  -2.177924e+06   6.147282e+05
  -2.227477e+06  -1.117779e+06
  -4.427488e+05  -2.252661e+06
   1.546907e+06  -1.804797e+06
   1.875931e+06  -2.492115e+05
   5.568818e+05   9.397099e+05
  -7.076433e+05   8.822147e+05
  -6.892359e+05   9.015734e+04
   1.247305e+05  -3.954267e+05
   5.338405e+05  -2.337512e+05
   1.362695e+05   7.085416e+04
  -4.877294e+05  -7.615705e+04
  -5.718287e+05  -7.236898e+05
   2.101021e+05  -1.293614e+06
   1.493102e+06  -9.904565e+05
   2.269715e+06   4.256787e+05
   1.617311e+06   2.096809e+06
  -2.065484e+05   2.636469e+06
  -1.740345e+06   1.556076e+06
  -1.839853e+06  -1.171624e+05
  -9.437101e+05  -9.657374e+05
  -3.523962e+05  -7.066894e+05
  -5.203925e+05  -2.333927e+05
  -6.848973e+05  -3.324435e+05
  -1.081608e+05  -8.294394e+05
   9.422298e+05  -9.902266e+05
   1.571345e+06  -3.701982e+05
   1.149924e+06   7.734092e+05
  -2.551132e+05   1.590590e+06
  -1.860218e+06   1.186740e+06
  -2.450739e+06  -4.992283e+05
  -1.258000e+06  -2.271014e+06
   1.070359e+06  -2.585535e+06
   2.753606e+06  -1.152008e+06
   2.564994e+06   6.897970e+05
   1.055170e+06   1.445275e+06
  -2.134899e+05   1.030983e+06
  -4.173975e+05   5.591479e+05
  -7.560306e+04   8.198366e+05
  -9.591059e+04   1.422809e+06
  -7.131862e+05   1.410040e+06
  -1.403302e+06   3.629648e+05
  -1.468814e+06  -1.158084e+06
  -6.297210e+05  -2.053686e+06
   6.581283e+05  -1.571193e+06
   1.398404e+06  -1.329620e+04
   8.991526e+05   1.386521e+06
  -4.083459e+05   1.523525e+06
  -1.260657e+06   4.546060e+05
  -8.911273e+05  -7.498625e+05
   1.215969e+05  -1.172355e+06
   5.753393e+05  -8.573357e+05
   8.815849e+04  -4.529884e+05
  -4.760444e+05  -3.590471e+05
  -7.044605e+04  -4.158970e+05
   1.247491e+06  -2.428004e+05
   2.249440e+06   3.355432e+05
   1.772405e+06   1.107979e+06
  -2.442231e+04   1.562718e+06
  -1.716093e+06   1.261812e+06
  -1.989721e+06   3.239881e+05
  -9.126546e+05  -5.295574e+05
   2.775539e+05  -6.236065e+05
   5.569487e+05  -4.217606e+04
   4.011893e+04   4.594311e+05
  -4.770144e+05   2.878747e+05
  -5.292124e+05  -3.651564e+05
  -2.893039e+05  -7.818168e+05
  -1.145650e+05  -5.195723e+05
  -1.478195e+05   1.024192e+05
  -2.971750e+05   3.185812e+05
  -3.020408e+05  -2.494871e+05
   1.380572e+05  -1.073644e+06
   9.635000e+05  -1.173394e+06
   1.484507e+06  -2.134827e+05
   9.460175e+05   9.822434e+05
  -4.348811e+05   1.250469e+06
  -1.366958e+06   3.909883e+05
  -8.077940e+05  -6.107923e+05
   7.565694e+05  -7.141434e+05
   1.726907e+06   8.646258e+04
   1.097520e+06   9.278293e+05
  -5.201985e+05   1.077358e+06
  -1.622850e+06   5.310089e+05
  -1.337924e+06  -1.968751e+05
  -1.489887e+05  -5.560672e+05
   7.043736e+05  -2.980329e+05
   4.253407e+05   3.172812e+05
  -6.245675e+05   5.823432e+05
  -1.290685e+06  -6.152825e+04
  -7.602100e+05  -1.271167e+06
   6.016581e+05  -1.868992e+06
   1.595286e+06  -9.982668e+05
   1.381917e+06   7.989597e+05
   2.528279e+05   1.945388e+06
  -7.849710e+05   1.415399e+06
  -1.008277e+06  -1.854901e+05
  -4.799027e+05  -1.292472e+06
   2.355121e+05  -1.052265e+06
   6.144508e+05  -9.538562e+04
   5.047133e+05   4.015896e+05
   1.701384e+05   1.437725e+05
   5.538804e+04  -1.013840e+05
   3.246411e+05   3.242900e+05
   5.769129e+05   1.047189e+06
   2.125877e+05   1.168992e+06
  -7.869597e+05   4.394244e+05
  -1.612044e+06  -4.810966e+05
  -1.395295e+06  -8.897112e+05
  -2.117322e+05  -7.606026e+05
   9.098923e+05  -4.734455e+05
   1.064204e+06  -2.110561e+05
   4.046212e+05   5.915648e+04
  -1.493532e+05   2.499853e+05
  -5.073382e+04   2.161032e+05
   2.734558e+05   8.834247e+04
   6.473216e+04   1.431448e+05
  -6.974630e+05   2.779700e+05
  -1.143907e+06   1.513131e+04
  -5.137416e+05  -7.490562e+05
   8.745766e+05  -1.314195e+06
   1.850114e+06  -8.760378e+05
   1.572754e+06   4.283020e+05
   3.394421e+05   1.524124e+06
  -8.111504e+05   1.524156e+06
  -1.133218e+06   6.246744e+05
  -7.174969e+05  -2.269363e+05
  -1.630691e+05  -3.883527e+05
   5.761281e+04  -8.653874e+04
  -9.466780e+04   6.010325e+03
  -3.263010e+05  -4.005686e+05
  -2.796305e+05  -8.761268e+05
   1.751613e+05  -7.499426e+05
   7.420273e+05   1.003981e+05
   8.432724e+05   1.004980e+06
   1.770570e+05   1.125111e+06
  -8.017283e+05   3.116807e+05
  -1.155322e+06  -7.388007e+05
  -4.234489e+05  -1.180984e+06
   7.567638e+05  -7.747847e+05
   1.233691e+06   4.572597e+04
   6.087533e+05   6.700494e+05
  -2.972465e+05   7.681784e+05
  -4.232132e+05   4.160107e+05
   2.493339e+05  -4.832520e+03
   7.021289e+05  -6.338398e+04
   1.753348e+05   3.364082e+05
  -8.831463e+05   7.590087e+05
  -1.378196e+06   6.055566e+05
  -8.575175e+05  -1.908405e+05
   8.044340e+04  -9.596498e+05
   5.989890e+05  -9.573740e+05
   4.819661e+05  -2.035983e+05
   8.330160e+04   5.123696e+05
  -2.450397e+05   4.936400e+05
  -3.870961e+05  -1.310088e+05
  -2.963804e+05  -6.222109e+05
   4.032970e+04  -4.861485e+05
   4.288319e+05   2.888496e+04
   5.338006e+05   3.072627e+05
   2.674158e+05   1.112476e+05
  -5.187761e+04  -1.788979e+05
  -9.167478e+04  -7.814565e+04
   5.165149e+04   3.722608e+05
   1.851733e+03   6.246283e+05
  -3.288106e+05   2.856233e+05
  -5.388734e+05  -3.758085e+05
  -2.272228e+05  -6.990978e+05
   4.255681e+05  -3.657986e+05
   7.476367e+05   2.712387e+05
   3.050414e+05   6.097698e+05
  -5.495888e+05   4.170567e+05
  -9.784358e+05  -4.653986e+04
  -5.405654e+05  -3.974492e+05
   3.087454e+05  -4.619981e+05
   6.966637e+05  -2.881723e+05
   2.900953e+05  -3.101656e+04
  -3.515357e+05   1.029533e+05
  -4.372703e+05  -3.232547e+04
   1.546017e+05  -3.080964e+05
   7.700392e+05  -3.198833e+05
