
 $NMID
 id='ANONYMOUS ', fmtdat='(2E16.6)'
 volume=1.0
 tramp=1.0
 $END
  -6.130862e+07   5.409637e+04
  -3.670067e+07  -3.838759e+07
   8.465429e+06  -4.162701e+07
   3.018752e+07  -1.548164e+07
   1.772610e+07   8.118298e+06
  -3.838529e+06   1.011278e+07
  -1.060980e+07  -1.661122e+06
  -2.716603e+06  -1.066701e+07
   6.928130e+06  -9.831726e+06
   1.044789e+07  -1.914497e+06
   7.499905e+06   6.678663e+06
   8.811123e+05   9.181701e+06
  -4.258335e+06   3.007749e+06
  -2.775070e+06  -5.675856e+06
   4.115584e+06  -6.853678e+06
   8.480406e+06   1.579558e+06
   4.702850e+06   1.105138e+07
  -4.169453e+06   1.271682e+07
  -1.095054e+07   6.397417e+06
  -1.175676e+07  -2.148577e+06
  -7.329051e+06  -8.112917e+06
  -8.546420e+05  -9.546757e+06
   3.304640e+06  -6.745591e+06
   2.344916e+06  -2.854223e+06
  -9.850002e+05  -2.020174e+06
  -3.813700e+05  -4.242273e+06
   5.537466e+06  -4.737909e+06
   1.020421e+07  -7.066810e+05
   7.603513e+06   4.308452e+06
   4.740933e+05   5.446427e+06
  -3.786295e+06   2.906603e+06
  -2.655790e+06   2.511320e+05
   3.828393e+05  -8.299689e+05
   2.131878e+06  -5.850876e+05
   2.290562e+06   1.278310e+06
   9.163704e+05   4.039907e+06
  -1.836847e+06   4.212791e+06
  -3.616785e+06   4.939572e+04
  -2.033259e+06  -3.929812e+06
   8.227805e+05  -2.284763e+06
   4.867829e+05   2.439054e+06
  -2.576676e+06   2.386980e+06
  -2.587485e+06  -3.488365e+06
   2.773997e+06  -6.643093e+06
   7.705192e+06  -1.051671e+06
   5.596529e+06   7.592955e+06
  -2.144719e+06   9.297292e+06
  -8.054662e+06   2.621719e+06
  -7.387733e+06  -4.798836e+06
  -1.858074e+06  -6.429722e+06
   3.731407e+06  -2.800859e+06
   5.517462e+06   1.725584e+06
   2.463662e+06   3.760619e+06
  -2.669298e+06   2.318950e+06
  -4.866005e+06  -1.055744e+06
  -2.052935e+06  -2.969337e+06
   1.869830e+06  -1.469165e+06
   1.809327e+06   1.115472e+06
  -1.523345e+06   9.088482e+05
  -2.655152e+06  -2.063684e+06
   8.367978e+05  -3.837408e+06
   5.167518e+06  -2.018010e+06
   5.749692e+06   1.591295e+06
   2.452452e+06   4.355003e+06
  -1.895916e+06   5.642796e+06
  -5.244038e+06   5.192801e+06
  -6.572395e+06   1.937762e+06
  -4.962637e+06  -3.304204e+06
  -1.061624e+06  -6.563728e+06
   2.042022e+06  -5.043223e+06
   1.944480e+06  -1.176170e+06
   1.024629e+05   4.158708e+05
  -2.260626e+05  -9.886732e+05
   1.525972e+06  -1.983067e+06
   2.918905e+06  -4.162624e+05
   2.189548e+06   1.888011e+06
   1.341002e+05   2.187552e+06
  -1.527805e+06   2.456517e+05
  -1.727348e+06  -2.098685e+06
  -4.536574e+04  -3.052303e+06
   2.882965e+06  -1.805352e+06
   4.778964e+06   1.177933e+06
   3.513137e+06   3.991107e+06
   2.489307e+03   4.583271e+06
  -2.470210e+06   2.972180e+06
  -2.450847e+06   1.214697e+06
  -1.980503e+06   6.761836e+05
  -3.105817e+06   4.576420e+05
  -4.570789e+06  -8.350043e+05
  -3.649793e+06  -2.922462e+06
  -1.249316e+05  -4.323877e+06
   3.343701e+06  -4.085361e+06
   4.339425e+06  -2.262622e+06
   2.795819e+06   3.765666e+05
   3.587663e+05   2.319472e+06
  -1.098749e+06   2.057211e+06
  -5.975961e+05  -1.359325e+04
   1.120283e+06  -1.384298e+06
   2.016355e+06  -4.269262e+05
   9.994348e+05   1.274757e+06
  -5.205912e+05   1.165753e+06
  -4.073132e+05  -4.175958e+05
   1.186138e+06  -6.655911e+05
   1.949638e+06   1.503354e+06
   5.419064e+05   3.761786e+06
  -1.854386e+06   3.509364e+06
  -3.361384e+06   9.886588e+05
  -3.382166e+06  -1.627405e+06
  -2.266572e+06  -2.876828e+06
  -4.351067e+05  -2.680451e+06
   1.280977e+06  -1.524266e+06
   1.638604e+06  -2.528296e+05
   5.164592e+05   4.864310e+04
  -3.723979e+05  -7.920073e+05
   4.549316e+05  -1.426672e+06
   2.040472e+06  -6.062614e+05
   2.151478e+06   9.707199e+05
   3.832198e+05   1.516079e+06
  -1.242913e+06   5.853672e+05
  -9.032007e+05  -4.866355e+05
   9.163762e+05  -4.952309e+05
   2.248282e+06   4.056324e+05
   1.750096e+06   1.433781e+06
  -3.082708e+05   2.017381e+06
  -2.421291e+06   1.687016e+06
  -2.903897e+06   2.651511e+05
  -1.278564e+06  -1.350660e+06
   9.826705e+05  -1.604758e+06
   1.673830e+06  -2.031192e+05
   2.274373e+05   1.154483e+06
  -1.603488e+06   7.770467e+05
  -1.800388e+06  -8.452183e+05
  -3.154246e+05  -1.742789e+06
   1.180099e+06  -9.889509e+05
   1.310921e+06   3.750336e+05
   2.241635e+05   8.373180e+05
  -8.584355e+05   4.835644e+04
  -7.806293e+05  -1.116057e+06
   6.004037e+05  -1.502793e+06
   2.109530e+06  -5.782575e+05
   2.144814e+06   1.103140e+06
   3.982263e+05   2.189026e+06
  -1.533200e+06   1.723867e+06
  -1.822094e+06   2.009306e+05
  -5.101741e+05  -9.235962e+05
   7.041256e+05  -8.327333e+05
   6.460368e+05  -7.945194e+04
  -1.440911e+05   3.429687e+05
  -4.892237e+05   1.792188e+05
  -6.970259e+04  -6.073606e+04
   5.018316e+05   1.327168e+05
   5.241854e+05   7.499409e+05
  -2.516389e+05   1.254252e+06
  -1.467493e+06   9.273701e+05
  -2.186667e+06  -4.484612e+05
  -1.535501e+06  -2.049552e+06
   2.343875e+05  -2.534015e+06
   1.695916e+06  -1.449980e+06
   1.745536e+06   1.602057e+05
   8.544825e+05   9.188271e+05
   3.164906e+05   6.223681e+05
   5.323586e+05   1.922318e+05
   6.969677e+05   3.449652e+05
   9.894888e+04   8.286537e+05
  -9.363915e+05   9.352344e+05
  -1.513604e+06   3.131047e+05
  -1.068438e+06  -7.551230e+05
   2.883672e+05  -1.496990e+06
   1.807508e+06  -1.094207e+06
   2.343295e+06   5.225751e+05
   1.162079e+06   2.215114e+06
  -1.099594e+06   2.482224e+06
  -2.696244e+06   1.051000e+06
  -2.449228e+06  -7.349950e+05
  -9.503588e+05  -1.410559e+06
   2.461847e+05  -9.510921e+05
   3.817936e+05  -4.959676e+05
   3.150866e+04  -7.942257e+05
   8.547193e+04  -1.403565e+06
   7.156379e+05  -1.375270e+06
   1.375184e+06  -3.396684e+05
   1.409479e+06   1.132966e+06
   5.848219e+05   1.986953e+06
  -6.504966e+05   1.506714e+06
  -1.345451e+06  -1.248558e+04
  -8.395123e+05  -1.364942e+06
   4.395466e+05  -1.466786e+06
   1.251573e+06  -3.915988e+05
   8.532958e+05   7.815679e+05
  -1.649329e+05   1.155280e+06
  -6.069686e+05   8.137903e+05
  -1.076018e+05   4.193451e+05
   4.621163e+05   3.435564e+05
   6.749659e+04   3.983821e+05
  -1.220778e+06   2.124096e+05
  -2.185306e+06  -3.618153e+05
  -1.695357e+06  -1.106199e+06
   6.916848e+04  -1.526127e+06
   1.701467e+06  -1.203092e+06
   1.934184e+06  -2.679179e+05
   8.640224e+05   5.564051e+05
  -2.892610e+05   6.136245e+05
  -5.468384e+05   1.960695e+04
  -4.313863e+04  -4.638907e+05
   4.528562e+05  -2.777776e+05
   5.099639e+05   3.581042e+05
   2.943358e+05   7.504807e+05
   1.275355e+05   5.008177e+05
   1.410471e+05  -7.961667e+04
   2.713748e+05  -2.819111e+05
   2.832092e+05   2.474072e+05
  -1.343990e+05   1.025057e+06
  -9.452260e+05   1.124115e+06
  -1.463702e+06   2.038969e+05
  -9.295207e+05  -9.580267e+05
   4.348315e+05  -1.223996e+06
   1.340032e+06  -3.844898e+05
   7.754031e+05   5.906878e+05
  -7.449209e+05   6.738551e+05
  -1.652278e+06  -1.194774e+05
  -1.012222e+06  -9.149615e+05
   5.399714e+05  -1.010531e+06
   1.563697e+06  -4.551051e+05
   1.263507e+06   2.256027e+05
   1.232566e+05   5.315543e+05
  -6.854263e+05   2.659316e+05
  -4.140450e+05  -3.190676e+05
   5.969739e+05  -5.660405e+05
   1.245504e+06   5.549878e+04
   7.409499e+05   1.223899e+06
  -5.737054e+05   1.803740e+06
  -1.534895e+06   9.611214e+05
  -1.323157e+06  -7.750030e+05
  -2.251914e+05  -1.869437e+06
   7.708786e+05  -1.339436e+06
   9.629993e+05   2.061362e+05
   4.297193e+05   1.251038e+06
  -2.601997e+05   9.969528e+05
  -5.985373e+05   7.526419e+04
  -4.650737e+05  -3.882653e+05
  -1.445595e+05  -1.343873e+05
  -6.108089e+04   9.134408e+04
  -3.335185e+05  -3.280575e+05
  -5.523622e+05  -1.019212e+06
  -1.699333e+05  -1.122550e+06
   7.862163e+05  -4.093935e+05
   1.541475e+06   4.802790e+05
   1.311818e+06   8.712971e+05
   1.925104e+05   7.382466e+05
  -8.629643e+05   4.476322e+05
  -1.019276e+06   1.845241e+05
  -4.032457e+05  -7.214868e+04
   1.394979e+05  -2.408684e+05
   7.172247e+04  -1.966480e+05
  -2.402194e+05  -7.554563e+04
  -6.948191e+04  -1.371699e+05
   6.503570e+05  -2.695084e+05
   1.104110e+06  -1.035846e+04
   5.199327e+05   7.301179e+05
  -8.332547e+05   1.270725e+06
  -1.804386e+06   8.424750e+05
  -1.537879e+06  -4.144670e+05
  -3.219173e+05  -1.466694e+06
   8.006783e+05  -1.467400e+06
   1.097346e+06  -6.063348e+05
   6.857992e+05   2.125011e+05
   1.630514e+05   3.758827e+05
  -3.746390e+04   9.609573e+04
   9.804432e+04   1.004776e+04
   3.002491e+05   3.950524e+05
   2.526440e+05   8.459960e+05
  -1.707507e+05   7.253289e+05
  -7.095903e+05  -8.818338e+04
  -8.167591e+05  -9.605447e+05
  -1.849505e+05  -1.087631e+06
   7.620297e+05  -3.143576e+05
   1.113820e+06   7.017443e+05
   4.121459e+05   1.142058e+06
  -7.318099e+05   7.557120e+05
  -1.198197e+06  -4.799189e+04
  -5.925843e+05  -6.646633e+05
   2.941876e+05  -7.564128e+05
   4.281425e+05  -4.014286e+05
  -2.214352e+05   1.032342e+04
  -6.717413e+05   5.860954e+04
  -1.726770e+05  -3.291634e+05
   8.565383e+05  -7.211984e+05
   1.348072e+06  -5.575038e+05
   8.429468e+05   2.058877e+05
  -8.349717e+04   9.311391e+05
  -6.011617e+05   9.247548e+05
  -4.849141e+05   2.057084e+05
  -8.645586e+04  -4.864377e+05
   2.363735e+05  -4.838991e+05
   3.710203e+05   1.121998e+05
   2.834291e+05   6.008830e+05
  -3.817386e+04   4.835413e+05
  -4.136598e+05  -2.355415e+04
  -5.175681e+05  -3.119430e+05
  -2.567168e+05  -1.198313e+05
   5.701425e+04   1.862096e+05
   8.752671e+04   1.036669e+05
  -7.091310e+04  -3.483018e+05
  -3.059398e+04  -6.209698e+05
   3.084815e+05  -3.041341e+05
   5.394090e+05   3.458223e+05
   2.443118e+05   6.727668e+05
  -4.039010e+05   3.579569e+05
  -7.298721e+05  -2.552878e+05
  -2.984626e+05  -5.826684e+05
   5.375188e+05  -4.002825e+05
   9.524555e+05   4.409972e+04
   5.230356e+05   3.862518e+05
  -3.008048e+05   4.557918e+05
  -6.779449e+05   2.885550e+05
  -2.932374e+05   3.042050e+04
   3.205504e+05  -1.110015e+05
   4.138170e+05   1.465638e+04
  -1.352745e+05   2.843965e+05
  -7.183555e+05   3.039980e+05
