
 $NMID
 id='ANONYMOUS ', fmtdat='(2E16.6)'
 volume=1.0
 tramp=1.0
 $END
  -2.063053e+07  -9.773600e+05
  -1.358349e+07  -9.276757e+06
  -1.771160e+05  -1.262009e+07
   8.736515e+06  -9.270374e+06
   7.808552e+06  -1.732392e+06
   8.704184e+05   3.745309e+06
  -4.337995e+06   2.496140e+06
  -3.729192e+06  -3.240402e+06
   6.456124e+05  -6.358901e+06
   4.003667e+06  -3.020215e+06
   3.552334e+06   2.933204e+06
   3.542735e+05   4.787283e+06
  -2.257490e+06   8.235305e+05
  -1.788457e+06  -4.199516e+06
   1.220990e+06  -4.829051e+06
   3.651617e+06  -5.894566e+05
   2.764359e+06   4.254228e+06
  -9.597305e+05   5.400358e+06
  -4.156324e+06   2.404091e+06
  -4.045328e+06  -1.543867e+06
  -1.343621e+06  -3.109309e+06
   6.706034e+05  -2.014520e+06
  -9.945832e+04  -8.202623e+05
  -2.233418e+06  -1.659236e+06
  -2.417583e+06  -3.697111e+06
   7.844965e+05  -4.262567e+06
   5.051992e+06  -2.099687e+06
   6.388224e+06   1.240887e+06
   3.220551e+06   3.166615e+06
  -1.675740e+06   2.480582e+06
  -3.741499e+06   5.229640e+04
  -1.306590e+06  -2.100968e+06
   2.692911e+06  -2.152688e+06
   4.032337e+06   1.975333e+05
   1.784410e+06   3.055821e+06
  -1.143152e+06   3.662917e+06
  -1.791484e+06   1.291422e+06
  -3.305993e+05  -1.523005e+06
   9.084941e+05  -1.613937e+06
   5.119263e+05   1.020429e+06
  -8.592203e+05   3.088496e+06
  -1.812271e+06   1.983456e+06
  -1.604739e+06  -1.058585e+06
  -3.224725e+05  -2.529043e+06
   1.227609e+06  -8.290175e+05
   1.618609e+06   2.047645e+06
  -1.319670e+05   2.959431e+06
  -2.990101e+06   9.604796e+05
  -4.199217e+06  -2.053876e+06
  -2.074714e+06  -3.488521e+06
   1.779690e+06  -2.403886e+06
   3.882792e+06  -1.664212e+04
   2.534425e+06   1.641304e+06
  -5.349952e+05   1.486375e+06
  -2.248590e+06   1.191069e+05
  -1.365750e+06  -9.388757e+05
   6.365944e+05  -7.130754e+05
   1.443313e+06   4.113152e+05
   3.097302e+05   1.203319e+06
  -1.303534e+06   8.247648e+05
  -1.360230e+06  -3.818223e+05
   4.458359e+05  -1.194381e+06
   2.136863e+06  -6.004301e+05
   1.510310e+06   1.205143e+06
  -1.303645e+06   2.776314e+06
  -3.825016e+06   2.548851e+06
  -3.910518e+06   3.098626e+05
  -1.950401e+06  -2.433963e+06
  -3.927722e+04  -3.777974e+06
   5.542113e+05  -3.209769e+06
   4.353725e+05  -1.920787e+06
   7.965180e+05  -1.252753e+06
   1.841240e+06  -1.124996e+06
   2.711158e+06  -3.854788e+05
   2.493278e+06   1.355280e+06
   1.020669e+06   2.801861e+06
  -9.731805e+05   2.300959e+06
  -2.202132e+06  -9.566496e+04
  -1.666423e+06  -2.381428e+06
   3.745812e+05  -2.568346e+06
   2.335877e+06  -6.515354e+05
   2.638524e+06   1.574509e+06
   1.238856e+06   2.441026e+06
  -4.018814e+05   1.859621e+06
  -9.723789e+05   9.622393e+05
  -7.061023e+05   6.882471e+05
  -9.051188e+05   9.153204e+05
  -2.166029e+06   7.926944e+05
  -3.394591e+06  -2.987097e+05
  -2.847491e+06  -2.066318e+06
  -1.727052e+05  -3.402477e+06
   2.829626e+06  -3.202708e+06
   3.777715e+06  -1.354109e+06
   2.090176e+06   9.507265e+05
  -4.146358e+05   2.064549e+06
  -1.419416e+06   1.332655e+06
  -4.106423e+05  -2.471864e+05
   1.103534e+06  -9.843428e+05
   1.450311e+06  -2.377632e+05
   4.696812e+05   9.180174e+05
  -6.413541e+05   9.529421e+05
  -7.225500e+05  -2.569222e+05
   3.132318e+05  -1.146191e+06
   1.515139e+06  -2.381605e+05
   1.662810e+06   1.991277e+06
   2.228404e+05   3.397686e+06
  -2.046781e+06   2.403529e+06
  -3.470227e+06  -3.056058e+05
  -2.843735e+06  -2.502337e+06
  -6.620616e+05  -2.670004e+06
   1.239992e+06  -1.301050e+06
   1.471119e+06  -5.127368e+04
   4.223033e+05   4.466540e+04
  -3.172670e+05  -6.267165e+05
   2.146803e+05  -9.834456e+05
   1.335605e+06  -4.628252e+05
   1.585492e+06   4.988775e+05
   4.596911e+05   9.974571e+05
  -9.215024e+05   5.689449e+05
  -9.756237e+05  -3.521589e+05
   5.560971e+05  -8.041194e+05
   2.160316e+06  -1.827085e+05
   2.050372e+06   1.138464e+06
   7.961324e+04   2.057459e+06
  -2.029410e+06   1.714272e+06
  -2.434996e+06   3.240140e+05
  -1.006772e+06  -9.510115e+05
   6.906421e+05  -1.063140e+06
   1.078926e+06  -1.008671e+05
   3.153974e+04   7.863373e+05
  -1.241452e+06   5.742397e+05
  -1.486139e+06  -5.448127e+05
  -5.170975e+05  -1.379117e+06
   7.365929e+05  -1.066159e+06
   1.140552e+06  -2.115389e+04
   4.219914e+05   5.694471e+05
  -5.392202e+05   9.116108e+04
  -5.646826e+05  -8.589402e+05
   5.564463e+05  -1.169004e+06
   1.736689e+06  -3.710002e+05
   1.687860e+06   9.464784e+05
   3.178759e+05   1.732103e+06
  -1.143288e+06   1.394456e+06
  -1.436168e+06   2.690401e+05
  -5.253318e+05  -6.907464e+05
   5.091920e+05  -7.498816e+05
   6.769014e+05  -5.525285e+04
   1.681957e+04   5.458749e+05
  -6.085738e+05   4.305427e+05
  -4.955453e+05  -1.146304e+05
   1.777050e+05  -2.678501e+05
   5.568180e+05   2.997673e+05
   1.882272e+04   9.659293e+05
  -1.109852e+06   8.207487e+05
  -1.781016e+06  -3.176683e+05
  -1.239571e+06  -1.653140e+06
   1.951877e+05  -2.136194e+06
   1.424410e+06  -1.395924e+06
   1.638318e+06  -3.150729e+04
   1.016075e+06   9.394831e+05
   3.655525e+05   9.755731e+05
   1.993093e+05   4.490079e+05
   2.791633e+05   1.785913e+05
   3.745078e+04   4.885289e+05
  -6.706325e+05   8.226680e+05
  -1.298890e+06   4.222233e+05
  -1.100250e+06  -6.684203e+05
   8.627468e+04  -1.477976e+06
   1.510306e+06  -1.085752e+06
   2.032895e+06   3.727445e+05
   1.108146e+06   1.770944e+06
  -6.734928e+05   2.026153e+06
  -2.044580e+06   1.032830e+06
  -2.131453e+06  -3.515145e+05
  -1.130709e+06  -1.144192e+06
   1.003649e+04  -1.075462e+06
   5.174022e+05  -6.834814e+05
   4.049402e+05  -6.263399e+05
   2.614213e+05  -9.254616e+05
   5.286824e+05  -9.554229e+05
   1.014398e+06  -2.183798e+05
   1.103353e+06   9.629452e+05
   4.464064e+05   1.657156e+06
  -5.757998e+05   1.243169e+06
  -1.135318e+06   3.708003e+04
  -7.575356e+05  -1.013787e+06
   1.809530e+05  -1.188806e+06
   8.177830e+05  -5.374373e+05
   6.732498e+05   3.108643e+05
   9.233851e+04   7.625662e+05
  -2.079863e+05   7.078316e+05
   3.145308e+04   4.634871e+05
   3.257495e+05   3.506685e+05
   1.847261e+04   3.562255e+05
  -9.044786e+05   2.100955e+05
  -1.657417e+06  -2.434213e+05
  -1.392918e+06  -8.143771e+05
  -1.192054e+05  -1.119124e+06
   1.193394e+06  -9.249170e+05
   1.518011e+06  -3.492806e+05
   7.768737e+05   2.174722e+05
  -1.448710e+05   3.909179e+05
  -3.849394e+05   1.135298e+05
   4.279734e+04  -2.379874e+05
   4.550219e+05  -1.830831e+05
   3.892418e+05   3.049794e+05
   5.692677e+04   6.758290e+05
  -6.814292e+04   4.286947e+05
   1.364864e+05  -1.899290e+05
   3.637188e+05  -3.880226e+05
   2.673706e+05   1.848151e+05
  -2.065224e+05   9.094071e+05
  -7.800311e+05   8.888376e+05
  -9.997947e+05   3.584300e+04
  -5.482912e+05  -8.082906e+05
   3.713007e+05  -8.387663e+05
   9.903246e+05  -1.298268e+05
   6.083916e+05   5.553592e+05
  -5.744339e+05   5.904354e+05
  -1.451452e+06  -5.098865e+03
  -1.079975e+06  -7.150200e+05
   2.730143e+05  -9.887311e+05
   1.351538e+06  -6.307150e+05
   1.217305e+06   5.668070e+04
   1.958872e+05   4.869180e+05
  -5.501001e+05   3.064633e+05
  -2.828624e+05  -2.108819e+05
   5.895160e+05  -3.757931e+05
   1.019117e+06   1.992436e+05
   4.331530e+05   1.101691e+06
  -7.038048e+05   1.425239e+06
  -1.393173e+06   6.521063e+05
  -1.086119e+06  -7.426390e+05
  -1.323243e+05  -1.618688e+06
   6.736222e+05  -1.215872e+06
   8.445943e+05   7.105363e+04
   4.686518e+05   1.046276e+06
  -7.727070e+04   9.283909e+05
  -4.600415e+05   1.228050e+05
  -5.021964e+05  -3.616707e+05
  -2.470081e+05  -1.569919e+05
  -4.457881e+03   1.161915e+05
  -9.550045e+04  -1.938192e+05
  -3.835573e+05  -8.318504e+05
  -2.810544e+05  -9.817547e+05
   4.950167e+05  -3.642050e+05
   1.322862e+06   4.353017e+05
   1.242370e+06   7.583559e+05
   1.693175e+05   5.965394e+05
  -8.646703e+05   3.477589e+05
  -9.134635e+05   1.871382e+05
  -2.326027e+05   9.035550e+03
   1.724889e+05  -1.868133e+05
  -8.528923e+04  -2.412335e+05
  -3.606400e+05  -1.571503e+05
   7.530126e+03  -1.265719e+05
   7.263379e+05  -1.463441e+05
   9.079654e+05   7.219425e+04
   1.797622e+05   6.000940e+05
  -8.912149e+05   9.432443e+05
  -1.432588e+06   5.328104e+05
  -1.078189e+06  -4.874369e+05
  -1.576153e+05  -1.269268e+06
   6.777004e+05  -1.151881e+06
   9.367585e+05  -3.627688e+05
   5.902129e+05   2.911772e+05
   5.507647e+04   3.174253e+05
  -1.711965e+05  -1.615574e+04
   3.174755e+04  -9.647497e+04
   3.130918e+05   2.943116e+05
   2.468369e+05   7.181420e+05
  -2.010849e+05   5.678317e+05
  -6.214377e+05  -2.070949e+05
  -5.533930e+05  -9.395903e+05
   5.914913e+04  -8.996766e+05
   7.425891e+05  -8.348098e+04
   8.533724e+05   7.708011e+05
   1.986370e+05   9.640388e+05
  -6.672871e+05   4.900257e+05
  -9.258078e+05  -1.323101e+05
  -3.838474e+05  -4.761187e+05
   2.650224e+05  -4.836376e+05
   2.501012e+05  -2.877109e+05
  -3.217999e+05  -5.522261e+04
  -6.008440e+05  -1.284359e+03
  -8.385364e+04  -2.555595e+05
   7.468656e+05  -5.885171e+05
   1.035470e+06  -5.173646e+05
   5.619613e+05   9.711670e+04
  -1.200768e+05   7.213993e+05
  -4.208643e+05   6.945895e+05
  -2.764718e+05   5.408976e+04
   2.197784e+04  -4.667579e+05
   2.438735e+05  -3.199445e+05
   3.119818e+05   2.326393e+05
   1.912739e+05   5.199554e+05
  -8.524128e+04   2.899923e+05
  -3.391474e+05  -9.230499e+04
  -3.771771e+05  -1.973386e+05
  -2.091956e+05  -3.441017e+04
  -2.177969e+04   6.073661e+04
   6.903976e+04  -1.099984e+05
   1.292524e+05  -3.722751e+05
   2.451566e+05  -3.819608e+05
   3.476394e+05  -1.302937e+04
   2.685405e+05   4.601997e+05
  -4.778235e+04   5.912289e+05
  -4.173664e+05   2.178376e+05
  -5.140632e+05  -3.302333e+05
  -1.570685e+05  -5.511741e+05
   4.310607e+05  -2.910781e+05
   7.196749e+05   1.380586e+05
   3.815199e+05   3.509996e+05
  -2.725698e+05   2.728693e+05
  -5.458887e+05   9.364860e+04
  -1.483973e+05  -7.741528e+03
   4.096588e+05   2.555076e+04
   3.976045e+05   1.734184e+05
  -2.408138e+05   3.134122e+05
  -8.006685e+05   2.110712e+05
