
 $NMID
 id='ANONYMOUS ', fmtdat='(2E16.6)'
 volume=1.0
 tramp=1.0
 $END
  -2.768994e+07  -9.299783e+05
  -1.687885e+07  -1.568286e+07
   2.647894e+06  -1.801225e+07
   1.308161e+07  -8.879945e+06
   8.919380e+06   1.585293e+06
  -7.547424e+05   4.948572e+06
  -5.334805e+06   9.306702e+05
  -2.777012e+06  -4.721135e+06
   2.273785e+06  -6.185461e+06
   5.078930e+06  -2.105308e+06
   3.972236e+06   3.586648e+06
   3.011683e+05   5.252739e+06
  -2.587049e+06   1.275977e+06
  -1.857696e+06  -3.894453e+06
   1.747564e+06  -4.488529e+06
   4.224848e+06   1.765088e+05
   2.606680e+06   5.293761e+06
  -1.837365e+06   6.186367e+06
  -5.277252e+06   2.753204e+06
  -5.280678e+06  -1.648743e+06
  -2.547380e+06  -4.001922e+06
   3.093485e+05  -3.703291e+06
   1.019288e+06  -2.206319e+06
  -4.418848e+05  -1.523690e+06
  -1.556992e+06  -2.400910e+06
   2.488943e+05  -3.415135e+06
   4.193868e+06  -2.482910e+06
   6.289644e+06   4.426137e+05
   3.906630e+06   2.983929e+06
  -7.696845e+05   3.028490e+06
  -3.165581e+06   9.864967e+05
  -1.569736e+06  -1.042304e+06
   1.483625e+06  -1.463834e+06
   2.737748e+06  -9.615725e+04
   1.539740e+06   2.043795e+06
  -4.824417e+05   3.127595e+06
  -1.597703e+06   1.788073e+06
  -1.228705e+06  -9.533010e+05
  -4.349781e+04  -2.051865e+06
   5.562342e+05  -9.037075e+04
  -2.888624e+05   2.331200e+06
  -1.653911e+06   1.669911e+06
  -1.545936e+06  -1.574350e+06
   5.956776e+05  -3.152256e+06
   2.746516e+06  -6.735183e+05
   2.371352e+06   3.168886e+06
  -6.513295e+05   4.056741e+06
  -3.760151e+06   1.195877e+06
  -4.220158e+06  -2.368084e+06
  -1.589928e+06  -3.578569e+06
   1.986456e+06  -2.058639e+06
   3.584292e+06   4.652885e+05
   1.990627e+06   1.982808e+06
  -1.093082e+06   1.514570e+06
  -2.601850e+06  -2.439899e+05
  -1.303231e+06  -1.422518e+06
   8.885853e+05  -8.514394e+05
   1.299764e+06   5.558380e+05
  -2.497500e+05   9.431094e+05
  -1.436672e+06  -1.280952e+05
  -5.084354e+05  -1.274244e+06
   1.631216e+06  -1.155448e+06
   2.663957e+06   1.786312e+05
   1.408804e+06   1.837024e+06
  -1.266439e+06   2.939073e+06
  -3.488398e+06   2.669125e+06
  -3.859966e+06   6.187232e+05
  -2.346506e+06  -2.243199e+06
  -2.387931e+05  -3.826996e+06
   9.321656e+05  -3.064612e+06
   8.112916e+05  -1.267504e+06
   4.367124e+05  -4.722578e+05
   8.549353e+05  -8.527219e+05
   1.813198e+06  -8.021023e+05
   2.145578e+06   5.504671e+05
   1.205403e+06   2.016720e+06
  -4.525020e+05   1.892581e+06
  -1.632550e+06   7.723641e+04
  -1.422466e+06  -1.842456e+06
   1.738438e+05  -2.244157e+06
   2.064399e+06  -8.589044e+05
   2.720928e+06   1.194355e+06
   1.569564e+06   2.433410e+06
  -2.847925e+05   2.232469e+06
  -1.229740e+06   1.255780e+06
  -1.038459e+06   6.229089e+05
  -9.912072e+05   6.338309e+05
  -1.951775e+06   5.436292e+05
  -2.993607e+06  -3.764595e+05
  -2.472488e+06  -1.878712e+06
  -1.388406e+05  -2.964503e+06
   2.379650e+06  -2.800379e+06
   3.189337e+06  -1.336965e+06
   1.912682e+06   6.109596e+05
  -1.010528e+05   1.758574e+06
  -1.091019e+06   1.305651e+06
  -4.371156e+05  -1.355906e+05
   8.830971e+05  -9.434346e+05
   1.361766e+06  -2.741013e+05
   5.550114e+05   8.641668e+05
  -5.001586e+05   8.916876e+05
  -5.487130e+05  -2.121697e+05
   4.355532e+05  -8.179106e+05
   1.302007e+06   2.173987e+05
   1.025134e+06   2.027414e+06
  -3.590058e+05   2.735507e+06
  -1.953411e+06   1.540516e+06
  -2.725773e+06  -6.028746e+05
  -2.120745e+06  -2.104011e+06
  -4.796600e+05  -2.135312e+06
   1.009508e+06  -1.093375e+06
   1.242688e+06  -8.405937e+04
   3.685962e+05   4.949599e+04
  -2.906631e+05  -5.424423e+05
   2.124984e+05  -9.236743e+05
   1.266737e+06  -4.402321e+05
   1.465628e+06   5.117926e+05
   3.953913e+05   9.674991e+05
  -8.139787e+05   5.235069e+05
  -8.038752e+05  -2.666634e+05
   4.754222e+05  -5.616726e+05
   1.711442e+06  -3.451184e+04
   1.568661e+06   9.452197e+05
  -6.710896e+03   1.627245e+06
  -1.713473e+06   1.382479e+06
  -2.089203e+06   2.510341e+05
  -8.961232e+05  -8.882628e+05
   6.397887e+05  -1.023830e+06
   1.053685e+06  -1.139886e+05
   1.018714e+05   7.505796e+05
  -1.093277e+06   5.446033e+05
  -1.298614e+06  -5.042599e+05
  -3.850749e+05  -1.219369e+06
   7.070134e+05  -8.700129e+05
   9.905271e+05   6.211350e+04
   3.324416e+05   5.378393e+05
  -4.898045e+05   1.078175e+05
  -5.247685e+05  -7.072823e+05
   4.157451e+05  -1.007391e+06
   1.458761e+06  -3.672327e+05
   1.470810e+06   7.810287e+05
   2.863861e+05   1.509333e+06
  -1.023307e+06   1.216930e+06
  -1.279333e+06   1.975128e+05
  -4.473675e+05  -6.399914e+05
   4.530305e+05  -6.619283e+05
   5.652491e+05  -8.041491e+04
   2.367610e+04   3.837045e+05
  -4.197486e+05   3.104806e+05
  -2.929757e+05  -3.601841e+04
   1.854353e+05  -9.083992e+04
   4.010797e+05   3.395227e+05
  -5.847026e+04   8.142274e+05
  -9.603105e+05   6.675246e+05
  -1.511919e+06  -2.800702e+05
  -1.062501e+06  -1.413789e+06
   1.692763e+05  -1.815741e+06
   1.217809e+06  -1.142024e+06
   1.348435e+06   2.628342e+04
   7.773734e+05   7.681513e+05
   2.776410e+05   7.182167e+05
   2.287131e+05   3.109575e+05
   3.000002e+05   1.820871e+05
   1.890865e+04   4.532117e+05
  -6.022551e+05   6.532212e+05
  -1.061241e+06   2.892465e+05
  -8.401270e+05  -5.496656e+05
   1.213980e+05  -1.162043e+06
   1.259438e+06  -8.543436e+05
   1.687832e+06   3.293161e+05
   9.093860e+05   1.511948e+06
  -6.233232e+05   1.730881e+06
  -1.788041e+06   8.425069e+05
  -1.794942e+06  -3.640114e+05
  -8.806891e+05  -9.811150e+05
   5.248375e+04  -8.402761e+05
   3.828543e+05  -5.127300e+05
   2.468987e+05  -5.496559e+05
   1.806341e+05  -8.596634e+05
   4.748905e+05  -8.662538e+05
   9.010388e+05  -2.025404e+05
   9.615092e+05   8.149119e+05
   3.967613e+05   1.412476e+06
  -4.782128e+05   1.069202e+06
  -9.652641e+05   2.961570e+04
  -6.339409e+05  -8.880053e+05
   1.976789e+05  -1.018830e+06
   7.461811e+05  -4.055428e+05
   5.739895e+05   3.450982e+05
   2.055620e+04   6.910011e+05
  -2.425955e+05   5.907588e+05
  -5.658704e+01   3.705473e+05
   2.811636e+05   2.880568e+05
   1.484010e+04   2.925410e+05
  -7.895769e+05   1.580713e+05
  -1.432291e+06  -2.279205e+05
  -1.183828e+06  -7.134268e+05
  -6.755149e+04  -9.800608e+05
   1.062336e+06  -8.030202e+05
   1.316556e+06  -2.705682e+05
   6.494679e+05   2.384173e+05
  -1.486805e+05   3.554566e+05
  -3.395730e+05   6.935665e+04
   3.471876e+04  -2.351134e+05
   3.820855e+05  -1.570334e+05
   3.350311e+05   2.692184e+05
   7.942060e+04   5.705323e+05
  -2.311625e+04   3.679470e+05
   1.096520e+05  -1.264892e+05
   2.654408e+05  -2.938038e+05
   2.012898e+05   1.512399e+05
  -1.608016e+05   7.425683e+05
  -6.529661e+05   7.519355e+05
  -8.824423e+05   5.476891e+04
  -5.072594e+05  -6.833630e+05
   3.166064e+05  -7.456273e+05
   8.700083e+05  -1.411857e+05
   5.216409e+05   4.647501e+05
  -5.042025e+05   4.905096e+05
  -1.216999e+06  -3.523115e+04
  -8.584255e+05  -6.201532e+05
   2.763149e+05  -8.003867e+05
   1.135640e+06  -4.743412e+05
   9.944727e+05   7.649189e+04
   1.466206e+05   4.032711e+05
  -4.706703e+05   2.457802e+05
  -2.563722e+05  -1.874586e+05
   4.784410e+05  -3.412098e+05
   8.713735e+05   1.352821e+05
   4.068527e+05   9.228229e+05
  -5.592466e+05   1.231684e+06
  -1.170658e+06   5.810724e+05
  -9.267302e+05  -6.210120e+05
  -1.150087e+05  -1.368247e+06
   5.710021e+05  -1.010343e+06
   7.054178e+05   8.314013e+04
   3.728580e+05   8.848136e+05
  -8.907350e+04   7.644955e+05
  -3.922698e+05   9.280390e+04
  -4.034537e+05  -2.945159e+05
  -1.881377e+05  -1.195914e+05
  -1.419394e+04   9.225351e+04
  -1.164343e+05  -1.823790e+05
  -3.416264e+05  -7.140696e+05
  -2.121559e+05  -8.273851e+05
   4.539003e+05  -3.027517e+05
   1.118740e+06   3.681482e+05
   1.024644e+06   6.412107e+05
   1.371194e+05   5.096213e+05
  -7.096995e+05   2.978114e+05
  -7.633820e+05   1.497230e+05
  -2.153909e+05  -9.632258e+03
   1.388449e+05  -1.647681e+05
  -4.087379e+04  -1.884043e+05
  -2.737026e+05  -1.090907e+05
  -7.620961e+03  -1.008620e+05
   5.797908e+05  -1.400820e+05
   7.741137e+05   4.568238e+04
   2.010192e+05   5.161161e+05
  -7.246812e+05   8.271033e+05
  -1.237838e+06   4.802507e+05
  -9.565225e+05  -3.958685e+05
  -1.503457e+05  -1.071910e+06
   5.777954e+05  -9.874626e+05
   7.909819e+05  -3.325151e+05
   4.964946e+05   2.227497e+05
   6.351255e+04   2.665043e+05
  -1.177418e+05   6.946258e+03
   3.434089e+04  -5.986421e+04
   2.520519e+05   2.544282e+05
   2.045915e+05   6.056873e+05
  -1.575351e+05   4.927514e+05
  -5.248529e+05  -1.466182e+05
  -4.989887e+05  -7.747265e+05
   1.014968e+04  -7.726688e+05
   6.160426e+05  -1.065905e+05
   7.423420e+05   6.249123e+05
   1.929568e+05   8.212371e+05
  -5.606442e+05   4.411448e+05
  -8.004059e+05  -9.884865e+04
  -3.438335e+05  -4.197998e+05
   2.226351e+05  -4.365558e+05
   2.309357e+05  -2.526097e+05
  -2.490446e+05  -3.672991e+04
  -5.019989e+05   5.823832e+03
  -8.007261e+04  -2.220977e+05
   6.313362e+05  -5.013578e+05
   8.986215e+05  -4.253267e+05
   5.036422e+05   1.022242e+05
  -9.626200e+04   6.258543e+05
  -3.777042e+05   6.020528e+05
  -2.614745e+05   6.371984e+04
   2.364075e+03  -3.869978e+05
   2.014545e+05  -2.866080e+05
   2.659212e+05   1.732790e+05
   1.692418e+05   4.398060e+05
  -6.569096e+04   2.686698e+05
  -2.912297e+05  -6.566629e+04
  -3.300437e+05  -1.823234e+05
  -1.773714e+05  -4.342744e+04
  -6.620180e+03   7.040366e+04
   5.617636e+04  -5.576157e+04
   7.333025e+04  -3.044814e+05
   1.611823e+05  -3.557109e+05
   2.840685e+05  -5.733595e+04
   2.648038e+05   3.638431e+05
   5.151159e+03   5.017580e+05
  -3.417686e+05   1.998760e+05
  -4.550304e+05  -2.621495e+05
  -1.497789e+05  -4.573279e+05
   3.708316e+05  -2.529346e+05
   6.269076e+05   1.016090e+05
   3.345165e+05   2.950781e+05
  -2.306608e+05   2.529597e+05
  -4.725716e+05   1.060310e+05
  -1.464363e+05  -4.141772e+03
   3.243450e+05  -4.359483e+03
   3.327197e+05   1.168363e+05
  -1.792727e+05   2.552696e+05
  -6.448408e+05   1.898929e+05
