
 $NMID
 id='ANONYMOUS ', fmtdat='(2E16.6)'
 volume=1.0
 tramp=1.0
 $END
  -2.174762e+07  -1.743596e+06
  -1.314870e+07  -1.199110e+07
   1.824183e+06  -1.376766e+07
   1.013963e+07  -7.544844e+06
   7.369143e+06   3.822694e+05
  -1.755693e+05   3.761721e+06
  -4.262073e+06   1.153272e+06
  -2.566738e+06  -3.647750e+06
   1.602434e+06  -5.327619e+06
   4.083120e+06  -1.995942e+06
   3.185369e+06   2.958650e+06
   1.586924e+05   4.357651e+06
  -2.090710e+06   8.572850e+05
  -1.397481e+06  -3.537402e+06
   1.512889e+06  -3.968114e+06
   3.502857e+06   1.106075e+04
   2.213147e+06   4.363587e+06
  -1.443317e+06   5.155825e+06
  -4.306042e+06   2.223267e+06
  -4.178625e+06  -1.502913e+06
  -1.730601e+06  -3.241720e+06
   4.693627e+05  -2.627446e+06
   5.067039e+05  -1.422079e+06
  -1.035490e+06  -1.450674e+06
  -1.607919e+06  -2.684264e+06
   5.584745e+05  -3.310516e+06
   4.092871e+06  -1.864272e+06
   5.501897e+06   9.159887e+05
   3.020365e+06   2.773028e+06
  -1.111957e+06   2.333303e+06
  -2.961448e+06   3.411268e+05
  -1.184730e+06  -1.359666e+06
   1.809449e+06  -1.452238e+06
   2.877209e+06   1.226408e+05
   1.404071e+06   2.182167e+06
  -7.028772e+05   2.901534e+06
  -1.475950e+06   1.365871e+06
  -6.997396e+05  -1.020942e+06
   3.708013e+05  -1.599094e+06
   4.627799e+05   3.485086e+05
  -5.516946e+05   2.309061e+06
  -1.575064e+06   1.541390e+06
  -1.323263e+06  -1.220980e+06
   3.093726e+05  -2.509132e+06
   1.888938e+06  -5.508814e+05
   1.684071e+06   2.471270e+06
  -5.537440e+05   3.159894e+06
  -3.086339e+06   8.292429e+05
  -3.621700e+06  -2.139445e+06
  -1.450110e+06  -3.178488e+06
   1.727793e+06  -1.851103e+06
   3.225972e+06   3.573493e+05
   1.887698e+06   1.639981e+06
  -7.677413e+05   1.227975e+06
  -2.103098e+06  -1.697031e+05
  -1.104268e+06  -1.061531e+06
   6.986916e+05  -6.261697e+05
   1.153195e+06   4.624488e+05
  -4.418017e+04   8.767711e+05
  -1.184101e+06   1.824227e+05
  -6.900496e+05  -7.864190e+05
   1.052641e+06  -9.654161e+05
   2.153478e+06  -5.170749e+04
   1.230298e+06   1.432567e+06
  -1.211107e+06   2.519258e+06
  -3.279592e+06   2.233097e+06
  -3.447296e+06   3.285351e+05
  -1.863440e+06  -2.110266e+06
  -3.435998e+04  -3.345767e+06
   7.507306e+05  -2.718170e+06
   5.897638e+05  -1.356420e+06
   5.305900e+05  -7.296767e+05
   1.169953e+06  -8.380651e+05
   1.976763e+06  -4.703374e+05
   1.990085e+06   8.777488e+05
   8.976295e+05   2.096065e+06
  -6.612959e+05   1.765054e+06
  -1.621753e+06  -7.510008e+04
  -1.246620e+06  -1.858551e+06
   3.074097e+05  -2.062664e+06
   1.928242e+06  -5.993065e+05
   2.317451e+06   1.269772e+06
   1.196251e+06   2.181829e+06
  -3.440051e+05   1.823885e+06
  -1.020505e+06   9.833489e+05
  -8.193411e+05   5.657605e+05
  -8.755079e+05   6.396098e+05
  -1.833267e+06   4.996826e+05
  -2.790894e+06  -4.133886e+05
  -2.261701e+06  -1.814059e+06
  -2.515264e+04  -2.780730e+06
   2.370633e+06  -2.534398e+06
   3.066936e+06  -1.073741e+06
   1.708648e+06   7.246172e+05
  -2.722635e+05   1.642612e+06
  -1.105224e+06   1.105616e+06
  -3.426393e+05  -1.735148e+05
   8.930049e+05  -7.928850e+05
   1.217189e+06  -1.649337e+05
   4.103094e+05   7.846419e+05
  -5.107888e+05   7.561009e+05
  -5.092488e+05  -2.373717e+05
   3.896837e+05  -8.040714e+05
   1.221670e+06   1.048950e+05
   1.059143e+06   1.825433e+06
  -2.088780e+05   2.635602e+06
  -1.819879e+06   1.599280e+06
  -2.660761e+06  -5.129532e+05
  -2.060577e+06  -2.066013e+06
  -4.130598e+05  -2.093196e+06
   1.007888e+06  -1.010457e+06
   1.172326e+06  -2.696748e+04
   3.404696e+05   4.780533e+04
  -2.358097e+05  -5.201537e+05
   2.330915e+05  -8.185491e+05
   1.152645e+06  -3.350023e+05
   1.293369e+06   5.045397e+05
   3.130738e+05   8.603082e+05
  -7.778482e+05   4.162952e+05
  -7.382404e+05  -3.178137e+05
   4.999299e+05  -5.631197e+05
   1.690007e+06  -1.959816e+03
   1.519486e+06   9.768718e+05
  -4.586778e+04   1.592077e+06
  -1.678848e+06   1.271259e+06
  -1.968201e+06   1.730511e+05
  -7.906359e+05  -8.265677e+05
   6.143052e+05  -8.808512e+05
   9.271833e+05  -5.570478e+04
   2.592091e+04   6.673710e+05
  -1.035034e+06   4.374700e+05
  -1.181959e+06  -5.098267e+05
  -3.324611e+05  -1.135037e+06
   6.626013e+05  -7.930534e+05
   9.064868e+05   7.181099e+04
   2.817151e+05   4.893401e+05
  -4.665345e+05   4.643786e+04
  -4.438669e+05  -7.224584e+05
   4.744558e+05  -9.415465e+05
   1.416465e+06  -2.670778e+05
   1.350501e+06   8.092893e+05
   2.065695e+05   1.421460e+06
  -9.857687e+05   1.095604e+06
  -1.177743e+06   1.562967e+05
  -3.849482e+05  -5.840032e+05
   4.447787e+05  -5.790116e+05
   5.244266e+05  -2.879347e+04
  -2.091111e+04   3.948534e+05
  -4.647470e+05   2.857731e+05
  -3.239304e+05  -8.860658e+04
   1.848957e+05  -1.432401e+05
   4.145102e+05   3.102713e+05
  -5.251017e+04   7.886405e+05
  -9.366856e+05   6.195018e+05
  -1.432582e+06  -3.179318e+05
  -9.570632e+05  -1.378652e+06
   2.191816e+05  -1.712283e+06
   1.183958e+06  -1.052402e+06
   1.287891e+06   4.703128e+04
   7.433574e+05   7.525454e+05
   2.567157e+05   7.184047e+05
   1.935347e+05   3.231765e+05
   2.688122e+05   1.753309e+05
   2.029965e+04   4.294767e+05
  -5.820294e+05   6.345197e+05
  -1.050133e+06   2.763198e+05
  -8.328918e+05  -5.604232e+05
   1.343602e+05  -1.147509e+06
   1.245351e+06  -8.023149e+05
   1.613477e+06   3.687057e+05
   8.171411e+05   1.470236e+06
  -6.434772e+05   1.616998e+06
  -1.709809e+06   7.433447e+05
  -1.688510e+06  -3.878971e+05
  -8.206730e+05  -9.549862e+05
   6.751826e+04  -8.158676e+05
   3.989521e+05  -4.938116e+05
   2.815624e+05  -5.054409e+05
   2.098064e+05  -7.826953e+05
   4.686260e+05  -7.857508e+05
   8.473659e+05  -1.551897e+05
   8.737593e+05   8.064608e+05
   3.185405e+05   1.349439e+06
  -4.949691e+05   9.881211e+05
  -9.132522e+05  -1.093331e+04
  -5.694289e+05  -8.592200e+05
   2.122350e+05  -9.556936e+05
   7.093336e+05  -3.702232e+05
   5.344560e+05   3.280877e+05
   1.029452e+04   6.473259e+05
  -2.378943e+05   5.547076e+05
  -6.676716e+03   3.533794e+05
   2.634089e+05   2.822309e+05
   1.132168e+04   2.841675e+05
  -7.536138e+05   1.356664e+05
  -1.355599e+06  -2.568167e+05
  -1.100832e+06  -7.154301e+05
  -3.130487e+04  -9.285206e+05
   1.028051e+06  -7.203285e+05
   1.247678e+06  -2.146057e+05
   6.063672e+05   2.384649e+05
  -1.463013e+05   3.295970e+05
  -3.239030e+05   6.282541e+04
   3.060251e+04  -2.167837e+05
   3.597916e+05  -1.436622e+05
   3.109412e+05   2.566415e+05
   5.870124e+04   5.409839e+05
  -3.790587e+04   3.445259e+05
   1.102792e+05  -1.286575e+05
   2.788137e+05  -2.788086e+05
   2.046186e+05   1.596862e+05
  -1.759794e+05   7.193107e+05
  -6.566408e+05   7.018894e+05
  -8.462169e+05   1.891848e+04
  -4.567712e+05  -6.695179e+05
   3.251301e+05  -6.960120e+05
   8.264377e+05  -1.058633e+05
   4.816369e+05   4.553713e+05
  -4.875567e+05   4.535985e+05
  -1.155772e+06  -6.103496e+04
  -8.092172e+05  -6.119090e+05
   2.762017e+05  -7.615032e+05
   1.095586e+06  -4.275990e+05
   9.498729e+05   1.005066e+05
   1.287858e+05   3.893154e+05
  -4.545851e+05   2.164344e+05
  -2.315018e+05  -1.885321e+05
   4.722542e+05  -3.034709e+05
   8.214458e+05   1.648299e+05
   3.494671e+05   8.899725e+05
  -5.721480e+05   1.145206e+06
  -1.125271e+06   5.119881e+05
  -8.582457e+05  -6.142644e+05
  -6.983247e+04  -1.299357e+06
   5.715335e+05  -9.442690e+05
   6.700717e+05   9.810253e+04
   3.288415e+05   8.546559e+05
  -1.111825e+05   7.275318e+05
  -3.799938e+05   7.492721e+04
  -3.756871e+05  -2.979001e+05
  -1.740242e+05  -1.241528e+05
  -1.416027e+04   8.603243e+04
  -1.007651e+05  -1.753649e+05
  -2.976136e+05  -6.859568e+05
  -1.752595e+05  -7.895923e+05
   4.362384e+05  -2.727242e+05
   1.047850e+06   3.829112e+05
   9.548593e+05   6.396497e+05
   1.173481e+05   4.887897e+05
  -6.830644e+05   2.617633e+05
  -7.304949e+05   1.197021e+05
  -2.040454e+05  -1.277719e+04
   1.352740e+05  -1.488057e+05
  -3.857248e+04  -1.815609e+05
  -2.607150e+05  -1.187187e+05
  -1.499280e+03  -1.008175e+05
   5.600247e+05  -1.130044e+05
   7.332109e+05   7.120627e+04
   1.699692e+05   4.944871e+05
  -7.146593e+05   7.570830e+05
  -1.185051e+06   4.151419e+05
  -8.914672e+05  -4.036956e+05
  -1.094983e+05  -1.021645e+06
   5.791897e+05  -9.209633e+05
   7.642460e+05  -2.895541e+05
   4.660443e+05   2.323833e+05
   4.885834e+04   2.581033e+05
  -1.155412e+05   4.603864e+02
   3.510605e+04  -5.841084e+04
   2.327089e+05   2.512186e+05
   1.722133e+05   5.833375e+05
  -1.693453e+05   4.590432e+05
  -4.920676e+05  -1.620724e+05
  -4.424262e+05  -7.522230e+05
   3.811741e+04  -7.281186e+05
   5.858525e+05  -7.742884e+04
   6.810731e+05   6.161309e+05
   1.566269e+05   7.831779e+05
  -5.447604e+05   4.000367e+05
  -7.561910e+05  -1.192264e+05
  -3.128509e+05  -4.098322e+05
   2.267181e+05  -4.071890e+05
   2.287016e+05  -2.308467e+05
  -2.357137e+05  -4.094238e+04
  -4.782102e+05  -9.411728e+03
  -6.995942e+04  -2.125620e+05
   6.138400e+05  -4.553170e+05
   8.637293e+05  -3.766320e+05
   4.726164e+05   1.094360e+05
  -1.101891e+05   5.880360e+05
  -3.741843e+05   5.591783e+05
  -2.477924e+05   5.324288e+04
   1.449784e+04  -3.668055e+05
   1.993462e+05  -2.655846e+05
   2.464887e+05   1.731621e+05
   1.469265e+05   4.222048e+05
  -6.998446e+04   2.511503e+05
  -2.728204e+05  -7.215065e+04
  -3.064073e+05  -1.814690e+05
  -1.673734e+05  -4.491271e+04
  -9.184799e+03   6.533460e+04
   5.635107e+04  -5.356590e+04
   8.202966e+04  -2.855794e+05
   1.654059e+05  -3.279246e+05
   2.692568e+05  -4.227536e+04
   2.362879e+05   3.527778e+05
  -1.295059e+04   4.741130e+05
  -3.304919e+05   1.782940e+05
  -4.225211e+05  -2.629143e+05
  -1.270599e+05  -4.393223e+05
   3.594772e+05  -2.289845e+05
   5.902231e+05   1.163826e+05
   3.069524e+05   2.900345e+05
  -2.257155e+05   2.303801e+05
  -4.483605e+05   8.398177e+04
  -1.360655e+05  -6.549912e+03
   3.074401e+05   1.037506e+04
   3.091986e+05   1.234226e+05
  -1.804880e+05   2.348581e+05
  -6.182938e+05   1.572029e+05
