
 $NMID
 id='ANONYMOUS ', fmtdat='(2E16.6)'
 volume=1.0
 tramp=1.0
 $END
  -3.214149e+07   2.516056e+05
  -2.104864e+07  -1.640346e+07
   1.095979e+06  -2.085488e+07
   1.442258e+07  -1.215039e+07
   1.110103e+07   1.622747e+05
   8.674952e+03   5.702091e+06
  -6.305042e+06   1.911601e+06
  -4.024112e+06  -5.299986e+06
   2.076564e+06  -7.915956e+06
   5.906812e+06  -3.209784e+06
   4.917665e+06   3.974837e+06
   6.429861e+05   6.251164e+06
  -2.879467e+06   1.476175e+06
  -2.241321e+06  -4.900135e+06
   1.945992e+06  -5.826146e+06
   5.179618e+06  -2.637480e+05
   3.662310e+06   6.195078e+06
  -1.605078e+06   7.713151e+06
  -6.040398e+06   3.757045e+06
  -6.267638e+06  -1.622553e+06
  -3.021839e+06  -4.430195e+06
   1.796841e+05  -3.951089e+06
   5.509337e+05  -2.380562e+06
  -1.392250e+06  -2.193988e+06
  -2.279303e+06  -3.662909e+06
   5.600416e+05  -4.625772e+06
   5.557708e+06  -2.953751e+06
   7.837510e+06   7.704516e+05
   4.596520e+06   3.605367e+06
  -1.236578e+06   3.365384e+06
  -4.025288e+06   7.515572e+05
  -1.699097e+06  -1.697825e+06
   2.413915e+06  -1.994921e+06
   3.935021e+06   5.511578e+04
   2.042761e+06   2.893723e+06
  -7.305672e+05   4.045426e+06
  -1.889237e+06   2.113538e+06
  -1.109550e+06  -1.208596e+06
   2.313239e+05  -2.244091e+06
   5.587371e+05   3.214284e+05
  -6.193252e+05   3.190615e+06
  -2.140425e+06   2.289159e+06
  -2.048318e+06  -1.698909e+06
   2.706606e+05  -3.807343e+06
   2.865120e+06  -1.118214e+06
   2.851285e+06   3.446444e+06
  -4.558674e+05   4.781213e+06
  -4.420447e+06   1.577613e+06
  -5.415895e+06  -2.796200e+06
  -2.301754e+06  -4.500557e+06
   2.383233e+06  -2.773992e+06
   4.667625e+06   3.356094e+05
   2.809980e+06   2.281517e+06
  -1.060599e+06   1.872400e+06
  -3.101139e+06  -7.400635e+04
  -1.707130e+06  -1.480941e+06
   9.646431e+05  -9.892355e+05
   1.680985e+06   5.991063e+05
  -9.639369e+04   1.285125e+06
  -1.807196e+06   2.554167e+05
  -1.048612e+06  -1.279720e+06
   1.579614e+06  -1.613519e+06
   3.238384e+06  -2.338144e+05
   1.953871e+06   2.031884e+06
  -1.481147e+06   3.732322e+06
  -4.437027e+06   3.464025e+06
  -4.860640e+06   8.079367e+05
  -2.876905e+06  -2.781937e+06
  -3.714870e+05  -4.760369e+06
   8.964701e+05  -3.977580e+06
   8.400900e+05  -1.960246e+06
   7.389865e+05  -9.615474e+05
   1.519342e+06  -1.156606e+06
   2.640281e+06  -7.840915e+05
   2.787655e+06   1.038155e+06
   1.383157e+06   2.809572e+06
  -7.913301e+05   2.463188e+06
  -2.236305e+06  -2.893142e+04
  -1.838627e+06  -2.522948e+06
   2.848706e+05  -2.910237e+06
   2.648826e+06  -1.009469e+06
   3.386530e+06   1.560500e+06
   1.941385e+06   2.971777e+06
  -2.680498e+05   2.668403e+06
  -1.363671e+06   1.568201e+06
  -1.168577e+06   9.221206e+05
  -1.244508e+06   9.733081e+05
  -2.592170e+06   8.193974e+05
  -4.000094e+06  -4.082841e+05
  -3.330501e+06  -2.425737e+06
  -2.162667e+05  -3.933878e+06
   3.174658e+06  -3.732838e+06
   4.229482e+06  -1.726400e+06
   2.440115e+06   8.744694e+05
  -2.531302e+05   2.297972e+06
  -1.449227e+06   1.626065e+06
  -4.875843e+05  -2.077834e+05
   1.194323e+06  -1.174923e+06
   1.711191e+06  -3.249952e+05
   6.511071e+05   1.071341e+06
  -6.611931e+05   1.090456e+06
  -7.184669e+05  -3.226251e+05
   5.548552e+05  -1.159331e+06
   1.797439e+06   1.353906e+05
   1.602153e+06   2.612348e+06
  -2.289761e+05   3.784644e+06
  -2.568057e+06   2.330868e+06
  -3.801722e+06  -6.311587e+05
  -2.990227e+06  -2.820205e+06
  -6.829476e+05  -2.919996e+06
   1.351733e+06  -1.481035e+06
   1.640803e+06  -1.154874e+05
   4.837451e+05   4.511424e+04
  -3.662835e+05  -7.205180e+05
   2.760755e+05  -1.185274e+06
   1.619345e+06  -5.624495e+05
   1.878341e+06   6.350042e+05
   5.006625e+05   1.210809e+06
  -1.078909e+06   6.364977e+05
  -1.052309e+06  -4.136531e+05
   6.967125e+05  -8.159406e+05
   2.393165e+06  -7.244232e+04
   2.180284e+06   1.310311e+06
   4.129370e+03   2.245896e+06
  -2.300859e+06   1.884792e+06
  -2.769464e+06   3.633927e+05
  -1.177891e+06  -1.121170e+06
   8.048156e+05  -1.299274e+06
   1.315645e+06  -1.540122e+05
   9.332664e+04   9.406147e+05
  -1.433449e+06   6.895694e+05
  -1.706709e+06  -6.510852e+05
  -5.322621e+05  -1.593812e+06
   9.055824e+05  -1.159619e+06
   1.294450e+06   6.111472e+04
   4.225407e+05   6.873978e+05
  -6.651416e+05   9.890736e+04
  -6.777900e+05  -9.914783e+05
   6.048361e+05  -1.359522e+06
   1.978293e+06  -4.715610e+05
   1.959816e+06   1.051454e+06
   3.856682e+05   1.996030e+06
  -1.325733e+06   1.615625e+06
  -1.659492e+06   2.942501e+05
  -5.787595e+05  -8.065781e+05
   5.962991e+05  -8.450728e+05
   7.303791e+05  -6.852321e+04
  -2.251725e+04   5.514590e+05
  -6.403591e+05   4.102529e+05
  -4.392145e+05  -1.204819e+05
   2.796274e+05  -2.062021e+05
   6.128922e+05   4.323570e+05
  -3.189890e+04   1.129877e+06
  -1.290332e+06   9.357706e+05
  -2.045883e+06  -3.593842e+05
  -1.441556e+06  -1.885980e+06
   2.020346e+05  -2.428816e+06
   1.611153e+06  -1.550690e+06
   1.818620e+06   3.008953e+01
   1.075561e+06   1.019241e+06
   3.843807e+05   9.804505e+05
   2.931490e+05   4.203825e+05
   4.091366e+05   2.233651e+05
   6.626903e+04   6.129252e+05
  -7.886256e+05   9.351917e+05
  -1.470223e+06   4.470522e+05
  -1.199796e+06  -7.458117e+05
   1.341993e+05  -1.623983e+06
   1.714328e+06  -1.202477e+06
   2.299098e+06   4.249938e+05
   1.242168e+06   2.032372e+06
  -8.156881e+05   2.334076e+06
  -2.381515e+06   1.157726e+06
  -2.413444e+06  -4.565106e+05
  -1.203752e+06  -1.310943e+06
   6.453384e+04  -1.150257e+06
   5.336388e+05  -7.011583e+05
   3.461973e+05  -7.170150e+05
   2.275150e+05  -1.121217e+06
   6.067910e+05  -1.150027e+06
   1.189286e+06  -2.809511e+05
   1.286329e+06   1.078915e+06
   5.364880e+05   1.882127e+06
  -6.338636e+05   1.424567e+06
  -1.290409e+06   3.934422e+04
  -8.599461e+05  -1.184599e+06
   2.464551e+05  -1.371037e+06
   9.967172e+05  -5.664318e+05
   7.905754e+05   4.437359e+05
   5.273732e+04   9.316030e+05
  -3.159539e+05   8.084313e+05
   2.619833e+03   4.985547e+05
   3.899148e+05   3.762791e+05
   3.477876e+04   3.978346e+05
  -1.061772e+06   2.421417e+05
  -1.939445e+06  -2.730266e+05
  -1.603817e+06  -9.444002e+05
  -1.004566e+05  -1.322538e+06
   1.412646e+06  -1.094022e+06
   1.756400e+06  -3.795116e+05
   8.778931e+05   3.120757e+05
  -1.852952e+05   4.839943e+05
  -4.604805e+05   1.074126e+05
   1.955144e+04  -3.119133e+05
   4.929768e+05  -2.249356e+05
   4.566311e+05   3.406432e+05
   1.241048e+05   7.497588e+05
  -2.382484e+04   4.809451e+05
   1.517437e+05  -1.820106e+05
   3.757696e+05  -3.980788e+05
   2.983202e+05   2.151681e+05
  -2.008956e+05   1.020092e+06
  -8.811091e+05   1.034462e+06
  -1.198168e+06   9.511134e+04
  -6.971695e+05  -9.064818e+05
   4.071917e+05  -1.010985e+06
   1.157930e+06  -2.158026e+05
   7.077784e+05   6.076222e+05
  -6.626817e+05   6.715234e+05
  -1.635206e+06  -2.045829e+04
  -1.171426e+06  -8.242218e+05
   3.559544e+05  -1.092415e+06
   1.526959e+06  -6.588063e+05
   1.344293e+06   9.474133e+04
   2.001203e+05   5.429124e+05
  -6.321599e+05   3.308697e+05
  -3.436114e+05  -2.515249e+05
   6.390545e+05  -4.587884e+05
   1.164223e+06   1.727574e+05
   5.547934e+05   1.222439e+06
  -7.210587e+05   1.646790e+06
  -1.544066e+06   7.961895e+05
  -1.246891e+06  -8.071945e+05
  -1.809709e+05  -1.824057e+06
   7.493473e+05  -1.362671e+06
   9.538520e+05   1.026116e+05
   5.125752e+05   1.189579e+06
  -1.216296e+05   1.034577e+06
  -5.358017e+05   1.283011e+05
  -5.418908e+05  -3.995078e+05
  -2.454659e+05  -1.671446e+05
  -1.830968e+04   1.222440e+05
  -1.651327e+05  -2.375648e+05
  -4.676512e+05  -9.468492e+05
  -2.887104e+05  -1.106434e+06
   6.068791e+05  -4.177364e+05
   1.499605e+06   4.739183e+05
   1.379473e+06   8.467218e+05
   1.968285e+05   6.836529e+05
  -9.394082e+05   4.079802e+05
  -1.021571e+06   2.109212e+05
  -2.965022e+05  -4.287743e+03
   1.781571e+05  -2.169355e+05
  -5.594507e+04  -2.559538e+05
  -3.639298e+05  -1.531115e+05
  -1.100477e+04  -1.390215e+05
   7.712466e+05  -1.911394e+05
   1.036464e+06   4.986720e+04
   2.835181e+05   6.772632e+05
  -9.465482e+05   1.111108e+06
  -1.642606e+06   6.716734e+05
  -1.287551e+06  -4.983575e+05
  -2.225043e+05  -1.428111e+06
   7.558435e+05  -1.339213e+06
   1.053460e+06  -4.627476e+05
   6.668366e+05   2.938831e+05
   8.884915e+04   3.577203e+05
  -1.524998e+05   6.891887e+03
   5.246906e+04  -8.163946e+04
   3.426212e+05   3.440321e+05
   2.775189e+05   8.130866e+05
  -2.057081e+05   6.577489e+05
  -6.977211e+05  -1.925000e+05
  -6.722703e+05  -1.021716e+06
  -2.706981e+03  -1.021566e+06
   8.094622e+05  -1.505118e+05
   9.961375e+05   8.144595e+05
   2.769744e+05   1.088876e+06
  -7.351129e+05   6.033349e+05
  -1.074422e+06  -1.131591e+05
  -4.757113e+05  -5.579252e+05
   2.874488e+05  -5.951295e+05
   3.113958e+05  -3.466327e+05
  -3.261333e+05  -4.526272e+04
  -6.714947e+05   1.768449e+04
  -1.158016e+05  -2.940490e+05
   8.353358e+05  -6.805815e+05
   1.201336e+06  -5.870719e+05
   6.835540e+05   1.224598e+05
  -1.136908e+05   8.373304e+05
  -4.934553e+05   8.195922e+05
  -3.477329e+05   1.015410e+05
  -4.783880e+03  -5.118391e+05
   2.589514e+05  -3.895097e+05
   3.530881e+05   2.222257e+05
   2.354040e+05   5.837927e+05
  -7.579609e+04   3.621007e+05
  -3.868843e+05  -8.086081e+04
  -4.489441e+05  -2.375174e+05
  -2.418920e+05  -5.572778e+04
  -1.748133e+03   9.451330e+04
   8.419341e+04  -6.991104e+04
   9.197934e+04  -3.966858e+05
   1.942782e+05  -4.688284e+05
   3.632961e+05  -8.456846e+04
   3.575068e+05   4.673753e+05
   2.250957e+04   6.583213e+05
  -4.480213e+05   2.731101e+05
  -6.126688e+05  -3.349198e+05
  -2.088125e+05  -6.051256e+05
   4.919276e+05  -3.485610e+05
   8.397258e+05   1.191247e+05
   4.529074e+05   3.863001e+05
  -2.985978e+05   3.435894e+05
  -6.223782e+05   1.546566e+05
  -1.956908e+05   4.835924e+03
   4.228871e+05  -4.706994e+03
   4.350950e+05   1.489906e+05
  -2.367652e+05   3.339933e+05
  -8.511607e+05   2.548333e+05
