
 $NMID
 id='ANONYMOUS ', fmtdat='(2E16.6)'
 volume=1.0
 tramp=1.0
 $END
   3.223164e+07   1.250167e+06
   1.958845e+07   1.804522e+07
  -2.884425e+06   2.073803e+07
  -1.491204e+07   1.049286e+07
  -1.030027e+07  -1.387610e+06
   6.641044e+05  -5.419407e+06
   5.963696e+06  -1.085222e+06
   3.186440e+06   5.300037e+06
  -2.508356e+06   7.073410e+06
  -5.749457e+06   2.503644e+06
  -4.577770e+06  -4.005180e+06
  -4.639103e+05  -5.958938e+06
   2.822560e+06  -1.432752e+06
   2.046224e+06   4.514038e+06
  -2.035742e+06   5.240461e+06
  -4.932573e+06  -1.361814e+05
  -3.169860e+06  -6.165709e+06
   1.975827e+06  -7.369856e+06
   6.114824e+06  -3.436669e+06
   6.237052e+06   1.787355e+06
   3.029388e+06   4.621973e+06
  -3.279925e+05   4.250326e+06
  -1.039834e+06   2.494715e+06
   7.907722e+05   1.836750e+06
   2.000864e+06   3.018402e+06
  -3.549162e+05   4.162490e+06
  -5.074190e+06   2.881223e+06
  -7.394507e+06  -6.214260e+05
  -4.447983e+06  -3.467044e+06
   1.017345e+06  -3.359622e+06
   3.703681e+06  -9.487382e+05
   1.747950e+06   1.346723e+06
  -1.862633e+06   1.774589e+06
  -3.357731e+06   1.366165e+05
  -1.958341e+06  -2.413289e+06
   4.502157e+05  -3.717878e+06
   1.793034e+06  -2.147633e+06
   1.355709e+06   1.070706e+06
  -2.972480e+04   2.332869e+06
  -6.742847e+05   1.628141e+03
   3.752956e+05  -2.839296e+06
   1.967931e+06  -2.051205e+06
   1.809431e+06   1.754777e+06
  -6.739777e+05   3.614317e+06
  -3.127518e+06   7.458944e+05
  -2.668758e+06  -3.714840e+06
   8.306664e+05  -4.730008e+06
   4.441929e+06  -1.359313e+06
   4.995236e+06   2.829356e+06
   1.927984e+06   4.232110e+06
  -2.288305e+06   2.428463e+06
  -4.215123e+06  -4.925725e+05
  -2.407908e+06  -2.190282e+06
   1.159695e+06  -1.646998e+06
   2.936115e+06   2.673008e+05
   1.494162e+06   1.515568e+06
  -9.959975e+05   8.971459e+05
  -1.497025e+06  -5.998982e+05
   2.298865e+05  -1.032803e+06
   1.594920e+06   8.119359e+04
   5.869876e+05   1.342080e+06
  -1.851788e+06   1.308448e+06
  -3.098848e+06  -1.251571e+05
  -1.694237e+06  -2.112715e+06
   1.464496e+06  -3.554933e+06
   4.154063e+06  -3.283831e+06
   4.618547e+06  -7.835103e+05
   2.806712e+06   2.658397e+06
   3.337675e+05   4.517062e+06
  -9.803146e+05   3.633800e+06
  -8.308307e+05   1.610240e+06
  -5.085519e+05   7.401809e+05
  -1.146417e+06   1.120527e+06
  -2.303707e+06   9.149847e+05
  -2.601715e+06  -7.598020e+05
  -1.395230e+06  -2.454840e+06
   5.807353e+05  -2.232370e+06
   1.941397e+06  -5.090817e+04
   1.669291e+06   2.204439e+06
  -2.155737e+05   2.648036e+06
  -2.444734e+06   9.950018e+05
  -3.227665e+06  -1.418996e+06
  -1.880864e+06  -2.862476e+06
   3.019556e+05  -2.632123e+06
   1.420903e+06  -1.515955e+06
   1.208645e+06  -7.975097e+05
   1.182315e+06  -8.050204e+05
   2.364343e+06  -6.767253e+05
   3.636318e+06   4.304198e+05
   3.009762e+06   2.239163e+06
   1.777436e+05   3.571518e+06
  -2.874200e+06   3.395822e+06
  -3.831911e+06   1.622145e+06
  -2.261736e+06  -7.382131e+05
   1.494119e+05  -2.099802e+06
   1.278214e+06  -1.532907e+06
   4.615289e+05   1.697860e+05
  -1.071786e+06   1.087657e+06
  -1.576810e+06   2.920566e+05
  -6.170699e+05  -1.002760e+06
   5.792302e+05  -9.968345e+05
   6.056972e+05   2.831322e+05
  -5.419250e+05   9.526678e+05
  -1.560198e+06  -2.819203e+05
  -1.263914e+06  -2.416004e+06
   3.656258e+05  -3.279263e+06
   2.316712e+06  -1.903980e+06
   3.312436e+06   6.447802e+05
   2.607448e+06   2.487718e+06
   6.083274e+05   2.577569e+06
  -1.201475e+06   1.343342e+06
  -1.479118e+06   1.255156e+05
  -4.376035e+05  -4.093250e+04
   3.284585e+05   6.547750e+05
  -2.778131e+05   1.084297e+06
  -1.503973e+06   4.931552e+05
  -1.702649e+06  -6.182158e+05
  -4.227587e+05  -1.115737e+06
   9.845606e+05  -5.607673e+05
   9.263598e+05   3.693628e+05
  -6.309621e+05   6.879966e+05
  -2.106977e+06   2.735401e+04
  -1.906735e+06  -1.159539e+06
   1.169466e+04  -1.973654e+06
   2.062190e+06  -1.671606e+06
   2.495218e+06  -3.176376e+05
   1.060336e+06   1.034599e+06
  -7.555260e+05   1.195101e+06
  -1.224940e+06   1.287467e+05
  -9.071408e+04  -8.768751e+05
   1.309642e+06  -6.253646e+05
   1.535332e+06   6.064603e+05
   4.498843e+05   1.435126e+06
  -8.325419e+05   1.009611e+06
  -1.147992e+06  -8.858341e+04
  -3.501762e+05  -6.237709e+05
   6.181630e+05  -7.574402e+04
   6.190834e+05   9.081647e+05
  -5.444841e+05   1.241099e+06
  -1.795681e+06   4.372639e+05
  -1.782716e+06  -9.522836e+05
  -3.448955e+05  -1.813811e+06
   1.214282e+06  -1.456675e+06
   1.502392e+06  -2.500050e+05
   5.073886e+05   7.326882e+05
  -5.452664e+05   7.536934e+05
  -6.469428e+05   6.897652e+04
   2.132670e+04  -4.659523e+05
   5.443898e+05  -3.528973e+05
   3.560918e+05   8.011259e+04
  -2.575787e+05   1.361282e+05
  -5.252127e+05  -4.169808e+05
   5.545840e+04  -1.017174e+06
   1.174419e+06  -8.352975e+05
   1.849915e+06   3.320214e+05
   1.303986e+06   1.711340e+06
  -1.814234e+05   2.191475e+06
  -1.445088e+06   1.381651e+06
  -1.615298e+06  -8.081769e+03
  -9.482435e+05  -8.873215e+05
  -3.591090e+05  -8.329661e+05
  -3.043892e+05  -3.617177e+05
  -3.955145e+05  -2.274840e+05
  -5.511015e+04  -5.761089e+05
   7.204421e+05  -8.348951e+05
   1.315400e+06  -3.902256e+05
   1.064436e+06   6.578766e+05
  -1.245495e+05   1.435328e+06
  -1.538868e+06   1.069358e+06
  -2.065728e+06  -3.857333e+05
  -1.104435e+06  -1.836979e+06
   7.640504e+05  -2.101382e+06
   2.164786e+06  -1.019705e+06
   2.158027e+06   4.351603e+05
   1.050741e+06   1.170952e+06
  -6.449903e+04   1.000310e+06
  -4.480525e+05   6.154249e+05
  -2.754274e+05   6.701496e+05
  -1.981450e+05   1.047386e+06
  -5.647306e+05   1.055098e+06
  -1.091230e+06   2.538917e+05
  -1.170360e+06  -9.763693e+05
  -4.888872e+05  -1.702362e+06
   5.700002e+05  -1.289975e+06
   1.162258e+06  -3.120363e+04
   7.649484e+05   1.080269e+06
  -2.434929e+05   1.233022e+06
  -9.134565e+05   4.789073e+05
  -7.015451e+05  -4.378012e+05
  -1.420709e+04  -8.510729e+05
   3.147708e+05  -7.128966e+05
   4.762873e+03  -4.326849e+05
  -3.614094e+05  -3.357680e+05
  -3.672008e+04  -3.583962e+05
   9.688692e+05  -2.100827e+05
   1.766034e+06   2.600489e+05
   1.445878e+06   8.650687e+05
   6.521420e+04   1.202282e+06
  -1.303188e+06   9.856773e+05
  -1.590395e+06   3.251000e+05
  -7.753248e+05  -3.047954e+05
   1.830510e+05  -4.449807e+05
   4.184673e+05  -8.366355e+04
  -1.659189e+04   3.004838e+05
  -4.392538e+05   2.115966e+05
  -4.161757e+05  -3.085984e+05
  -1.339348e+05  -6.807781e+05
   3.023897e+03  -4.415692e+05
  -1.288900e+05   1.525933e+05
  -3.177227e+05   3.508146e+05
  -2.656240e+05  -1.944519e+05
   1.683206e+05  -9.201998e+05
   7.985908e+05  -9.395976e+05
   1.111588e+06  -8.985428e+04
   6.539217e+05   8.284584e+05
  -3.753623e+05   9.325078e+05
  -1.067986e+06   2.087306e+05
  -6.461732e+05  -5.440002e+05
   6.018660e+05  -6.012496e+05
   1.464569e+06   2.460422e+04
   1.031366e+06   7.378126e+05
  -3.325668e+05   9.629504e+05
  -1.362030e+06   5.715151e+05
  -1.191028e+06  -9.112256e+04
  -1.732714e+05  -4.814124e+05
   5.693090e+05  -2.891337e+05
   3.143606e+05   2.360106e+05
  -5.723774e+05   4.289721e+05
  -1.061085e+06  -1.410573e+05
  -5.241940e+05  -1.104616e+06
   6.316957e+05  -1.506313e+06
   1.389932e+06  -7.399156e+05
   1.132456e+06   7.198570e+05
   1.720715e+05   1.643815e+06
  -6.687870e+05   1.222010e+06
  -8.524544e+05  -1.009883e+05
  -4.519174e+05  -1.068875e+06
   1.195491e+05  -9.180081e+05
   4.852331e+05  -1.080580e+05
   4.796216e+05   3.514718e+05
   2.108917e+05   1.404234e+05
   1.950972e+04  -1.040178e+05
   1.643228e+05   2.315019e+05
   4.295356e+05   8.608133e+05
   2.484829e+05   9.881135e+05
  -5.637093e+05   3.673606e+05
  -1.352238e+06  -4.226557e+05
  -1.232144e+06  -7.543517e+05
  -1.760797e+05  -6.189422e+05
   8.345878e+05  -3.780197e+05
   9.145216e+05  -1.901732e+05
   2.752140e+05   1.585755e+04
  -1.558476e+05   1.999753e+05
   3.918772e+04   2.161977e+05
   3.167578e+05   1.208716e+05
   1.747751e+04   1.274657e+05
  -6.812703e+05   1.896260e+05
  -9.414100e+05  -3.717414e+04
  -2.819775e+05  -6.246343e+05
   8.401365e+05  -1.024951e+06
   1.499070e+06  -6.208823e+05
   1.190732e+06   4.450015e+05
   2.147368e+05   1.290286e+06
  -6.848361e+05   1.217611e+06
  -9.559650e+05   4.339985e+05
  -6.059650e+05  -2.526633e+05
  -8.896363e+04  -3.265828e+05
   1.278300e+05  -2.288053e+04
  -4.757583e+04   6.056909e+04
  -3.014300e+05  -3.113753e+05
  -2.476545e+05  -7.314993e+05
   1.815306e+05  -6.008561e+05
   6.336189e+05   1.586447e+05
   6.270609e+05   9.146479e+05
   2.412944e+04   9.335914e+05
  -7.285247e+05   1.594584e+05
  -9.163032e+05  -7.199896e+05
  -2.657701e+05  -9.890837e+05
   6.646038e+05  -5.621728e+05
   9.824014e+05   9.598774e+04
   4.375391e+05   5.171636e+05
  -2.644221e+05   5.538055e+05
  -2.945773e+05   3.130579e+05
   2.832879e+05   2.781058e+04
   6.046228e+05  -2.319192e+04
   1.099483e+05   2.703240e+05
  -7.516976e+05   6.176261e+05
  -1.091743e+06   5.207115e+05
  -6.284298e+05  -1.249352e+05
   1.000624e+05  -7.643552e+05
   4.575580e+05  -7.444001e+05
   3.327817e+05  -9.786376e+04
   1.695760e+04   4.603784e+05
  -2.329208e+05   3.626624e+05
  -3.251854e+05  -1.861736e+05
  -2.182160e+05  -5.274305e+05
   6.824560e+04  -3.412716e+05
   3.534762e+05   6.579767e+04
   4.081644e+05   2.235821e+05
   2.158718e+05   5.731481e+04
  -1.151472e+03  -9.842860e+04
  -6.718997e+04   4.265962e+04
  -5.974080e+04   3.587328e+05
  -1.538989e+05   4.502467e+05
  -3.301184e+05   1.054945e+05
  -3.497354e+05  -4.129092e+05
  -4.778598e+04  -6.033117e+05
   4.000910e+05  -2.588425e+05
   5.686963e+05   2.947536e+05
   2.012496e+05   5.441074e+05
  -4.480539e+05   3.184921e+05
  -7.709565e+05  -1.005655e+05
  -4.161137e+05  -3.484836e+05
   2.725181e+05  -3.224545e+05
   5.710862e+05  -1.539462e+05
   1.881905e+05  -3.230475e+03
  -3.728880e+05   2.315465e+04
  -3.951666e+05  -1.154832e+05
   1.970657e+05  -2.998558e+05
   7.499677e+05  -2.440771e+05
