
 $NMID
 id='ANONYMOUS ', fmtdat='(2E16.6)'
 volume=1.0
 tramp=1.0
 $END
   2.101298e+07  -1.746109e+05
   1.457801e+07   9.112338e+06
   7.556262e+05   1.322811e+07
  -8.870584e+06   9.751134e+06
  -8.125380e+06   1.702938e+06
  -9.042774e+05  -3.930379e+06
   4.495039e+06  -2.485699e+06
   3.798559e+06   3.372563e+06
  -7.056123e+05   6.439319e+06
  -4.090047e+06   3.078066e+06
  -3.644703e+06  -2.837019e+06
  -4.688689e+05  -4.741049e+06
   2.176827e+06  -9.031021e+05
   1.783911e+06   4.091683e+06
  -1.219264e+06   4.818793e+06
  -3.732765e+06   6.451206e+05
  -2.916087e+06  -4.256425e+06
   8.184485e+05  -5.520816e+06
   4.099590e+06  -2.620520e+06
   4.134611e+06   1.303287e+06
   1.589167e+06   2.974364e+06
  -4.001737e+05   2.095907e+06
   1.847503e+05   1.043861e+06
   2.087505e+06   1.787102e+06
   2.249622e+06   3.605655e+06
  -7.536152e+05   4.104348e+06
  -4.853039e+06   2.096093e+06
  -6.236528e+06  -1.074261e+06
  -3.254238e+06  -2.987712e+06
   1.498649e+06  -2.408171e+06
   3.549634e+06  -1.031079e+05
   1.222103e+06   1.949488e+06
  -2.607814e+06   1.978761e+06
  -3.847566e+06  -2.451659e+05
  -1.683854e+06  -2.916741e+06
   1.060587e+06  -3.503036e+06
   1.659361e+06  -1.322649e+06
   3.494404e+05   1.343264e+06
  -7.489758e+05   1.533372e+06
  -4.039124e+05  -9.035005e+05
   8.341107e+05  -2.941904e+06
   1.776798e+06  -1.952649e+06
   1.649804e+06   1.064931e+06
   3.458097e+05   2.649080e+06
  -1.349271e+06   9.940560e+05
  -1.822211e+06  -2.017536e+06
   7.559018e+03  -3.089944e+06
   2.986633e+06  -1.108323e+06
   4.229702e+06   1.989497e+06
   2.081408e+06   3.477594e+06
  -1.774897e+06   2.394162e+06
  -3.862823e+06   4.759366e+03
  -2.516563e+06  -1.657159e+06
   5.515378e+05  -1.522024e+06
   2.281428e+06  -1.541270e+05
   1.398836e+06   9.447070e+05
  -6.284113e+05   7.426532e+05
  -1.429169e+06  -4.111869e+05
  -2.428832e+05  -1.214608e+06
   1.385904e+06  -7.643770e+05
   1.365631e+06   5.239260e+05
  -5.308046e+05   1.315722e+06
  -2.232104e+06   6.264785e+05
  -1.578239e+06  -1.227506e+06
   1.209022e+06  -2.782133e+06
   3.685780e+06  -2.569616e+06
   3.820220e+06  -4.035903e+05
   1.985616e+06   2.306572e+06
   1.301051e+05   3.709702e+06
  -5.332970e+05   3.205427e+06
  -4.885492e+05   1.892174e+06
  -8.110960e+05   1.155165e+06
  -1.748747e+06   1.022651e+06
  -2.561711e+06   3.666159e+05
  -2.375470e+06  -1.272835e+06
  -9.808568e+05  -2.669871e+06
   9.315130e+05  -2.194944e+06
   2.111387e+06   1.144601e+05
   1.601022e+06   2.311637e+06
  -3.503564e+05   2.492501e+06
  -2.251464e+06   6.672198e+05
  -2.598224e+06  -1.468296e+06
  -1.295768e+06  -2.348494e+06
   3.078263e+05  -1.861084e+06
   9.269744e+05  -1.025511e+06
   7.171805e+05  -7.310360e+05
   9.175818e+05  -9.116243e+05
   2.141956e+06  -7.799718e+05
   3.343049e+06   2.841214e+05
   2.803599e+06   2.018098e+06
   1.786891e+05   3.331379e+06
  -2.750956e+06   3.137052e+06
  -3.663979e+06   1.338671e+06
  -2.026792e+06  -8.976651e+05
   3.854826e+05  -1.987434e+06
   1.354732e+06  -1.296856e+06
   3.943328e+05   2.303922e+05
  -1.065199e+06   9.610018e+05
  -1.417344e+06   2.454214e+05
  -4.751664e+05  -8.864551e+05
   6.171251e+05  -9.233381e+05
   6.962303e+05   2.663507e+05
  -3.456528e+05   1.124732e+06
  -1.534603e+06   1.929656e+05
  -1.630879e+06  -2.019064e+06
  -1.538664e+05  -3.365577e+06
   2.073182e+06  -2.330089e+06
   3.407747e+06   3.465523e+05
   2.749728e+06   2.469360e+06
   6.267159e+05   2.604277e+06
  -1.204872e+06   1.266148e+06
  -1.427676e+06   5.395484e+04
  -4.125766e+05  -4.216240e+04
   3.112199e+05   6.127951e+05
  -2.063940e+05   9.720259e+05
  -1.312657e+06   4.672698e+05
  -1.564929e+06  -4.868053e+05
  -4.545238e+05  -9.850870e+05
   9.051764e+05  -5.569401e+05
   9.472497e+05   3.527925e+05
  -5.633151e+05   7.814457e+05
  -2.120072e+06   1.551203e+05
  -1.988412e+06  -1.131946e+06
  -5.716005e+04  -2.009956e+06
   1.990030e+06  -1.667537e+06
   2.380461e+06  -3.167268e+05
   9.922918e+05   9.297284e+05
  -6.667560e+05   1.051351e+06
  -1.059760e+06   1.132372e+05
  -4.230839e+04  -7.669566e+05
   1.211633e+06  -5.675052e+05
   1.457601e+06   5.341361e+05
   5.017240e+05   1.356476e+06
  -7.331892e+05   1.042872e+06
  -1.123030e+06   1.043404e+04
  -4.093294e+05  -5.668488e+05
   5.339402e+05  -9.305567e+04
   5.572045e+05   8.384147e+05
  -5.383058e+05   1.143439e+06
  -1.693218e+06   3.685867e+05
  -1.652058e+06  -9.179977e+05
  -3.165907e+05  -1.693432e+06
   1.116761e+06  -1.369415e+06
   1.407525e+06  -2.650904e+05
   5.132960e+05   6.787447e+05
  -5.002883e+05   7.331551e+05
  -6.555250e+05   4.999150e+04
  -2.830005e+03  -5.298051e+05
   5.982347e+05  -4.051147e+05
   4.684930e+05   1.254381e+05
  -1.946176e+05   2.591770e+05
  -5.528678e+05  -3.064577e+05
  -1.572232e+04  -9.546469e+05
   1.088457e+06  -8.062632e+05
   1.743777e+06   3.080232e+05
   1.216611e+06   1.613378e+06
  -1.879772e+05   2.086099e+06
  -1.394949e+06   1.359550e+06
  -1.600168e+06   2.224997e+04
  -9.788794e+05  -9.206935e+05
  -3.400745e+05  -9.414101e+05
  -1.933230e+05  -4.208201e+05
  -2.865701e+05  -1.671566e+05
  -4.624580e+04  -4.824828e+05
   6.588151e+05  -8.080387e+05
   1.273536e+06  -4.087263e+05
   1.068974e+06   6.576120e+05
  -9.461227e+04   1.442911e+06
  -1.480183e+06   1.057911e+06
  -1.986526e+06  -3.657999e+05
  -1.083296e+06  -1.735594e+06
   6.611600e+05  -1.989887e+06
   2.007286e+06  -1.013992e+06
   2.088516e+06   3.512565e+05
   1.096604e+06   1.128371e+06
  -2.404213e+04   1.048346e+06
  -5.074531e+05   6.531293e+05
  -3.814265e+05   6.004373e+05
  -2.393303e+05   9.053641e+05
  -5.102736e+05   9.423259e+05
  -9.923282e+05   2.214773e+05
  -1.080775e+06  -9.357912e+05
  -4.397794e+05  -1.616453e+06
   5.590105e+05  -1.214251e+06
   1.109963e+06  -3.580117e+04
   7.438337e+05   9.950671e+05
  -1.796389e+05   1.168911e+06
  -8.124133e+05   5.272324e+05
  -6.711293e+05  -3.122027e+05
  -9.095719e+04  -7.590982e+05
   2.127033e+05  -7.010206e+05
  -2.369156e+04  -4.530708e+05
  -3.187636e+05  -3.378738e+05
  -1.923036e+04  -3.460702e+05
   8.881558e+05  -2.097564e+05
   1.627063e+06   2.313306e+05
   1.366336e+06   7.961908e+05
   1.175072e+05   1.104038e+06
  -1.168945e+06   9.155078e+05
  -1.489431e+06   3.427040e+05
  -7.656794e+05  -2.210967e+05
   1.398232e+05  -3.893670e+05
   3.815482e+05  -1.109028e+05
  -3.341437e+04   2.347755e+05
  -4.397565e+05   1.788293e+05
  -3.818155e+05  -2.955829e+05
  -6.139661e+04  -6.519340e+05
   6.048770e+04  -4.124483e+05
  -1.367077e+05   1.813025e+05
  -3.557950e+05   3.699720e+05
  -2.616319e+05  -1.822707e+05
   1.990549e+05  -8.842122e+05
   7.595773e+05  -8.716057e+05
   9.796079e+05  -4.843933e+04
   5.440835e+05   7.807928e+05
  -3.548952e+05   8.256995e+05
  -9.648599e+05   1.391498e+05
  -5.944075e+05  -5.380463e+05
   5.625397e+05  -5.784787e+05
   1.418696e+06   7.981962e+03
   1.050266e+06   7.062821e+05
  -2.757167e+05   9.677590e+05
  -1.326288e+06   6.086335e+05
  -1.188433e+06  -6.329408e+04
  -1.875960e+05  -4.770834e+05
   5.404437e+05  -2.980902e+05
   2.804346e+05   2.053096e+05
  -5.690915e+05   3.679733e+05
  -9.912142e+05  -1.874234e+05
  -4.281400e+05  -1.066475e+06
   6.749775e+05  -1.388189e+06
   1.350843e+06  -6.403976e+05
   1.059462e+06   7.197125e+05
   1.318614e+05   1.577035e+06
  -6.583134e+05   1.184557e+06
  -8.272837e+05  -7.275429e+04
  -4.557631e+05  -1.025024e+06
   8.204680e+04  -9.086178e+05
   4.526661e+05  -1.199701e+05
   4.860575e+05   3.552570e+05
   2.357261e+05   1.558650e+05
   7.011129e+03  -1.137230e+05
   1.023297e+05   1.855936e+05
   3.791253e+05   8.098539e+05
   2.699359e+05   9.616823e+05
  -4.890000e+05   3.612732e+05
  -1.290441e+06  -4.230985e+05
  -1.208855e+06  -7.427125e+05
  -1.668110e+05  -5.834273e+05
   8.383559e+05  -3.370951e+05
   8.910451e+05  -1.810654e+05
   2.330421e+05  -1.049018e+04
  -1.657602e+05   1.812527e+05
   7.637549e+04   2.379114e+05
   3.440586e+05   1.554146e+05
  -5.468422e+03   1.211484e+05
  -7.005876e+05   1.404505e+05
  -8.847184e+05  -6.599567e+04
  -1.852696e+05  -5.775133e+05
   8.584911e+05  -9.199481e+05
   1.395051e+06  -5.309282e+05
   1.055958e+06   4.626186e+05
   1.582075e+05   1.234297e+06
  -6.573579e+05   1.128435e+06
  -9.089804e+05   3.599027e+05
  -5.725597e+05  -2.804323e+05
  -5.679190e+04  -3.071804e+05
   1.593852e+05   1.710823e+04
  -3.612249e+04   9.254321e+04
  -3.054396e+05  -2.903502e+05
  -2.405534e+05  -7.019488e+05
   1.923786e+05  -5.541287e+05
   6.017767e+05   1.979859e+05
   5.414923e+05   9.079395e+05
  -4.899412e+04   8.717791e+05
  -7.155117e+05   8.500956e+04
  -8.309952e+05  -7.427368e+05
  -2.000761e+05  -9.360052e+05
   6.443245e+05  -4.825131e+05
   9.039020e+05   1.221542e+05
   3.820742e+05   4.633617e+05
  -2.524923e+05   4.771238e+05
  -2.458673e+05   2.866030e+05
   3.076956e+05   5.587917e+04
   5.839151e+05  -4.517527e+01
   8.502056e+04   2.480837e+05
  -7.270392e+05   5.754208e+05
  -1.015333e+06   5.083699e+05
  -5.563212e+05  -9.156014e+04
   1.125151e+05  -7.049452e+05
   4.099905e+05  -6.844956e+05
   2.702267e+05  -6.160906e+04
  -1.962234e+04   4.507301e+05
  -2.332741e+05   3.141538e+05
  -3.003183e+05  -2.221701e+05
  -1.885723e+05  -5.054239e+05
   7.712780e+04  -2.853571e+05
   3.291262e+05   8.698854e+04
   3.726988e+05   1.923508e+05
   2.068148e+05   3.525261e+04
   1.565631e+04  -6.014622e+04
  -7.410619e+04   1.011676e+05
  -1.221801e+05   3.546816e+05
  -2.251738e+05   3.687552e+05
  -3.282940e+05   1.822328e+04
  -2.632304e+05  -4.371439e+05
   3.834097e+04  -5.679938e+05
   4.018974e+05  -2.134310e+05
   5.018602e+05   3.145885e+05
   1.551740e+05   5.328599e+05
  -4.197206e+05   2.870757e+05
  -7.022533e+05  -1.277558e+05
  -3.740771e+05  -3.394014e+05
   2.613986e+05  -2.697916e+05
   5.286500e+05  -9.793157e+04
   1.470075e+05   2.875199e+03
  -3.913896e+05  -2.527489e+04
  -3.813542e+05  -1.651669e+05
   2.330711e+05  -2.995821e+05
   7.735676e+05  -2.019959e+05
