
 $NMID
 id='ANONYMOUS ', fmtdat='(2E16.6)'
 volume=1.0
 tramp=1.0
 $END
   5.459403e+07   1.924034e+06
   3.161274e+07   3.447280e+07
  -8.225896e+06   3.639222e+07
  -2.685801e+07   1.360819e+07
  -1.568925e+07  -6.805166e+06
   3.282546e+06  -8.854279e+06
   9.402997e+06   1.171531e+06
   2.627152e+06   9.379256e+06
  -5.995033e+06   9.052557e+06
  -9.339454e+06   1.873432e+06
  -6.703942e+06  -6.245208e+06
  -6.023661e+05  -8.514614e+06
   4.040868e+06  -2.551524e+06
   2.566564e+06   5.529821e+06
  -3.719226e+06   6.451899e+06
  -7.602144e+06  -1.402945e+06
  -4.112366e+06  -1.001920e+07
   3.944311e+06  -1.138774e+07
   1.000675e+07  -5.443243e+06
   1.045075e+07   2.404858e+06
   6.087984e+06   7.552301e+06
   2.478718e+05   8.332175e+06
  -2.968514e+06   5.575586e+06
  -1.561299e+06   2.471403e+06
   1.348970e+06   2.309920e+06
   1.666323e+05   4.366808e+06
  -5.650884e+06   4.291112e+06
  -9.727948e+06   1.795938e+05
  -6.840664e+06  -4.352818e+06
   5.898688e+04  -5.063109e+06
   3.964758e+06  -2.406826e+06
   2.544726e+06   2.529926e+05
  -7.716311e+05   1.197357e+06
  -2.563367e+06   5.293528e+05
  -2.309804e+06  -1.659334e+06
  -5.230106e+05  -4.123412e+06
   1.985251e+06  -3.722241e+06
   3.117404e+06   3.934164e+05
   1.403567e+06   3.680887e+06
  -9.220861e+05   1.677919e+06
  -2.668807e+05  -2.661842e+06
   2.490130e+06  -2.315800e+06
   2.335348e+06   3.124412e+06
  -2.409146e+06   5.830592e+06
  -6.605029e+06   7.421028e+05
  -4.685792e+06  -6.833719e+06
   2.073762e+06  -8.152045e+06
   7.292970e+06  -2.125803e+06
   6.779949e+06   4.493049e+06
   1.801112e+06   5.963721e+06
  -3.436991e+06   2.685010e+06
  -5.218820e+06  -1.492760e+06
  -2.424058e+06  -3.413599e+06
   2.342164e+06  -2.103318e+06
   4.393944e+06   9.638869e+05
   1.865574e+06   2.659975e+06
  -1.698364e+06   1.294230e+06
  -1.737708e+06  -1.015218e+06
   1.185783e+06  -8.988254e+05
   2.313406e+06   1.605867e+06
  -5.836102e+05   3.144157e+06
  -4.387351e+06   1.686543e+06
  -5.057887e+06  -1.357272e+06
  -2.174744e+06  -3.866138e+06
   1.938697e+06  -5.162390e+06
   5.173927e+06  -4.711879e+06
   6.242989e+06  -1.543034e+06
   4.431233e+06   3.323625e+06
   7.624230e+05   6.183793e+06
  -1.871124e+06   4.710073e+06
  -1.654725e+06   1.271129e+06
  -1.625697e+05  -7.339732e+04
  -1.584279e+05   1.122290e+06
  -1.847364e+06   1.763216e+06
  -2.963445e+06   6.662002e+04
  -2.042547e+06  -2.144349e+06
   6.991618e+04  -2.293302e+06
   1.696243e+06  -2.140564e+05
   1.756268e+06   2.189368e+06
  -5.507492e+04   3.027984e+06
  -2.876033e+06   1.590809e+06
  -4.466047e+06  -1.366192e+06
  -3.068992e+06  -3.859764e+06
   1.935526e+05  -4.156086e+06
   2.312492e+06  -2.571823e+06
   2.180781e+06  -1.057927e+06
   1.797007e+06  -6.859805e+05
   2.962513e+06  -4.882400e+05
   4.397682e+06   7.972498e+05
   3.519154e+06   2.841448e+06
   9.618592e+04   4.216555e+06
  -3.338413e+06   3.961635e+06
  -4.342584e+06   2.102165e+06
  -2.731915e+06  -5.229685e+05
  -2.060605e+05  -2.342586e+06
   1.209328e+06  -1.966491e+06
   5.816774e+05   6.675228e+04
  -1.152958e+06   1.329817e+06
  -1.949420e+06   3.728082e+05
  -8.988547e+05  -1.250677e+06
   5.614883e+05  -1.149106e+06
   4.668990e+05   3.802300e+05
  -1.018111e+06   7.298153e+05
  -1.822397e+06  -1.214834e+06
  -6.872016e+05  -3.436126e+06
   1.492895e+06  -3.454035e+06
   3.103045e+06  -1.217277e+06
   3.396099e+06   1.397240e+06
   2.397492e+06   2.826348e+06
   4.854596e+05   2.712052e+06
  -1.303500e+06   1.504965e+06
  -1.642025e+06   2.114046e+05
  -5.066596e+05  -5.269063e+04
   3.607028e+05   7.758705e+05
  -4.360354e+05   1.354898e+06
  -1.945624e+06   5.578568e+05
  -2.057783e+06  -9.214253e+05
  -3.810351e+05  -1.438504e+06
   1.202835e+06  -5.775177e+05
   9.258745e+05   4.660277e+05
  -8.492451e+05   5.467535e+05
  -2.242650e+06  -3.035901e+05
  -1.823222e+06  -1.387515e+06
   2.373358e+05  -2.040994e+06
   2.384634e+06  -1.702807e+06
   2.859073e+06  -2.604355e+05
   1.229991e+06   1.308182e+06
  -9.666724e+05   1.514734e+06
  -1.591999e+06   1.608223e+05
  -1.775332e+05  -1.111684e+06
   1.569499e+06  -7.351818e+05
   1.756608e+06   8.154165e+05
   3.430620e+05   1.692885e+06
  -1.111348e+06   1.000219e+06
  -1.282320e+06  -3.131795e+05
  -2.535555e+05  -7.912778e+05
   8.100206e+05  -4.325961e+04
   7.411834e+05   1.094920e+06
  -6.163772e+05   1.462081e+06
  -2.082055e+06   5.321731e+05
  -2.086004e+06  -1.111071e+06
  -3.695825e+05  -2.141061e+06
   1.498070e+06  -1.672123e+06
   1.774993e+06  -2.003716e+05
   5.109820e+05   8.934857e+05
  -6.821449e+05   8.218408e+05
  -6.634547e+05   7.730691e+04
   1.070358e+05  -3.803999e+05
   5.091576e+05  -2.353903e+05
   1.545403e+05   5.346491e+04
  -4.307188e+05  -7.243373e+04
  -5.195042e+05  -6.747349e+05
   2.164865e+05  -1.208002e+06
   1.427769e+06  -9.068402e+05
   2.139397e+06   4.482571e+05
   1.487091e+06   2.020145e+06
  -2.477874e+05   2.497719e+06
  -1.673889e+06   1.451531e+06
  -1.745025e+06  -1.307077e+05
  -9.001324e+05  -9.303417e+05
  -3.465544e+05  -6.974190e+05
  -4.889123e+05  -2.586987e+05
  -6.216045e+05  -3.370302e+05
  -7.426852e+04  -7.800218e+05
   9.056223e+05  -9.176613e+05
   1.492530e+06  -3.300851e+05
   1.088416e+06   7.491720e+05
  -2.549791e+05   1.509009e+06
  -1.780507e+06   1.097855e+06
  -2.315906e+06  -5.157142e+05
  -1.151599e+06  -2.168817e+06
   1.056015e+06  -2.417292e+06
   2.616672e+06  -1.036442e+06
   2.411797e+06   6.875390e+05
   9.886142e+05   1.374743e+06
  -1.996689e+05   9.799217e+05
  -4.055360e+05   5.457288e+05
  -1.103572e+05   7.915041e+05
  -1.410913e+05   1.343007e+06
  -7.098500e+05   1.309552e+06
  -1.334092e+06   3.064760e+05
  -1.366796e+06  -1.132223e+06
  -5.537736e+05  -1.962437e+06
   6.582176e+05  -1.477813e+06
   1.325163e+06   1.233052e+04
   8.223609e+05   1.323793e+06
  -4.094481e+05   1.426452e+06
  -1.182938e+06   4.069045e+05
  -8.124478e+05  -7.124399e+05
   1.356530e+05  -1.088102e+06
   5.454568e+05  -7.895104e+05
   8.093675e+04  -4.284628e+05
  -4.440623e+05  -3.563065e+05
  -5.755331e+04  -3.989380e+05
   1.180462e+06  -2.018460e+05
   2.115266e+06   3.678386e+05
   1.652766e+06   1.081627e+06
  -5.206117e+04   1.465315e+06
  -1.644449e+06   1.147743e+06
  -1.882797e+06   2.697667e+05
  -8.467197e+05  -5.046947e+05
   2.761061e+05  -5.749593e+05
   5.208076e+05  -3.082580e+04
   1.777970e+04   4.321349e+05
  -4.645944e+05   2.644205e+05
  -4.929691e+05  -3.589347e+05
  -2.508316e+05  -7.586902e+05
  -8.930882e+04  -5.037002e+05
  -1.376135e+05   1.017478e+05
  -2.887178e+05   3.107933e+05
  -2.822375e+05  -2.401391e+05
   1.550873e+05  -1.022916e+06
   9.392632e+05  -1.090640e+06
   1.406600e+06  -1.552860e+05
   8.657465e+05   9.615792e+05
  -4.464143e+05   1.167901e+06
  -1.306280e+06   3.272667e+05
  -7.547397e+05  -6.006824e+05
   7.280826e+05  -6.615655e+05
   1.635846e+06   1.081718e+05
   1.032920e+06   8.886429e+05
  -4.987289e+05   1.011188e+06
  -1.540957e+06   4.868445e+05
  -1.267872e+06  -1.989855e+05
  -1.371807e+05  -5.285018e+05
   6.690292e+05  -2.721100e+05
   3.911386e+05   3.093778e+05
  -6.134793e+05   5.388039e+05
  -1.228928e+06  -9.345667e+04
  -6.892524e+05  -1.233810e+06
   6.239865e+05  -1.766699e+06
   1.546102e+06  -9.119354e+05
   1.298168e+06   7.915284e+05
   2.005008e+05   1.856008e+06
  -7.700699e+05   1.333482e+06
  -9.502355e+05  -1.888255e+05
  -4.353253e+05  -1.230641e+06
   2.325313e+05  -9.921687e+05
   5.798681e+05  -7.957571e+04
   4.785658e+05   3.878525e+05
   1.673677e+05   1.364194e+05
   5.021969e+04  -9.506959e+04
   2.878809e+05   3.181810e+05
   5.211630e+05   1.007385e+06
   1.877707e+05   1.109100e+06
  -7.455214e+05   3.948406e+05
  -1.522947e+06  -4.888403e+05
  -1.315025e+06  -8.667953e+05
  -1.851605e+05  -7.242427e+05
   8.815221e+05  -4.360700e+05
   1.015523e+06  -1.835266e+05
   3.738215e+05   6.524903e+04
  -1.503482e+05   2.359161e+05
  -4.106794e+04   2.014623e+05
   2.705809e+05   8.702539e+04
   5.554346e+04   1.407514e+05
  -6.806584e+05   2.538567e+05
  -1.088307e+06  -1.357765e+04
  -4.581269e+05  -7.319590e+05
   8.718538e+05  -1.231648e+06
   1.776285e+06  -7.812855e+05
   1.478613e+06   4.548389e+05
   2.874931e+05   1.460004e+06
  -8.038065e+05   1.425947e+06
  -1.095124e+06   5.630253e+05
  -6.822064e+05  -2.349795e+05
  -1.426797e+05  -3.755617e+05
   6.836413e+04  -8.214648e+04
  -8.240358e+04   7.169163e+03
  -3.032241e+05  -3.817202e+05
  -2.501526e+05  -8.356419e+05
   1.860801e+05  -7.084781e+05
   7.095156e+05   1.159910e+05
   7.790996e+05   9.834866e+05
   1.334818e+05   1.080091e+06
  -7.806588e+05   2.747893e+05
  -1.085407e+06  -7.374170e+05
  -3.706286e+05  -1.135930e+06
   7.428441e+05  -7.147295e+05
   1.169499e+06   7.649125e+04
   5.544017e+05   6.486083e+05
  -3.051825e+05   7.156062e+05
  -4.061647e+05   3.786315e+05
   2.469142e+05  -2.434911e+03
   6.717341e+05  -4.518410e+04
   1.554377e+05   3.243360e+05
  -8.552405e+05   7.029722e+05
  -1.312161e+06   5.454477e+05
  -7.984766e+05  -2.006668e+05
   1.008177e+05  -9.079333e+05
   5.865227e+05  -8.882036e+05
   4.597107e+05  -1.712297e+05
   6.645206e+04   4.952608e+05
  -2.486849e+05   4.609279e+05
  -3.710456e+05  -1.394170e+05
  -2.670532e+05  -5.991956e+05
   5.609007e+04  -4.566330e+05
   4.091779e+05   4.019698e+04
   4.943105e+05   3.012589e+05
   2.481368e+05   1.075707e+05
  -3.753164e+04  -1.688024e+05
  -7.615765e+04  -6.553836e+04
   3.509965e+04   3.671778e+05
  -3.162704e+04   5.975675e+05
  -3.335190e+05   2.554677e+05
  -5.016632e+05  -3.848553e+05
  -1.892920e+05  -6.808131e+05
   4.190377e+05  -3.377531e+05
   7.039573e+05   2.829495e+05
   2.751242e+05   5.922217e+05
  -5.306853e+05   3.814455e+05
  -9.277192e+05  -7.267810e+04
  -5.031123e+05  -3.918959e+05
   3.082079e+05  -4.272042e+05
   6.722478e+05  -2.505099e+05
   2.720984e+05  -1.740156e+04
  -3.485922e+05   9.073760e+04
  -4.243168e+05  -4.573311e+04
   1.562378e+05  -2.991024e+05
   7.496196e+05  -2.948968e+05
