
 $NMID
 id='ANONYMOUS ', fmtdat='(2E16.6)'
 volume=1.0
 tramp=1.0
 $END
  -5.330905e+07   2.782057e+04
  -3.206158e+07  -3.249756e+07
   6.726231e+06  -3.578275e+07
   2.572782e+07  -1.423850e+07
   1.556560e+07   6.071192e+06
  -2.889190e+06   8.759654e+06
  -9.235687e+06  -8.045182e+05
  -2.906147e+06  -9.071765e+06
   5.540993e+06  -9.065775e+06
   9.059350e+06  -2.162362e+06
   6.754382e+06   5.868686e+06
   8.705389e+05   8.291628e+06
  -3.857919e+06   2.617748e+06
  -2.687939e+06  -5.327767e+06
   3.415296e+06  -6.440858e+06
   7.473393e+06   1.098949e+06
   4.366068e+06   9.634140e+06
  -3.447029e+06   1.124925e+07
  -9.566345e+06   5.656445e+06
  -1.026768e+07  -1.983191e+06
  -6.190356e+06  -7.146071e+06
  -5.322718e+05  -8.102178e+06
   2.684990e+06  -5.534583e+06
   1.418017e+06  -2.479877e+06
  -1.398783e+06  -2.233234e+06
  -2.973264e+05  -4.268588e+06
   5.385995e+06  -4.372370e+06
   9.495307e+06  -4.895595e+05
   6.817624e+06   4.024622e+06
   9.813633e+04   4.936913e+06
  -3.799761e+06   2.465239e+06
  -2.484123e+06  -1.775463e+05
   7.375781e+05  -1.195885e+06
   2.500893e+06  -5.879548e+05
   2.302341e+06   1.556725e+06
   6.323511e+05   4.006523e+06
  -1.811231e+06   3.689372e+06
  -3.037301e+06  -2.820498e+05
  -1.483276e+06  -3.535354e+06
   8.342290e+05  -1.655797e+06
   3.362532e+05   2.596999e+06
  -2.357934e+06   2.349123e+06
  -2.390313e+06  -2.968870e+06
   2.140263e+06  -5.779863e+06
   6.410316e+06  -9.645690e+05
   4.811223e+06   6.498172e+06
  -1.731643e+06   8.027520e+06
  -7.041377e+06   2.329289e+06
  -6.780638e+06  -4.155521e+06
  -1.969038e+06  -5.768733e+06
   3.269633e+06  -2.744948e+06
   5.158039e+06   1.280277e+06
   2.489311e+06   3.254777e+06
  -2.216091e+06   2.137086e+06
  -4.325690e+06  -7.895587e+05
  -1.913306e+06  -2.533463e+06
   1.615333e+06  -1.322066e+06
   1.734366e+06   9.352101e+05
  -1.126882e+06   9.275959e+05
  -2.322600e+06  -1.479618e+06
   4.464390e+05  -3.090939e+06
   4.215141e+06  -1.808524e+06
   4.986097e+06   1.140209e+06
   2.261730e+06   3.695136e+06
  -1.715980e+06   5.103960e+06
  -4.894627e+06   4.771786e+06
  -6.041999e+06   1.714241e+06
  -4.433006e+06  -3.094775e+06
  -9.499381e+05  -6.011155e+06
   1.666480e+06  -4.666990e+06
   1.573224e+06  -1.305849e+06
   1.691866e+05   6.121016e+04
   1.292780e+05  -1.098132e+06
   1.753688e+06  -1.774619e+06
   2.892461e+06  -1.523615e+05
   2.058913e+06   2.036604e+06
  -3.646140e+03   2.245121e+06
  -1.658463e+06   2.577807e+05
  -1.788391e+06  -2.091490e+06
  -4.117387e+04  -2.963566e+06
   2.758967e+06  -1.645252e+06
   4.403972e+06   1.188682e+06
   3.122585e+06   3.663071e+06
  -4.705335e+04   4.058759e+06
  -2.164344e+06   2.587584e+06
  -2.088478e+06   1.110638e+06
  -1.732331e+06   7.359598e+05
  -2.882329e+06   5.800980e+05
  -4.329024e+06  -6.305679e+05
  -3.537433e+06  -2.661346e+06
  -2.339278e+05  -4.122440e+06
   3.135905e+06  -3.985536e+06
   4.179034e+06  -2.195473e+06
   2.686236e+06   4.260799e+05
   2.729777e+05   2.283858e+06
  -1.121362e+06   1.958329e+06
  -5.699927e+05  -4.913129e+04
   1.086358e+06  -1.337704e+06
   1.894867e+06  -4.274846e+05
   9.182290e+05   1.193347e+06
  -5.153043e+05   1.141279e+06
  -4.731214e+05  -3.598498e+05
   9.723991e+05  -7.553514e+05
   1.831158e+06   1.119743e+06
   7.978295e+05   3.338952e+06
  -1.340051e+06   3.439630e+06
  -2.999317e+06   1.305581e+06
  -3.376644e+06  -1.252337e+06
  -2.442984e+06  -2.691649e+06
  -5.637559e+05  -2.641694e+06
   1.226833e+06  -1.514504e+06
   1.599247e+06  -2.586919e+05
   4.969881e+05   3.514340e+04
  -3.787586e+05  -7.479849e+05
   3.810337e+05  -1.340637e+06
   1.884571e+06  -6.108543e+05
   2.044680e+06   8.331718e+05
   4.209644e+05   1.396123e+06
  -1.160051e+06   6.059802e+05
  -9.245532e+05  -4.277400e+05
   8.135928e+05  -5.681350e+05
   2.209678e+06   2.205286e+05
   1.834409e+06   1.300376e+06
  -1.648412e+05   2.009457e+06
  -2.279495e+06   1.746531e+06
  -2.789859e+06   3.485811e+05
  -1.246253e+06  -1.239215e+06
   8.953275e+05  -1.512796e+06
   1.550852e+06  -2.095648e+05
   2.094173e+05   1.081269e+06
  -1.511912e+06   7.708879e+05
  -1.746709e+06  -7.402345e+05
  -3.922505e+05  -1.646919e+06
   1.055784e+06  -1.017630e+06
   1.267787e+06   2.639725e+05
   2.755743e+05   7.680655e+05
  -7.920990e+05   7.103816e+04
  -7.628353e+05  -1.046719e+06
   5.543277e+05  -1.451615e+06
   2.019654e+06  -5.897149e+05
   2.077608e+06   1.018290e+06
   4.322187e+05   2.082720e+06
  -1.410574e+06   1.685579e+06
  -1.730349e+06   2.542293e+05
  -5.293521e+05  -8.587154e+05
   6.417618e+05  -8.275081e+05
   6.484418e+05  -9.567456e+04
  -9.262600e+04   3.795692e+05
  -4.938545e+05   2.489115e+05
  -1.564087e+05  -4.978880e+04
   4.236046e+05   5.223129e+04
   5.331846e+05   6.407242e+05
  -1.693940e+05   1.189603e+06
  -1.366240e+06   9.357274e+05
  -2.108393e+06  -3.671378e+05
  -1.521951e+06  -1.927083e+06
   1.606057e+05  -2.452146e+06
   1.591528e+06  -1.475968e+06
   1.713455e+06   7.092875e+04
   9.112982e+05   8.833506e+05
   3.593108e+05   6.738322e+05
   4.835767e+05   2.368037e+05
   6.183499e+05   3.062107e+05
   9.989990e+04   7.585211e+05
  -8.543882e+05   9.284554e+05
  -1.449714e+06   3.738384e+05
  -1.090697e+06  -6.973137e+05
   1.992961e+05  -1.486765e+06
   1.706301e+06  -1.134512e+06
   2.283961e+06   4.278535e+05
   1.199917e+06   2.084845e+06
  -9.520311e+05   2.401837e+06
  -2.526384e+06   1.102538e+06
  -2.384816e+06  -5.927887e+05
  -1.014581e+06  -1.314928e+06
   1.639065e+05  -9.684005e+05
   3.817040e+05  -5.476346e+05
   8.395613e+04  -7.754210e+05
   9.359144e+04  -1.315971e+06
   6.500361e+05  -1.303915e+06
   1.294192e+06  -3.441663e+05
   1.374132e+06   1.062669e+06
   6.061148e+05   1.901955e+06
  -5.958114e+05   1.467505e+06
  -1.297816e+06   3.161079e+04
  -8.495843e+05  -1.268124e+06
   3.524552e+05  -1.410423e+06
   1.144394e+06  -4.399493e+05
   8.207018e+05   6.680197e+05
  -9.406174e+04   1.069648e+06
  -5.062161e+05   7.929884e+05
  -6.541063e+04   4.234771e+05
   4.452382e+05   3.335816e+05
   6.920991e+04   3.879441e+05
  -1.147589e+06   2.375591e+05
  -2.081118e+06  -2.882301e+05
  -1.653636e+06  -1.003028e+06
   3.502673e+02  -1.436261e+06
   1.569438e+06  -1.178615e+06
   1.833960e+06  -3.271773e+05
   8.474041e+05   4.651516e+05
  -2.496521e+05   5.716364e+05
  -5.087670e+05   4.849237e+04
  -3.234735e+04  -4.202700e+05
   4.456160e+05  -2.726844e+05
   4.935172e+05   3.346238e+05
   2.687281e+05   7.325149e+05
   1.027280e+05   4.884765e+05
   1.321034e+05  -1.046554e+05
   2.741053e+05  -3.138058e+05
   2.847379e+05   2.251043e+05
  -1.183703e+05   1.005285e+06
  -8.821785e+05   1.098286e+06
  -1.368750e+06   1.998507e+05
  -8.775247e+05  -9.103157e+05
   3.967036e+05  -1.156305e+06
   1.264802e+06  -3.631853e+05
   7.573257e+05   5.628174e+05
  -6.904472e+05   6.716059e+05
  -1.604987e+06  -5.208351e+04
  -1.041498e+06  -8.368720e+05
   4.546600e+05  -1.007827e+06
   1.493786e+06  -5.281324e+05
   1.249068e+06   1.534184e+05
   1.518113e+05   5.136061e+05
  -6.463716e+05   2.889680e+05
  -3.931597e+05  -2.891232e+05
   5.822785e+05  -5.462517e+05
   1.204254e+06   5.167845e+04
   7.132505e+05   1.183470e+06
  -5.531017e+05   1.746634e+06
  -1.482035e+06   9.410876e+05
  -1.295036e+06  -7.321545e+05
  -2.562906e+05  -1.809012e+06
   7.105174e+05  -1.330227e+06
   9.369992e+05   1.531578e+05
   4.671661e+05   1.190670e+06
  -1.947603e+05   9.803567e+05
  -5.650808e+05   9.785015e+04
  -4.815096e+05  -3.649167e+05
  -1.687288e+05  -1.294258e+05
  -4.616356e+04   9.525935e+04
  -2.918081e+05  -2.998025e+05
  -5.427320e+05  -9.678001e+05
  -2.205221e+05  -1.080553e+06
   7.157379e+05  -4.123604e+05
   1.505987e+06   4.287764e+05
   1.315671e+06   8.062606e+05
   2.052622e+05   7.023525e+05
  -8.486610e+05   4.541671e+05
  -9.881609e+05   2.126406e+05
  -3.678373e+05  -5.016687e+04
   1.396485e+05  -2.351095e+05
   3.340742e+04  -2.000573e+05
  -2.678672e+05  -7.810130e+04
  -5.867992e+04  -1.354138e+05
   6.579607e+05  -2.688101e+05
   1.064546e+06  -2.222272e+04
   4.709165e+05   6.987961e+05
  -8.126820e+05   1.231290e+06
  -1.710260e+06   8.224386e+05
  -1.459082e+06  -3.953621e+05
  -3.282757e+05  -1.418206e+06
   7.387946e+05  -1.421100e+06
   1.051740e+06  -5.860261e+05
   6.744363e+05   2.081776e+05
   1.515945e+05   3.621145e+05
  -6.415593e+04   8.089277e+04
   8.098767e+04  -1.081671e+04
   3.100015e+05   3.638183e+05
   2.724456e+05   8.098735e+05
  -1.588399e+05   6.987150e+05
  -6.971688e+05  -9.119955e+04
  -7.926916e+05  -9.364308e+05
  -1.648432e+05  -1.050488e+06
   7.538503e+05  -2.924598e+05
   1.084067e+06   6.862449e+05
   3.990053e+05   1.097923e+06
  -7.023103e+05   7.223722e+05
  -1.145479e+06  -3.617465e+04
  -5.639165e+05  -6.148610e+05
   2.737482e+05  -7.092353e+05
   3.839219e+05  -3.846350e+05
  -2.416188e+05   8.865324e+03
  -6.554615e+05   6.571483e+04
  -1.625639e+05  -3.115030e+05
   8.137141e+05  -7.155340e+05
   1.265809e+06  -5.779202e+05
   7.876141e+05   1.683719e+05
  -6.862286e+04   8.908310e+05
  -5.434447e+05   8.885368e+05
  -4.422714e+05   1.831113e+05
  -8.019457e+04  -4.818440e+05
   2.276208e+05  -4.582097e+05
   3.663400e+05   1.250252e+05
   2.805612e+05   5.771401e+05
  -3.914802e+04   4.474398e+05
  -4.009761e+05  -2.627087e+04
  -4.937670e+05  -2.776478e+05
  -2.468387e+05  -9.664508e+04
   4.272903e+04   1.627539e+05
   7.840797e+04   6.040981e+04
  -4.454825e+04  -3.568950e+05
   1.170531e+04  -5.824312e+05
   3.162790e+05  -2.586294e+05
   5.008201e+05   3.594363e+05
   2.058174e+05   6.577605e+05
  -3.985913e+05   3.430313e+05
  -6.964180e+05  -2.534788e+05
  -2.875661e+05  -5.699041e+05
   5.061399e+05  -3.905831e+05
   9.087070e+05   4.049231e+04
   5.045504e+05   3.665628e+05
  -2.866916e+05   4.272724e+05
  -6.480601e+05   2.664532e+05
  -2.647194e+05   2.659222e+04
   3.379422e+05  -9.823104e+04
   4.155271e+05   3.229534e+04
  -1.445272e+05   2.971110e+05
  -7.245782e+05   3.110890e+05
