
 $NMID
 id='ANONYMOUS ', fmtdat='(2E16.6)'
 volume=1.0
 tramp=1.0
 $END
   2.908272e+07   1.555383e+06
   1.712822e+07   1.834744e+07
  -4.348233e+06   1.959623e+07
  -1.496108e+07   7.715277e+06
  -9.126618e+06  -3.686868e+06
   1.786365e+06  -5.483174e+06
   5.830974e+06   1.033236e+05
   2.038762e+06   5.498985e+06
  -3.376907e+06   5.803985e+06
  -5.563110e+06   1.307698e+06
  -3.759154e+06  -3.941131e+06
   9.641043e+04  -5.207105e+06
   2.699847e+06  -1.278018e+06
   1.547328e+06   3.629943e+06
  -2.190499e+06   3.982807e+06
  -4.275029e+06  -7.411026e+05
  -2.094235e+06  -5.576168e+06
   2.459129e+06  -6.016066e+06
   5.542601e+06  -2.419383e+06
   5.340400e+06   1.809295e+06
   2.762159e+06   4.159795e+06
  -1.616691e+05   4.201028e+06
  -1.521547e+06   2.795057e+06
  -6.674878e+05   1.530453e+06
   6.797200e+05   1.689697e+06
  -2.324946e+05   2.621134e+06
  -3.517124e+06   2.167672e+06
  -5.674911e+06  -3.709666e+05
  -3.810312e+06  -2.874049e+06
   3.785700e+05  -3.029487e+06
   2.654791e+06  -1.197596e+06
   1.455177e+06   4.867986e+05
  -9.153807e+05   7.877696e+05
  -1.826206e+06  -8.973279e+04
  -9.851725e+05  -1.515358e+06
   4.506832e+05  -2.494791e+06
   1.471941e+06  -1.728165e+06
   1.465270e+06   6.211612e+05
   4.452900e+05   2.043973e+06
  -4.077958e+05   6.318321e+05
   2.009420e+05  -1.673013e+06
   1.570052e+06  -1.240882e+06
   1.365143e+06   1.851271e+06
  -1.116203e+06   3.337689e+06
  -3.373245e+06   5.895824e+05
  -2.564895e+06  -3.529327e+06
   9.171150e+05  -4.329923e+06
   3.880385e+06  -1.122030e+06
   3.811220e+06   2.557743e+06
   1.020979e+06   3.490933e+06
  -2.127421e+06   1.643831e+06
  -3.207506e+06  -9.346751e+05
  -1.456927e+06  -2.247864e+06
   1.450447e+06  -1.473133e+06
   2.670506e+06   5.366120e+05
   1.148578e+06   1.720065e+06
  -1.018595e+06   8.803560e+05
  -1.130901e+06  -7.123248e+05
   6.283372e+05  -8.397960e+05
   1.545866e+06   6.834111e+05
   9.221146e+04   1.820255e+06
  -2.179965e+06   1.122588e+06
  -2.805091e+06  -6.695450e+05
  -1.201394e+06  -2.110924e+06
   1.305446e+06  -2.661622e+06
   3.165441e+06  -2.210652e+06
   3.498118e+06  -4.655378e+05
   2.179223e+06   2.059423e+06
   6.761216e+04   3.539708e+06
  -1.296675e+06   2.728756e+06
  -1.129734e+06   7.844887e+05
  -3.346724e+05  -9.705372e+04
  -3.225141e+05   4.493518e+05
  -1.170723e+06   7.610071e+05
  -1.669866e+06  -2.332823e+05
  -1.010388e+06  -1.511875e+06
   3.146160e+05  -1.476678e+06
   1.227066e+06  -7.943670e+03
   1.036099e+06   1.553272e+06
  -2.346919e+05   1.890863e+06
  -1.805362e+06   7.464981e+05
  -2.428212e+06  -1.068489e+06
  -1.443971e+06  -2.295770e+06
   3.110298e+05  -2.200456e+06
   1.302600e+06  -1.234080e+06
   1.156802e+06  -4.903577e+05
   1.012157e+06  -3.798596e+05
   1.729291e+06  -2.376349e+05
   2.511111e+06   5.991034e+05
   1.932421e+06   1.813830e+06
  -1.108929e+05   2.508110e+06
  -2.154372e+06   2.168581e+06
  -2.711365e+06   9.548403e+05
  -1.607688e+06  -5.317128e+05
   6.914625e+04  -1.430346e+06
   9.427725e+05  -1.091538e+06
   4.254832e+05   1.003628e+05
  -7.632738e+05   7.928404e+05
  -1.251474e+06   1.908796e+05
  -5.127521e+05  -8.117152e+05
   4.729654e+05  -7.768431e+05
   4.372416e+05   2.195036e+05
  -5.362420e+05   6.060093e+05
  -1.142104e+06  -4.974882e+05
  -5.130616e+05  -2.009986e+06
   8.683552e+05  -2.237141e+06
   1.941124e+06  -8.534662e+05
   2.113656e+06   9.684103e+05
   1.395765e+06   1.955321e+06
   1.533412e+05   1.738725e+06
  -9.018280e+05   7.992416e+05
  -1.032172e+06  -2.089451e+04
  -3.090241e+05  -8.541763e+04
   2.244716e+05   4.775490e+05
  -2.434847e+05   8.215902e+05
  -1.167737e+06   3.296122e+05
  -1.288404e+06  -5.773516e+05
  -2.944045e+05  -9.340127e+05
   7.364754e+05  -4.368995e+05
   6.591129e+05   2.502262e+05
  -4.234506e+05   3.678271e+05
  -1.350233e+06  -1.710781e+05
  -1.124931e+06  -9.035449e+05
   1.845633e+05  -1.287419e+06
   1.531902e+06  -9.693507e+05
   1.775280e+06  -2.574078e+04
   7.132640e+05   8.655891e+05
  -6.349598e+05   8.916747e+05
  -9.785851e+05   4.638966e+04
  -9.271743e+04  -6.845412e+05
   9.703348e+05  -4.198552e+05
   1.079575e+06   5.406154e+05
   2.048846e+05   1.095605e+06
  -7.199529e+05   6.772639e+05
  -8.673643e+05  -1.686109e+05
  -2.512296e+05  -5.270495e+05
   4.216894e+05  -1.076555e+05
   4.193919e+05   5.795802e+05
  -3.600073e+05   7.956214e+05
  -1.200891e+06   2.283426e+05
  -1.172497e+06  -7.340189e+05
  -1.356394e+05  -1.294010e+06
   9.769705e+05  -9.577205e+05
   1.131717e+06  -4.410496e+04
   3.406225e+05   6.202621e+05
  -4.419599e+05   5.543759e+05
  -4.879488e+05   4.912499e+04
  -1.104631e+04  -2.818896e+05
   3.098653e+05  -1.989769e+05
   1.660342e+05   1.755341e+04
  -1.766591e+05  -1.660484e+04
  -2.586393e+05  -3.574132e+05
   1.540109e+05  -6.559224e+05
   8.461932e+05  -4.525573e+05
   1.216580e+06   3.515491e+05
   7.676280e+05   1.248549e+06
  -2.926969e+05   1.487260e+06
  -1.118887e+06   8.236119e+05
  -1.100984e+06  -1.750296e+05
  -5.210723e+05  -7.114999e+05
  -1.213969e+05  -5.743994e+05
  -1.696433e+05  -2.297255e+05
  -2.566078e+05  -1.705117e+05
   3.243844e+04  -3.777926e+05
   5.680707e+05  -4.484742e+05
   8.618478e+05  -9.830081e+04
   5.709377e+05   5.172376e+05
  -2.353408e+05   8.871933e+05
  -1.088007e+06   5.533188e+05
  -1.335126e+06  -4.152543e+05
  -6.197658e+05  -1.322107e+06
   6.658641e+05  -1.393851e+06
   1.573497e+06  -5.495140e+05
   1.463256e+06   4.800137e+05
   6.163338e+05   9.057084e+05
  -1.443828e+05   6.659486e+05
  -3.435269e+05   3.490442e+05
  -2.016877e+05   4.234970e+05
  -1.904215e+05   7.228793e+05
  -4.678881e+05   7.079058e+05
  -7.765507e+05   1.097449e+05
  -7.399817e+05  -7.447137e+05
  -2.252097e+05  -1.199037e+06
   4.734479e+05  -8.532056e+05
   8.044228e+05   4.800416e+04
   4.575644e+05   7.949662e+05
  -2.606953e+05   8.389458e+05
  -6.793463e+05   2.668071e+05
  -4.612742e+05  -3.602209e+05
   5.191442e+04  -5.985566e+05
   2.715267e+05  -4.787670e+05
   4.647476e+04  -3.068691e+05
  -1.976351e+05  -2.563296e+05
   2.122913e+04  -2.316579e+05
   6.682470e+05  -5.513955e+04
   1.161850e+06   3.071415e+05
   9.206914e+05   6.873174e+05
  -2.040639e+04   8.300364e+05
  -9.502085e+05   5.954237e+05
  -1.128744e+06   1.144694e+05
  -5.295629e+05  -2.700597e+05
   1.558064e+05  -2.915337e+05
   2.926672e+05  -2.022596e+04
  -5.152545e+04   1.960771e+05
  -3.335125e+05   8.509369e+04
  -2.513827e+05  -2.600125e+05
  -1.660289e+04  -4.691070e+05
   4.159242e+04  -2.965505e+05
  -1.041042e+05   7.580570e+04
  -2.258882e+05   1.984906e+05
  -1.300056e+05  -1.307149e+05
   1.958654e+05  -5.662775e+05
   5.815822e+05  -5.540919e+05
   7.196081e+05   8.130001e+03
   3.680609e+05   5.868390e+05
  -3.123915e+05   5.924968e+05
  -7.253867e+05   5.420284e+04
  -3.859374e+05  -4.261366e+05
   4.672690e+05  -3.578261e+05
   9.998134e+05   1.516945e+05
   6.337221e+05   6.013015e+05
  -3.209859e+05   6.281404e+05
  -9.835907e+05   2.696919e+05
  -8.048944e+05  -1.628719e+05
  -7.932935e+04  -3.458986e+05
   4.131011e+05  -1.644533e+05
   2.070714e+05   1.706712e+05
  -4.062455e+05   2.444236e+05
  -6.999334e+05  -1.693823e+05
  -2.661008e+05  -7.810010e+05
   5.525439e+05  -9.641307e+05
   1.007849e+06  -3.795881e+05
   7.076815e+05   5.923350e+05
  -2.810548e+04   1.135474e+06
  -5.630264e+05   7.753310e+05
  -5.740404e+05  -1.363042e+05
  -2.259910e+05  -7.616856e+05
   1.427518e+05  -6.211720e+05
   3.286768e+05  -4.514126e+04
   3.002585e+05   2.746024e+05
   1.407972e+05   1.141447e+05
   2.546860e+04  -7.773914e+04
   9.357775e+04   1.537535e+05
   2.286037e+05   6.163150e+05
   9.926881e+04   7.085914e+05
  -4.091000e+05   2.192452e+05
  -8.901192e+05  -4.013174e+05
  -7.810888e+05  -6.233483e+05
  -6.639414e+04  -4.309141e+05
   6.048851e+05  -1.759692e+05
   6.399009e+05  -5.244807e+04
   1.823880e+05   2.610817e+04
  -1.285626e+05   1.252555e+05
   3.236180e+03   1.627248e+05
   2.022004e+05   1.110761e+05
   1.818917e+03   7.373406e+04
  -4.742987e+05   6.028613e+04
  -6.294603e+05  -9.632435e+04
  -1.333559e+05  -4.307479e+05
   6.553162e+05  -6.179963e+05
   1.058393e+06  -2.999871e+05
   7.555187e+05   3.958229e+05
   3.211244e+04   8.887819e+05
  -5.555323e+05   7.623817e+05
  -6.672875e+05   2.100664e+05
  -3.811137e+05  -2.171203e+05
  -3.513812e+04  -2.163421e+05
   8.490801e+04   6.550655e+03
  -3.912557e+04   4.344071e+04
  -1.846267e+05  -2.325192e+05
  -1.194613e+05  -5.150214e+05
   1.627274e+05  -3.947121e+05
   4.138671e+05   1.557601e+05
   3.491326e+05   6.688479e+05
  -6.370423e+04   6.303135e+05
  -5.072617e+05   3.910354e+04
  -5.547062e+05  -5.699031e+05
  -9.248617e+04  -6.873852e+05
   4.917988e+05  -3.168011e+05
   6.475739e+05   1.430436e+05
   2.543127e+05   3.696799e+05
  -2.098158e+05   3.427253e+05
  -2.092147e+05   1.972140e+05
   1.949618e+05   5.958115e+04
   4.081598e+05   3.992929e+04
   4.812857e+04   1.877351e+05
  -5.622793e+05   3.585862e+05
  -7.836420e+05   2.760357e+05
  -4.155799e+05  -1.252716e+05
   1.294254e+05  -5.092438e+05
   3.636614e+05  -4.698869e+05
   2.200555e+05  -3.826291e+04
  -3.594636e+04   3.126138e+05
  -1.857939e+05   2.182129e+05
  -1.973157e+05  -1.619905e+05
  -1.018067e+05  -3.742675e+05
   7.075141e+04  -2.173678e+05
   2.323760e+05   7.607847e+04
   2.621110e+05   1.789737e+05
   1.453911e+05   5.428809e+04
   4.059699e+03  -5.730665e+04
  -5.986192e+04   3.420036e+04
  -8.297041e+04   2.341254e+05
  -1.484228e+05   2.734636e+05
  -2.267894e+05   2.738113e+04
  -1.863429e+05  -3.098740e+05
   3.205331e+04  -4.023561e+05
   2.925138e+05  -1.337952e+05
   3.494721e+05   2.471346e+05
   8.389482e+04   3.821816e+05
  -3.253122e+05   1.778394e+05
  -5.056228e+05  -1.303974e+05
  -2.515667e+05  -2.684462e+05
   2.066605e+05  -1.928847e+05
   3.950656e+05  -5.357696e+04
   1.239662e+05   1.259279e+04
  -2.588589e+05  -2.351350e+04
  -2.580636e+05  -1.212191e+05
   1.676796e+05  -1.888504e+05
   5.401164e+05  -9.532238e+04
