
 $NMID
 id='ANONYMOUS ', fmtdat='(2E16.6)'
 volume=1.0
 tramp=1.0
 $END
  -2.977359e+07   1.331649e+06
  -1.980903e+07  -1.570699e+07
   1.244503e+06  -1.992544e+07
   1.370615e+07  -1.065729e+07
   1.007983e+07   1.194322e+06
  -4.510640e+05   5.424723e+06
  -5.823164e+06   1.168780e+06
  -3.220309e+06  -5.079951e+06
   2.301898e+06  -6.772389e+06
   5.435710e+06  -2.516842e+06
   4.410289e+06   3.498785e+06
   6.387149e+05   5.436186e+06
  -2.493755e+06   1.483617e+06
  -1.948731e+06  -3.968892e+06
   1.798270e+06  -4.841545e+06
   4.646807e+06  -4.387707e+04
   3.194434e+06   5.578461e+06
  -1.516666e+06   6.888171e+06
  -5.428701e+06   3.473858e+06
  -5.776825e+06  -1.206613e+06
  -3.150725e+06  -3.917396e+06
  -2.011675e+05  -3.949057e+06
   7.411577e+05  -2.655406e+06
  -4.810379e+05  -1.937722e+06
  -1.503637e+06  -2.616639e+06
   2.771758e+05  -3.510874e+06
   4.257852e+06  -2.627436e+06
   6.485121e+06   2.394990e+05
   4.164302e+06   2.837191e+06
  -5.905771e+05   2.979966e+06
  -3.064679e+06   9.992505e+05
  -1.456935e+06  -9.654879e+05
   1.592969e+06  -1.324968e+06
   2.770786e+06   1.991273e+03
   1.558268e+06   2.030591e+06
  -3.571746e+05   3.133685e+06
  -1.438099e+06   1.972993e+06
  -1.245131e+06  -6.962458e+05
  -2.489062e+05  -1.972559e+06
   3.860374e+05  -1.779845e+05
  -3.256909e+05   2.337899e+06
  -1.734591e+06   1.812948e+06
  -1.768862e+06  -1.610687e+06
   4.780117e+05  -3.537312e+06
   3.004620e+06  -1.062442e+06
   2.846880e+06   3.226940e+06
  -4.157511e+05   4.505375e+06
  -3.972751e+06   1.552305e+06
  -4.627842e+06  -2.397138e+06
  -1.812795e+06  -3.832238e+06
   2.081655e+06  -2.247151e+06
   3.856581e+06   4.386347e+05
   2.207640e+06   2.068646e+06
  -1.088489e+06   1.653526e+06
  -2.783471e+06  -1.322740e+05
  -1.474057e+06  -1.422323e+06
   8.865984e+05  -9.243325e+05
   1.378465e+06   5.538734e+05
  -3.109102e+05   1.034682e+06
  -1.660490e+06  -1.243175e+05
  -6.488692e+05  -1.496601e+06
   1.775363e+06  -1.476060e+06
   2.998400e+06   1.683576e+04
   1.688258e+06   1.938636e+06
  -1.163809e+06   3.213122e+06
  -3.535938e+06   2.981738e+06
  -4.021771e+06   8.591234e+05
  -2.590042e+06  -2.186062e+06
  -4.564876e+05  -3.994516e+06
   8.649517e+05  -3.331361e+06
   8.904396e+05  -1.433892e+06
   5.391096e+05  -4.735578e+05
   8.966264e+05  -7.910294e+05
   1.814430e+06  -7.747665e+05
   2.144200e+06   5.504113e+05
   1.198727e+06   2.017579e+06
  -4.674386e+05   1.872506e+06
  -1.641771e+06   1.941192e+04
  -1.432771e+06  -1.908787e+06
   1.534599e+05  -2.304259e+06
   2.087192e+06  -9.390169e+05
   2.862166e+06   1.109716e+06
   1.798247e+06   2.436551e+06
  -1.092790e+05   2.379501e+06
  -1.197317e+06   1.473623e+06
  -1.104693e+06   7.948850e+05
  -1.091961e+06   7.317936e+05
  -2.105581e+06   6.058408e+05
  -3.215173e+06  -3.568366e+05
  -2.664977e+06  -1.954616e+06
  -1.799879e+05  -3.133461e+06
   2.477817e+06  -2.978216e+06
   3.301003e+06  -1.444116e+06
   1.960771e+06   5.865920e+05
  -8.800865e+04   1.785227e+06
  -1.071468e+06   1.343712e+06
  -4.139362e+05  -1.231314e+05
   9.059388e+05  -9.676134e+05
   1.397486e+06  -3.017043e+05
   5.902282e+05   8.639556e+05
  -4.937454e+05   8.891350e+05
  -5.380761e+05  -2.609748e+05
   5.297339e+05  -8.666329e+05
   1.473247e+06   2.866819e+05
   1.135202e+06   2.247838e+06
  -4.332168e+05   2.978991e+06
  -2.171760e+06   1.645531e+06
  -2.937668e+06  -6.672002e+05
  -2.227500e+06  -2.242299e+06
  -4.903123e+05  -2.251529e+06
   1.044996e+06  -1.158239e+06
   1.284287e+06  -1.091603e+05
   3.861996e+05   3.899510e+04
  -2.997074e+05  -5.703364e+05
   2.205324e+05  -9.771536e+05
   1.329216e+06  -4.797850e+05
   1.542762e+06   5.255476e+05
   4.095846e+05   1.007318e+06
  -8.614640e+05   5.234604e+05
  -8.167083e+05  -3.158469e+05
   5.639900e+05  -5.937055e+05
   1.847496e+06   5.841734e+03
   1.642910e+06   1.040774e+06
  -4.040171e+04   1.726699e+06
  -1.815425e+06   1.454684e+06
  -2.193655e+06   2.805373e+05
  -9.552801e+05  -9.131771e+05
   6.434110e+05  -1.082850e+06
   1.093270e+06  -1.493314e+05
   1.155526e+05   7.695573e+05
  -1.140538e+06   5.737457e+05
  -1.366260e+06  -5.263942e+05
  -4.017102e+05  -1.283142e+06
   7.535360e+05  -9.078026e+05
   1.039277e+06   8.113438e+04
   3.272832e+05   5.697639e+05
  -5.369108e+05   9.617314e+04
  -5.544343e+05  -7.668769e+05
   4.481705e+05  -1.073874e+06
   1.546172e+06  -3.960359e+05
   1.559929e+06   8.120603e+05
   3.175034e+05   1.587534e+06
  -1.062403e+06   1.294283e+06
  -1.336392e+06   2.256912e+05
  -4.619184e+05  -6.590913e+05
   4.768725e+05  -6.795374e+05
   5.682119e+05  -6.661246e+04
  -2.280016e+04   4.007161e+05
  -4.696142e+05   2.898908e+05
  -2.848173e+05  -8.296523e+04
   2.505212e+05  -1.088684e+05
   4.628670e+05   3.840082e+05
  -5.557656e+04   8.963872e+05
  -1.026163e+06   7.290912e+05
  -1.613858e+06  -2.845103e+05
  -1.144113e+06  -1.487236e+06
   1.576731e+05  -1.914732e+06
   1.276393e+06  -1.205022e+06
   1.419802e+06   2.641577e+04
   8.065885e+05   7.983839e+05
   2.757351e+05   7.267542e+05
   2.489788e+05   2.920949e+05
   3.543789e+05   1.802703e+05
   5.325049e+04   5.002770e+05
  -6.382282e+05   7.221968e+05
  -1.146887e+06   3.206227e+05
  -9.035426e+05  -5.876350e+05
   1.343533e+05  -1.244596e+06
   1.346350e+06  -9.185187e+05
   1.797029e+06   3.412690e+05
   9.689237e+05   1.607527e+06
  -6.611847e+05   1.851577e+06
  -1.902314e+06   9.063375e+05
  -1.903479e+06  -3.877856e+05
  -9.159394e+05  -1.045675e+06
   7.788314e+04  -8.798348e+05
   4.030635e+05  -5.164683e+05
   2.271764e+05  -5.610789e+05
   1.508132e+05  -9.105950e+05
   4.814049e+05  -9.338142e+05
   9.519751e+05  -2.350720e+05
   1.025197e+06   8.443685e+05
   4.332246e+05   1.482595e+06
  -4.916889e+05   1.127809e+06
  -1.017862e+06   3.158364e+04
  -6.784829e+05  -9.457110e+05
   2.107759e+05  -1.090284e+06
   8.140065e+05  -4.317863e+05
   6.349875e+05   3.838650e+05
   2.298583e+04   7.604988e+05
  -2.783612e+05   6.415866e+05
  -1.238695e+04   3.860412e+05
   3.083259e+05   2.903646e+05
   2.671841e+04   3.085792e+05
  -8.477316e+05   1.864762e+05
  -1.541974e+06  -2.177791e+05
  -1.268394e+06  -7.513629e+05
  -6.999902e+04  -1.059991e+06
   1.131027e+06  -8.781930e+05
   1.398987e+06  -2.929260e+05
   6.946482e+05   2.701627e+05
  -1.533631e+05   3.952220e+05
  -3.716001e+05   7.518190e+04
   9.570576e+03  -2.592462e+05
   3.851246e+05  -1.773652e+05
   3.629002e+05   2.712776e+05
   1.118894e+05   5.840885e+05
  -2.470904e+03   3.757093e+05
   1.207074e+05  -1.275664e+05
   2.810773e+05  -2.933527e+05
   2.241573e+05   1.690130e+05
  -1.531171e+05   7.887750e+05
  -6.883750e+05   8.146705e+05
  -9.555139e+05   9.288505e+04
  -5.688653e+05  -7.058733e+05
   3.151280e+05  -8.120283e+05
   9.201031e+05  -1.893567e+05
   5.593824e+05   4.737109e+05
  -5.295474e+05   5.269867e+05
  -1.284875e+06  -2.961800e+04
  -8.995995e+05  -6.609195e+05
   3.034539e+05  -8.493867e+05
   1.204591e+06  -4.924161e+05
   1.045649e+06   9.051660e+04
   1.482681e+05   4.256152e+05
  -5.014132e+05   2.555365e+05
  -2.795621e+05  -1.995340e+05
   4.901773e+05  -3.693145e+05
   9.156139e+05   1.187870e+05
   4.541184e+05   9.513298e+05
  -5.459984e+05   1.302031e+06
  -1.205701e+06   6.391638e+05
  -9.833853e+05  -6.292416e+05
  -1.450894e+05  -1.432960e+06
   5.909297e+05  -1.064234e+06
   7.494397e+05   9.112364e+04
   3.939543e+05   9.382702e+05
  -1.080698e+05   8.082777e+05
  -4.244728e+05   9.730851e+04
  -4.157773e+05  -3.117133e+05
  -1.822825e+05  -1.286041e+05
  -1.990278e+04   9.480164e+04
  -1.486062e+05  -1.898624e+05
  -3.775935e+05  -7.465365e+05
  -2.159565e+05  -8.722505e+05
   4.933367e+05  -3.316237e+05
   1.179396e+06   3.714526e+05
   1.073758e+06   6.681438e+05
   1.535900e+05   5.403331e+05
  -7.279663e+05   3.201182e+05
  -8.001683e+05   1.617313e+05
  -2.438386e+05  -7.957385e+03
   1.359626e+05  -1.725010e+05
  -2.813331e+04  -1.984651e+05
  -2.693764e+05  -1.138786e+05
  -1.447880e+04  -1.047616e+05
   5.886424e+05  -1.535422e+05
   8.158180e+05   3.052236e+04
   2.465411e+05   5.291221e+05
  -7.263116e+05   8.833002e+05
  -1.298341e+06   5.464248e+05
  -1.030155e+06  -3.769246e+05
  -1.836460e+05  -1.119442e+06
   5.930136e+05  -1.060422e+06
   8.236699e+05  -3.764020e+05
   5.203943e+05   2.203120e+05
   7.768888e+04   2.781143e+05
  -1.049864e+05   1.097044e+04
   4.759098e+04  -5.575832e+04
   2.650475e+05   2.745082e+05
   2.169647e+05   6.392779e+05
  -1.540707e+05   5.214084e+05
  -5.447221e+05  -1.383315e+05
  -5.403850e+05  -7.898247e+05
  -2.217549e+04  -8.028081e+05
   6.259066e+05  -1.331150e+05
   7.890930e+05   6.246579e+05
   2.306441e+05   8.548557e+05
  -5.718652e+05   4.863689e+05
  -8.507983e+05  -7.956225e+04
  -3.858007e+05  -4.430897e+05
   2.207123e+05  -4.804737e+05
   2.520141e+05  -2.800355e+05
  -2.444973e+05  -3.422503e+04
  -5.241636e+05   1.684648e+04
  -9.628139e+04  -2.323038e+05
   6.555686e+05  -5.373931e+05
   9.560329e+05  -4.605167e+05
   5.529933e+05   1.004990e+05
  -8.412471e+04   6.646327e+05
  -3.947664e+05   6.544555e+05
  -2.828732e+05   9.219267e+04
  -1.028936e+04  -3.965510e+05
   1.986907e+05  -3.128928e+05
   2.752571e+05   1.636436e+05
   1.889539e+05   4.577148e+05
  -5.301177e+04   2.942083e+05
  -3.044196e+05  -5.716029e+04
  -3.603136e+05  -1.916490e+05
  -1.924610e+05  -4.986811e+04
   6.736516e+03   8.109740e+04
   7.058132e+04  -3.819627e+04
   5.757110e+04  -3.021734e+05
   1.271777e+05  -3.765134e+05
   2.743953e+05  -8.581308e+04
   2.944456e+05   3.504418e+05
   3.872300e+04   5.116786e+05
  -3.447179e+05   2.204520e+05
  -4.885181e+05  -2.521577e+05
  -1.710412e+05  -4.692097e+05
   3.882240e+05  -2.784821e+05
   6.662852e+05   8.350795e+04
   3.614531e+05   3.008600e+05
  -2.313881e+05   2.802469e+05
  -4.901662e+05   1.354925e+05
  -1.626470e+05   8.014166e+03
   3.190732e+05  -1.224274e+04
   3.362979e+05   1.042341e+05
  -1.766292e+05   2.549486e+05
  -6.531218e+05   2.013595e+05
