
 $NMID
 id='ANONYMOUS ', fmtdat='(2E16.6)'
 volume=1.0
 tramp=1.0
 $END
   2.144509e+07   6.323826e+05
   1.402867e+07   9.883230e+06
  -3.572787e+04   1.323131e+07
  -9.072810e+06   9.230063e+06
  -7.808395e+06   1.384919e+06
  -6.975988e+05  -3.806223e+06
   4.338458e+06  -2.286418e+06
   3.567382e+06   3.322204e+06
  -7.543701e+05   6.218429e+06
  -4.028317e+06   2.905751e+06
  -3.609509e+06  -2.901763e+06
  -4.450304e+05  -4.757591e+06
   2.232684e+06  -9.171660e+05
   1.833158e+06   4.047975e+06
  -1.195383e+06   4.721225e+06
  -3.673937e+06   5.330104e+05
  -2.789351e+06  -4.303216e+06
   9.663762e+05  -5.481052e+06
   4.225330e+06  -2.527862e+06
   4.221188e+06   1.449102e+06
   1.577050e+06   3.178703e+06
  -5.678936e+05   2.256982e+06
  -4.882329e+04   1.011688e+06
   1.984695e+06   1.574792e+06
   2.342032e+06   3.419664e+06
  -6.164171e+05   4.104613e+06
  -4.827529e+06   2.221019e+06
  -6.308181e+06  -9.928551e+05
  -3.323563e+06  -3.029430e+06
   1.478043e+06  -2.537776e+06
   3.594747e+06  -2.419091e+05
   1.358169e+06   1.895460e+06
  -2.436251e+06   2.073331e+06
  -3.793624e+06  -6.577494e+04
  -1.802688e+06  -2.819860e+06
   9.344818e+05  -3.557149e+06
   1.701936e+06  -1.394701e+06
   4.884510e+05   1.399835e+06
  -7.262979e+05   1.670189e+06
  -5.376380e+05  -8.341329e+05
   7.018494e+05  -2.956104e+06
   1.728217e+06  -1.951904e+06
   1.589656e+06   1.082713e+06
   2.185677e+05   2.570214e+06
  -1.423137e+06   8.019218e+05
  -1.731437e+06  -2.170257e+06
   1.739996e+05  -3.087680e+06
   3.058203e+06  -1.028624e+06
   4.184226e+06   2.006104e+06
   2.039437e+06   3.418281e+06
  -1.735502e+06   2.348028e+06
  -3.778612e+06   1.940445e+04
  -2.451608e+06  -1.604210e+06
   5.699401e+05  -1.458903e+06
   2.251990e+06  -1.028752e+05
   1.347703e+06   9.544875e+05
  -6.473169e+05   7.209531e+05
  -1.402890e+06  -3.933750e+05
  -2.490852e+05  -1.125765e+06
   1.273885e+06  -6.946347e+05
   1.207197e+06   4.677084e+05
  -5.977800e+05   1.167198e+06
  -2.173088e+06   5.162441e+05
  -1.498013e+06  -1.255272e+06
   1.227055e+06  -2.802686e+06
   3.680953e+06  -2.625024e+06
   3.856089e+06  -4.342447e+05
   2.039060e+06   2.339192e+06
   1.472868e+05   3.736488e+06
  -5.310791e+05   3.155779e+06
  -4.346967e+05   1.814308e+06
  -7.023944e+05   1.153498e+06
  -1.657383e+06   1.119642e+06
  -2.548915e+06   4.946968e+05
  -2.441468e+06  -1.177300e+06
  -1.086814e+06  -2.630753e+06
   8.390904e+05  -2.223851e+06
   2.085051e+06   2.969020e+04
   1.649070e+06   2.235393e+06
  -2.903057e+05   2.489349e+06
  -2.251033e+06   7.173646e+05
  -2.649527e+06  -1.446042e+06
  -1.324606e+06  -2.385246e+06
   3.404525e+05  -1.902967e+06
   9.807844e+05  -1.018675e+06
   7.357578e+05  -6.892162e+05
   8.914513e+05  -8.820266e+05
   2.096342e+06  -7.868835e+05
   3.305123e+06   2.426762e+05
   2.800875e+06   1.959125e+06
   2.302456e+05   3.294038e+06
  -2.669767e+06   3.161460e+06
  -3.618178e+06   1.410741e+06
  -2.053072e+06  -8.468150e+05
   3.241141e+05  -1.999936e+06
   1.321540e+06  -1.336932e+06
   4.063091e+05   2.192841e+05
  -1.039142e+06   9.816107e+05
  -1.407623e+06   2.630431e+05
  -4.887766e+05  -8.859230e+05
   5.899981e+05  -9.346243e+05
   6.831209e+05   2.365790e+05
  -3.102853e+05   1.080780e+06
  -1.457119e+06   1.860240e+05
  -1.581502e+06  -1.941246e+06
  -1.990641e+05  -3.246789e+06
   1.959114e+06  -2.282471e+06
   3.322839e+06   2.739268e+05
   2.752073e+06   2.351248e+06
   6.806118e+05   2.544145e+06
  -1.163657e+06   1.281622e+06
  -1.416021e+06   8.756432e+04
  -4.093911e+05  -3.432834e+04
   3.182306e+05   6.008184e+05
  -1.971839e+05   9.634008e+05
  -1.299128e+06   4.736554e+05
  -1.549826e+06  -4.665937e+05
  -4.553198e+05  -9.662034e+05
   8.840911e+05  -5.625774e+05
   9.377149e+05   3.228592e+05
  -5.304860e+05   7.676280e+05
  -2.067722e+06   1.948442e+05
  -1.974607e+06  -1.059560e+06
  -1.029976e+05  -1.966515e+06
   1.924881e+06  -1.681805e+06
   2.345069e+06  -3.567852e+05
   9.936951e+05   9.073018e+05
  -6.535521e+05   1.053484e+06
  -1.055853e+06   1.208033e+05
  -5.271711e+04  -7.681497e+05
   1.193012e+06  -5.823301e+05
   1.446427e+06   5.047075e+05
   5.141713e+05   1.324210e+06
  -7.011066e+05   1.031311e+06
  -1.097011e+06   2.694516e+04
  -4.063177e+05  -5.464619e+05
   5.277748e+05  -9.456447e+04
   5.661520e+05   8.233977e+05
  -5.128413e+05   1.145217e+06
  -1.672901e+06   3.981080e+05
  -1.654935e+06  -8.804232e+05
  -3.418319e+05  -1.671989e+06
   1.083611e+06  -1.371570e+06
   1.385537e+06  -2.834469e+05
   5.158019e+05   6.597674e+05
  -4.804626e+05   7.310203e+05
  -6.456458e+05   6.786967e+04
  -2.097502e+04  -5.134630e+05
   5.686296e+05  -4.148121e+05
   4.597616e+05   9.608810e+04
  -1.769390e+05   2.427006e+05
  -5.370009e+05  -2.943389e+05
  -2.574691e+04  -9.363375e+05
   1.061877e+06  -8.125532e+05
   1.729489e+06   2.746181e+05
   1.232637e+06   1.575954e+06
  -1.457772e+05   2.067073e+06
  -1.346948e+06   1.368204e+06
  -1.572628e+06   5.614154e+04
  -9.867497e+05  -8.771253e+05
  -3.703718e+05  -9.121259e+05
  -2.154390e+05  -4.168868e+05
  -2.880355e+05  -1.741733e+05
  -4.738407e+04  -4.820630e+05
   6.370538e+05  -8.062604e+05
   1.244788e+06  -4.264203e+05
   1.067040e+06   6.212694e+05
  -6.032837e+04   1.418359e+06
  -1.437277e+06   1.071064e+06
  -1.968046e+06  -3.225032e+05
  -1.098787e+06  -1.692520e+06
   6.229781e+05  -1.972310e+06
   1.964537e+06  -1.029929e+06
   2.060843e+06   3.096652e+05
   1.098431e+06   1.082840e+06
   3.511101e+03   1.024361e+06
  -4.750458e+05   6.584588e+05
  -3.601267e+05   6.171409e+05
  -2.258779e+05   9.127111e+05
  -4.961365e+05   9.429862e+05
  -9.828203e+05   2.338101e+05
  -1.089107e+06  -9.080049e+05
  -4.664588e+05  -1.592668e+06
   5.300347e+05  -1.213570e+06
   1.095377e+06  -5.606268e+04
   7.486542e+05   9.705358e+05
  -1.606341e+05   1.153131e+06
  -7.897436e+05   5.238598e+05
  -6.569375e+05  -3.043177e+05
  -9.182934e+04  -7.439536e+05
   2.017440e+05  -6.850786e+05
  -3.421005e+04  -4.408236e+05
  -3.253444e+05  -3.294723e+05
  -2.712970e+04  -3.430255e+05
   8.755616e+05  -2.189692e+05
   1.614806e+06   2.059777e+05
   1.362856e+06   7.648346e+05
   1.276314e+05   1.085903e+06
  -1.146665e+06   9.203047e+05
  -1.463984e+06   3.609670e+05
  -7.508165e+05  -2.067538e+05
   1.376979e+05  -3.862838e+05
   3.728428e+05  -1.121681e+05
  -3.324066e+04   2.388862e+05
  -4.323059e+05   1.891283e+05
  -3.842263e+05  -2.866818e+05
  -7.850531e+04  -6.504906e+05
   4.834448e+04  -4.160195e+05
  -1.265239e+05   1.802685e+05
  -3.361743e+05   3.752924e+05
  -2.606307e+05  -1.744490e+05
   1.763558e+05  -8.810946e+05
   7.370374e+05  -8.771060e+05
   9.776692e+05  -6.008400e+04
   5.576207e+05   7.710901e+05
  -3.426813e+05   8.273456e+05
  -9.620164e+05   1.543009e+05
  -6.014215e+05  -5.215211e+05
   5.454695e+05  -5.804697e+05
   1.398586e+06  -1.987280e+04
   1.045927e+06   6.704989e+05
  -2.521491e+05   9.527296e+05
  -1.289760e+06   6.242080e+05
  -1.168586e+06  -3.618647e+04
  -1.945698e+05  -4.639195e+05
   5.260931e+05  -3.026813e+05
   2.803355e+05   2.013404e+05
  -5.581723e+05   3.802881e+05
  -9.906950e+05  -1.646072e+05
  -4.504241e+05  -1.052940e+06
   6.406050e+05  -1.396682e+06
   1.328338e+06  -6.663494e+05
   1.065937e+06   6.910631e+05
   1.635226e+05   1.558920e+06
  -6.245103e+05   1.183704e+06
  -8.150111e+05  -5.665550e+04
  -4.682477e+05  -1.001038e+06
   6.275779e+04  -8.930503e+05
   4.438633e+05  -1.245436e+05
   4.869407e+05   3.369850e+05
   2.356074e+05   1.438221e+05
   4.083958e+03  -1.100545e+05
   1.049845e+05   1.904972e+05
   3.910932e+05   7.975504e+05
   2.844034e+05   9.399755e+05
  -4.791178e+05   3.597896e+05
  -1.285402e+06  -3.921836e+05
  -1.208460e+06  -7.055426e+05
  -1.750547e+05  -5.740764e+05
   8.214172e+05  -3.555503e+05
   8.756341e+05  -1.978144e+05
   2.295257e+05  -9.295862e+03
  -1.601223e+05   1.849893e+05
   8.036947e+04   2.266864e+05
   3.440604e+05   1.390472e+05
  -1.396765e+03   1.223001e+05
  -6.901472e+05   1.609810e+05
  -8.800213e+05  -4.760886e+04
  -1.985894e+05  -5.782185e+05
   8.330407e+05  -9.363997e+05
   1.378404e+06  -5.518305e+05
   1.062949e+06   4.433806e+05
   1.836596e+05   1.221770e+06
  -6.318144e+05   1.130519e+06
  -8.978146e+05   3.767196e+05
  -5.759457e+05  -2.637600e+05
  -6.366673e+04  -3.059700e+05
   1.592216e+05   6.509993e+03
  -3.072436e+04   8.825846e+04
  -3.050679e+05  -2.796362e+05
  -2.510746e+05  -6.882492e+05
   1.802427e+05  -5.549333e+05
   6.039092e+05   1.808088e+05
   5.608177e+05   8.906077e+05
  -2.834146e+04   8.721558e+05
  -7.114814e+05   1.052299e+05
  -8.450080e+05  -7.187661e+05
  -2.187373e+05  -9.278955e+05
   6.329498e+05  -4.944073e+05
   9.016468e+05   1.050581e+05
   3.856592e+05   4.571005e+05
  -2.463269e+05   4.803259e+05
  -2.417091e+05   2.847975e+05
   3.054733e+05   4.283993e+04
   5.789360e+05  -1.358546e+04
   8.913577e+04   2.466111e+05
  -7.083976e+05   5.845364e+05
  -9.945426e+05   5.175368e+05
  -5.517893e+05  -8.717953e+04
   9.932461e+04  -7.026402e+05
   3.973407e+05  -6.831412e+05
   2.732960e+05  -6.309567e+04
  -6.734977e+03   4.489373e+05
  -2.273639e+05   3.186287e+05
  -3.068265e+05  -2.114615e+05
  -1.976717e+05  -4.979570e+05
   7.448252e+04  -2.880354e+05
   3.302948e+05   7.874201e+04
   3.708674e+05   1.866562e+05
   2.027438e+05   3.241943e+04
   1.684340e+04  -6.434643e+04
  -6.361378e+04   9.764914e+04
  -1.073965e+05   3.592365e+05
  -2.162273e+05   3.824774e+05
  -3.324277e+05   3.233409e+04
  -2.789429e+05  -4.316072e+05
   2.133457e+04  -5.722000e+05
   3.953367e+05  -2.234551e+05
   5.089087e+05   3.034005e+05
   1.678799e+05   5.267245e+05
  -4.118859e+05   2.920226e+05
  -7.026445e+05  -1.142768e+05
  -3.786729e+05  -3.304049e+05
   2.574383e+05  -2.747323e+05
   5.274646e+05  -1.088151e+05
   1.486413e+05   3.330302e+03
  -3.897871e+05  -9.699551e+03
  -3.859120e+05  -1.511106e+05
   2.194965e+05  -3.045061e+05
   7.594831e+05  -2.232942e+05
