
 $NMID
 id='ANONYMOUS ', fmtdat='(2E16.6)'
 volume=1.0
 tramp=1.0
 $END
   3.383944e+07  -3.075550e+05
   2.230786e+07   1.707208e+07
  -9.430362e+05   2.194320e+07
  -1.513351e+07   1.303960e+07
  -1.182954e+07   4.594994e+04
  -1.359537e+05  -6.040794e+06
   6.686359e+06  -2.164629e+06
   4.382202e+06   5.572468e+06
  -2.110040e+06   8.488217e+06
  -6.251315e+06   3.501991e+06
  -5.236192e+06  -4.203113e+06
  -6.947271e+05  -6.655826e+06
   3.053704e+06  -1.557413e+06
   2.389119e+06   5.250212e+06
  -2.048474e+06   6.248456e+06
  -5.501702e+06   3.329560e+05
  -3.922789e+06  -6.555057e+06
   1.665292e+06  -8.192808e+06
   6.386133e+06  -3.988564e+06
   6.613444e+06   1.728053e+06
   3.149590e+06   4.667563e+06
  -2.041332e+05   4.105390e+06
  -5.039927e+05   2.465181e+06
   1.595820e+06   2.377624e+06
   2.465548e+06   4.010245e+06
  -6.500332e+05   4.985488e+06
  -5.986887e+06   3.110884e+06
  -8.364286e+06  -8.820356e+05
  -4.862923e+06  -3.855897e+06
   1.368596e+06  -3.549184e+06
   4.322095e+06  -7.380488e+05
   1.784322e+06   1.876699e+06
  -2.666019e+06   2.159116e+06
  -4.285030e+06  -9.918751e+04
  -2.182963e+06  -3.169421e+06
   8.383845e+05  -4.355073e+06
   2.033629e+06  -2.222306e+06
   1.123132e+06   1.321360e+06
  -3.048038e+05   2.357745e+06
  -5.796747e+05  -4.171794e+05
   7.122801e+05  -3.449322e+06
   2.304122e+06  -2.458900e+06
   2.198165e+06   1.783623e+06
  -2.215822e+05   4.033249e+06
  -2.958467e+06   1.219278e+06
  -3.002223e+06  -3.595159e+06
   4.437348e+05  -5.031721e+06
   4.664257e+06  -1.670463e+06
   5.778169e+06   2.969188e+06
   2.484566e+06   4.807075e+06
  -2.537485e+06   2.986968e+06
  -5.010178e+06  -3.334984e+05
  -3.042638e+06  -2.426797e+06
   1.093355e+06  -2.010484e+06
   3.294433e+06   4.924203e+04
   1.837839e+06   1.553254e+06
  -1.009289e+06   1.053255e+06
  -1.808738e+06  -6.325770e+05
   6.607312e+04  -1.399357e+06
   1.933893e+06  -3.395761e+05
   1.190986e+06   1.316805e+06
  -1.606974e+06   1.737376e+06
  -3.432699e+06   3.028348e+05
  -2.097059e+06  -2.132102e+06
   1.591724e+06  -3.970659e+06
   4.768334e+06  -3.677176e+06
   5.192238e+06  -8.312828e+05
   3.038431e+06   2.984908e+06
   3.765890e+05   5.080534e+06
  -9.410263e+05   4.263562e+06
  -8.872480e+05   2.141904e+06
  -8.290939e+05   1.071418e+06
  -1.694080e+06   1.234837e+06
  -2.871807e+06   7.925833e+05
  -2.985904e+06  -1.168935e+06
  -1.452752e+06  -3.050072e+06
   8.846596e+05  -2.651095e+06
   2.423049e+06   4.870536e+04
   1.972049e+06   2.732981e+06
  -3.230251e+05   3.127162e+06
  -2.845133e+06   1.058951e+06
  -3.604693e+06  -1.695669e+06
  -2.046431e+06  -3.174723e+06
   2.953048e+05  -2.823984e+06
   1.440404e+06  -1.654998e+06
   1.229790e+06  -9.890299e+05
   1.328195e+06  -1.055415e+06
   2.784728e+06  -8.836530e+05
   4.295872e+06   4.430421e+05
   3.573780e+06   2.612658e+06
   2.219974e+05   4.228997e+06
  -3.429479e+06   4.000491e+06
  -4.557985e+06   1.831077e+06
  -2.613072e+06  -9.605068e+05
   2.966384e+05  -2.469749e+06
   1.571652e+06  -1.734713e+06
   5.189450e+05   2.269765e+05
  -1.289691e+06   1.253765e+06
  -1.832601e+06   3.444068e+05
  -6.897491e+05  -1.146360e+06
   7.149611e+05  -1.168936e+06
   7.780773e+05   3.465859e+05
  -5.861939e+05   1.259645e+06
  -1.934915e+06  -1.171395e+05
  -1.748974e+06  -2.794805e+06
   2.176164e+05  -4.091249e+06
   2.760655e+06  -2.541138e+06
   4.111669e+06   6.694829e+05
   3.232794e+06   3.051537e+06
   7.306759e+05   3.156501e+06
  -1.464262e+06   1.590278e+06
  -1.768227e+06   1.162530e+05
  -5.208872e+05  -4.940043e+04
   3.912744e+05   7.745064e+05
  -2.955114e+05   1.268179e+06
  -1.732903e+06   6.002123e+05
  -2.013241e+06  -6.782703e+05
  -5.399999e+05  -1.294545e+06
   1.156894e+06  -6.813774e+05
   1.132351e+06   4.471518e+05
  -7.510519e+05   8.823939e+05
  -2.583722e+06   7.801240e+04
  -2.354270e+06  -1.419292e+06
  -2.427288e+03  -2.426178e+06
   2.483280e+06  -2.027221e+06
   2.981585e+06  -3.854739e+05
   1.264085e+06   1.203954e+06
  -8.638091e+05   1.389045e+06
  -1.406777e+06   1.629903e+05
  -9.487952e+04  -1.005202e+06
   1.540153e+06  -7.352805e+05
   1.833447e+06   7.008910e+05
   5.747878e+05   1.714046e+06
  -9.708067e+05   1.250960e+06
  -1.392791e+06  -6.056620e+04
  -4.581105e+05  -7.355425e+05
   7.098833e+05  -1.030875e+05
   7.207992e+05   1.067719e+06
  -6.588297e+05   1.456811e+06
  -2.129655e+06   4.960110e+05
  -2.102122e+06  -1.138877e+06
  -4.084381e+05  -2.146338e+06
   1.427443e+06  -1.733896e+06
   1.784393e+06  -3.159810e+05
   6.237255e+05   8.655515e+05
  -6.404288e+05   9.075870e+05
  -7.867497e+05   7.158470e+04
   2.537926e+04  -5.971044e+05
   6.958032e+05  -4.423080e+05
   4.800401e+05   1.352878e+05
  -2.996898e+05   2.293386e+05
  -6.625097e+05  -4.626065e+05
   3.412060e+04  -1.216168e+06
   1.390976e+06  -1.003750e+06
   2.200034e+06   3.934470e+05
   1.543950e+06   2.033867e+06
  -2.252415e+05   2.614104e+06
  -1.739183e+06   1.668398e+06
  -1.962311e+06  -1.941094e+03
  -1.162327e+06  -1.104866e+06
  -4.132280e+05  -1.067402e+06
  -3.087153e+05  -4.601673e+05
  -4.333222e+05  -2.400868e+05
  -6.817441e+04  -6.573016e+05
   8.516078e+05  -1.006335e+06
   1.587801e+06  -4.786753e+05
   1.294489e+06   8.107220e+05
  -1.484677e+05   1.754557e+06
  -1.851744e+06   1.291723e+06
  -2.475432e+06  -4.652360e+05
  -1.332374e+06  -2.190271e+06
   8.808395e+05  -2.507894e+06
   2.562390e+06  -1.241368e+06
   2.597948e+06   4.932571e+05
   1.298797e+06   1.414062e+06
  -6.925248e+04   1.244065e+06
  -5.815548e+05   7.586228e+05
  -3.832706e+05   7.693682e+05
  -2.521236e+05   1.200472e+06
  -6.548220e+05   1.231718e+06
  -1.277794e+06   2.971943e+05
  -1.379094e+06  -1.165696e+06
  -5.701175e+05  -2.027077e+06
   6.873757e+05  -1.530380e+06
   1.388599e+06  -3.893877e+04
   9.224032e+05   1.274996e+06
  -2.658090e+05   1.473905e+06
  -1.069642e+06   6.106663e+05
  -8.484782e+05  -4.731805e+05
  -5.834899e+04  -9.985650e+05
   3.365409e+05  -8.692577e+05
  -4.110136e+03  -5.388130e+05
  -4.177900e+05  -4.082877e+05
  -3.528995e+04  -4.296811e+05
   1.142102e+06  -2.576673e+05
   2.083813e+06   3.000919e+05
   1.722359e+06   1.020035e+06
   1.066763e+05   1.419968e+06
  -1.519542e+06   1.170467e+06
  -1.889188e+06   4.053540e+05
  -9.444799e+05  -3.333188e+05
   1.993107e+05  -5.178701e+05
   4.947274e+05  -1.160008e+05
  -2.360837e+04   3.335765e+05
  -5.333529e+05   2.406288e+05
  -4.904140e+05  -3.682803e+05
  -1.278165e+05  -8.093374e+05
   3.056322e+04  -5.182152e+05
  -1.646759e+05   1.982402e+05
  -4.090944e+05   4.300262e+05
  -3.209546e+05  -2.336530e+05
   2.226343e+05  -1.099671e+06
   9.531286e+05  -1.109073e+06
   1.286290e+06  -9.405858e+04
   7.425627e+05   9.793459e+05
  -4.426614e+05   1.083261e+06
  -1.245393e+06   2.242956e+05
  -7.595873e+05  -6.579042e+05
   7.146203e+05  -7.215906e+05
   1.762052e+06   2.507240e+04
   1.263472e+06   8.900310e+05
  -3.830114e+05   1.178022e+06
  -1.646802e+06   7.095262e+05
  -1.450002e+06  -1.036357e+05
  -2.155876e+05  -5.857973e+05
   6.807078e+05  -3.555463e+05
   3.671867e+05   2.708112e+05
  -6.916478e+05   4.895497e+05
  -1.252353e+06  -1.932493e+05
  -5.894597e+05  -1.319792e+06
   7.862609e+05  -1.769388e+06
   1.667451e+06  -8.496226e+05
   1.339871e+06   8.748572e+05
   1.881637e+05   1.965787e+06
  -8.115797e+05   1.466754e+06
  -1.027169e+06  -1.116027e+05
  -5.498645e+05  -1.282188e+06
   1.316430e+05  -1.114614e+06
   5.763071e+05  -1.369753e+05
   5.841246e+05   4.324830e+05
   2.660359e+05   1.812066e+05
   1.887373e+04  -1.322269e+05
   1.729497e+05   2.552138e+05
   4.986498e+05   1.020480e+06
   3.101784e+05   1.192247e+06
  -6.512703e+05   4.476467e+05
  -1.613655e+06  -5.155323e+05
  -1.485399e+06  -9.162461e+05
  -2.097364e+05  -7.364483e+05
   1.015732e+06  -4.362104e+05
   1.101697e+06  -2.245281e+05
   3.170227e+05   4.588483e+03
  -1.934147e+05   2.328987e+05
   6.268322e+04   2.770397e+05
   3.945634e+05   1.677322e+05
   9.721675e+03   1.502325e+05
  -8.349598e+05   2.020125e+05
  -1.115462e+06  -5.895347e+04
  -2.978170e+05  -7.306202e+05
   1.026795e+06  -1.191251e+06
   1.769573e+06  -7.141119e+05
   1.380967e+06   5.441952e+05
   2.327764e+05   1.539542e+06
  -8.188203e+05   1.437835e+06
  -1.136713e+06   4.916263e+05
  -7.174403e+05  -3.211024e+05
  -9.253800e+04  -3.857381e+05
   1.673514e+05  -5.297221e+03
  -5.550600e+04   8.961356e+04
  -3.686903e+05  -3.707003e+05
  -2.965374e+05  -8.761975e+05
   2.249005e+05  -7.064829e+05
   7.511509e+05   2.122229e+05
   7.180201e+05   1.105046e+06
  -4.603555e+03   1.100076e+06
  -8.744370e+05   1.562305e+05
  -1.068817e+06  -8.838629e+05
  -2.918104e+05  -1.173859e+06
   7.950232e+05  -6.445435e+05
   1.155171e+06   1.275715e+05
   5.076494e+05   6.011619e+05
  -3.125409e+05   6.367541e+05
  -3.344322e+05   3.705328e+05
   3.540596e+05   5.044626e+04
   7.240680e+05  -1.588933e+04
   1.224822e+05   3.168646e+05
  -9.021531e+05   7.297749e+05
  -1.293227e+06   6.287921e+05
  -7.324692e+05  -1.330153e+05
   1.262256e+05  -9.000931e+05
   5.325793e+05  -8.789645e+05
   3.726525e+05  -1.054435e+05
   1.862383e+03   5.526180e+05
  -2.813322e+05   4.170470e+05
  -3.799819e+05  -2.431361e+05
  -2.506797e+05  -6.298117e+05
   8.422528e+04  -3.875372e+05
   4.163184e+05   8.973558e+04
   4.812259e+05   2.560583e+05
   2.599628e+05   5.949151e+04
   3.929921e+03  -1.000857e+05
  -9.012726e+04   7.884204e+04
  -1.037430e+05   4.289470e+05
  -2.164106e+05   5.023080e+05
  -3.939370e+05   8.548858e+04
  -3.803911e+05  -5.082651e+05
  -1.725363e+04  -7.102559e+05
   4.851176e+05  -2.912454e+05
   6.570381e+05   3.652656e+05
   2.211604e+05   6.537954e+05
  -5.306113e+05   3.726997e+05
  -9.024712e+05  -1.333043e+05
  -4.852943e+05  -4.180907e+05
   3.233000e+05  -3.668354e+05
   6.705362e+05  -1.615679e+05
   2.089568e+05  -3.723623e+03
  -4.582860e+05   1.818240e+03
  -4.693890e+05  -1.646887e+05
   2.581610e+05  -3.606033e+05
   9.211380e+05  -2.713969e+05
