
 $NMID
 id='ANONYMOUS ', fmtdat='(2E16.6)'
 volume=1.0
 tramp=1.0
 $END
  -5.364836e+07   9.186757e+05
  -3.269921e+07  -3.243440e+07
   6.397685e+06  -3.620854e+07
   2.576306e+07  -1.448402e+07
   1.565496e+07   6.144360e+06
  -2.896566e+06   8.844644e+06
  -9.257234e+06  -8.491994e+05
  -2.895349e+06  -9.103210e+06
   5.534872e+06  -9.022231e+06
   9.053290e+06  -2.173699e+06
   6.830665e+06   5.756533e+06
   1.007569e+06   8.228966e+06
  -3.789329e+06   2.713024e+06
  -2.737422e+06  -5.172709e+06
   3.345665e+06  -6.377324e+06
   7.489802e+06   1.059916e+06
   4.470133e+06   9.598028e+06
  -3.326625e+06   1.130959e+07
  -9.517627e+06   5.826825e+06
  -1.036387e+07  -1.787958e+06
  -6.412979e+06  -7.075342e+06
  -7.222545e+05  -8.223143e+06
   2.691455e+06  -5.706232e+06
   1.579498e+06  -2.479769e+06
  -1.307598e+06  -2.040597e+06
  -4.196672e+05  -4.112642e+06
   5.152221e+06  -4.449680e+06
   9.362034e+06  -7.334314e+05
   6.884620e+06   3.833537e+06
   2.962102e+05   4.924874e+06
  -3.626216e+06   2.600105e+06
  -2.475094e+06  -2.934112e+02
   5.634981e+05  -1.095910e+06
   2.301287e+06  -6.530914e+05
   2.279110e+06   1.370755e+06
   7.891672e+05   3.883035e+06
  -1.694393e+06   3.752279e+06
  -3.119505e+06  -1.388866e+05
  -1.649556e+06  -3.515956e+06
   7.976228e+05  -1.790977e+06
   4.411053e+05   2.466161e+06
  -2.279634e+06   2.326456e+06
  -2.408179e+06  -2.957828e+06
   2.140966e+06  -5.831519e+06
   6.520631e+06  -1.041544e+06
   4.958617e+06   6.494520e+06
  -1.655338e+06   8.114013e+06
  -7.031955e+06   2.447105e+06
  -6.779756e+06  -4.050373e+06
  -1.979709e+06  -5.693368e+06
   3.214938e+06  -2.723154e+06
   5.085267e+06   1.245294e+06
   2.453035e+06   3.214931e+06
  -2.215844e+06   2.144379e+06
  -4.327796e+06  -7.537549e+05
  -1.927047e+06  -2.522709e+06
   1.601708e+06  -1.343306e+06
   1.709350e+06   9.108416e+05
  -1.168461e+06   8.960903e+05
  -2.335672e+06  -1.545510e+06
   5.005801e+05  -3.173251e+06
   4.293645e+06  -1.853701e+06
   5.024822e+06   1.141072e+06
   2.291317e+06   3.701206e+06
  -1.609404e+06   5.109367e+06
  -4.727677e+06   4.827260e+06
  -5.950110e+06   1.838228e+06
  -4.491812e+06  -2.965111e+06
  -1.068828e+06  -5.938882e+06
   1.613824e+06  -4.631309e+06
   1.579667e+06  -1.246366e+06
   1.280870e+05   1.456988e+05
  -3.966934e+03  -1.054597e+06
   1.599301e+06  -1.827087e+06
   2.811762e+06  -2.902432e+05
   2.084793e+06   1.881488e+06
   9.558032e+04   2.160954e+06
  -1.558401e+06   2.967322e+05
  -1.764195e+06  -1.971660e+06
  -1.122363e+05  -2.885477e+06
   2.665472e+06  -1.695968e+06
   4.386488e+06   1.055047e+06
   3.196125e+06   3.571028e+06
   4.013316e+04   4.067056e+06
  -2.130993e+06   2.640663e+06
  -2.094095e+06   1.132553e+06
  -1.718526e+06   7.238227e+05
  -2.822383e+06   5.867789e+05
  -4.250596e+06  -5.692233e+05
  -3.499462e+06  -2.558251e+06
  -2.893778e+05  -4.023712e+06
   2.989874e+06  -3.943743e+06
   4.028138e+06  -2.235855e+06
   2.638127e+06   3.354956e+05
   3.433466e+05   2.213426e+06
  -1.032259e+06   1.949004e+06
  -5.612344e+05  -2.373955e+04
   1.026240e+06  -1.330094e+06
   1.851228e+06  -4.547989e+05
   9.349333e+05   1.155154e+06
  -4.699318e+05   1.122128e+06
  -4.441496e+05  -3.459263e+05
   9.714304e+05  -7.164429e+05
   1.804949e+06   1.145635e+06
   7.610303e+05   3.303411e+06
  -1.349202e+06   3.344565e+06
  -2.942489e+06   1.230354e+06
  -3.273243e+06  -1.225305e+06
  -2.370353e+06  -2.577301e+06
  -5.749053e+05  -2.540241e+06
   1.161986e+06  -1.493850e+06
   1.548814e+06  -2.871408e+05
   4.857126e+05   2.593063e+04
  -3.804353e+05  -7.238651e+05
   3.585822e+05  -1.322803e+06
   1.845742e+06  -6.275931e+05
   2.016358e+06   7.950662e+05
   4.254887e+05   1.366638e+06
  -1.124727e+06   6.040161e+05
  -8.934876e+05  -4.033526e+05
   7.948671e+05  -5.423334e+05
   2.138646e+06   2.098154e+05
   1.773641e+06   1.240250e+06
  -1.473219e+05   1.938289e+06
  -2.191797e+06   1.720405e+06
  -2.711667e+06   3.788503e+05
  -1.237876e+06  -1.196760e+06
   8.546699e+05  -1.503716e+06
   1.525172e+06  -2.335081e+05
   2.306912e+05   1.059267e+06
  -1.465151e+06   7.792956e+05
  -1.713984e+06  -7.014588e+05
  -3.948923e+05  -1.601478e+06
   1.024744e+06  -9.947136e+05
   1.235651e+06   2.543781e+05
   2.679747e+05   7.492777e+05
  -7.787713e+05   7.793224e+04
  -7.629405e+05  -1.011226e+06
   5.145792e+05  -1.426449e+06
   1.959257e+06  -6.117910e+05
   2.045470e+06   9.577913e+05
   4.550139e+05   2.027237e+06
  -1.354663e+06   1.667209e+06
  -1.686455e+06   2.704763e+05
  -5.247178e+05  -8.315217e+05
   6.150258e+05  -8.131391e+05
   6.216031e+05  -1.053795e+05
  -9.154588e+04   3.549193e+05
  -4.647040e+05   2.337200e+05
  -1.275312e+05  -4.175808e+04
   4.271867e+05   6.686616e+04
   5.220630e+05   6.350209e+05
  -1.601307e+05   1.166066e+06
  -1.323202e+06   9.299035e+05
  -2.062126e+06  -3.281015e+05
  -1.515248e+06  -1.856872e+06
   1.174873e+05  -2.390605e+06
   1.526152e+06  -1.453257e+06
   1.660377e+06   5.056976e+04
   8.860365e+05   8.360998e+05
   3.566434e+05   6.255047e+05
   4.894306e+05   2.079167e+05
   6.238240e+05   2.960315e+05
   1.107266e+05   7.496902e+05
  -8.250163e+05   9.155597e+05
  -1.405084e+06   3.771388e+05
  -1.061918e+06  -6.608811e+05
   1.798165e+05  -1.438867e+06
   1.644758e+06  -1.121923e+06
   2.227426e+06   3.847537e+05
   1.193683e+06   2.016101e+06
  -9.033694e+05   2.356562e+06
  -2.454823e+06   1.104825e+06
  -2.327233e+06  -5.539232e+05
  -9.904930e+05  -1.265731e+06
   1.544522e+05  -9.297041e+05
   3.513994e+05  -5.250243e+05
   4.837985e+04  -7.599476e+05
   6.021790e+04  -1.298079e+06
   6.169179e+05  -1.291428e+06
   1.263070e+06  -3.591629e+05
   1.359749e+06   1.012716e+06
   6.230424e+05   1.843453e+06
  -5.552093e+05   1.440010e+06
  -1.262781e+06   4.884260e+04
  -8.440765e+05  -1.228726e+06
   3.315336e+05  -1.381035e+06
   1.119889e+06  -4.341507e+05
   8.110946e+05   6.572064e+05
  -8.838416e+04   1.054114e+06
  -4.972601e+05   7.777752e+05
  -6.322476e+04   4.068351e+05
   4.427972e+05   3.149933e+05
   7.558100e+04   3.760439e+05
  -1.121008e+06   2.471367e+05
  -2.041451e+06  -2.523315e+05
  -1.627664e+06  -9.574107e+05
  -1.173000e+04  -1.406999e+06
   1.523388e+06  -1.176508e+06
   1.786423e+06  -3.405711e+05
   8.288298e+05   4.532023e+05
  -2.401833e+05   5.673548e+05
  -4.986791e+05   4.948448e+04
  -4.189368e+04  -4.181057e+05
   4.261200e+05  -2.761719e+05
   4.885614e+05   3.181770e+05
   2.843074e+05   7.078634e+05
   1.177355e+05   4.745677e+05
   1.257680e+05  -9.720791e+04
   2.539332e+05  -3.017105e+05
   2.787887e+05   2.165556e+05
  -9.463570e+04   9.789338e+05
  -8.433444e+05   1.086278e+06
  -1.343449e+06   2.222968e+05
  -8.819421e+05  -8.738303e+05
   3.687973e+05  -1.143122e+06
   1.234850e+06  -3.838946e+05
   7.493939e+05   5.332326e+05
  -6.647746e+05   6.637014e+05
  -1.560507e+06  -3.034552e+04
  -1.014782e+06  -8.008844e+05
   4.365647e+05  -9.804938e+05
   1.443652e+06  -5.243598e+05
   1.209798e+06   1.364959e+05
   1.510182e+05   4.951982e+05
  -6.259189e+05   2.869251e+05
  -3.907308e+05  -2.787349e+05
   5.540070e+05  -5.470670e+05
   1.175881e+06   2.290147e+04
   7.243729e+05   1.138189e+06
  -4.990592e+05   1.716249e+06
  -1.423711e+06   9.495050e+05
  -1.275121e+06  -6.876557e+05
  -2.818076e+05  -1.755810e+06
   6.692016e+05  -1.302150e+06
   9.126698e+05   1.399576e+05
   4.677536e+05   1.152150e+06
  -1.817233e+05   9.520571e+05
  -5.508897e+05   1.005179e+05
  -4.685810e+05  -3.453030e+05
  -1.594875e+05  -1.202066e+05
  -4.580201e+04   9.113891e+04
  -2.988456e+05  -2.928586e+05
  -5.483970e+05  -9.357679e+05
  -2.245082e+05  -1.046093e+06
   6.997275e+05  -4.110719e+05
   1.472397e+06   3.918109e+05
   1.286684e+06   7.623609e+05
   2.104652e+05   6.822798e+05
  -8.119015e+05   4.581758e+05
  -9.558607e+05   2.212495e+05
  -3.647181e+05  -4.751944e+04
   1.291983e+05  -2.324596e+05
   3.709546e+04  -1.905517e+05
  -2.536061e+05  -6.588763e+04
  -6.285166e+04  -1.306230e+05
   6.270184e+05  -2.775253e+05
   1.038001e+06  -4.288022e+04
   4.840451e+05   6.752454e+05
  -7.619970e+05   1.220175e+06
  -1.658445e+06   8.376064e+05
  -1.440252e+06  -3.553404e+05
  -3.487031e+05  -1.374819e+06
   6.973959e+05  -1.400465e+06
   1.015148e+06  -5.955938e+05
   6.598938e+05   1.858280e+05
   1.578402e+05   3.505848e+05
  -5.389776e+04   8.586019e+04
   8.103668e+04  -5.669922e+03
   3.040505e+05   3.512778e+05
   2.762323e+05   7.838394e+05
  -1.405593e+05   6.855795e+05
  -6.796358e+05  -7.020715e+04
  -7.950368e+05  -8.927203e+05
  -1.892247e+05  -1.022472e+06
   7.248322e+05  -3.075105e+05
   1.072425e+06   6.415313e+05
   4.143514e+05   1.063686e+06
  -6.705259e+05   7.231483e+05
  -1.121347e+06  -1.243909e+04
  -5.648712e+05  -5.952039e+05
   2.552878e+05  -7.036568e+05
   3.741964e+05  -3.828079e+05
  -2.280829e+05   1.676561e+04
  -6.357060e+05   7.734082e+04
  -1.665908e+05  -3.023995e+05
   7.798411e+05  -7.110096e+05
   1.228997e+06  -5.797724e+05
   7.776787e+05   1.565116e+05
  -5.020664e+04   8.725087e+05
  -5.204266e+05   8.783080e+05
  -4.358953e+05   1.913114e+05
  -9.134731e+04  -4.653764e+05
   2.124333e+05  -4.550318e+05
   3.595712e+05   1.082677e+05
   2.851267e+05   5.571575e+05
  -2.868773e+04   4.432515e+05
  -3.918422e+05  -1.520170e+04
  -4.882635e+05  -2.665208e+05
  -2.420190e+05  -9.397065e+04
   4.757726e+04   1.635506e+05
   7.655179e+04   6.864152e+04
  -6.003795e+04  -3.434640e+05
  -1.226315e+04  -5.767713e+05
   3.003147e+05  -2.709975e+05
   5.047821e+05   3.336610e+05
   2.251960e+05   6.373511e+05
  -3.789272e+05   3.455000e+05
  -6.885417e+05  -2.299646e+05
  -2.946644e+05  -5.476445e+05
   4.882504e+05  -3.908744e+05
   8.908185e+05   1.984231e+04
   5.006530e+05   3.478782e+05
  -2.719227e+05   4.270030e+05
  -6.291264e+05   2.780672e+05
  -2.631437e+05   3.149182e+04
   3.203254e+05  -1.084545e+05
   4.033155e+05   1.552850e+04
  -1.285138e+05   2.881805e+05
  -6.900389e+05   3.180551e+05
