
 $NMID
 id='ANONYMOUS ', fmtdat='(2E16.6)'
 volume=1.0
 tramp=1.0
 $END
   9.676215e+06  -7.834460e+05
   7.121529e+06   3.753899e+06
   8.181222e+05   6.157206e+06
  -3.871534e+06   4.829328e+06
  -3.800124e+06   1.006561e+06
  -5.352578e+05  -1.842083e+06
   2.070351e+06  -1.280593e+06
   1.876698e+06   1.500951e+06
  -1.849984e+05   3.040873e+06
  -1.845380e+06   1.545987e+06
  -1.762554e+06  -1.217409e+06
  -3.314784e+05  -2.179409e+06
   9.760946e+05  -4.703419e+05
   9.100563e+05   1.852927e+06
  -4.610165e+05   2.271371e+06
  -1.728298e+06   4.030217e+05
  -1.473800e+06  -1.895596e+06
   2.226072e+05  -2.583204e+06
   1.811489e+06  -1.330475e+06
   1.930986e+06   4.693832e+05
   8.216056e+05   1.295342e+06
  -8.897412e+04   9.592702e+05
   1.509089e+05   5.038198e+05
   1.003632e+06   8.235365e+05
   1.087401e+06   1.634797e+06
  -2.753714e+05   1.897570e+06
  -2.181225e+06   1.057200e+06
  -2.882713e+06  -3.553829e+05
  -1.565182e+06  -1.288827e+06
   6.265476e+05  -1.124366e+06
   1.616927e+06  -1.124362e+05
   5.814048e+05   8.682701e+05
  -1.180413e+06   9.416444e+05
  -1.774313e+06  -6.203066e+04
  -8.108809e+05  -1.314722e+06
   4.298936e+05  -1.618654e+06
   7.213711e+05  -6.367975e+05
   1.711242e+05   5.905881e+05
  -3.012943e+05   6.980144e+05
  -1.751920e+05  -4.080886e+05
   3.391073e+05  -1.361677e+06
   7.820808e+05  -9.376425e+05
   7.999221e+05   4.555696e+05
   2.412683e+05   1.242445e+06
  -6.018483e+05   5.365665e+05
  -9.225604e+05  -8.644590e+05
  -1.054850e+05  -1.441074e+06
   1.343110e+06  -6.059838e+05
   2.009218e+06   8.159487e+05
   1.045946e+06   1.569429e+06
  -7.746876e+05   1.152813e+06
  -1.797909e+06   8.330121e+04
  -1.207158e+06  -7.236032e+05
   2.234276e+05  -7.322381e+05
   1.061983e+06  -1.323737e+05
   6.790793e+05   4.086941e+05
  -2.719999e+05   3.658165e+05
  -6.735911e+05  -1.629026e+05
  -1.305950e+05  -5.737675e+05
   6.515864e+05  -3.887570e+05
   6.697865e+05   2.372292e+05
  -2.136182e+05   6.563117e+05
  -1.036089e+06   3.578982e+05
  -7.749097e+05  -5.303299e+05
   4.860464e+05  -1.307167e+06
   1.633606e+06  -1.258631e+06
   1.740892e+06  -2.731270e+05
   9.618288e+05   1.005092e+06
   1.459803e+05   1.700914e+06
  -1.766249e+05   1.500180e+06
  -1.997122e+05   8.925981e+05
  -3.679460e+05   5.394598e+05
  -7.892039e+05   4.844900e+05
  -1.161631e+06   2.048665e+05
  -1.104106e+06  -5.416388e+05
  -4.925369e+05  -1.206156e+06
   3.928392e+05  -1.021834e+06
   9.753039e+05   2.079722e+04
   7.782703e+05   1.039288e+06
  -1.144158e+05   1.154107e+06
  -1.018676e+06   3.517422e+05
  -1.220973e+06  -6.153985e+05
  -6.500711e+05  -1.042575e+06
   8.834877e+04  -8.596709e+05
   3.930945e+05  -4.998556e+05
   3.128523e+05  -3.627970e+05
   4.085232e+05  -4.451575e+05
   9.765430e+05  -4.054884e+05
   1.550812e+06   6.235606e+04
   1.335291e+06   8.751320e+05
   1.486147e+05   1.534189e+06
  -1.206581e+06   1.499600e+06
  -1.659924e+06   6.859909e+05
  -9.469611e+05  -3.735841e+05
   1.410617e+05  -9.181695e+05
   5.978701e+05  -6.198516e+05
   1.854523e+05   9.832604e+04
  -4.715886e+05   4.632761e+05
  -6.495014e+05   1.432341e+05
  -2.383348e+05  -3.972698e+05
   2.679478e+05  -4.374733e+05
   3.291043e+05   1.128865e+05
  -1.427483e+05   5.338153e+05
  -7.193753e+05   1.217269e+05
  -8.033657e+05  -9.114033e+05
  -1.315912e+05  -1.568039e+06
   9.270477e+05  -1.123102e+06
   1.589157e+06   1.010922e+05
   1.315050e+06   1.096673e+06
   3.348286e+05   1.192756e+06
  -5.321854e+05   6.051772e+05
  -6.565298e+05   5.060767e+04
  -1.911757e+05  -1.186365e+04
   1.562663e+05   2.768940e+05
  -7.394698e+04   4.546895e+05
  -5.965943e+05   2.452258e+05
  -7.357779e+05  -1.923686e+05
  -2.324279e+05  -4.483115e+05
   4.079445e+05  -2.772573e+05
   4.458912e+05   1.458462e+05
  -2.471590e+05   3.740364e+05
  -9.798487e+05   1.108052e+05
  -9.403271e+05  -4.891822e+05
  -6.196969e+04  -9.298360e+05
   8.891628e+05  -8.079603e+05
   1.093753e+06  -1.916114e+05
   4.777191e+05   4.099856e+05
  -2.850778e+05   4.997487e+05
  -4.868499e+05   7.570114e+04
  -3.645127e+04  -3.521302e+05
   5.476595e+05  -2.867623e+05
   6.851149e+05   2.182139e+05
   2.588113e+05   6.195203e+05
  -3.209786e+05   4.988197e+05
  -5.224517e+05   2.640875e+04
  -2.023136e+05  -2.566926e+05
   2.446065e+05  -5.641109e+04
   2.745439e+05   3.740351e+05
  -2.244250e+05   5.370338e+05
  -7.722683e+05   2.032114e+05
  -7.795091e+05  -3.904292e+05
  -1.796616e+05  -7.751708e+05
   4.887820e+05  -6.548539e+05
   6.460770e+05  -1.499283e+05
   2.513186e+05   3.052322e+05
  -2.174410e+05   3.497583e+05
  -3.024749e+05   3.475354e+04
  -1.022294e+04  -2.462664e+05
   2.705004e+05  -1.974897e+05
   2.185805e+05   5.241312e+04
  -8.738647e+04   1.257520e+05
  -2.635056e+05  -1.311580e+05
  -2.660146e+04  -4.415039e+05
   4.864753e+05  -3.936507e+05
   8.104510e+05   1.079447e+05
   5.925696e+05   7.202110e+05
  -4.717416e+04   9.660471e+05
  -6.197581e+05   6.541163e+05
  -7.398470e+05   3.894357e+04
  -4.675863e+05  -4.099124e+05
  -1.699442e+05  -4.298963e+05
  -9.349834e+04  -1.884458e+05
  -1.355207e+05  -6.811158e+04
  -3.207822e+04  -2.202287e+05
   2.885428e+05  -3.856299e+05
   5.803471e+05  -2.122912e+05
   5.046213e+05   2.847146e+05
  -1.818692e+04   6.685072e+05
  -6.636040e+05   5.161334e+05
  -9.236568e+05  -1.312149e+05
  -5.341788e+05  -7.808691e+05
   2.656010e+05  -9.330682e+05
   9.077446e+05  -5.087889e+05
   9.732704e+05   1.224776e+05
   5.286351e+05   5.031321e+05
   6.506669e+03   4.867199e+05
  -2.247418e+05   3.094609e+05
  -1.648975e+05   2.803327e+05
  -9.109377e+04   4.198757e+05
  -2.153980e+05   4.448537e+05
  -4.526594e+05   1.224128e+05
  -5.162255e+05  -4.103043e+05
  -2.338527e+05  -7.369210e+05
   2.345399e+05  -5.706746e+05
   5.120175e+05  -3.795826e+04
   3.637727e+05   4.450080e+05
  -5.964243e+04   5.445633e+05
  -3.662935e+05   2.617294e+05
  -3.189609e+05  -1.298235e+05
  -5.920017e+04  -3.502428e+05
   8.409008e+04  -3.306792e+05
  -1.869988e+04  -2.102601e+05
  -1.523468e+05  -1.493466e+05
  -1.489595e+04  -1.587272e+05
   4.054846e+05  -1.147657e+05
   7.546845e+05   7.372278e+04
   6.465016e+05   3.404612e+05
   7.772635e+04   5.083927e+05
  -5.200904e+05   4.469055e+05
  -6.817282e+05   1.880059e+05
  -3.603479e+05  -8.719701e+04
   5.551960e+04  -1.828505e+05
   1.746023e+05  -5.940033e+04
  -9.948946e+03   1.075125e+05
  -1.994017e+05   8.957033e+04
  -1.814199e+05  -1.289464e+05
  -3.933815e+04  -2.977464e+05
   2.080148e+04  -1.896610e+05
  -6.089672e+04   8.621912e+04
  -1.587620e+05   1.764450e+05
  -1.240552e+05  -7.893606e+04
   7.583324e+04  -4.102610e+05
   3.327228e+05  -4.162149e+05
   4.483236e+05  -4.306931e+04
   2.648889e+05   3.471813e+05
  -1.459618e+05   3.867940e+05
  -4.398483e+05   8.315860e+04
  -2.835222e+05  -2.367361e+05
   2.487077e+05  -2.780257e+05
   6.557432e+05  -2.266893e+04
   4.990009e+05   3.081439e+05
  -1.098219e+05   4.538243e+05
  -6.029304e+05   3.062060e+05
  -5.512389e+05  -7.814318e+03
  -9.548725e+04  -2.176114e+05
   2.444374e+05  -1.484527e+05
   1.337876e+05   8.839160e+04
  -2.546251e+05   1.793544e+05
  -4.590894e+05  -6.773606e+04
  -2.163561e+05  -4.820622e+05
   2.849166e+05  -6.505353e+05
   6.098261e+05  -3.193011e+05
   5.012787e+05   3.121144e+05
   8.987058e+04   7.245796e+05
  -2.823138e+05   5.588911e+05
  -3.841382e+05  -1.787460e+04
  -2.301376e+05  -4.652077e+05
   2.088317e+04  -4.224840e+05
   2.068605e+05  -6.470537e+04
   2.310119e+05   1.558335e+05
   1.117966e+05   6.884735e+04
   1.376827e+03  -5.328609e+04
   5.093903e+04   8.136873e+04
   1.902816e+05   3.654807e+05
   1.429226e+05   4.402124e+05
  -2.183403e+05   1.778038e+05
  -6.031029e+05  -1.711675e+05
  -5.719370e+05  -3.213025e+05
  -8.822331e+04  -2.658901e+05
   3.805815e+05  -1.697226e+05
   4.081224e+05  -9.991008e+04
   1.075879e+05  -1.062655e+04
  -7.315322e+04   8.616543e+04
   3.938039e+04   1.101249e+05
   1.612226e+05   6.707149e+04
  -5.222218e+02   5.519197e+04
  -3.202424e+05   7.586439e+04
  -4.084051e+05  -1.367605e+04
  -9.559701e+04  -2.600887e+05
   3.779960e+05  -4.381807e+05
   6.313049e+05  -2.715697e+05
   4.935364e+05   1.916898e+05
   9.550666e+04   5.652767e+05
  -2.809315e+05   5.325373e+05
  -4.108361e+05   1.825359e+05
  -2.682403e+05  -1.189525e+05
  -3.176916e+04  -1.396566e+05
   7.329350e+04   6.709732e+03
  -1.580028e+04   4.429841e+04
  -1.470394e+05  -1.285745e+05
  -1.244484e+05  -3.195901e+05
   7.790958e+04  -2.585826e+05
   2.800786e+05   8.056732e+04
   2.652023e+05   4.076479e+05
  -6.718455e+03   4.008225e+05
  -3.269850e+05   5.102248e+04
  -3.951939e+05  -3.267316e+05
  -1.093861e+05  -4.264332e+05
   2.867317e+05  -2.336344e+05
   4.179272e+05   3.869112e+04
   1.854611e+05   2.048735e+05
  -1.057814e+05   2.240511e+05
  -1.069296e+05   1.379113e+05
   1.428459e+05   2.173408e+04
   2.688951e+05  -1.047840e+04
   4.386399e+04   1.120782e+05
  -3.244010e+05   2.788672e+05
  -4.588794e+05   2.549873e+05
  -2.586002e+05  -2.986730e+04
   3.810836e+04  -3.265819e+05
   1.749614e+05  -3.240795e+05
   1.216885e+05  -3.442911e+04
  -1.530657e+03   2.075080e+05
  -1.009118e+05   1.484737e+05
  -1.412519e+05  -9.736325e+04
  -9.620635e+04  -2.291252e+05
   2.915166e+04  -1.320630e+05
   1.526886e+05   3.408423e+04
   1.760473e+05   8.080962e+04
   9.673908e+04   1.203427e+04
   5.320052e+03  -2.691508e+04
  -3.434200e+04   4.889753e+04
  -5.122108e+04   1.642511e+05
  -9.648499e+04   1.709618e+05
  -1.488985e+05   1.272125e+04
  -1.271812e+05  -1.953984e+05
   8.216832e+03  -2.601543e+05
   1.807677e+05  -1.048932e+05
   2.358117e+05   1.350062e+05
   8.064608e+04   2.420749e+05
  -1.875833e+05   1.403997e+05
  -3.249567e+05  -4.515264e+04
  -1.784914e+05  -1.489589e+05
   1.143860e+05  -1.287881e+05
   2.403792e+05  -5.486441e+04
   6.715289e+04  -2.317389e+03
  -1.803586e+05  -6.144254e+03
  -1.775938e+05  -7.013534e+04
   1.031193e+05  -1.416074e+05
   3.533517e+05  -1.056010e+05
