
 $NMID
 id='ANONYMOUS ', fmtdat='(2E16.6)'
 volume=1.0
 tramp=1.0
 $END
   2.422305e+07  -1.379890e+06
   1.736069e+07   1.021542e+07
   1.305664e+06   1.553446e+07
  -1.009479e+07   1.137276e+07
  -9.328082e+06   1.834066e+06
  -1.004012e+06  -4.567855e+06
   5.140365e+06  -2.752434e+06
   4.291675e+06   3.877680e+06
  -8.081813e+05   7.249117e+06
  -4.635938e+06   3.498762e+06
  -4.217643e+06  -3.074566e+06
  -6.929716e+05  -5.285487e+06
   2.379053e+06  -1.132807e+06
   2.073761e+06   4.446963e+06
  -1.301407e+06   5.381967e+06
  -4.252662e+06   7.830561e+05
  -3.439406e+06  -4.770663e+06
   7.632808e+05  -6.324897e+06
   4.565337e+06  -3.185852e+06
   4.792556e+06   1.216268e+06
   2.082600e+06   3.262154e+06
  -2.006433e+05   2.517549e+06
   2.119000e+05   1.402243e+06
   2.159767e+06   2.030830e+06
   2.424948e+06   3.841711e+06
  -7.034971e+05   4.446979e+06
  -5.198771e+06   2.465671e+06
  -6.889161e+06  -9.138174e+05
  -3.763440e+06  -3.144606e+06
   1.453643e+06  -2.707391e+06
   3.802293e+06  -2.773931e+05
   1.365842e+06   1.987331e+06
  -2.740488e+06   2.105283e+06
  -4.100190e+06  -2.064035e+05
  -1.862413e+06  -3.064892e+06
   1.011727e+06  -3.795447e+06
   1.724680e+06  -1.567375e+06
   4.881263e+05   1.336040e+06
  -6.390121e+05   1.704423e+06
  -4.026439e+05  -8.515921e+05
   8.181023e+05  -3.160730e+06
   1.913035e+06  -2.180331e+06
   1.890997e+06   1.194353e+06
   3.926308e+05   3.074943e+06
  -1.670977e+06   1.235633e+06
  -2.261583e+06  -2.276989e+06
  -9.874754e+04  -3.616979e+06
   3.369015e+06  -1.412846e+06
   4.793307e+06   2.119410e+06
   2.370938e+06   3.846128e+06
  -1.946201e+06   2.682689e+06
  -4.285445e+06   4.373318e+04
  -2.798930e+06  -1.831482e+06
   6.331007e+05  -1.733303e+06
   2.590239e+06  -2.158844e+05
   1.598050e+06   1.060940e+06
  -6.993292e+05   8.685436e+05
  -1.585699e+06  -4.396730e+05
  -2.143139e+05  -1.340189e+06
   1.594866e+06  -7.784280e+05
   1.481128e+06   7.094769e+05
  -7.031755e+05   1.558021e+06
  -2.580987e+06   7.118841e+05
  -1.828555e+06  -1.397110e+06
   1.228652e+06  -3.153176e+06
   3.954306e+06  -2.974602e+06
   4.202127e+06  -6.141701e+05
   2.318930e+06   2.441702e+06
   2.958907e+05   4.103636e+06
  -5.400032e+05   3.582089e+06
  -5.642963e+05   2.064412e+06
  -8.667443e+05   1.195389e+06
  -1.809126e+06   1.097158e+06
  -2.702121e+06   4.783623e+05
  -2.583506e+06  -1.268436e+06
  -1.136803e+06  -2.827349e+06
   9.358366e+05  -2.375580e+06
   2.265305e+06   8.736254e+04
   1.776924e+06   2.470945e+06
  -3.122098e+05   2.722157e+06
  -2.430350e+06   8.156535e+05
  -2.914812e+06  -1.493252e+06
  -1.557729e+06  -2.537699e+06
   2.351149e+05  -2.113602e+06
   1.002062e+06  -1.228505e+06
   8.162143e+05  -8.578213e+05
   1.021811e+06  -1.018262e+06
   2.350713e+06  -8.917414e+05
   3.685934e+06   2.444637e+05
   3.124413e+06   2.155346e+06
   2.698113e+05   3.647085e+06
  -2.931428e+06   3.496204e+06
  -3.956535e+06   1.561569e+06
  -2.230836e+06  -9.051289e+05
   3.509669e+05  -2.159353e+06
   1.423374e+06  -1.451609e+06
   4.350697e+05   2.318839e+05
  -1.132632e+06   1.077453e+06
  -1.551708e+06   3.092631e+05
  -5.573970e+05  -9.570994e+05
   6.461938e+05  -1.019369e+06
   7.537653e+05   2.886313e+05
  -3.949466e+05   1.228155e+06
  -1.711964e+06   1.849812e+05
  -1.801773e+06  -2.246478e+06
  -1.564253e+05  -3.695382e+06
   2.282454e+06  -2.542638e+06
   3.727971e+06   3.635172e+05
   3.016245e+06   2.656275e+06
   7.192460e+05   2.821047e+06
  -1.282640e+06   1.404605e+06
  -1.551185e+06   9.401628e+04
  -4.520065e+05  -3.696213e+04
   3.542889e+05   6.646978e+05
  -2.065012e+05   1.079758e+06
  -1.439313e+06   5.497453e+05
  -1.737531e+06  -5.065755e+05
  -5.186983e+05  -1.082067e+06
   9.843704e+05  -6.285634e+05
   1.035876e+06   3.720434e+05
  -6.154460e+05   8.552658e+05
  -2.313390e+06   1.882482e+05
  -2.174694e+06  -1.209177e+06
  -8.399711e+04  -2.187491e+06
   2.145113e+06  -1.852934e+06
   2.596708e+06  -3.932621e+05
   1.111226e+06   1.000969e+06
  -7.053542e+05   1.178342e+06
  -1.168000e+06   1.567094e+05
  -7.372406e+04  -8.416584e+05
   1.314522e+06  -6.522771e+05
   1.609372e+06   5.585135e+05
   5.689778e+05   1.480989e+06
  -7.949244e+05   1.151682e+06
  -1.233465e+06   2.070660e+04
  -4.532519e+05  -6.220449e+05
   5.902446e+05  -1.161426e+05
   6.332208e+05   9.046946e+05
  -5.583720e+05   1.263833e+06
  -1.840584e+06   4.454240e+05
  -1.829279e+06  -9.635830e+05
  -3.857301e+05  -1.847543e+06
   1.195571e+06  -1.525948e+06
   1.538671e+06  -3.176958e+05
   5.734999e+05   7.369129e+05
  -5.356823e+05   8.121907e+05
  -7.099889e+05   6.627269e+04
  -3.620918e+03  -5.717075e+05
   6.428142e+05  -4.401518e+05
   4.954051e+05   1.337401e+05
  -2.250918e+05   2.772706e+05
  -6.130187e+05  -3.386821e+05
  -3.052418e+04  -1.051063e+06
   1.177360e+06  -9.054552e+05
   1.915304e+06   2.997041e+05
   1.367776e+06   1.737845e+06
  -1.605850e+05   2.282926e+06
  -1.498920e+06   1.508155e+06
  -1.744474e+06   4.791792e+04
  -1.072933e+06  -9.848942e+05
  -3.770557e+05  -1.004914e+06
  -2.236647e+05  -4.379811e+05
  -3.316364e+05  -1.736811e+05
  -6.751300e+04  -5.331050e+05
   7.075760e+05  -8.977204e+05
   1.384349e+06  -4.668977e+05
   1.172510e+06   6.981016e+05
  -8.343529e+04   1.572478e+06
  -1.597873e+06   1.181089e+06
  -2.176891e+06  -3.606171e+05
  -1.217938e+06  -1.879345e+06
   6.879628e+05  -2.196643e+06
   2.183609e+06  -1.150324e+06
   2.292616e+06   3.512401e+05
   1.209871e+06   1.218553e+06
  -1.802645e+04   1.139161e+06
  -5.383770e+05   7.090593e+05
  -3.873278e+05   6.571631e+05
  -2.283770e+05   1.000319e+06
  -5.355480e+05   1.050415e+06
  -1.083612e+06   2.694303e+05
  -1.204109e+06  -9.966990e+05
  -5.176071e+05  -1.756042e+06
   5.827826e+05  -1.339065e+06
   1.212936e+06  -6.115971e+04
   8.352652e+05   1.077672e+06
  -1.776165e+05   1.287153e+06
  -8.905581e+05   5.906154e+05
  -7.498092e+05  -3.395433e+05
  -1.113023e+05  -8.411783e+05
   2.299778e+05  -7.766167e+05
  -2.808199e+04  -4.928876e+05
  -3.564511e+05  -3.581949e+05
  -2.946042e+04  -3.757197e+05
   9.712407e+05  -2.498384e+05
   1.790995e+06   2.157130e+05
   1.513928e+06   8.441141e+05
   1.490793e+05   1.214441e+06
  -1.264772e+06   1.034594e+06
  -1.627180e+06   4.041000e+05
  -8.452057e+05  -2.363355e+05
   1.453688e+05  -4.357020e+05
   4.196660e+05  -1.272128e+05
  -2.482803e+04   2.613151e+05
  -4.724200e+05   2.048882e+05
  -4.248462e+05  -3.136824e+05
  -8.759271e+04  -7.045327e+05
   5.036279e+04  -4.474613e+05
  -1.475179e+05   1.955370e+05
  -3.785960e+05   4.026527e+05
  -2.889877e+05  -1.947561e+05
   1.955811e+05  -9.658179e+05
   8.099234e+05  -9.711877e+05
   1.074999e+06  -8.517092e+04
   6.205475e+05   8.354630e+05
  -3.650720e+05   9.171658e+05
  -1.051882e+06   1.837898e+05
  -6.612480e+05  -5.715901e+05
   6.047489e+05  -6.442694e+05
   1.549696e+06  -1.646922e+04
   1.154555e+06   7.564806e+05
  -2.909189e+05   1.061722e+06
  -1.440087e+06   6.826052e+05
  -1.296541e+06  -5.247794e+04
  -2.105884e+05  -5.177157e+05
   5.870309e+05  -3.346761e+05
   3.148845e+05   2.189764e+05
  -6.078125e+05   4.163069e+05
  -1.084453e+06  -1.764920e+05
  -4.966660e+05  -1.148427e+06
   6.964345e+05  -1.529507e+06
   1.454148e+06  -7.324818e+05
   1.171773e+06   7.592059e+05
   1.791404e+05   1.716741e+06
  -6.947483e+05   1.304017e+06
  -9.063271e+05  -6.654438e+04
  -5.158755e+05  -1.112678e+06
   7.773374e+04  -9.941663e+05
   4.950159e+05  -1.395672e+05
   5.334196e+05   3.787796e+05
   2.548931e+05   1.663976e+05
   8.064176e+03  -1.239413e+05
   1.251718e+05   1.994153e+05
   4.355072e+05   8.756717e+05
   3.092087e+05   1.046614e+06
  -5.335598e+05   4.083890e+05
  -1.417058e+06  -4.338051e+05
  -1.330420e+06  -7.876044e+05
  -1.950705e+05  -6.348561e+05
   9.023411e+05  -3.841191e+05
   9.679978e+05  -2.143918e+05
   2.602402e+05  -1.623372e+04
  -1.746574e+05   2.009095e+05
   8.088193e+04   2.586601e+05
   3.706590e+05   1.623087e+05
  -9.149529e+02   1.303873e+05
  -7.531865e+05   1.675072e+05
  -9.668313e+05  -4.924241e+04
  -2.254830e+05  -6.213260e+05
   9.074439e+05  -1.023993e+06
   1.511783e+06  -6.191102e+05
   1.168796e+06   4.719648e+05
   2.030883e+05   1.340828e+06
  -6.916038e+05   1.250060e+06
  -9.811077e+05   4.183527e+05
  -6.283233e+05  -2.897522e+05
  -7.198104e+04  -3.323083e+05
   1.665692e+05   1.468260e+04
  -4.197032e+04   9.889204e+04
  -3.384392e+05  -3.135235e+05
  -2.764720e+05  -7.622083e+05
   1.948801e+05  -6.098948e+05
   6.575826e+05   1.985313e+05
   6.133848e+05   9.717813e+05
  -2.580406e+04   9.489635e+05
  -7.714926e+05   1.130909e+05
  -9.228510e+05  -7.843159e+05
  -2.445503e+05  -1.014543e+06
   6.879339e+05  -5.455582e+05
   9.911401e+05   1.083137e+05
   4.339505e+05   4.984816e+05
  -2.611403e+05   5.323377e+05
  -2.655783e+05   3.230745e+05
   3.303842e+05   5.514873e+04
   6.352092e+05  -1.379993e+04
   1.011634e+05   2.685493e+05
  -7.803630e+05   6.443715e+05
  -1.103317e+06   5.776592e+05
  -6.173914e+05  -8.757962e+04
   1.042815e+05  -7.738210e+05
   4.345381e+05  -7.619295e+05
   2.962604e+05  -8.098725e+04
  -9.336764e+03   4.882493e+05
  -2.441832e+05   3.505932e+05
  -3.295534e+05  -2.307248e+05
  -2.184214e+05  -5.463650e+05
   7.320803e+04  -3.167764e+05
   3.600570e+05   8.484071e+04
   4.151707e+05   2.033167e+05
   2.285308e+05   3.655078e+04
   1.072708e+04  -6.820403e+04
  -8.365904e+04   1.043629e+05
  -1.201887e+05   3.824442e+05
  -2.239098e+05   4.068364e+05
  -3.489581e+05   3.454620e+04
  -3.003210e+05  -4.607288e+05
   2.016316e+04  -6.142682e+05
   4.293572e+05  -2.432774e+05
   5.562368e+05   3.258557e+05
   1.832951e+05   5.740712e+05
  -4.520612e+05   3.249720e+05
  -7.707520e+05  -1.184514e+05
  -4.176813e+05  -3.602786e+05
   2.763443e+05  -3.043146e+05
   5.728494e+05  -1.248903e+05
   1.637813e+05  -3.662259e+03
  -4.197324e+05  -1.775315e+04
  -4.143813e+05  -1.669939e+05
   2.448710e+05  -3.263412e+05
   8.318478e+05  -2.344417e+05
