
 $NMID
 id='ANONYMOUS ', fmtdat='(2E16.6)'
 volume=1.0
 tramp=1.0
 $END
  -5.625117e+07  -5.012767e+04
  -3.354117e+07  -3.502187e+07
   7.713131e+06  -3.798822e+07
   2.748219e+07  -1.429951e+07
   1.616685e+07   7.191742e+06
  -3.420416e+06   9.205858e+06
  -9.652054e+06  -1.368108e+06
  -2.595230e+06  -9.666702e+06
   6.176323e+06  -9.085602e+06
   9.518137e+06  -1.870260e+06
   6.940942e+06   6.124904e+06
   8.622328e+05   8.493736e+06
  -3.951614e+06   2.773915e+06
  -2.660067e+06  -5.280512e+06
   3.681818e+06  -6.388957e+06
   7.769928e+06   1.376410e+06
   4.374982e+06   1.011841e+07
  -3.773089e+06   1.169039e+07
  -1.005733e+07   5.884201e+06
  -1.081064e+07  -2.013984e+06
  -6.675362e+06  -7.502365e+06
  -6.884318e+05  -8.734144e+06
   3.033564e+06  -6.072202e+06
   1.990287e+06  -2.536691e+06
  -1.105297e+06  -1.914014e+06
  -4.072408e+05  -4.051642e+06
   5.207970e+06  -4.477584e+06
   9.544424e+06  -6.781763e+05
   7.059357e+06   4.011885e+06
   3.689339e+05   5.090133e+06
  -3.620415e+06   2.708299e+06
  -2.533147e+06   1.432174e+05
   4.003809e+05  -9.382085e+05
   2.119415e+06  -6.364938e+05
   2.239295e+06   1.255776e+06
   8.538625e+05   3.860738e+06
  -1.745260e+06   3.897037e+06
  -3.331083e+06  -5.988444e+04
  -1.798778e+06  -3.675845e+06
   8.318233e+05  -2.021715e+06
   4.798181e+05   2.376442e+06
  -2.364599e+06   2.273933e+06
  -2.398042e+06  -3.169241e+06
   2.482335e+06  -6.056831e+06
   6.987259e+06  -9.296181e+05
   5.094733e+06   6.954079e+06
  -1.954094e+06   8.494504e+06
  -7.397791e+06   2.410656e+06
  -6.863382e+06  -4.364693e+06
  -1.811484e+06  -5.904755e+06
   3.395048e+06  -2.649646e+06
   5.127570e+06   1.487212e+06
   2.345625e+06   3.405728e+06
  -2.408512e+06   2.142191e+06
  -4.471338e+06  -9.295214e+05
  -1.907289e+06  -2.697667e+06
   1.708833e+06  -1.355371e+06
   1.696806e+06   9.962257e+05
  -1.328558e+06   8.428071e+05
  -2.396437e+06  -1.811525e+06
   7.297365e+05  -3.417816e+06
   4.663122e+06  -1.822464e+06
   5.238492e+06   1.405512e+06
   2.266349e+06   3.958668e+06
  -1.741331e+06   5.235786e+06
  -4.876504e+06   4.867338e+06
  -6.116862e+06   1.817009e+06
  -4.607699e+06  -3.083473e+06
  -1.009756e+06  -6.101440e+06
   1.816228e+06  -4.685500e+06
   1.718601e+06  -1.137271e+06
   7.706730e+04   2.910146e+05
  -1.486923e+05  -1.012212e+06
   1.510709e+06  -1.884056e+06
   2.799480e+06  -3.660941e+05
   2.097060e+06   1.821108e+06
   1.311199e+05   2.113602e+06
  -1.484168e+06   2.765257e+05
  -1.691488e+06  -1.962771e+06
  -7.664997e+04  -2.882592e+06
   2.705348e+06  -1.703952e+06
   4.469887e+06   1.100409e+06
   3.259758e+06   3.710004e+06
  -8.476662e+03   4.231076e+06
  -2.275037e+06   2.726295e+06
  -2.232468e+06   1.119993e+06
  -1.802313e+06   6.581123e+05
  -2.875793e+06   4.864936e+05
  -4.274945e+06  -7.030796e+05
  -3.456392e+06  -2.673138e+06
  -1.871125e+05  -4.048160e+06
   3.080420e+06  -3.887425e+06
   4.064230e+06  -2.181348e+06
   2.644930e+06   3.437061e+05
   3.489572e+05   2.204604e+06
  -1.033816e+06   1.951966e+06
  -5.661868e+05  -1.676044e+04
   1.042829e+06  -1.318061e+06
   1.880948e+06  -4.215227e+05
   9.388013e+05   1.187277e+06
  -4.796491e+05   1.110511e+06
  -4.040072e+05  -3.677522e+05
   1.051236e+06  -6.481379e+05
   1.798733e+06   1.315425e+06
   5.869181e+05   3.429098e+06
  -1.585078e+06   3.285886e+06
  -3.049591e+06   1.030389e+06
  -3.196326e+06  -1.399845e+06
  -2.225151e+06  -2.633928e+06
  -4.838182e+05  -2.519439e+06
   1.183886e+06  -1.461315e+06
   1.545388e+06  -2.619767e+05
   4.856754e+05   3.738880e+04
  -3.624903e+05  -7.360296e+05
   4.031028e+05  -1.332915e+06
   1.891710e+06  -5.892215e+05
   2.017178e+06   8.689342e+05
   3.824074e+05   1.400897e+06
  -1.149920e+06   5.707247e+05
  -8.652501e+05  -4.315293e+05
   8.288532e+05  -4.914813e+05
   2.113340e+06   3.084918e+05
   1.693464e+06   1.293080e+06
  -2.262807e+05   1.905387e+06
  -2.235180e+06   1.640547e+06
  -2.720324e+06   3.037775e+05
  -1.215035e+06  -1.241306e+06
   8.999937e+05  -1.507203e+06
   1.557151e+06  -2.046904e+05
   2.197464e+05   1.078560e+06
  -1.491587e+06   7.505893e+05
  -1.699364e+06  -7.567073e+05
  -3.347739e+05  -1.619435e+06
   1.072047e+06  -9.511703e+05
   1.228164e+06   3.133345e+05
   2.307858e+05   7.687795e+05
  -7.961045e+05   5.622281e+04
  -7.462773e+05  -1.035046e+06
   5.437358e+05  -1.420496e+06
   1.974899e+06  -5.736934e+05
   2.030251e+06   1.004414e+06
   4.075226e+05   2.045934e+06
  -1.406345e+06   1.638771e+06
  -1.700822e+06   2.213032e+05
  -4.965222e+05  -8.519298e+05
   6.419671e+05  -7.940517e+05
   6.123697e+05  -8.996492e+04
  -1.139267e+05   3.317945e+05
  -4.556298e+05   1.969023e+05
  -8.884527e+04  -4.301386e+04
   4.490377e+05   1.074146e+05
   4.990236e+05   6.762646e+05
  -2.072597e+05   1.170665e+06
  -1.355718e+06   8.944592e+05
  -2.057934e+06  -3.827170e+05
  -1.473746e+06  -1.897967e+06
   1.759895e+05  -2.385471e+06
   1.562124e+06  -1.399875e+06
   1.644770e+06   1.066542e+05
   8.382099e+05   8.454352e+05
   3.288055e+05   5.961494e+05
   5.026349e+05   1.931941e+05
   6.431021e+05   3.178796e+05
   9.797837e+04   7.690409e+05
  -8.568821e+05   8.925550e+05
  -1.412212e+06   3.288594e+05
  -1.027495e+06  -6.850463e+05
   2.298552e+05  -1.415995e+06
   1.673006e+06  -1.066938e+06
   2.211563e+06   4.449757e+05
   1.133236e+06   2.052586e+06
  -9.810033e+05   2.340044e+06
  -2.500101e+06   1.033281e+06
  -2.308087e+06  -6.335785e+05
  -9.310322e+05  -1.295325e+06
   1.960803e+05  -9.034790e+05
   3.495116e+05  -4.917683e+05
   3.441649e+04  -7.585289e+05
   7.364640e+04  -1.315658e+06
   6.525121e+05  -1.293062e+06
   1.282374e+06  -3.349519e+05
   1.340859e+06   1.043591e+06
   5.815307e+05   1.858055e+06
  -5.873113e+05   1.427156e+06
  -1.263107e+06   1.390915e+04
  -8.102041e+05  -1.260214e+06
   3.806386e+05  -1.377276e+06
   1.151320e+06  -3.908005e+05
   8.011195e+05   7.055222e+05
  -1.318889e+05   1.070835e+06
  -5.417296e+05   7.656180e+05
  -8.441098e+04   3.966135e+05
   4.395493e+05   3.197676e+05
   6.940738e+04   3.754409e+05
  -1.136775e+06   2.179365e+05
  -2.049502e+06  -3.055864e+05
  -1.606807e+06  -1.005953e+06
   3.626303e+04  -1.421666e+06
   1.570351e+06  -1.147810e+06
   1.803648e+06  -2.870855e+05
   8.150024e+05   4.947800e+05
  -2.611322e+05   5.724975e+05
  -5.066720e+05   2.967180e+04
  -3.963762e+04  -4.310050e+05
   4.258034e+05  -2.691627e+05
   4.837117e+05   3.292070e+05
   2.825671e+05   7.088226e+05
   1.208612e+05   4.749409e+05
   1.275543e+05  -8.346301e+04
   2.508613e+05  -2.813375e+05
   2.709998e+05   2.253514e+05
  -1.108955e+05   9.710017e+05
  -8.699390e+05   1.069779e+06
  -1.366260e+06   2.028428e+05
  -8.797067e+05  -8.924484e+05
   3.943040e+05  -1.149345e+06
   1.253185e+06  -3.710230e+05
   7.389825e+05   5.457709e+05
  -6.850817e+05   6.453646e+05
  -1.554092e+06  -7.706338e+04
  -9.754766e+05  -8.316005e+05
   4.767138e+05  -9.588071e+05
   1.454337e+06  -4.673415e+05
   1.193528e+06   1.785314e+05
   1.306450e+05   4.959040e+05
  -6.353901e+05   2.646271e+05
  -3.896745e+05  -2.923765e+05
   5.586518e+05  -5.408871e+05
   1.175517e+06   3.840148e+04
   7.115176e+05   1.147228e+06
  -5.210311e+05   1.708608e+06
  -1.435776e+06   9.263553e+05
  -1.258803e+06  -7.103335e+05
  -2.431369e+05  -1.756882e+06
   6.990961e+05  -1.276982e+06
   9.064660e+05   1.711057e+05
   4.302142e+05   1.164081e+06
  -2.175908e+05   9.404690e+05
  -5.570949e+05   8.232999e+04
  -4.500737e+05  -3.544384e+05
  -1.454264e+05  -1.213543e+05
  -5.231614e+04   8.701218e+04
  -3.078591e+05  -3.053033e+05
  -5.322055e+05  -9.498910e+05
  -1.867450e+05  -1.048760e+06
   7.234910e+05  -3.934017e+05
   1.459165e+06   4.250348e+05
   1.255039e+06   7.922103e+05
   1.932181e+05   6.890032e+05
  -8.104250e+05   4.392254e+05
  -9.560168e+05   1.945420e+05
  -3.728994e+05  -6.138587e+04
   1.299712e+05  -2.299850e+05
   5.472728e+04  -1.843045e+05
  -2.375511e+05  -6.543600e+04
  -6.512699e+04  -1.305333e+05
   6.173965e+05  -2.672769e+05
   1.039295e+06  -2.454506e+04
   4.891376e+05   6.855124e+05
  -7.739776e+05   1.209621e+06
  -1.683299e+06   8.120789e+05
  -1.447499e+06  -3.766135e+05
  -3.241410e+05  -1.378250e+06
   7.299672e+05  -1.389272e+06
   1.026448e+06  -5.827092e+05
   6.527403e+05   1.923616e+05
   1.561163e+05   3.533483e+05
  -4.327048e+04   9.150787e+04
   8.630883e+04   4.775790e+03
   2.904281e+05   3.621595e+05
   2.539165e+05   7.897085e+05
  -1.519535e+05   6.847101e+05
  -6.741714e+05  -7.568083e+04
  -7.828166e+05  -8.991270e+05
  -1.824391e+05  -1.025735e+06
   7.216045e+05  -3.040344e+05
   1.061438e+06   6.511923e+05
   4.005666e+05   1.071400e+06
  -6.820144e+05   7.181019e+05
  -1.126318e+06  -3.130790e+04
  -5.603238e+05  -6.145699e+05
   2.694583e+05  -7.096579e+05
   3.921467e+05  -3.785586e+05
  -2.162619e+05   1.542972e+04
  -6.336119e+05   6.573870e+04
  -1.644601e+05  -3.075040e+05
   7.941940e+05  -6.927092e+05
   1.250947e+06  -5.460367e+05
   7.863622e+05   1.805698e+05
  -6.672197e+04   8.754056e+05
  -5.479396e+05   8.726868e+05
  -4.503388e+05   1.917265e+05
  -8.744252e+04  -4.615382e+05
   2.188068e+05  -4.564765e+05
   3.554592e+05   1.052385e+05
   2.751645e+05   5.620402e+05
  -3.398243e+04   4.516400e+05
  -3.912853e+05  -1.853810e+04
  -4.868587e+05  -2.832524e+05
  -2.406711e+05  -1.053791e+05
   5.028424e+04   1.721157e+05
   7.689650e+04   8.713833e+04
  -6.693833e+04  -3.363129e+05
  -2.233967e+04  -5.861889e+05
   2.971359e+05  -2.832751e+05
   5.104788e+05   3.297794e+05
   2.307092e+05   6.380203e+05
  -3.797648e+05   3.423630e+05
  -6.898523e+05  -2.359438e+05
  -2.885023e+05  -5.484174e+05
   4.987999e+05  -3.826893e+05
   8.956680e+05   3.231913e+04
   4.964908e+05   3.571141e+05
  -2.795311e+05   4.292278e+05
  -6.362077e+05   2.753279e+05
  -2.717477e+05   2.870408e+04
   3.098325e+05  -1.094280e+05
   3.970379e+05   1.213693e+04
  -1.253187e+05   2.774360e+05
  -6.802243e+05   3.030483e+05
