
 $NMID
 id='ANONYMOUS ', fmtdat='(2E16.6)'
 volume=1.0
 tramp=1.0
 $END
  -5.715624e+07   1.573064e+06
  -3.555568e+07  -3.460529e+07
   6.469092e+06  -3.910530e+07
   2.785399e+07  -1.566867e+07
   1.715112e+07   6.818193e+06
  -3.146761e+06   9.681519e+06
  -1.017358e+07  -1.046207e+06
  -3.078929e+06  -1.000185e+07
   6.222128e+06  -9.712052e+06
   9.867905e+06  -2.241966e+06
   7.226682e+06   6.149997e+06
   9.775522e+05   8.695726e+06
  -3.956825e+06   2.857474e+06
  -2.691390e+06  -5.469485e+06
   3.780284e+06  -6.732745e+06
   8.084055e+06   1.195701e+06
   4.753484e+06   1.029827e+07
  -3.577066e+06   1.209719e+07
  -1.010426e+07   6.254132e+06
  -1.099093e+07  -1.772379e+06
  -6.933716e+06  -7.351340e+06
  -1.027930e+06  -8.730317e+06
   2.723849e+06  -6.318599e+06
   1.885912e+06  -2.945842e+06
  -9.948928e+05  -2.233316e+06
  -2.373446e+05  -4.148167e+06
   5.348518e+06  -4.441819e+06
   9.683445e+06  -6.412244e+05
   7.174812e+06   4.006370e+06
   3.899363e+05   5.029250e+06
  -3.623957e+06   2.599571e+06
  -2.391948e+06   9.079625e+04
   6.589637e+05  -8.123976e+05
   2.242699e+06  -3.917969e+05
   2.120134e+06   1.415512e+06
   7.121458e+05   3.869529e+06
  -1.699019e+06   3.905752e+06
  -3.214192e+06   5.340056e+04
  -1.845595e+06  -3.554752e+06
   6.335519e+05  -1.984813e+06
   3.087013e+05   2.407179e+06
  -2.486760e+06   2.348123e+06
  -2.576105e+06  -3.216124e+06
   2.320177e+06  -6.364179e+06
   7.068539e+06  -1.297529e+06
   5.425653e+06   6.880327e+06
  -1.696711e+06   8.748894e+06
  -7.476101e+06   2.650106e+06
  -7.146499e+06  -4.413276e+06
  -1.959145e+06  -6.143721e+06
   3.531810e+06  -2.811356e+06
   5.402591e+06   1.520745e+06
   2.526372e+06   3.567705e+06
  -2.436127e+06   2.314587e+06
  -4.646963e+06  -8.487683e+05
  -2.055347e+06  -2.747576e+06
   1.718842e+06  -1.438590e+06
   1.788500e+06   1.040951e+06
  -1.373708e+06   1.010011e+06
  -2.648190e+06  -1.745297e+06
   4.887538e+05  -3.610630e+06
   4.683588e+06  -2.132393e+06
   5.484870e+06   1.245409e+06
   2.476485e+06   4.012955e+06
  -1.725388e+06   5.356647e+06
  -4.979228e+06   4.944200e+06
  -6.212241e+06   1.860988e+06
  -4.672023e+06  -3.083228e+06
  -1.051984e+06  -6.217118e+06
   1.841653e+06  -4.898615e+06
   1.845058e+06  -1.293167e+06
   2.465271e+05   3.041187e+05
  -2.760364e+04  -8.844990e+05
   1.549101e+06  -1.749725e+06
   2.765827e+06  -2.543498e+05
   2.002707e+06   1.908808e+06
   1.044441e+04   2.120588e+06
  -1.557403e+06   1.641189e+05
  -1.672933e+06  -2.117114e+06
  -6.560878e+03  -2.961077e+06
   2.764562e+06  -1.691715e+06
   4.517926e+06   1.131268e+06
   3.329751e+06   3.730851e+06
   7.071493e+04   4.283033e+06
  -2.237164e+06   2.827506e+06
  -2.259358e+06   1.228600e+06
  -1.887560e+06   7.305162e+05
  -3.017977e+06   5.051364e+05
  -4.448477e+06  -7.589227e+05
  -3.566686e+06  -2.811576e+06
  -1.383835e+05  -4.208669e+06
   3.258638e+06  -3.969558e+06
   4.223785e+06  -2.154292e+06
   2.675532e+06   4.110087e+05
   2.807818e+05   2.238865e+06
  -1.097029e+06   1.948708e+06
  -5.634362e+05  -2.950876e+04
   1.100167e+06  -1.327993e+06
   1.942891e+06  -4.184657e+05
   9.517148e+05   1.213227e+06
  -5.258774e+05   1.125668e+06
  -4.361359e+05  -4.204209e+05
   1.130913e+06  -7.375197e+05
   1.973531e+06   1.332183e+06
   6.954675e+05   3.637976e+06
  -1.681806e+06   3.562058e+06
  -3.300489e+06   1.143289e+06
  -3.415321e+06  -1.532172e+06
  -2.291038e+06  -2.869278e+06
  -4.277751e+05  -2.671626e+06
   1.267692e+06  -1.481974e+06
   1.600917e+06  -2.272095e+05
   5.033685e+05   4.748373e+04
  -3.659936e+05  -7.710124e+05
   4.191926e+05  -1.384064e+06
   1.958702e+06  -6.075052e+05
   2.099339e+06   9.102238e+05
   4.003442e+05   1.464963e+06
  -1.208397e+06   5.847202e+05
  -9.044779e+05  -4.826295e+05
   8.975736e+05  -5.290006e+05
   2.248370e+06   3.658476e+05
   1.763813e+06   1.426769e+06
  -2.917108e+05   2.020880e+06
  -2.382062e+06   1.673674e+06
  -2.842626e+06   2.668905e+05
  -1.252540e+06  -1.300787e+06
   9.341142e+05  -1.549890e+06
   1.603406e+06  -2.088985e+05
   2.174547e+05   1.103805e+06
  -1.553904e+06   7.573321e+05
  -1.765380e+06  -8.109391e+05
  -3.339111e+05  -1.709124e+06
   1.143924e+06  -9.998895e+05
   1.302143e+06   3.398843e+05
   2.461264e+05   8.191534e+05
  -8.258303e+05   6.103996e+04
  -7.587286e+05  -1.079259e+06
   5.868418e+05  -1.457449e+06
   2.052442e+06  -5.561402e+05
   2.084407e+06   1.074502e+06
   3.924091e+05   2.128987e+06
  -1.483445e+06   1.686780e+06
  -1.777580e+06   2.092264e+05
  -5.109700e+05  -9.005100e+05
   6.840235e+05  -8.221720e+05
   6.425161e+05  -6.911048e+04
  -1.425902e+05   3.650921e+05
  -5.103495e+05   1.890189e+05
  -1.030230e+05  -8.814493e+04
   4.890697e+05   8.367177e+04
   5.396553e+05   7.102233e+05
  -2.215175e+05   1.230026e+06
  -1.425747e+06   9.158164e+05
  -2.134787e+06  -4.309150e+05
  -1.498851e+06  -1.994652e+06
   2.303300e+05  -2.476721e+06
   1.667195e+06  -1.431640e+06
   1.729374e+06   1.519218e+05
   8.516253e+05   9.286384e+05
   2.935729e+05   6.530559e+05
   4.831558e+05   1.999298e+05
   6.600794e+05   3.112865e+05
   1.034840e+05   7.891084e+05
  -9.070692e+05   9.228778e+05
  -1.489892e+06   3.179150e+05
  -1.059633e+06  -7.518944e+05
   2.803601e+05  -1.490170e+06
   1.774704e+06  -1.083532e+06
   2.298685e+06   5.091475e+05
   1.150966e+06   2.164147e+06
  -1.050477e+06   2.433252e+06
  -2.623803e+06   1.050707e+06
  -2.413560e+06  -6.999449e+05
  -9.592312e+05  -1.392865e+06
   2.384894e+05  -9.638817e+05
   4.046444e+05  -4.973131e+05
   6.199650e+04  -7.523380e+05
   8.717098e+04  -1.339184e+06
   6.828857e+05  -1.329923e+06
   1.328029e+06  -3.329806e+05
   1.369155e+06   1.104340e+06
   5.673502e+05   1.938359e+06
  -6.376363e+05   1.468483e+06
  -1.317704e+06  -8.883559e+03
  -8.314255e+05  -1.325294e+06
   4.113524e+05  -1.439333e+06
   1.213849e+06  -4.127972e+05
   8.481069e+05   7.315295e+05
  -1.303757e+05   1.122959e+06
  -5.683563e+05   8.131726e+05
  -1.006260e+05   4.259236e+05
   4.426358e+05   3.379334e+05
   6.132838e+04   3.891069e+05
  -1.184034e+06   2.163048e+05
  -2.122843e+06  -3.395734e+05
  -1.659569e+06  -1.069888e+06
   4.402031e+04  -1.486488e+06
   1.637896e+06  -1.180020e+06
   1.887394e+06  -2.775252e+05
   8.618461e+05   5.249613e+05
  -2.676701e+05   5.938338e+05
  -5.330109e+05   3.139490e+04
  -4.317325e+04  -4.357824e+05
   4.463994e+05  -2.628272e+05
   4.944769e+05   3.483775e+05
   2.682464e+05   7.271963e+05
   1.086731e+05   4.807413e+05
   1.459646e+05  -8.752633e+04
   2.851990e+05  -2.813571e+05
   2.804844e+05   2.413565e+05
  -1.424137e+05   1.000767e+06
  -9.198363e+05   1.093994e+06
  -1.403026e+06   1.991598e+05
  -8.874138e+05  -9.243570e+05
   4.157670e+05  -1.178977e+06
   1.287383e+06  -3.655322e+05
   7.505025e+05   5.803473e+05
  -7.249643e+05   6.629933e+05
  -1.625040e+06  -1.124877e+05
  -1.011606e+06  -9.020108e+05
   5.197133e+05  -1.009035e+06
   1.544685e+06  -4.637265e+05
   1.255230e+06   2.176754e+05
   1.261278e+05   5.279102e+05
  -6.720756e+05   2.681987e+05
  -4.018493e+05  -3.034975e+05
   5.859172e+05  -5.394676e+05
   1.206490e+06   6.660609e+04
   7.030543e+05   1.192523e+06
  -5.758847e+05   1.742530e+06
  -1.500932e+06   9.193907e+05
  -1.285442e+06  -7.644550e+05
  -2.117270e+05  -1.827927e+06
   7.609073e+05  -1.315003e+06
   9.494606e+05   1.947941e+05
   4.290463e+05   1.227952e+06
  -2.471697e+05   9.895642e+05
  -5.843447e+05   8.081155e+04
  -4.621360e+05  -3.886396e+05
  -1.498161e+05  -1.419527e+05
  -5.774978e+04   9.517407e+04
  -3.140147e+05  -3.036786e+05
  -5.335883e+05  -9.897104e+05
  -1.755766e+05  -1.107738e+06
   7.550508e+05  -4.103292e+05
   1.506755e+06   4.742052e+05
   1.292297e+06   8.617170e+05
   1.897424e+05   7.197733e+05
  -8.540850e+05   4.270940e+05
  -1.002750e+06   1.796365e+05
  -3.884485e+05  -5.889726e+04
   1.404134e+05  -2.309776e+05
   6.152560e+04  -2.065302e+05
  -2.435690e+05  -9.058364e+04
  -6.149900e+04  -1.315334e+05
   6.470232e+05  -2.464751e+05
   1.072841e+06  -3.660440e+03
   4.860181e+05   6.987276e+05
  -8.247711e+05   1.220244e+06
  -1.746839e+06   8.116482e+05
  -1.476421e+06  -4.063332e+05
  -3.021236e+05  -1.430481e+06
   7.790685e+05  -1.426192e+06
   1.065953e+06  -5.784450e+05
   6.652494e+05   2.185009e+05
   1.519470e+05   3.631250e+05
  -4.366192e+04   7.795776e+04
   9.698966e+04  -2.013503e+03
   3.005550e+05   3.861169e+05
   2.491523e+05   8.292696e+05
  -1.699652e+05   7.019821e+05
  -6.884411e+05  -9.942847e+04
  -7.790046e+05  -9.434084e+05
  -1.622863e+05  -1.050138e+06
   7.440150e+05  -2.856006e+05
   1.071168e+06   6.975779e+05
   3.891188e+05   1.108610e+06
  -7.122113e+05   7.226762e+05
  -1.158803e+06  -5.108440e+04
  -5.732263e+05  -6.364235e+05
   2.811972e+05  -7.247976e+05
   4.063076e+05  -3.936298e+05
  -2.247954e+05  -2.849686e+03
  -6.568833e+05   5.063772e+04
  -1.643730e+05  -3.165940e+05
   8.387019e+05  -7.013778e+05
   1.311626e+06  -5.536727e+05
   8.148781e+05   1.870807e+05
  -8.307765e+04   9.018254e+05
  -5.760393e+05   9.006787e+05
  -4.561213e+05   1.974484e+05
  -7.290986e+04  -4.753536e+05
   2.304814e+05  -4.627526e+05
   3.551050e+05   1.218798e+05
   2.718025e+05   5.860725e+05
  -3.591949e+04   4.594737e+05
  -3.995796e+05  -2.907135e+04
  -5.040360e+05  -2.962896e+05
  -2.537750e+05  -1.110643e+05
   5.467461e+04   1.698934e+05
   9.563910e+04   8.388493e+04
  -4.839719e+04  -3.372166e+05
  -1.346708e+04  -5.800852e+05
   2.962986e+05  -2.711430e+05
   5.017288e+05   3.430685e+05
   2.149640e+05   6.462101e+05
  -3.971864e+05   3.381927e+05
  -6.982285e+05  -2.545472e+05
  -2.799247e+05  -5.698356e+05
   5.211780e+05  -3.880636e+05
   9.182258e+05   4.799030e+04
   5.044450e+05   3.768516e+05
  -2.899618e+05   4.345745e+05
  -6.525349e+05   2.699495e+05
  -2.762035e+05   3.193520e+04
   3.191708e+05  -9.044199e+04
   4.000871e+05   3.123930e+04
  -1.473946e+05   2.775370e+05
  -7.169009e+05   2.823249e+05
