
 $NMID
 id='ANONYMOUS ', fmtdat='(2E16.6)'
 volume=1.0
 tramp=1.0
 $END
  -4.945413e+07  -5.955737e+05
  -2.993383e+07  -3.006092e+07
   6.043691e+06  -3.321334e+07
   2.412855e+07  -1.367559e+07
   1.499784e+07   5.286168e+06
  -2.475127e+06   8.321084e+06
  -8.899078e+06  -4.511896e+05
  -3.042528e+06  -8.605627e+06
   5.208383e+06  -8.924004e+06
   8.676089e+06  -2.229507e+06
   6.322479e+06   5.681518e+06
   6.255433e+05   7.956503e+06
  -3.708122e+06   2.317763e+06
  -2.405639e+06  -5.351965e+06
   3.389195e+06  -6.317771e+06
   7.127444e+06   9.892843e+05
   4.096460e+06   9.154104e+06
  -3.327505e+06   1.061421e+07
  -9.030294e+06   5.171527e+06
  -9.479860e+06  -2.059214e+06
  -5.504056e+06  -6.670255e+06
  -3.747606e+05  -7.297647e+06
   2.269398e+06  -5.006248e+06
   9.689272e+05  -2.613361e+06
  -1.348916e+06  -2.664409e+06
   9.825616e+04  -4.298035e+06
   5.525538e+06  -3.850727e+06
   9.130897e+06   5.110948e+04
   6.267960e+06   4.085228e+06
  -2.513718e+05   4.543440e+06
  -3.825441e+06   1.949681e+06
  -2.203889e+06  -5.201661e+05
   1.190687e+06  -1.179133e+06
   2.765133e+06  -2.265423e+05
   2.078348e+06   1.911789e+06
   1.815878e+05   3.950079e+06
  -1.873192e+06   3.312121e+06
  -2.586662e+06  -4.391335e+05
  -1.104290e+06  -3.222641e+06
   6.919880e+05  -1.263017e+06
  -1.995262e+04   2.658850e+06
  -2.431803e+06   2.257569e+06
  -2.307269e+06  -2.816570e+06
   1.884497e+06  -5.482083e+06
   5.806466e+06  -1.004249e+06
   4.409756e+06   5.988427e+06
  -1.587270e+06   7.459077e+06
  -6.607053e+06   2.089439e+06
  -6.468411e+06  -4.108624e+06
  -1.883344e+06  -5.668798e+06
   3.241287e+06  -2.688444e+06
   5.108295e+06   1.298641e+06
   2.498692e+06   3.223577e+06
  -2.074307e+06   2.093536e+06
  -4.131657e+06  -7.471919e+05
  -1.857704e+06  -2.410109e+06
   1.526521e+06  -1.244866e+06
   1.718485e+06   9.486930e+05
  -1.002474e+06   1.037656e+06
  -2.312416e+06  -1.210195e+06
   1.439348e+05  -2.857620e+06
   3.787562e+06  -1.808006e+06
   4.734250e+06   9.599530e+05
   2.183194e+06   3.467823e+06
  -1.800317e+06   4.802202e+06
  -4.941616e+06   4.351469e+06
  -5.844336e+06   1.365126e+06
  -4.034186e+06  -3.122702e+06
  -6.698522e+05  -5.792082e+06
   1.681941e+06  -4.545342e+06
   1.555835e+06  -1.431507e+06
   3.684792e+05  -8.206254e+04
   4.587529e+05  -9.884436e+05
   1.932160e+06  -1.430665e+06
   2.789710e+06   2.048907e+05
   1.776195e+06   2.233890e+06
  -2.787767e+05   2.230354e+06
  -1.765335e+06   7.771518e+04
  -1.672947e+06  -2.271588e+06
   1.542383e+05  -2.941119e+06
   2.772249e+06  -1.411001e+06
   4.140124e+06   1.384428e+06
   2.796746e+06   3.590877e+06
  -1.603835e+05   3.787158e+06
  -2.052992e+06   2.369582e+06
  -1.956072e+06   1.060647e+06
  -1.700765e+06   7.464275e+05
  -2.887021e+06   5.193590e+05
  -4.275124e+06  -7.647301e+05
  -3.410184e+06  -2.775819e+06
  -5.555530e+04  -4.114543e+06
   3.322777e+06  -3.805421e+06
   4.271117e+06  -1.915802e+06
   2.593004e+06   6.185714e+05
   6.476784e+04   2.264788e+06
  -1.252481e+06   1.823686e+06
  -5.406968e+05  -9.825342e+04
   1.159780e+06  -1.252299e+06
   1.878198e+06  -3.383031e+05
   8.261284e+05   1.194066e+06
  -5.930539e+05   1.100853e+06
  -5.087290e+05  -3.957376e+05
   9.642122e+05  -8.270113e+05
   1.863636e+06   1.015661e+06
   8.645975e+05   3.318856e+06
  -1.318960e+06   3.555784e+06
  -3.077869e+06   1.408821e+06
  -3.471171e+06  -1.331047e+06
  -2.425779e+06  -2.890363e+06
  -4.429472e+05  -2.745161e+06
   1.325136e+06  -1.447721e+06
   1.615268e+06  -1.545050e+05
   4.946817e+05   5.909725e+04
  -3.455290e+05  -7.621773e+05
   4.110208e+05  -1.307208e+06
   1.865159e+06  -5.394195e+05
   1.999655e+06   8.781320e+05
   3.902139e+05   1.391553e+06
  -1.178774e+06   5.674073e+05
  -9.337815e+05  -4.798682e+05
   8.423484e+05  -5.895926e+05
   2.269822e+06   2.840425e+05
   1.848346e+06   1.423412e+06
  -2.465987e+05   2.071314e+06
  -2.387387e+06   1.673646e+06
  -2.816670e+06   2.254293e+05
  -1.191840e+06  -1.273761e+06
   9.333440e+05  -1.444560e+06
   1.517106e+06  -1.484430e+05
   1.499619e+05   1.058073e+06
  -1.531947e+06   6.950215e+05
  -1.720096e+06  -8.035825e+05
  -3.499091e+05  -1.673958e+06
   1.089903e+06  -1.013931e+06
   1.283334e+06   2.859438e+05
   2.770292e+05   7.799562e+05
  -7.754673e+05   4.990771e+04
  -7.044006e+05  -1.068906e+06
   6.272419e+05  -1.409338e+06
   2.038374e+06  -4.779920e+05
   2.013855e+06   1.116531e+06
   3.356191e+05   2.091709e+06
  -1.472951e+06   1.621713e+06
  -1.740067e+06   1.895516e+05
  -5.067294e+05  -8.805885e+05
   6.748640e+05  -8.086949e+05
   6.688542e+05  -5.450729e+04
  -1.117489e+05   4.151941e+05
  -5.494039e+05   2.451363e+05
  -2.029905e+05  -9.506119e+04
   4.176331e+05   1.054643e+04
   5.387871e+05   6.357346e+05
  -1.946308e+05   1.187628e+06
  -1.402152e+06   8.824848e+05
  -2.089735e+06  -4.609063e+05
  -1.426942e+06  -1.992692e+06
   2.816990e+05  -2.448556e+06
   1.677895e+06  -1.422125e+06
   1.745114e+06   1.458927e+05
   8.957980e+05   9.704476e+05
   3.093716e+05   7.560253e+05
   4.225716e+05   2.807285e+05
   5.730944e+05   3.034559e+05
   7.011050e+04   7.363290e+05
  -8.905060e+05   9.000165e+05
  -1.485064e+06   3.197362e+05
  -1.080573e+06  -7.712417e+05
   2.692071e+05  -1.517139e+06
   1.775337e+06  -1.072391e+06
   2.278122e+06   5.376792e+05
   1.120698e+06   2.143986e+06
  -1.036439e+06   2.366693e+06
  -2.566052e+06   1.012742e+06
  -2.385445e+06  -6.823851e+05
  -9.954584e+05  -1.383227e+06
   2.055051e+05  -1.009000e+06
   4.514411e+05  -5.497501e+05
   1.667108e+05  -7.421270e+05
   1.651685e+05  -1.268994e+06
   6.926235e+05  -1.253600e+06
   1.290717e+06  -2.819364e+05
   1.312713e+06   1.127614e+06
   5.084861e+05   1.929530e+06
  -6.707267e+05   1.435154e+06
  -1.304417e+06  -2.653410e+04
  -8.033017e+05  -1.298236e+06
   3.959559e+05  -1.401729e+06
   1.151929e+06  -4.254318e+05
   8.059746e+05   6.634161e+05
  -1.045377e+05   1.055543e+06
  -5.098286e+05   7.916391e+05
  -7.821608e+04   4.426266e+05
   4.176924e+05   3.600286e+05
   4.380721e+04   3.924404e+05
  -1.148157e+06   1.929627e+05
  -2.051465e+06  -3.725044e+05
  -1.609753e+06  -1.069547e+06
   3.854230e+04  -1.428936e+06
   1.594413e+06  -1.107252e+06
   1.847024e+06  -2.599292e+05
   8.481157e+05   4.794101e+05
  -2.579084e+05   5.509725e+05
  -5.089818e+05   4.034558e+04
  -1.159615e+04  -3.988816e+05
   4.660796e+05  -2.404348e+05
   4.729305e+05   3.574983e+05
   2.064649e+05   7.404753e+05
   5.653762e+04   4.839635e+05
   1.479487e+05  -1.124581e+05
   3.168131e+05  -3.103524e+05
   2.787887e+05   2.391883e+05
  -1.836273e+05   1.000982e+06
  -9.326345e+05   1.049725e+06
  -1.342991e+06   1.299377e+05
  -8.043601e+05  -9.404508e+05
   4.429658e+05  -1.114219e+06
   1.255285e+06  -2.858914e+05
   7.216065e+05   6.056361e+05
  -7.197586e+05   6.450461e+05
  -1.618990e+06  -1.234063e+05
  -1.033932e+06  -8.976944e+05
   4.916109e+05  -1.016138e+06
   1.542803e+06  -4.837942e+05
   1.271226e+06   2.087527e+05
   1.356259e+05   5.327581e+05
  -6.634386e+05   2.695032e+05
  -3.748198e+05  -2.974130e+05
   6.145001e+05  -4.999734e+05
   1.189956e+06   1.284198e+05
   6.275350e+05   1.217180e+06
  -6.617420e+05   1.696400e+06
  -1.533500e+06   8.435401e+05
  -1.251941e+06  -8.067452e+05
  -1.574597e+05  -1.826707e+06
   7.861511e+05  -1.306812e+06
   9.417496e+05   1.891531e+05
   4.227513e+05   1.221644e+06
  -2.316069e+05   9.922707e+05
  -5.690591e+05   8.008302e+04
  -4.756520e+05  -4.007066e+05
  -1.753012e+05  -1.513243e+05
  -4.750582e+04   1.010909e+05
  -2.595553e+05  -2.925583e+05
  -4.873522e+05  -9.875768e+05
  -1.825110e+05  -1.106456e+06
   7.176158e+05  -3.907877e+05
   1.488461e+06   5.092238e+05
   1.293663e+06   8.844586e+05
   1.733401e+05   7.110861e+05
  -8.879443e+05   4.006119e+05
  -1.009235e+06   1.645896e+05
  -3.571192e+05  -5.295568e+04
   1.572259e+05  -2.231839e+05
   2.996747e+04  -2.176038e+05
  -2.780671e+05  -1.133262e+05
  -4.293151e+04  -1.356534e+05
   6.894948e+05  -2.151697e+05
   1.059405e+06   3.909201e+04
   4.058917e+05   7.049026e+05
  -8.903330e+05   1.165286e+06
  -1.731617e+06   7.228548e+05
  -1.406172e+06  -4.715754e+05
  -2.424031e+05  -1.433871e+06
   8.054562e+05  -1.376219e+06
   1.074633e+06  -5.156009e+05
   6.595374e+05   2.567545e+05
   1.234796e+05   3.650020e+05
  -7.949108e+04   5.676893e+04
   8.203150e+04  -2.312492e+04
   3.023992e+05   3.788002e+05
   2.366721e+05   8.274035e+05
  -1.979358e+05   6.828369e+05
  -6.881398e+05  -1.438567e+05
  -7.226044e+05  -9.847121e+05
  -8.755977e+04  -1.044589e+06
   7.705263e+05  -2.267549e+05
   1.030013e+06   7.579223e+05
   3.267935e+05   1.110328e+06
  -7.362585e+05   6.673799e+05
  -1.129354e+06  -9.906883e+04
  -5.253013e+05  -6.260139e+05
   3.017339e+05  -6.765403e+05
   3.865181e+05  -3.668934e+05
  -2.554014e+05  -1.959923e+04
  -6.610134e+05   2.481800e+04
  -1.411369e+05  -3.134979e+05
   8.523822e+05  -6.725643e+05
   1.287033e+06  -5.286774e+05
   7.670413e+05   1.886254e+05
  -1.149045e+05   8.779454e+05
  -5.722511e+05   8.581236e+05
  -4.280884e+05   1.550782e+05
  -4.108269e+04  -4.877488e+05
   2.507125e+05  -4.339752e+05
   3.519740e+05   1.605501e+05
   2.457129e+05   5.907039e+05
  -6.049621e+04   4.282719e+05
  -3.945819e+05  -5.454492e+04
  -4.777162e+05  -2.905908e+05
  -2.458613e+05  -1.002661e+05
   3.214329e+04   1.486961e+05
   8.750719e+04   3.948642e+04
   1.567545e+03  -3.575107e+05
   6.528591e+04  -5.480481e+05
   3.250932e+05  -2.075895e+05
   4.500438e+05   3.940300e+05
   1.405001e+05   6.560151e+05
  -4.205459e+05   3.085796e+05
  -6.651971e+05  -2.963250e+05
  -2.442494e+05  -5.866315e+05
   5.206929e+05  -3.618348e+05
   8.915140e+05   9.282033e+04
   4.782889e+05   3.915433e+05
  -3.035839e+05   3.987643e+05
  -6.496635e+05   2.179145e+05
  -2.521263e+05   1.571390e+04
   3.531225e+05  -5.802287e+04
   4.105004e+05   7.599190e+04
  -1.798932e+05   2.915891e+05
  -7.626442e+05   2.578124e+05
