
 $NMID
 id='ANONYMOUS ', fmtdat='(2E16.6)'
 volume=1.0
 tramp=1.0
 $END
  -5.841868e+07  -1.077975e+06
  -3.418868e+07  -3.719503e+07
   8.839040e+06  -3.942746e+07
   2.895042e+07  -1.418416e+07
   1.665503e+07   7.998985e+06
  -3.826643e+06   9.519493e+06
  -1.002033e+07  -1.748809e+06
  -2.397771e+06  -1.015456e+07
   6.713294e+06  -9.219542e+06
   9.942951e+06  -1.652128e+06
   7.037861e+06   6.482777e+06
   7.024843e+05   8.767814e+06
  -4.118979e+06   2.799606e+06
  -2.586742e+06  -5.453685e+06
   3.996652e+06  -6.462623e+06
   8.030790e+06   1.638667e+06
   4.293665e+06   1.059164e+07
  -4.178735e+06   1.203270e+07
  -1.054304e+07   5.903611e+06
  -1.117417e+07  -2.263267e+06
  -6.833602e+06  -7.884605e+06
  -6.107956e+05  -9.120680e+06
   3.293053e+06  -6.332454e+06
   2.255555e+06  -2.619114e+06
  -9.722305e+05  -1.916835e+06
  -3.365178e+05  -4.080978e+06
   5.368747e+06  -4.476668e+06
   9.777195e+06  -5.352257e+05
   7.199211e+06   4.240347e+06
   3.526882e+05   5.235459e+06
  -3.692084e+06   2.741038e+06
  -2.579131e+06   1.859974e+05
   3.570196e+05  -8.436059e+05
   2.066183e+06  -5.811880e+05
   2.214501e+06   1.252205e+06
   8.364066e+05   3.903511e+06
  -1.834406e+06   4.000351e+06
  -3.470140e+06  -4.465918e+04
  -1.861260e+06  -3.812944e+06
   8.620251e+05  -2.156420e+06
   4.580758e+05   2.364070e+06
  -2.479484e+06   2.251230e+06
  -2.401496e+06  -3.355195e+06
   2.752469e+06  -6.253941e+06
   7.342636e+06  -8.360727e+05
   5.180487e+06   7.338379e+06
  -2.213654e+06   8.805060e+06
  -7.720670e+06   2.355828e+06
  -6.967053e+06  -4.675354e+06
  -1.685571e+06  -6.137032e+06
   3.579962e+06  -2.616803e+06
   5.222456e+06   1.702486e+06
   2.292780e+06   3.595321e+06
  -2.570483e+06   2.155114e+06
  -4.609191e+06  -1.081563e+06
  -1.901878e+06  -2.852547e+06
   1.804623e+06  -1.365708e+06
   1.707408e+06   1.079936e+06
  -1.446763e+06   8.258751e+05
  -2.463439e+06  -1.999278e+06
   8.777281e+05  -3.603442e+06
   4.942850e+06  -1.804846e+06
   5.426019e+06   1.611201e+06
   2.254620e+06   4.178124e+06
  -1.894655e+06   5.357593e+06
  -5.084033e+06   4.894955e+06
  -6.310812e+06   1.757339e+06
  -4.693751e+06  -3.239102e+06
  -9.199798e+05  -6.285242e+06
   2.006972e+06  -4.770695e+06
   1.841805e+06  -1.087632e+06
   6.545379e+04   3.757136e+05
  -2.032559e+05  -9.883872e+05
   1.507295e+06  -1.903224e+06
   2.825684e+06  -3.647864e+05
   2.094767e+06   1.844596e+06
   1.123793e+05   2.114193e+06
  -1.472319e+06   2.375458e+05
  -1.644994e+06  -2.018626e+06
  -1.497094e+04  -2.923762e+06
   2.785488e+06  -1.693441e+06
   4.558648e+06   1.195481e+06
   3.294837e+06   3.870087e+06
  -7.723633e+04   4.374785e+06
  -2.408267e+06   2.788317e+06
  -2.350076e+06   1.111483e+06
  -1.886381e+06   6.163378e+05
  -2.960137e+06   4.046754e+05
  -4.348677e+06  -8.423064e+05
  -3.452781e+06  -2.824118e+06
  -7.878963e+04  -4.128544e+06
   3.232666e+06  -3.873391e+06
   4.175132e+06  -2.124249e+06
   2.678131e+06   3.919724e+05
   3.213756e+05   2.233171e+06
  -1.077343e+06   1.962803e+06
  -5.746363e+05  -2.164751e+04
   1.086531e+06  -1.314935e+06
   1.930822e+06  -3.847292e+05
   9.384948e+05   1.232775e+06
  -5.093231e+05   1.112457e+06
  -3.857851e+05  -3.950942e+05
   1.124080e+06  -6.156705e+05
   1.820124e+06   1.447151e+06
   4.694139e+05   3.568036e+06
  -1.782925e+06   3.303712e+06
  -3.184117e+06   9.089455e+05
  -3.198941e+06  -1.564843e+06
  -2.146954e+06  -2.748689e+06
  -4.027378e+05  -2.560164e+06
   1.236591e+06  -1.448352e+06
   1.570616e+06  -2.285640e+05
   4.927192e+05   5.106793e+04
  -3.482468e+05  -7.595764e+05
   4.501998e+05  -1.354661e+06
   1.953354e+06  -5.539998e+05
   2.039420e+06   9.486108e+05
   3.480003e+05   1.447626e+06
  -1.190693e+06   5.464993e+05
  -8.589703e+05  -4.685118e+05
   8.709567e+05  -4.637736e+05
   2.135672e+06   3.980860e+05
   1.661544e+06   1.372653e+06
  -3.026079e+05   1.919785e+06
  -2.321188e+06   1.592424e+06
  -2.773799e+06   2.290418e+05
  -1.205575e+06  -1.301335e+06
   9.572874e+05  -1.520200e+06
   1.600120e+06  -1.727667e+05
   2.027753e+05   1.107005e+06
  -1.539415e+06   7.260786e+05
  -1.709140e+06  -8.224532e+05
  -2.858859e+05  -1.662063e+06
   1.129994e+06  -9.306729e+05
   1.242707e+06   3.672553e+05
   2.052951e+05   7.968776e+05
  -8.190472e+05   3.579425e+04
  -7.347225e+05  -1.074271e+06
   5.881254e+05  -1.431389e+06
   2.022061e+06  -5.336034e+05
   2.039308e+06   1.074034e+06
   3.597133e+05   2.094033e+06
  -1.479351e+06   1.630392e+06
  -1.739469e+06   1.749144e+05
  -4.779150e+05  -8.843788e+05
   6.786080e+05  -7.880026e+05
   6.188299e+05  -7.256318e+04
  -1.349549e+05   3.255388e+05
  -4.647486e+05   1.726246e+05
  -6.991669e+04  -5.058015e+04
   4.694861e+05   1.333390e+05
   4.887969e+05   7.164204e+05
  -2.510571e+05   1.190986e+06
  -1.407866e+06   8.715260e+05
  -2.083486e+06  -4.473041e+05
  -1.447949e+06  -1.971068e+06
   2.450084e+05  -2.418272e+06
   1.628588e+06  -1.371410e+06
   1.663388e+06   1.635904e+05
   8.128910e+05   8.797434e+05
   3.060807e+05   5.972391e+05
   5.111073e+05   1.940742e+05
   6.592648e+05   3.404258e+05
   8.365986e+04   7.919418e+05
  -9.005329e+05   8.834679e+05
  -1.445197e+06   2.881279e+05
  -1.016009e+06  -7.260543e+05
   2.826130e+05  -1.425500e+06
   1.732164e+06  -1.030946e+06
   2.232913e+06   5.170049e+05
   1.090425e+06   2.122594e+06
  -1.070990e+06   2.356731e+06
  -2.580223e+06   9.777792e+05
  -2.328460e+06  -7.199477e+05
  -8.966631e+05  -1.348796e+06
   2.369371e+05  -9.039995e+05
   3.647186e+05  -4.755663e+05
   3.940881e+04  -7.652741e+05
   9.919535e+04  -1.342135e+06
   6.985218e+05  -1.305122e+06
   1.316903e+06  -3.098577e+05
   1.336530e+06   1.095569e+06
   5.414181e+05   1.903540e+06
  -6.346094e+05   1.434093e+06
  -1.284193e+06  -2.295594e+04
  -7.881769e+05  -1.309175e+06
   4.320497e+05  -1.393546e+06
   1.193684e+06  -3.601650e+05
   8.017964e+05   7.527610e+05
  -1.699635e+05   1.096732e+06
  -5.846575e+05   7.667091e+05
  -1.036833e+05   3.978699e+05
   4.393428e+05   3.333379e+05
   6.144119e+04   3.817873e+05
  -1.166487e+06   1.906414e+05
  -2.082204e+06  -3.667445e+05
  -1.607771e+06  -1.070768e+06
   8.101887e+04  -1.453095e+06
   1.635694e+06  -1.130089e+06
   1.846828e+06  -2.382074e+05
   8.161868e+05   5.365987e+05
  -2.832248e+05   5.812298e+05
  -5.202635e+05   1.326864e+04
  -3.419172e+04  -4.440173e+05
   4.359856e+05  -2.625555e+05
   4.838530e+05   3.469691e+05
   2.747544e+05   7.228579e+05
   1.168975e+05   4.826336e+05
   1.331040e+05  -7.581414e+04
   2.594004e+05  -2.703617e+05
   2.683230e+05   2.378404e+05
  -1.362605e+05   9.798774e+05
  -9.130662e+05   1.065414e+06
  -1.401167e+06   1.777977e+05
  -8.788169e+05  -9.270534e+05
   4.290198e+05  -1.164650e+06
   1.285942e+06  -3.526389e+05
   7.364888e+05   5.716788e+05
  -7.163709e+05   6.364818e+05
  -1.575535e+06  -1.263084e+05
  -9.591948e+05  -8.777841e+05
   5.206744e+05  -9.579163e+05
   1.492838e+06  -4.234749e+05
   1.203188e+06   2.225200e+05
   1.144530e+05   5.072163e+05
  -6.552869e+05   2.481635e+05
  -3.914680e+05  -3.091985e+05
   5.771958e+05  -5.368321e+05
   1.191847e+06   6.466529e+04
   6.978873e+05   1.178992e+06
  -5.657631e+05   1.721546e+06
  -1.477312e+06   9.062192e+05
  -1.258733e+06  -7.521634e+05
  -2.000179e+05  -1.788570e+06
   7.459142e+05  -1.273706e+06
   9.163292e+05   2.037853e+05
   4.004062e+05   1.196476e+06
  -2.545300e+05   9.479251e+05
  -5.710492e+05   6.643114e+04
  -4.421657e+05  -3.728711e+05
  -1.383664e+05  -1.275268e+05
  -5.818409e+04   8.603593e+04
  -3.134505e+05  -3.191190e+05
  -5.181776e+05  -9.794528e+05
  -1.542054e+05  -1.071245e+06
   7.532113e+05  -3.814889e+05
   1.468912e+06   4.712828e+05
   1.246731e+06   8.407115e+05
   1.773157e+05   7.064276e+05
  -8.290922e+05   4.227040e+05
  -9.747200e+05   1.689044e+05
  -3.827573e+05  -7.387057e+04
   1.358164e+05  -2.297795e+05
   6.807726e+04  -1.848763e+05
  -2.313087e+05  -7.169719e+04
  -6.516880e+04  -1.328794e+05
   6.257132e+05  -2.549015e+05
   1.056031e+06   8.308922e+01
   4.890281e+05   7.063088e+05
  -8.096543e+05   1.209565e+06
  -1.733196e+06   7.871785e+05
  -1.466852e+06  -4.132581e+05
  -2.953362e+05  -1.405726e+06
   7.784652e+05  -1.394534e+06
   1.055883e+06  -5.695575e+05
   6.553933e+05   2.089553e+05
   1.522688e+05   3.619012e+05
  -3.901096e+04   9.357939e+04
   9.140555e+04   1.083446e+04
   2.830882e+05   3.785469e+05
   2.345253e+05   8.095772e+05
  -1.702257e+05   6.922215e+05
  -6.795768e+05  -9.035311e+04
  -7.738224e+05  -9.273364e+05
  -1.662364e+05  -1.044180e+06
   7.342127e+05  -2.948444e+05
   1.060808e+06   6.819145e+05
   3.834592e+05   1.096909e+06
  -7.081342e+05   7.159207e+05
  -1.145285e+06  -5.774722e+04
  -5.584168e+05  -6.414634e+05
   2.901346e+05  -7.196363e+05
   4.126967e+05  -3.776333e+05
  -2.133294e+05   1.017385e+04
  -6.431414e+05   5.080504e+04
  -1.615052e+05  -3.168221e+05
   8.245567e+05  -6.820422e+05
   1.290859e+06  -5.196344e+05
   8.012907e+05   2.060031e+05
  -8.889959e+04   8.892324e+05
  -5.830020e+05   8.762667e+05
  -4.663851e+05   1.894864e+05
  -7.911239e+04  -4.672890e+05
   2.315755e+05  -4.606032e+05
   3.559194e+05   1.108998e+05
   2.657263e+05   5.771844e+05
  -4.286347e+04   4.619223e+05
  -3.961604e+05  -2.646144e+04
  -4.902604e+05  -3.030190e+05
  -2.429413e+05  -1.164029e+05
   5.083525e+04   1.791492e+05
   7.913124e+04   9.890328e+04
  -6.536524e+04  -3.370536e+05
  -2.020877e+04  -5.975873e+05
   3.019813e+05  -2.883477e+05
   5.144872e+05   3.389513e+05
   2.269912e+05   6.492998e+05
  -3.906185e+05   3.395276e+05
  -6.965909e+05  -2.522610e+05
  -2.808728e+05  -5.609837e+05
   5.174461e+05  -3.772308e+05
   9.107704e+05   5.202322e+04
   4.965201e+05   3.744641e+05
  -2.932133e+05   4.326419e+05
  -6.525027e+05   2.687702e+05
  -2.804449e+05   2.465536e+04
   3.099185e+05  -1.053011e+05
   3.982600e+05   1.733912e+04
  -1.308480e+05   2.731481e+05
  -6.903771e+05   2.876809e+05
