
 $NMID
 id='ANONYMOUS ', fmtdat='(2E16.6)'
 volume=1.0
 tramp=1.0
 $END
  -4.084955e+07  -5.489821e+05
  -2.504557e+07  -2.356394e+07
   4.016878e+06  -2.690724e+07
   1.926871e+07  -1.250689e+07
   1.274573e+07   2.929368e+06
  -1.370357e+06   6.885031e+06
  -7.443369e+06   5.775820e+05
  -3.345644e+06  -6.873208e+06
   3.649133e+06  -8.197800e+06
   7.192762e+06  -2.582752e+06
   5.564458e+06   4.815262e+06
   6.356100e+05   7.047147e+06
  -3.294290e+06   1.904949e+06
  -2.347006e+06  -5.033047e+06
   2.618805e+06  -5.950116e+06
   6.069959e+06   4.272230e+05
   3.785630e+06   7.639183e+06
  -2.520112e+06   9.077212e+06
  -7.549038e+06   4.400910e+06
  -7.888157e+06  -1.886263e+06
  -4.263310e+06  -5.631043e+06
  -1.809591e+04  -5.711283e+06
   1.557936e+06  -3.671956e+06
  -1.149082e+05  -2.237790e+06
  -1.852032e+06  -2.977559e+06
   2.087028e+05  -4.403058e+06
   5.442073e+06  -3.478976e+06
   8.447642e+06   3.077683e+05
   5.449708e+06   3.812063e+06
  -6.930978e+05   4.011345e+06
  -3.899440e+06   1.457255e+06
  -2.028952e+06  -1.034902e+06
   1.641575e+06  -1.623755e+06
   3.253092e+06  -2.209972e+05
   2.122196e+06   2.282527e+06
  -1.570928e+05   3.979539e+06
  -1.872466e+06   2.751156e+06
  -1.940986e+06  -8.309470e+05
  -4.769834e+05  -2.802547e+06
   7.060109e+05  -5.383805e+05
  -2.070190e+05   2.890242e+06
  -2.220127e+06   2.253433e+06
  -2.122889e+06  -2.250182e+06
   1.155995e+06  -4.566135e+06
   4.373617e+06  -9.370607e+05
   3.569806e+06   4.786161e+06
  -1.111634e+06   6.090691e+06
  -5.520086e+06   1.789400e+06
  -5.869588e+06  -3.417229e+06
  -2.052836e+06  -4.992101e+06
   2.754184e+06  -2.675704e+06
   4.781158e+06   7.936452e+05
   2.582323e+06   2.686654e+06
  -1.570133e+06   1.924054e+06
  -3.569306e+06  -4.373716e+05
  -1.734082e+06  -1.935382e+06
   1.248457e+06  -1.096671e+06
   1.663773e+06   7.519065e+05
  -5.499713e+05   1.085809e+06
  -1.969961e+06  -5.339362e+05
  -3.298250e+05  -2.030047e+06
   2.723369e+06  -1.605668e+06
   3.922381e+06   4.338430e+05
   2.004623e+06   2.747711e+06
  -1.618015e+06   4.250831e+06
  -4.617242e+06   3.929052e+06
  -5.319200e+06   1.124830e+06
  -3.477857e+06  -2.927078e+06
  -5.517216e+05  -5.240814e+06
   1.266419e+06  -4.188033e+06
   1.150457e+06  -1.618484e+06
   4.650113e+05  -5.024904e+05
   8.941942e+05  -1.125707e+06
   2.234056e+06  -1.198729e+06
   2.800725e+06   5.261473e+05
   1.645935e+06   2.449340e+06
  -4.508196e+05   2.334715e+06
  -1.951220e+06   8.870821e+04
  -1.771893e+06  -2.306651e+06
   1.640715e+05  -2.888089e+06
   2.673407e+06  -1.244948e+06
   3.767486e+06   1.421043e+06
   2.385155e+06   3.263662e+06
  -2.175998e+05   3.232830e+06
  -1.724228e+06   1.959443e+06
  -1.562492e+06   9.604631e+05
  -1.440318e+06   8.325138e+05
  -2.677324e+06   6.726231e+05
  -4.067890e+06  -5.397079e+05
  -3.338507e+06  -2.520478e+06
  -1.823584e+05  -3.951651e+06
   3.141113e+06  -3.753000e+06
   4.159729e+06  -1.866250e+06
   2.507477e+06   6.897955e+05
  -3.858060e+04   2.260975e+06
  -1.302116e+06   1.737408e+06
  -5.167302e+05  -1.409925e+05
   1.140420e+06  -1.217931e+06
   1.767478e+06  -3.455857e+05
   7.450275e+05   1.117622e+06
  -5.969923e+05   1.091249e+06
  -5.956285e+05  -3.350506e+05
   7.302690e+05  -9.501083e+05
   1.761273e+06   5.797714e+05
   1.186161e+06   2.883750e+06
  -7.371961e+05   3.545496e+06
  -2.713042e+06   1.811990e+06
  -3.533256e+06  -9.167825e+05
  -2.677865e+06  -2.731245e+06
  -5.992372e+05  -2.752183e+06
   1.287620e+06  -1.461084e+06
   1.598486e+06  -1.625623e+05
   4.810514e+05   4.450757e+04
  -3.587338e+05  -7.237978e+05
   3.307170e+05  -1.228718e+06
   1.713800e+06  -5.547226e+05
   1.909820e+06   7.307061e+05
   4.430120e+05   1.274321e+06
  -1.101261e+06   6.014583e+05
  -9.749320e+05  -4.195470e+05
   7.381089e+05  -6.855903e+05
   2.267167e+06   7.392772e+04
   1.980858e+06   1.295818e+06
  -8.468455e+04   2.101081e+06
  -2.266098e+06   1.772682e+06
  -2.734156e+06   3.261262e+05
  -1.175575e+06  -1.165438e+06
   8.463708e+05  -1.361755e+06
   1.398637e+06  -1.594608e+05
   1.314862e+05   9.893681e+05
  -1.451117e+06   6.993960e+05
  -1.687810e+06  -6.947540e+05
  -4.469717e+05  -1.591934e+06
   9.633517e+05  -1.066981e+06
   1.256400e+06   1.596743e+05
   3.435094e+05   7.120117e+05
  -7.098357e+05   7.694201e+04
  -6.939744e+05  -1.006327e+06
   5.859528e+05  -1.372540e+06
   1.969147e+06  -4.973262e+05
   1.969534e+06   1.038398e+06
   3.803729e+05   2.004284e+06
  -1.355791e+06   1.605488e+06
  -1.664048e+06   2.557502e+05
  -5.391691e+05  -8.199074e+05
   6.132265e+05  -8.170022e+05
   6.834221e+05  -7.437660e+04
  -5.414633e+04   4.655568e+05
  -5.658711e+05   3.302112e+05
  -3.085799e+05  -8.575648e+04
   3.344123e+05  -8.455585e+04
   5.597628e+05   5.197106e+05
  -1.023544e+05   1.133715e+06
  -1.309594e+06   9.071576e+05
  -2.035106e+06  -3.755985e+05
  -1.434983e+06  -1.885920e+06
   2.021037e+05  -2.396698e+06
   1.587235e+06  -1.477931e+06
   1.740265e+06   4.486695e+04
   9.790887e+05   9.486574e+05
   3.641976e+05   8.325326e+05
   3.712709e+05   3.391604e+05
   4.900753e+05   2.633047e+05
   7.173675e+04   6.672360e+05
  -8.118048e+05   9.081201e+05
  -1.438521e+06   3.951380e+05
  -1.126081e+06  -7.200448e+05
   1.717213e+05  -1.533820e+06
   1.690640e+06  -1.137592e+06
   2.249568e+06   4.386297e+05
   1.183913e+06   2.030707e+06
  -8.830046e+05   2.314294e+06
  -2.413347e+06   1.090387e+06
  -2.353261e+06  -5.288073e+05
  -1.089066e+06  -1.297237e+06
   1.133830e+05  -1.048713e+06
   4.612672e+05  -6.204006e+05
   2.330428e+05  -7.323890e+05
   1.786494e+05  -1.187860e+06
   6.283755e+05  -1.191590e+06
   1.218578e+06  -2.914162e+05
   1.293745e+06   1.066355e+06
   5.410261e+05   1.864800e+06
  -6.196984e+05   1.414330e+06
  -1.271926e+06   2.391769e+04
  -8.288916e+05  -1.208251e+06
   3.012900e+05  -1.360749e+06
   1.046818e+06  -4.900061e+05
   7.821303e+05   5.416592e+05
  -2.306829e+04   9.737280e+05
  -4.004717e+05   7.815510e+05
  -3.008647e+04   4.559838e+05
   4.049638e+05   3.556202e+05
   4.597092e+04   3.876454e+05
  -1.083167e+06   2.251430e+05
  -1.965643e+06  -2.945531e+05
  -1.588969e+06  -9.688381e+05
  -4.103911e+04  -1.348719e+06
   1.468270e+06  -1.097113e+06
   1.762738e+06  -3.333884e+05
   8.440068e+05   3.807500e+05
  -2.161429e+05   5.112078e+05
  -4.735354e+05   7.490877e+04
   1.329916e+03  -3.547127e+05
   4.667243e+05  -2.385142e+05
   4.620727e+05   3.368907e+05
   1.789626e+05   7.332486e+05
   2.753743e+04   4.782399e+05
   1.406514e+05  -1.441478e+05
   3.267661e+05  -3.531834e+05
   2.852632e+05   2.180816e+05
  -1.699242e+05   9.960178e+05
  -8.767122e+05   1.037098e+06
  -1.255110e+06   1.256755e+05
  -7.561733e+05  -9.021800e+05
   4.072073e+05  -1.053932e+06
   1.189565e+06  -2.644273e+05
   7.129152e+05   5.847897e+05
  -6.693737e+05   6.537994e+05
  -1.593339e+06  -4.761094e+04
  -1.087256e+06  -8.234228e+05
   4.009202e+05  -1.031836e+06
   1.489690e+06  -5.778097e+05
   1.277845e+06   1.286537e+05
   1.714322e+05   5.216880e+05
  -6.297146e+05   3.011624e+05
  -3.565414e+05  -2.676161e+05
   6.090130e+05  -4.847406e+05
   1.162706e+06   1.277881e+05
   6.046928e+05   1.192435e+06
  -6.516298e+05   1.659274e+06
  -1.500343e+06   8.336507e+05
  -1.241061e+06  -7.724398e+05
  -1.951796e+05  -1.789405e+06
   7.308695e+05  -1.319484e+06
   9.283903e+05   1.309303e+05
   4.736405e+05   1.173399e+06
  -1.594782e+05   9.908496e+05
  -5.400166e+05   1.076231e+05
  -5.034763e+05  -3.811599e+05
  -2.070329e+05  -1.485139e+05
  -3.073717e+04   1.076822e+05
  -2.144388e+05  -2.645474e+05
  -4.838552e+05  -9.453883e+05
  -2.448401e+05  -1.077532e+06
   6.476595e+05  -4.009342e+05
   1.473581e+06   4.593176e+05
   1.321487e+06   8.254347e+05
   1.908583e+05   6.820401e+05
  -8.881746e+05   4.147341e+05
  -9.914407e+05   1.998159e+05
  -3.217128e+05  -2.818499e+04
   1.605462e+05  -2.203509e+05
  -1.476521e+04  -2.259560e+05
  -3.158562e+05  -1.190661e+05
  -3.053473e+04  -1.360710e+05
   7.117350e+05  -2.172591e+05
   1.032024e+06   2.706316e+04
   3.542750e+05   6.811461e+05
  -8.838911e+05   1.138985e+06
  -1.652894e+06   7.105259e+05
  -1.338169e+06  -4.593161e+05
  -2.526809e+05  -1.403388e+06
   7.487121e+05  -1.345929e+06
   1.041113e+06  -4.996135e+05
   6.578748e+05   2.573612e+05
   1.115773e+05   3.555087e+05
  -1.127533e+05   3.945755e+04
   6.340742e+04  -4.831127e+04
   3.191759e+05   3.491830e+05
   2.635738e+05   8.001736e+05
  -1.882319e+05   6.635666e+05
  -6.858574e+05  -1.510205e+05
  -7.061632e+05  -9.751981e+05
  -6.405292e+04  -1.019902e+06
   7.753770e+05  -2.039638e+05
   1.012915e+06   7.549112e+05
   3.159200e+05   1.078997e+06
  -7.157554e+05   6.392868e+05
  -1.087638e+06  -8.828152e+04
  -5.002338e+05  -5.790996e+05
   2.838852e+05  -6.326193e+05
   3.415201e+05  -3.532784e+05
  -2.842628e+05  -2.209894e+04
  -6.541044e+05   3.282995e+04
  -1.313705e+05  -2.985504e+05
   8.182540e+05  -6.773955e+05
   1.213996e+06  -5.613972e+05
   7.154478e+05   1.483536e+05
  -1.003716e+05   8.463085e+05
  -5.153328e+05   8.305176e+05
  -3.855327e+05   1.306431e+05
  -3.375609e+04  -4.914745e+05
   2.455333e+05  -4.112252e+05
   3.527554e+05   1.792952e+05
   2.461666e+05   5.738435e+05
  -6.325351e+04   3.932509e+05
  -3.867798e+05  -5.927015e+04
  -4.580598e+05  -2.557663e+05
  -2.386743e+05  -7.485812e+04
   1.561009e+04   1.235453e+05
   7.838659e+04  -1.115467e+04
   3.346727e+04  -3.743181e+05
   1.174259e+05  -5.122275e+05
   3.405829e+05  -1.568967e+05
   4.119952e+05   4.180710e+05
   9.649340e+04   6.505122e+05
  -4.224870e+05   2.960378e+05
  -6.374431e+05  -3.005414e+05
  -2.350638e+05  -5.827298e+05
   4.935832e+05  -3.564363e+05
   8.560114e+05   9.134916e+04
   4.647684e+05   3.760176e+05
  -2.928852e+05   3.719273e+05
  -6.264601e+05   1.949592e+05
  -2.229661e+05   1.124620e+04
   3.803862e+05  -4.340559e+04
   4.200414e+05   9.889720e+04
  -1.946537e+05   3.118722e+05
  -7.846466e+05   2.700416e+05
