
 $NMID
 id='ANONYMOUS ', fmtdat='(2E16.6)'
 volume=1.0
 tramp=1.0
 $END
   1.439500e+07  -8.512493e+05
   1.019934e+07   5.932219e+06
   7.943460e+05   9.082336e+06
  -5.799942e+06   6.765258e+06
  -5.392645e+06   1.230039e+06
  -6.456845e+05  -2.633349e+06
   2.942581e+06  -1.709297e+06
   2.576238e+06   2.185178e+06
  -3.338393e+05   4.278761e+06
  -2.663136e+06   2.131996e+06
  -2.544787e+06  -1.786374e+06
  -4.832190e+05  -3.152280e+06
   1.425118e+06  -7.037366e+05
   1.330700e+06   2.631206e+06
  -6.690896e+05   3.220194e+06
  -2.490450e+06   5.154956e+05
  -2.083117e+06  -2.787140e+06
   3.947944e+05  -3.751179e+06
   2.698551e+06  -1.918498e+06
   2.875121e+06   7.192902e+05
   1.240496e+06   1.975367e+06
  -1.690292e+05   1.511929e+06
   9.266162e+04   7.693475e+05
   1.348815e+06   1.101934e+06
   1.579659e+06   2.238566e+06
  -3.197268e+05   2.707438e+06
  -3.101157e+06   1.591796e+06
  -4.177222e+06  -4.425128e+05
  -2.307117e+06  -1.855390e+06
   8.569431e+05  -1.681204e+06
   2.318186e+06  -2.474982e+05
   8.964756e+05   1.189148e+06
  -1.587415e+06   1.369039e+06
  -2.488731e+06  -1.539423e+03
  -1.217381e+06  -1.811794e+06
   5.288487e+05  -2.334411e+06
   1.039233e+06  -9.733613e+05
   3.355729e+05   8.423846e+05
  -3.857023e+05   1.072125e+06
  -3.071166e+05  -5.190990e+05
   4.115784e+05  -1.941575e+06
   1.100512e+06  -1.345549e+06
   1.129087e+06   6.766484e+05
   2.655355e+05   1.781249e+06
  -9.535801e+05   6.932376e+05
  -1.323444e+06  -1.348499e+06
  -6.677541e+04  -2.120957e+06
   1.995750e+06  -8.548746e+05
   2.883842e+06   1.192325e+06
   1.479143e+06   2.241553e+06
  -1.103342e+06   1.632037e+06
  -2.545815e+06   1.142442e+05
  -1.699022e+06  -1.024406e+06
   3.414975e+05  -1.025063e+06
   1.526112e+06  -1.612369e+05
   9.564493e+05   6.006564e+05
  -4.048723e+05   5.192672e+05
  -9.531577e+05  -2.281115e+05
  -1.726552e+05  -7.763680e+05
   8.951044e+05  -4.992006e+05
   8.685555e+05   3.470580e+05
  -3.786804e+05   8.855715e+05
  -1.491212e+06   4.490723e+05
  -1.086589e+06  -7.971536e+05
   7.000405e+05  -1.907418e+06
   2.337544e+06  -1.855435e+06
   2.524979e+06  -4.283227e+05
   1.430560e+06   1.450637e+06
   2.352705e+05   2.464467e+06
  -2.574667e+05   2.140138e+06
  -2.734177e+05   1.237599e+06
  -4.722153e+05   7.560794e+05
  -1.067681e+06   7.325998e+05
  -1.640011e+06   3.631147e+05
  -1.607047e+06  -7.129675e+05
  -7.602127e+05  -1.692182e+06
   5.077006e+05  -1.466763e+06
   1.371379e+06  -1.037124e+04
   1.132006e+06   1.444612e+06
  -1.299554e+05   1.648435e+06
  -1.455531e+06   5.375316e+05
  -1.786566e+06  -8.583728e+05
  -9.685147e+05  -1.514024e+06
   1.292181e+05  -1.272324e+06
   5.951137e+05  -7.350682e+05
   4.710253e+05  -5.097278e+05
   5.826720e+05  -6.231683e+05
   1.384042e+06  -5.813475e+05
   2.210871e+06   7.219743e+04
   1.916384e+06   1.228549e+06
   2.379350e+05   2.182660e+06
  -1.688674e+06   2.163070e+06
  -2.352054e+06   1.023750e+06
  -1.368697e+06  -5.020784e+05
   1.651799e+05  -1.316692e+06
   8.318309e+05  -9.091931e+05
   2.696141e+05   1.321659e+05
  -6.603848e+05   6.734958e+05
  -9.259045e+05   2.151000e+05
  -3.514615e+05  -5.678408e+05
   3.670015e+05  -6.294219e+05
   4.589642e+05   1.502478e+05
  -1.978403e+05   7.376307e+05
  -9.991759e+05   1.530152e+05
  -1.117587e+06  -1.285305e+06
  -1.898023e+05  -2.189408e+06
   1.286642e+06  -1.571470e+06
   2.232966e+06   1.221956e+05
   1.875339e+06   1.515045e+06
   5.015461e+05   1.675977e+06
  -7.403282e+05   8.744382e+05
  -9.327588e+05   9.113589e+04
  -2.723573e+05  -1.251138e+04
   2.265862e+05   3.912351e+05
  -1.032766e+05   6.492123e+05
  -8.514588e+05   3.551002e+05
  -1.048347e+06  -2.684959e+05
  -3.312272e+05  -6.348856e+05
   5.755696e+05  -3.971054e+05
   6.300689e+05   1.971423e+05
  -3.439791e+05   5.251837e+05
  -1.378197e+06   1.699454e+05
  -1.334010e+06  -6.693735e+05
  -1.053804e+05  -1.308217e+06
   1.243333e+06  -1.160875e+06
   1.549489e+06  -2.931564e+05
   6.859958e+05   5.771966e+05
  -4.019285e+05   7.195888e+05
  -6.976866e+05   1.140028e+05
  -5.888751e+04  -5.055437e+05
   7.760742e+05  -4.182447e+05
   9.759325e+05   3.000738e+05
   3.737737e+05   8.725673e+05
  -4.472837e+05   7.059078e+05
  -7.349686e+05   4.151183e+04
  -2.845846e+05  -3.591439e+05
   3.502604e+05  -7.962578e+04
   3.981058e+05   5.308691e+05
  -3.098658e+05   7.716163e+05
  -1.097654e+06   3.063288e+05
  -1.119508e+06  -5.410159e+05
  -2.700549e+05  -1.101124e+06
   6.850957e+05  -9.399930e+05
   9.151824e+05  -2.233425e+05
   3.595864e+05   4.280008e+05
  -3.027662e+05   4.982637e+05
  -4.256232e+05   5.741971e+04
  -1.928251e+04  -3.420675e+05
   3.728858e+05  -2.826419e+05
   3.033486e+05   6.282752e+04
  -1.220769e+05   1.691121e+05
  -3.707921e+05  -1.868876e+05
  -4.070218e+04  -6.266550e+05
   6.864146e+05  -5.676617e+05
   1.155820e+06   1.391057e+05
   8.580268e+05   1.014715e+06
  -4.665106e+04   1.374821e+06
  -8.646036e+05   9.393390e+05
  -1.044894e+06   7.034142e+04
  -6.700890e+05  -5.640833e+05
  -2.563172e+05  -5.958044e+05
  -1.475583e+05  -2.635984e+05
  -1.998512e+05  -1.017393e+05
  -4.853664e+04  -3.187410e+05
   4.045132e+05  -5.530118e+05
   8.191182e+05  -3.116788e+05
   7.210523e+05   3.908359e+05
  -1.170320e+04   9.449280e+05
  -9.315226e+05   7.448013e+05
  -1.314716e+06  -1.680126e+05
  -7.715083e+05  -1.099868e+06
   3.653996e+05  -1.330027e+06
   1.283191e+06  -7.354694e+05
   1.380694e+06   1.587136e+05
   7.540328e+05   6.999619e+05
   1.935921e+04   6.826246e+05
  -3.044515e+05   4.420362e+05
  -2.206898e+05   4.092229e+05
  -1.203972e+05   6.078569e+05
  -3.017930e+05   6.405539e+05
  -6.455232e+05   1.828033e+05
  -7.447865e+05  -5.738807e+05
  -3.487066e+05  -1.044229e+06
   3.214263e+05  -8.173821e+05
   7.264520e+05  -6.339108e+04
   5.231687e+05   6.277297e+05
  -7.859955e+04   7.737247e+05
  -5.176373e+05   3.711672e+05
  -4.518795e+05  -1.868992e+05
  -8.269696e+04  -4.981545e+05
   1.195692e+05  -4.665922e+05
  -2.997328e+04  -2.939042e+05
  -2.227161e+05  -2.087422e+05
  -2.607178e+04  -2.258322e+05
   5.769969e+05  -1.693407e+05
   1.078818e+06   9.336462e+04
   9.257117e+05   4.741794e+05
   1.139728e+05   7.225970e+05
  -7.376552e+05   6.446664e+05
  -9.660870e+05   2.768964e+05
  -5.088906e+05  -1.216517e+05
   7.949988e+04  -2.627384e+05
   2.474166e+05  -8.472424e+04
  -1.205064e+04   1.582354e+05
  -2.804785e+05   1.344535e+05
  -2.619798e+05  -1.798356e+05
  -6.793603e+04  -4.246876e+05
   2.110778e+04  -2.728322e+05
  -8.242373e+04   1.215108e+05
  -2.167775e+05   2.529708e+05
  -1.775887e+05  -1.102221e+05
   9.613096e+04  -5.862605e+05
   4.663498e+05  -6.005210e+05
   6.452275e+05  -7.007859e+04
   3.900031e+05   4.922898e+05
  -2.025531e+05   5.581900e+05
  -6.305376e+05   1.302238e+05
  -4.104741e+05  -3.299335e+05
   3.486297e+05  -3.994446e+05
   9.292533e+05  -4.509275e+04
   7.101068e+05   4.252657e+05
  -1.485677e+05   6.417283e+05
  -8.462552e+05   4.430636e+05
  -7.784265e+05  -1.740646e+02
  -1.388221e+05  -3.050413e+05
   3.438386e+05  -2.137129e+05
   1.926546e+05   1.255293e+05
  -3.580994e+05   2.643157e+05
  -6.576803e+05  -8.354090e+04
  -3.237512e+05  -6.825129e+05
   3.874884e+05  -9.372474e+05
   8.605845e+05  -4.727435e+05
   7.218437e+05   4.313476e+05
   1.455547e+05   1.028507e+06
  -3.875578e+05   7.992669e+05
  -5.443315e+05  -1.924004e+04
  -3.344530e+05  -6.553560e+05
   2.298556e+04  -5.968918e+05
   2.931547e+05  -9.411102e+04
   3.297052e+05   2.142294e+05
   1.579713e+05   9.249499e+04
   1.279385e+03  -7.400769e+04
   7.738359e+04   1.198104e+05
   2.799119e+05   5.177673e+05
   2.097403e+05   6.198011e+05
  -3.105854e+05   2.542442e+05
  -8.613111e+05  -2.294072e+05
  -8.173516e+05  -4.419288e+05
  -1.306309e+05  -3.769047e+05
   5.347381e+05  -2.526047e+05
   5.765188e+05  -1.509365e+05
   1.543767e+05  -1.392745e+04
  -1.010165e+05   1.253467e+05
   5.610493e+04   1.515139e+05
   2.284038e+05   8.719356e+04
   2.176511e+03   7.950396e+04
  -4.508946e+05   1.196723e+05
  -5.831099e+05  -9.222625e+03
  -1.476703e+05  -3.725649e+05
   5.256850e+05  -6.375313e+05
   8.972310e+05  -4.026784e+05
   7.138141e+05   2.622273e+05
   1.513244e+05   8.030662e+05
  -3.896392e+05   7.657136e+05
  -5.827808e+05   2.722752e+05
  -3.856722e+05  -1.606400e+05
  -5.013400e+04  -1.994331e+05
   1.025849e+05   3.271283e+03
  -2.110119e+04   5.990657e+04
  -2.097381e+05  -1.798054e+05
  -1.829067e+05  -4.512879e+05
   1.047322e+05  -3.713695e+05
   4.016367e+05   1.050925e+05
   3.912521e+05   5.731599e+05
   4.027094e+03   5.741161e+05
  -4.644075e+05   8.568578e+04
  -5.741121e+05  -4.531778e+05
  -1.684464e+05  -6.066042e+05
   4.040158e+05  -3.429672e+05
   5.989433e+05   4.523975e+04
   2.696611e+05   2.915740e+05
  -1.479168e+05   3.251217e+05
  -1.528830e+05   1.977898e+05
   2.013045e+05   2.391882e+04
   3.822782e+05  -2.250938e+04
   6.601192e+04   1.600600e+05
  -4.551436e+05   4.044386e+05
  -6.489670e+05   3.695869e+05
  -3.708999e+05  -4.130128e+04
   4.702193e+04  -4.676834e+05
   2.454746e+05  -4.654010e+05
   1.776521e+05  -5.241680e+04
   5.599938e+03   2.953221e+05
  -1.406925e+05   2.163199e+05
  -2.053054e+05  -1.319930e+05
  -1.431551e+05  -3.242978e+05
   3.924764e+04  -1.922907e+05
   2.193077e+05   4.356722e+04
   2.524941e+05   1.137906e+05
   1.369422e+05   1.681487e+04
   6.853132e+03  -4.197202e+04
  -4.466720e+04   6.525206e+04
  -6.332379e+04   2.358353e+05
  -1.291040e+05   2.532112e+05
  -2.132870e+05   2.882661e+04
  -1.925055e+05  -2.740117e+05
  -6.456905e+02  -3.737725e+05
   2.543341e+05  -1.564446e+05
   3.427529e+05   1.857791e+05
   1.232385e+05   3.426846e+05
  -2.651591e+05   2.045170e+05
  -4.669256e+05  -5.615074e+04
  -2.589427e+05  -2.084080e+05
   1.612970e+05  -1.886889e+05
   3.437764e+05  -8.647958e+04
   9.845729e+04  -3.997458e+03
  -2.550757e+05   3.221703e+02
  -2.554465e+05  -9.111958e+04
   1.392685e+05  -2.037889e+05
   4.961390e+05  -1.620448e+05
