
 $NMID
 id='ANONYMOUS ', fmtdat='(2E16.6)'
 volume=1.0
 tramp=1.0
 $END
  -4.727486e+02  -1.656880e-01
  -4.090062e+02  -1.891104e+02
  -2.286429e+02  -4.130126e+02
   2.732043e+02  -2.909433e+02
   5.542453e+01  -2.935317e+02
   1.022900e+02   8.880498e+01
  -1.058567e+02   1.108356e+01
   8.590639e+01  -1.588051e+02
   1.859747e+02  -1.218313e+02
   1.249171e+02   7.716134e+00
   1.437699e+02  -4.507509e+01
   5.134143e+01   1.956568e+02
  -8.907912e+01  -2.703195e+01
  -2.216308e+01  -1.077037e+02
   1.633964e+01  -3.937154e+01
  -1.418308e+01  -9.153026e+01
   1.029020e+02   5.998529e+01
   1.396049e+01   2.092228e+02
  -1.106208e+02   1.409965e+02
  -1.078420e+02   1.028689e+01
  -6.603719e+01  -8.374351e+01
   1.984778e+01  -8.883652e+01
  -2.512754e+01  -9.366704e+01
  -9.774406e+01  -3.650747e+01
  -9.254517e+01  -1.035907e+02
   2.374716e+01  -1.263794e+01
   6.183825e+01   6.040168e+00
   5.052930e+01   1.398551e+02
  -9.210930e+01   8.764154e+01
  -2.914069e+01  -8.980934e+01
  -1.206644e+02  -6.492128e+01
   2.621840e+01  -8.755621e+01
   7.830627e+01  -8.052363e+01
   1.076345e+02  -1.873570e+01
   3.862120e+01   1.690127e+01
  -1.573822e+01   5.056935e+01
   3.707125e+01   2.030919e+01
   4.952305e+01  -2.783927e+01
   1.011472e+01  -6.365244e+01
  -9.524873e+01  -1.222030e+01
   6.000182e+01   1.473176e+02
  -1.049758e+01   1.815276e+02
  -1.988377e+01  -1.071931e+02
  -3.215424e+01  -9.300422e+01
  -4.363195e+01   3.435292e+01
   7.512903e+00   4.302714e+01
  -3.223388e+01   4.291878e+01
  -5.891806e+01  -3.060897e+01
  -9.881161e+01  -4.365044e+01
  -5.903823e+01  -1.171274e+02
   5.934859e+01  -7.536820e+01
   8.244112e+01  -7.868171e+01
   9.580241e+01   3.324942e+01
  -1.625041e+01   4.919715e+01
  -2.381206e+01  -1.250817e+00
  -7.969930e+01   2.995817e+01
  -2.653768e+01   2.260237e+01
  -9.140793e-02   3.170806e+01
  -5.947218e+01  -2.756907e+01
  -5.233818e+01  -3.430361e+01
  -2.418744e+01   3.072082e+00
   3.842447e+01  -2.507381e+01
   9.740622e+01  -2.632910e+01
   8.840706e+01   3.567939e+01
  -2.657655e+01   7.972475e+01
  -7.026680e+01   9.844022e+01
  -6.990058e+01   4.255666e+01
  -5.416981e+01  -5.952324e+01
  -1.112421e+01  -3.098506e+01
   1.989688e+01  -1.016678e+02
   4.018886e+00  -3.675022e+01
  -6.343399e+00  -3.837187e+01
   2.685923e+01  -3.733422e+01
   4.872397e+01  -9.261269e-02
   7.060360e+01   5.306329e+01
  -1.246387e+01   1.925407e+01
  -6.606953e+00  -4.323857e-01
  -4.504224e+01  -2.576180e+01
  -2.143647e+01  -5.452897e+01
  -4.419755e+00  -5.266645e+01
   1.734061e+01   2.214341e+00
   6.928819e+01   1.024608e+02
   2.716744e+01   2.620897e+01
   1.398110e+01   9.557711e+01
  -4.782751e+01   3.701586e+01
  -1.599483e+01   1.385068e+01
  -5.756375e+01   3.428661e+01
  -4.467918e+01   1.104944e+01
  -7.912914e+01  -2.383467e+00
  -7.375123e+01  -6.885768e+01
  -7.006684e+00  -1.058898e+02
   6.628068e+01  -7.035991e+01
   4.990454e+01  -6.540080e+01
   7.976733e+01   1.959843e+00
   1.221238e+00   5.517170e+01
  -2.842606e+01   4.474117e+01
   2.307250e+01   1.099679e+01
   2.837272e+01  -6.099555e+00
   3.563567e+01   2.132664e+01
  -1.533315e+01   7.421893e+00
  -2.301192e+01  -1.646550e+00
  -5.550828e+00  -8.756099e+00
   1.317028e+01  -1.596715e+01
   3.341886e+01   2.127938e+01
   2.695533e+01   1.469807e+01
  -2.538227e+01   9.461564e+01
  -6.711410e+01   4.127163e+01
  -8.711551e+01   2.254127e+01
  -5.167523e+01  -5.014091e+01
  -2.569464e+01  -5.784381e+01
   2.532787e+01  -4.178984e+01
   3.588658e+01   6.728585e+00
   7.816960e+00   8.507904e+00
  -7.558289e+00  -1.133707e+01
  -1.552518e+01  -1.480029e+01
   2.913118e+01  -1.496532e+01
   1.599107e+01   3.166230e+00
   9.002143e+00   1.852735e+01
  -2.624113e+01  -3.390875e+00
  -6.403340e+00  -3.091543e+01
   3.742322e+01  -5.159999e+00
   1.037954e+02  -2.376383e+00
   9.294501e+01   3.965452e+01
  -2.150274e+00   8.437114e+01
  -4.982320e+01   3.341361e+01
  -8.940298e+01  -1.550664e+01
  -2.515038e+01  -1.547475e+01
   9.662392e-02  -1.715526e+01
   1.180420e+01  -2.482102e+00
  -1.490533e+01   1.075495e+01
  -5.577742e+01   5.700783e+00
  -5.152711e+01  -2.559021e+01
  -1.951287e+01  -4.063025e+01
   1.936276e+01  -3.414768e+01
   3.793109e+01  -2.767919e+00
   1.025933e+01   1.773312e+00
  -2.003944e+01  -7.638127e+00
  -8.798458e+00  -2.517242e+01
   3.000291e+01  -2.858764e+01
   4.161272e+01  -2.439224e+01
   4.381928e+01   5.879999e+01
   1.676856e+01   6.150362e+01
  -5.191627e+01   3.863590e+01
  -2.610488e+01   7.897147e+00
   5.209365e+00  -2.401090e+01
   4.566200e+00  -2.528911e+01
   1.123775e+01  -4.945630e+00
  -4.771457e+00   7.322613e+00
  -9.804273e+00   6.227369e+00
   5.053358e+00  -7.821551e+00
   2.813775e+01   1.295022e+00
   3.504623e+01   3.046187e+01
  -1.547941e+00   5.118703e+01
  -4.229509e+01   3.110416e+01
  -4.598485e+01  -2.537271e+01
  -4.349161e+01  -5.965194e+01
  -1.116783e+00  -6.411273e+01
   1.091134e+01  -3.192928e+01
   2.312711e+01   9.313176e+00
   1.449847e+01   1.725995e+01
   1.087577e+01   8.315953e+00
   9.028109e+00  -1.001940e+01
   2.570211e+01   9.589012e+00
   2.280070e+01   1.068820e+01
  -2.445227e+01   3.191030e+01
  -3.679479e+01   1.924602e+01
  -3.514915e+01  -4.988790e+00
  -6.303935e+00  -3.156597e+01
   5.215500e+01  -1.735395e+01
   4.529305e+01   2.446582e+00
   4.032026e+00   7.005434e+01
  -3.175734e+01   4.946697e+01
  -7.430984e+01   5.223125e+00
  -6.666138e+01  -3.261210e+01
  -2.050278e+01  -3.559816e+01
  -9.741782e-01  -2.637734e+01
   1.717200e+01  -2.000167e+01
   2.742115e+01  -1.519268e+01
   3.326497e+00  -2.151622e+01
   1.473251e+01  -2.839364e+01
   3.984394e+01   1.463263e+01
   1.536159e+01   2.883670e+01
  -1.281298e+01   5.210304e+01
  -3.933334e+01   4.577331e+01
  -4.894779e+01  -2.945762e+01
  -1.617837e+01  -2.593145e+01
  -5.168063e+00  -2.301223e+01
   1.588842e+01  -2.496334e+01
   1.753304e+01   7.139977e+00
   1.385061e+00   1.946590e+01
  -8.068989e+00   9.006408e+00
   5.185192e+00   3.075257e+00
   1.591745e+01  -9.201948e+00
   1.740920e+01   1.960112e+01
  -2.430135e+01   1.849982e+00
  -3.407159e+01  -2.410975e+00
  -3.544001e+01  -7.947229e+00
   2.125666e+00  -2.084836e+01
   4.176619e+01  -1.248274e+01
   4.533502e+01   5.712320e-01
   1.318150e+01   2.270789e+01
  -2.579342e+01   1.391779e+01
  -2.105857e+01  -8.227055e+00
  -9.369591e+00  -1.824969e+01
   9.240903e+00  -2.201535e+01
   2.020678e+01  -7.203044e+00
   1.872832e+01   2.160089e+01
   1.647375e+01   1.358891e+01
   1.537796e+01   4.261119e+00
   1.145847e+01  -3.150469e+00
   1.783483e+01   1.188370e+01
  -8.007490e+00   4.007073e+01
  -4.771306e+01   2.939968e+01
  -5.400536e+01  -1.202092e+01
  -3.243977e+01  -3.309578e+01
   8.500829e+00  -2.817202e+01
   2.046642e+01  -2.355214e+01
   7.057481e+00  -4.736217e+00
  -1.120498e+01   7.313893e-03
  -2.922614e+01  -1.955604e+01
  -1.510323e+01  -2.353531e+01
   2.763822e+01  -2.229694e+01
   6.899722e+01   6.053742e+00
   3.719844e+01   1.320518e+01
   7.086886e+00   2.383545e+01
  -8.404938e+00   1.334547e+01
  -1.627809e+01   6.371331e-01
   1.274490e+01  -4.479196e+00
   1.901040e+01   7.547945e+00
   1.179418e+01   3.162357e+01
  -1.683503e+01   3.465309e+01
  -1.784756e+01   5.242173e+01
  -2.235724e+01  -1.043206e+01
  -1.493036e-01  -4.234923e+01
   3.249629e+01  -5.414227e+01
   2.472046e+01   8.370264e+00
   2.720189e+01   3.802215e+01
  -1.740326e+01   1.401300e+01
  -8.630892e+00  -4.795736e+00
  -9.588018e+00  -1.982211e+00
   2.526736e-01  -6.611522e-01
  -6.001380e-02   3.950434e+00
  -4.055162e+00  -6.933152e+00
  -3.463961e+00  -2.440080e+01
  -8.972394e+00  -3.390702e+01
   1.326784e+01  -3.782224e+00
   3.649340e+01   7.585051e+00
   1.302766e+01   1.790284e+01
   8.677678e+00   1.332521e+01
  -1.228539e+01   1.265956e+01
  -1.478267e+01  -6.412376e+00
  -4.350480e+00  -4.687770e+00
   4.746622e+00  -4.817201e+00
   3.672505e+00  -8.450634e-01
  -3.613073e+00   1.977846e+00
  -8.657667e-01  -7.937983e-01
   1.068652e+01  -2.701200e+00
   1.699673e+01   2.760114e+00
  -6.436703e-01   1.428473e+01
  -3.316903e+01   4.157856e+01
  -4.638631e+01   3.488851e+01
  -4.093584e+01  -1.872857e+01
  -4.002347e+00  -3.747892e+01
   3.038080e+01  -4.672903e+01
   3.448019e+01  -1.129387e+01
   4.237414e+00   2.235583e+00
   3.115533e+00   1.179551e+01
   1.151165e+00   3.935947e+00
   4.061461e+00   1.682535e+00
   1.205237e+01   9.263243e+00
   8.182227e+00   2.834396e+01
  -1.282988e+01   1.299871e+01
  -1.698273e+01  -3.906190e+00
  -3.341880e+01  -1.534068e+01
  -8.776482e+00  -2.625215e+01
   1.354269e+01  -1.880366e+01
   1.557759e+01   1.997711e+01
   1.106299e+01   1.387157e+01
  -2.253889e+01   2.019876e+01
  -1.786331e+01  -5.953751e+00
  -1.476869e+01  -1.544992e+01
   8.417973e+00  -1.632246e+01
   9.477203e+00  -3.006116e+00
  -2.140293e+00   3.169837e+00
  -1.841501e+01  -3.201234e+00
  -6.331922e+00  -8.042209e+00
   1.998124e+01  -1.288758e+01
   3.354260e+01  -6.225663e+00
   1.462054e+01   5.044399e+00
  -5.625469e+00   2.560423e+01
  -4.258638e+00   2.762261e+01
  -1.069070e+01   6.058951e+00
  -7.328572e-01  -1.159595e+01
   3.873163e+00  -1.194829e+01
   8.639985e+00   3.248938e+00
   4.218366e+00   1.487495e+01
  -4.349294e-01   1.073534e+01
  -6.147402e+00   2.356150e+00
  -6.854421e+00  -8.436085e+00
  -3.425644e+00  -3.107577e+00
   1.485570e-01   5.605285e+00
   3.283795e+00   4.218731e+00
   3.009270e+00  -7.997602e+00
  -9.866610e+00  -1.322272e+01
   4.235536e+00  -1.011108e+01
   1.196128e+01   4.978692e+00
   1.357228e+01   1.348982e+01
  -3.477546e+00   7.461872e+00
  -2.488672e+01  -9.478462e+00
  -9.261248e+00  -9.124984e+00
   1.825851e+01  -1.449494e+01
   3.506895e+01   4.455976e+00
   8.888185e+00   1.199254e+01
  -5.051126e+00   1.182496e+01
  -1.641106e+01   1.082862e+01
  -6.527276e+00   5.658431e+00
   2.821774e+00  -2.832853e+00
   5.961667e+00   2.518715e+00
   1.423177e+00   2.777785e+00
  -1.259280e+01   9.334881e+00
