
 $NMID
 id='ANONYMOUS ', fmtdat='(2E16.6)'
 volume=1.0
 tramp=1.0
 $END
  -3.955323e+03  -5.195142e+02
  -2.255766e+03  -2.116855e+03
   6.457770e+02  -2.028474e+03
   1.630807e+03  -8.114580e+02
   8.546438e+02   7.852908e+01
  -2.202072e+02   1.968903e+02
  -6.866302e+02  -3.175745e+02
   1.462682e+01  -7.567200e+02
   6.635434e+02  -5.999959e+02
   7.718699e+02   7.771094e+01
   3.777251e+02   6.450124e+02
  -1.065684e+02   7.240915e+02
  -5.266081e+02   1.614739e+01
  -2.388199e+02  -6.711214e+02
   2.905163e+02  -6.606185e+02
   4.733570e+02   1.038552e+01
   2.851963e+02   5.301067e+02
  -8.663740e+01   6.013556e+02
  -5.240222e+02   1.283210e+02
  -3.832252e+02  -2.820644e+02
  -8.160856e+01  -3.633048e+02
   1.889458e+02  -2.632270e+02
   1.307376e+02  -2.089986e+01
  -1.929956e+02   1.319464e+01
  -3.769838e+02  -3.240238e+02
  -1.167443e+02  -4.345649e+02
   5.920803e+02  -3.125596e+02
   8.014143e+02   1.154619e+02
   2.277744e+02   4.803631e+02
  -4.973314e+02   3.458848e+02
  -7.032048e+02  -1.321784e+02
  -2.328948e+02  -4.485833e+02
   3.763346e+02  -4.171842e+02
   5.853401e+02  -8.721480e+01
   3.478175e+02   2.699281e+02
   4.514698e+00   3.810700e+02
  -1.307450e+02   2.034661e+02
  -5.931830e+01  -2.315512e+02
   2.713374e+02  -3.040543e+02
   4.057053e+02   2.061155e+02
   6.117480e+01   7.052711e+02
  -3.056842e+02   6.538504e+02
  -4.375484e+02  -1.474341e+02
  -1.954011e+02  -5.244144e+02
   2.487469e+02  -2.038094e+02
   2.425074e+02   3.589904e+02
  -6.823053e+01   4.905236e+02
  -5.320429e+02   9.155462e+01
  -5.389456e+02  -4.142307e+02
  -1.657250e+02  -5.732741e+02
   3.488979e+02  -3.117003e+02
   6.421583e+02   8.371298e+01
   3.515228e+02   3.258027e+02
  -1.595504e+02   2.339206e+02
  -3.652572e+02   7.936616e+00
  -1.866961e+02  -1.384161e+02
   5.461085e+01  -3.140040e+01
   8.135497e+01   1.213482e+02
  -1.867967e+02   8.805055e+01
  -2.908278e+02  -1.113044e+02
  -1.545593e+02  -2.575246e+02
   2.039043e+02  -2.458940e+02
   3.202316e+02  -1.237952e+02
   2.367985e+02   6.092387e+01
  -1.010428e+01   2.475311e+02
  -2.529839e+02   3.456876e+02
  -3.619673e+02   1.525949e+02
  -2.154049e+02  -1.693515e+02
  -6.979204e+01  -4.664910e+02
   8.528139e+01  -3.650149e+02
   7.127079e+01  -1.195434e+02
  -1.461848e+01  -2.719355e+01
   8.099438e+01  -8.947676e+01
   2.523402e+02  -1.398639e+02
   2.675887e+02   1.451640e+02
   1.119488e+02   2.869784e+02
  -8.300517e+01   2.791784e+02
  -2.286052e+02  -4.417001e+01
  -1.515346e+02  -2.035416e+02
   4.900436e+01  -2.472364e+02
   2.968872e+02  -1.002559e+02
   2.863960e+02   2.224578e+02
   1.969852e+02   3.252167e+02
  -8.382139e+01   2.560454e+02
  -1.819607e+02   1.257336e+02
  -1.279211e+02   3.246935e+01
  -1.210014e+02   7.967788e+01
  -2.811967e+02   5.265959e+01
  -4.567056e+02  -8.493088e+01
  -3.319862e+02  -3.144551e+02
  -6.398720e+00  -4.387053e+02
   3.736067e+02  -3.899234e+02
   4.952917e+02  -1.781450e+02
   3.515177e+02   7.162246e+01
   5.631107e+01   2.746022e+02
  -1.407380e+02   1.884951e+02
  -3.938393e+01   1.056862e+01
   1.033294e+02  -8.559855e+01
   1.612187e+02   2.264760e+01
   2.295852e+01   1.959674e+02
  -1.463297e+02   1.356304e+02
  -1.542718e+02  -5.554225e+01
   2.364104e+01  -1.487174e+02
   1.819912e+02   6.270380e+00
   1.622673e+02   2.062659e+02
  -3.756494e+01   3.625024e+02
  -2.190065e+02   2.124185e+02
  -3.795944e+02  -1.681274e+01
  -2.989427e+02  -2.525561e+02
  -7.366411e+01  -2.620267e+02
   1.123070e+02  -1.555899e+02
   1.714192e+02  -1.590470e+01
   5.596326e+01   2.721425e+01
  -7.382218e+01  -4.877257e+01
  -2.326670e+01  -1.375377e+02
   1.369957e+02  -8.892160e+01
   1.656056e+02   2.292947e+01
   4.331204e+01   7.819598e+01
  -8.973141e+01   4.821964e+00
  -5.639290e+01  -8.491969e+01
   1.416730e+02  -9.878638e+01
   3.161725e+02  -2.683345e+01
   2.632289e+02   1.399845e+02
   5.943089e+01   2.669094e+02
  -2.298788e+02   2.438578e+02
  -2.960362e+02   6.913570e+01
  -1.455105e+02  -6.025115e+01
   5.118415e+01  -8.947236e+01
   8.658555e+01   9.457141e+00
  -5.280668e+01   9.237761e+01
  -2.037771e+02   2.381785e+01
  -2.111731e+02  -1.174324e+02
  -5.877040e+01  -1.922734e+02
   1.180682e+02  -1.582599e+02
   1.302148e+02  -1.389533e+01
   4.776671e+01   3.679439e+01
  -4.013755e+01  -2.878975e+00
  -4.295710e+01  -1.135258e+02
   7.887002e+01  -1.215712e+02
   2.193894e+02  -2.783168e+01
   1.686166e+02   1.657615e+02
   1.737974e+01   2.330721e+02
  -1.988705e+02   1.752090e+02
  -1.777849e+02   1.380806e+01
  -5.449615e+01  -1.160460e+02
   6.844526e+01  -8.513665e+01
   7.547503e+01  -2.740756e+01
   2.209424e+00   2.579902e+01
  -2.708620e+01   1.506166e+01
   9.270369e+00  -1.629645e+01
   8.054530e+01   7.508955e+00
   1.035884e+02   9.213443e+01
   2.399585e+01   1.893640e+02
  -1.294227e+02   1.722918e+02
  -2.681330e+02   1.179031e+01
  -2.083681e+02  -1.531080e+02
  -1.236701e+01  -2.326289e+02
   1.001789e+02  -1.695837e+02
   1.116614e+02  -1.059626e+01
   7.671061e+01   5.547697e+01
   3.086983e+01   3.120531e+01
   5.027181e+01  -1.112447e+01
   8.258734e+01  -5.624632e+00
   5.446083e+01   4.587978e+01
  -2.242521e+01   1.010493e+02
  -1.178959e+02   7.183910e+01
  -1.031745e+02  -2.189407e+01
   5.619393e+00  -1.309134e+02
   1.364937e+02  -1.175048e+02
   2.073915e+02   7.515240e+01
   1.244028e+02   2.167477e+02
  -1.055707e+02   2.405585e+02
  -2.453592e+02   4.349015e+01
  -2.571230e+02  -6.776756e+01
  -1.024932e+02  -1.467125e+02
   4.029202e+01  -1.500402e+02
   8.663761e+01  -7.153241e+01
   7.574951e+01  -6.663984e+01
   6.341045e+01  -1.053348e+02
   8.776292e+01  -8.857390e+01
   1.220633e+02   2.485073e+01
   1.307576e+02   1.469121e+02
   4.027446e+01   2.440997e+02
  -1.221886e+02   1.858776e+02
  -1.919463e+02  -9.737101e+00
  -1.655643e+02  -1.294130e+02
  -2.590991e+01  -1.828954e+02
   7.226477e+01  -1.045899e+02
   6.940512e+01   4.524552e+00
  -6.940455e-02   5.681334e+01
  -1.956894e+01   4.499757e+01
   2.985204e+01   2.229868e+01
   8.467189e+01   1.100630e+01
   4.952275e+01   4.468281e+01
  -5.884218e+01   4.109136e+01
  -1.723123e+02   1.599828e+01
  -1.339191e+02  -5.217779e+01
  -1.486316e+01  -9.731181e+01
   1.333747e+02  -7.044759e+01
   1.623163e+02  -9.832125e+00
   4.185511e+01   4.800804e+01
  -5.391088e+01   3.207665e+01
  -6.986517e+01  -2.458751e+01
  -1.494088e+01  -6.798723e+01
   4.967902e+01  -6.760258e+01
   5.869178e+01  -1.377489e+00
   5.114646e+01   4.504478e+01
   4.499848e+01   4.591478e+01
   5.080133e+01   8.550547e+00
   7.283030e+01   4.803023e+00
   4.169218e+01   7.015563e+01
  -7.500469e+00   1.513280e+02
  -1.150342e+02   1.304718e+02
  -1.845996e+02   6.048064e+01
  -1.350004e+02  -9.901937e+01
  -7.768530e+00  -1.165643e+02
   8.160932e+01  -8.319209e+01
   5.724070e+01   1.089614e+01
  -6.406972e+01   1.414104e+01
  -1.512106e+02  -4.722132e+01
  -7.656020e+01  -1.035691e+02
   8.538086e+01  -1.134576e+02
   1.975396e+02  -2.405976e+01
   1.398871e+02   3.427033e+01
   3.352971e+01   9.179494e+01
  -5.973383e+01   6.600578e+01
  -5.182097e+01   4.482538e+00
   3.245470e+01  -2.692171e+01
   9.399138e+01   1.686104e+01
   3.928504e+01   1.276501e+02
  -8.073386e+01   1.431689e+02
  -1.773764e+02   7.836411e+01
  -1.300524e+02  -9.716860e+01
  -2.319155e+01  -1.667204e+02
   9.871432e+01  -1.538015e+02
   1.041429e+02   1.415805e+01
   6.396292e+01   1.234630e+02
  -1.108833e+00   1.123524e+02
  -5.685851e+01   2.135457e+01
  -5.600048e+01  -2.981800e+01
  -1.912623e+01  -7.955985e+00
  -6.209634e+00   2.112724e+01
  -2.680784e+01  -1.511589e+01
  -5.500888e+01  -7.676752e+01
  -3.504480e+01  -1.064233e+02
   4.954826e+01  -4.471556e+01
   1.667760e+02   3.225129e+01
   1.420433e+02   7.811004e+01
   1.216052e+01   5.540926e+01
  -9.546326e+01   3.111292e+01
  -7.816527e+01   2.960774e+00
  -1.350051e+01  -8.064413e+00
   3.543792e+01  -2.200930e+01
   1.429775e+01  -1.720740e+01
  -1.750465e+01   7.335455e-01
   1.639137e+00   6.908183e+00
   6.980686e+01  -4.535282e+00
   9.956456e+01   2.702505e+01
   7.571194e+00   7.088134e+01
  -1.134778e+02   1.079739e+02
  -1.856396e+02   7.327647e+01
  -1.470871e+02  -5.270902e+01
  -3.290111e+01  -1.682894e+02
   5.782465e+01  -1.716530e+02
   1.201923e+02  -6.234528e+01
   8.078148e+01   1.313479e+01
   2.989095e+01   3.662977e+01
   5.987422e-01   1.035945e+01
   1.458559e+01   6.240156e+00
   3.089693e+01   4.676123e+01
   2.583971e+01   7.946977e+01
  -3.572162e+01   6.999719e+01
  -8.626962e+01  -2.828346e+01
  -1.115398e+02  -1.107434e+02
  -1.347048e+01  -1.024845e+02
   7.874088e+01  -2.829975e+01
   9.564202e+01   7.162734e+01
   3.695062e+01   9.931396e+01
  -6.551704e+01   5.934888e+01
  -9.571110e+01   7.571253e-01
  -4.737213e+01  -6.276956e+01
   2.378296e+01  -6.044679e+01
   3.828197e+01  -2.869858e+01
  -3.216913e+01   2.371833e-01
  -6.831793e+01   9.129909e+00
  -1.594023e+01  -2.329693e+01
   6.850942e+01  -6.586761e+01
   1.122974e+02  -4.390245e+01
   7.083429e+01  -4.601050e-01
  -1.279076e+01   8.194432e+01
  -5.071359e+01   8.173994e+01
  -3.565130e+01   1.644038e+01
   2.323719e+00  -5.149891e+01
   2.412476e+01  -4.846740e+01
   3.917655e+01   1.926444e+01
   3.353354e+01   5.591544e+01
   3.716345e+00   3.904040e+01
  -3.478998e+01  -2.900751e+00
  -4.042952e+01  -1.792309e+01
  -2.238097e+01  -4.403750e+00
   3.712577e+00   1.736084e+01
   1.697585e+01   3.622880e+00
   4.832596e+00  -2.613827e+01
  -2.623022e+00  -4.530102e+01
   2.257577e+01  -1.498063e+01
   3.824659e+01   3.240266e+01
   1.483850e+01   5.445327e+01
  -4.345389e+01   1.798844e+01
  -5.215231e+01  -3.081865e+01
  -1.939704e+01  -6.515242e+01
   5.458498e+01  -3.775033e+01
   8.902980e+01   1.560166e+01
   4.851929e+01   3.543174e+01
  -2.455522e+01   4.531908e+01
  -5.258575e+01   1.342188e+01
  -2.402563e+01   9.466477e+00
   3.582055e+01  -2.981200e+00
   3.109403e+01   1.307065e+01
  -2.657626e+01   3.008349e+01
  -8.478457e+01   2.161648e+01
