
 $NMID
 id='ANONYMOUS ', fmtdat='(2E16.6)'
 volume=1.0
 tramp=1.0
 $END
   2.045398e+03  -2.501052e+02
   8.843108e+02   9.965533e+02
   1.995952e+02   1.457318e+03
  -8.590317e+02   9.584355e+02
  -5.981978e+02   3.679203e+02
  -2.070729e+02   2.805049e+01
   1.049628e+02   4.286251e+01
  -1.190030e+02   2.142295e+02
  -2.827095e+02   4.501545e+02
  -4.636263e+02   1.322866e+02
  -5.065566e+02  -3.103738e+02
  -5.760653e+01  -3.180417e+02
   1.225303e+02  -5.510904e+01
   1.043077e+02   2.667894e+02
  -9.767328e+01   3.716466e+02
  -3.006838e+02   1.794510e+02
  -2.838921e+02  -3.241187e+02
   5.494057e+01  -4.064266e+02
   2.098205e+02  -1.327549e+02
   3.358048e+02   1.274415e+02
   8.737142e+01   2.715141e+02
  -8.796638e+01   1.184242e+02
  -3.236603e+01   9.902755e+01
   1.656882e+02   6.504702e+01
   1.347471e+02   2.490461e+02
   4.380109e+01   2.229334e+02
  -2.267685e+02   1.097540e+01
  -2.669382e+02  -1.828696e+02
  -8.544217e+01  -2.857863e+02
   4.485534e+01  -8.417437e+01
   3.182128e+02   1.108622e+02
   1.189075e+02   1.841543e+02
  -1.131390e+02   2.308189e+02
  -2.322685e+02   4.969668e+01
  -2.013002e+02  -1.156440e+02
  -5.029679e+01  -1.901038e+02
  -4.827014e+01  -1.690580e+02
  -4.790864e+01   2.441203e+01
  -8.883579e+01   1.312088e+02
  -6.166562e+01   3.450399e+01
   2.925047e+01  -2.257849e+02
   2.685111e+02  -2.165573e+02
   1.735719e+02   4.834170e+01
   6.726290e+01   1.463677e+02
  -9.420337e+01   9.637909e+01
  -8.350567e+01  -9.577400e+01
   6.805946e+01  -2.481126e+02
   2.947086e+02  -2.525013e+01
   2.700585e+02   2.568431e+02
   1.296595e+02   2.840200e+02
  -2.249769e+02   1.750535e+02
  -2.950946e+02  -5.949542e+00
  -2.122712e+02  -1.890344e+02
   3.438460e+01  -9.995122e+01
   1.453641e+02  -6.133783e+01
   1.352124e+02   1.775743e+01
  -8.458834e+00   4.739550e+01
   2.789391e+00  -5.384792e+01
   5.268419e+01  -3.255354e+01
   1.389737e+02   3.789595e+01
   1.369659e+02   1.298888e+02
  -9.572372e+01   1.798757e+02
  -2.935416e+02   7.280436e+01
  -1.830566e+02  -7.898026e+01
   2.792579e+01  -2.653750e+02
   2.363993e+02  -2.222289e+02
   2.454505e+02  -9.329249e+01
   1.799328e+02   1.015070e+02
   6.713381e+01   2.202810e+02
  -5.644575e+01   1.930545e+02
  -1.303679e+01   1.503146e+02
  -3.424590e-01   8.775895e+01
  -1.203517e+02   7.466574e+01
  -1.772511e+02   3.846198e+01
  -1.438413e+02  -9.805294e+01
  -4.709045e+01  -1.577275e+02
   2.869116e+01  -1.318652e+02
   1.310753e+02   6.101417e+01
   1.032959e+02   1.524197e+02
  -5.290910e+01   1.833940e+02
  -1.477022e+02   5.457010e+01
  -1.747421e+02  -1.654732e+02
  -1.164928e+02  -2.091553e+02
   6.096563e+01  -1.793173e+02
   1.013675e+02  -1.130976e+02
   1.243956e+02  -7.308566e+01
   1.058167e+02  -4.099497e+01
   2.065315e+02  -3.245421e+01
   2.708314e+02   1.129537e+02
   1.998459e+02   2.250841e+02
  -6.287233e+01   2.541434e+02
  -2.496391e+02   2.679771e+02
  -3.118408e+02   1.021290e+02
  -1.796446e+02  -4.219029e+01
  -2.655821e+01  -1.667359e+02
   3.740591e+01  -1.175240e+02
  -1.419784e+00  -3.919983e+01
  -7.595423e+01   5.023933e+00
  -8.413829e+01  -4.117833e+01
   6.978928e+00  -8.141459e+01
   3.969395e+01  -6.782587e+01
   6.942361e+01   2.312977e+01
   2.077363e+00   8.221108e+01
  -9.363405e+01  -1.987953e+01
  -9.331692e+01  -1.392215e+02
   1.093229e+01  -2.429295e+02
   1.658651e+02  -1.109410e+02
   2.279243e+02   3.623876e+01
   2.451545e+02   1.480557e+02
  -5.880962e-01   2.010833e+02
  -9.777855e+01   9.733792e+01
  -9.257017e+01   7.458320e+00
  -1.367037e+01  -1.263181e+01
   3.148979e+01   4.209067e+01
  -6.334201e+00   5.812424e+01
  -6.710277e+01   5.146020e+01
  -6.926500e+01  -1.121262e+01
  -2.665447e+01  -3.453905e+01
   6.205697e+01   1.975614e+01
   3.547904e+01   6.941645e+01
  -9.196491e+01   4.960042e+01
  -1.899256e+02   6.608707e+00
  -1.896091e+02  -1.348954e+02
  -2.002019e+01  -1.819959e+02
   1.832767e+02  -1.410202e+02
   1.784705e+02  -3.030128e+01
   9.688338e+01   4.095559e+01
  -1.874009e+01   4.612267e+01
  -3.044919e+01  -1.039699e+01
   3.308410e+01  -5.632391e+01
   1.146333e+02  -4.884286e-01
   1.102519e+02   9.917441e+01
   3.762752e+01   9.839355e+01
  -7.390100e+01   7.980694e+01
  -7.617244e+01  -4.976548e+00
  -3.268282e+01  -1.758031e+01
   2.054059e+01   2.604572e+01
   2.405501e+01   8.179703e+01
  -7.280157e+01   6.521200e+01
  -1.478816e+02   3.171204e+00
  -1.036274e+02  -1.079213e+02
  -7.035782e+00  -1.269877e+02
   1.058119e+02  -8.702018e+01
   1.169743e+02   1.033926e+00
   2.523579e+01   6.301057e+01
  -3.988152e+01   6.474614e+01
  -4.318679e+01   1.943540e+01
   3.342553e+00  -1.738997e+01
   2.928495e+01   1.209502e+00
  -7.489532e+00   1.887418e+01
  -7.193060e+01  -9.410728e+00
  -8.196802e+01  -7.319481e+01
  -6.313413e-01  -1.278238e+02
   1.160450e+02  -8.139113e+01
   1.531825e+02  -7.208834e+00
   1.282423e+02   1.221748e+02
  -1.131239e+01   1.542040e+02
  -7.741387e+01   1.062637e+02
  -8.370622e+01   1.416222e+01
  -5.199018e+01  -3.587367e+01
  -1.695635e+01  -1.949889e+01
  -3.828984e+01   1.287577e+01
  -6.495653e+01  -1.170623e+00
  -3.606291e+01  -3.767159e+01
   2.471867e+01  -6.903883e+01
   9.605406e+01  -5.012926e+01
   7.471932e+01   3.621221e+01
  -1.396174e+01   7.527815e+01
  -1.100985e+02   6.447177e+01
  -1.527915e+02  -6.272110e+01
  -6.620702e+01  -1.482522e+02
   7.653055e+01  -1.404242e+02
   1.880701e+02  -2.799587e+01
   1.773549e+02   6.484522e+01
   6.868682e+01   1.241923e+02
  -2.623289e+01   8.705434e+01
  -6.181779e+01   5.465127e+01
  -4.600469e+01   4.374316e+01
  -2.802376e+01   6.361220e+01
  -7.111703e+01   5.836994e+01
  -9.706162e+01  -2.389950e+01
  -1.013129e+02  -8.582037e+01
  -1.881062e+01  -1.364642e+02
   7.773208e+01  -8.720631e+01
   9.614058e+01   1.693760e+01
   7.486689e+01   9.032790e+01
   1.217757e+01   1.265793e+02
  -4.950457e+01   5.061312e+01
  -5.052693e+01  -1.584801e+01
   5.390170e+00  -4.276438e+01
   2.594737e+01  -3.100967e+01
  -1.549605e+01  -8.396044e+00
  -5.415793e+01  -8.279905e+00
  -3.334940e+01  -2.825508e+01
   5.098041e+01  -2.898846e+01
   1.165110e+02   5.327513e+00
   9.424663e+01   5.833632e+01
  -4.346995e+00   6.928928e+01
  -9.517348e+01   3.915439e+01
  -1.034228e+02   1.117486e+01
  -2.562494e+01  -4.096206e+01
   4.335617e+01  -2.409243e+01
   5.223836e+01   1.824343e+01
   4.307027e+00   4.367620e+01
  -2.812581e+01   4.321069e+01
  -4.468976e+01  -4.284853e+00
  -4.619634e+01  -3.539723e+01
  -3.740581e+01  -3.157098e+01
  -2.950997e+01  -6.648072e+00
  -4.391878e+01   5.483831e+00
  -2.265828e+01  -4.800905e+01
   1.524983e+01  -9.749863e+01
   1.004506e+02  -9.280419e+01
   1.198720e+02  -1.092582e+01
   8.122678e+01   8.084252e+01
  -7.558641e+00   8.808711e+01
  -6.231905e+01   5.206307e+01
  -4.468858e+01   9.320054e-01
   3.179549e+01  -9.390146e+00
   7.207581e+01   5.092321e+01
   5.022933e+01   7.095200e+01
  -5.451186e+01   6.885226e+01
  -1.250068e+02   1.634758e+01
  -1.087311e+02  -4.378215e+01
  -1.443623e+01  -4.641989e+01
   4.304009e+01  -4.468932e+01
   3.856734e+01   5.203404e+00
  -2.616378e+01   2.227310e+01
  -6.496816e+01  -9.141239e+00
  -3.297732e+01  -8.751886e+01
   6.283036e+01  -1.095714e+02
   1.023725e+02  -5.669325e+01
   9.541226e+01   5.950224e+01
   7.331818e+00   1.424285e+02
  -5.943329e+01   9.344222e+01
  -6.531856e+01  -1.300822e+01
  -3.025015e+01  -8.236326e+01
   4.359920e+00  -6.679207e+01
   3.362392e+01  -5.123802e+00
   2.372173e+01   1.666772e+01
   1.137314e+01   1.542822e+00
   2.228793e+00  -1.187181e+01
   1.950476e+01   2.104221e+01
   4.038802e+01   6.007039e+01
   6.907660e+00   6.944690e+01
  -3.811073e+01   2.276982e+01
  -8.726897e+01  -2.227336e+01
  -7.306560e+01  -3.819730e+01
  -6.330181e+00  -4.413473e+01
   5.243849e+01  -2.770912e+01
   5.487091e+01   3.944140e-01
   1.334496e+01   8.272448e+00
  -2.234268e+01   2.141399e+01
  -1.387889e+01   5.444453e+00
   9.214652e+00  -1.418941e+00
  -3.117162e+00  -2.589034e+00
  -3.772883e+01  -3.234633e+00
  -6.541915e+01  -1.550495e+01
  -1.209916e+01  -4.982467e+01
   7.439379e+01  -6.895651e+01
   1.306922e+02  -3.564894e+01
   9.862850e+01   4.250711e+01
   2.301294e+01   9.134138e+01
  -7.217304e+01   1.141644e+02
  -7.798958e+01   4.653593e+01
  -5.471505e+01  -1.170629e+01
  -1.866626e+01  -2.739087e+01
  -1.125158e+00  -9.587032e+00
  -9.539775e+00  -7.547878e+00
  -1.773548e+01  -3.417211e+01
  -1.923604e+01  -5.746074e+01
   2.686712e+01  -4.784534e+01
   4.691400e+01   1.172548e+01
   6.401669e+01   7.754899e+01
   1.936890e+01   8.251350e+01
  -4.717856e+01   3.090935e+01
  -6.520877e+01  -4.628550e+01
  -2.453550e+01  -7.331347e+01
   3.795406e+01  -3.534074e+01
   6.766805e+01   5.014467e-01
   2.859284e+01   4.132274e+01
  -2.602844e+01   4.675961e+01
  -2.482853e+01   2.228423e+01
   1.532082e+01  -1.186199e+01
   4.440345e+01  -7.572037e+00
   1.294679e+01   1.781206e+01
  -5.547122e+01   3.250847e+01
  -8.506762e+01   1.801413e+01
  -5.179734e+01  -1.087921e+01
   1.677771e+01  -5.811059e+01
   3.166241e+01  -6.117685e+01
   3.814926e+01  -9.971408e+00
   4.970083e+00   3.470170e+01
  -2.108596e+01   3.427860e+01
  -2.172025e+01  -1.993314e+00
  -2.323686e+01  -3.190769e+01
   8.827789e-01  -2.930894e+01
   2.318990e+01  -2.669260e-01
   3.050883e+01   2.064131e+01
   1.264813e+01   3.995287e+00
  -6.261594e+00  -1.434032e+01
  -3.962242e+00  -9.860986e+00
   2.891708e+00   1.902647e+01
   5.750026e-01   3.774467e+01
  -1.874738e+01   1.975179e+01
  -3.243694e+01  -2.081000e+01
  -1.360544e+01  -3.971471e+01
   2.298923e+01  -2.158665e+01
   3.976430e+01   2.800083e+01
   1.803080e+01   3.950927e+01
  -3.909399e+01   1.817159e+01
  -6.475919e+01  -5.349757e+00
  -4.342381e+01  -2.124742e+01
   1.547502e+01  -3.437244e+01
   3.932528e+01  -1.125010e+01
   2.109312e+01  -7.726687e+00
  -1.447679e+01   2.203935e+00
  -1.880895e+01  -4.201525e+00
   1.211766e+01  -1.824565e+01
   4.811437e+01  -2.291173e+01
