
 $NMID
 id='ANONYMOUS ', fmtdat='(2E16.6)'
 volume=1.0
 tramp=1.0
 $END
  -2.939581e+03   5.067455e+02
  -1.964070e+03  -2.003130e+03
   1.990852e+02  -2.199035e+03
   1.498760e+03  -1.190294e+03
   7.851689e+02  -1.304642e+01
  -2.682516e+02   2.363383e+02
  -4.162138e+02  -2.318836e+02
   9.388774e+01  -6.063859e+02
   5.415505e+02  -6.782831e+02
   7.465140e+02  -9.670684e+01
   5.743648e+02   5.434305e+02
   4.820783e+01   6.274274e+02
  -3.685168e+02   9.250909e+01
  -2.459099e+02  -5.383579e+02
   1.312603e+02  -5.576505e+02
   4.687740e+02  -1.444690e+02
   3.281100e+02   4.208703e+02
  -1.618089e+02   6.219029e+02
  -3.747818e+02   1.584771e+02
  -4.585553e+02  -2.616876e+02
  -1.238388e+02  -3.280763e+02
   1.741277e+02  -1.888328e+02
   1.062589e+02  -6.864582e+01
  -1.369184e+02   2.006707e+01
  -2.674448e+02  -2.267464e+02
  -1.177745e+02  -3.209843e+02
   2.921265e+02  -1.882444e+02
   5.357875e+02   1.254150e+02
   2.585451e+02   4.065813e+02
  -2.049819e+02   2.600611e+02
  -5.271895e+02  -2.798857e+01
  -2.532095e+02  -2.716745e+02
   1.803313e+02  -3.750744e+02
   4.131142e+02  -9.463662e+01
   3.360051e+02   1.958686e+02
   5.029965e+01   3.336376e+02
  -5.043298e+01   2.126250e+02
  -4.721847e+01  -1.131535e+02
   1.838135e+02  -2.558531e+02
   2.519631e+02  -4.877980e+01
   1.045115e+02   4.861567e+02
  -2.898749e+02   4.624625e+02
  -4.206785e+02   1.868884e+01
  -9.192047e+01  -3.026311e+02
   1.927227e+02  -2.181239e+02
   2.028770e+02   2.275801e+02
  -4.848112e+01   3.849008e+02
  -4.164825e+02   1.265190e+02
  -4.634060e+02  -2.899042e+02
  -1.580650e+02  -4.723960e+02
   2.847470e+02  -2.771200e+02
   4.617128e+02   7.835708e+01
   2.717067e+02   2.865010e+02
  -7.274925e+01   2.247963e+02
  -2.697873e+02   2.814215e+01
  -1.751764e+02  -1.047348e+02
   4.701116e+01  -8.590215e+01
   7.266562e+01   1.093550e+02
  -1.152837e+02   1.141383e+02
  -2.268785e+02  -5.367362e+01
  -1.724545e+02  -1.967259e+02
   1.462287e+02  -2.314969e+02
   3.409736e+02  -9.308848e+01
   1.957661e+02   9.831033e+01
  -4.482870e+00   2.636588e+02
  -2.628318e+02   2.876771e+02
  -3.053525e+02   1.359183e+02
  -2.223499e+02  -1.147842e+02
  -9.631086e+01  -3.348223e+02
   6.280322e+01  -3.110699e+02
   4.019086e+01  -1.689921e+02
   6.522007e+00  -4.251097e+01
   7.867220e+01  -9.834773e+01
   2.047512e+02  -8.819692e+01
   2.062404e+02   8.802314e+01
   1.061664e+02   2.115992e+02
  -2.531153e+01   1.937706e+02
  -1.830499e+02  -3.106066e+01
  -1.420608e+02  -2.207222e+02
   3.195095e+01  -2.513360e+02
   2.082880e+02  -9.150091e+01
   2.705970e+02   1.789777e+02
   1.599116e+02   3.035870e+02
  -7.319217e+01   2.396010e+02
  -1.650864e+02   1.374263e+02
  -1.367223e+02   5.215056e+01
  -9.643914e+01   4.630668e+01
  -2.297356e+02   8.460909e+01
  -3.359302e+02  -9.645078e+01
  -2.615699e+02  -2.836633e+02
   1.136372e+01  -3.472574e+02
   3.289161e+02  -4.115083e+02
   4.225364e+02  -1.868444e+02
   2.603932e+02   7.449740e+01
   5.304037e+01   2.248090e+02
  -9.126454e+01   1.931202e+02
  -3.743659e+01   4.450418e+01
   9.448841e+01  -4.624522e+01
   1.366552e+02   2.622951e+01
   3.748159e+01   1.373856e+02
  -9.935754e+01   1.241356e+02
  -1.321164e+02  -6.022303e+01
   7.890720e+00  -1.349455e+02
   1.392712e+02  -5.480264e+00
   1.372301e+02   1.949735e+02
  -7.451797e+00   3.220852e+02
  -1.927806e+02   1.535007e+02
  -2.920479e+02  -4.009529e+01
  -2.862262e+02  -1.926364e+02
  -4.313125e+01  -2.500864e+02
   1.024816e+02  -1.542460e+02
   1.378582e+02  -2.536621e+01
   3.533489e+01   2.814802e+01
  -4.521251e+01  -4.227087e+01
  -1.101162e+01  -9.171388e+01
   1.019285e+02  -8.410698e+01
   1.223148e+02   1.140068e+01
   4.829704e+01   4.840417e+01
  -7.259057e+01  -3.677307e+00
  -5.186946e+01  -7.347669e+01
   1.095663e+02  -6.950854e+01
   2.370892e+02  -2.494590e+01
   2.634137e+02   1.354481e+02
   1.743069e+01   2.107318e+02
  -2.225877e+02   2.179336e+02
  -2.235402e+02   7.791060e+01
  -1.442505e+02  -5.626519e+01
   1.961055e+01  -7.308852e+01
   6.477171e+01   6.028024e+00
  -3.814432e+01   8.299185e+01
  -1.540362e+02   1.149081e+01
  -1.686639e+02  -8.934725e+01
  -5.715424e+01  -1.661446e+02
   7.847762e+01  -1.295577e+02
   1.086721e+02  -1.713012e+01
   5.252969e+01   2.902073e+01
  -2.413150e+01  -9.278691e+00
  -2.539727e+01  -8.628385e+01
   8.808275e+01  -9.571822e+01
   1.694413e+02  -2.086052e+01
   1.464689e+02   1.261981e+02
   4.991103e+00   1.789470e+02
  -1.307773e+02   1.345477e+02
  -1.710136e+02   1.726086e+01
  -5.311090e+01  -9.293002e+01
   6.176881e+01  -9.602313e+01
   6.264447e+01  -2.727167e+01
   3.907384e+00   1.984317e+01
  -3.028587e+01   7.166551e+00
   6.408006e+00  -1.740359e+01
   9.004252e+01   4.579130e+00
   9.186091e+01   8.354540e+01
   1.259373e+01   1.611924e+02
  -1.196331e+02   1.289322e+02
  -1.743270e+02   2.971667e+00
  -1.770368e+02  -1.449558e+02
  -7.582388e+00  -1.884940e+02
   9.221501e+01  -1.676218e+02
   1.172468e+02  -2.324356e+01
   6.503618e+01   4.783000e+01
   2.257723e+01   2.746456e+01
   5.061477e+01  -1.343459e+01
   8.038697e+01  -4.450280e+00
   5.308011e+01   4.843729e+01
  -2.691617e+01   7.293136e+01
  -1.105276e+02   7.122348e+01
  -8.637291e+01  -3.539602e+01
   1.640680e+01  -1.111053e+02
   1.531156e+02  -9.276421e+01
   1.834053e+02   4.778715e+01
   8.722153e+01   1.791959e+02
  -8.420431e+01   1.925543e+02
  -2.560228e+02   7.090042e+01
  -2.202722e+02  -6.112195e+01
  -9.622654e+01  -1.519131e+02
   2.965453e+01  -1.261421e+02
   7.643779e+01  -6.980528e+01
   5.915492e+01  -6.355917e+01
   4.508364e+01  -8.015039e+01
   7.949320e+01  -8.094535e+01
   1.208278e+02   2.125556e+01
   1.268661e+02   1.024655e+02
   5.749569e+01   1.794145e+02
  -9.119498e+01   1.391727e+02
  -1.380439e+02  -1.560650e+01
  -1.242683e+02  -1.015605e+02
  -2.564381e+01  -1.462172e+02
   6.574037e+01  -7.777439e+01
   6.074868e+01   8.655333e+00
  -2.502147e+00   4.428242e+01
  -1.938425e+01   3.771602e+01
   2.610126e+01   1.371944e+01
   6.457109e+01   1.786969e+01
   4.203878e+01   3.496590e+01
  -6.107466e+01   4.171422e+01
  -1.394747e+02   8.754373e+00
  -1.387259e+02  -6.395419e+01
  -1.011712e+01  -8.323850e+01
   1.195094e+02  -5.713272e+01
   1.227689e+02  -3.280658e+01
   3.761062e+01   4.815972e+01
  -5.518739e+01   3.514897e+01
  -7.332490e+01  -1.511946e+01
  -1.253020e+01  -6.735041e+01
   4.401652e+01  -5.090288e+01
   5.726332e+01   2.403101e+00
   4.665811e+01   4.671565e+01
   4.370799e+01   3.921124e+01
   4.993342e+01   7.404136e+00
   5.710997e+01  -6.651116e+00
   2.836233e+01   6.434482e+01
  -1.888415e+01   1.353392e+02
  -1.050874e+02   1.395317e+02
  -1.528382e+02   2.991411e+01
  -1.119195e+02  -9.119233e+01
  -6.181432e-01  -1.259642e+02
   6.948823e+01  -6.344188e+01
   5.141572e+01  -2.435570e+00
  -4.616208e+01   1.103817e+01
  -1.013330e+02  -4.898587e+01
  -6.080767e+01  -9.185147e+01
   6.181676e+01  -8.514704e+01
   1.747863e+02  -3.926844e+01
   1.406715e+02   3.757629e+01
   2.923630e+01   6.875366e+01
  -4.954943e+01   5.871511e+01
  -4.641803e+01   1.915822e-01
   3.532347e+01  -3.312400e+01
   8.181422e+01   3.876581e+00
   5.122443e+01   1.192439e+02
  -7.036736e+01   1.539567e+02
  -1.327662e+02   7.327179e+01
  -1.209140e+02  -6.412290e+01
  -1.914940e+01  -1.922116e+02
   6.705961e+01  -1.348937e+02
   9.175405e+01   1.580720e+01
   4.352687e+01   1.099258e+02
  -2.792923e+00   8.133385e+01
  -4.227474e+01   9.968426e+00
  -4.084551e+01  -2.340082e+01
  -1.628886e+01  -1.290577e+00
  -1.656276e+00   1.808535e+01
  -2.389408e+01  -2.027668e+01
  -4.985353e+01  -7.876978e+01
  -3.027977e+01  -9.283999e+01
   5.286852e+01  -3.062732e+01
   1.293605e+02   3.010240e+01
   1.016162e+02   5.225159e+01
   1.233507e+01   5.299180e+01
  -7.682606e+01   2.968173e+01
  -7.445368e+01   1.339142e+01
  -1.386254e+01  -8.971507e+00
   3.273963e+01  -2.371092e+01
   1.166054e+01  -1.093363e+01
  -1.603017e+01   5.100731e-01
   5.383239e+00   5.867297e+00
   5.849101e+01   6.148742e+00
   7.828533e+01   1.796999e+01
   5.632314e+00   6.977662e+01
  -1.011934e+02   8.684555e+01
  -1.601851e+02   7.166183e+01
  -1.219791e+02  -4.456519e+01
  -3.326376e+01  -1.339341e+02
   6.917691e+01  -1.350368e+02
   9.178494e+01  -6.707298e+01
   6.667576e+01   1.289022e+01
   2.378433e+01   2.976995e+01
  -8.298937e-01   9.460279e+00
   1.209586e+01   5.178986e+00
   3.140140e+01   3.880439e+01
   2.288593e+01   7.874838e+01
  -2.755280e+01   6.317339e+01
  -6.491400e+01  -1.438999e+01
  -8.079074e+01  -9.470904e+01
  -1.759284e+01  -1.003039e+02
   6.630347e+01  -3.830237e+01
   8.955367e+01   7.606773e+01
   3.533069e+01   9.745031e+01
  -5.707309e+01   4.524026e+01
  -8.697671e+01   5.950022e+00
  -4.072107e+01  -5.141729e+01
   2.968805e+01  -5.475443e+01
   2.835012e+01  -2.577719e+01
  -2.348918e+01   8.528054e+00
  -5.867694e+01   4.761693e+00
  -1.224997e+01  -2.163994e+01
   7.271357e+01  -5.600299e+01
   1.089010e+02  -4.216733e+01
   6.358764e+01   1.591304e+01
  -1.975964e+01   7.981860e+01
  -4.383167e+01   7.899814e+01
  -3.978181e+01   1.230839e+01
  -8.491917e+00  -4.418173e+01
   2.175439e+01  -4.797772e+01
   2.972100e+01   8.486634e+00
   2.310616e+01   4.348846e+01
   3.283917e+00   3.497089e+01
  -2.865139e+01  -2.601895e+00
  -3.941795e+01  -1.970657e+01
  -1.607342e+01  -3.658608e+00
   3.512661e+00   1.504103e+01
   5.079033e+00   4.294095e+00
   5.935302e-01  -3.157472e+01
   4.707021e+00  -4.522631e+01
   2.661306e+01  -1.236962e+01
   4.053812e+01   3.179332e+01
   1.416263e+01   5.588940e+01
  -3.325718e+01   2.402968e+01
  -4.650765e+01  -2.917923e+01
  -1.578993e+01  -5.239949e+01
   5.005279e+01  -3.073273e+01
   8.242987e+01   1.414959e+01
   5.149628e+01   2.993555e+01
  -2.084210e+01   4.174879e+01
  -4.863594e+01   1.260087e+01
  -2.439139e+01   8.753149e+00
   2.693536e+01  -2.753719e+00
   2.699232e+01   1.150544e+01
  -1.700113e+01   2.725421e+01
  -7.327931e+01   3.081711e+01
