
 $NMID
 id='ANONYMOUS ', fmtdat='(2E16.6)'
 volume=1.0
 tramp=1.0
 $END
   3.577523e+03  -3.584271e+01
   2.342472e+03   2.402817e+03
  -6.048624e+02   2.338409e+03
  -1.899600e+03   7.119531e+02
  -8.856929e+02  -7.157544e+02
   6.462666e+02  -4.175432e+02
   6.955509e+02   3.985610e+02
  -3.240778e+01   7.589472e+02
  -8.149775e+02   6.591523e+02
  -8.131779e+02  -1.059691e+02
  -4.262631e+02  -8.134235e+02
   2.466475e+02  -7.837433e+02
   5.367963e+02  -4.228283e+01
   2.107292e+02   7.118855e+02
  -3.616033e+02   5.994891e+02
  -6.061968e+02  -3.443404e+01
  -2.047268e+02  -5.654348e+02
   2.876247e+02  -6.287018e+02
   6.062007e+02  -5.499626e+01
   3.738889e+02   3.572532e+02
   4.817953e+01   3.909001e+02
  -1.992219e+02   2.122714e+02
  -2.020519e+02   5.997526e+00
   1.101751e+02  -4.157791e+01
   3.458306e+02   1.693163e+02
   2.068524e+02   4.364232e+02
  -4.167530e+02   3.248323e+02
  -8.115202e+02  -7.434367e+01
  -3.236262e+02  -6.013550e+02
   4.468825e+02  -4.083950e+02
   6.865622e+02   9.576397e+01
   2.606137e+02   4.162764e+02
  -3.319573e+02   5.035204e+02
  -5.334158e+02   1.587632e+02
  -3.941017e+02  -2.784504e+02
   4.423457e+01  -4.253612e+02
   2.461260e+02  -2.586235e+02
   1.658549e+02   2.050172e+02
  -1.605768e+02   3.597572e+02
  -4.552052e+02  -1.395971e+01
  -2.287538e+02  -6.494299e+02
   2.946193e+02  -5.725158e+02
   6.081625e+02   7.238426e+01
   1.591272e+02   4.877514e+02
  -2.517256e+02   3.341537e+02
  -3.248201e+02  -3.378901e+02
   1.383850e+02  -5.332831e+02
   4.894533e+02  -6.093074e+01
   5.400134e+02   3.488693e+02
   1.436989e+02   5.369645e+02
  -4.162145e+02   3.117874e+02
  -5.809477e+02  -2.387765e+01
  -2.875997e+02  -4.172375e+02
   1.723263e+02  -3.132929e+02
   3.946815e+02   1.408934e+01
   1.965123e+02   2.252093e+02
  -1.211314e+02   1.063439e+02
  -1.193980e+02  -1.689872e+02
   2.029452e+02  -1.591744e+02
   3.409150e+02   7.635024e+01
   1.197193e+02   2.599148e+02
  -2.364668e+02   2.349433e+02
  -3.098525e+02   5.364889e+01
  -1.920789e+02  -1.015155e+02
   4.539242e+01  -2.302367e+02
   2.417123e+02  -2.974542e+02
   3.143987e+02  -1.864400e+02
   2.429088e+02   1.186807e+02
   5.836217e+01   4.039322e+02
  -1.033472e+02   3.710197e+02
  -9.299318e+01   1.117810e+02
  -4.427097e+01  -2.552173e+00
  -7.160934e+01   7.228568e+01
  -1.966405e+02   1.048551e+02
  -2.104601e+02  -1.007876e+02
  -1.513440e+02  -2.618553e+02
   9.039990e+01  -2.457589e+02
   2.292761e+02   1.654390e+01
   1.801684e+02   2.127898e+02
  -2.718816e+01   2.786865e+02
  -2.366332e+02   1.189122e+02
  -2.555988e+02  -1.911756e+02
  -1.909567e+02  -3.611507e+02
   6.287008e+01  -2.992126e+02
   1.946007e+02  -1.199017e+02
   1.358255e+02  -2.630270e+01
   8.359667e+01  -4.803760e+01
   2.186448e+02  -2.645775e+01
   3.793346e+02   8.314586e+01
   2.646005e+02   3.258159e+02
  -1.870624e+01   3.989053e+02
  -3.276589e+02   3.486000e+02
  -4.500705e+02   2.343392e+02
  -3.257462e+02  -9.722370e+01
  -4.082657e+01  -2.777165e+02
   1.459579e+02  -2.176837e+02
   8.038879e+01  -3.336123e+01
  -1.199844e+02   7.069898e+01
  -1.535432e+02  -2.768417e+01
  -4.391171e+01  -1.978999e+02
   1.725953e+02  -1.438661e+02
   1.522037e+02   5.306890e+01
  -2.447477e+01   1.713948e+02
  -1.779643e+02   2.054933e+01
  -1.252621e+02  -2.657616e+02
   3.779950e+01  -3.242883e+02
   2.249790e+02  -1.716261e+02
   2.918832e+02   4.077411e+01
   2.505027e+02   2.271408e+02
   8.246123e+01   2.471301e+02
  -1.352027e+02   1.426193e+02
  -1.704289e+02   1.164769e+01
  -5.516284e+01  -4.027554e+01
   6.683683e+01   4.076276e+01
   2.592359e+01   1.139848e+02
  -1.163378e+02   9.242276e+01
  -1.661154e+02  -2.314298e+01
  -4.683500e+01  -7.022379e+01
   8.256454e+01  -1.550217e+01
   4.367027e+01   7.083515e+01
  -1.300708e+02   7.300560e+01
  -2.737178e+02  -3.245953e+00
  -2.582564e+02  -1.305252e+02
  -4.119554e+01  -2.389172e+02
   1.819061e+02  -2.675824e+02
   2.556262e+02  -9.253485e+01
   1.738208e+02   7.830526e+01
  -1.869207e+01   9.651521e+01
  -9.648568e+01  -4.564538e+00
   3.406405e+01  -9.388060e+01
   1.783990e+02  -2.076009e+01
   2.032281e+02   1.230521e+02
   5.076393e+01   1.883840e+02
  -1.092318e+02   1.365475e+02
  -1.254908e+02   6.722931e+00
  -6.656923e+01  -3.949278e+01
   2.661045e+01  -8.132475e+00
   2.881295e+01   9.554719e+01
  -6.925692e+01   1.062623e+02
  -1.950426e+02   1.911668e+01
  -1.456244e+02  -1.392080e+02
   1.724914e+00  -2.332682e+02
   1.770669e+02  -1.430502e+02
   1.669647e+02  -2.955773e+01
   3.710888e+01   1.163388e+02
  -5.833364e+01   9.922256e+01
  -7.069624e+01   2.404767e+01
  -9.763449e+00  -2.344743e+01
   2.478859e+01  -1.508780e+01
  -9.984073e+00   1.164557e+01
  -7.232182e+01  -7.155194e+00
  -7.667145e+01  -8.028886e+01
  -7.575316e+00  -1.647470e+02
   1.170458e+02  -1.435784e+02
   2.052712e+02   1.442229e+01
   1.874569e+02   1.664701e+02
  -1.272030e+01   2.415630e+02
  -9.890458e+01   1.657659e+02
  -1.168512e+02   2.495783e+01
  -4.789392e+01  -5.953874e+01
  -2.384484e+01  -3.796601e+01
  -5.197059e+01   1.566131e+01
  -7.536663e+01   5.993636e+00
  -3.617075e+01  -4.312337e+01
   4.423481e+01  -6.935225e+01
   1.027073e+02  -4.582123e+01
   8.773938e+01   1.949370e+01
  -3.418995e+00   1.011642e+02
  -1.319717e+02   8.183524e+01
  -2.042932e+02  -6.759416e+01
  -4.405259e+01  -2.262303e+02
   1.277478e+02  -2.091227e+02
   2.309329e+02  -3.646117e+01
   2.612890e+02   8.529149e+01
   1.020238e+02   1.694732e+02
  -4.061163e+01   1.541576e+02
  -1.037678e+02   7.514962e+01
  -7.429492e+01   6.500141e+01
  -6.427623e+01   9.330717e+01
  -8.719886e+01   7.831160e+01
  -1.219091e+02  -4.521939e+01
  -1.065307e+02  -1.384064e+02
  -2.118705e+01  -1.983338e+02
   1.051371e+02  -1.463251e+02
   1.664482e+02   1.904016e+01
   1.424532e+02   1.176507e+02
   8.609025e+00   1.319464e+02
  -6.208758e+01   9.060538e+01
  -5.126652e+01  -9.082310e+00
  -2.597542e+00  -4.321993e+01
   1.865774e+01  -3.023056e+01
  -3.111576e+01  -2.043768e+01
  -7.306540e+01  -2.218531e+01
  -2.940809e+01  -4.192692e+01
   6.591901e+01  -2.416131e+01
   1.650594e+02   3.627993e+00
   1.419566e+02   4.899291e+01
   1.088296e+01   9.726679e+01
  -1.360602e+02   6.565715e+01
  -1.273321e+02   4.633682e+00
  -3.728392e+01  -4.033579e+01
   5.761677e+01  -2.631286e+01
   6.385142e+01   2.265263e+01
   2.780694e+00   6.000736e+01
  -5.480080e+01   5.252754e+01
  -5.926941e+01  -1.427803e+00
  -4.365968e+01  -3.550918e+01
  -3.597879e+01  -4.402146e+01
  -5.586881e+01  -9.124144e+00
  -6.338307e+01   2.118732e+00
  -2.718877e+01  -6.123124e+01
   3.426097e+01  -1.152263e+02
   1.240458e+02  -1.166272e+02
   1.490151e+02  -3.546011e+01
   1.156763e+02   8.957194e+01
  -4.557588e+00   1.288807e+02
  -8.793290e+01   4.892004e+01
  -5.717968e+01  -1.904095e+01
   5.528297e+01  -1.046412e+01
   1.201280e+02   6.689931e+01
   6.555012e+01   1.084059e+02
  -7.792218e+01   1.107570e+02
  -1.897173e+02   3.541324e+01
  -1.524679e+02  -2.789103e+01
  -3.595992e+01  -7.690528e+01
   4.347890e+01  -7.479747e+01
   4.675518e+01  -4.689304e+00
  -3.972158e+01   2.179191e+01
  -7.410017e+01  -2.412491e+01
  -3.044188e+01  -1.163385e+02
   1.011813e+02  -1.509904e+02
   1.521437e+02  -6.847612e+01
   1.159325e+02   1.042536e+02
  -1.135116e+01   1.958764e+02
  -9.207265e+01   1.248827e+02
  -1.046481e+02  -4.305492e+00
  -4.894183e+01  -1.150366e+02
   3.864570e+00  -9.581015e+01
   4.552563e+01  -1.675205e+01
   5.100105e+01   2.702363e+01
   2.174539e+01   8.665998e+00
   3.668022e+00  -1.913433e+01
   1.941079e+01   1.706606e+01
   3.974896e+01   8.426314e+01
   3.789768e+01   1.028426e+02
  -4.824262e+01   4.332516e+01
  -1.240070e+02  -2.705026e+01
  -1.087838e+02  -7.263986e+01
  -1.622062e+01  -4.724048e+01
   8.111555e+01  -2.342442e+01
   7.939693e+01  -1.577525e+00
   1.050631e+01   7.115988e+00
  -3.686007e+01   1.870439e+01
  -1.486346e+01   1.401144e+01
   2.062157e+01   1.065046e+00
  -5.925417e+00  -9.782857e+00
  -6.946744e+01  -4.677938e+00
  -8.145064e+01  -2.827396e+01
   7.757672e+00  -7.565376e+01
   1.196241e+02  -1.105136e+02
   1.924602e+02  -5.021159e+01
   1.313725e+02   6.804734e+01
   2.078130e+01   1.628224e+02
  -6.374085e+01   1.339135e+02
  -1.235346e+02   4.268012e+01
  -7.617284e+01  -2.648294e+01
  -2.180760e+01  -3.465258e+01
   4.666986e+00  -9.722761e+00
  -8.978992e+00  -4.167201e+00
  -3.693809e+01  -4.267142e+01
  -1.356153e+01  -8.135221e+01
   3.902435e+01  -5.733154e+01
   7.145391e+01   2.408931e+01
   7.379879e+01   1.001243e+02
  -1.343481e+01   1.099472e+02
  -8.252951e+01   3.143259e+01
  -7.140484e+01  -7.650254e+01
  -3.101724e+01  -8.494682e+01
   6.783603e+01  -4.061890e+01
   9.470868e+01   1.007280e+01
   3.076560e+01   4.331283e+01
  -2.789147e+01   5.386335e+01
  -2.792635e+01   2.522563e+01
   3.071776e+01  -9.954323e-01
   6.042472e+01  -5.939004e+00
   1.153731e+01   2.138639e+01
  -8.087629e+01   5.090573e+01
  -9.753975e+01   3.457862e+01
  -6.022361e+01  -4.431538e+00
   2.566785e+01  -7.044630e+01
   4.965978e+01  -7.522309e+01
   3.995793e+01  -1.447945e+01
  -5.181979e+00   5.641087e+01
  -1.968193e+01   4.288623e+01
  -3.297470e+01  -2.002387e+01
  -1.664973e+01  -5.626627e+01
   2.153549e+00  -3.090247e+01
   3.148925e+01   1.095373e+01
   3.381986e+01   1.453066e+01
   1.778515e+01   3.208040e+00
   9.434615e-01  -1.587280e+01
  -7.444701e+00   2.173244e+00
  -1.058440e+01   3.284039e+01
  -1.903477e+01   3.795085e+01
  -3.123540e+01   1.159199e+01
  -3.263774e+01  -4.339346e+01
   6.854558e+00  -6.238536e+01
   4.794368e+01  -1.297344e+01
   4.519296e+01   3.824518e+01
   1.455430e+01   5.233598e+01
  -5.274743e+01   2.513829e+01
  -8.050383e+01  -2.320003e+01
  -3.421131e+01  -4.349013e+01
   2.411003e+01  -3.932457e+01
   5.898166e+01  -9.543936e+00
   2.500754e+01  -4.053461e+00
  -3.688425e+01  -1.065687e+00
  -3.192677e+01  -2.081893e+01
   2.781119e+01  -2.831127e+01
   9.202342e+01  -1.656138e+01
