
 $NMID
 id='ANONYMOUS ', fmtdat='(2E16.6)'
 volume=1.0
 tramp=1.0
 $END
   1.679081e+03  -7.675600e+01
   8.476368e+02   1.775743e+02
   2.721716e+02   1.370403e+03
  -7.188088e+02   7.843225e+02
  -3.850778e+02   5.144293e+02
  -1.171207e+02   4.197848e+01
  -3.882323e+01   1.203432e+02
  -9.426921e+01   1.520820e+02
  -2.319891e+02   2.653306e+02
  -3.480828e+02   3.469410e+01
  -3.796083e+02  -2.098162e+02
   1.211553e+01  -2.293711e+02
   7.878247e+01  -7.241070e+01
  -1.943172e+01   1.482691e+02
  -5.593595e+01   3.476544e+02
  -2.402287e+02   1.668385e+02
  -2.410709e+02  -2.936967e+02
  -3.389401e+01  -3.592006e+02
   2.358892e+02  -1.810140e+02
   2.076924e+02   6.768380e+01
   7.915842e+01   1.767336e+02
  -2.964457e+01   1.208644e+02
  -3.791145e+01   9.227483e+01
   9.190759e+01   1.394182e+02
   1.530007e+01   1.929039e+02
  -4.017715e+01   1.515506e+02
  -2.194736e+02  -3.606960e+00
  -1.589683e+02  -1.141863e+02
   5.240769e+01  -1.408213e+02
   2.324600e+01  -1.889593e+01
   1.698772e+02   9.409274e+01
   9.182474e+01   1.750454e+02
  -1.606630e+02   1.793672e+02
  -1.797002e+02  -8.919259e+00
  -1.061173e+02  -1.543975e+01
  -4.621669e+00  -1.702383e+02
  -5.898816e+01  -6.688123e+01
  -6.703522e+01   1.841371e+01
  -9.603551e+01   3.436227e+01
  -4.411063e+01  -5.724286e+01
   4.196070e+01  -1.807690e+02
   1.704633e+02  -1.753507e+02
   9.200471e+01  -6.418863e+01
  -5.043034e+01   1.052802e+02
   2.286545e+01   5.927722e+01
  -1.727312e+01  -1.177168e+02
   2.378768e+01  -1.414358e+02
   1.028520e+02  -1.786193e+01
   2.457861e+02   2.181061e+02
   9.797428e+01   2.046140e+02
  -1.963829e+02   1.303054e+02
  -2.242025e+02  -5.100724e+00
  -1.444528e+02  -1.152134e+02
   1.843699e+01  -8.668913e+01
   1.487158e+02   8.203923e+00
   6.908090e+01  -4.382943e+01
   4.314578e+01   2.224141e+01
   5.398339e+00  -1.862431e+01
   5.276941e+01   5.163693e+01
   8.420877e+01   4.421850e+01
   7.809724e+01   1.024887e+02
  -5.817651e+01   9.791852e+01
  -2.176853e+02   9.648510e+01
  -1.634688e+02  -9.765282e+01
   3.214305e+01  -2.168408e+02
   2.187861e+02  -1.903548e+02
   2.470111e+02  -5.176049e+01
   1.077458e+02   8.582424e+01
   2.176252e+01   1.485284e+02
  -1.493716e+01   1.230370e+02
  -5.301734e+00   1.252441e+02
  -2.674645e+01   9.087568e+01
  -1.052267e+02   8.469479e+01
  -1.417932e+02  -1.533747e+00
  -1.041237e+02  -9.845813e+01
  -2.283669e+01  -1.073536e+02
   5.688633e+01  -1.040845e+02
   8.105505e+01   4.590559e+01
   5.652618e+01   1.421702e+02
  -5.750897e+01   1.390330e+02
  -1.488840e+02   3.231093e+01
  -1.406109e+02  -9.730192e+01
  -1.195333e+02  -1.600881e+02
   2.804832e+01  -1.329813e+02
   8.781186e+01  -7.580401e+01
   8.634250e+01  -7.078374e+01
   1.038218e+02  -3.018472e+01
   1.651253e+02  -5.591071e+01
   2.208025e+02   8.047923e+01
   1.349816e+02   2.136660e+02
  -2.603820e+01   1.910325e+02
  -1.892274e+02   2.236461e+02
  -3.083826e+02   4.222733e+01
  -1.161200e+02  -6.642513e+01
   1.967823e+00  -1.030998e+02
   7.713664e+01  -6.790283e+01
  -1.636771e+00  -4.525439e+01
  -4.696612e+01  -2.810306e+00
  -5.909530e+01  -2.622338e+01
  -5.945384e+00  -5.793005e+01
   5.633462e+01  -3.606873e+01
   4.094254e+01   2.503165e+01
  -1.467002e+01   5.334228e+01
  -9.360990e+01  -4.443600e+01
  -9.213955e+01  -9.922070e+01
   3.109903e+01  -1.989397e+02
   1.526384e+02  -7.079192e+01
   1.862160e+02   2.563804e+01
   1.542884e+02   1.542727e+02
   2.527954e+01   1.674962e+02
  -6.661534e+01   7.090678e+01
  -7.221485e+01   2.440505e+00
  -4.720842e+00  -5.750067e-01
   1.714841e+01   3.311361e+01
  -6.161668e+00   4.550408e+01
  -5.540057e+01   2.542761e+01
  -6.335215e+01  -2.121927e+01
  -9.155269e+00  -2.877371e+01
   4.297593e+01   6.740740e+00
   2.343485e+01   6.794985e+01
  -1.005076e+02   3.018122e+01
  -1.794838e+02  -2.375588e+01
  -1.578206e+02  -8.935461e+01
   1.986534e+01  -1.292667e+02
   1.423353e+02  -9.367753e+01
   1.493811e+02  -9.999766e+00
   6.132629e+01   4.401210e+01
  -2.817353e+01   3.454723e+01
  -1.732667e+01  -1.359128e+01
   3.037256e+01  -4.153842e+01
   9.645328e+01   3.613116e+00
   8.900479e+01   6.205261e+01
   1.872914e+01   7.382565e+01
  -6.062431e+01   7.321023e+01
  -5.615243e+01  -1.116261e+01
  -2.418447e+01  -1.891908e+01
   1.798010e+01   2.595657e+01
   1.273898e+01   7.904030e+01
  -6.859829e+01   4.493708e+01
  -1.310920e+02  -2.978601e+01
  -6.604305e+01  -8.586205e+01
   1.707894e+01  -1.221452e+02
   9.109834e+01  -7.057283e+01
   9.200068e+01  -1.479234e+01
   2.251311e+01   5.692956e+01
  -2.272992e+01   3.401199e+01
  -2.377788e+01   1.139344e+01
   7.305576e+00  -1.838509e+01
   2.502833e+01   5.390636e+00
  -3.622274e+00   1.762403e+01
  -5.137044e+01   2.403441e+00
  -7.326910e+01  -6.001274e+01
  -1.289728e+00  -9.332327e+01
   1.020209e+02  -6.077319e+01
   1.524055e+02   3.075716e+01
   1.017636e+02   1.157193e+02
  -1.131461e+00   1.315390e+02
  -4.877560e+01   8.324850e+01
  -7.467537e+01   6.334232e+00
  -4.119061e+01  -3.141037e+01
  -1.569750e+01  -1.808100e+01
  -3.285227e+01   8.907867e+00
  -5.967435e+01   4.050314e+00
  -4.528123e+01  -2.790921e+01
   3.316029e+01  -5.598440e+01
   8.077672e+01  -3.746578e+01
   5.153819e+01   4.916422e+01
  -2.448522e+01   7.885805e+01
  -1.016481e+02   4.993003e+01
  -1.293815e+02  -6.237527e+01
  -3.459804e+01  -1.297213e+02
   7.658255e+01  -1.098631e+02
   1.180027e+02   8.166556e-01
   1.331803e+02   4.524096e+01
   3.437026e+01   8.438763e+01
  -7.959925e+00   7.062541e+01
  -6.040419e+01   4.258694e+01
  -2.952056e+01   3.825567e+01
  -2.990148e+01   4.639398e+01
  -5.787040e+01   5.343414e+01
  -6.881516e+01  -1.007904e+01
  -7.547012e+01  -7.616441e+01
  -1.496629e+01  -1.231880e+02
   5.492534e+01  -7.295681e+01
   7.854850e+01   1.808319e+01
   6.346358e+01   6.680874e+01
   1.248719e+01   9.507441e+01
  -4.456270e+01   3.245581e+01
  -3.876700e+01  -2.071470e+01
   1.331395e+01  -3.421757e+01
   2.275786e+01  -2.345580e+01
  -1.294333e+01  -4.192701e+00
  -4.876759e+01  -1.679554e+01
  -2.395959e+01  -2.796273e+01
   4.346402e+01  -1.873068e+01
   1.007389e+02   3.251222e+00
   8.622486e+01   4.134511e+01
  -5.196168e+00   5.193759e+01
  -8.194933e+01   2.260914e+01
  -6.731221e+01   6.652332e-01
  -1.882216e+01  -3.589955e+01
   3.199070e+01  -1.641606e+01
   4.260409e+01   1.528657e+01
   4.280222e+00   4.078454e+01
  -1.296326e+01   3.301564e+01
  -4.708962e+01  -3.738806e+00
  -3.694788e+01  -3.608606e+01
  -2.328326e+01  -3.031549e+01
  -2.541365e+01  -8.136482e+00
  -3.724809e+01   1.627879e+00
  -2.214936e+01  -4.265976e+01
   1.331302e+01  -8.389903e+01
   8.644968e+01  -6.327046e+01
   9.435804e+01  -6.862578e+00
   7.179174e+01   7.078341e+01
  -1.295398e+01   7.770958e+01
  -5.164039e+01   3.746950e+01
  -3.577168e+01  -3.814028e+00
   3.540402e+01  -3.264793e+00
   6.965959e+01   3.156168e+01
   4.279135e+01   5.946203e+01
  -5.380961e+01   5.268738e+01
  -9.625856e+01   1.044903e+01
  -8.501632e+01  -4.277046e+01
  -1.811588e+01  -3.808730e+01
   3.163687e+01  -2.487698e+01
   2.899633e+01   6.058090e+00
  -2.911803e+01   1.415597e+01
  -5.545906e+01  -2.950182e+00
  -2.495691e+01  -7.964264e+01
   5.172228e+01  -1.012937e+02
   1.015666e+02  -4.782996e+01
   4.534630e+01   5.176121e+01
   1.129257e+01   1.268133e+02
  -3.349421e+01   6.080500e+01
  -5.521548e+01  -1.889186e+01
  -1.526001e+01  -7.063407e+01
   1.250799e+01  -5.191787e+01
   3.591441e+01  -1.792861e+00
   2.298513e+01   1.888583e+01
   7.532499e+00   1.354373e+00
   2.059771e+00  -9.616230e+00
   1.790892e+01   1.805980e+01
   3.437529e+01   5.097847e+01
   6.949305e+00   5.661178e+01
  -3.620068e+01   1.753710e+01
  -7.398338e+01  -2.310163e+01
  -4.248189e+01  -3.289481e+01
  -7.269114e+00  -3.564065e+01
   4.392770e+01  -1.700575e+01
   4.502582e+01  -1.463670e+00
   1.251618e+01   6.668286e+00
  -2.078354e+01   1.274617e+01
  -1.030342e+01   6.627654e+00
   6.237643e+00  -6.912392e-01
  -1.147417e+00  -6.187256e-01
  -2.549515e+01   7.626305e+00
  -5.361872e+01  -1.486054e+01
  -1.525688e+01  -4.260855e+01
   5.388400e+01  -4.533749e+01
   1.198957e+02  -2.746526e+01
   9.242623e+01   4.489760e+01
   2.650785e+01   7.650151e+01
  -6.082617e+01   8.425742e+01
  -6.323036e+01   3.096948e+01
  -4.658689e+01  -1.187755e+01
  -1.223699e+01  -2.560875e+01
  -5.509387e+00  -7.387660e+00
  -7.000436e+00  -6.368812e+00
  -2.359715e+01  -2.291048e+01
   3.946016e-02  -4.933527e+01
   1.679974e+01  -3.412213e+01
   3.677416e+01   1.313351e+01
   4.967894e+01   6.724106e+01
   8.009457e+00   5.559202e+01
  -3.765713e+01   2.019642e+01
  -4.847688e+01  -4.477656e+01
  -2.062763e+01  -5.368388e+01
   3.545325e+01  -2.823718e+01
   6.304208e+01   5.107346e+00
   2.157131e+01   3.563989e+01
  -2.651187e+01   4.166724e+01
  -2.572507e+01   1.312047e+01
   1.338851e+01  -5.822377e+00
   3.829185e+01   1.658197e+00
   9.009911e+00   1.688936e+01
  -4.815284e+01   3.152944e+01
  -7.568868e+01   1.466824e+01
  -4.081268e+01  -2.062144e+01
   7.285333e+00  -5.281664e+01
   3.417500e+01  -4.423757e+01
   3.153760e+01  -1.401939e+01
   4.342300e+00   2.531765e+01
  -6.559656e+00   2.802951e+01
  -1.743011e+01  -2.831414e+00
  -1.277745e+01  -3.529965e+01
   4.303458e-01  -1.795763e+01
   1.908310e+01  -2.317681e-02
   2.201510e+01   1.485989e+01
   1.022828e+01   7.820410e+00
  -5.232583e+00  -1.393590e+01
   8.307226e-01  -1.093559e+01
   7.678911e+00   1.438488e+01
   9.631303e-02   3.293955e+01
  -1.411845e+01   2.184394e+01
  -2.860447e+01  -1.279218e+01
  -1.531922e+01  -2.800257e+01
   2.513905e+01  -1.298796e+01
   2.941873e+01   2.237625e+01
   1.250794e+01   4.119110e+01
  -2.325921e+01   1.639083e+01
  -5.037317e+01  -9.046916e+00
  -2.672807e+01  -2.895140e+01
   1.400416e+01  -3.317676e+01
   3.773371e+01  -1.317103e+01
   1.906586e+01  -3.815332e+00
  -1.114556e+01   5.972143e+00
  -1.561390e+01  -2.870655e+00
   1.145734e+01  -1.572208e+01
   3.749585e+01  -1.918643e+01
