
 $NMID
 id='ANONYMOUS ', fmtdat='(2E16.6)'
 volume=1.0
 tramp=1.0
 $END
  -1.147161e+03   7.094495e+01
  -9.831595e+02   5.523576e+01
  -7.323247e+01  -8.381310e+02
   6.510004e+02  -4.646219e+02
   2.843994e+02  -5.201563e+02
   1.296170e+02  -1.900235e+02
   1.843529e+02  -1.876966e+02
   1.406063e+02  -9.894618e+01
   3.442213e+02  -1.589405e+02
   2.220944e+02   1.000158e+02
   2.692238e+02   2.057807e+02
   4.481054e+01   6.313593e+01
  -5.562537e+01   3.945429e+01
   2.173685e+01  -2.006026e+01
  -2.722035e+01  -1.552355e+02
   1.236990e+02  -1.250454e+02
   1.055963e+02   2.206512e+02
   3.358856e+01   2.358360e+02
  -1.706291e+02   4.283277e+01
  -1.855271e+02  -5.331550e+01
  -2.346795e+01  -9.542189e+01
   2.888297e+01  -8.649674e+01
   3.030147e+01  -6.902784e+01
  -6.452230e+01  -1.258018e+02
  -3.503266e+00  -1.447200e+02
   1.002847e+02  -1.073471e+02
   1.795586e+02   2.189664e+01
   5.357504e+01   2.806257e+01
  -6.495397e+01   6.759499e+01
   8.200725e+00  -1.065802e+01
  -1.214880e+02  -1.316412e+02
  -3.730417e+01  -7.810043e+01
   1.111461e+02  -1.170844e+02
   1.824051e+02   6.688431e+01
   8.570794e+01   8.416385e+00
  -3.616714e+01   9.361938e+01
   2.757982e+01   3.538133e+01
   8.327126e+01  -1.338481e+01
   9.109595e+01  -2.644745e+01
   6.513676e+01   2.159678e+01
  -7.060844e+01   1.912181e+02
  -1.831205e+02   9.853563e+01
  -7.157857e+01   4.552668e+01
   7.414849e+01  -1.231422e+02
  -5.305884e+01   1.280889e+01
   2.174335e+01   3.902415e+01
  -5.917367e+01   1.281266e+02
  -7.193453e+01  -2.407951e+01
  -1.159358e+02  -2.085357e+02
  -8.000349e+01  -1.891552e+02
   1.647007e+02  -1.464011e+01
   1.443798e+02  -3.534868e+01
   8.241752e+01   6.336646e+01
   7.521758e+00   3.077764e+01
  -7.577490e+01  -7.811947e+00
   3.317269e+00   2.157254e+01
  -4.018345e+01  -9.788305e+00
  -1.301963e+01  -9.736254e+00
  -2.605682e+01  -3.945466e+01
  -3.716890e+01  -5.845163e+01
  -3.148778e+01  -8.704128e+01
   5.664651e+01  -6.730747e+01
   1.491289e+02  -6.127780e+01
   1.025892e+02   7.243799e+01
  -3.391315e+01   1.344117e+02
  -2.039994e+02   1.146405e+02
  -1.550229e+02   4.039151e+01
  -8.257383e+01  -4.716130e+01
  -1.324674e+01  -8.667531e+01
   3.450990e+01  -5.240806e+01
   9.428390e+00  -6.097768e+01
   3.130998e+01  -5.791243e+01
   6.186841e+01  -5.642683e+01
   9.510786e+01  -1.972066e+01
   7.452610e+01   8.095898e+01
  -9.230550e+00   7.879190e+01
  -3.618885e+01   6.331065e+01
  -5.095973e+01  -5.632510e+01
  -4.588003e+01  -8.411048e+01
   5.514680e+01  -1.160024e+02
   1.018044e+02   4.767084e+00
   9.790808e+01   1.059135e+02
   8.193785e+01   9.980648e+01
  -3.891992e+01   7.746915e+01
  -7.243947e+01   3.969722e+01
  -6.795285e+01   4.007841e+01
  -6.835470e+01   1.302357e+01
  -1.252095e+02   3.145491e+01
  -1.196451e+02  -3.779108e+01
  -1.107356e+02  -1.347206e+02
   4.780315e+01  -1.221521e+02
   1.292713e+02  -1.425648e+02
   1.877279e+02  -2.325961e+01
   7.570624e+01   3.187295e+01
  -1.420224e+01   6.842778e+01
  -6.240403e+01   2.789052e+01
   8.978644e+00   3.382523e+01
   9.755082e+00  -1.629278e+00
   4.099363e+01   1.993042e+01
   3.077074e+00   3.416389e+01
  -2.756388e+01  -1.719930e+00
  -2.593805e+01  -1.366773e+01
   2.968798e+00  -2.540166e+01
   5.526826e+01   5.995274e+01
   5.945300e+01   4.275509e+01
  -5.532836e+01   1.018066e+02
  -8.252892e+01   2.986525e+01
  -1.283783e+02  -1.643515e+01
  -9.336766e+01  -1.202991e+02
  -1.394705e+01  -1.195832e+02
   3.669365e+01  -6.209861e+01
   5.215457e+01   3.337395e+00
   6.783217e+00   7.298362e+00
  -4.982227e+00  -2.146338e+01
  -1.631501e+00  -2.793607e+01
   3.978234e+01  -1.349055e+01
   3.738773e+01   1.081510e+01
  -3.128330e+00   3.279086e+01
  -2.776150e+01  -1.361481e+00
  -1.873079e+01  -4.458961e+01
   6.715925e+01  -1.714026e+01
   8.993538e+01   3.143877e+01
   1.110902e+02   5.793816e+01
  -1.477586e+01   9.300076e+01
  -1.032478e+02   3.718290e+01
  -8.759926e+01  -1.262552e+01
  -4.603452e+01  -2.945711e+01
   2.799479e+01  -2.548258e+01
   1.040375e+01   6.379308e+00
  -1.582166e+01   3.360649e+01
  -4.714923e+01  -6.467973e+00
  -6.059073e+01  -3.072204e+01
  -6.513279e+00  -4.781144e+01
   4.089598e+01  -5.044656e+01
   4.992453e+01   1.430401e+01
   1.811455e+01   7.853868e+00
  -6.030249e+00  -1.563980e+01
  -1.093221e+01  -5.215684e+01
   5.303962e+01  -2.929354e+01
   7.325156e+01   2.988947e+01
   4.508012e+01   7.186910e+01
  -4.393418e+00   7.416916e+01
  -6.895033e+01   3.698773e+01
  -7.000425e+01  -4.901512e+00
  -5.004044e+00  -4.403816e+01
   1.240132e+01  -3.546085e+01
   2.341187e+01  -8.011964e+00
  -3.783976e+00   1.269576e+01
  -1.511079e+01  -6.894840e+00
   3.794017e+00  -5.685645e+00
   3.439188e+01  -3.437646e+00
   4.270308e+01   4.046333e+01
  -1.827225e+00   7.051518e+01
  -8.206628e+01   3.264259e+01
  -9.668940e+01  -2.709052e+01
  -5.311155e+01  -8.657199e+01
   2.601767e+01  -7.000186e+01
   3.241715e+01  -7.040954e+01
   5.110872e+01   1.762189e+00
   3.413952e+01   2.404735e+01
   9.578754e+00   1.091734e+01
   2.648475e+01  -5.144854e+00
   4.251295e+01   9.738144e-01
   3.574948e+01   2.955328e+01
  -2.688043e+01   2.717953e+01
  -6.064285e+01   1.644527e+01
  -3.729661e+01  -2.715249e+01
   2.505663e+01  -5.817622e+01
   7.917921e+01  -2.886418e+01
   8.163654e+01   7.725337e+01
  -2.375069e+00   1.027371e+02
  -5.307668e+01   5.223549e+01
  -7.954609e+01  -1.475606e+01
  -7.935941e+01  -5.005763e+00
  -1.912906e+01  -5.427516e+01
  -3.211722e-01  -5.825052e+01
   4.050451e+01  -3.017592e+01
   2.537089e+01  -2.343796e+01
   1.937798e+01  -3.236627e+01
   3.495047e+01  -2.844184e+01
   4.049191e+01   1.259824e+01
   3.336574e+01   5.871831e+01
   7.610377e+00   7.466294e+01
  -3.710530e+01   4.074916e+01
  -5.153622e+01  -2.363499e+01
  -4.450306e+01  -4.701205e+01
  -7.274439e+00  -5.872494e+01
   3.154928e+01  -2.259471e+01
   2.636191e+01   1.611889e+01
  -7.296268e+00   2.322243e+01
  -1.433066e+01   1.665753e+01
   6.155996e+00   2.822689e+00
   3.752324e+01   1.420657e+01
   1.693694e+01   2.190479e+01
  -3.076361e+01   1.046601e+01
  -6.626960e+01  -9.498671e+00
  -4.850757e+01  -2.627038e+01
   9.371757e+00  -4.148738e+01
   5.609902e+01  -1.402591e+01
   4.014099e+01   9.620489e+00
   7.849444e+00   2.049401e+01
  -2.187604e+01   8.348953e+00
  -2.983775e+01  -1.509737e+01
   2.012875e+00  -3.008710e+01
   8.499796e+00  -2.270548e+01
   3.074598e+01   2.672203e+00
   2.195373e+01   2.405692e+01
   1.566265e+01   2.314251e+01
   1.661122e+01   5.245016e+00
   2.633826e+01   6.693042e+00
   1.630752e+01   3.038218e+01
  -2.098457e+01   6.478136e+01
  -6.060225e+01   4.317144e+01
  -6.667132e+01  -1.094307e+01
  -3.961535e+01  -6.696400e+01
   1.218951e+01  -5.850011e+01
   3.253614e+01  -3.310146e+01
   2.331012e+01   1.831543e+00
  -2.667004e+01  -5.976312e-01
  -5.165250e+01  -1.710162e+01
  -2.512899e+01  -3.612703e+01
   3.394356e+01  -3.063356e+01
   6.776323e+01  -1.222603e+01
   5.748240e+01   3.180844e+01
   7.882192e+00   1.968367e+01
  -2.364612e+01   1.243146e+01
  -1.984320e+01  -9.048702e+00
   1.800764e+01  -8.416687e+00
   2.862089e+01   2.786888e+00
   1.795005e+01   5.540897e+01
  -4.707146e+01   6.302369e+01
  -6.649141e+01   2.262270e+01
  -2.937487e+01  -3.123551e+01
   9.537151e+00  -8.761786e+01
   3.471703e+01  -3.037055e+01
   3.160626e+01   1.975582e+01
   3.428733e+00   4.765202e+01
  -1.179098e+01   2.624811e+01
  -2.743152e+01   9.744992e-01
  -1.379220e+01  -8.481186e+00
  -5.309058e+00  -4.490561e+00
  -3.097101e+00   6.510459e+00
  -9.902774e+00  -1.495636e+01
  -2.957354e+01  -3.935591e+01
  -8.686742e+00  -3.714021e+01
   1.774722e+01  -8.503886e+00
   5.342111e+01   6.944449e+00
   2.237372e+01   2.872879e+01
   3.658983e+00   2.570362e+01
  -3.090728e+01   9.423305e+00
  -2.022005e+01  -5.914292e+00
  -7.956746e+00  -5.194315e+00
   1.245884e+01  -7.380026e+00
   7.263298e+00  -1.726110e+00
  -2.823511e+00   4.357391e-01
   2.364576e-01  -5.974392e-01
   1.798139e+01  -3.364884e+00
   3.603688e+01   9.071789e+00
   1.035933e+01   2.564420e+01
  -5.256471e+01   2.884645e+01
  -8.109527e+01   1.619938e+01
  -6.327246e+01  -4.926005e+01
  -1.043460e+01  -5.742292e+01
   4.095895e+01  -4.562015e+01
   4.429329e+01  -1.581772e+01
   2.603045e+01   6.925056e+00
   4.983273e+00   1.932745e+01
   3.814595e+00   5.758425e+00
   4.631856e+00   7.026539e+00
   1.166914e+01   1.864457e+01
   3.557467e-02   3.901548e+01
  -1.091744e+01   2.060831e+01
  -2.393595e+01  -1.149047e+01
  -3.131371e+01  -4.955848e+01
  -1.323872e+01  -3.522824e+01
   2.613041e+01  -1.383897e+01
   3.730742e+01   2.984261e+01
   1.612906e+01   4.502374e+01
  -2.799339e+01   2.131286e+01
  -3.950779e+01  -6.599827e+00
  -1.509040e+01  -2.300793e+01
   2.039667e+01  -2.320949e+01
   1.738874e+01  -7.016600e+00
  -6.715770e+00   3.536828e+00
  -2.531468e+01  -2.235437e+00
  -4.789575e+00  -1.082942e+01
   3.557856e+01  -2.202418e+01
   5.128464e+01  -3.595921e+00
   3.035011e+01   1.260382e+01
  -7.059110e+00   3.991539e+01
  -2.996761e+01   3.301677e+01
  -2.322330e+01   6.073526e+00
   1.546961e+00  -1.318360e+01
   8.551636e+00  -2.072799e+01
   1.111962e+01   2.394433e+00
   2.762205e+00   2.029722e+01
  -2.182097e+00   1.249108e+01
  -1.281955e+01   1.352264e+00
  -1.574882e+01  -7.639912e+00
  -7.353960e+00  -7.177252e+00
   4.516962e+00   8.773493e+00
  -5.933101e-01   7.843874e+00
  -4.011035e+00  -8.332555e+00
  -5.625149e+00  -2.377238e+01
   8.830589e+00  -2.011910e+01
   1.928137e+01   9.138216e+00
   1.560456e+01   1.836400e+01
  -1.864684e+01   4.638454e+00
  -2.047558e+01  -1.488614e+01
  -7.773571e+00  -2.358843e+01
   1.942787e+01  -1.139224e+01
   3.629790e+01  -1.588478e+00
   1.624580e+01   1.940985e+01
  -1.101789e+01   2.185766e+01
  -2.450690e+01   1.587859e+00
  -1.279048e+01   4.470893e+00
   6.284345e+00  -4.224661e+00
   8.387534e+00   2.794793e+00
  -8.998867e+00   1.178643e+01
  -3.016146e+01   8.987672e+00
