
 $NMID
 id='ANONYMOUS ', fmtdat='(2E16.6)'
 volume=1.0
 tramp=1.0
 $END
  -2.972911e+03  -3.192222e+02
  -1.900241e+03  -1.217835e+03
   2.359766e+02  -1.579573e+03
   9.476241e+02  -7.762445e+02
   6.993707e+02  -3.667410e+02
   7.154460e+01  -9.043609e-01
  -3.266215e+02  -1.075859e+02
   5.980560e+01  -3.028658e+02
   4.054698e+02  -5.124662e+02
   5.856308e+02  -1.575678e+01
   2.793014e+02   4.859006e+02
  -4.622927e+00   6.316337e+02
  -1.675901e+02   1.474468e+02
  -1.038612e+02  -3.282715e+02
   2.149829e+02  -3.982970e+02
   3.413513e+02  -4.926478e+01
   2.221639e+02   3.468501e+02
  -9.343135e+01   6.117607e+02
  -4.190005e+02   1.948727e+02
  -3.669194e+02  -1.736659e+02
  -8.595302e+01  -2.446576e+02
   9.957479e+01  -1.739998e+02
   4.478269e+01  -4.330980e+01
  -1.451505e+02  -1.080471e+02
  -2.396180e+02  -3.767615e+02
  -1.497770e+01  -3.348125e+02
   4.643776e+02  -7.125920e+01
   5.592918e+02   2.089078e+02
   1.049151e+02   3.736118e+02
  -3.174790e+02   1.303923e+02
  -4.396450e+02  -1.747634e+02
  -1.058128e+02  -2.833845e+02
   3.200431e+02  -2.736973e+02
   4.495254e+02   3.734437e+00
   2.353899e+02   1.514860e+02
   4.476729e+01   2.492102e+02
  -2.950303e+01   1.311023e+02
   6.464608e+01  -1.158948e+02
   2.693601e+02  -1.147462e+02
   2.126002e+02   2.163354e+02
  -1.126640e+02   4.701450e+02
  -3.366332e+02   4.333103e+02
  -2.599731e+02  -7.212389e+01
   3.361391e+01  -3.159634e+02
   1.782719e+02  -1.864116e+01
   1.248240e+02   2.788476e+02
  -6.932322e+01   3.829930e+02
  -3.634615e+02   2.150164e+01
  -4.399490e+02  -2.968629e+02
  -9.119022e+01  -3.449460e+02
   2.815772e+02  -2.310884e+02
   4.572598e+02   2.590430e+01
   2.379089e+02   2.224944e+02
  -1.282604e+02   1.519978e+02
  -2.310720e+02   2.839355e-01
  -1.335712e+02   2.153457e+01
  -3.811185e+01  -4.478009e+00
   4.930635e+01   3.600326e+01
  -8.889804e+01   7.653787e+00
  -2.153554e+02  -8.567677e+01
  -1.159315e+02  -1.470789e+02
   1.635105e+02  -2.351776e+02
   3.022703e+02  -9.569517e+01
   2.450939e+02   6.411614e+01
  -4.941761e+01   3.256096e+02
  -3.027267e+02   3.186326e+02
  -3.913782e+02   9.819740e+01
  -1.831514e+02  -1.334334e+02
  -4.663039e+01  -3.435919e+02
   6.001146e+01  -2.382363e+02
  -7.252380e+00  -1.335171e+02
   1.789628e+01  -1.225694e+02
   1.278439e+02  -1.490073e+02
   2.196326e+02  -5.010139e+01
   1.890998e+02   1.503757e+02
   8.401784e+01   2.265361e+02
  -9.912660e+01   1.642647e+02
  -1.778892e+02  -4.287917e+01
  -8.868121e+01  -2.568216e+02
   9.418942e+01  -2.151763e+02
   2.446326e+02  -7.529949e+01
   2.372747e+02   1.880055e+02
   1.823273e+02   2.531831e+02
  -1.118911e+02   2.566683e+02
  -1.362640e+02   7.832701e+01
  -1.144037e+02   7.256025e+01
  -1.424749e+02   8.355154e+01
  -2.702511e+02   2.593173e+01
  -3.940391e+02  -1.406557e+02
  -2.968620e+02  -3.241006e+02
   2.412328e+01  -3.986365e+02
   3.345606e+02  -3.288501e+02
   4.107668e+02  -1.544708e+02
   2.505443e+02   9.208873e+01
   1.153215e+01   2.243055e+02
  -1.126469e+02   1.306496e+02
   3.828922e+00   1.927976e+01
   1.134089e+02  -5.392565e+01
   1.301194e+02   4.621294e+01
  -2.023562e+01   1.010774e+02
  -9.562189e+01   7.570840e+01
  -7.913003e+01  -5.916232e+01
   5.421312e+01  -8.289657e+01
   1.547934e+02   1.560136e+01
   1.339363e+02   2.274452e+02
  -8.532636e+00   3.358045e+02
  -2.659337e+02   1.868992e+02
  -3.543867e+02  -2.905428e+01
  -2.657156e+02  -2.478611e+02
  -2.722856e+01  -3.000030e+02
   1.131080e+02  -1.317819e+02
   1.494309e+02   8.873811e+00
   2.777141e+01   1.401387e+01
  -5.368608e+01  -5.092308e+01
   4.296221e+00  -1.049069e+02
   1.228703e+02  -4.928358e+01
   1.078890e+02   4.224214e+01
   8.524475e+00   6.266356e+01
  -8.525065e+01  -3.370513e+00
  -3.302617e+01  -8.397362e+01
   1.501418e+02  -8.287823e+01
   3.050611e+02   1.768845e+01
   2.304522e+02   1.716402e+02
   4.099987e+01   2.698306e+02
  -2.266040e+02   1.727423e+02
  -2.636639e+02   3.207682e+01
  -1.187353e+02  -5.175622e+01
   4.073747e+01  -7.762896e+01
   5.536667e+01   2.067283e+01
  -5.482067e+01   6.756983e+01
  -1.764038e+02  -6.746681e+00
  -1.673680e+02  -1.359623e+02
  -4.482966e+01  -1.789568e+02
   9.303781e+01  -1.259879e+02
   1.126383e+02   1.532502e+01
   4.425287e+01   3.559335e+01
  -4.380335e+01  -1.884216e+01
  -1.440154e+01  -1.212703e+02
   8.798377e+01  -9.802125e+01
   2.093347e+02  -6.052989e+00
   1.497733e+02   1.419581e+02
  -1.445926e+01   2.131502e+02
  -1.574101e+02   1.219204e+02
  -1.488364e+02  -1.022382e+01
  -3.958940e+01  -8.470053e+01
   7.034150e+01  -7.158331e+01
   6.386972e+01  -1.567801e+01
  -4.837318e+00   2.954406e+01
  -3.986164e+01  -5.228762e+00
   7.396396e+00  -2.479474e+01
   9.177705e+01  -2.588894e+00
   9.751135e+01   9.934082e+01
   1.869689e-03   1.657043e+02
  -1.527027e+02   1.461736e+02
  -2.113028e+02  -1.552697e+01
  -1.943904e+02  -1.714653e+02
   2.087756e+00  -2.341312e+02
   1.069295e+02  -1.671468e+02
   1.155874e+02  -3.899593e+00
   7.185318e+01   3.236164e+01
   3.233627e+01   2.986843e+01
   5.463129e+01  -8.903016e+00
   9.490558e+01  -6.357026e+00
   5.552533e+01   5.891810e+01
  -3.165726e+01   1.008986e+02
  -1.079429e+02   6.626070e+01
  -9.774389e+01  -3.870495e+01
   1.645854e+01  -1.341912e+02
   1.523480e+02  -1.210436e+02
   1.837580e+02   9.239943e+01
   6.286817e+01   2.015011e+02
  -9.077935e+01   1.847506e+02
  -2.406761e+02   3.725570e+01
  -2.596735e+02  -8.960993e+01
  -8.095926e+01  -1.536764e+02
   4.001236e+01  -1.398162e+02
   1.042233e+02  -6.197038e+01
   6.880173e+01  -6.671559e+01
   6.433879e+01  -8.654471e+01
   8.634813e+01  -7.710685e+01
   1.032442e+02   2.584366e+01
   1.234518e+02   1.546146e+02
   8.554160e+00   2.001186e+02
  -1.164723e+02   1.442116e+02
  -1.679693e+02  -3.412816e+01
  -1.175859e+02  -1.455552e+02
  -6.466118e+00  -1.317533e+02
   7.062451e+01  -8.778286e+01
   5.709086e+01   1.632066e+01
  -6.331666e+00   5.569296e+01
  -2.426433e+01   3.867480e+01
   1.813412e+01   1.503821e+01
   7.965735e+01   1.772716e+01
   4.467901e+01   3.648940e+01
  -6.994330e+01   3.196621e+01
  -1.596009e+02  -2.861700e+00
  -1.549208e+02  -7.276087e+01
   4.920070e+00  -1.100312e+02
   1.337636e+02  -4.517637e+01
   1.337022e+02   4.429554e+00
   3.645647e+01   5.402035e+01
  -6.148398e+01   3.073486e+01
  -7.268113e+01  -2.515685e+01
  -1.401049e+01  -8.181840e+01
   3.904216e+01  -6.132624e+01
   6.707505e+01  -2.868791e+00
   5.482414e+01   3.863217e+01
   4.714304e+01   4.616019e+01
   5.394946e+01   2.808065e+00
   6.309652e+01   1.635652e+00
   5.192253e+01   7.644799e+01
  -1.901823e+01   1.344581e+02
  -1.204141e+02   1.204277e+02
  -1.773704e+02   3.244364e+01
  -1.147115e+02  -1.008051e+02
   1.157103e+01  -1.381505e+02
   9.166357e+01  -8.434307e+01
   5.947590e+01   1.123446e+01
  -5.260333e+01   1.111137e+01
  -1.102544e+02  -5.993536e+01
  -6.270500e+01  -9.872863e+01
   1.002862e+02  -1.132220e+02
   1.827603e+02  -1.736198e+01
   1.506866e+02   5.633407e+01
   2.239586e+01   8.358762e+01
  -6.504978e+01   5.243728e+01
  -4.547911e+01  -6.266141e+00
   3.898592e+01  -2.599955e+01
   9.302967e+01   1.504608e+01
   3.813586e+01   1.098560e+02
  -8.185396e+01   1.334062e+02
  -1.431402e+02   6.702132e+01
  -1.187761e+02  -7.817820e+01
  -1.587091e+01  -1.828046e+02
   7.963123e+01  -1.051065e+02
   1.080190e+02   1.992082e+01
   5.158430e+01   1.252347e+02
  -5.433461e+00   9.402229e+01
  -4.897326e+01   3.381025e+00
  -3.910488e+01  -3.885098e+01
  -1.418389e+01  -1.107174e+01
  -6.848916e+00   1.616294e+01
  -2.615850e+01  -2.319460e+01
  -5.414813e+01  -7.550344e+01
  -2.255518e+01  -1.092654e+02
   5.266115e+01  -4.252016e+01
   1.320276e+02   3.282119e+01
   1.083415e+02   5.975726e+01
   1.192120e+01   5.743101e+01
  -7.102712e+01   2.401378e+01
  -7.865805e+01  -8.910055e-01
  -1.813402e+01  -1.330429e+01
   3.155453e+01  -1.947494e+01
   2.055290e+01  -1.023357e+01
  -1.504421e+01   3.923221e+00
   1.489263e+00   4.489113e+00
   5.005962e+01  -2.245492e+00
   8.705211e+01   2.234956e+01
   2.275463e+01   7.121032e+01
  -1.110596e+02   8.324040e+01
  -2.015919e+02   5.563257e+01
  -1.520866e+02  -5.936748e+01
  -2.584855e+01  -1.536746e+02
   7.701348e+01  -1.251502e+02
   1.214639e+02  -5.966308e+01
   6.920374e+01   1.165205e+01
   2.292262e+01   3.441347e+01
   3.888643e+00   1.349049e+01
   1.368997e+01   1.053317e+01
   2.848768e+01   4.833811e+01
   9.682596e+00   8.155554e+01
  -2.872513e+01   5.834248e+01
  -7.748775e+01  -1.646527e+01
  -7.192458e+01  -8.420733e+01
  -1.624372e+01  -9.760949e+01
   6.862498e+01  -3.131534e+01
   9.248202e+01   5.790031e+01
   3.951530e+01   8.887622e+01
  -6.756403e+01   5.971480e+01
  -1.162371e+02  -1.086112e+01
  -4.691525e+01  -5.853426e+01
   3.022079e+01  -6.938283e+01
   4.015189e+01  -2.848185e+01
  -1.920406e+01   7.557972e+00
  -6.692838e+01  -1.793349e+00
  -1.555191e+01  -2.441430e+01
   7.702281e+01  -5.699168e+01
   1.201339e+02  -2.071427e+01
   7.111299e+01   1.053434e+01
  -1.349100e+01   8.076527e+01
  -6.298979e+01   8.474952e+01
  -4.024760e+01   2.056665e+01
  -3.360100e+00  -5.018730e+01
   2.097635e+01  -4.777086e+01
   3.520915e+01   7.051207e+00
   3.333019e+01   5.465097e+01
  -1.094994e+00   3.936995e+01
  -2.750020e+01  -3.666822e+00
  -3.861448e+01  -2.642218e+01
  -2.039366e+01  -9.383456e+00
   5.649707e+00   1.825945e+01
   8.174176e+00   1.243292e+01
  -1.121682e+00  -2.465853e+01
  -5.158408e+00  -5.189150e+01
   2.239616e+01  -2.581933e+01
   4.329996e+01   2.670020e+01
   1.656307e+01   5.766516e+01
  -4.233972e+01   2.260090e+01
  -5.347103e+01  -3.025131e+01
  -2.289288e+01  -5.219660e+01
   6.363129e+01  -2.929725e+01
   8.921811e+01   2.297315e+01
   4.838588e+01   3.639078e+01
  -2.541833e+01   5.225625e+01
  -6.312613e+01   2.469253e+01
  -2.487569e+01   1.116170e+01
   2.290455e+01  -7.536902e+00
   2.411131e+01   1.013435e+01
  -1.887318e+01   2.415253e+01
  -7.048866e+01   2.132621e+01
