
 $NMID
 id='ANONYMOUS ', fmtdat='(2E16.6)'
 volume=1.0
 tramp=1.0
 $END
  -4.479481e+03  -2.340821e-01
  -2.502590e+03  -2.609129e+03
   7.317672e+02  -2.401327e+03
   2.126222e+03  -7.931227e+02
   1.011500e+03   7.782823e+02
  -7.235883e+02   5.151143e+02
  -8.537299e+02  -3.008482e+02
   4.844383e+01  -1.175998e+03
   8.128596e+02  -6.924029e+02
   9.096997e+02   1.642862e+02
   5.253566e+02   9.646101e+02
  -3.170916e+02   1.011826e+03
  -6.205127e+02   6.834489e+01
  -3.533553e+02  -7.913871e+02
   3.925495e+02  -7.065486e+02
   6.440615e+02  -2.434090e+01
   3.556951e+02   6.344847e+02
  -2.295790e+02   7.185452e+02
  -6.136444e+02   4.984518e+01
  -3.237050e+02  -4.343292e+02
  -3.281962e+01  -4.904030e+02
   2.416670e+02  -2.502144e+02
   2.171202e+02  -2.681692e+01
  -1.315246e+02   1.435560e+02
  -3.695839e+02  -1.196455e+02
  -2.190084e+02  -4.681056e+02
   5.301284e+02  -4.240550e+02
   9.063128e+02   1.424377e+02
   4.039608e+02   6.016017e+02
  -4.526470e+02   4.586345e+02
  -8.054137e+02  -9.661959e+01
  -3.538601e+02  -5.365462e+02
   3.692221e+02  -4.637235e+02
   5.335394e+02  -1.799315e+02
   3.985628e+02   2.653437e+02
   5.591953e+01   4.525753e+02
  -2.187562e+02   2.564696e+02
  -1.711279e+02  -2.671118e+02
   1.472855e+02  -4.506747e+02
   4.709699e+02   9.477871e+01
   1.540063e+02   7.059656e+02
  -3.821090e+02   7.578862e+02
  -6.060885e+02  -1.490581e+02
  -2.021087e+02  -5.286380e+02
   2.755516e+02  -3.591697e+02
   3.889876e+02   3.801202e+02
  -1.211399e+02   6.412002e+02
  -6.121547e+02   9.280206e+01
  -6.483710e+02  -4.382040e+02
  -1.323304e+02  -5.744692e+02
   4.391197e+02  -3.687936e+02
   7.138612e+02   5.560748e+01
   3.331498e+02   3.950796e+02
  -1.243717e+02   3.485788e+02
  -4.587608e+02   4.262006e+01
  -2.011598e+02  -1.897003e+02
   1.458908e+02  -8.043508e+01
   1.316859e+02   1.737833e+02
  -1.476597e+02   1.834564e+02
  -3.341127e+02  -1.435106e+02
  -1.080644e+02  -3.300207e+02
   2.528537e+02  -2.663170e+02
   3.385568e+02  -7.770338e+01
   1.962784e+02   7.233299e+01
  -5.149005e+00   2.294712e+02
  -2.264156e+02   3.413907e+02
  -3.476315e+02   1.723997e+02
  -2.988226e+02  -1.385634e+02
  -6.938141e+01  -4.965799e+02
   1.294889e+02  -3.888233e+02
   1.052249e+02  -1.244074e+02
   2.705272e+01   3.191145e+01
   2.029376e+01  -8.570260e+01
   2.344786e+02  -1.117124e+02
   2.636531e+02   5.459320e+01
   1.804145e+02   2.729628e+02
  -6.748351e+01   2.831590e+02
  -2.123602e+02  -3.406299e+01
  -2.347442e+02  -2.109492e+02
   2.876365e+01  -2.737329e+02
   2.927142e+02  -1.627054e+02
   3.124388e+02   1.765567e+02
   1.670502e+02   3.545530e+02
  -1.349734e+02   3.183249e+02
  -2.522780e+02   1.324670e+02
  -1.457740e+02  -9.840177e+00
  -9.647816e+01   4.603492e+01
  -2.401265e+02   6.220942e+01
  -3.817929e+02  -8.677697e+01
  -3.196075e+02  -2.914522e+02
  -1.244255e+01  -4.463187e+02
   3.350991e+02  -4.367511e+02
   4.923007e+02  -2.022165e+02
   3.469803e+02   7.736371e+01
   6.707752e+01   2.802065e+02
  -1.362778e+02   2.415566e+02
  -8.283389e+01   1.779589e+01
   1.070237e+02  -1.245251e+02
   2.226241e+02   4.586434e+00
   6.300276e+01   1.799038e+02
  -1.780885e+02   1.665511e+02
  -2.014732e+02  -8.496644e+01
   9.252450e+00  -2.050694e+02
   1.651226e+02  -2.514817e+01
   1.896005e+02   2.161150e+02
  -3.109283e+01   3.569564e+02
  -2.541747e+02   1.881266e+02
  -3.313244e+02  -7.598694e+01
  -2.999168e+02  -2.725445e+02
  -9.238836e+01  -2.567805e+02
   1.195825e+02  -1.783675e+02
   1.848778e+02  -4.082697e+01
   5.380244e+01   4.336612e+01
  -7.446962e+01  -4.191611e+01
  -3.312627e+01  -1.368642e+02
   1.394571e+02  -1.193191e+02
   1.854637e+02  -6.006519e-01
   5.503965e+01   7.659805e+01
  -8.446337e+01   1.426347e+01
  -6.257730e+01  -6.314901e+01
   1.243794e+02  -1.069638e+02
   3.215864e+02  -1.507267e+01
   2.760004e+02   1.435634e+02
   6.360371e+01   2.496083e+02
  -2.127835e+02   2.175678e+02
  -2.758810e+02   1.123006e+02
  -1.510885e+02  -5.541718e+01
   2.804953e+01  -1.166339e+02
   9.136787e+01  -6.537871e+00
  -1.561804e+01   9.922655e+01
  -1.701438e+02   6.290024e+01
  -2.107637e+02  -1.037315e+02
  -8.537197e+01  -2.098003e+02
   1.008567e+02  -1.352889e+02
   1.376748e+02  -4.124216e+01
   8.038248e+01   4.718710e+01
  -2.030897e+01   1.364049e+01
  -2.810332e+01  -8.623909e+01
   5.875089e+01  -1.175929e+02
   2.053466e+02  -1.742324e+01
   1.639906e+02   1.277039e+02
   1.273144e+01   2.112751e+02
  -1.801311e+02   1.463646e+02
  -2.056400e+02   9.735161e-01
  -6.127473e+01  -1.191685e+02
   5.972426e+01  -1.120532e+02
   8.366392e+01  -4.446765e+01
   2.437948e+01   2.512997e+01
  -1.947566e+01   1.610605e+01
   9.114710e+00  -1.615472e+00
   6.139062e+01   1.397309e+01
   8.652516e+01   8.599221e+01
  -9.994932e+00   1.514858e+02
  -1.350085e+02   1.739113e+02
  -2.080983e+02   2.102361e+01
  -2.187964e+02  -1.683555e+02
  -3.659794e+01  -2.451671e+02
   1.025978e+02  -1.756028e+02
   1.243342e+02  -1.858236e+01
   5.399869e+01   6.064195e+01
   2.188357e+01   3.833198e+01
   5.431735e+01  -1.414047e+01
   8.458433e+01  -5.994693e+00
   3.286857e+01   4.883311e+01
  -2.854843e+01   9.770163e+01
  -9.590528e+01   4.897922e+01
  -8.734399e+01  -3.599382e+01
   1.561957e+01  -1.068669e+02
   1.417617e+02  -1.076492e+02
   1.941273e+02   4.015415e+01
   1.070039e+02   2.153176e+02
  -1.013246e+02   2.554730e+02
  -2.311197e+02   8.215939e+01
  -2.704414e+02  -8.395948e+01
  -1.168253e+02  -1.412599e+02
   3.936102e+01  -1.465431e+02
   1.017109e+02  -8.580497e+01
   7.968958e+01  -6.798575e+01
   8.051295e+01  -9.556615e+01
   1.027477e+02  -7.818129e+01
   1.241701e+02   1.675292e+01
   1.291051e+02   1.639461e+02
   5.028520e+01   2.216105e+02
  -1.277931e+02   1.527348e+02
  -1.842697e+02   2.626200e+01
  -1.531728e+02  -1.158331e+02
  -1.909243e+01  -1.688756e+02
   8.104595e+01  -1.006203e+02
   7.279292e+01  -4.913116e+00
   3.906935e+00   4.802748e+01
  -9.242624e+00   3.608894e+01
   3.062156e+01   2.061053e+01
   7.931321e+01   1.616187e+01
   3.630521e+01   3.306988e+01
  -5.298722e+01   4.570697e+01
  -1.704804e+02   2.829764e+01
  -1.565225e+02  -5.365308e+01
  -2.650482e+01  -1.011310e+02
   1.024938e+02  -6.317163e+01
   1.393870e+02  -1.291017e+01
   4.203003e+01   3.906965e+01
  -5.640835e+01   3.668655e+01
  -6.023679e+01  -6.993940e+00
   1.699184e+00  -7.299218e+01
   5.161877e+01  -5.573334e+01
   6.050846e+01  -5.089907e+00
   4.264914e+01   5.436222e+01
   3.794758e+01   4.075367e+01
   6.037631e+01  -5.474284e-01
   6.318701e+01   4.600264e+00
   3.230918e+01   7.044395e+01
  -2.549416e+01   1.387060e+02
  -1.120478e+02   1.346887e+02
  -1.599208e+02   2.501783e+01
  -1.273182e+02  -9.488483e+01
  -1.018210e+01  -1.337761e+02
   8.915487e+01  -7.623060e+01
   6.390085e+01   2.389984e+01
  -5.873322e+01   1.868066e+01
  -1.180740e+02  -3.908238e+01
  -7.525392e+01  -1.041712e+02
   7.691066e+01  -1.086707e+02
   1.688788e+02  -5.343618e+01
   1.468689e+02   4.448833e+01
   3.279280e+01   8.094271e+01
  -5.891122e+01   7.109199e+01
  -4.684898e+01   3.609370e+00
   3.276117e+01  -2.653306e+01
   1.081888e+02   1.798873e+01
   4.539976e+01   1.230802e+02
  -9.593747e+01   1.427813e+02
  -1.740608e+02   5.612626e+01
  -1.326762e+02  -9.173446e+01
  -1.729791e+01  -1.898086e+02
   1.032040e+02  -1.392555e+02
   1.039858e+02   1.855453e+01
   6.141393e+01   1.193557e+02
  -7.499781e-01   1.078162e+02
  -4.167974e+01   1.815066e+01
  -5.988787e+01  -3.634310e+01
  -2.764338e+01  -6.556804e+00
  -3.935876e+00   2.066276e+01
  -1.645666e+01  -1.436661e+01
  -6.626233e+01  -8.497418e+01
  -3.909154e+01  -1.110519e+02
   4.864795e+01  -4.553107e+01
   1.417929e+02   5.372322e+01
   1.317277e+02   7.369993e+01
   1.744917e+01   5.361489e+01
  -9.509365e+01   2.081565e+01
  -9.035397e+01   1.038912e+01
  -7.817220e+00  -5.551447e+00
   4.446265e+01  -2.132209e+01
   1.381281e+01  -1.977171e+01
  -2.182066e+01  -9.195767e-01
   5.553187e+00   7.730866e+00
   7.260789e+01   7.031618e-01
   8.538680e+01   3.005378e+01
   3.885196e+00   6.723990e+01
  -1.078563e+02   8.631350e+01
  -1.869093e+02   3.747496e+01
  -1.286532e+02  -7.221499e+01
  -1.269214e+01  -1.479243e+02
   7.153724e+01  -1.710701e+02
   1.084072e+02  -4.478810e+01
   7.848556e+01   1.973791e+01
   2.141762e+01   3.354263e+01
  -4.035419e+00   7.853479e+00
   9.060302e+00   5.075195e+00
   2.958448e+01   4.706843e+01
   3.341111e+01   8.498412e+01
  -2.162699e+01   6.697678e+01
  -7.332810e+01  -2.875006e+01
  -7.417451e+01  -1.149994e+02
  -1.433223e+01  -1.054493e+02
   8.372256e+01  -1.709986e+01
   8.993657e+01   7.373115e+01
   3.454191e+01   8.600478e+01
  -6.461334e+01   5.462009e+01
  -9.267666e+01  -2.365921e+01
  -3.973595e+01  -5.340812e+01
   2.752181e+01  -5.547649e+01
   2.636461e+01  -2.589121e+01
  -3.622919e+01  -2.598391e+00
  -7.505088e+01   6.434512e+00
  -1.424155e+01  -2.288509e+01
   6.743219e+01  -7.172532e+01
   9.920108e+01  -5.799039e+01
   7.570613e+01   1.312667e+01
  -2.434962e+01   8.859614e+01
  -5.307525e+01   8.863304e+01
  -3.524577e+01   8.518903e+00
   4.716148e+00  -5.797692e+01
   3.560830e+01  -3.872270e+01
   3.320197e+01   2.071094e+01
   2.430724e+01   5.786013e+01
  -2.790261e+00   3.461939e+01
  -3.673533e+01  -8.452499e+00
  -3.873924e+01  -1.246948e+01
  -1.922294e+01  -1.329017e+00
  -1.300280e+00   1.165025e+01
   1.142425e+01  -3.802610e+00
   7.665778e+00  -3.085409e+01
   1.543703e+01  -4.364539e+01
   3.214868e+01  -8.430205e+00
   3.591867e+01   4.979475e+01
  -9.873909e-01   6.822477e+01
  -4.629568e+01   1.280998e+01
  -4.813656e+01  -3.568453e+01
  -1.080820e+01  -6.433285e+01
   5.717328e+01  -2.985526e+01
   8.663353e+01   1.664077e+01
   5.507948e+01   4.212863e+01
  -2.788188e+01   4.120331e+01
  -5.549094e+01   2.209324e+01
  -2.235725e+01   9.451044e+00
   3.472679e+01   5.103154e+00
   3.569028e+01   1.897654e+01
  -3.277509e+01   3.663617e+01
  -1.048935e+02   1.927381e+01
