
 $NMID
 id='ANONYMOUS ', fmtdat='(2E16.6)'
 volume=1.0
 tramp=1.0
 $END
   4.226057e+03   5.592863e+01
   2.242003e+03   2.499848e+03
  -7.901718e+02   2.890541e+03
  -2.050724e+03   7.248038e+02
  -7.402278e+02  -6.625530e+02
   6.456992e+02  -3.145042e+02
   7.821371e+02   3.345240e+02
  -1.069589e+02   9.708646e+02
  -9.112006e+02   6.577639e+02
  -8.741486e+02  -2.354281e+02
  -3.838930e+02  -8.406299e+02
   1.703077e+02  -8.366115e+02
   6.289910e+02  -5.185813e+01
   3.138803e+02   7.132622e+02
  -3.602280e+02   5.651228e+02
  -6.136284e+02  -2.521167e+01
  -2.994622e+02  -6.616480e+02
   3.199315e+02  -5.975053e+02
   6.347240e+02  -5.733383e+01
   2.959325e+02   3.802643e+02
   7.572808e+01   4.083053e+02
  -2.445360e+02   2.051925e+02
  -2.254465e+02  -1.544118e+01
   1.385839e+02  -5.709750e+01
   4.104645e+02   1.420365e+02
   1.599672e+02   4.579337e+02
  -4.792527e+02   3.177609e+02
  -7.838693e+02  -1.260318e+02
  -3.447544e+02  -5.574720e+02
   4.301983e+02  -3.914420e+02
   6.830010e+02   2.404202e+02
   2.928283e+02   4.732691e+02
  -3.503574e+02   4.128658e+02
  -6.058875e+02   1.169048e+02
  -3.984765e+02  -3.008884e+02
  -5.957551e+01  -4.857765e+02
   1.958102e+02  -2.500939e+02
   1.104146e+02   2.490438e+02
  -2.504887e+02   3.699834e+02
  -4.983634e+02  -1.054201e+02
  -1.618063e+02  -7.165406e+02
   3.875044e+02  -6.531498e+02
   6.014115e+02   1.936539e+02
   2.428653e+02   5.117687e+02
  -3.838951e+02   2.865603e+02
  -3.720376e+02  -3.103489e+02
   9.726990e+01  -5.377511e+02
   5.446149e+02  -9.749692e+01
   5.738631e+02   3.996338e+02
   1.949280e+02   6.093142e+02
  -3.656553e+02   3.206492e+02
  -6.200748e+02  -7.193274e+01
  -2.692831e+02  -3.701347e+02
   1.585849e+02  -3.396354e+02
   3.972400e+02  -3.449143e+01
   1.412515e+02   1.996218e+02
  -1.560057e+02   5.770684e+01
  -1.437755e+02  -1.594709e+02
   2.104189e+02  -1.362131e+02
   3.375209e+02   9.683625e+01
   1.680339e+02   3.246618e+02
  -2.179894e+02   1.972024e+02
  -3.006876e+02   5.551151e+01
  -1.872768e+02  -5.403142e+01
   3.260262e+01  -2.668717e+02
   2.321334e+02  -3.255591e+02
   3.782855e+02  -2.228013e+02
   2.990234e+02   1.241597e+02
   1.174058e+02   4.382438e+02
  -1.443064e+02   3.323962e+02
  -1.102946e+02   1.206385e+02
  -4.450542e+01  -3.061091e+01
  -4.559759e+01   1.231066e+02
  -2.270245e+02   1.318401e+02
  -2.322606e+02  -6.250781e+01
  -1.547374e+02  -2.666617e+02
   7.918300e+01  -2.603037e+02
   2.155261e+02   1.434404e+01
   1.789280e+02   2.478486e+02
  -4.517476e+01   3.002406e+02
  -2.783254e+02   1.050214e+02
  -3.425126e+02  -1.696730e+02
  -1.852761e+02  -3.719398e+02
   1.138342e+02  -3.069006e+02
   2.302001e+02  -9.965890e+01
   1.411762e+02  -1.438940e+01
   1.068737e+02  -5.047667e+01
   2.366219e+02  -6.596804e+01
   3.972829e+02   1.237444e+02
   3.063167e+02   3.197952e+02
  -1.555671e+01   4.006444e+02
  -3.183254e+02   3.939159e+02
  -4.468591e+02   2.340852e+02
  -3.436418e+02  -1.361062e+02
  -7.609947e+01  -2.955559e+02
   1.168311e+02  -2.163574e+02
   7.467543e+01  -9.345514e+00
  -9.402951e+01   8.365366e+01
  -1.858156e+02  -6.294709e+00
  -4.616864e+01  -1.930408e+02
   1.918040e+02  -1.656353e+02
   1.683373e+02   6.786112e+01
  -2.605595e+01   1.971208e+02
  -1.740311e+02   3.395485e+01
  -1.522924e+02  -2.447635e+02
   3.619066e+01  -3.326762e+02
   2.274460e+02  -2.111395e+02
   3.395312e+02   3.865316e+01
   2.845843e+02   2.418358e+02
   6.437699e+01   2.851758e+02
  -1.238594e+02   1.571302e+02
  -1.761031e+02   3.161254e+01
  -5.354052e+01  -3.818979e+01
   7.385042e+01   4.181580e+01
   6.090399e+00   1.317764e+02
  -1.502010e+02   8.863798e+01
  -1.845512e+02  -1.220360e+01
  -5.299748e+01  -7.706056e+01
   9.617586e+01  -1.094468e+01
   5.673637e+01   6.670174e+01
  -1.168287e+02   1.002852e+02
  -2.828013e+02  -1.861790e+01
  -2.686926e+02  -1.134775e+02
  -9.093013e+01  -2.364705e+02
   2.011810e+02  -2.325910e+02
   2.821467e+02  -9.953244e+01
   1.744281e+02   4.731110e+01
  -3.943490e+01   1.039412e+02
  -8.857731e+01  -1.618378e+01
   2.834332e+01  -1.093251e+02
   1.926933e+02  -5.935798e+01
   2.142064e+02   1.337861e+02
   5.462566e+01   1.882576e+02
  -1.091006e+02   1.545481e+02
  -1.460099e+02   1.910999e+01
  -7.139879e+01  -4.838668e+01
   3.021006e+01  -4.408635e+00
   3.837024e+01   8.724334e+01
  -6.294013e+01   1.012935e+02
  -1.988484e+02   2.111467e+01
  -1.734513e+02  -1.178477e+02
  -1.295911e+01  -2.356611e+02
   1.621748e+02  -1.740666e+02
   2.046498e+02  -7.823433e+00
   5.158643e+01   1.077792e+02
  -6.133398e+01   1.141464e+02
  -8.299020e+01   2.558740e+01
  -1.561226e+01  -2.823103e+01
   1.779235e+01  -1.898695e+01
  -7.174163e+00   8.402858e+00
  -6.742284e+01  -4.935269e+00
  -6.500064e+01  -7.541102e+01
  -1.525486e+01  -1.369300e+02
   1.534570e+02  -1.341688e+02
   2.339334e+02  -1.400941e+01
   1.689960e+02   1.500179e+02
   4.848705e+01   2.251658e+02
  -1.086669e+02   1.690457e+02
  -1.288101e+02   2.580418e+01
  -5.638123e+01  -5.850737e+01
  -2.535701e+01  -3.318346e+01
  -5.759347e+01   1.781156e+01
  -7.670373e+01  -2.285832e+00
  -4.121959e+01  -4.891487e+01
   3.351227e+01  -9.540029e+01
   9.974398e+01  -4.342812e+01
   8.230861e+01   3.320696e+01
  -7.239211e+00   1.214484e+02
  -1.393027e+02   8.433964e+01
  -1.720950e+02  -7.496170e+01
  -5.762383e+01  -1.908394e+02
   1.133096e+02  -2.295813e+02
   2.352603e+02  -9.095767e+01
   2.716085e+02   9.196054e+01
   1.137559e+02   1.578930e+02
  -4.409428e+01   1.485990e+02
  -1.068329e+02   7.760398e+01
  -7.266468e+01   8.074733e+01
  -6.726275e+01   9.075892e+01
  -9.963329e+01   8.843243e+01
  -1.199343e+02  -3.350652e+01
  -9.143066e+01  -1.593288e+02
  -4.197990e+01  -2.344422e+02
   9.939073e+01  -1.694160e+02
   1.681821e+02  -1.714528e+01
   1.350890e+02   1.271309e+02
   1.799665e+01   1.673536e+02
  -7.557522e+01   9.180415e+01
  -5.927982e+01   3.032976e+00
  -2.747113e+00  -4.312316e+01
   1.560015e+01  -3.354366e+01
  -3.181958e+01  -2.232278e+01
  -8.427323e+01  -2.480802e+01
  -3.611541e+01  -2.962685e+01
   5.059709e+01  -3.163348e+01
   1.744082e+02   4.849760e+00
   1.470495e+02   3.901439e+01
   2.205002e+01   9.236014e+01
  -1.024193e+02   4.748879e+01
  -1.324436e+02   1.479403e+01
  -4.560183e+01  -3.733816e+01
   5.670156e+01  -3.860105e+01
   6.933774e+01   2.209160e+01
  -2.696386e+00   6.236398e+01
  -5.426834e+01   5.936934e+01
  -6.401236e+01  -2.954049e+00
  -4.545342e+01  -4.420772e+01
  -4.021696e+01  -3.651994e+01
  -5.549873e+01  -3.913969e-01
  -6.678897e+01   4.073310e+00
  -4.357835e+01  -6.059933e+01
   2.308425e+01  -1.283460e+02
   1.207917e+02  -9.912774e+01
   1.472922e+02  -3.076421e+01
   1.337641e+02   9.787759e+01
  -7.573409e+00   1.191208e+02
  -7.725909e+01   5.107039e+01
  -6.355999e+01  -2.038550e+01
   5.443648e+01  -1.376558e+01
   1.182842e+02   6.108822e+01
   8.108394e+01   9.726403e+01
  -9.622846e+01   1.069385e+02
  -1.794533e+02   3.262188e+01
  -1.560562e+02  -2.564250e+01
  -4.261760e+01  -7.910697e+01
   6.574124e+01  -7.871309e+01
   4.733754e+01  -5.830338e+00
  -3.540948e+01   1.886339e+01
  -9.674605e+01  -2.265031e+01
  -4.141876e+01  -1.256042e+02
   9.468419e+01  -1.381914e+02
   1.714195e+02  -6.172255e+01
   1.148433e+02   9.193460e+01
  -2.364308e+01   1.766147e+02
  -8.720402e+01   1.397163e+02
  -9.580349e+01  -6.280302e+00
  -4.659686e+01  -1.218487e+02
   7.482785e+00  -9.984798e+01
   4.671034e+01  -1.826163e+01
   5.862688e+01   3.460958e+01
   2.572197e+01   1.009399e+01
   5.196455e+00  -2.129333e+01
   1.844570e+01   1.664466e+01
   5.698579e+01   8.447904e+01
   3.169688e+01   1.126091e+02
  -5.341902e+01   4.136283e+01
  -1.350815e+02  -3.856036e+01
  -1.289828e+02  -6.287938e+01
  -1.689672e+01  -4.879350e+01
   9.485835e+01  -1.631257e+01
   9.127973e+01  -6.735509e+00
   1.089907e+01   6.366864e+00
  -3.823198e+01   2.299717e+01
  -1.474442e+01   1.796551e+01
   1.896232e+01   1.838753e+00
  -5.300922e+00  -8.952539e+00
  -6.928628e+01  -5.749141e+00
  -7.378613e+01  -2.852330e+01
  -3.047910e+00  -7.545984e+01
   1.232078e+02  -1.054802e+02
   1.810898e+02  -4.229896e+01
   1.399172e+02   7.220706e+01
   2.047092e+01   1.573939e+02
  -5.971142e+01   1.475601e+02
  -1.100211e+02   4.586363e+01
  -6.426162e+01  -1.399121e+01
  -2.104442e+01  -3.746997e+01
   1.607329e+00  -6.527262e+00
  -9.505464e+00  -5.336380e+00
  -3.282869e+01  -4.445365e+01
  -2.401389e+01  -7.640522e+01
   2.599246e+01  -7.102422e+01
   7.818502e+01   2.082447e+01
   6.883888e+01   1.206932e+02
  -4.175849e+00   9.585125e+01
  -8.573779e+01   2.912992e+01
  -8.374925e+01  -6.257866e+01
  -3.973717e+01  -9.306586e+01
   6.098047e+01  -4.847750e+01
   8.872451e+01   1.378065e+01
   3.966180e+01   5.050293e+01
  -3.039976e+01   5.284647e+01
  -3.013149e+01   2.398100e+01
   2.935732e+01  -1.710535e+00
   6.409743e+01  -5.107869e+00
   1.512630e+01   2.721315e+01
  -7.939821e+01   5.120435e+01
  -1.061832e+02   5.776306e+01
  -6.674412e+01  -8.379136e+00
   1.993371e+01  -6.111143e+01
   4.816916e+01  -7.520225e+01
   3.551807e+01  -9.892529e+00
  -2.386432e+00   5.268294e+01
  -2.382991e+01   4.421584e+01
  -3.192832e+01  -1.798285e+01
  -2.234538e+01  -5.474521e+01
   1.718371e+00  -3.602832e+01
   3.256371e+01   9.075027e+00
   3.781083e+01   1.909143e+01
   2.043894e+01   8.297218e-01
  -1.102107e+00  -1.134161e+01
  -1.023671e+01   2.580962e+00
  -1.002356e+01   2.880415e+01
  -1.531615e+01   3.224339e+01
  -3.299464e+01   5.398517e+00
  -1.802548e+01  -4.269899e+01
   1.109535e+01  -5.708508e+01
   4.267191e+01  -1.412091e+01
   4.939007e+01   3.548922e+01
   1.384463e+01   5.610287e+01
  -5.668678e+01   2.326316e+01
  -8.227279e+01  -1.853094e+01
  -4.888887e+01  -3.953711e+01
   2.820472e+01  -3.865804e+01
   6.141941e+01  -1.379108e+01
   2.314318e+01  -5.997991e+00
  -3.591533e+01  -3.752091e+00
  -3.253722e+01  -1.610400e+01
   3.360579e+01  -2.910445e+01
   9.624453e+01  -9.317222e+00
