
 $NMID
 id='ANONYMOUS ', fmtdat='(2E16.6)'
 volume=1.0
 tramp=1.0
 $END
  -2.820939e+03  -5.984378e+02
  -1.519488e+03  -1.357331e+03
   3.515262e+02  -1.955157e+03
   1.504490e+03  -6.993172e+02
   7.833774e+02  -1.127463e+02
  -1.478824e+02   1.470985e+02
  -1.958446e+02  -2.105405e+02
  -7.390155e+00  -3.387532e+02
   5.087655e+02  -4.546593e+02
   4.676854e+02   6.043687e+01
   3.383309e+02   5.337183e+02
  -1.220646e+01   5.244939e+02
  -1.753809e+02   7.392732e+01
  -4.113636e+01  -3.455402e+02
   1.932569e+02  -4.733533e+02
   4.549780e+02  -3.964900e+01
   2.572322e+02   4.577648e+02
  -2.899617e+02   5.103630e+02
  -3.834344e+02   2.277239e+02
  -3.310820e+02  -2.018840e+02
  -8.244953e+01  -2.943556e+02
   1.026407e+02  -1.687721e+02
   1.045732e+02  -5.163270e+01
  -1.479007e+02  -8.828234e+01
  -1.499148e+02  -2.371655e+02
  -1.157315e+01  -3.610403e+02
   4.385683e+02  -1.511898e+02
   5.385985e+02   2.157883e+02
   1.916433e+02   3.454717e+02
  -2.290451e+02   2.452332e+02
  -4.318447e+02  -1.819615e+02
  -1.320872e+02  -3.271320e+02
   2.987288e+02  -2.847177e+02
   3.501081e+02  -7.533411e+01
   2.287567e+02   1.857842e+02
  -3.452020e+01   2.743279e+02
  -7.656775e+01   1.708719e+02
   6.363259e+01  -1.515440e+02
   2.046284e+02  -9.159756e+01
   2.469373e+02   6.583097e+01
  -6.037598e+01   4.215917e+02
  -3.490385e+02   2.981733e+02
  -3.085248e+02  -2.905945e+01
  -4.780671e+01  -2.783966e+02
   1.490317e+02  -1.661986e+02
   1.934154e+02   1.713917e+02
  -7.562243e+01   3.811899e+02
  -3.761248e+02   6.580802e+01
  -3.628814e+02  -3.618430e+02
  -1.261809e+02  -4.263183e+02
   3.064850e+02  -1.527381e+02
   4.765065e+02   7.752898e+01
   2.476883e+02   2.895637e+02
  -5.373394e+01   1.370825e+02
  -2.368520e+02   5.893446e+00
  -2.008262e+02  -2.938606e+01
   7.377867e+00  -3.236332e+01
   7.705868e+00   7.299951e+01
  -1.083288e+02   1.906844e+01
  -1.603201e+02  -6.299639e+01
  -1.430773e+02  -2.108253e+02
   1.521197e+02  -1.777541e+02
   2.802148e+02  -1.570065e+01
   2.164409e+02   1.155571e+02
  -3.758484e+01   2.665401e+02
  -3.005697e+02   2.605497e+02
  -3.780592e+02   6.778280e+01
  -1.840163e+02  -1.366275e+02
  -1.528966e+01  -3.273714e+02
   9.841184e+01  -2.543786e+02
   1.720516e+01  -1.598442e+02
   2.494875e+01  -9.024033e+01
   9.646932e+01  -1.011105e+02
   2.220061e+02  -4.758750e+01
   1.783070e+02   1.467776e+02
   7.395412e+01   1.998155e+02
  -8.251860e+01   1.551450e+02
  -1.404275e+02  -4.894678e+01
  -8.293507e+01  -2.101567e+02
   5.744611e+01  -2.199369e+02
   2.258013e+02  -4.097905e+01
   2.229179e+02   1.601643e+02
   1.308676e+02   3.202377e+02
  -8.706616e+01   1.991630e+02
  -1.411241e+02   1.021824e+02
  -1.258210e+02   4.578775e+01
  -1.214652e+02   3.282926e+01
  -2.688803e+02   3.474963e+01
  -3.359344e+02  -1.133465e+02
  -2.263312e+02  -2.836945e+02
   2.839817e+01  -3.601877e+02
   3.183306e+02  -3.017810e+02
   4.366098e+02  -8.946310e+01
   2.234070e+02   1.068658e+02
  -1.335652e+01   2.014587e+02
  -1.086599e+02   1.718138e+02
  -4.462254e+01   3.495316e+01
   9.058907e+01  -7.849591e+00
   1.370081e+02   4.030313e+01
   6.512966e+00   1.383036e+02
  -1.120158e+02   1.210662e+02
  -9.692199e+01  -4.087781e+01
   3.710223e+01  -1.070225e+02
   1.314228e+02   3.028727e+01
   1.300288e+02   2.072567e+02
  -4.021266e+01   2.904581e+02
  -2.134892e+02   1.402785e+02
  -2.988169e+02  -6.886071e+01
  -2.420781e+02  -2.665447e+02
  -3.870171e-01  -2.362992e+02
   1.185696e+02  -1.006076e+02
   1.110845e+02   6.905366e+00
   2.178925e+01   1.799711e+01
  -4.975757e+01  -5.997004e+01
   8.060169e+00  -9.599948e+01
   1.211422e+02  -4.803092e+01
   1.214220e+02   3.475729e+01
   1.910945e+01   4.604186e+01
  -7.122121e+01  -1.130979e+01
  -2.995115e+01  -9.894281e+01
   1.388593e+02  -8.070048e+01
   2.542884e+02   4.474890e+01
   2.164018e+02   1.512844e+02
   8.751697e+00   2.048992e+02
  -1.988494e+02   1.974203e+02
  -2.260884e+02   5.277020e+01
  -1.032290e+02  -6.232434e+01
   5.192800e+01  -5.540962e+01
   5.226853e+01   1.147636e+01
  -5.773589e+01   5.688510e+01
  -1.462438e+02  -1.200139e+01
  -1.188951e+02  -1.159257e+02
  -3.790520e+01  -1.698168e+02
   8.492011e+01  -9.209188e+01
   1.048827e+02   2.401013e+01
   4.557434e+01   3.511839e+01
  -2.682981e+01  -1.866387e+01
   1.120559e+00  -1.044653e+02
   8.570097e+01  -7.503755e+01
   1.732225e+02   2.691667e+01
   1.222334e+02   1.301000e+02
  -1.322109e+01   1.768183e+02
  -1.505351e+02   1.178120e+02
  -1.616874e+02   1.049362e+01
  -3.259675e+01  -7.065949e+01
   6.692482e+01  -6.817245e+01
   5.570434e+01  -2.025693e+01
  -5.454642e+00   2.625682e+01
  -2.683050e+01   2.723839e+00
   5.163835e+00  -2.692867e+01
   6.628534e+01   6.593370e+00
   7.891530e+01   7.713419e+01
   5.844369e+00   1.271612e+02
  -1.444992e+02   1.080945e+02
  -2.038585e+02  -4.053199e+01
  -1.278368e+02  -1.736658e+02
  -6.468505e+00  -2.097056e+02
   8.975093e+01  -1.151824e+02
   1.019873e+02  -2.473039e+00
   5.683590e+01   4.856842e+01
   2.401212e+01   2.579482e+01
   4.924714e+01  -6.863767e+00
   6.724520e+01   5.946507e+00
   4.666379e+01   5.009583e+01
  -3.069893e+01   8.654221e+01
  -1.065066e+02   5.437395e+01
  -7.966356e+01  -5.002063e+01
   9.737923e+00  -1.093054e+02
   1.442149e+02  -5.223742e+01
   1.581700e+02   8.192129e+01
   4.226243e+01   1.856371e+02
  -1.294299e+02   1.893104e+02
  -2.419414e+02   4.573595e+01
  -2.029941e+02  -8.487728e+01
  -7.741134e+01  -1.584145e+02
   5.014470e+01  -1.135326e+02
   8.528569e+01  -4.440777e+01
   6.082977e+01  -5.219759e+01
   6.276650e+01  -7.848067e+01
   8.704039e+01  -6.152101e+01
   9.789015e+01   2.948968e+01
   1.115766e+02   1.424929e+02
   2.962600e+00   1.997937e+02
  -1.095037e+02   1.107633e+02
  -1.452520e+02  -1.090789e+01
  -1.002054e+02  -1.227706e+02
   8.753123e+00  -1.334653e+02
   7.292023e+01  -5.925824e+01
   5.459973e+01   1.329089e+01
  -1.242025e+01   4.249867e+01
  -2.803156e+01   2.843665e+01
   2.073597e+01   1.084250e+01
   7.468041e+01   2.311475e+01
   3.255082e+01   3.859675e+01
  -6.239022e+01   3.102807e+01
  -1.522276e+02  -1.732709e+01
  -1.498658e+02  -5.983187e+01
   4.698680e+00  -8.977480e+01
   1.049094e+02  -4.962979e+01
   1.170874e+02   1.133494e+01
   3.051697e+01   4.481005e+01
  -4.762240e+01   2.581963e+01
  -5.205770e+01  -2.387263e+01
  -6.546076e+00  -6.290517e+01
   4.406548e+01  -5.377145e+01
   5.427926e+01   8.768728e+00
   3.331833e+01   5.373558e+01
   3.713008e+01   4.101564e+01
   4.164146e+01   9.429262e+00
   6.216979e+01   3.502233e+00
   3.688391e+01   7.003261e+01
  -2.457821e+01   1.237977e+02
  -1.085106e+02   9.403192e+01
  -1.335998e+02   2.759362e+01
  -9.154640e+01  -9.656311e+01
   1.748157e+01  -1.121127e+02
   9.055162e+01  -5.260559e+01
   5.827782e+01   1.168700e+01
  -4.624773e+01   1.247623e+01
  -9.551003e+01  -4.992680e+01
  -5.263364e+01  -8.031612e+01
   9.395519e+01  -7.928651e+01
   1.515603e+02  -5.758301e+00
   1.442249e+02   5.746811e+01
   2.918777e+01   7.113646e+01
  -6.430030e+01   5.217796e+01
  -4.199523e+01  -8.615134e+00
   3.468353e+01  -1.762165e+01
   8.349101e+01   2.790050e+01
   3.165412e+01   1.014631e+02
  -8.951116e+01   1.250563e+02
  -1.464187e+02   4.890092e+01
  -8.518044e+01  -1.020916e+02
   1.318655e+01  -1.692953e+02
   8.830875e+01  -1.154339e+02
   8.025390e+01   2.174728e+01
   2.940963e+01   1.114431e+02
  -1.586118e+01   8.628926e+01
  -4.875332e+01   6.199355e+00
  -3.396703e+01  -3.547551e+01
  -1.456273e+01  -6.744132e+00
  -7.511022e+00   1.468066e+01
  -2.539063e+01  -1.556793e+01
  -4.379210e+01  -6.984553e+01
  -8.433033e+00  -8.142137e+01
   5.482892e+01  -2.239205e+01
   1.047116e+02   4.344212e+01
   1.011249e+02   6.500772e+01
   1.006495e+01   4.718657e+01
  -7.442011e+01   1.258979e+01
  -7.476658e+01   2.931607e+00
  -1.581805e+01  -9.116086e+00
   3.286354e+01  -1.651124e+01
   1.686256e+01  -1.204515e+01
  -1.159120e+01   2.170822e+00
   2.586312e+00   6.370065e+00
   6.026604e+01  -1.482131e+00
   7.611480e+01   3.337509e+01
   1.718925e+01   6.386713e+01
  -9.114385e+01   6.518683e+01
  -1.506623e+02   2.420803e+01
  -1.266486e+02  -6.042988e+01
  -3.096856e+01  -1.298601e+02
   7.108952e+01  -1.160030e+02
   9.834296e+01  -3.990457e+01
   6.831735e+01   1.354798e+01
   1.598769e+01   3.540474e+01
   3.596475e+00   1.202114e+01
   1.291297e+01   6.624666e+00
   2.437322e+01   4.640705e+01
   4.178747e+00   7.429134e+01
  -3.867537e+01   5.157620e+01
  -5.983471e+01  -2.072522e+01
  -5.966900e+01  -1.040611e+02
   6.491180e+00  -9.404320e+01
   6.665904e+01  -1.549342e+01
   7.547741e+01   6.983801e+01
   3.065306e+01   9.145384e+01
  -6.575419e+01   4.209929e+01
  -9.714092e+01  -1.857398e+00
  -2.923239e+01  -5.515596e+01
   3.739327e+01  -4.883542e+01
   3.789470e+01  -2.193542e+01
  -2.476037e+01   4.769965e+00
  -5.798738e+01  -5.853611e+00
  -1.098399e+01  -2.777523e+01
   6.488164e+01  -3.875650e+01
   9.719469e+01  -2.991224e+01
   6.013206e+01   2.284446e+01
  -1.777809e+01   6.421859e+01
  -6.726349e+01   6.457001e+01
  -3.890416e+01   9.654580e+00
  -8.782641e-01  -4.214310e+01
   2.102576e+01  -3.703449e+01
   2.926454e+01   7.961909e+00
   1.632730e+01   4.786397e+01
  -2.572619e+00   3.476426e+01
  -3.116340e+01  -7.256704e+00
  -3.270151e+01  -2.198290e+01
  -1.672888e+01  -7.333258e+00
   2.995242e+00   1.763640e+01
   4.456523e+00   6.698228e+00
   4.046013e-01  -2.701035e+01
   2.810635e+00  -4.173361e+01
   2.516464e+01  -1.402791e+01
   3.166266e+01   3.147859e+01
   2.753651e+00   5.383305e+01
  -3.842268e+01   1.953713e+01
  -4.201034e+01  -3.483846e+01
  -1.113904e+01  -4.951600e+01
   4.610975e+01  -2.502251e+01
   7.324966e+01   1.914676e+01
   4.031248e+01   4.313732e+01
  -2.454659e+01   3.984311e+01
  -5.649698e+01   1.638627e+01
  -2.377193e+01   2.556991e+00
   2.381293e+01  -1.728901e+00
   2.684717e+01   9.812340e+00
  -2.363270e+01   2.037122e+01
  -7.391304e+01   1.610291e+01
