
 $NMID
 id='ANONYMOUS ', fmtdat='(2E16.6)'
 volume=1.0
 tramp=1.0
 $END
   2.110776e+03   5.235304e+02
   1.634213e+03   9.813291e+02
  -6.773836e+01   1.366002e+03
  -1.160270e+03   4.305572e+02
  -8.090307e+02   3.759947e+02
  -9.191991e+01  -2.540761e+01
  -8.546559e+01   1.945252e+02
   8.971192e+01   2.222850e+02
  -3.743875e+02   2.605231e+02
  -3.020615e+02   8.345227e+01
  -2.460194e+02  -4.158808e+02
  -2.117847e+01  -4.491071e+02
   1.053782e+02  -1.023861e+02
   4.988714e+01   3.079200e+02
  -1.661669e+02   3.769075e+02
  -3.836020e+02   1.614476e+01
  -1.663859e+02  -3.845482e+02
   1.998744e+02  -4.005839e+02
   2.996311e+02  -1.458740e+02
   2.855686e+02   6.456900e+01
   2.804985e+01   2.711178e+02
  -8.567700e+01   1.548691e+02
  -9.639343e+01   4.868513e+01
   1.471642e+02   1.146832e+02
   1.262520e+02   2.230529e+02
  -5.387319e+01   3.000141e+02
  -4.091041e+02   9.233302e+01
  -4.312015e+02  -1.230863e+02
  -1.125515e+02  -2.942205e+02
   2.096656e+02  -1.883599e+02
   2.829621e+02   2.633913e+02
   1.057820e+02   2.859874e+02
  -2.756554e+02   2.168344e+02
  -3.476913e+02   2.411620e+01
  -2.086129e+02  -1.433362e+02
  -6.233195e+00  -1.665539e+02
   1.928630e+01  -1.447814e+02
  -8.963848e+01   1.218492e+02
  -2.043255e+02   3.344828e+00
  -1.706060e+02  -1.043295e+02
   1.168312e+02  -3.860090e+02
   2.875227e+02  -1.889800e+02
   2.041200e+02   1.811373e+01
  -1.486090e+01   2.225490e+02
  -8.244611e+01   7.441337e+01
  -1.374506e+02  -1.300382e+02
   1.000329e+02  -2.856829e+02
   2.656264e+02  -4.824206e+01
   2.904195e+02   3.655573e+02
   1.373395e+02   3.565458e+02
  -2.800331e+02   8.797673e+01
  -4.097091e+02  -7.998676e+01
  -2.184162e+02  -2.067206e+02
   8.184167e+01  -9.442194e+01
   1.910715e+02  -3.178387e+01
   1.574932e+02  -1.955178e+00
   3.410040e+01   6.563071e+00
   2.979674e+01  -2.634754e+01
   6.967949e+01   1.011719e+01
   1.094694e+02   8.068638e+01
   8.267592e+01   1.572838e+02
  -1.117702e+02   1.480074e+02
  -2.619385e+02   1.946504e+01
  -2.115297e+02  -9.668347e+01
   2.336872e+01  -2.594204e+02
   2.761629e+02  -2.076373e+02
   3.235182e+02  -5.406035e+01
   1.560527e+02   1.241269e+02
   1.856068e+01   2.608790e+02
  -7.513588e+01   1.847264e+02
  -1.697038e+01   1.603878e+02
  -3.604291e+01   7.842442e+01
  -1.053796e+02   8.885647e+01
  -1.744783e+02   1.138057e+01
  -1.571509e+02  -1.491592e+02
  -4.631638e+01  -1.721833e+02
   8.226006e+01  -1.528308e+02
   1.238855e+02   6.386908e+01
   1.007481e+02   1.577625e+02
  -6.236802e+01   1.907875e+02
  -1.926386e+02   1.911490e+01
  -1.551603e+02  -1.377508e+02
  -1.107211e+02  -2.599846e+02
   9.281492e+01  -1.547420e+02
   1.094107e+02  -7.620753e+01
   1.101754e+02  -7.573249e+01
   9.733692e+01  -4.076817e+01
   2.517452e+02   1.920475e+01
   3.199054e+02   1.298338e+02
   2.257295e+02   2.446457e+02
  -1.483110e+01   3.131959e+02
  -2.804321e+02   2.790126e+02
  -3.968458e+02   1.072319e+02
  -1.983311e+02  -8.300953e+01
   1.665128e+01  -1.640174e+02
   9.572823e+01  -1.513295e+02
   1.994135e+01  -2.549779e+01
  -8.185886e+01   1.288938e+01
  -1.014575e+02  -3.163320e+01
   1.087030e+01  -9.477056e+01
   8.533632e+01  -8.644973e+01
   8.470351e+01   1.996447e+01
  -3.081881e+01   7.915776e+01
  -1.049093e+02  -3.540706e+01
  -1.263528e+02  -1.576611e+02
   5.616667e+01  -2.395129e+02
   2.013930e+02  -1.091640e+02
   2.843859e+02   4.085511e+01
   1.972818e+02   2.477621e+02
   8.095313e-01   2.270910e+02
  -9.866752e+01   8.452876e+01
  -1.083733e+02  -1.504726e+01
  -1.567149e+01  -8.762920e+00
   4.473040e+01   5.642109e+01
  -1.177607e+00   8.737392e+01
  -9.409282e+01   3.554834e+01
  -1.101387e+02  -2.686449e+01
  -9.503161e+00  -3.476408e+01
   6.145178e+01   1.232965e+01
   2.834522e+01   8.325449e+01
  -1.339406e+02   7.244034e+01
  -2.139063e+02  -1.554994e+01
  -1.931147e+02  -1.264692e+02
  -3.801266e+00  -1.740016e+02
   1.929560e+02  -1.613120e+02
   1.767184e+02  -2.150815e+01
   9.181133e+01   5.732338e+01
  -4.250999e+01   4.698219e+01
  -5.195723e+01  -1.391244e+01
   5.035760e+01  -4.610652e+01
   1.365155e+02   2.453152e+00
   1.108968e+02   9.292264e+01
   2.658992e+01   1.349518e+02
  -7.153755e+01   8.438819e+01
  -7.524323e+01  -1.021303e+01
  -3.039441e+01  -2.682085e+01
   2.579707e+01   2.005329e+01
   3.175606e+00   9.848549e+01
  -7.535294e+01   6.971860e+01
  -1.801553e+02  -3.723596e+01
  -1.033435e+02  -1.019368e+02
   1.059126e+01  -1.437392e+02
   1.499940e+02  -8.841467e+01
   1.442180e+02  -9.485718e+00
   2.526828e+01   6.840595e+01
  -4.804410e+01   5.257074e+01
  -4.718882e+01   1.283991e+01
   7.412015e+00  -2.077091e+01
   2.707321e+01  -8.191800e-01
  -5.173485e+00   2.340500e+01
  -5.876242e+01   7.890795e-01
  -6.522330e+01  -6.358445e+01
  -1.215151e+00  -1.126983e+02
   1.266067e+02  -7.605665e+01
   1.739038e+02   4.424893e+01
   8.711973e+01   1.560499e+02
  -1.593123e+00   1.908075e+02
  -8.381154e+01   9.705186e+01
  -9.714845e+01  -3.736600e+00
  -4.695995e+01  -3.587966e+01
  -2.300240e+01  -1.876672e+01
  -4.591892e+01   8.254546e+00
  -6.813385e+01  -5.475722e+00
  -4.812470e+01  -4.855670e+01
   2.681684e+01  -7.704696e+01
   9.127810e+01  -4.895148e+01
   7.612395e+01   4.444778e+01
  -1.053438e+01   9.869395e+01
  -1.347267e+02   6.333892e+01
  -1.482141e+02  -8.703975e+01
  -3.099706e+01  -1.656057e+02
   1.399246e+02  -1.493113e+02
   2.090768e+02  -1.564055e+01
   1.546026e+02   8.591141e+01
   6.839212e+01   1.330476e+02
  -4.190492e+01   1.058274e+02
  -7.523280e+01   4.167800e+01
  -4.866586e+01   4.093883e+01
  -5.206153e+01   6.765420e+01
  -9.120977e+01   4.670138e+01
  -7.690451e+01  -2.522515e+01
  -9.881647e+01  -1.316014e+02
  -5.053304e+00  -1.761741e+02
   9.672606e+01  -9.353367e+01
   1.127015e+02   6.983447e+00
   7.980133e+01   1.018879e+02
  -1.817579e+01   1.196888e+02
  -5.758638e+01   4.979136e+01
  -4.446681e+01  -1.528672e+01
   1.241478e+01  -4.322580e+01
   2.373841e+01  -2.594484e+01
  -1.541507e+01  -8.004694e+00
  -6.374242e+01  -1.681031e+01
  -2.900000e+01  -2.655402e+01
   5.690045e+01  -3.113984e+01
   1.392493e+02   1.832084e+01
   1.239987e+02   6.053367e+01
  -5.504086e+00   8.327067e+01
  -9.922033e+01   5.332052e+01
  -8.585978e+01  -9.469041e+00
  -2.426218e+01  -4.153384e+01
   4.664425e+01  -2.440464e+01
   5.089039e+01   1.742541e+01
   1.013063e+01   5.677977e+01
  -3.237773e+01   4.770515e+01
  -4.726244e+01  -1.515788e+00
  -3.133068e+01  -4.996806e+01
  -2.883661e+01  -3.867916e+01
  -3.237702e+01  -9.159832e+00
  -5.502408e+01  -3.738221e+00
  -3.408328e+01  -5.607828e+01
   2.457099e+01  -1.156378e+02
   1.035143e+02  -7.738127e+01
   1.245435e+02  -2.086747e+01
   8.496802e+01   8.018669e+01
  -1.461989e+01   9.165412e+01
  -8.197996e+01   4.281028e+01
  -5.235653e+01  -6.491726e+00
   4.157188e+01  -1.289131e+01
   8.377695e+01   4.652592e+01
   5.269276e+01   8.107788e+01
  -7.991956e+01   6.339482e+01
  -1.310743e+02   1.367904e+01
  -1.246506e+02  -5.496912e+01
  -1.864178e+01  -6.369891e+01
   5.896191e+01  -5.004258e+01
   3.902804e+01   1.345018e+01
  -2.940102e+01   1.682206e+01
  -7.395773e+01  -1.781807e+01
  -3.521896e+01  -9.151401e+01
   7.834579e+01  -1.060581e+02
   1.300601e+02  -3.894369e+01
   7.076481e+01   7.936857e+01
  -9.843225e+00   1.517742e+02
  -7.389650e+01   8.302202e+01
  -7.619649e+01  -1.959528e+01
  -1.631771e+01  -8.713468e+01
   1.369064e+01  -7.977859e+01
   4.626357e+01  -4.811439e+00
   3.222766e+01   3.002713e+01
   9.450893e+00   7.264104e+00
   7.401539e+00  -1.155505e+01
   2.561573e+01   1.753444e+01
   4.362989e+01   6.279713e+01
  -3.322448e+00   7.578635e+01
  -4.321849e+01   2.597032e+01
  -9.481447e+01  -3.539767e+01
  -8.647771e+01  -5.055154e+01
  -1.334031e+01  -4.076842e+01
   6.403790e+01  -1.269111e+01
   5.891492e+01   2.224501e+00
   1.354399e+01   7.533727e+00
  -2.724446e+01   1.417137e+01
  -1.527593e+01   7.374047e+00
   8.660371e+00  -6.568909e-01
  -2.072225e+00  -4.548404e+00
  -5.576293e+01   4.277027e+00
  -6.646924e+01  -2.208752e+01
  -1.693332e+01  -5.624346e+01
   7.713932e+01  -6.825669e+01
   1.292128e+02  -2.896625e+01
   1.097779e+02   5.533792e+01
   1.942387e+01   1.133057e+02
  -7.493369e+01   9.945974e+01
  -8.029323e+01   3.593130e+01
  -5.974830e+01  -5.803331e+00
  -1.705138e+01  -3.205562e+01
  -3.370505e+00  -9.634304e+00
  -1.224477e+01  -6.581825e+00
  -2.412683e+01  -4.331229e+01
  -2.453243e+00  -6.294438e+01
   2.958731e+01  -4.654485e+01
   4.682312e+01   1.190664e+01
   5.704224e+01   8.017352e+01
  -4.656209e-01   8.128414e+01
  -5.487780e+01   1.709062e+01
  -5.882576e+01  -5.130664e+01
  -3.396774e+01  -7.782101e+01
   4.869962e+01  -3.810017e+01
   8.430071e+01   4.781208e+00
   2.973821e+01   4.511234e+01
  -3.115563e+01   3.904883e+01
  -3.254814e+01   2.283119e+01
   1.852816e+01  -5.655726e+00
   4.932733e+01   3.331199e-01
   9.224740e+00   2.289326e+01
  -4.897756e+01   3.858166e+01
  -8.538987e+01   2.045973e+01
  -5.710365e+01  -2.100704e+01
   2.136955e+01  -5.973120e+01
   5.276750e+01  -5.993612e+01
   3.788764e+01  -7.286966e+00
   1.034591e+00   3.913180e+01
  -1.808587e+01   3.691354e+01
  -2.321963e+01  -6.256808e+00
  -1.693776e+01  -3.734569e+01
   4.315862e-02  -3.355779e+01
   2.642553e+01   5.231958e+00
   3.070223e+01   1.760311e+01
   1.559815e+01   7.267246e+00
  -2.962977e+00  -1.698535e+01
  -3.793214e+00  -7.841173e+00
   1.402660e+00   1.905899e+01
   1.068676e+00   4.066912e+01
  -2.278177e+01   1.824360e+01
  -3.739963e+01  -2.948996e+01
  -9.129328e+00  -4.488763e+01
   2.758132e+01  -1.695267e+01
   3.915767e+01   2.158824e+01
   9.527865e+00   4.167854e+01
  -4.134668e+01   2.444671e+01
  -6.349427e+01  -1.395740e+01
  -3.648654e+01  -3.451981e+01
   2.607829e+01  -3.612519e+01
   5.395511e+01  -1.554600e+01
   2.337689e+01  -2.203907e+00
  -2.345842e+01   6.750877e-01
  -2.279224e+01  -6.056543e+00
   1.734710e+01  -1.434853e+01
   6.508878e+01  -4.204871e+00
