
 $NMID
 id='ANONYMOUS ', fmtdat='(2E16.6)'
 volume=1.0
 tramp=1.0
 $END
  -1.950619e+03  -4.400893e+02
  -1.820972e+03  -1.248145e+03
  -6.585312e+01  -1.421033e+03
   9.736633e+02  -5.628537e+02
   8.627938e+02  -2.262770e+02
   9.894379e+01  -4.783452e+00
  -1.018263e+02  -1.616528e+02
  -2.262667e+01  -3.781200e+02
   3.788734e+02  -2.515395e+02
   3.470176e+02   2.157548e+01
   3.205493e+02   4.149340e+02
   1.069143e+02   4.591595e+02
  -1.380622e+02   1.434198e+02
  -1.414979e+02  -3.157463e+02
   1.598608e+02  -3.837808e+02
   3.489307e+02   1.291850e+00
   2.837887e+02   3.859791e+02
  -1.225582e+02   4.773018e+02
  -3.538734e+02   1.235886e+02
  -3.399177e+02  -9.940308e+01
  -5.189330e+01  -2.977489e+02
   1.097313e+02  -1.841293e+02
   1.064145e+02  -5.788375e+01
  -1.671773e+02  -1.041212e+02
  -1.560921e+02  -2.070960e+02
   1.009646e+02  -3.480048e+02
   3.543437e+02  -1.145819e+02
   4.933150e+02   1.820686e+02
   9.039430e+01   2.775477e+02
  -2.228202e+02   1.824065e+02
  -2.812967e+02  -2.666384e+02
  -1.058674e+02  -2.659805e+02
   2.806038e+02  -1.863944e+02
   3.662197e+02  -1.705080e+01
   2.523778e+02   1.681256e+02
   4.348129e+01   1.679556e+02
  -1.472010e+01   1.595443e+02
   8.745102e+01  -6.344122e+01
   2.683174e+02  -4.421669e+01
   1.874237e+02   6.152675e+01
  -1.421807e+02   4.499822e+02
  -2.632918e+02   1.869268e+02
  -1.924930e+02   2.583713e+01
  -6.511114e+00  -2.090952e+02
   1.039185e+02  -1.301256e+02
   1.352204e+02   1.958722e+02
  -1.069296e+02   3.016393e+02
  -3.025541e+02   4.205244e+01
  -3.018939e+02  -3.182713e+02
  -1.154563e+02  -3.528382e+02
   2.756744e+02  -1.065949e+02
   4.128676e+02   1.375285e+02
   2.560295e+02   2.122749e+02
  -6.353880e+01   1.146668e+02
  -1.851275e+02   6.089091e+01
  -1.833036e+02  -4.445954e+01
  -4.664019e+01  -3.761547e+01
   1.104685e+01   2.813321e+00
  -4.657851e+01   1.302495e+01
  -1.378898e+02  -6.656067e+01
  -6.806333e+01  -1.717633e+02
   1.295710e+02  -1.799735e+02
   2.876967e+02  -3.241478e+01
   2.058021e+02   9.082704e+01
  -2.839181e+01   2.814363e+02
  -3.369179e+02   2.207050e+02
  -3.551575e+02   7.536371e+01
  -1.724457e+02  -1.351477e+02
  -1.236159e+01  -3.075065e+02
   8.737583e+01  -2.044662e+02
   1.341774e+01  -1.376262e+02
   1.273805e+01  -9.229992e+01
   1.205074e+02  -9.020778e+01
   1.974374e+02  -4.156391e+01
   1.630679e+02   1.437678e+02
   8.656552e+01   1.929881e+02
  -1.057675e+02   1.642454e+02
  -1.372376e+02  -7.266164e+01
  -1.114842e+02  -2.032039e+02
   9.042571e+01  -2.047481e+02
   1.991335e+02  -3.154306e+01
   1.647641e+02   1.279447e+02
   9.561958e+01   2.805629e+02
  -8.510896e+01   1.726079e+02
  -1.230101e+02   9.132723e+01
  -1.257988e+02   6.865794e+01
  -1.304586e+02   3.535914e+01
  -2.546214e+02  -9.070090e+00
  -3.324288e+02  -1.424958e+02
  -2.291077e+02  -2.825450e+02
   5.077582e+01  -3.795501e+02
   3.167523e+02  -2.614461e+02
   3.726663e+02  -1.002450e+02
   2.349868e+02   8.826160e+01
   1.039434e+01   1.992353e+02
  -9.703994e+01   1.230430e+02
  -1.473270e+01   2.785002e+01
   1.080372e+02  -3.179424e+01
   7.825408e+01   4.513553e+01
  -2.138460e+01   1.041476e+02
  -8.559030e+01   8.005132e+01
  -9.091609e+01  -3.591311e+01
   3.408042e+01  -1.020608e+02
   1.135913e+02   4.113659e+01
   1.401184e+02   1.852703e+02
  -7.197835e+01   2.490105e+02
  -2.045843e+02   1.398489e+02
  -3.093468e+02  -2.745140e+01
  -1.873678e+02  -2.464931e+02
  -6.453120e+00  -2.450036e+02
   1.041647e+02  -9.126338e+01
   1.192401e+02   7.263887e+00
   2.080148e+01   9.337947e+00
  -3.584647e+01  -5.366215e+01
   5.949557e+00  -9.184326e+01
   1.106432e+02  -2.983025e+01
   1.248078e+02   2.445075e+01
   8.669231e+00   4.872094e+01
  -6.516200e+01  -1.434179e+01
  -3.048801e+01  -8.956686e+01
   1.523551e+02  -6.721991e+01
   2.411924e+02   2.609987e+01
   1.964098e+02   1.484195e+02
   7.862525e+00   1.901189e+02
  -2.027784e+02   1.626603e+02
  -2.117285e+02   3.951210e+01
  -1.015740e+02  -5.294380e+01
   4.388043e+01  -5.159683e+01
   4.718932e+01   1.580342e+01
  -4.770686e+01   5.746270e+01
  -1.546007e+02  -7.501094e+00
  -1.197829e+02  -1.111153e+02
  -3.213599e+01  -1.303056e+02
   8.445911e+01  -8.411420e+01
   7.887571e+01   8.417111e+00
   3.591782e+01   3.276686e+01
  -2.449155e+01  -2.573962e+01
  -1.559248e+01  -9.862619e+01
   8.045679e+01  -8.509725e+01
   1.988439e+02   3.151878e+01
   1.245796e+02   9.867210e+01
  -2.189154e+01   1.482349e+02
  -1.461144e+02   9.254019e+01
  -1.486898e+02  -1.517016e+01
  -2.435417e+01  -7.490896e+01
   5.484312e+01  -6.758998e+01
   5.388272e+01  -1.375823e+01
  -5.209467e+00   1.865522e+01
  -3.093786e+01   4.472687e+00
   8.888066e+00  -2.052263e+01
   7.353516e+01   5.345650e+00
   7.164837e+01   8.409035e+01
  -6.615201e+00   1.426972e+02
  -1.317208e+02   8.129797e+01
  -1.528220e+02  -3.056919e+01
  -1.157374e+02  -1.612400e+02
  -5.125486e+00  -1.836367e+02
   9.949924e+01  -1.289011e+02
   1.004768e+02  -6.416055e+00
   5.410362e+01   3.337703e+01
   2.405283e+01   2.180084e+01
   4.716679e+01  -1.098387e+01
   6.626985e+01   1.294461e+01
   5.475879e+01   5.265343e+01
  -3.704973e+01   8.415505e+01
  -9.401838e+01   4.188212e+01
  -8.772569e+01  -4.405447e+01
   2.483547e+01  -1.165114e+02
   1.449889e+02  -6.571925e+01
   1.549252e+02   9.291770e+01
   4.431561e+01   1.751572e+02
  -1.285589e+02   1.625076e+02
  -2.307288e+02   1.089173e+01
  -1.705736e+02  -9.027660e+01
  -6.703961e+01  -1.253473e+02
   4.852193e+01  -1.289588e+02
   7.995500e+01  -5.624676e+01
   5.759086e+01  -4.628878e+01
   4.988746e+01  -7.263599e+01
   9.039196e+01  -4.790828e+01
   8.644910e+01   2.568395e+01
   1.003016e+02   1.500820e+02
   1.787360e+01   1.712158e+02
  -9.026573e+01   1.210090e+02
  -1.336218e+02  -5.808450e+00
  -1.001822e+02  -1.056689e+02
   6.854919e+00  -1.222045e+02
   7.533174e+01  -5.841333e+01
   4.523784e+01   1.466556e+01
  -1.398735e+01   4.871962e+01
  -2.871137e+01   2.952288e+01
   1.960948e+01   1.031347e+01
   6.596235e+01   1.920873e+01
   2.920339e+01   3.688884e+01
  -6.313995e+01   2.553851e+01
  -1.378763e+02  -1.518854e+01
  -1.278207e+02  -7.501211e+01
   1.315192e+01  -9.102618e+01
   1.143998e+02  -5.756826e+01
   1.016052e+02   6.028121e+00
   2.985415e+01   4.146727e+01
  -4.899997e+01   2.926417e+01
  -5.705426e+01  -2.229563e+01
  -1.413451e+01  -5.917178e+01
   3.961631e+01  -5.397432e+01
   5.036314e+01   2.932138e+00
   3.902187e+01   4.960350e+01
   2.992294e+01   3.869905e+01
   3.692626e+01   7.707960e+00
   5.428491e+01   2.497908e+00
   3.571044e+01   6.016650e+01
  -2.004402e+01   1.352059e+02
  -1.037198e+02   8.443570e+01
  -1.283894e+02   1.733474e+01
  -8.254144e+01  -9.564206e+01
   1.689316e+01  -1.119463e+02
   8.209603e+01  -5.472198e+01
   5.551511e+01   1.075685e+01
  -4.489459e+01   1.433177e+01
  -9.235015e+01  -3.928049e+01
  -5.705325e+01  -9.138351e+01
   7.543982e+01  -7.451339e+01
   1.259791e+02  -1.902517e+00
   1.297974e+02   5.075646e+01
   1.898711e+01   7.003056e+01
  -6.679930e+01   5.292151e+01
  -3.894316e+01  -1.684405e+01
   3.027622e+01  -1.816840e+01
   8.187780e+01   2.219933e+01
   3.403243e+01   1.007341e+02
  -6.985046e+01   1.071624e+02
  -1.446939e+02   5.229253e+01
  -9.041496e+01  -6.766679e+01
   9.709920e+00  -1.587214e+02
   8.304695e+01  -8.526892e+01
   8.219837e+01   2.728514e+01
   2.659942e+01   1.047821e+02
  -6.504800e+00   8.557956e+01
  -4.547069e+01   7.914499e-01
  -3.781947e+01  -2.979563e+01
  -1.245791e+01  -4.922955e+00
  -6.596454e+00   1.303907e+01
  -2.472763e+01  -1.598595e+01
  -4.110721e+01  -7.475688e+01
  -8.179513e+00  -8.000269e+01
   5.362860e+01  -3.134456e+01
   1.086949e+02   3.729914e+01
   9.349019e+01   5.621015e+01
   1.069914e+01   4.878725e+01
  -6.461570e+01   9.779043e+00
  -7.010007e+01   4.409492e+00
  -1.473338e+01  -1.023706e+01
   2.701394e+01  -1.286961e+01
   1.604003e+01  -6.615889e+00
  -9.737815e+00   1.593237e+00
   1.555376e+00   3.610723e+00
   5.488138e+01  -4.004632e+00
   7.780924e+01   2.534056e+01
   1.226451e+01   6.894564e+01
  -8.098216e+01   7.033829e+01
  -1.396454e+02   3.472565e+01
  -1.086731e+02  -6.841399e+01
  -2.804505e+01  -1.285612e+02
   6.373355e+01  -1.085043e+02
   9.429217e+01  -4.715455e+01
   6.451674e+01   1.761436e+01
   2.066151e+01   3.180490e+01
   3.132834e+00   1.371861e+01
   1.214486e+01   9.506002e+00
   2.233191e+01   4.559129e+01
   6.829042e+00   6.587391e+01
  -2.187389e+01   4.775278e+01
  -6.344192e+01  -1.187299e+01
  -6.464615e+01  -8.484325e+01
  -8.954696e+00  -9.307542e+01
   5.464056e+01  -2.328379e+01
   6.213138e+01   5.288503e+01
   3.124256e+01   8.305914e+01
  -5.610091e+01   4.596436e+01
  -8.460071e+01  -3.750433e+00
  -3.625830e+01  -4.724353e+01
   2.847262e+01  -4.588570e+01
   3.242805e+01  -2.532791e+01
  -2.166314e+01   7.631842e+00
  -5.212666e+01  -3.188758e+00
  -1.107813e+01  -2.476150e+01
   6.170943e+01  -4.483078e+01
   9.697561e+01  -2.947506e+01
   5.994383e+01   2.315975e+01
  -2.868326e+01   6.634125e+01
  -5.639183e+01   6.189281e+01
  -3.886201e+01   5.034071e+00
  -4.749586e+00  -3.824215e+01
   1.959753e+01  -3.903119e+01
   2.498386e+01   1.236138e+01
   1.864547e+01   4.330947e+01
   3.405805e+00   3.477355e+01
  -2.978830e+01  -8.625283e+00
  -3.055523e+01  -2.058192e+01
  -1.522070e+01  -4.706699e+00
   1.906809e+00   1.787049e+01
   3.979055e+00   7.695852e+00
  -3.700578e+00  -2.115721e+01
  -2.082005e+00  -4.855581e+01
   2.353434e+01  -1.903199e+01
   3.599353e+01   3.306417e+01
   1.820235e+01   5.150341e+01
  -3.188837e+01   1.753278e+01
  -4.799015e+01  -2.934923e+01
  -9.730156e+00  -4.447426e+01
   4.880875e+01  -2.308596e+01
   6.508505e+01   1.528748e+01
   3.878801e+01   2.711720e+01
  -3.250544e+01   3.761504e+01
  -5.126509e+01   1.632971e+01
  -2.606968e+01   3.836367e+00
   2.606606e+01   9.223820e-02
   2.061948e+01   1.132882e+01
  -1.675258e+01   2.193303e+01
  -6.435234e+01   5.605717e+00
