
 $NMID
 id='ANONYMOUS ', fmtdat='(2E16.6)'
 volume=1.0
 tramp=1.0
 $END
   4.010491e+03   5.567165e+01
   2.671115e+03   2.236380e+03
  -3.889693e+02   2.562732e+03
  -1.896629e+03   7.609769e+02
  -9.650185e+02  -2.417879e+02
   4.395894e+02  -3.878602e+02
   5.473947e+02   4.200662e+02
  -6.371029e+01   8.840013e+02
  -7.471422e+02   5.132370e+02
  -7.805877e+02  -5.525492e+01
  -3.771087e+02  -8.004977e+02
   1.587255e+02  -7.681349e+02
   4.503665e+02  -1.256625e+02
   3.500493e+02   6.362045e+02
  -2.218860e+02   6.107683e+02
  -4.979491e+02   9.228368e+01
  -3.492855e+02  -5.613617e+02
   3.144103e+02  -6.410271e+02
   5.947509e+02  -1.581174e+02
   3.861641e+02   2.916019e+02
   7.015046e+01   3.740530e+02
  -2.189504e+02   2.355055e+02
  -1.433149e+02   2.644401e+01
   1.420952e+02  -7.097535e+00
   3.344289e+02   1.675854e+02
   7.799298e+01   4.442379e+02
  -4.465617e+02   2.937165e+02
  -7.820383e+02  -8.592436e+01
  -3.168556e+02  -4.196878e+02
   3.205016e+02  -3.968149e+02
   6.521006e+02   1.519970e+02
   3.786577e+02   4.423253e+02
  -2.645418e+02   4.286984e+02
  -4.703680e+02   1.174041e+02
  -3.565755e+02  -1.886027e+02
  -7.698980e+01  -3.916261e+02
   1.987834e+02  -2.292583e+02
   8.101437e+01   1.860992e+02
  -2.724790e+02   2.992056e+02
  -3.593049e+02  -6.366657e+01
  -1.139503e+02  -6.094115e+02
   3.072585e+02  -5.328738e+02
   4.584920e+02  -5.363708e+00
   1.789468e+02   4.853984e+02
  -2.496321e+02   2.008426e+02
  -3.776614e+02  -2.985033e+02
   1.583702e+02  -5.239251e+02
   4.888639e+02  -1.294269e+02
   5.398977e+02   3.338262e+02
   2.041302e+02   5.469354e+02
  -3.879717e+02   2.886650e+02
  -6.876811e+02  -1.091193e+02
  -3.156775e+02  -3.878586e+02
   1.274279e+02  -2.452438e+02
   3.331385e+02  -8.954052e+01
   2.118898e+02   1.051047e+02
  -7.648471e+01   9.098788e+01
  -9.046065e+01  -1.011462e+02
   1.494387e+02  -1.241845e+02
   2.960813e+02   9.639979e+01
   1.231731e+02   2.852990e+02
  -1.923220e+02   2.293574e+02
  -3.111429e+02   9.030808e+01
  -2.418884e+02  -6.088191e+01
   1.369770e-01  -2.584774e+02
   2.814640e+02  -3.313972e+02
   3.508950e+02  -1.282978e+02
   2.694231e+02   1.176119e+02
   7.183955e+01   4.241912e+02
  -1.366197e+02   3.218153e+02
  -4.915927e+01   1.337463e+02
  -5.274893e+01   3.876940e+01
  -9.310278e+01   9.710132e+01
  -2.048956e+02   1.208315e+02
  -2.590637e+02  -4.414111e+01
  -1.425215e+02  -2.726259e+02
   6.715626e+01  -2.572896e+02
   2.318285e+02   3.738525e+01
   1.877655e+02   2.428356e+02
  -4.358916e+01   2.489916e+02
  -2.680935e+02   1.379423e+02
  -3.330578e+02  -1.470447e+02
  -1.837601e+02  -3.154505e+02
   1.022714e+02  -2.602359e+02
   1.897650e+02  -1.210493e+02
   1.419944e+02  -5.226536e+01
   1.100922e+02  -5.523567e+01
   2.200690e+02  -4.712532e+01
   4.054623e+02   1.036236e+02
   2.844146e+02   3.154347e+02
   3.441478e+01   3.999298e+02
  -3.582117e+02   4.461091e+02
  -4.392159e+02   1.878203e+02
  -3.767084e+02  -1.314259e+02
  -6.013167e+01  -2.747335e+02
   1.040246e+02  -1.835187e+02
   2.997720e+01  -2.991562e+01
  -1.392153e+02   9.832331e+01
  -1.726417e+02  -1.166023e+01
  -2.025280e+01  -1.496748e+02
   1.249776e+02  -1.119841e+02
   1.804381e+02   5.562323e+01
  -6.407519e+00   1.718786e+02
  -1.741457e+02  -9.311268e+00
  -1.696394e+02  -2.356915e+02
   1.136046e+01  -3.729421e+02
   2.584848e+02  -1.874058e+02
   3.847887e+02   3.671121e+01
   3.094459e+02   2.549882e+02
   7.108288e+01   2.854414e+02
  -1.260579e+02   1.809683e+02
  -1.488595e+02   5.720687e+00
  -4.166284e+01  -3.703350e+01
   8.517744e+01   4.311405e+01
   1.575400e+01   1.327572e+02
  -1.409831e+02   8.046341e+01
  -1.550471e+02  -1.247734e+01
  -4.009450e+01  -5.866700e+01
   8.616461e+01  -1.374117e+01
   4.968569e+01   6.565071e+01
  -1.422886e+02   8.826583e+01
  -2.976831e+02   1.757961e-02
  -2.756802e+02  -1.633344e+02
  -8.815837e+01  -2.559500e+02
   2.155607e+02  -2.509820e+02
   2.390491e+02  -1.109374e+02
   1.457759e+02   5.317773e+01
  -2.983782e+01   1.015342e+02
  -8.362999e+01  -3.537372e+00
   2.659087e+01  -1.016703e+02
   1.869490e+02  -2.604138e+01
   1.909110e+02   1.317075e+02
   7.972746e+01   1.897978e+02
  -9.452066e+01   1.361056e+02
  -1.344598e+02   5.589145e+00
  -6.879222e+01  -4.317454e+01
   4.309388e+01   9.163504e+00
   3.843937e+01   8.948487e+01
  -8.281409e+01   1.256189e+02
  -2.003568e+02   1.170287e+01
  -1.654092e+02  -1.457829e+02
   2.957952e+00  -2.069585e+02
   1.594406e+02  -1.338553e+02
   2.107747e+02  -1.099786e+01
   4.898974e+01   8.850276e+01
  -5.976389e+01   1.050651e+02
  -7.726758e+01   3.472528e+01
  -3.392173e+00  -2.110928e+01
   2.978034e+01  -1.638116e+01
  -7.958404e+00   1.852467e+01
  -7.620218e+01  -2.542078e+00
  -9.965668e+01  -7.537774e+01
  -2.319334e+00  -1.578814e+02
   1.654187e+02  -1.422957e+02
   2.048890e+02  -2.183454e+01
   1.974830e+02   1.769981e+02
   3.214985e+01   2.136318e+02
  -1.183065e+02   1.797055e+02
  -1.150635e+02   1.290842e+01
  -6.706148e+01  -5.106252e+01
  -2.929901e+01  -3.760526e+01
  -5.664184e+01   1.640932e+01
  -7.928935e+01   6.471375e+00
  -4.438952e+01  -4.542475e+01
   4.329296e+01  -9.644586e+01
   9.257955e+01  -5.828037e+01
   1.013989e+02   3.516218e+01
  -8.039700e+00   1.302845e+02
  -1.549157e+02   1.212617e+02
  -2.035962e+02  -8.382564e+01
  -8.876378e+01  -2.077134e+02
   9.181675e+01  -2.341574e+02
   2.677026e+02  -4.995331e+01
   2.442218e+02   1.013409e+02
   1.010769e+02   1.595743e+02
  -3.695037e+01   1.500637e+02
  -8.515095e+01   6.495684e+01
  -7.528370e+01   7.720323e+01
  -6.070894e+01   8.321685e+01
  -9.285446e+01   8.215748e+01
  -1.094154e+02  -1.402236e+01
  -1.052610e+02  -1.663192e+02
  -4.402871e+01  -1.833889e+02
   1.115688e+02  -1.529407e+02
   1.591786e+02  -5.178048e+00
   1.338297e+02   1.314538e+02
   2.362010e+01   1.635685e+02
  -7.596453e+01   9.760777e+01
  -6.642744e+01   3.495524e+00
   1.438408e+00  -4.689087e+01
   1.685174e+01  -3.214644e+01
  -3.392099e+01  -1.374176e+01
  -7.891914e+01  -1.607933e+01
  -4.279710e+01  -3.451008e+01
   5.499265e+01  -3.732166e+01
   1.711544e+02  -7.195219e+00
   1.678619e+02   5.699573e+01
   8.050147e+00   1.133468e+02
  -1.035098e+02   6.444721e+01
  -1.386877e+02   2.268684e+01
  -4.160080e+01  -3.911491e+01
   4.969517e+01  -3.552302e+01
   7.558839e+01   1.800783e+01
   2.680115e+00   5.929437e+01
  -5.136229e+01   6.544347e+01
  -6.325299e+01   3.498303e+00
  -4.708437e+01  -4.800352e+01
  -4.249392e+01  -4.490570e+01
  -5.606940e+01  -5.041056e+00
  -6.550561e+01   6.976182e+00
  -3.957358e+01  -6.751725e+01
   2.501834e+01  -1.484383e+02
   9.245217e+01  -1.408274e+02
   1.521484e+02  -4.344058e+01
   1.190676e+02   1.020041e+02
  -4.990631e+00   1.311942e+02
  -9.954925e+01   6.476703e+01
  -6.399740e+01  -1.262249e+01
   5.504034e+01  -1.897591e+01
   1.217344e+02   4.387493e+01
   7.431042e+01   9.070855e+01
  -6.851745e+01   9.381488e+01
  -1.799854e+02   4.994300e+01
  -1.511904e+02  -5.785289e+01
  -4.129056e+01  -8.874864e+01
   5.715324e+01  -6.947495e+01
   4.850361e+01   1.399108e+00
  -3.417141e+01   2.449410e+01
  -9.576640e+01  -1.594595e+01
  -4.410274e+01  -1.193256e+02
   8.710324e+01  -1.277473e+02
   1.830729e+02  -6.577179e+01
   1.302457e+02   8.897943e+01
  -1.026506e+01   1.836567e+02
  -1.033431e+02   1.334855e+02
  -1.086367e+02  -2.901848e+01
  -5.857010e+01  -1.315913e+02
  -7.905474e-01  -1.042620e+02
   5.085167e+01  -1.180505e+01
   4.920627e+01   3.261814e+01
   2.108346e+01   8.273470e+00
   4.058170e+00  -1.991519e+01
   2.425038e+01   1.411271e+01
   6.383649e+01   9.137291e+01
   3.944661e+01   1.077959e+02
  -5.615972e+01   4.907758e+01
  -1.570017e+02  -3.317769e+01
  -1.380875e+02  -5.875195e+01
  -1.567391e+01  -5.528715e+01
   8.568964e+01  -1.904774e+01
   8.533624e+01  -6.881516e+00
   1.531055e+01   9.478687e+00
  -3.717152e+01   2.210165e+01
  -1.576414e+01   1.870777e+01
   1.916914e+01  -4.054860e-01
  -3.012853e+00  -6.194170e+00
  -7.195954e+01   1.660994e+00
  -7.400308e+01  -2.622309e+01
  -1.596329e+01  -7.629687e+01
   9.011605e+01  -9.242728e+01
   1.935565e+02  -2.643866e+01
   1.395311e+02   8.069369e+01
   3.024628e+01   1.509803e+02
  -7.213884e+01   1.391275e+02
  -1.233260e+02   4.758519e+01
  -7.120656e+01  -1.245453e+01
  -2.656847e+01  -3.559418e+01
  -5.840623e-01  -9.808093e+00
  -1.021237e+01  -5.753188e+00
  -3.336039e+01  -4.669921e+01
  -2.889140e+01  -8.797361e+01
   2.548840e+01  -6.771542e+01
   8.024127e+01   1.767180e+01
   9.385640e+01   9.804324e+01
   1.866067e+01   1.027068e+02
  -7.531700e+01   3.480969e+01
  -1.009093e+02  -5.905454e+01
  -3.890982e+01  -1.057363e+02
   7.479645e+01  -4.755042e+01
   1.019775e+02   1.202624e+01
   4.202400e+01   5.320277e+01
  -2.997022e+01   5.808179e+01
  -3.104983e+01   3.508961e+01
   2.969318e+01  -3.764176e+00
   6.803940e+01   8.242847e-01
   1.924257e+01   2.769439e+01
  -8.597790e+01   5.765867e+01
  -1.133131e+02   4.487237e+01
  -7.979311e+01  -7.668983e+00
   2.152239e+01  -8.117487e+01
   6.157903e+01  -8.318666e+01
   4.651711e+01  -1.296363e+01
  -3.122020e+00   5.416706e+01
  -2.292584e+01   4.648552e+01
  -3.717180e+01  -1.442466e+01
  -2.929014e+01  -5.489172e+01
  -3.327226e+00  -3.580578e+01
   3.394018e+01   3.752160e+00
   3.664620e+01   2.311436e+01
   1.753776e+01   2.310360e+00
  -3.540936e+00  -1.558171e+01
  -6.241041e+00  -3.556503e+00
  -1.985298e+00   2.902100e+01
  -1.081528e+01   4.595572e+01
  -3.260587e+01   1.872313e+01
  -3.524418e+01  -3.949676e+01
  -5.502363e+00  -5.815479e+01
   4.482290e+01  -1.924480e+01
   4.810602e+01   2.600794e+01
   2.499614e+01   6.269910e+01
  -5.085778e+01   2.078357e+01
  -8.057685e+01  -1.534249e+01
  -5.073328e+01  -4.364651e+01
   2.827614e+01  -4.344562e+01
   6.431995e+01  -2.736305e+01
   2.698170e+01  -9.318659e+00
  -3.666585e+01  -1.717936e+00
  -3.045451e+01  -1.239430e+01
   2.990657e+01  -3.183180e+01
   8.651220e+01  -2.554231e+01
