
 $NMID
 id='ANONYMOUS ', fmtdat='(2E16.6)'
 volume=1.0
 tramp=1.0
 $END
  -4.555105e+03   4.441764e+02
  -2.579921e+03  -2.449583e+03
   4.321410e+02  -2.552085e+03
   1.998898e+03  -6.325333e+02
   9.245392e+02   6.112676e+02
  -6.555777e+02   4.751132e+02
  -6.142890e+02  -6.432270e+02
   1.040181e+02  -9.927433e+02
   9.100068e+02  -6.340587e+02
   8.876636e+02   1.769689e+02
   4.442339e+02   8.131897e+02
  -1.863199e+02   8.370948e+02
  -5.257463e+02   9.808121e+01
  -3.239876e+02  -6.968528e+02
   2.561139e+02  -6.788028e+02
   5.419102e+02   3.823909e+00
   2.547697e+02   6.583390e+02
  -3.451787e+02   6.010703e+02
  -5.769020e+02   7.604964e+01
  -3.942241e+02  -3.110475e+02
  -2.713664e+01  -4.197552e+02
   2.121281e+02  -2.423612e+02
   1.599956e+02  -1.089640e+01
  -1.540435e+02   1.220385e+02
  -4.133978e+02  -1.042774e+02
  -1.223014e+02  -4.599199e+02
   4.894196e+02  -4.383142e+02
   8.937928e+02   3.153970e+01
   3.669241e+02   5.310138e+02
  -3.665916e+02   4.657357e+02
  -7.346823e+02  -4.491024e+01
  -4.363905e+02  -4.762550e+02
   2.882351e+02  -4.769780e+02
   4.708382e+02  -1.791584e+02
   3.819266e+02   2.320955e+02
   4.373339e+01   4.357122e+02
  -1.774940e+02   2.715645e+02
  -1.217375e+02  -2.232408e+02
   2.346230e+02  -3.511956e+02
   4.500095e+02   8.727971e+01
   1.515935e+02   5.879571e+02
  -3.638065e+02   6.093483e+02
  -5.297377e+02  -3.516103e+01
  -2.049963e+02  -5.381651e+02
   2.828870e+02  -2.762265e+02
   3.962251e+02   3.046355e+02
  -1.062260e+02   5.855197e+02
  -5.607958e+02   1.641886e+02
  -6.110785e+02  -3.535548e+02
  -2.143409e+02  -4.990810e+02
   3.894462e+02  -3.441382e+02
   6.873019e+02   8.754090e+01
   3.108614e+02   3.810040e+02
  -1.878552e+02   2.773676e+02
  -4.105314e+02   4.351772e+01
  -2.075469e+02  -1.729524e+02
   1.031319e+02  -1.133520e+02
   1.111311e+02   1.609341e+02
  -1.571113e+02   1.458093e+02
  -3.523667e+02  -1.021208e+02
  -1.512177e+02  -3.241182e+02
   2.128017e+02  -2.403812e+02
   3.263055e+02  -7.510320e+01
   2.453994e+02   2.697406e+01
  -2.669331e+01   2.273168e+02
  -2.177806e+02   3.206857e+02
  -3.743399e+02   1.709498e+02
  -3.085846e+02  -1.049070e+02
  -9.198352e+01  -4.914778e+02
   1.379834e+02  -3.497557e+02
   9.797878e+01  -1.133501e+02
   4.346822e+01   1.285724e+01
   5.009108e+01  -8.512100e+01
   1.907884e+02  -1.491415e+02
   2.788622e+02   4.206938e+01
   1.713806e+02   2.682042e+02
  -6.622642e+01   2.881379e+02
  -2.475941e+02  -3.182029e+01
  -2.138130e+02  -2.300628e+02
   2.011891e+01  -2.789294e+02
   2.667055e+02  -1.244853e+02
   3.474242e+02   1.566621e+02
   1.952887e+02   3.366878e+02
  -1.041861e+02   2.857334e+02
  -1.885517e+02   9.165718e+01
  -1.663839e+02   1.741207e+01
  -9.099074e+01   5.566719e+01
  -2.160569e+02   5.965733e+01
  -4.126003e+02  -8.255253e+01
  -3.145742e+02  -2.832708e+02
  -6.482791e+01  -4.495336e+02
   3.337900e+02  -4.506260e+02
   4.489430e+02  -2.089832e+02
   3.839178e+02   1.347276e+02
   6.536364e+01   3.041822e+02
  -1.190697e+02   2.061451e+02
  -5.904720e+01   1.323458e+01
   1.223428e+02  -1.132580e+02
   1.964828e+02   3.362614e+00
   4.714199e+01   1.701996e+02
  -1.397992e+02   1.658229e+02
  -1.867304e+02  -5.791740e+01
  -1.376629e+01  -1.810127e+02
   1.863341e+02  -1.907908e+01
   1.833783e+02   2.341337e+02
  -8.045365e+01   3.775712e+02
  -2.510966e+02   1.994505e+02
  -3.391066e+02  -4.544222e+01
  -2.899121e+02  -2.453448e+02
  -7.560585e+01  -2.698176e+02
   1.232422e+02  -1.737551e+02
   1.738349e+02  -2.382102e+01
   5.049797e+01   4.447290e+01
  -8.553167e+01  -3.742753e+01
  -2.713700e+01  -1.394306e+02
   1.218726e+02  -1.053741e+02
   1.688621e+02  -7.625421e+00
   5.339233e+01   7.216296e+01
  -8.878077e+01   2.060809e+01
  -4.810830e+01  -7.262452e+01
   1.287418e+02  -8.661393e+01
   2.967183e+02  -2.024362e+01
   2.796699e+02   1.463939e+02
   9.351069e+01   2.654729e+02
  -2.003580e+02   2.813375e+02
  -2.403376e+02   1.024052e+02
  -1.550477e+02  -6.238064e+01
   3.403311e+01  -1.094329e+02
   8.681772e+01   5.312284e+00
  -2.348617e+01   1.019584e+02
  -1.896233e+02   5.067449e+01
  -1.973953e+02  -1.048811e+02
  -8.002430e+01  -2.086664e+02
   9.953001e+01  -1.477317e+02
   1.414334e+02  -1.479867e+01
   7.245646e+01   3.949961e+01
  -3.887100e+01   5.889539e+00
  -5.052762e+01  -8.851948e+01
   7.164883e+01  -1.296659e+02
   2.132265e+02  -2.544685e+01
   1.761770e+02   1.246793e+02
   4.209292e+00   2.026520e+02
  -1.512228e+02   1.426829e+02
  -2.098000e+02   1.588422e+01
  -6.443898e+01  -1.047704e+02
   5.037270e+01  -1.145997e+02
   8.542804e+01  -3.965090e+01
   1.356981e+01   2.335254e+01
  -1.930932e+01   2.306291e+01
   1.137493e+01  -1.065803e+01
   7.121483e+01   8.816567e+00
   9.203390e+01   7.142450e+01
   2.438000e+01   1.538072e+02
  -1.318680e+02   1.664544e+02
  -2.095542e+02   3.142206e+01
  -2.158412e+02  -1.493675e+02
  -4.611152e+01  -2.180056e+02
   1.154705e+02  -1.897152e+02
   1.177970e+02  -3.407121e+01
   6.152064e+01   4.583956e+01
   2.591529e+01   4.039363e+01
   5.114763e+01  -1.594191e+01
   7.741338e+01  -4.494876e+00
   4.694492e+01   4.104136e+01
  -4.714203e+01   8.551421e+01
  -8.529863e+01   8.048805e+01
  -1.024507e+02  -3.018017e+01
   1.231302e+01  -1.196435e+02
   1.499979e+02  -1.221559e+02
   1.845413e+02   6.274075e+01
   1.097359e+02   1.925318e+02
  -8.546455e+01   2.726981e+02
  -2.324803e+02   8.946449e+01
  -2.768075e+02  -8.995784e+01
  -1.255078e+02  -1.639644e+02
   4.027536e+01  -1.449352e+02
   8.286304e+01  -7.428227e+01
   7.879441e+01  -8.141472e+01
   6.553231e+01  -8.954865e+01
   7.997499e+01  -8.081692e+01
   1.131044e+02   2.671015e+01
   1.091386e+02   1.594976e+02
   5.223069e+01   2.166165e+02
  -1.105823e+02   1.583996e+02
  -1.727075e+02   1.318953e+01
  -1.644710e+02  -1.329270e+02
  -4.144417e+01  -1.565008e+02
   6.948579e+01  -1.104303e+02
   6.232169e+01  -4.342020e+00
   4.200045e+00   4.194641e+01
  -1.210551e+01   3.556555e+01
   3.260091e+01   2.042887e+01
   8.456001e+01   1.240953e+01
   4.287640e+01   3.085076e+01
  -4.752267e+01   4.232390e+01
  -1.532379e+02   2.299815e+01
  -1.664436e+02  -4.964710e+01
  -1.895553e+01  -1.054753e+02
   1.112993e+02  -6.962627e+01
   1.401909e+02  -1.712358e+01
   4.354474e+01   3.550564e+01
  -5.192168e+01   3.414614e+01
  -7.362939e+01  -2.057068e+01
  -8.787786e+00  -6.712661e+01
   5.393430e+01  -4.759763e+01
   6.736168e+01  -4.867703e+00
   4.342983e+01   4.308193e+01
   3.934744e+01   4.302011e+01
   5.320650e+01   5.738635e+00
   6.649956e+01  -1.938866e+00
   4.148843e+01   7.238865e+01
  -1.847500e+01   1.559494e+02
  -1.089295e+02   1.346450e+02
  -1.663267e+02   4.596041e+01
  -1.184211e+02  -8.769002e+01
  -9.426661e+00  -1.210208e+02
   8.251489e+01  -6.921301e+01
   6.663802e+01   1.178236e+01
  -5.634048e+01   1.575037e+01
  -1.210077e+02  -3.445249e+01
  -8.603073e+01  -1.027996e+02
   8.229691e+01  -9.951595e+01
   1.770791e+02  -4.694779e+01
   1.590020e+02   4.057383e+01
   5.149311e+01   8.311114e+01
  -6.313104e+01   7.006288e+01
  -5.226529e+01  -4.322551e-01
   3.693606e+01  -2.603122e+01
   9.657937e+01   1.814497e+01
   4.307416e+01   1.173708e+02
  -8.641787e+01   1.373497e+02
  -1.705097e+02   5.507121e+01
  -1.224015e+02  -1.005994e+02
  -3.582502e+00  -1.841365e+02
   7.967699e+01  -1.426250e+02
   1.057738e+02   1.946126e+01
   6.365141e+01   1.274705e+02
   7.645892e+00   1.031540e+02
  -4.831848e+01   2.083462e+01
  -5.757173e+01  -3.018003e+01
  -2.666566e+01  -9.074248e+00
  -2.419294e+00   2.132907e+01
  -1.839345e+01  -1.364425e+01
  -6.370608e+01  -9.185337e+01
  -3.885199e+01  -1.176270e+02
   4.969580e+01  -4.674451e+01
   1.535234e+02   4.049290e+01
   1.294826e+02   7.417777e+01
   1.927734e+01   5.025334e+01
  -9.200445e+01   3.058097e+01
  -8.961800e+01   1.273591e+01
  -9.816828e+00  -8.705814e+00
   4.023822e+01  -2.421908e+01
   1.109834e+01  -2.251743e+01
  -2.272214e+01   5.507537e-01
   5.444314e+00   7.584069e+00
   6.478057e+01   1.167885e+00
   7.598963e+01   2.244936e+01
   2.564507e+00   7.380385e+01
  -1.075894e+02   9.726110e+01
  -1.940185e+02   3.573021e+01
  -1.333721e+02  -8.298885e+01
  -2.230781e+01  -1.497153e+02
   4.721598e+01  -1.398343e+02
   1.295677e+02  -4.425942e+01
   7.809254e+01   5.510890e+00
   2.530194e+01   3.914393e+01
  -1.412445e+00   7.110441e+00
   9.401615e+00   2.430457e+00
   3.867555e+01   4.071999e+01
   3.031639e+01   8.485842e+01
  -2.924658e+01   6.777854e+01
  -8.095572e+01  -1.967886e+01
  -9.040632e+01  -9.301228e+01
  -2.984716e+00  -1.038418e+02
   9.054813e+01  -2.685893e+01
   1.034408e+02   5.800120e+01
   3.315891e+01   9.473930e+01
  -6.749788e+01   5.356377e+01
  -9.977768e+01  -2.084247e+01
  -3.212893e+01  -5.359923e+01
   3.140750e+01  -5.598958e+01
   3.133705e+01  -3.100581e+01
  -2.984582e+01  -6.795700e-01
  -6.551245e+01   3.276678e-02
  -1.818557e+01  -2.462743e+01
   7.284742e+01  -5.654798e+01
   1.138312e+02  -5.174470e+01
   7.683198e+01   7.506339e+00
  -9.417869e+00   7.879319e+01
  -5.174641e+01   8.467411e+01
  -3.812163e+01   1.446021e+01
   5.969061e+00  -5.707406e+01
   2.351634e+01  -4.261431e+01
   3.536916e+01   2.112874e+01
   2.383342e+01   5.397291e+01
  -6.731080e-01   3.390852e+01
  -3.566768e+01  -4.346274e+00
  -3.770973e+01  -2.303767e+01
  -1.898926e+01  -8.485000e-01
  -8.582653e-01   1.205836e+01
   5.057038e+00  -1.875012e+00
   8.432681e+00  -2.868206e+01
   1.821474e+01  -4.378494e+01
   2.863501e+01  -1.026412e+01
   3.697051e+01   4.275844e+01
   1.287545e+00   5.442784e+01
  -4.312287e+01   1.414442e+01
  -5.467642e+01  -2.893686e+01
  -2.626958e+01  -6.719542e+01
   4.967233e+01  -2.645388e+01
   7.854534e+01   2.397887e+01
   5.228793e+01   4.409043e+01
  -3.171415e+01   4.919385e+01
  -6.497368e+01   2.323893e+01
  -2.588633e+01   8.253534e+00
   3.765729e+01   2.946645e+00
   3.209482e+01   1.381917e+01
  -3.191773e+01   3.373780e+01
  -9.377336e+01   2.871238e+01
