
 $NMID
 id='ANONYMOUS ', fmtdat='(2E16.6)'
 volume=1.0
 tramp=1.0
 $END
  -5.138286e+03   4.766441e+01
  -2.926091e+03  -2.804552e+03
   7.076943e+02  -2.763592e+03
   1.990590e+03  -1.029828e+03
   1.176512e+03   7.644774e+02
  -7.856384e+02   4.658120e+02
  -9.604054e+02  -3.320855e+02
   7.732394e+01  -1.179000e+03
   8.657257e+02  -7.386176e+02
   9.269406e+02   1.139433e+02
   5.208794e+02   1.043493e+03
  -3.243445e+02   1.043654e+03
  -6.988550e+02   4.854814e+01
  -4.498034e+02  -6.930371e+02
   2.816095e+02  -7.345525e+02
   6.294071e+02   3.896245e+01
   3.311972e+02   8.405090e+02
  -4.190885e+02   7.548029e+02
  -6.186584e+02  -3.051705e+01
  -3.754567e+02  -3.579605e+02
   2.026373e+01  -5.721464e+02
   2.726700e+02  -2.380666e+02
   2.376005e+02  -2.346941e+01
  -1.191741e+02   8.973432e+01
  -4.314153e+02  -1.107925e+02
  -1.349285e+02  -4.217097e+02
   5.278406e+02  -4.337125e+02
   8.915397e+02   1.270515e+02
   3.742244e+02   5.442721e+02
  -3.847622e+02   5.506844e+02
  -7.311387e+02  -1.228151e+02
  -4.204310e+02  -5.650623e+02
   2.747512e+02  -4.851734e+02
   5.512456e+02  -1.728394e+02
   3.822852e+02   2.012233e+02
   1.226869e+01   4.975617e+02
  -1.783465e+02   3.279021e+02
  -1.201684e+02  -2.187898e+02
   1.346273e+02  -4.226831e+02
   4.481415e+02   1.030934e+02
   1.898525e+02   7.194336e+02
  -3.583610e+02   6.836830e+02
  -5.883531e+02  -4.423938e+01
  -2.759357e+02  -5.131409e+02
   3.312139e+02  -3.071488e+02
   4.343649e+02   2.789450e+02
  -1.204130e+02   5.712234e+02
  -6.227144e+02   1.365365e+02
  -6.326604e+02  -4.907859e+02
  -1.935091e+02  -6.008977e+02
   4.340089e+02  -3.481753e+02
   6.931357e+02   1.832791e+02
   3.726567e+02   3.953432e+02
  -1.362670e+02   4.074895e+02
  -4.735301e+02   2.259077e+01
  -2.246068e+02  -2.183139e+02
   1.529222e+02  -1.261481e+02
   1.396697e+02   1.514554e+02
  -1.209198e+02   2.046883e+02
  -3.570906e+02  -6.241234e+01
  -1.348098e+02  -3.169939e+02
   2.507771e+02  -2.332026e+02
   3.475161e+02  -6.752585e+01
   2.288446e+02   1.146488e+02
  -4.498100e+01   2.156076e+02
  -2.698185e+02   3.160705e+02
  -3.368793e+02   2.000105e+02
  -3.492007e+02  -1.230866e+02
  -3.871919e+01  -4.443514e+02
   1.596753e+02  -3.793045e+02
   1.472965e+02  -1.274276e+02
   2.108243e+01   4.925675e+01
   2.661933e+01  -6.561370e+01
   2.093339e+02  -1.352494e+02
   2.793385e+02   2.153877e+01
   1.557285e+02   2.815414e+02
  -8.304447e+01   2.801110e+02
  -2.228334e+02  -2.950934e+00
  -2.585948e+02  -2.431784e+02
   1.328569e+01  -3.035380e+02
   2.841045e+02  -9.100105e+01
   3.915981e+02   1.550908e+02
   1.407211e+02   3.926362e+02
  -1.144928e+02   2.908954e+02
  -2.502013e+02   1.100814e+02
  -1.632046e+02  -4.785396e+00
  -1.134580e+02   4.106538e+01
  -2.389369e+02   7.295117e+01
  -3.363073e+02  -6.149694e+01
  -3.274422e+02  -2.922060e+02
  -4.264677e+01  -4.481071e+02
   4.044100e+02  -3.983969e+02
   5.441473e+02  -1.681939e+02
   3.515822e+02   1.215539e+02
   6.992608e+01   3.173982e+02
  -1.628087e+02   2.416902e+02
  -9.114314e+01   3.305025e+01
   1.002779e+02  -1.183876e+02
   2.424715e+02  -3.281267e+01
   3.847909e+01   1.976916e+02
  -1.742886e+02   2.114226e+02
  -2.000813e+02  -6.461626e+01
   7.341000e+00  -2.069922e+02
   1.954407e+02  -1.560429e+01
   1.709365e+02   2.530168e+02
  -6.214597e+01   3.380066e+02
  -2.422764e+02   1.614873e+02
  -3.012603e+02  -7.082681e+01
  -2.458422e+02  -2.940445e+02
  -7.302111e+01  -2.611783e+02
   1.027707e+02  -1.822889e+02
   1.929694e+02  -3.343851e+01
   5.729314e+01   3.698945e+01
  -7.585203e+01  -4.401947e+01
  -8.088291e+00  -1.344561e+02
   1.332286e+02  -1.065619e+02
   2.006981e+02   2.049176e+00
   6.114389e+01   7.533772e+01
  -8.257954e+01   1.897529e+01
  -4.359728e+01  -7.962770e+01
   1.231735e+02  -9.187743e+01
   3.088189e+02   1.563340e+01
   3.061733e+02   1.366288e+02
   6.027015e+01   2.655434e+02
  -2.140215e+02   2.397571e+02
  -2.761168e+02   1.513422e+02
  -1.573997e+02  -5.135942e+01
   3.606472e+01  -1.116027e+02
   8.430488e+01  -1.500748e+01
  -2.350499e+01   1.087546e+02
  -1.827121e+02   6.806616e+01
  -1.939890e+02  -1.214777e+02
  -5.742046e+01  -2.257501e+02
   7.679754e+01  -1.666928e+02
   1.513154e+02  -4.845530e+01
   8.484062e+01   4.925149e+01
  -3.165280e+01   1.304856e+01
  -2.451982e+01  -6.420049e+01
   8.108970e+01  -1.224923e+02
   2.132433e+02  -1.568357e+01
   2.012642e+02   1.004086e+02
  -1.194335e+01   1.935886e+02
  -1.668921e+02   1.529749e+02
  -2.103199e+02  -1.457451e+01
  -7.441807e+01  -1.274621e+02
   6.760378e+01  -1.251805e+02
   1.004938e+02  -3.241681e+01
   2.390562e+01   2.520152e+01
  -2.256713e+01   1.764064e+01
   9.587779e+00   7.987595e-01
   6.077921e+01   1.489360e+01
   7.189597e+01   8.790287e+01
  -2.842754e+00   1.273377e+02
  -1.460741e+02   1.319458e+02
  -2.137159e+02   2.115939e+01
  -1.962255e+02  -1.702497e+02
  -8.421452e+01  -2.529597e+02
   1.114797e+02  -1.876411e+02
   1.214382e+02  -3.291238e+01
   6.741635e+01   5.458828e+01
   2.484868e+01   3.282306e+01
   5.800307e+01  -6.517329e+00
   7.702714e+01   1.147692e+00
   3.266797e+01   5.512333e+01
  -5.307622e+01   9.997772e+01
  -1.112166e+02   3.088980e+01
  -8.771197e+01  -4.825087e+01
   2.233736e+01  -1.088716e+02
   1.685376e+02  -9.724371e+01
   1.668312e+02   7.483588e+01
   9.882849e+01   2.051300e+02
  -1.205696e+02   2.679659e+02
  -2.602437e+02   1.019207e+02
  -2.780452e+02  -9.701463e+01
  -1.254754e+02  -1.885544e+02
   5.051461e+01  -1.387612e+02
   9.888024e+01  -7.992981e+01
   8.087894e+01  -7.445804e+01
   8.075143e+01  -9.677763e+01
   1.066343e+02  -7.214922e+01
   1.118335e+02   1.048096e+01
   1.173198e+02   1.778309e+02
   1.037482e+01   2.381288e+02
  -8.811758e+01   1.477531e+02
  -1.580592e+02   2.041489e+01
  -1.165762e+02  -1.495482e+02
  -5.453036e+00  -1.762211e+02
   7.028359e+01  -9.293233e+01
   6.946587e+01  -7.972025e+00
   5.735938e+00   4.037449e+01
  -7.602117e+00   3.590543e+01
   3.169407e+01   2.168762e+01
   8.945189e+01   1.712222e+01
   4.104110e+01   3.283338e+01
  -7.587065e+01   3.371406e+01
  -1.637690e+02  -3.071467e+00
  -1.702839e+02  -4.591673e+01
  -1.508081e+01  -9.708690e+01
   1.201263e+02  -7.407405e+01
   1.513975e+02  -1.212434e+01
   5.056256e+01   4.497001e+01
  -6.043943e+01   3.682611e+01
  -7.168803e+01  -1.121545e+01
   4.608590e+00  -6.536758e+01
   5.622951e+01  -5.786986e+01
   7.056445e+01  -5.184411e+00
   4.188242e+01   6.437433e+01
   3.490598e+01   4.411434e+01
   5.918917e+01   4.356330e+00
   6.846207e+01   4.322585e+00
   4.058620e+01   6.850934e+01
  -2.871673e+01   1.510547e+02
  -1.195253e+02   1.366240e+02
  -1.997812e+02   2.885555e+01
  -1.101159e+02  -9.576570e+01
  -2.189045e+00  -1.311203e+02
   9.387841e+01  -6.411243e+01
   5.337627e+01   1.917366e+01
  -5.687818e+01   2.490595e+01
  -1.417239e+02  -3.600337e+01
  -8.458912e+01  -1.155742e+02
   9.870258e+01  -9.923865e+01
   1.826415e+02  -4.276412e+01
   1.579730e+02   6.114236e+01
   3.809042e+01   9.374040e+01
  -6.983088e+01   7.337482e+01
  -5.012649e+01   8.730900e+00
   4.203758e+01  -2.913931e+01
   9.737098e+01   3.387387e+01
   3.985176e+01   1.284320e+02
  -1.144861e+02   1.598135e+02
  -1.702360e+02   4.218749e+01
  -1.450040e+02  -1.119299e+02
   5.793502e-01  -2.017269e+02
   1.014180e+02  -1.340357e+02
   1.048751e+02   2.386514e+01
   5.151739e+01   1.205166e+02
   1.042981e+00   1.068438e+02
  -4.482282e+01   1.101780e+01
  -5.476115e+01  -3.547428e+01
  -3.187671e+01  -7.219508e+00
  -6.200978e+00   2.238736e+01
  -1.956592e+01  -1.270690e+01
  -6.930675e+01  -8.974198e+01
  -4.095084e+01  -1.030327e+02
   4.791479e+01  -4.162622e+01
   1.329796e+02   4.764115e+01
   1.252034e+02   8.446736e+01
   1.883987e+01   4.706605e+01
  -8.575520e+01   1.415593e+01
  -9.335107e+01   5.840354e+00
  -8.453760e+00  -4.824037e+00
   4.330418e+01  -2.129573e+01
   1.436903e+01  -2.055876e+01
  -2.067112e+01  -1.570267e+00
   6.766490e+00   1.020387e+01
   7.243637e+01   7.569085e+00
   8.497888e+01   3.252209e+01
   7.057468e+00   6.965466e+01
  -1.153912e+02   1.009394e+02
  -1.797249e+02   4.772792e+01
  -1.228895e+02  -7.166200e+01
  -4.047426e+01  -1.515701e+02
   9.143098e+01  -1.590293e+02
   1.107457e+02  -4.582756e+01
   8.659455e+01   2.701188e+01
   2.218109e+01   3.114603e+01
  -5.816933e+00   8.076563e+00
   9.483141e+00   3.234744e+00
   3.366594e+01   4.765599e+01
   2.160243e+01   1.036572e+02
  -2.498069e+01   6.606288e+01
  -7.334452e+01  -2.109623e+01
  -7.123989e+01  -1.106660e+02
  -1.172768e+01  -1.208263e+02
   8.591459e+01  -1.263561e+01
   1.062445e+02   6.308260e+01
   4.500393e+01   1.046614e+02
  -6.982785e+01   5.787657e+01
  -9.532843e+01  -2.892527e+01
  -2.181837e+01  -5.415218e+01
   3.645230e+01  -5.236316e+01
   2.742035e+01  -2.589042e+01
  -3.584615e+01  -1.888896e+00
  -7.694963e+01   7.834698e-01
  -1.355440e+01  -2.432134e+01
   7.201591e+01  -6.365647e+01
   8.695247e+01  -6.287453e+01
   6.117996e+01   2.188042e+01
  -2.598846e+01   8.135841e+01
  -5.944610e+01   7.912530e+01
  -4.021750e+01   1.191153e-01
   8.156903e+00  -5.572326e+01
   2.834659e+01  -4.106650e+01
   3.171795e+01   2.472625e+01
   1.682415e+01   4.974591e+01
  -6.130756e+00   3.037130e+01
  -3.063504e+01  -1.151289e+01
  -4.072626e+01  -2.823165e+01
  -2.056305e+01  -2.088045e+00
  -3.550908e+00   1.303152e+01
   7.550573e+00  -1.465965e+00
   5.997976e+00  -3.971103e+01
   2.207640e+01  -4.943292e+01
   3.566066e+01  -5.481080e+00
   3.180363e+01   5.925813e+01
  -8.408170e+00   7.364416e+01
  -4.322728e+01   1.842983e+01
  -5.651449e+01  -3.697128e+01
  -1.198260e+01  -6.597195e+01
   4.944776e+01  -3.129826e+01
   9.304238e+01   1.709571e+01
   5.286548e+01   5.052995e+01
  -3.237461e+01   4.263785e+01
  -5.370549e+01   1.666753e+01
  -2.697733e+01   6.801504e+00
   3.683742e+01   3.759919e+00
   3.667416e+01   1.401023e+01
  -3.667175e+01   3.205263e+01
  -1.051735e+02   2.089458e+01
