
 $NMID
 id='ANONYMOUS ', fmtdat='(2E16.6)'
 volume=1.0
 tramp=1.0
 $END
  -4.396592e+03  -8.187838e+01
  -2.514334e+03  -2.247349e+03
   5.531527e+02  -2.682268e+03
   1.809819e+03  -6.994670e+02
   1.009211e+03   3.067334e+02
  -4.471021e+02   3.943730e+02
  -7.239713e+02  -2.338574e+02
   8.182044e+00  -1.133004e+03
   7.010818e+02  -7.724647e+02
   8.272031e+02   1.361991e+02
   3.999670e+02   8.172312e+02
  -1.946434e+02   8.627929e+02
  -5.115449e+02   1.082062e+02
  -2.820485e+02  -6.435860e+02
   3.041968e+02  -6.766725e+02
   5.269451e+02   3.055994e+01
   2.432429e+02   6.457154e+02
  -2.748767e+02   6.495253e+02
  -5.422220e+02   1.323671e+02
  -3.352838e+02  -2.699851e+02
  -9.095273e+00  -4.588283e+02
   2.251650e+02  -2.395169e+02
   1.618260e+02  -2.462819e+01
  -9.535019e+01  -2.695597e+00
  -3.376934e+02  -1.484006e+02
  -1.004300e+02  -4.450405e+02
   4.533846e+02  -3.150102e+02
   7.772515e+02   1.357143e+02
   2.792560e+02   3.819223e+02
  -3.712117e+02   3.826851e+02
  -5.998861e+02  -8.563581e+01
  -3.141645e+02  -4.753085e+02
   3.583356e+02  -3.612184e+02
   5.030813e+02  -1.767084e+02
   3.454503e+02   2.123378e+02
   1.224499e+02   4.063534e+02
  -1.046542e+02   2.491466e+02
  -8.724470e+01  -1.873927e+02
   2.041155e+02  -3.953883e+02
   3.233164e+02   1.180989e+02
   1.018911e+02   5.688009e+02
  -3.514162e+02   6.407682e+02
  -4.445056e+02  -4.076501e+01
  -2.227213e+02  -5.101178e+02
   3.203994e+02  -2.623500e+02
   3.569627e+02   3.473654e+02
  -6.138373e+01   4.933432e+02
  -5.410883e+02   1.189902e+02
  -5.793341e+02  -3.924179e+02
  -1.823608e+02  -5.892655e+02
   3.793154e+02  -2.539515e+02
   6.288297e+02   9.579553e+01
   3.229558e+02   3.173001e+02
  -1.266806e+02   2.720071e+02
  -3.372996e+02   4.413946e+01
  -2.090650e+02  -1.417288e+02
   1.156550e+02  -8.191053e+01
   1.039200e+02   1.000991e+02
  -1.332353e+02   1.376659e+02
  -2.907826e+02  -9.704050e+01
  -1.201114e+02  -2.890678e+02
   2.021399e+02  -2.378867e+02
   3.181138e+02  -5.265922e+01
   2.233454e+02   7.595192e+01
  -8.625480e+00   2.651225e+02
  -2.553847e+02   3.079076e+02
  -3.477702e+02   1.671868e+02
  -2.927089e+02  -1.798295e+02
  -5.720097e+01  -4.448877e+02
   1.240616e+02  -3.694003e+02
   1.200817e+02  -1.364102e+02
   2.553237e+01  -2.486276e+01
   5.657714e+01  -1.000003e+02
   2.024300e+02  -1.015039e+02
   2.722188e+02   5.963316e+01
   1.681241e+02   2.930363e+02
  -1.049912e+02   2.310762e+02
  -1.863779e+02  -2.593699e+01
  -1.904012e+02  -2.698692e+02
   3.409122e+01  -2.497427e+02
   2.772657e+02  -8.549039e+01
   3.667229e+02   1.461653e+02
   1.672257e+02   3.257685e+02
  -9.598734e+01   3.035793e+02
  -2.376142e+02   1.100945e+02
  -1.645467e+02   4.372954e+01
  -1.148232e+02   6.811588e+01
  -2.483938e+02   6.485311e+01
  -3.846455e+02  -8.931020e+01
  -2.870683e+02  -2.628891e+02
   2.735765e+00  -4.509865e+02
   3.405107e+02  -4.445073e+02
   4.820758e+02  -1.382014e+02
   3.432367e+02   8.995808e+01
   6.039075e+01   2.867809e+02
  -1.097327e+02   1.923026e+02
  -5.668345e+01   3.656389e+01
   1.133869e+02  -9.696106e+01
   1.955179e+02  -1.699624e+01
   3.440168e+01   1.862838e+02
  -1.418153e+02   1.493139e+02
  -1.817808e+02  -6.697866e+01
   3.242275e+01  -1.809827e+02
   1.715108e+02  -1.098403e+01
   1.829325e+02   2.460123e+02
  -7.369772e+01   3.405344e+02
  -2.490691e+02   2.009548e+02
  -3.691455e+02  -4.358026e+01
  -2.369168e+02  -2.604228e+02
  -9.118013e+01  -2.812477e+02
   1.130090e+02  -1.602391e+02
   1.834001e+02  -2.642923e+01
   4.877637e+01   2.287060e+01
  -5.500003e+01  -4.632659e+01
  -1.284615e+01  -1.325638e+02
   1.486934e+02  -8.950115e+01
   1.852069e+02   7.165361e+00
   4.246174e+01   7.178705e+01
  -7.428426e+01  -6.758982e+00
  -4.607437e+01  -8.506097e+01
   1.266372e+02  -8.142867e+01
   2.745670e+02   1.546418e+01
   2.620524e+02   1.610374e+02
   5.717606e+01   2.625044e+02
  -1.904613e+02   2.111881e+02
  -2.875167e+02   1.164193e+02
  -1.437471e+02  -5.230060e+01
   2.809198e+01  -9.205476e+01
   7.497218e+01   2.015821e+00
  -3.823842e+01   9.948298e+01
  -2.029073e+02   7.515067e+01
  -1.914252e+02  -1.020776e+02
  -7.788798e+01  -2.020592e+02
   9.918705e+01  -1.551705e+02
   1.398027e+02  -3.382679e+01
   6.505223e+01   4.569024e+01
  -4.108612e+01  -2.823643e+00
  -1.985645e+01  -9.508278e+01
   5.932721e+01  -1.323182e+02
   1.825891e+02  -7.502324e+00
   1.964661e+02   1.170280e+02
  -2.836833e+00   2.207192e+02
  -1.667361e+02   1.377617e+02
  -2.095635e+02  -7.689109e+00
  -6.265593e+01  -1.036893e+02
   6.559757e+01  -1.219240e+02
   8.960919e+01  -3.203076e+01
   1.654712e+01   2.822095e+01
  -3.005826e+01   1.585863e+01
   7.921258e+00  -1.145084e+01
   7.698768e+01   3.777340e+00
   8.267150e+01   7.992709e+01
   9.195987e+00   1.552252e+02
  -1.065609e+02   1.399941e+02
  -2.437813e+02   1.956044e+01
  -1.530044e+02  -1.572249e+02
  -4.228941e+01  -2.021665e+02
   1.269905e+02  -1.648195e+02
   1.342743e+02  -2.910813e+01
   6.733250e+01   5.104644e+01
   2.924460e+01   3.214869e+01
   5.484694e+01  -9.161958e+00
   7.667639e+01   4.921839e+00
   4.239482e+01   5.148039e+01
  -3.734402e+01   9.540365e+01
  -1.144419e+02   4.958254e+01
  -1.031222e+02  -4.001205e+01
   1.812651e+01  -1.329470e+02
   1.500751e+02  -8.927276e+01
   1.956846e+02   4.101241e+01
   7.079761e+01   1.788334e+02
  -1.069865e+02   1.955366e+02
  -2.545717e+02   9.594309e+01
  -2.646255e+02  -9.843586e+01
  -1.135575e+02  -1.744509e+02
   5.239761e+01  -1.407404e+02
   1.031390e+02  -6.729569e+01
   8.321051e+01  -7.642677e+01
   6.630507e+01  -7.799451e+01
   9.974063e+01  -7.149969e+01
   1.269729e+02   9.293033e+00
   9.967218e+01   1.557714e+02
   2.795880e+01   2.406730e+02
  -9.766962e+01   1.717909e+02
  -1.623034e+02   3.098920e+01
  -1.279745e+02  -1.489443e+02
  -3.403162e+00  -1.770077e+02
   7.752214e+01  -1.017223e+02
   6.018808e+01  -8.098456e+00
   4.795217e+00   4.352607e+01
  -1.541424e+01   3.308871e+01
   2.865541e+01   1.904993e+01
   7.814546e+01   1.165662e+01
   4.956891e+01   2.834537e+01
  -6.657308e+01   2.676309e+01
  -1.765127e+02  -8.087702e+00
  -1.438735e+02  -3.322425e+01
  -1.584621e+01  -8.900534e+01
   1.217379e+02  -6.518505e+01
   1.471021e+02  -1.364751e+01
   3.670465e+01   3.407731e+01
  -5.889326e+01   3.337542e+01
  -7.342537e+01  -1.432657e+01
  -6.655197e+00  -6.123113e+01
   5.336253e+01  -6.130759e+01
   6.483766e+01   6.891113e-01
   3.911091e+01   5.720666e+01
   3.599713e+01   4.053268e+01
   5.574022e+01   3.835399e+00
   6.581830e+01  -1.386171e+00
   5.228578e+01   5.817060e+01
  -1.007829e+01   1.529360e+02
  -1.254622e+02   1.218370e+02
  -1.674906e+02   4.806977e+01
  -1.238606e+02  -1.079569e+02
   1.488492e+01  -1.167092e+02
   8.737325e+01  -5.552592e+01
   6.070031e+01   1.749069e+01
  -5.685516e+01   2.211785e+01
  -1.204772e+02  -3.504326e+01
  -7.937530e+01  -1.040312e+02
   8.763065e+01  -8.576719e+01
   1.804581e+02  -3.487240e+01
   1.505589e+02   3.978114e+01
   2.938792e+01   8.982191e+01
  -6.902849e+01   6.800870e+01
  -4.492383e+01   2.077852e+00
   3.766369e+01  -2.514823e+01
   9.124970e+01   2.091489e+01
   3.747638e+01   1.185536e+02
  -8.714076e+01   1.238459e+02
  -1.712133e+02   8.824791e+01
  -1.353178e+02  -1.010776e+02
  -1.216074e+01  -1.868183e+02
   8.576982e+01  -1.277185e+02
   9.500619e+01   1.837546e+01
   5.126716e+01   1.186974e+02
  -1.178365e+01   1.044393e+02
  -5.178974e+01   1.659099e+01
  -4.993807e+01  -3.722230e+01
  -2.472424e+01  -1.010286e+01
  -4.980277e+00   1.862814e+01
  -2.045899e+01  -1.979295e+01
  -7.146642e+01  -9.376909e+01
  -2.227745e+01  -1.007572e+02
   4.930061e+01  -4.033492e+01
   1.525913e+02   4.131996e+01
   1.335269e+02   7.309172e+01
   2.573899e+01   4.429999e+01
  -9.363730e+01   2.512754e+01
  -9.079723e+01   3.295358e+00
  -1.442322e+01  -7.852109e+00
   3.683817e+01  -2.350154e+01
   1.570630e+01  -1.733824e+01
  -1.624417e+01   2.369979e+00
   4.772440e+00   7.262802e+00
   7.378060e+01  -3.334366e+00
   8.043717e+01   2.417923e+01
   2.161333e+01   7.087055e+01
  -1.017365e+02   1.166316e+02
  -1.721357e+02   5.669239e+01
  -1.289830e+02  -6.789445e+01
  -4.555436e+01  -1.788957e+02
   8.727093e+01  -1.624871e+02
   1.170461e+02  -4.025040e+01
   8.093362e+01   2.474985e+01
   2.397243e+01   3.701371e+01
  -2.940819e+00   9.748088e+00
   1.034528e+01   6.079235e+00
   3.234176e+01   4.899291e+01
   2.127367e+01   9.799748e+01
  -2.225914e+01   7.254810e+01
  -7.728030e+01  -1.576636e+01
  -8.513169e+01  -1.083457e+02
  -1.174367e+01  -1.117123e+02
   8.925578e+01  -2.223814e+01
   1.075072e+02   5.872341e+01
   4.326231e+01   1.090081e+02
  -5.957847e+01   4.878487e+01
  -9.916974e+01  -2.093327e+01
  -3.908954e+01  -4.804330e+01
   3.768431e+01  -5.607502e+01
   3.435759e+01  -2.802919e+01
  -3.558527e+01   1.323406e+00
  -6.784945e+01   7.335577e-01
  -1.816412e+01  -2.837964e+01
   7.161683e+01  -6.174134e+01
   1.088873e+02  -5.725497e+01
   6.845788e+01   1.941361e+01
  -2.179433e+01   7.645375e+01
  -5.392012e+01   8.204138e+01
  -4.411906e+01   6.852478e+00
  -4.132338e-01  -5.490723e+01
   3.322932e+01  -4.716375e+01
   3.573169e+01   1.760421e+01
   2.103964e+01   5.257681e+01
  -4.709191e+00   3.968732e+01
  -3.380354e+01  -5.907579e+00
  -3.864930e+01  -2.304374e+01
  -2.167718e+01  -2.000727e+00
   2.526614e-01   1.524582e+01
   4.166064e+00   3.822068e+00
   5.963446e+00  -3.273732e+01
   7.114707e+00  -4.134043e+01
   2.467325e+01  -9.444770e+00
   2.737458e+01   4.623745e+01
  -2.997925e+00   5.570672e+01
  -3.769395e+01   2.449944e+01
  -6.177768e+01  -3.124155e+01
  -1.778287e+01  -6.099888e+01
   5.580436e+01  -3.158820e+01
   8.007523e+01   1.477910e+01
   5.432162e+01   4.442195e+01
  -3.294311e+01   4.142742e+01
  -5.632766e+01   2.956863e+01
  -2.878181e+01   6.070850e+00
   3.465049e+01  -8.593884e-01
   3.390326e+01   7.422028e+00
  -3.318554e+01   3.012641e+01
  -7.764692e+01   8.275017e+00
