
 $NMID
 id='ANONYMOUS ', fmtdat='(2E16.6)'
 volume=1.0
 tramp=1.0
 $END
   4.823019e+03   5.255365e+02
   2.693454e+03   2.866717e+03
  -6.081732e+02   2.819934e+03
  -1.945750e+03   8.012387e+02
  -1.040885e+03  -6.548942e+02
   6.871662e+02  -6.008162e+02
   8.516359e+02   3.789643e+02
  -8.400533e+01   1.236834e+03
  -7.861498e+02   7.768128e+02
  -9.289586e+02  -1.109705e+02
  -4.054258e+02  -1.044751e+03
   2.831053e+02  -8.997140e+02
   6.161506e+02  -9.657103e+01
   3.555883e+02   7.144123e+02
  -2.925165e+02   7.496641e+02
  -5.937485e+02  -1.098347e+01
  -2.373239e+02  -7.276385e+02
   3.630303e+02  -6.597335e+02
   5.879027e+02  -2.806023e+01
   3.427378e+02   3.441361e+02
  -4.662749e+01   5.178781e+02
  -2.656167e+02   2.273044e+02
  -1.964271e+02   1.652671e+01
   1.222705e+02  -2.834255e+01
   3.692315e+02   1.136944e+02
   1.447338e+02   4.527223e+02
  -5.226734e+02   3.713317e+02
  -7.988072e+02  -1.516503e+02
  -3.179046e+02  -5.038957e+02
   3.968919e+02  -5.180801e+02
   7.110340e+02   9.580719e+01
   3.312746e+02   5.343722e+02
  -3.772927e+02   4.252333e+02
  -5.388206e+02   1.221738e+02
  -3.375300e+02  -2.163580e+02
  -4.772741e+01  -4.534812e+02
   1.540416e+02  -2.809903e+02
   1.050592e+02   1.813613e+02
  -1.855471e+02   4.217630e+02
  -3.933465e+02  -1.135268e+02
  -1.204326e+02  -7.333513e+02
   3.269142e+02  -6.674929e+02
   5.092895e+02   4.949375e+01
   2.320657e+02   5.717451e+02
  -3.336433e+02   3.008452e+02
  -3.679877e+02  -3.745526e+02
   9.498203e+01  -5.213147e+02
   6.001520e+02  -1.327015e+02
   6.098082e+02   4.490352e+02
   1.756762e+02   6.161518e+02
  -4.339839e+02   2.956148e+02
  -6.643967e+02  -2.083582e+02
  -3.237625e+02  -3.966696e+02
   1.436979e+02  -3.617444e+02
   4.328004e+02  -1.077802e+01
   2.134054e+02   2.000504e+02
  -1.368763e+02   8.287000e+01
  -1.375888e+02  -1.275226e+02
   1.546551e+02  -1.691797e+02
   3.178197e+02   1.123103e+02
   1.331713e+02   3.012911e+02
  -2.303561e+02   2.259737e+02
  -3.037758e+02   4.604748e+01
  -2.094482e+02  -1.092632e+02
   1.039615e+01  -2.498962e+02
   2.963854e+02  -3.183439e+02
   3.655039e+02  -1.745035e+02
   3.247029e+02   1.892220e+02
   3.603271e+01   4.640880e+02
  -1.481823e+02   3.746271e+02
  -1.363537e+02   1.569191e+02
  -1.283090e+01  -1.108990e+01
  -6.670353e+01   7.448154e+01
  -2.430503e+02   1.147475e+02
  -3.208736e+02  -3.897461e+01
  -1.628262e+02  -3.056106e+02
   9.187189e+01  -2.613704e+02
   2.125598e+02   1.061979e+01
   2.248460e+02   2.357579e+02
  -2.976659e+01   2.815960e+02
  -2.862514e+02   7.811323e+01
  -3.854081e+02  -1.535421e+02
  -1.506475e+02  -3.517306e+02
   1.165985e+02  -3.036889e+02
   2.563106e+02  -8.376423e+01
   1.644485e+02  -2.235294e+01
   1.155021e+02  -4.706875e+01
   2.527693e+02  -5.165561e+01
   3.856992e+02   8.270421e+01
   3.216851e+02   2.985137e+02
   1.378225e+01   4.595306e+02
  -4.071696e+02   3.885972e+02
  -5.512856e+02   1.231918e+02
  -3.539637e+02  -8.971974e+01
  -7.330426e+01  -2.917227e+02
   1.543066e+02  -2.281536e+02
   8.522459e+01  -3.700312e+01
  -1.197358e+02   1.187955e+02
  -2.259057e+02   1.806209e+01
  -3.831252e+01  -1.931148e+02
   1.617901e+02  -1.743143e+02
   2.039182e+02   8.561943e+01
  -3.877932e+01   2.023999e+02
  -1.717740e+02   1.286026e+00
  -1.759652e+02  -2.310494e+02
   8.943520e+01  -3.477672e+02
   2.579632e+02  -1.612853e+02
   3.295774e+02   5.709414e+01
   2.482840e+02   2.886034e+02
   8.682337e+01   2.771511e+02
  -1.107790e+02   1.671091e+02
  -1.820514e+02   1.734694e+01
  -5.926331e+01  -2.948792e+01
   6.820541e+01   4.776054e+01
   1.796573e+01   1.226971e+02
  -1.391781e+02   9.310152e+01
  -1.838229e+02  -1.409749e+01
  -5.698631e+01  -8.144054e+01
   7.942113e+01  -5.980331e+00
   4.680721e+01   8.672960e+01
  -1.255779e+02   8.645537e+01
  -2.951524e+02  -3.486566e+01
  -3.058131e+02  -1.542007e+02
  -5.534062e+01  -2.665789e+02
   2.150464e+02  -2.202239e+02
   2.805033e+02  -1.208243e+02
   1.351841e+02   5.432740e+01
  -4.025580e+01   1.055499e+02
  -8.420850e+01   2.283616e-01
   3.831498e+01  -1.039259e+02
   2.040439e+02  -6.372404e+01
   1.843882e+02   1.177519e+02
   7.260117e+01   2.242497e+02
  -9.539740e+01   1.614166e+02
  -1.443685e+02   4.583786e+01
  -6.991803e+01  -5.133904e+01
   3.743325e+01  -4.604394e+00
   2.432199e+01   7.279058e+01
  -6.212736e+01   1.277613e+02
  -1.957675e+02  -1.032614e+00
  -1.939028e+02  -1.037553e+02
   1.108462e+01  -2.029913e+02
   1.802213e+02  -1.399357e+02
   2.127760e+02   1.156975e+01
   6.669816e+01   1.151875e+02
  -6.595109e+01   1.213323e+02
  -9.862641e+01   2.977349e+01
  -1.608280e+01  -3.004722e+01
   2.440613e+01  -1.505452e+01
  -6.876799e+00   9.908149e+00
  -6.867479e+01  -1.204784e+01
  -7.043825e+01  -7.498789e+01
   8.624974e+00  -1.512596e+02
   1.316848e+02  -1.432599e+02
   2.394552e+02  -1.681398e+01
   1.641663e+02   1.678810e+02
   5.038773e+01   2.374610e+02
  -1.252409e+02   1.844247e+02
  -1.324823e+02   2.628310e+01
  -6.545359e+01  -5.998435e+01
  -2.809710e+01  -3.331434e+01
  -6.231320e+01   7.550832e+00
  -7.266378e+01   1.171542e+00
  -3.491557e+01  -5.482027e+01
   4.530734e+01  -9.371435e+01
   1.133979e+02  -4.081070e+01
   9.521687e+01   4.209129e+01
  -2.184048e+01   1.255806e+02
  -1.624513e+02   8.002550e+01
  -1.892760e+02  -6.830852e+01
  -8.510426e+01  -2.009265e+02
   1.435890e+02  -2.276125e+02
   2.633631e+02  -8.246013e+01
   2.781315e+02   9.967975e+01
   1.091618e+02   2.011281e+02
  -5.265807e+01   1.549119e+02
  -1.082883e+02   6.827172e+01
  -8.663282e+01   7.312839e+01
  -8.706034e+01   8.791502e+01
  -1.019368e+02   6.561048e+01
  -1.172412e+02  -5.034044e+00
  -1.042849e+02  -1.827778e+02
  -1.271144e+01  -2.412627e+02
   9.577125e+01  -1.612533e+02
   1.619497e+02  -1.369593e+01
   1.278447e+02   1.462781e+02
   1.722793e+00   1.822235e+02
  -7.258150e+01   9.201371e+01
  -6.271708e+01   1.094982e+01
  -6.486325e+00  -4.491607e+01
   1.350193e+01  -3.242302e+01
  -2.930822e+01  -2.064153e+01
  -8.786028e+01  -1.845433e+01
  -4.588374e+01  -3.531225e+01
   7.688530e+01  -3.490670e+01
   1.755695e+02   1.724207e+01
   1.546469e+02   3.506484e+01
   1.365389e+01   9.292465e+01
  -1.322356e+02   8.149587e+01
  -1.480630e+02   1.869135e+01
  -4.068167e+01  -4.518343e+01
   5.930071e+01  -3.057479e+01
   7.863789e+01   8.469407e+00
   4.622762e+00   6.249433e+01
  -5.931419e+01   6.051242e+01
  -7.149927e+01  -2.252796e+00
  -3.809340e+01  -6.524422e+01
  -3.394677e+01  -3.826932e+01
  -6.031983e+01  -4.351563e+00
  -6.929234e+01  -5.045481e+00
  -3.946653e+01  -6.456630e+01
   1.908514e+01  -1.555209e+02
   1.218621e+02  -1.359498e+02
   1.835323e+02  -3.588487e+01
   1.097828e+02   1.034785e+02
  -6.470415e+00   1.213847e+02
  -9.119564e+01   5.801800e+01
  -6.147353e+01  -1.852735e+01
   5.829378e+01  -1.900712e+01
   1.351572e+02   3.537167e+01
   8.256944e+01   1.057559e+02
  -9.863474e+01   9.521581e+01
  -1.871324e+02   4.207847e+01
  -1.530657e+02  -6.179920e+01
  -3.301088e+01  -9.175861e+01
   6.640752e+01  -6.747203e+01
   4.836613e+01  -4.166911e+00
  -4.181349e+01   2.812299e+01
  -9.038507e+01  -2.664580e+01
  -4.073001e+01  -1.202096e+02
   9.771085e+01  -1.382875e+02
   1.767471e+02  -6.273682e+01
   1.387684e+02   1.095408e+02
  -1.714932e+00   2.187607e+02
  -1.074898e+02   1.273549e+02
  -9.107437e+01  -2.337363e+01
  -4.048512e+01  -1.302154e+02
   5.365963e+00  -1.068673e+02
   5.022370e+01  -1.087723e+01
   5.083735e+01   3.835194e+01
   2.823759e+01   8.287290e+00
   6.283712e+00  -2.098896e+01
   2.045823e+01   1.782641e+01
   6.807818e+01   9.248228e+01
   3.297342e+01   9.955122e+01
  -4.951031e+01   3.687961e+01
  -1.376446e+02  -4.700212e+01
  -1.310656e+02  -7.273799e+01
  -2.089744e+01  -4.721504e+01
   8.904074e+01  -1.734910e+01
   9.517630e+01  -4.647516e+00
   1.266654e+01   6.996806e+00
  -4.294485e+01   2.284206e+01
  -1.671703e+01   1.788745e+01
   1.872725e+01   3.338963e-01
  -4.804600e+00  -9.357438e+00
  -7.133478e+01  -1.763324e+00
  -8.196404e+01  -3.907925e+01
  -1.404634e+01  -6.615526e+01
   1.081585e+02  -1.134386e+02
   1.735618e+02  -4.109652e+01
   1.274169e+02   6.150263e+01
   4.958281e+01   1.677068e+02
  -9.848280e+01   1.522711e+02
  -1.088687e+02   4.844489e+01
  -7.665091e+01  -3.216819e+01
  -2.476934e+01  -3.375593e+01
   5.128306e+00  -9.000965e+00
  -8.726254e+00  -4.396674e+00
  -3.149138e+01  -4.955244e+01
  -2.361039e+01  -9.741801e+01
   3.084356e+01  -7.049360e+01
   7.657843e+01   2.384735e+01
   8.634342e+01   1.152435e+02
   1.214054e+01   1.194926e+02
  -9.008830e+01   2.143497e+01
  -1.025034e+02  -6.720280e+01
  -4.075386e+01  -1.078672e+02
   6.607786e+01  -4.617183e+01
   1.004302e+02   2.928240e+01
   3.118891e+01   5.086231e+01
  -3.494485e+01   5.367669e+01
  -3.445325e+01   2.707249e+01
   3.641332e+01   2.987788e+00
   7.019411e+01   1.746072e-01
   1.555381e+01   2.771601e+01
  -7.072630e+01   6.067013e+01
  -1.060546e+02   5.935006e+01
  -6.542399e+01  -2.440808e+01
   2.948144e+01  -7.736142e+01
   6.410718e+01  -8.061983e+01
   4.411327e+01  -1.707024e+00
  -5.699752e+00   5.647262e+01
  -3.479641e+01   4.579910e+01
  -3.104913e+01  -2.427175e+01
  -1.863307e+01  -4.810281e+01
   4.087120e+00  -3.796383e+01
   3.061151e+01   1.038054e+01
   4.321546e+01   2.545598e+01
   2.116678e+01   4.080076e+00
   1.340055e+00  -1.224868e+01
  -6.962333e+00  -1.846049e+00
  -6.867514e+00   3.906133e+01
  -1.157396e+01   4.169830e+01
  -3.176817e+01   4.261338e+00
  -2.418855e+01  -5.187032e+01
   1.126729e+01  -6.292650e+01
   3.796002e+01  -1.849346e+01
   5.639054e+01   3.514234e+01
   1.432490e+01   6.246716e+01
  -5.730871e+01   3.427558e+01
  -8.824252e+01  -2.058680e+01
  -5.150073e+01  -4.500052e+01
   3.621057e+01  -4.261791e+01
   6.368037e+01  -2.582126e+01
   2.635622e+01  -5.724985e+00
  -3.604670e+01   1.494778e+00
  -3.914291e+01  -1.077552e+01
   3.513863e+01  -2.914914e+01
   9.510226e+01  -9.613492e+00
