
 $NMID
 id='ANONYMOUS ', fmtdat='(2E16.6)'
 volume=1.0
 tramp=1.0
 $END
   3.701121e+03   1.375050e+02
   2.489766e+03   2.112534e+03
  -7.528648e+02   2.368065e+03
  -1.649646e+03   7.199525e+02
  -1.090922e+03  -2.538326e+02
   2.818290e+02  -3.808001e+02
   6.998949e+02   2.622567e+02
   1.147121e+02   6.087224e+02
  -6.048675e+02   5.045515e+02
  -6.754508e+02  -7.876952e+01
  -2.729880e+02  -7.471759e+02
   1.197984e+02  -6.509258e+02
   4.068530e+02  -1.434475e+02
   2.138894e+02   4.534710e+02
  -2.922015e+02   5.251667e+02
  -4.964598e+02  -9.573727e+01
  -1.975931e+02  -5.397095e+02
   2.853290e+02  -5.642081e+02
   4.813455e+02  -1.513099e+02
   3.396340e+02   2.260474e+02
   7.936793e+01   3.774762e+02
  -1.715936e+02   2.059072e+02
  -1.573323e+02   1.972172e+01
   1.786333e+02   3.078549e+01
   2.690589e+02   1.578480e+02
   1.095771e+02   4.019964e+02
  -5.353441e+02   2.909510e+02
  -7.483852e+02  -1.596908e+02
  -3.268818e+02  -4.310366e+02
   4.189644e+02  -3.543067e+02
   5.767645e+02   1.745763e+02
   2.325924e+02   4.379411e+02
  -3.501235e+02   3.481709e+02
  -4.334906e+02   1.220481e+02
  -3.250559e+02  -1.950784e+02
  -5.760618e+01  -3.068448e+02
   1.628086e+02  -2.425180e+02
  -5.629086e+00   1.673012e+02
  -1.934136e+02   2.567165e+02
  -4.201549e+02  -1.377833e+02
  -2.883293e+01  -4.760458e+02
   2.696149e+02  -4.039953e+02
   4.161702e+02   9.798959e+01
   7.507241e+01   3.990362e+02
  -2.703416e+02   2.503715e+02
  -2.887798e+02  -2.729944e+02
   1.489783e+02  -4.886902e+02
   5.616507e+02  -8.867154e+01
   5.853736e+02   4.000040e+02
   1.085585e+02   5.576694e+02
  -3.282356e+02   2.314345e+02
  -5.749724e+02  -1.076962e+02
  -2.726661e+02  -3.785809e+02
   1.222606e+02  -2.339568e+02
   3.254015e+02  -4.269548e+01
   2.213304e+02   1.107331e+02
  -8.009524e+01   7.045428e+01
  -1.263724e+02  -1.256793e+02
   1.232451e+02  -7.713785e+01
   2.110865e+02   4.303373e+01
   8.184542e+01   2.810662e+02
  -1.935030e+02   2.264671e+02
  -3.058492e+02   3.530747e+01
  -2.025642e+02  -5.519609e+01
  -1.581142e+01  -2.294058e+02
   2.460622e+02  -2.830479e+02
   3.183784e+02  -1.318452e+02
   2.415771e+02   1.617899e+02
   3.597268e+01   4.197115e+02
  -1.028967e+02   3.418871e+02
  -6.762285e+01   1.394808e+02
  -3.797990e+01   5.887800e+01
  -9.078844e+01   1.067848e+02
  -2.283588e+02   8.101296e+01
  -2.448036e+02  -9.845881e+01
  -1.083786e+02  -2.758820e+02
   9.258231e+01  -1.953406e+02
   1.850158e+02   1.414878e+01
   1.446444e+02   2.577187e+02
  -3.891131e+01   2.274373e+02
  -2.442831e+02   5.597611e+01
  -2.937379e+02  -1.634799e+02
  -1.500838e+02  -3.338668e+02
   7.962883e+01  -2.502449e+02
   1.961434e+02  -1.058029e+02
   1.408468e+02  -1.657837e+01
   1.092885e+02  -4.298679e+01
   2.451827e+02  -2.842215e+01
   3.451539e+02   8.947165e+01
   2.247717e+02   2.782440e+02
  -1.555256e+01   4.628571e+02
  -4.195649e+02   3.570484e+02
  -4.577875e+02   1.752291e+02
  -2.873461e+02  -1.133839e+02
  -2.427278e+01  -2.637032e+02
   1.203631e+02  -1.930140e+02
   5.145587e+01  -1.995834e+01
  -1.045869e+02   8.094297e+01
  -1.602352e+02  -2.976325e+01
  -3.111235e+01  -1.933279e+02
   1.681719e+02  -1.499942e+02
   1.427848e+02   6.141193e+01
  -3.766825e+01   1.718953e+02
  -1.601067e+02   2.210904e+01
  -1.347311e+02  -2.411252e+02
   5.785118e+01  -3.284234e+02
   2.355608e+02  -1.720306e+02
   3.192497e+02   1.196756e+02
   2.880951e+02   2.995298e+02
   3.337019e+01   2.299480e+02
  -1.107893e+02   1.454527e+02
  -1.512173e+02   6.578040e+00
  -3.791492e+01  -2.668819e+01
   5.751379e+01   5.015593e+01
   5.431149e+00   1.346053e+02
  -1.325952e+02   8.375064e+01
  -1.684019e+02  -2.312795e+01
  -2.817564e+01  -5.003512e+01
   7.584672e+01   3.169900e-02
   2.781513e+01   8.766267e+01
  -1.156048e+02   1.023517e+02
  -3.017407e+02  -3.130609e+01
  -2.077759e+02  -1.995616e+02
  -4.638979e+01  -2.472104e+02
   2.193438e+02  -2.145891e+02
   2.595709e+02  -9.914416e+01
   1.324239e+02   6.050114e+01
  -3.070460e+01   7.502607e+01
  -7.237002e+01  -4.727984e+00
   4.761066e+01  -8.243855e+01
   1.542858e+02  -1.760167e+01
   1.529635e+02   9.906386e+01
   6.437405e+01   2.216981e+02
  -8.093781e+01   1.040812e+02
  -1.192787e+02   1.760776e+01
  -4.953171e+01  -4.833861e+01
   3.401456e+01   7.737557e+00
   1.809124e+01   9.486941e+01
  -7.124569e+01   1.097246e+02
  -1.583687e+02  -3.335925e+00
  -1.642090e+02  -1.297506e+02
   9.340661e+00  -1.899252e+02
   1.671114e+02  -1.156249e+02
   1.870277e+02   2.498956e-01
   4.014526e+01   8.316200e+01
  -6.998143e+01   1.025021e+02
  -7.619474e+01   2.846044e+01
  -1.036488e-01  -2.569431e+01
   2.647587e+01  -1.512297e+01
  -7.390952e+00   2.189684e+01
  -6.780577e+01  -7.045597e+00
  -7.952032e+01  -1.059087e+02
   6.525562e+00  -1.616834e+02
   1.202734e+02  -1.190810e+02
   2.013680e+02   1.110264e+00
   1.598317e+02   1.407724e+02
   4.744634e+01   2.132689e+02
  -1.020129e+02   1.398610e+02
  -1.175672e+02   2.422013e+01
  -5.336084e+01  -5.166983e+01
  -2.621503e+01  -3.195036e+01
  -5.156263e+01   7.030432e+00
  -7.646549e+01  -4.351725e+00
  -4.771930e+01  -6.231468e+01
   3.777478e+01  -9.002825e+01
   1.116947e+02  -4.155779e+01
   8.127693e+01   4.304411e+01
  -1.744608e+01   1.164016e+02
  -1.461391e+02   6.257555e+01
  -1.698904e+02  -5.642986e+01
  -7.970580e+01  -2.216110e+02
   1.033131e+02  -2.326013e+02
   2.539385e+02  -8.692880e+01
   2.434402e+02   1.093032e+02
   9.661902e+01   1.581237e+02
  -4.196880e+01   1.279212e+02
  -8.212690e+01   5.757634e+01
  -7.386918e+01   6.823071e+01
  -5.699472e+01   8.428173e+01
  -8.948118e+01   6.521444e+01
  -1.175628e+02  -2.943720e+01
  -9.707863e+01  -1.833938e+02
  -9.287039e+00  -2.147679e+02
   9.964289e+01  -1.478039e+02
   1.782188e+02  -1.498779e+01
   1.122443e+02   1.281284e+02
  -1.573350e+01   1.540398e+02
  -7.049327e+01   8.332885e+01
  -5.757183e+01  -3.359394e+00
   7.924746e-02  -3.887599e+01
   2.453943e+01  -2.507726e+01
  -2.667481e+01  -1.915300e+01
  -7.448453e+01  -2.539915e+01
  -4.319883e+01  -4.144637e+01
   7.179237e+01  -3.874159e+01
   1.600950e+02   1.194440e+01
   1.305633e+02   5.508302e+01
   8.424798e+00   8.872224e+01
  -1.209763e+02   5.167234e+01
  -1.543204e+02   1.145960e+01
  -2.775607e+01  -4.441711e+01
   5.190379e+01  -3.053512e+01
   6.539292e+01   2.046352e+01
   1.424307e+01   6.739714e+01
  -4.681296e+01   6.561164e+01
  -5.236403e+01  -1.561493e+00
  -3.474808e+01  -5.114817e+01
  -4.264646e+01  -4.186760e+01
  -4.957819e+01  -5.065640e+00
  -6.783301e+01  -8.022562e+00
  -3.713865e+01  -7.356669e+01
   3.026172e+01  -1.293072e+02
   1.164569e+02  -1.280576e+02
   1.629683e+02  -2.822335e+01
   9.329495e+01   8.517844e+01
  -4.347148e+00   1.069314e+02
  -9.802365e+01   4.907485e+01
  -5.730898e+01  -1.990319e+01
   5.252587e+01  -2.029735e+01
   1.215216e+02   4.067885e+01
   5.191062e+01   9.864741e+01
  -9.214942e+01   9.015606e+01
  -1.615620e+02   1.917982e+01
  -1.214631e+02  -4.626729e+01
  -2.799812e+01  -8.330565e+01
   6.122989e+01  -6.520335e+01
   3.858313e+01   2.985576e+00
  -3.637352e+01   2.688892e+01
  -8.450140e+01  -2.534941e+01
  -3.410780e+01  -9.985896e+01
   9.928394e+01  -1.259958e+02
   1.571284e+02  -5.036409e+01
   1.303410e+02   9.183098e+01
  -2.822462e+01   1.638676e+02
  -9.363692e+01   1.226458e+02
  -8.860327e+01  -1.225108e+01
  -3.738823e+01  -1.087604e+02
   1.506202e+01  -1.024635e+02
   4.672559e+01  -1.391716e+01
   4.583384e+01   3.555511e+01
   2.021900e+01   9.694506e+00
   7.458869e+00  -1.872288e+01
   2.344652e+01   1.783506e+01
   4.135981e+01   8.478468e+01
   2.394284e+01   8.693373e+01
  -5.126869e+01   4.073893e+01
  -1.170965e+02  -4.111970e+01
  -1.333519e+02  -8.597164e+01
  -1.406526e+01  -4.351552e+01
   8.476052e+01  -1.400275e+01
   8.656977e+01  -1.048231e+00
   1.462261e+01   1.213516e+01
  -3.830942e+01   1.774594e+01
  -1.877256e+01   1.601468e+01
   1.553977e+01  -1.188558e+00
  -4.449635e+00  -8.012327e+00
  -7.760126e+01  -4.197121e+00
  -7.420837e+01  -4.044844e+01
  -1.028121e+01  -7.278337e+01
   9.550132e+01  -8.798690e+01
   1.572125e+02  -2.875685e+01
   1.169775e+02   6.283490e+01
   2.508446e+01   1.563504e+02
  -7.858747e+01   1.552710e+02
  -1.133180e+02   4.356821e+01
  -7.663025e+01  -2.911470e+01
  -2.180227e+01  -2.991938e+01
   2.141378e+00  -1.013479e+01
  -1.198507e+01  -6.661420e+00
  -2.315226e+01  -4.618694e+01
  -1.501483e+01  -8.647218e+01
   2.690756e+01  -6.158262e+01
   6.958110e+01   2.263888e+01
   6.509997e+01   1.013223e+02
  -6.800921e-02   1.111992e+02
  -7.470635e+01   2.230386e+01
  -9.262038e+01  -6.496490e+01
  -2.611735e+01  -9.928711e+01
   6.167035e+01  -4.675544e+01
   1.085212e+02   1.785337e+01
   3.736538e+01   5.334682e+01
  -3.995411e+01   4.561187e+01
  -3.700608e+01   3.115960e+01
   2.945878e+01  -1.493021e+00
   6.171979e+01  -1.261517e+00
   1.421471e+01   2.269279e+01
  -7.698095e+01   5.136517e+01
  -1.069503e+02   4.574469e+01
  -6.150545e+01  -2.048631e+01
   2.349306e+01  -7.520155e+01
   6.525306e+01  -8.092540e+01
   3.769966e+01  -3.552197e+00
  -6.259307e-01   4.567076e+01
  -2.796803e+01   3.780709e+01
  -3.501120e+01  -1.530338e+01
  -2.254242e+01  -5.544224e+01
   3.988477e+00  -3.461200e+01
   3.289414e+01   1.037483e+01
   3.633909e+01   2.029742e+01
   1.576865e+01   5.069674e+00
  -3.426996e+00  -1.753543e+01
  -5.827937e+00  -1.008986e+00
  -6.734553e+00   3.019700e+01
  -1.408479e+01   4.806992e+01
  -3.143278e+01   7.437342e+00
  -2.844024e+01  -3.739765e+01
  -7.308075e-02  -6.112364e+01
   3.850267e+01  -1.620852e+01
   4.148161e+01   3.885672e+01
   9.938031e+00   5.861713e+01
  -5.791748e+01   3.576268e+01
  -8.473360e+01  -1.595193e+01
  -4.923563e+01  -4.338481e+01
   2.877006e+01  -3.823077e+01
   6.278229e+01  -1.578496e+01
   2.272640e+01  -9.936898e-01
  -3.143709e+01  -9.228205e-02
  -3.382501e+01  -9.886270e+00
   2.757288e+01  -2.367425e+01
   9.111388e+01  -1.077478e+01
