
 $NMID
 id='ANONYMOUS ', fmtdat='(2E16.6)'
 volume=1.0
 tramp=1.0
 $END
  -2.999208e+03  -3.182873e+02
  -2.059511e+03  -1.722821e+03
   1.327627e+02  -1.805225e+03
   9.820159e+02  -9.401256e+02
   9.757807e+02  -8.150292e+01
   1.319772e+02   2.589005e+02
  -2.938954e+02  -1.438959e+02
  -9.363600e+01  -3.100710e+02
   3.275410e+02  -3.823307e+02
   4.705121e+02  -7.909796e+01
   2.406145e+02   4.794142e+02
  -7.984459e+01   6.118973e+02
  -2.621906e+02   1.611549e+02
  -1.541317e+02  -3.443163e+02
   2.064087e+02  -4.409105e+02
   3.867766e+02   3.645997e+01
   2.294331e+02   4.366356e+02
  -1.877774e+02   5.102333e+02
  -3.833445e+02   2.254489e+02
  -3.273768e+02  -1.370489e+02
  -1.361712e+02  -3.429958e+02
   1.194081e+02  -1.525751e+02
   8.830326e+01  -4.209062e+01
  -1.962234e+02  -8.845521e+01
  -2.198229e+02  -2.166991e+02
  -3.747447e+01  -3.296886e+02
   5.251233e+02  -1.774059e+02
   6.211876e+02   2.167090e+02
   1.701184e+02   3.193549e+02
  -3.268451e+02   3.154523e+02
  -4.153150e+02  -1.827305e+02
  -1.952675e+02  -3.771668e+02
   3.341100e+02  -2.284535e+02
   3.480691e+02  -9.165139e+01
   2.721702e+02   1.673815e+02
   6.813160e+01   2.220194e+02
  -5.864865e+01   1.557217e+02
   9.201298e+01  -1.133967e+02
   1.514284e+02  -9.654024e+01
   1.831374e+02   1.627079e+02
  -1.559010e+01   3.374858e+02
  -2.485436e+02   3.303166e+02
  -2.354714e+02  -8.536560e+01
  -6.619576e+01  -2.481771e+02
   1.654900e+02  -1.728660e+02
   2.241690e+02   2.091201e+02
  -1.891365e+02   3.501651e+02
  -4.808713e+02   2.335735e+01
  -4.380975e+02  -3.589276e+02
  -1.191668e+02  -4.898464e+02
   2.677747e+02  -1.744937e+02
   5.071675e+02   6.969484e+01
   2.301433e+02   2.902839e+02
  -5.179038e+01   1.438096e+02
  -2.135484e+02   4.693511e+01
  -2.311859e+02  -6.781542e+01
   8.989085e+00  -3.597638e+01
   1.365309e+01   7.417196e+01
  -9.456756e+01   3.807372e+01
  -1.606097e+02  -4.144507e+01
  -7.858537e+01  -1.833660e+02
   1.310443e+02  -1.993149e+02
   3.049006e+02  -5.271374e+01
   2.362845e+02   7.352539e+01
   2.045679e+01   2.553006e+02
  -2.663852e+02   2.828492e+02
  -2.993848e+02   1.202099e+02
  -2.027651e+02  -1.632153e+02
  -1.878501e+01  -3.538812e+02
   5.590063e+01  -2.750810e+02
   4.771432e+01  -1.632785e+02
   4.252165e+01  -9.269998e+01
   1.256401e+02  -1.120073e+02
   2.475372e+02  -3.003022e+01
   2.002090e+02   1.183610e+02
   9.470774e+01   2.552519e+02
  -1.053764e+02   1.825833e+02
  -1.603710e+02  -3.506745e+01
  -1.196375e+02  -2.279629e+02
   5.866322e+01  -1.929293e+02
   2.198711e+02  -3.197096e+01
   2.496152e+02   1.679542e+02
   1.393110e+02   2.981201e+02
  -4.323353e+01   2.013704e+02
  -1.384933e+02   1.143900e+02
  -1.275708e+02   5.230552e+01
  -1.148643e+02   7.496535e+01
  -2.483234e+02   9.501345e+00
  -3.387091e+02  -1.216548e+02
  -2.124195e+02  -2.626269e+02
   3.555711e+01  -4.141727e+02
   4.066784e+02  -3.823328e+02
   4.629014e+02  -1.778620e+02
   2.470618e+02   1.141369e+02
   8.007194e+00   2.224199e+02
  -1.107608e+02   1.624270e+02
  -1.994112e+01   2.657345e+01
   1.057011e+02  -5.618753e+01
   1.072572e+02   3.563161e+01
  -3.280691e+00   1.556493e+02
  -1.184779e+02   1.062634e+02
  -8.943465e+01  -6.882618e+01
   3.713771e+01  -1.205653e+02
   1.264048e+02  -4.889953e+00
   1.201080e+02   2.286088e+02
  -5.118612e+01   2.807097e+02
  -2.125076e+02   1.649533e+02
  -3.179175e+02  -1.109292e+02
  -2.866328e+02  -2.719995e+02
  -9.323484e+00  -2.266684e+02
   1.327961e+02  -1.199762e+02
   1.438347e+02  -1.104689e+01
   2.108816e+01   1.406145e+01
  -5.379215e+01  -5.973474e+01
   1.110407e+01  -1.263461e+02
   1.205379e+02  -5.107515e+01
   1.446543e+02   3.978867e+01
   2.412709e+01   3.976727e+01
  -8.025781e+01  -1.680587e+01
  -2.468702e+01  -9.590966e+01
   1.308934e+02  -8.081234e+01
   2.817494e+02   5.355905e+01
   2.196225e+02   2.054534e+02
   8.801586e+00   2.309232e+02
  -2.062009e+02   1.984941e+02
  -2.375534e+02   4.277104e+01
  -1.142841e+02  -5.785510e+01
   3.198085e+01  -5.311773e+01
   5.944944e+01   6.284133e+00
  -5.018497e+01   7.563254e+01
  -1.424364e+02   2.760116e+01
  -1.522814e+02  -9.709878e+01
  -4.638463e+01  -1.979052e+02
   8.501374e+01  -9.350806e+01
   9.110305e+01  -1.574172e+01
   3.296794e+01   3.951596e+01
  -3.623608e+01  -1.795130e+01
  -1.561099e+01  -1.009558e+02
   8.065326e+01  -1.103464e+02
   1.576120e+02   9.351000e+00
   1.562939e+02   1.052562e+02
  -3.092157e+00   1.733664e+02
  -1.354235e+02   1.099565e+02
  -1.621798e+02  -1.096711e+01
  -4.234032e+01  -7.132150e+01
   5.195587e+01  -8.641177e+01
   6.486380e+01  -1.967083e+01
  -8.420778e+00   2.583427e+01
  -3.523460e+01   9.935511e+00
   6.131357e+00  -2.443714e+01
   6.917119e+01  -7.592170e+00
   9.195239e+01   9.544830e+01
   6.152428e+00   1.660130e+02
  -1.241691e+02   9.860080e+01
  -2.061471e+02  -1.043279e+01
  -1.289096e+02  -1.484584e+02
  -3.738600e+01  -2.018938e+02
   1.005536e+02  -1.317861e+02
   1.096047e+02  -2.470504e+01
   4.936261e+01   4.108044e+01
   2.485985e+01   2.903668e+01
   5.012823e+01  -1.048837e+01
   7.457391e+01   4.496539e+00
   5.858241e+01   5.126101e+01
  -4.344653e+01   9.853410e+01
  -1.104034e+02   5.438223e+01
  -8.983512e+01  -4.293120e+01
   1.962799e+01  -1.223122e+02
   1.478320e+02  -5.266559e+01
   1.629033e+02   6.200770e+01
   3.894909e+01   2.061233e+02
  -1.203295e+02   2.125961e+02
  -2.389471e+02   8.550561e+01
  -2.121280e+02  -1.188905e+02
  -7.589818e+01  -1.509206e+02
   4.970779e+01  -1.195106e+02
   7.116017e+01  -6.053662e+01
   6.822820e+01  -6.139096e+01
   5.960812e+01  -8.433155e+01
   8.953963e+01  -6.205679e+01
   1.054931e+02   1.173758e+01
   8.763433e+01   1.536933e+02
   1.314167e+01   1.992334e+02
  -8.440301e+01   1.484440e+02
  -1.643762e+02   1.773259e+01
  -9.719569e+01  -1.273893e+02
   1.148963e+01  -1.446725e+02
   6.589807e+01  -7.033893e+01
   5.666001e+01   1.364778e+01
  -1.201306e+01   4.231641e+01
  -2.781525e+01   2.697408e+01
   2.144455e+01   1.411836e+01
   8.055531e+01   2.315734e+01
   4.290132e+01   3.811922e+01
  -7.196290e+01   3.809878e+01
  -1.569303e+02  -6.366473e+00
  -1.234045e+02  -6.958086e+01
  -6.872805e+00  -8.990073e+01
   1.180800e+02  -5.172850e+01
   1.467292e+02  -4.307819e+00
   3.155201e+01   4.238821e+01
  -4.682984e+01   3.001767e+01
  -6.274489e+01  -1.907638e+01
  -1.611729e+01  -6.402616e+01
   3.762777e+01  -6.211500e+01
   5.607522e+01   6.306510e-01
   4.437568e+01   3.899493e+01
   4.165409e+01   4.788272e+01
   4.326017e+01   3.135787e+00
   6.582926e+01   9.927577e+00
   3.920558e+01   6.999397e+01
  -3.754741e+01   1.350842e+02
  -1.137223e+02   1.099097e+02
  -1.697348e+02   2.860917e+01
  -1.088112e+02  -6.877903e+01
   1.429446e+01  -1.052236e+02
   9.948555e+01  -4.480910e+01
   5.598120e+01   1.491733e+01
  -4.792269e+01   1.493724e+01
  -1.113554e+02  -6.333946e+01
  -5.227759e+01  -1.015714e+02
   8.646506e+01  -7.378731e+01
   1.448867e+02  -2.976220e+01
   1.218736e+02   3.810457e+01
   2.215668e+01   8.168650e+01
  -6.350438e+01   5.701289e+01
  -3.685148e+01  -3.625651e+00
   3.858913e+01  -2.451490e+01
   7.443689e+01   1.962979e+01
   3.020520e+01   1.025882e+02
  -8.775292e+01   1.159625e+02
  -1.538821e+02   4.563497e+01
  -1.111363e+02  -8.430501e+01
   1.547410e+01  -1.431870e+02
   7.169174e+01  -1.185909e+02
   8.576561e+01   9.398277e+00
   2.783180e+01   9.515277e+01
  -1.851336e+01   9.936831e+01
  -4.959068e+01   1.175424e+01
  -4.120346e+01  -3.466122e+01
  -1.465252e+01  -7.753358e+00
  -7.064111e+00   1.500025e+01
  -2.830014e+01  -1.544872e+01
  -3.956268e+01  -8.181204e+01
  -1.077111e+01  -9.111951e+01
   5.128908e+01  -3.743024e+01
   1.073096e+02   5.275900e+01
   1.229877e+02   6.665477e+01
   1.316745e+01   4.249459e+01
  -7.454595e+01   1.473527e+01
  -7.547067e+01  -4.521073e-01
  -1.644847e+01  -1.419075e+01
   3.319919e+01  -1.352925e+01
   1.950767e+01  -1.360361e+01
  -1.293794e+01   1.443725e+00
   3.414596e+00   6.290984e+00
   6.752787e+01   2.596577e+00
   7.608349e+01   3.054398e+01
   1.373222e+01   7.336586e+01
  -8.481611e+01   9.404957e+01
  -1.504136e+02   3.647354e+01
  -1.258803e+02  -4.203446e+01
  -1.926691e+01  -1.419550e+02
   8.247582e+01  -1.510942e+02
   1.033247e+02  -5.126043e+01
   7.763357e+01   1.714294e+01
   2.234968e+01   3.279309e+01
   3.020843e-01   1.241384e+01
   1.423173e+01   8.620896e+00
   2.908432e+01   4.588747e+01
   1.387539e+01   7.981836e+01
  -2.741673e+01   5.859165e+01
  -6.241296e+01  -1.461958e+01
  -4.988140e+01  -9.736679e+01
  -1.410356e+01  -9.917051e+01
   6.548438e+01  -3.085825e+01
   7.817936e+01   6.365860e+01
   3.479192e+01   8.954973e+01
  -4.965974e+01   4.980145e+01
  -9.321512e+01  -1.600645e+01
  -3.802075e+01  -4.926051e+01
   3.327095e+01  -5.232811e+01
   4.060014e+01  -2.796789e+01
  -2.442811e+01   2.656896e+00
  -5.302993e+01   3.559012e+00
  -1.107013e+01  -2.480019e+01
   6.804908e+01  -4.757838e+01
   1.029631e+02  -4.289618e+01
   5.776105e+01   2.031926e+01
  -2.258378e+01   7.084305e+01
  -6.329624e+01   7.501272e+01
  -3.715272e+01   6.596116e+00
  -6.256880e+00  -3.873800e+01
   2.532012e+01  -4.049758e+01
   3.392337e+01   8.342393e+00
   1.966953e+01   4.884277e+01
  -2.046773e+00   3.577155e+01
  -2.985737e+01  -7.145172e+00
  -3.824958e+01  -1.898575e+01
  -1.596876e+01  -4.320913e+00
   2.624220e+00   1.990869e+01
   4.692506e+00   7.830736e+00
  -2.435972e+00  -2.593154e+01
   6.086122e+00  -5.293998e+01
   2.943647e+01  -1.344747e+01
   3.604832e+01   3.282522e+01
   3.526144e-01   5.852309e+01
  -3.725115e+01   1.687890e+01
  -4.598918e+01  -2.591362e+01
  -1.802970e+01  -5.717035e+01
   5.521743e+01  -2.987370e+01
   8.460765e+01   1.083908e+01
   4.275389e+01   3.778411e+01
  -3.206741e+01   3.727094e+01
  -5.628134e+01   2.031485e+01
  -2.711253e+01   3.307005e+00
   2.879392e+01  -1.678956e+00
   3.040166e+01   2.652957e+00
  -2.220693e+01   1.836884e+01
  -8.190814e+01   1.582828e+01
