
 $NMID
 id='ANONYMOUS ', fmtdat='(2E16.6)'
 volume=1.0
 tramp=1.0
 $END
   3.343396e+03   1.874731e+02
   1.966874e+03   2.369225e+03
  -3.322775e+02   2.392636e+03
  -1.321941e+03   8.778378e+02
  -1.023690e+03  -2.607271e+02
   1.238801e+02  -4.412780e+02
   4.747409e+02   1.392371e+02
  -1.742501e+01   5.747963e+02
  -3.704078e+02   4.578026e+02
  -5.142112e+02   7.038285e+01
  -3.198182e+02  -6.024265e+02
   9.176750e+01  -7.423152e+02
   4.014070e+02  -1.773204e+02
   2.688287e+02   4.253304e+02
  -2.649104e+02   5.399768e+02
  -4.679153e+02  -3.211363e+01
  -2.542436e+02  -5.529891e+02
   2.462299e+02  -5.744122e+02
   4.319447e+02  -1.645774e+02
   3.696171e+02   2.272729e+02
   8.511036e+01   3.644910e+02
  -1.508438e+02   1.793117e+02
  -1.364812e+02   1.970636e+01
   1.404805e+02   5.032880e+01
   2.442772e+02   1.520848e+02
   9.923806e+01   3.647414e+02
  -4.222414e+02   2.287909e+02
  -6.806930e+02  -1.746924e+02
  -2.334385e+02  -3.823971e+02
   3.176232e+02  -4.117002e+02
   4.780962e+02   1.132831e+02
   2.778944e+02   3.874580e+02
  -2.850366e+02   3.373937e+02
  -3.947018e+02   1.275728e+02
  -3.210250e+02  -1.860202e+02
  -9.165464e+01  -2.706811e+02
   7.800273e+01  -2.110563e+02
   2.260263e+01   1.607615e+02
  -1.997216e+02   1.881838e+02
  -2.441751e+02  -6.043618e+01
  -3.886356e+01  -4.722160e+02
   2.470140e+02  -4.823557e+02
   3.428164e+02   2.568906e+00
   1.469929e+02   3.339763e+02
  -1.691271e+02   2.338738e+02
  -2.993775e+02  -2.695175e+02
   1.590150e+02  -4.109495e+02
   4.910583e+02  -7.470082e+01
   4.717401e+02   3.334092e+02
   1.636523e+02   5.132666e+02
  -2.900436e+02   2.350663e+02
  -5.516021e+02  -1.054266e+02
  -2.961129e+02  -3.364962e+02
   7.709841e+01  -1.868051e+02
   2.995972e+02  -5.422828e+01
   2.352421e+02   1.072790e+02
  -1.148372e+01   6.216630e+01
  -8.111997e+01  -9.239055e+01
   1.121944e+02  -1.123093e+02
   2.252171e+02   4.444674e+01
   1.339808e+02   2.229616e+02
  -1.633509e+02   2.054193e+02
  -3.228520e+02   5.791659e+01
  -1.954951e+02  -8.979836e+01
  -7.843536e+00  -2.560159e+02
   2.493057e+02  -2.933538e+02
   3.346213e+02  -1.406422e+02
   2.280187e+02   1.497977e+02
   7.345967e+00   3.607628e+02
  -5.856376e+01   3.121354e+02
  -7.469580e+01   1.094670e+02
  -3.432796e+01   5.401037e+01
  -9.765207e+01   1.085120e+02
  -2.236420e+02   6.157522e+01
  -2.052896e+02  -8.794343e+01
  -1.259712e+02  -2.480897e+02
   9.037158e+01  -1.905795e+02
   1.732596e+02   9.073865e+00
   1.389346e+02   2.318358e+02
  -4.951769e+01   2.077907e+02
  -2.416206e+02   6.586492e+01
  -2.603008e+02  -1.381266e+02
  -1.366092e+02  -3.609894e+02
   7.702133e+01  -2.298248e+02
   1.269033e+02  -9.923521e+01
   1.386945e+02  -3.962996e+01
   1.125063e+02  -4.301244e+01
   2.477690e+02  -7.343698e+00
   3.231358e+02   1.230260e+02
   2.530058e+02   2.769195e+02
  -1.942219e+01   3.991191e+02
  -3.442196e+02   3.380476e+02
  -4.562026e+02   1.941844e+02
  -2.867156e+02  -7.511701e+01
  -2.473364e+01  -2.249081e+02
   1.214594e+02  -1.842205e+02
   5.011748e+01  -3.729500e+01
  -1.227822e+02   8.597695e+01
  -1.451673e+02  -2.889592e+01
  -4.418792e+01  -1.684965e+02
   1.370168e+02  -1.107936e+02
   1.053289e+02   6.487783e+01
  -2.077861e+01   1.362353e+02
  -1.447881e+02   1.085485e+01
  -1.491185e+02  -2.418254e+02
   5.162069e+01  -2.879863e+02
   1.954381e+02  -1.593454e+02
   3.277720e+02   1.306854e+02
   2.702720e+02   2.365232e+02
   1.767160e+01   2.238425e+02
  -1.349460e+02   1.274981e+02
  -1.547310e+02   2.751889e+01
  -3.345252e+01  -1.851809e+01
   5.577021e+01   5.425152e+01
   1.288131e+01   1.242764e+02
  -1.218002e+02   6.636388e+01
  -1.493636e+02  -2.526766e+01
  -3.312782e+01  -4.300333e+01
   7.127531e+01   1.312030e+01
   3.429772e+01   8.177661e+01
  -1.223093e+02   8.490302e+01
  -2.820243e+02  -6.243868e+01
  -2.130672e+02  -1.696304e+02
  -2.257387e+01  -2.399056e+02
   1.907173e+02  -2.175840e+02
   2.385237e+02  -5.754073e+01
   1.281757e+02   5.536424e+01
  -3.131892e+01   6.026896e+01
  -6.670456e+01  -4.954087e+00
   4.291728e+01  -7.612978e+01
   1.535003e+02  -3.739962e+01
   1.598710e+02   1.050677e+02
   5.175160e+01   2.067339e+02
  -7.949243e+01   1.126129e+02
  -1.076378e+02   1.695554e+01
  -4.560227e+01  -4.194266e+01
   3.084695e+01   6.420173e+00
   1.571853e+01   9.162538e+01
  -7.864512e+01   1.122898e+02
  -1.707477e+02  -1.971682e+01
  -1.602154e+02  -9.539425e+01
  -2.471432e+01  -1.811688e+02
   1.244192e+02  -1.208470e+02
   1.638237e+02   2.067854e+01
   4.638740e+01   7.538094e+01
  -6.348366e+01   9.441793e+01
  -6.274696e+01   2.620218e+01
  -4.274508e-01  -2.095542e+01
   2.925541e+01  -8.321612e+00
  -1.010038e+01   1.525669e+01
  -6.871759e+01   3.387440e+00
  -8.404572e+01  -9.663598e+01
  -1.070839e+01  -1.537336e+02
   1.174823e+02  -9.019845e+01
   1.933405e+02  -9.877048e+00
   1.275212e+02   1.518805e+02
   6.316020e+01   1.946307e+02
  -1.072092e+02   1.382514e+02
  -1.146880e+02   3.052394e+01
  -5.407986e+01  -4.371009e+01
  -2.372878e+01  -3.257416e+01
  -5.271620e+01   1.077204e+01
  -7.065227e+01  -7.986453e+00
  -4.505087e+01  -5.756640e+01
   4.465999e+01  -9.494668e+01
   1.016863e+02  -5.366461e+01
   9.056842e+01   4.631912e+01
  -2.086391e+01   1.140983e+02
  -1.476337e+02   6.185073e+01
  -1.659814e+02  -5.780009e+01
  -5.587986e+01  -1.843060e+02
   1.070532e+02  -2.086713e+02
   2.322631e+02  -9.214533e+01
   2.124248e+02   1.222766e+02
   8.433217e+01   1.675321e+02
  -5.407284e+01   1.238897e+02
  -7.126009e+01   6.852343e+01
  -7.971231e+01   6.570596e+01
  -6.295986e+01   8.713539e+01
  -8.956310e+01   5.652968e+01
  -1.122999e+02  -9.295352e+00
  -1.003624e+02  -1.403244e+02
  -1.496232e+01  -1.936301e+02
   9.736579e+01  -1.558046e+02
   1.522215e+02  -2.264711e+01
   1.117571e+02   1.224423e+02
   5.588407e+00   1.532371e+02
  -6.421973e+01   7.773038e+01
  -6.126584e+01  -5.633441e+00
   9.439506e+00  -4.416165e+01
   2.400688e+01  -2.794442e+01
  -2.630128e+01  -1.413990e+01
  -7.540320e+01  -1.977765e+01
  -3.383442e+01  -3.883603e+01
   5.980729e+01  -3.605425e+01
   1.510077e+02   4.289180e+00
   1.288999e+02   6.603942e+01
   3.041729e+00   8.047446e+01
  -1.152232e+02   5.312584e+01
  -1.387335e+02   3.532660e+00
  -3.528295e+01  -3.402942e+01
   4.682161e+01  -3.095518e+01
   6.421511e+01   2.294796e+01
   9.539828e+00   6.060578e+01
  -3.883785e+01   5.766692e+01
  -6.114496e+01   1.014600e+00
  -4.642443e+01  -4.789249e+01
  -3.482162e+01  -3.870254e+01
  -4.604013e+01   2.409804e+00
  -6.077574e+01  -1.328959e+01
  -2.814150e+01  -6.209059e+01
   4.193171e+01  -1.300205e+02
   1.190353e+02  -1.030708e+02
   1.559626e+02  -1.539735e+01
   1.062527e+02   7.770070e+01
  -4.228935e+00   1.068241e+02
  -9.846375e+01   5.503087e+01
  -5.975994e+01  -1.657870e+01
   5.227886e+01  -1.542186e+01
   1.119873e+02   5.775387e+01
   7.528878e+01   9.131155e+01
  -8.476765e+01   7.482692e+01
  -1.560826e+02   3.158825e+01
  -1.305166e+02  -3.822714e+01
  -2.647006e+01  -8.735281e+01
   6.378626e+01  -5.410624e+01
   3.619236e+01   1.438952e+00
  -3.499715e+01   1.953820e+01
  -8.374093e+01  -2.493700e+01
  -3.298034e+01  -1.152325e+02
   7.142719e+01  -1.298688e+02
   1.603891e+02  -4.468598e+01
   1.076463e+02   8.030876e+01
  -1.597967e+01   1.512512e+02
  -7.004816e+01   1.181019e+02
  -8.816789e+01  -1.358851e+01
  -3.844259e+01  -1.004821e+02
   6.874552e+00  -1.004388e+02
   4.654121e+01  -1.261396e+01
   4.416093e+01   3.274895e+01
   1.660344e+01   4.372614e+00
   5.184098e+00  -1.601157e+01
   2.166326e+01   1.170888e+01
   3.558160e+01   9.288585e+01
   2.512003e+01   8.841774e+01
  -4.356794e+01   3.493498e+01
  -1.247399e+02  -5.689473e+01
  -1.233601e+02  -6.017868e+01
  -1.187948e+01  -4.390187e+01
   7.417224e+01  -1.191660e+01
   8.016214e+01  -5.573263e+00
   1.202894e+01   9.758389e+00
  -3.289299e+01   1.545264e+01
  -1.683351e+01   1.462631e+01
   1.558881e+01  -1.972843e+00
  -4.826466e+00  -7.480974e+00
  -6.479524e+01  -5.743952e+00
  -6.624362e+01  -3.077366e+01
  -1.518197e+01  -7.254266e+01
   8.672762e+01  -1.030220e+02
   1.608146e+02  -5.210659e+01
   1.194172e+02   5.963169e+01
   2.257650e+01   1.614923e+02
  -7.394989e+01   1.298511e+02
  -1.059846e+02   5.061458e+01
  -8.015103e+01  -1.681509e+01
  -2.089726e+01  -3.280554e+01
   7.212135e-01  -1.153539e+01
  -1.184594e+01  -7.005110e+00
  -2.669310e+01  -5.133180e+01
  -2.126020e+01  -8.348153e+01
   2.555275e+01  -5.877546e+01
   6.594503e+01   1.677158e+01
   6.013298e+01   1.013067e+02
   1.121293e+01   1.032895e+02
  -7.312786e+01   3.069498e+01
  -8.003006e+01  -6.529744e+01
  -3.014761e+01  -9.402581e+01
   5.789856e+01  -5.365923e+01
   9.855253e+01   1.844196e+01
   4.029173e+01   4.788222e+01
  -3.714173e+01   4.974583e+01
  -3.519839e+01   2.664789e+01
   2.929309e+01  -4.063311e+00
   5.520184e+01  -3.205185e+00
   9.715333e+00   2.612888e+01
  -6.593620e+01   5.450493e+01
  -1.077139e+02   4.966023e+01
  -5.922231e+01  -1.528069e+01
   2.741453e+01  -7.002921e+01
   6.264521e+01  -6.571135e+01
   3.778294e+01  -2.226587e+00
   3.731232e+00   4.430296e+01
  -2.230539e+01   3.814411e+01
  -3.184259e+01  -1.346541e+01
  -1.975247e+01  -4.791116e+01
   4.009400e+00  -3.138859e+01
   2.996636e+01   1.189785e+01
   3.978502e+01   1.846162e+01
   1.608352e+01   1.460756e+00
   4.639181e-01  -1.653672e+01
  -2.855568e+00  -4.374266e+00
   3.388757e+00   2.959516e+01
  -1.357458e+01   5.126253e+01
  -3.164430e+01   1.198420e+01
  -3.367582e+01  -4.155527e+01
  -2.819273e+00  -6.136938e+01
   3.755517e+01  -1.688497e+01
   4.650023e+01   3.653178e+01
   1.674727e+01   5.929019e+01
  -4.768034e+01   2.649625e+01
  -7.460871e+01  -1.879297e+01
  -4.684411e+01  -3.726825e+01
   3.209467e+01  -3.534125e+01
   5.380788e+01  -1.931249e+01
   2.700616e+01  -1.757028e+00
  -3.310580e+01  -2.885149e+00
  -3.001900e+01  -9.096117e+00
   2.527533e+01  -2.146877e+01
   8.258908e+01  -1.667250e+01
