
 $NMID
 id='ANONYMOUS ', fmtdat='(2E16.6)'
 volume=1.0
 tramp=1.0
 $END
  -3.434518e+03   1.980618e+02
  -2.253823e+03  -1.964307e+03
   1.326085e+02  -1.851068e+03
   9.540874e+02  -1.023672e+03
   9.906964e+02   5.012143e+01
  -8.710298e+01   2.870377e+02
  -5.409977e+02  -8.980978e+01
  -1.719079e+02  -6.890734e+02
   3.141421e+02  -5.733409e+02
   5.870343e+02  -1.486131e+01
   3.352352e+02   5.443348e+02
  -6.843517e+01   7.274423e+02
  -3.269581e+02   2.971151e+02
  -2.417310e+02  -3.844330e+02
   1.444167e+02  -5.412296e+02
   3.977352e+02  -1.895585e+01
   2.666838e+02   5.812825e+02
  -1.644003e+02   5.516554e+02
  -4.012876e+02   2.920961e+02
  -4.136128e+02  -1.429909e+02
  -1.172396e+02  -3.507809e+02
   1.129599e+02  -2.617140e+02
   7.051983e+01  -4.081821e+01
  -1.420331e+02  -6.563954e+01
  -3.052144e+02  -1.843215e+02
  -6.822569e+01  -3.894757e+02
   4.640605e+02  -2.395920e+02
   7.363540e+02   1.667509e+02
   2.571229e+02   3.577086e+02
  -4.831474e+02   3.206586e+02
  -5.347388e+02  -8.095026e+01
  -2.428183e+02  -4.388310e+02
   2.092957e+02  -3.428436e+02
   4.620721e+02  -1.437136e+02
   3.262253e+02   1.260143e+02
   1.520270e+02   3.236459e+02
  -1.081625e+02   1.647370e+02
  -2.005419e+01  -5.604200e+01
   1.588221e+02  -2.276269e+02
   2.999216e+02   2.201456e+02
   1.259793e+02   4.383100e+02
  -1.779145e+02   4.658408e+02
  -3.303852e+02  -7.239712e+01
  -1.302192e+02  -3.409377e+02
   2.207637e+02  -1.791665e+02
   2.655031e+02   3.680583e+02
  -1.400411e+02   4.464181e+02
  -4.692634e+02   4.776167e+01
  -5.450324e+02  -3.627881e+02
  -1.447209e+02  -4.756797e+02
   2.640129e+02  -3.068137e+02
   5.247459e+02   9.610426e+01
   2.703926e+02   2.194754e+02
  -3.740908e+01   2.760470e+02
  -3.004383e+02   1.245490e+02
  -1.991795e+02  -4.581875e+01
   5.509361e+01  -1.676827e+01
   7.997899e+01   3.747586e+01
  -9.092877e+01   6.938442e+01
  -2.175878e+02  -2.472946e+01
  -1.158776e+02  -2.520915e+02
   1.552516e+02  -2.408918e+02
   2.692925e+02  -1.272713e+02
   2.524123e+02   8.155794e+01
  -1.602760e+01   2.815454e+02
  -1.995174e+02   3.589443e+02
  -2.599557e+02   1.581687e+02
  -2.658760e+02  -1.481301e+02
  -5.539751e+01  -3.740569e+02
   1.513176e+01  -2.849914e+02
   3.658221e+01  -1.371858e+02
   1.932712e+01  -8.127774e+01
   1.385827e+02  -1.145077e+02
   2.358186e+02  -7.556264e+01
   2.284400e+02   7.801432e+01
   1.283413e+02   2.795901e+02
  -1.035710e+02   2.077648e+02
  -1.957569e+02  -1.752132e+01
  -1.446834e+02  -2.499551e+02
   4.195243e+01  -2.023247e+02
   2.511529e+02  -7.003925e+01
   3.117471e+02   1.388819e+02
   1.778529e+02   3.118138e+02
  -2.289253e+01   2.412449e+02
  -1.451923e+02   1.254682e+02
  -1.327850e+02   3.950754e+01
  -1.268568e+02   4.561216e+01
  -2.654598e+02   3.654335e+01
  -3.638573e+02  -6.378051e+01
  -2.901286e+02  -2.357648e+02
   4.978884e+01  -4.445140e+02
   3.556779e+02  -3.832561e+02
   4.961893e+02  -2.137749e+02
   3.006666e+02   8.744428e+01
   2.257042e+01   2.733665e+02
  -9.256617e+01   1.861441e+02
  -2.994876e+01   2.149809e+00
   1.239225e+02  -7.345407e+01
   1.306047e+02   3.503089e+01
   1.213572e+01   1.515601e+02
  -1.868907e+02   9.980584e+01
  -1.209957e+02  -6.414288e+01
   3.125771e+01  -1.532754e+02
   1.607168e+02  -2.973751e+01
   1.548426e+02   2.697912e+02
  -6.634014e+00   2.955506e+02
  -1.724407e+02   1.740505e+02
  -3.222775e+02  -5.023219e+01
  -2.324208e+02  -2.187228e+02
  -8.705413e+01  -2.368816e+02
   1.196797e+02  -1.395285e+02
   1.536491e+02  -1.117364e+01
   3.324938e+01   9.829337e+00
  -5.198921e+01  -6.076759e+01
   6.333959e+00  -1.113454e+02
   1.189041e+02  -7.659395e+01
   1.554510e+02   3.449239e+01
   2.692881e+01   4.611177e+01
  -8.179662e+01  -7.202324e+00
  -3.293234e+01  -8.521797e+01
   1.268452e+02  -8.654679e+01
   2.894342e+02   2.419084e+01
   2.379463e+02   1.739462e+02
   5.640051e+01   2.768101e+02
  -1.723244e+02   2.237478e+02
  -2.281183e+02   1.342899e+02
  -1.220919e+02  -2.388822e+01
   1.989005e+01  -7.294243e+01
   6.665835e+01   6.522671e+00
  -4.779500e+01   8.236252e+01
  -1.713354e+02   5.041728e+01
  -1.818514e+02  -8.428169e+01
  -5.459964e+01  -1.907912e+02
   8.963532e+01  -1.175615e+02
   1.070547e+02  -2.489739e+01
   4.185960e+01   4.158252e+01
  -4.280285e+01  -5.446949e+00
  -3.971025e+01  -9.098370e+01
   7.098114e+01  -1.202207e+02
   1.740929e+02  -2.460189e+01
   1.697595e+02   1.185154e+02
  -2.353599e+00   1.806465e+02
  -1.544580e+02   1.521952e+02
  -1.677965e+02  -3.481406e+00
  -5.659206e+01  -9.176853e+01
   5.762718e+01  -8.965549e+01
   7.672273e+01  -2.827545e+01
   4.820608e-01   2.265004e+01
  -3.581191e+01   1.274367e+01
   7.807972e+00  -2.438417e+01
   7.892640e+01  -4.391280e+00
   9.670394e+01   8.391773e+01
   3.549022e+00   1.548546e+02
  -9.758200e+01   1.522773e+02
  -2.414687e+02   3.756829e+01
  -1.927789e+02  -1.244276e+02
  -5.478308e+01  -1.895614e+02
   9.287030e+01  -1.539631e+02
   1.039805e+02  -4.656731e+01
   5.728931e+01   3.517017e+01
   2.860824e+01   2.336152e+01
   5.341135e+01  -1.261148e+01
   7.278954e+01  -1.501011e+01
   4.385600e+01   5.267769e+01
  -2.571176e+01   1.024016e+02
  -9.827070e+01   5.148782e+01
  -8.737778e+01  -2.434555e+01
   2.448501e+01  -1.093345e+02
   1.269371e+02  -8.939842e+01
   1.798943e+02   4.038299e+01
   9.575906e+01   1.859602e+02
  -9.641080e+01   2.540648e+02
  -2.356046e+02   8.450748e+01
  -2.348872e+02  -8.255393e+01
  -1.072797e+02  -1.740988e+02
   3.262047e+01  -1.293179e+02
   7.723007e+01  -7.399948e+01
   6.804014e+01  -7.184469e+01
   5.787189e+01  -8.989575e+01
   8.282962e+01  -7.074103e+01
   1.169404e+02   2.092917e+01
   1.075427e+02   1.331857e+02
   4.374432e+01   2.412079e+02
  -7.149080e+01   1.464265e+02
  -1.442789e+02   2.081537e+01
  -1.248163e+02  -1.251121e+02
  -1.796061e+01  -1.440696e+02
   6.357652e+01  -8.361301e+01
   6.066047e+01   1.291202e+01
   5.333625e+00   4.817431e+01
  -1.798282e+01   3.608643e+01
   2.581561e+01   1.207847e+01
   7.505139e+01   1.761161e+01
   5.039380e+01   3.307278e+01
  -6.939672e+01   4.087027e+01
  -1.554839e+02  -6.515031e+00
  -1.324732e+02  -4.624200e+01
  -3.722493e-01  -8.474548e+01
   1.247863e+02  -7.870557e+01
   1.575011e+02  -1.642652e+01
   4.947700e+01   4.175783e+01
  -5.210652e+01   4.557030e+01
  -6.639053e+01  -7.382998e+00
  -2.378467e+01  -6.566793e+01
   5.235960e+01  -6.821589e+01
   6.256154e+01   5.434434e-01
   5.923728e+01   3.308190e+01
   4.804131e+01   3.547659e+01
   5.156430e+01  -5.406308e+00
   6.518687e+01   2.899213e+00
   3.869851e+01   7.189630e+01
  -2.196560e+01   1.497739e+02
  -8.783116e+01   1.599381e+02
  -1.917483e+02   3.850894e+01
  -1.158945e+02  -8.062435e+01
  -1.612702e+01  -1.141800e+02
   7.807934e+01  -6.598534e+01
   5.594544e+01   1.285319e+01
  -5.759186e+01   2.359312e+01
  -1.385767e+02  -2.180368e+01
  -6.423269e+01  -1.179989e+02
   7.188728e+01  -1.092903e+02
   1.828907e+02  -4.913092e+01
   1.255934e+02   3.364151e+01
   3.886701e+01   9.536032e+01
  -6.118086e+01   5.170681e+01
  -4.201531e+01   1.698866e+00
   3.314434e+01  -3.507416e+01
   8.578931e+01   2.867505e+01
   3.067803e+01   9.641497e+01
  -5.265521e+01   1.388693e+02
  -1.369753e+02   6.833843e+01
  -1.459114e+02  -7.996947e+01
  -2.152858e+01  -1.617798e+02
   7.369269e+01  -1.224566e+02
   9.290296e+01  -4.738785e+00
   4.771909e+01   8.957340e+01
  -2.226173e+01   1.092090e+02
  -4.488768e+01   1.480388e+01
  -4.136349e+01  -2.548502e+01
  -1.936251e+01  -1.100099e+01
  -6.205391e+00   1.787189e+01
  -2.979086e+01  -1.820472e+01
  -6.636963e+01  -8.523112e+01
  -4.471060e+01  -8.624403e+01
   4.262751e+01  -3.609692e+01
   1.202470e+02   3.548662e+01
   1.258294e+02   5.915720e+01
   1.198179e+01   3.957238e+01
  -7.712328e+01   2.226409e+01
  -8.597081e+01   3.895571e+00
  -1.786279e+01  -9.559438e+00
   3.334975e+01  -1.944363e+01
   2.005342e+01  -1.319139e+01
  -1.370306e+01   3.139134e+00
   2.713033e+00   6.463012e+00
   6.203744e+01  -4.087251e-01
   8.322141e+01   1.440425e+01
   3.041461e+01   7.294518e+01
  -8.579567e+01   1.277477e+02
  -1.571591e+02   7.769032e+01
  -1.467286e+02  -4.422816e+01
  -4.289477e+01  -1.658458e+02
   7.210073e+01  -1.570987e+02
   8.478993e+01  -5.847049e+01
   8.154434e+01   2.617305e+01
   2.589629e+01   2.899833e+01
   1.718364e+00   1.176554e+01
   1.348222e+01   7.078837e+00
   2.680250e+01   4.697930e+01
   2.231601e+01   9.096114e+01
  -2.073929e+01   6.586604e+01
  -7.449862e+01  -1.255591e+01
  -7.264035e+01  -9.098142e+01
  -9.801832e+00  -1.108025e+02
   7.223164e+01  -2.925519e+01
   1.017154e+02   5.111958e+01
   3.862492e+01   9.898593e+01
  -4.774368e+01   5.561228e+01
  -1.037132e+02  -5.462564e+00
  -4.300421e+01  -3.968448e+01
   2.964068e+01  -5.395142e+01
   3.697241e+01  -3.222449e+01
  -2.714023e+01   3.267117e+00
  -5.627345e+01   7.964154e+00
  -1.931241e+01  -1.702963e+01
   6.253166e+01  -6.744242e+01
   8.592938e+01  -5.560264e+01
   6.952578e+01   6.866858e+00
  -6.199300e+00   7.855842e+01
  -5.467731e+01   7.016106e+01
  -3.979120e+01   1.056464e+01
  -9.879711e+00  -4.815697e+01
   2.573132e+01  -4.526830e+01
   3.656006e+01   1.061520e+01
   3.070722e+01   4.536666e+01
   2.623052e+00   3.436128e+01
  -3.060210e+01  -6.430984e+00
  -3.956628e+01  -2.268125e+01
  -1.960641e+01  -1.331492e+00
   4.401289e+00   1.923330e+01
   9.844109e+00   6.237400e+00
  -3.186853e+00  -2.611987e+01
   4.578820e+00  -4.560586e+01
   2.177032e+01  -1.972522e+01
   3.692293e+01   3.606176e+01
   1.842189e+01   5.021434e+01
  -3.241977e+01   2.745394e+01
  -6.241148e+01  -2.076198e+01
  -2.066130e+01  -5.880792e+01
   5.045370e+01  -4.042376e+01
   7.687963e+01   1.040760e+01
   5.336964e+01   4.263960e+01
  -2.664855e+01   4.339543e+01
  -5.955390e+01   3.144969e+01
  -2.377135e+01   8.757305e+00
   2.799671e+01  -4.845990e+00
   3.036690e+01   4.751889e+00
  -2.821486e+01   2.685909e+01
  -7.544016e+01   1.373135e+01
