
 $NMID
 id='ANONYMOUS ', fmtdat='(2E16.6)'
 volume=1.0
 tramp=1.0
 $END
   3.293022e+03  -1.646679e+02
   2.283920e+03   1.858005e+03
  -5.431769e+01   1.973625e+03
  -9.695218e+02   1.265415e+03
  -1.097426e+03   1.815899e+02
  -2.688300e+01  -2.137258e+02
   4.321964e+02   6.083064e+01
   2.195433e+02   5.644610e+02
  -3.921442e+02   6.652018e+02
  -6.261040e+02   1.602758e+02
  -4.253592e+02  -4.913563e+02
  -7.653050e+00  -7.000699e+02
   3.667917e+02  -3.277062e+02
   2.444865e+02   3.595837e+02
  -9.723864e+01   4.955214e+02
  -3.917779e+02   1.913789e+01
  -2.701801e+02  -5.724650e+02
   1.602119e+02  -6.103017e+02
   4.021440e+02  -3.825714e+02
   4.721313e+02   1.425430e+02
   1.461633e+02   3.719687e+02
  -1.218579e+02   2.803397e+02
  -6.434560e+01   5.503959e+01
   1.450811e+02   1.226426e+02
   3.270535e+02   1.654684e+02
   2.502193e+01   3.519089e+02
  -5.397338e+02   1.883113e+02
  -6.911750e+02  -2.341617e+02
  -1.882757e+02  -3.314367e+02
   4.334121e+02  -2.469050e+02
   4.537767e+02   8.743661e+01
   2.470895e+02   4.256771e+02
  -2.494224e+02   3.110446e+02
  -4.533888e+02   1.503705e+02
  -2.874293e+02  -1.475986e+02
  -1.704701e+02  -2.991514e+02
   7.959692e+01  -1.638438e+02
  -1.835776e+01   4.182464e+01
  -8.333828e+01   1.557185e+02
  -2.395017e+02  -2.303989e+02
  -7.853043e+01  -4.192045e+02
   1.558245e+02  -4.361823e+02
   3.178214e+02   5.451177e+01
   1.254123e+02   2.819518e+02
  -2.022239e+02   1.952911e+02
  -2.133115e+02  -3.411884e+02
   1.301773e+02  -4.052403e+02
   4.941251e+02  -1.605926e+01
   5.140914e+02   3.441618e+02
   1.941108e+02   5.137634e+02
  -2.641460e+02   2.695900e+02
  -5.416934e+02  -7.326996e+01
  -2.852827e+02  -2.225648e+02
  -1.516839e+01  -2.479200e+02
   2.836638e+02  -1.153149e+02
   2.250845e+02   8.066995e+01
  -2.902987e+01   3.705720e+01
  -6.997413e+01  -2.923367e+01
   9.557869e+01  -7.026234e+01
   2.260687e+02   3.596983e+01
   1.272914e+02   2.012082e+02
  -1.374910e+02   2.275212e+02
  -2.870643e+02   1.621338e+02
  -2.642609e+02  -1.011379e+02
   2.285205e+01  -2.994998e+02
   2.452169e+02  -3.259907e+02
   2.756918e+02  -1.487806e+02
   2.613826e+02   1.783206e+02
   4.267244e+01   3.811005e+02
   2.557776e+00   2.800977e+02
  -2.351026e+01   1.941788e+02
  -3.461218e+01   1.125688e+02
  -1.549141e+02   1.251651e+02
  -2.678675e+02   6.542052e+01
  -2.178359e+02  -8.991055e+01
  -1.227930e+02  -2.867275e+02
   1.168863e+02  -1.991817e+02
   1.943644e+02   4.071888e+01
   1.446031e+02   2.479149e+02
  -2.789423e+01   2.167717e+02
  -2.581375e+02   4.652883e+01
  -3.150046e+02  -1.666491e+02
  -1.589214e+02  -3.314362e+02
   2.206560e+01  -2.644863e+02
   1.462567e+02  -1.430853e+02
   1.436711e+02  -6.507451e+01
   1.550051e+02  -6.649320e+01
   2.742085e+02  -1.863871e+01
   3.893335e+02   7.366630e+01
   3.035556e+02   2.569013e+02
  -3.953789e+01   4.722246e+02
  -4.017973e+02   4.273453e+02
  -4.911616e+02   2.233836e+02
  -2.915898e+02  -1.098203e+02
  -3.926310e+01  -2.671538e+02
   8.022083e+01  -1.758321e+02
   4.330546e+00  -2.073685e+01
  -1.157462e+02   6.194082e+01
  -1.178783e+02  -3.653443e+01
  -2.278116e+01  -1.479308e+02
   1.535419e+02  -9.164787e+01
   1.055503e+02   6.831314e+01
  -2.536346e+01   1.403622e+02
  -1.487922e+02   1.822011e+01
  -1.621765e+02  -2.639023e+02
   1.151917e+01  -3.283423e+02
   2.022997e+02  -1.934814e+02
   3.200742e+02   4.379288e+01
   2.643746e+02   2.520508e+02
   8.502569e+01   2.174344e+02
  -1.224132e+02   1.270020e+02
  -1.637013e+02   1.043375e+01
  -3.277756e+01  -6.965730e+00
   4.611286e+01   6.542353e+01
  -1.641638e+01   1.203576e+02
  -1.241383e+02   7.288980e+01
  -1.526530e+02  -1.652146e+01
  -3.120082e+01  -4.605049e+01
   8.708912e+01   7.202093e+00
   3.916347e+01   9.979587e+01
  -1.466644e+02   8.989128e+01
  -3.183927e+02  -2.320618e+01
  -2.620067e+02  -1.755280e+02
  -3.371867e+01  -2.982681e+02
   1.798354e+02  -2.230266e+02
   2.307843e+02  -1.254699e+02
   1.313272e+02   2.828128e+01
  -1.357446e+01   6.447984e+01
  -5.787713e+01  -1.707182e+00
   4.764549e+01  -8.795847e+01
   1.625462e+02  -4.397040e+01
   1.777783e+02   7.313430e+01
   3.912911e+01   2.008008e+02
  -6.262063e+01   1.303516e+02
  -1.113284e+02   3.532872e+01
  -4.413900e+01  -3.757000e+01
   4.488847e+01   1.662276e+01
   2.418251e+01   1.083529e+02
  -8.345973e+01   1.156884e+02
  -1.609882e+02   2.460167e+01
  -1.902931e+02  -1.164795e+02
  -2.414170e+00  -1.994385e+02
   1.559946e+02  -1.302058e+02
   1.772574e+02  -1.419063e+01
   6.690146e+01   9.213546e+01
  -5.905867e+01   9.277612e+01
  -8.387497e+01   2.808669e+01
   1.048785e+00  -2.316539e+01
   3.932599e+01  -6.508190e+00
  -1.109851e+01   3.039021e+01
  -8.582727e+01   6.849366e+00
  -1.064968e+02  -9.460896e+01
  -1.550495e+01  -1.780992e+02
   1.165190e+02  -1.570685e+02
   2.345299e+02  -4.593135e+01
   1.986858e+02   1.345645e+02
   5.202900e+01   2.009973e+02
  -9.173203e+01   1.638307e+02
  -1.045999e+02   4.142188e+01
  -6.213823e+01  -3.854623e+01
  -3.538556e+01  -2.501768e+01
  -4.907050e+01   1.479900e+01
  -7.654566e+01   1.588376e+01
  -4.920668e+01  -5.191044e+01
   3.463135e+01  -1.002173e+02
   1.165744e+02  -6.757341e+01
   9.973037e+01   3.435030e+01
  -3.235915e+01   1.272261e+02
  -1.468361e+02   8.929807e+01
  -1.821547e+02  -4.449954e+01
  -6.842126e+01  -2.083701e+02
   1.345756e+02  -2.418492e+02
   2.431400e+02  -9.606042e+01
   2.479155e+02   9.805335e+01
   1.155819e+02   1.871105e+02
  -3.868637e+01   1.375645e+02
  -7.561534e+01   7.493712e+01
  -6.134103e+01   7.465442e+01
  -6.180942e+01   9.425504e+01
  -9.342863e+01   7.322493e+01
  -1.275738e+02  -1.480778e+01
  -1.028136e+02  -1.386058e+02
  -4.855253e+01  -2.393828e+02
   7.895257e+01  -1.555038e+02
   1.588092e+02  -2.460601e+01
   1.339055e+02   1.341102e+02
   1.747218e+01   1.525146e+02
  -6.814732e+01   8.851439e+01
  -6.517638e+01  -1.407451e+01
   5.162910e+00  -5.076155e+01
   2.211991e+01  -3.803790e+01
  -2.547403e+01  -1.401695e+01
  -8.588917e+01  -1.336292e+01
  -5.400190e+01  -3.520681e+01
   7.720418e+01  -4.102875e+01
   1.607247e+02   1.587559e+01
   1.248257e+02   6.599895e+01
   5.213996e+00   9.015873e+01
  -1.366388e+02   7.423397e+01
  -1.594780e+02   1.124645e+01
  -4.751736e+01  -4.927926e+01
   5.173259e+01  -4.867576e+01
   6.870293e+01   1.071163e+01
   2.498643e+01   7.420343e+01
  -5.302919e+01   6.976670e+01
  -6.720727e+01   5.469123e+00
  -5.921213e+01  -3.113630e+01
  -4.474969e+01  -3.853429e+01
  -5.009779e+01   7.109062e+00
  -6.385168e+01  -7.168790e+00
  -5.410723e+01  -8.189400e+01
   3.857207e+01  -1.583071e+02
   1.123209e+02  -1.561176e+02
   1.912096e+02  -4.181191e+01
   1.098685e+02   7.839487e+01
   1.011390e+01   1.204151e+02
  -9.405958e+01   6.056215e+01
  -5.654061e+01  -1.178523e+01
   6.010493e+01  -2.062028e+01
   1.414017e+02   2.509903e+01
   6.170764e+01   1.192415e+02
  -7.119317e+01   1.053725e+02
  -1.827502e+02   7.096127e+01
  -1.353597e+02  -2.819438e+01
  -3.275519e+01  -9.248245e+01
   5.483740e+01  -5.659576e+01
   4.227458e+01  -1.164138e+00
  -4.147793e+01   3.614242e+01
  -9.011132e+01  -2.124983e+01
  -3.476107e+01  -1.025127e+02
   5.306422e+01  -1.482575e+02
   1.523790e+02  -7.317578e+01
   1.451374e+02   7.979247e+01
   2.266403e+01   1.647614e+02
  -7.582692e+01   1.367686e+02
  -9.603142e+01  -2.873189e+00
  -5.856218e+01  -1.038456e+02
   1.975260e+01  -1.131178e+02
   4.848958e+01  -1.679250e+01
   3.855668e+01   3.305570e+01
   1.933569e+01   9.687083e+00
   5.071166e+00  -1.789056e+01
   3.106898e+01   2.040426e+01
   5.599082e+01   8.255920e+01
   3.937491e+01   9.323858e+01
  -4.666910e+01   3.733784e+01
  -1.376961e+02  -3.615644e+01
  -1.267029e+02  -7.011530e+01
  -1.820246e+01  -4.146405e+01
   8.005993e+01  -3.084452e+01
   8.293284e+01  -1.065174e+01
   1.921930e+01   1.305046e+01
  -3.347781e+01   2.150180e+01
  -2.255130e+01   1.202225e+01
   1.218909e+01  -4.706553e+00
  -4.008137e+00  -5.675934e+00
  -6.491704e+01  -2.382977e+00
  -8.722330e+01  -8.685327e+00
  -3.219104e+01  -7.411207e+01
   7.844451e+01  -1.328798e+02
   1.740006e+02  -8.964712e+01
   1.498973e+02   4.062657e+01
   4.660909e+01   1.817299e+02
  -7.432693e+01   1.668772e+02
  -1.027252e+02   6.994877e+01
  -8.563843e+01  -2.454335e+01
  -2.671503e+01  -3.277231e+01
  -2.002338e+00  -1.367722e+01
  -1.330009e+01  -8.459899e+00
  -2.652304e+01  -4.602794e+01
  -1.260124e+01  -9.253249e+01
   2.316676e+01  -6.865418e+01
   7.387050e+01   7.418868e+00
   7.140306e+01   9.948211e+01
   9.668880e+00   1.074901e+02
  -7.465505e+01   3.567907e+01
  -1.099061e+02  -5.581022e+01
  -3.622521e+01  -9.551140e+01
   4.801662e+01  -6.933984e+01
   1.080724e+02   8.650279e+00
   4.564767e+01   4.972187e+01
  -3.052880e+01   6.996063e+01
  -4.344705e+01   3.019717e+01
   2.471867e+01  -1.606306e+00
   6.151978e+01  -1.115016e+01
   1.700360e+01   2.451047e+01
  -6.776932e+01   6.755450e+01
  -9.368392e+01   5.754120e+01
  -6.436808e+01  -1.229600e+01
   1.086607e+01  -7.783295e+01
   5.456005e+01  -7.470943e+01
   4.316368e+01  -1.117063e+01
   1.063417e+01   4.765497e+01
  -2.403767e+01   4.942250e+01
  -3.704980e+01  -9.050002e+00
  -3.007717e+01  -4.754555e+01
  -1.374953e+00  -4.031264e+01
   3.207347e+01   7.360836e+00
   4.363849e+01   2.257536e+01
   2.088238e+01   3.016891e+00
  -4.420438e+00  -2.254756e+01
  -8.557155e+00  -8.043904e+00
   5.336525e+00   2.845800e+01
  -1.694804e+00   4.746387e+01
  -2.424388e+01   1.926700e+01
  -3.928116e+01  -3.906770e+01
  -1.972017e+01  -5.738245e+01
   3.682192e+01  -2.888882e+01
   6.393628e+01   2.095162e+01
   2.424179e+01   6.316615e+01
  -5.624432e+01   4.123033e+01
  -8.490415e+01  -3.789518e+00
  -5.233367e+01  -4.582602e+01
   2.520040e+01  -4.385624e+01
   6.138219e+01  -2.761156e+01
   2.644637e+01  -6.780312e+00
  -2.924625e+01   3.906071e+00
  -3.075712e+01  -3.412509e+00
   2.342661e+01  -2.781330e+01
   7.516008e+01  -1.654560e+01
