
 $NMID
 id='ANONYMOUS ', fmtdat='(2E16.6)'
 volume=1.0
 tramp=1.0
 $END
  -3.809355e+03   1.182539e+02
  -2.527817e+03  -2.253848e+03
   1.635613e+02  -2.448006e+03
   1.636057e+03  -1.731404e+03
   1.093084e+03   3.326820e+02
  -1.629214e+02   6.595800e+02
  -6.944615e+02  -2.174725e+02
  -1.556645e+02  -7.885865e+02
   5.997460e+02  -8.536438e+02
   7.018285e+02  -2.267470e+02
   5.315039e+02   6.697311e+02
  -6.890471e+01   9.087748e+02
  -4.936124e+02   2.876063e+02
  -4.606691e+02  -4.682878e+02
   8.890534e+01  -7.082991e+02
   5.558745e+02  -1.106755e+02
   3.960773e+02   6.076495e+02
  -2.694045e+02   6.719741e+02
  -5.438406e+02   2.930979e+02
  -5.079951e+02  -2.295585e+02
  -5.736120e+01  -4.403147e+02
   1.244970e+02  -3.194406e+02
   1.720577e+02  -5.032511e+01
  -1.595763e+02   2.737752e+01
  -4.042220e+02  -1.190031e+02
  -6.912985e+01  -3.755582e+02
   4.548644e+02  -3.134639e+02
   7.906112e+02   1.316499e+02
   4.804394e+02   4.438306e+02
  -4.235081e+02   4.327901e+02
  -6.617051e+02   2.243137e+01
  -3.004683e+02  -4.432341e+02
   1.608244e+02  -4.716422e+02
   4.972267e+02  -2.010321e+02
   4.480206e+02   1.105415e+02
   1.420463e+02   3.828908e+02
  -1.441291e+02   3.213032e+02
  -1.016154e+02  -1.007619e+02
   8.610902e+01  -3.355677e+02
   3.435205e+02   3.317900e+01
   2.914670e+02   5.531867e+02
  -1.465925e+02   6.499567e+02
  -4.683547e+02   1.273812e+02
  -3.177226e+02  -3.480647e+02
   2.151572e+02  -2.522784e+02
   3.363217e+02   3.027842e+02
  -5.665322e+01   4.781392e+02
  -5.448328e+02   1.031780e+02
  -5.932629e+02  -3.935736e+02
  -1.825760e+02  -5.662277e+02
   2.912607e+02  -3.833175e+02
   6.012796e+02   2.885625e+01
   4.077657e+02   2.822564e+02
  -5.715515e+01   3.633110e+02
  -4.412648e+02   1.716045e+02
  -3.210405e+02  -7.308260e+01
   1.036217e+01  -5.449975e+01
   1.379523e+02   1.162483e+02
  -1.090378e+02   1.611155e+02
  -3.073856e+02   1.439198e+01
  -1.491601e+02  -2.462798e+02
   1.556105e+02  -2.812891e+02
   3.563399e+02  -1.827043e+02
   2.417355e+02   1.233303e+02
  -3.669884e+01   3.013240e+02
  -2.079110e+02   3.449931e+02
  -3.760922e+02   2.123697e+02
  -2.744433e+02  -1.468515e+02
  -1.031125e+02  -4.278617e+02
   3.597976e+01  -3.727989e+02
   6.964420e+01  -2.124391e+02
   3.353184e+01  -6.181472e+01
   1.267964e+02  -1.093224e+02
   2.210355e+02  -1.061352e+02
   2.738592e+02   4.754790e+01
   1.264306e+02   2.674244e+02
  -7.293515e+01   2.142106e+02
  -1.954423e+02   9.068105e+00
  -1.694550e+02  -2.506405e+02
  -1.409781e+01  -2.929838e+02
   2.490476e+02  -8.700700e+01
   3.866147e+02   1.473977e+02
   1.753507e+02   3.100060e+02
  -4.556230e+01   3.007244e+02
  -2.006645e+02   1.755160e+02
  -1.799560e+02   4.730969e+01
  -1.257212e+02   3.382032e+01
  -2.737899e+02   5.672793e+01
  -4.284004e+02  -7.260280e+00
  -4.384546e+02  -2.847478e+02
   1.985009e+01  -5.009340e+02
   3.856927e+02  -4.358610e+02
   5.050832e+02  -1.444082e+02
   3.171486e+02   6.793811e+01
   4.791088e+01   2.699366e+02
  -7.700177e+01   2.623481e+02
  -4.621522e+01   4.662758e+01
   1.248555e+02  -7.905239e+01
   1.627889e+02   4.381015e+01
   4.726892e+01   1.655066e+02
  -1.502141e+02   1.556734e+02
  -1.332096e+02  -4.293317e+01
   6.142893e+00  -1.562370e+02
   1.928194e+02  -3.966227e+01
   1.715781e+02   2.748499e+02
   3.039231e+01   3.593360e+02
  -2.147865e+02   2.348937e+02
  -3.719926e+02  -5.684754e+01
  -2.961657e+02  -2.433425e+02
  -1.055931e+02  -2.766175e+02
   1.177339e+02  -1.539502e+02
   1.796936e+02  -1.595913e+01
   5.141338e+01   1.586762e+01
  -5.793793e+01  -4.335124e+01
  -2.916686e+01  -1.135399e+02
   1.116646e+02  -7.536851e+01
   1.828427e+02   1.823843e+01
   4.940319e+01   4.976624e+01
  -8.515812e+01   1.175488e+01
  -4.287189e+01  -8.724117e+01
   1.433758e+02  -8.958595e+01
   2.758577e+02   6.669570e+00
   2.511814e+02   1.376300e+02
   4.738712e+01   2.814377e+02
  -1.744607e+02   2.687881e+02
  -2.864502e+02   1.639010e+02
  -1.701233e+02  -1.542547e+01
   8.710095e+00  -9.977256e+01
   8.428059e+01  -1.871636e+01
  -3.966532e+01   8.937658e+01
  -1.908983e+02   4.785469e+01
  -2.210341e+02  -6.327645e+01
  -6.333718e+01  -2.029360e+02
   7.471440e+01  -1.657129e+02
   1.413588e+02  -3.665089e+01
   6.474884e+01   3.385629e+01
  -3.528289e+01  -2.143798e+01
  -4.356198e+01  -9.877379e+01
   1.091785e+02  -1.172402e+02
   2.134670e+02  -4.541612e+01
   1.976195e+02   1.133349e+02
   5.516257e+01   2.093042e+02
  -1.324385e+02   1.527221e+02
  -1.780020e+02   2.102064e+01
  -7.654760e+01  -1.089884e+02
   6.772592e+01  -1.112438e+02
   7.998686e+01  -2.830254e+01
   5.124070e+00   2.111425e+01
  -2.140458e+01   1.370014e+01
   1.115723e+01  -2.484036e+01
   8.241178e+01   1.079772e+00
   1.084938e+02   7.798237e+01
   2.423769e+01   1.552797e+02
  -1.127408e+02   1.698913e+02
  -2.538348e+02   1.803417e+01
  -2.124362e+02  -1.210937e+02
  -3.840228e+01  -2.414813e+02
   8.852576e+01  -1.779895e+02
   1.514338e+02  -4.432945e+01
   8.264534e+01   3.587966e+01
   3.818690e+01   2.527943e+01
   4.884288e+01  -1.446180e+01
   8.511624e+01  -2.629983e+01
   5.639390e+01   5.342737e+01
  -4.783484e+01   1.174134e+02
  -1.081682e+02   7.224543e+01
  -9.686886e+01  -4.809631e+01
   1.438008e+01  -1.283552e+02
   1.494725e+02  -1.011118e+02
   2.367173e+02   4.058532e+01
   1.135881e+02   1.786314e+02
  -1.238657e+02   2.479262e+02
  -2.866639e+02   1.078312e+02
  -2.571433e+02  -8.323264e+01
  -1.051372e+02  -1.838234e+02
   2.572628e+01  -1.525076e+02
   8.394070e+01  -9.639299e+01
   7.222089e+01  -8.483298e+01
   5.950540e+01  -9.833743e+01
   9.534863e+01  -8.769659e+01
   1.355574e+02   2.129117e+01
   1.263551e+02   1.606080e+02
   2.903892e+01   2.509032e+02
  -9.217829e+01   1.837560e+02
  -1.826324e+02   2.739502e+01
  -1.394653e+02  -1.076084e+02
  -1.665075e+01  -1.416003e+02
   7.062843e+01  -8.894704e+01
   6.226016e+01   2.148000e+01
   1.718962e+00   5.351312e+01
  -1.910730e+01   3.508714e+01
   3.742372e+01   6.181899e+00
   9.187029e+01   3.503757e+01
   5.151954e+01   4.112742e+01
  -7.022012e+01   4.043025e+01
  -1.652492e+02  -5.071510e+00
  -1.367863e+02  -7.584568e+01
  -3.702190e+00  -1.039244e+02
   1.083488e+02  -8.674740e+01
   1.521110e+02  -4.618646e+00
   5.370520e+01   4.879488e+01
  -5.501080e+01   4.662916e+01
  -8.909464e+01  -1.042039e+01
  -2.209542e+01  -7.607636e+01
   4.636637e+01  -6.086404e+01
   7.419778e+01   7.325944e-01
   5.744655e+01   4.935553e+01
   5.564112e+01   3.459732e+01
   5.789086e+01  -8.914191e+00
   6.685518e+01  -5.150131e+00
   5.027608e+01   8.716359e+01
  -3.184775e+01   1.628203e+02
  -1.153460e+02   1.642898e+02
  -1.833561e+02   2.404030e+01
  -1.271213e+02  -8.150599e+01
  -1.828351e+01  -1.255090e+02
   9.649494e+01  -7.050249e+01
   6.368823e+01   8.002775e+00
  -6.617538e+01   2.629660e+01
  -1.511792e+02  -3.106417e+01
  -7.700574e+01  -1.126994e+02
   6.043183e+01  -1.250907e+02
   1.999229e+02  -6.240046e+01
   1.625326e+02   1.291602e+01
   3.526420e+01   9.334486e+01
  -6.279707e+01   7.082226e+01
  -5.145291e+01   3.328244e+00
   4.302626e+01  -3.406986e+01
   9.717882e+01   1.527764e+01
   3.792995e+01   1.193819e+02
  -6.126065e+01   1.696745e+02
  -1.592459e+02   9.281258e+01
  -1.229849e+02  -1.166374e+02
  -2.764457e+01  -1.972222e+02
   6.341908e+01  -1.350298e+02
   1.279508e+02  -1.143826e+01
   7.398843e+01   1.116312e+02
  -5.598542e+00   1.140813e+02
  -4.799914e+01   1.971964e+01
  -5.335502e+01  -3.055857e+01
  -2.237762e+01  -7.459511e+00
  -3.275350e+00   1.901586e+01
  -2.708206e+01  -1.975627e+01
  -6.095788e+01  -9.984729e+01
  -5.920908e+01  -1.174552e+02
   4.056548e+01  -5.422074e+01
   1.412320e+02   2.938059e+01
   1.339471e+02   7.425008e+01
   2.046601e+01   5.347345e+01
  -7.926489e+01   3.015660e+01
  -8.588525e+01   1.617407e+00
  -1.598635e+01  -1.024117e+01
   3.546834e+01  -2.257656e+01
   1.544018e+01  -1.071909e+01
  -1.817497e+01   7.101101e+00
   5.068613e+00   7.870421e+00
   8.015406e+01  -3.178678e+00
   1.041402e+02   1.438631e+01
   2.763066e+01   9.140575e+01
  -9.916137e+01   1.319754e+02
  -1.900996e+02   8.915364e+01
  -1.786028e+02  -5.166855e+01
  -3.142812e+01  -1.645856e+02
   8.407926e+01  -1.527506e+02
   1.036880e+02  -8.129119e+01
   8.017907e+01   2.184726e+01
   3.357247e+01   3.367459e+01
   5.900136e-01   1.401420e+01
   1.249165e+01   5.144344e+00
   2.864092e+01   4.690243e+01
   1.989614e+01   9.147559e+01
  -2.660889e+01   7.881345e+01
  -8.748613e+01  -5.878270e+00
  -8.662541e+01  -9.218021e+01
   3.535630e+00  -1.101170e+02
   7.668395e+01  -3.449448e+01
   1.284933e+02   6.665496e+01
   2.598183e+01   1.114491e+02
  -5.937235e+01   6.835993e+01
  -9.242064e+01  -5.900668e-01
  -5.570240e+01  -4.833246e+01
   3.026473e+01  -5.872015e+01
   4.059166e+01  -3.037909e+01
  -3.310349e+01   2.919496e+00
  -6.586310e+01   1.768260e+01
  -2.136841e+01  -2.632430e+01
   7.941172e+01  -8.007069e+01
   1.329908e+02  -7.268745e+01
   7.383964e+01   1.426694e+01
   2.327309e-01   9.530121e+01
  -5.696063e+01   8.220513e+01
  -4.293759e+01   1.104766e+01
  -1.074858e+01  -5.401862e+01
   2.440976e+01  -3.959272e+01
   4.076464e+01   6.481498e+00
   3.850206e+01   4.566120e+01
   2.571718e-01   3.821465e+01
  -3.571949e+01  -6.027310e+00
  -4.876834e+01  -2.717987e+01
  -2.272428e+01  -2.451124e+00
   6.026869e+00   1.620386e+01
   6.870328e+00  -5.474438e-01
  -3.093235e+00  -3.520546e+01
   5.487703e+00  -5.291093e+01
   3.118138e+01  -2.105980e+01
   4.274309e+01   4.117530e+01
   1.236185e+01   6.632284e+01
  -4.001777e+01   2.818346e+01
  -6.499544e+01  -3.430060e+01
  -2.119366e+01  -6.578164e+01
   5.137069e+01  -4.551703e+01
   9.335366e+01   9.760516e+00
   4.920719e+01   4.725404e+01
  -2.669941e+01   5.248240e+01
  -6.879551e+01   3.323867e+01
  -2.818752e+01   9.040671e+00
   3.323308e+01  -1.114666e+00
   4.115775e+01   8.217342e+00
  -2.392185e+01   2.943583e+01
  -8.447195e+01   2.811922e+01
