
 $NMID
 id='ANONYMOUS ', fmtdat='(2E16.6)'
 volume=1.0
 tramp=1.0
 $END
   3.731299e+03  -8.215870e+01
   2.599256e+03   1.883857e+03
   3.707022e+01   2.397895e+03
  -1.502012e+03   1.575349e+03
  -9.588259e+02  -6.870747e+01
   4.912860e+01  -4.681483e+02
   6.452200e+02   7.992800e+01
   2.110186e+02   7.364897e+02
  -4.028539e+02   8.947854e+02
  -7.637748e+02   3.929918e+02
  -5.454122e+02  -6.507985e+02
   6.350143e+01  -8.575236e+02
   4.556721e+02  -3.312697e+02
   4.183512e+02   4.487112e+02
  -2.285133e+01   6.592692e+02
  -5.100807e+02   1.578170e+02
  -3.843929e+02  -5.425439e+02
   1.354887e+02  -6.711119e+02
   5.920731e+02  -3.683914e+02
   5.086551e+02   1.682058e+02
   1.375713e+02   4.227073e+02
  -9.258246e+01   3.004963e+02
  -1.509753e+02   4.985745e+01
   9.970204e+01   2.815535e+00
   3.231929e+02   1.390419e+02
   5.269556e+01   3.134652e+02
  -5.020932e+02   3.487767e+02
  -7.396713e+02  -1.315667e+02
  -4.267923e+02  -3.947476e+02
   3.673835e+02  -3.932805e+02
   5.790731e+02  -5.583270e+01
   2.847638e+02   3.665374e+02
  -8.948755e+01   4.948282e+02
  -4.775966e+02   2.181922e+02
  -4.236358e+02  -7.611602e+01
  -2.089207e+02  -3.195085e+02
   1.397302e+02  -2.439789e+02
   7.823132e+01   6.672510e+01
  -9.010127e+01   3.517965e+02
  -2.571149e+02  -3.247953e+01
  -2.589574e+02  -5.284480e+02
   1.674156e+02  -5.776678e+02
   3.998633e+02  -1.841497e+02
   2.835707e+02   3.947213e+02
  -1.740702e+02   2.286668e+02
  -2.959865e+02  -2.774175e+02
   4.191852e+01  -4.500142e+02
   4.880531e+02  -1.100116e+02
   5.341556e+02   3.640478e+02
   1.929564e+02   5.415823e+02
  -2.561948e+02   3.704789e+02
  -6.016509e+02  -1.654661e+01
  -4.304572e+02  -2.094619e+02
   5.109256e+01  -3.539745e+02
   3.823693e+02  -2.030005e+02
   2.631085e+02   3.769048e+01
   8.804676e+00   4.744765e+01
  -1.310643e+02  -7.358807e+01
   6.833176e+01  -1.377907e+02
   2.925747e+02  -4.864477e+01
   1.690179e+02   1.902006e+02
  -1.107056e+02   3.003470e+02
  -3.505720e+02   2.249051e+02
  -2.436187e+02  -1.130892e+02
   1.245125e+01  -2.958592e+02
   2.242097e+02  -3.875749e+02
   3.489825e+02  -2.197533e+02
   2.478175e+02   1.299428e+02
   1.076579e+02   3.691338e+02
  -1.753993e+01   3.501115e+02
  -5.272967e+01   1.999121e+02
  -4.065058e+01   7.800633e+01
  -1.153433e+02   1.049730e+02
  -2.186054e+02   1.363177e+02
  -2.405790e+02  -5.491794e+01
  -1.350524e+02  -2.589256e+02
   2.415126e+01  -2.228806e+02
   2.039115e+02  -1.414831e+01
   1.973189e+02   2.338252e+02
   2.666392e+01   2.413777e+02
  -2.269230e+02   1.059314e+02
  -3.506820e+02  -1.133023e+02
  -1.750458e+02  -2.876647e+02
   2.844536e+01  -3.189421e+02
   1.693012e+02  -1.860354e+02
   1.632445e+02  -7.137417e+01
   1.239479e+02  -6.509073e+01
   2.403663e+02  -6.184381e+01
   3.932752e+02   1.543440e+01
   4.151995e+02   2.821130e+02
   2.688511e+01   4.458236e+02
  -3.767060e+02   4.429493e+02
  -4.628717e+02   1.656688e+02
  -2.986241e+02  -6.167008e+01
  -6.242467e+01  -2.520100e+02
   6.532635e+01  -2.526102e+02
   4.160796e+01  -5.959105e+01
  -1.184205e+02   6.900274e+01
  -1.546337e+02  -3.166373e+01
  -4.623862e+01  -1.650997e+02
   1.381637e+02  -1.497040e+02
   1.347213e+02   4.473343e+01
  -9.620508e-01   1.471013e+02
  -1.739807e+02   3.496341e+01
  -1.859349e+02  -2.501339e+02
  -4.810299e+01  -3.310542e+02
   2.007333e+02  -2.720784e+02
   3.686329e+02   1.824064e+01
   3.214174e+02   2.456485e+02
   1.464907e+02   2.675761e+02
  -1.135037e+02   1.646051e+02
  -1.804852e+02   1.206202e+01
  -5.949021e+01  -7.404441e+00
   6.457480e+01   3.614880e+01
   2.224134e+01   1.132253e+02
  -1.041975e+02   8.720858e+01
  -1.653582e+02   1.050320e+00
  -6.459824e+01  -4.485730e+01
   7.410479e+01  -1.019003e+01
   5.244197e+01   7.415728e+01
  -1.510349e+02   9.594318e+01
  -2.826672e+02   9.856733e+00
  -2.664151e+02  -1.126227e+02
  -4.616807e+01  -2.715991e+02
   1.480037e+02  -2.732564e+02
   2.678946e+02  -1.539967e+02
   1.418881e+02   1.976222e+01
  -5.103203e+00   9.708472e+01
  -7.482848e+01   2.516397e+01
   3.488058e+01  -8.488282e+01
   1.846243e+02  -7.350284e+01
   2.116284e+02   6.279629e+01
   7.149096e+01   1.902978e+02
  -6.911772e+01   1.611676e+02
  -1.444674e+02   5.538315e+01
  -6.483565e+01  -2.751184e+01
   3.583260e+01   2.267994e+01
   5.051357e+01   8.413684e+01
  -8.211174e+01   1.160441e+02
  -1.830876e+02   4.897042e+01
  -2.104164e+02  -9.763423e+01
  -5.702898e+01  -2.125647e+02
   1.194812e+02  -1.927953e+02
   1.690712e+02  -1.723558e+01
   8.687452e+01   9.699292e+01
  -6.249648e+01   1.070423e+02
  -8.040089e+01   3.396670e+01
  -7.150727e+00  -2.335134e+01
   2.313582e+01  -1.484548e+01
  -9.878207e+00   2.976376e+01
  -8.487011e+01   5.826056e+00
  -1.155882e+02  -7.828459e+01
  -3.910333e+01  -1.423313e+02
   1.222685e+02  -1.768494e+02
   2.199312e+02  -4.982381e+01
   2.320798e+02   1.064244e+02
   6.006172e+01   2.184217e+02
  -8.616376e+01   1.918398e+02
  -1.341311e+02   5.535968e+01
  -8.462431e+01  -3.086200e+01
  -4.067295e+01  -2.554968e+01
  -5.254418e+01   1.736044e+01
  -8.461484e+01   2.752108e+01
  -5.620588e+01  -5.329543e+01
   4.404367e+01  -1.092443e+02
   1.068111e+02  -7.675691e+01
   1.039500e+02   3.720851e+01
  -6.481058e+00   1.318644e+02
  -1.526471e+02   1.062576e+02
  -2.305684e+02  -3.380257e+01
  -1.286618e+02  -1.696674e+02
   1.074453e+02  -2.215642e+02
   2.850414e+02  -1.008977e+02
   2.426105e+02   6.824377e+01
   1.019508e+02   1.687634e+02
  -2.480934e+01   1.434865e+02
  -7.397102e+01   1.073691e+02
  -6.902630e+01   8.957758e+01
  -5.370141e+01   1.004852e+02
  -8.841940e+01   9.060882e+01
  -1.385541e+02  -1.717029e+00
  -1.328794e+02  -1.479693e+02
  -3.811861e+01  -2.283892e+02
   5.715400e+01  -1.719929e+02
   1.692322e+02  -4.062715e+01
   1.469312e+02   1.075598e+02
   2.712855e+01   1.257593e+02
  -7.695950e+01   8.635952e+01
  -5.765054e+01  -1.299169e+01
  -1.107563e+00  -5.570294e+01
   1.640669e+01  -3.643346e+01
  -3.497952e+01  -2.364104e+00
  -9.124202e+01  -1.832038e+01
  -5.294657e+01  -3.583540e+01
   6.832915e+01  -4.331243e+01
   1.623650e+02  -1.027196e+01
   1.351290e+02   6.124899e+01
   7.409330e+00   9.655923e+01
  -1.071950e+02   8.868633e+01
  -1.369113e+02   1.002314e+01
  -5.536069e+01  -3.826451e+01
   5.596926e+01  -4.746393e+01
   8.409020e+01   4.251167e+00
   2.537425e+01   7.790144e+01
  -4.870999e+01   6.148660e+01
  -6.976463e+01   5.110121e+00
  -5.799487e+01  -3.609101e+01
  -5.529650e+01  -3.680385e+01
  -6.194177e+01   3.802073e+00
  -6.532565e+01   1.462686e+00
  -5.023906e+01  -8.796336e+01
   2.013794e+01  -1.579835e+02
   1.058328e+02  -1.519990e+02
   1.830070e+02  -3.106949e+01
   1.286218e+02   6.363343e+01
   2.779470e+01   1.296518e+02
  -7.988272e+01   7.732188e+01
  -6.727403e+01  -5.795451e+00
   6.067101e+01  -2.720366e+01
   1.487923e+02   2.774050e+01
   8.269562e+01   1.001259e+02
  -5.346624e+01   1.184560e+02
  -1.813569e+02   7.717447e+01
  -1.841143e+02  -4.495525e+00
  -3.365086e+01  -8.477987e+01
   5.528453e+01  -7.136720e+01
   4.959311e+01  -9.647160e+00
  -3.685138e+01   3.518632e+01
  -9.377048e+01  -1.305169e+01
  -4.251113e+01  -1.013239e+02
   5.570112e+01  -1.723308e+02
   1.590133e+02  -8.590585e+01
   1.308352e+02   9.651827e+01
   5.968530e+01   1.945543e+02
  -3.779219e+01   1.559962e+02
  -1.168313e+02   8.313624e+00
  -7.887259e+01  -1.136989e+02
   3.573003e-01  -1.045096e+02
   4.697078e+01  -2.424273e+01
   5.048699e+01   2.764477e+01
   2.057626e+01   6.253974e+00
  -9.138946e-02  -1.919085e+01
   2.553035e+01   2.019405e+01
   6.768827e+01   9.117400e+01
   5.753742e+01   1.053471e+02
  -4.362572e+01   5.091654e+01
  -1.323224e+02  -2.081518e+01
  -1.341195e+02  -6.704923e+01
  -1.999739e+01  -5.338496e+01
   7.925680e+01  -3.008345e+01
   7.715510e+01  -1.578496e+01
   1.711107e+01   9.910137e+00
  -3.261549e+01   2.091590e+01
  -1.429414e+01   1.345480e+01
   1.817871e+01  -8.099007e+00
  -4.913465e+00  -6.147871e+00
  -7.846516e+01   2.833380e+00
  -8.965847e+01  -6.915358e+00
  -3.138952e+01  -1.004255e+02
   9.776172e+01  -1.305961e+02
   1.790280e+02  -1.132219e+02
   1.849576e+02   2.922506e+01
   3.614857e+01   1.586281e+02
  -8.054603e+01   1.592081e+02
  -9.798578e+01   9.551525e+01
  -7.685824e+01  -1.398266e+01
  -3.406680e+01  -3.520635e+01
  -1.530469e+00  -1.309239e+01
  -1.361745e+01  -5.084760e+00
  -3.433696e+01  -4.232940e+01
  -3.209975e+01  -8.476757e+01
   1.931473e+01  -7.813509e+01
   7.980105e+01   1.879485e+00
   9.387570e+01   8.977164e+01
   1.592945e+01   1.099240e+02
  -7.098659e+01   3.862503e+01
  -1.167583e+02  -6.578007e+01
  -3.271058e+01  -1.038356e+02
   6.229918e+01  -7.962073e+01
   1.068608e+02  -3.354584e+00
   5.740280e+01   5.046427e+01
  -3.067200e+01   6.704626e+01
  -4.103521e+01   3.072267e+01
   3.231348e+01  -4.284059e+00
   6.338349e+01  -2.492888e+01
   2.067954e+01   2.390770e+01
  -7.477535e+01   9.042594e+01
  -1.206797e+02   6.936399e+01
  -7.224346e+01  -1.253824e+01
  -6.764261e+00  -9.515552e+01
   4.809279e+01  -9.100741e+01
   4.177592e+01  -1.605887e+01
   1.780288e+01   5.211180e+01
  -1.486257e+01   4.370025e+01
  -4.170730e+01  -9.221281e+00
  -3.772382e+01  -4.937675e+01
  -1.515255e+00  -3.524849e+01
   3.445831e+01   1.961734e+00
   4.260409e+01   2.233424e+01
   2.288395e+01   1.649432e+00
  -5.263746e+00  -1.718736e+01
  -3.765547e+00  -2.494570e+00
   4.930608e+00   3.499181e+01
  -2.196762e+00   5.501191e+01
  -2.751417e+01   2.727541e+01
  -4.444509e+01  -3.479246e+01
  -1.687320e+01  -6.526420e+01
   3.799686e+01  -3.626642e+01
   7.080420e+01   2.866751e+01
   2.326873e+01   6.145841e+01
  -5.412654e+01   4.708418e+01
  -9.150911e+01  -2.963182e+00
  -5.506695e+01  -4.218947e+01
   2.590718e+01  -5.087321e+01
   6.993470e+01  -3.641808e+01
   2.615506e+01  -8.855335e+00
  -3.041967e+01   2.924955e+00
  -4.109012e+01  -4.611033e+00
   2.095240e+01  -2.969256e+01
   8.192022e+01  -3.457414e+01
