
 $NMID
 id='ANONYMOUS ', fmtdat='(2E16.6)'
 volume=1.0
 tramp=1.0
 $END
  -3.819788e+03  -2.147468e+02
  -2.772054e+03  -2.704803e+03
   4.631772e+02  -2.806799e+03
   1.733709e+03  -1.110571e+03
   1.122091e+03   4.559878e+02
  -1.648365e+02   6.372394e+02
  -8.211592e+02  -2.104130e+02
  -9.304013e+01  -9.479943e+02
   4.714369e+02  -7.591863e+02
   9.312456e+02  -1.033202e+02
   4.261883e+02   7.480298e+02
  -1.687543e+02   7.700358e+02
  -5.963014e+02   1.703238e+02
  -4.400476e+02  -6.661807e+02
   1.206459e+02  -7.782438e+02
   5.823096e+02  -2.906314e+01
   3.099615e+02   7.257080e+02
  -2.835235e+02   6.907093e+02
  -5.905584e+02   3.181051e+02
  -4.064653e+02  -2.566040e+02
  -1.859718e+01  -4.602884e+02
   1.925372e+02  -3.011682e+02
   1.882930e+02  -4.845596e+01
  -8.990154e+01   6.080299e+01
  -2.683552e+02  -7.402440e+01
  -1.204207e+02  -3.942751e+02
   5.277866e+02  -3.642757e+02
   7.658384e+02   5.783531e+01
   4.285693e+02   5.150422e+02
  -3.240537e+02   4.423192e+02
  -6.170013e+02   8.120791e+01
  -2.198267e+02  -4.546669e+02
   2.428997e+02  -4.438620e+02
   5.262230e+02  -2.114121e+02
   4.487274e+02   1.554896e+02
   9.173849e+01   4.362468e+02
  -1.254428e+02   2.891487e+02
  -1.289735e+02  -1.513645e+02
   4.365872e+01  -3.586392e+02
   3.306351e+02   8.719246e+00
   2.426031e+02   5.496767e+02
  -1.492980e+02   6.412130e+02
  -4.633521e+02   1.078204e+02
  -2.983911e+02  -5.044472e+02
   2.571695e+02  -3.263257e+02
   3.333536e+02   2.862264e+02
  -1.947186e+01   4.126765e+02
  -5.702265e+02   1.174869e+02
  -4.934276e+02  -4.359557e+02
  -1.655301e+02  -6.538925e+02
   3.054137e+02  -4.015554e+02
   5.375972e+02   2.101522e+01
   4.436667e+02   2.922315e+02
  -9.353955e+01   3.504952e+02
  -4.083696e+02   8.697270e+01
  -2.784932e+02  -1.756260e+02
   4.751711e+01  -1.078012e+02
   1.675025e+02   1.082460e+02
  -1.165003e+02   1.470431e+02
  -3.277618e+02  -2.434326e+01
  -1.312396e+02  -2.889963e+02
   1.381544e+02  -2.581582e+02
   3.557968e+02  -1.084241e+02
   2.220568e+02   1.544781e+02
  -6.295971e+01   2.827039e+02
  -2.429278e+02   3.312255e+02
  -2.814121e+02   1.908946e+02
  -2.701805e+02  -1.674876e+02
  -1.048911e+02  -4.375662e+02
   4.407448e+01  -4.184306e+02
   1.369299e+02  -1.527288e+02
   4.329903e+01  -1.702187e+01
   5.729213e+01  -7.695065e+01
   1.788360e+02  -9.687544e+01
   2.871517e+02   7.771776e+01
   1.251099e+02   2.728883e+02
  -6.486953e+01   2.505958e+02
  -1.999889e+02   2.232752e+01
  -1.890103e+02  -2.412675e+02
  -1.476493e+01  -2.640166e+02
   2.058329e+02  -1.092121e+02
   3.362312e+02   1.655924e+02
   1.973125e+02   3.270007e+02
  -3.480348e+01   2.983107e+02
  -1.986446e+02   1.572022e+02
  -1.871808e+02   5.359532e+00
  -1.279088e+02   3.046732e+01
  -2.103766e+02   7.262233e+01
  -4.079552e+02  -1.731005e+01
  -3.555544e+02  -2.297165e+02
   4.923802e+01  -4.092085e+02
   3.862314e+02  -3.997829e+02
   4.910000e+02  -1.357600e+02
   3.029863e+02   7.809318e+01
   4.903313e+01   3.075048e+02
  -1.195569e+02   2.607414e+02
  -6.776280e+01   4.918135e+01
   9.731849e+01  -8.059115e+01
   1.417471e+02   1.957473e+01
   4.929567e+01   2.084915e+02
  -1.580191e+02   1.874342e+02
  -1.476780e+02  -4.439613e+01
   1.837060e+01  -1.728770e+02
   1.895583e+02  -3.516531e+01
   1.914498e+02   2.445392e+02
   6.655216e+00   3.564614e+02
  -2.294560e+02   2.042781e+02
  -3.114182e+02  -8.769216e+01
  -2.953574e+02  -2.423364e+02
  -6.758009e+01  -2.343233e+02
   9.901573e+01  -1.528561e+02
   1.711727e+02  -1.492714e+01
   5.980810e+01   1.356015e+01
  -6.090631e+01  -4.183391e+01
  -3.103308e+01  -1.213911e+02
   1.083422e+02  -8.392361e+01
   1.534740e+02   2.092448e+01
   6.117596e+01   6.160763e+01
  -6.840504e+01   1.234866e+00
  -4.696401e+01  -6.856310e+01
   1.413013e+02  -8.517906e+01
   2.792722e+02  -1.915887e+01
   2.294045e+02   1.180437e+02
   4.365808e+01   2.539169e+02
  -1.634962e+02   2.663633e+02
  -2.896690e+02   1.558684e+02
  -1.763271e+02  -2.301725e+01
   1.254451e+01  -9.236754e+01
   7.404396e+01  -1.726374e+01
  -4.465880e+01   9.543634e+01
  -2.066895e+02   6.869585e+01
  -2.198273e+02  -7.735069e+01
  -6.550724e+01  -1.804495e+02
   6.368058e+01  -1.654358e+02
   1.457393e+02  -3.998603e+01
   5.636133e+01   2.921279e+01
  -2.919279e+01  -1.158613e+01
  -3.441032e+01  -8.371830e+01
   9.792348e+01  -9.742474e+01
   1.922850e+02  -2.750318e+01
   1.942653e+02   1.319089e+02
   5.496462e+01   2.101388e+02
  -1.656206e+02   1.797067e+02
  -1.847798e+02   4.254387e+00
  -8.027826e+01  -1.014877e+02
   6.961227e+01  -9.382883e+01
   8.027433e+01  -3.179669e+01
   1.398481e+01   2.276319e+01
  -2.774258e+01   1.093806e+01
   1.528773e+01  -1.498437e+01
   8.282721e+01  -1.766369e+00
   8.971339e+01   8.167255e+01
   3.012719e+01   1.620227e+02
  -1.066454e+02   1.429997e+02
  -2.530969e+02   2.841006e+01
  -1.836912e+02  -1.026436e+02
  -4.285806e+01  -2.146245e+02
   8.810940e+01  -1.470719e+02
   1.360287e+02  -2.824065e+01
   8.298235e+01   4.398559e+01
   3.829144e+01   3.146561e+01
   5.608422e+01  -9.494547e+00
   7.784178e+01  -9.447475e+00
   3.978601e+01   4.393405e+01
  -4.088080e+01   9.971585e+01
  -9.945298e+01   7.476944e+01
  -7.877724e+01  -4.690217e+01
   2.648247e+01  -1.082883e+02
   1.311294e+02  -7.525264e+01
   2.035921e+02   4.917527e+01
   1.680361e+02   1.808317e+02
  -1.079293e+02   2.391189e+02
  -2.491631e+02   9.228506e+01
  -2.421617e+02  -7.987222e+01
  -1.035699e+02  -1.901937e+02
   3.969445e+01  -1.377972e+02
   9.165728e+01  -8.415098e+01
   8.546578e+01  -6.977681e+01
   5.721134e+01  -7.856621e+01
   9.653115e+01  -7.984264e+01
   1.345411e+02   2.130579e+01
   1.373596e+02   1.376405e+02
   2.549128e+01   2.417168e+02
  -8.566950e+01   1.574235e+02
  -1.871893e+02   3.201737e+01
  -1.309610e+02  -1.139205e+02
  -1.813968e+01  -1.462227e+02
   5.392313e+01  -6.582514e+01
   5.479054e+01   6.774942e+00
   5.283117e+00   4.538153e+01
  -1.133729e+01   3.385852e+01
   3.970560e+01   1.445657e+01
   8.541768e+01   3.199102e+01
   5.103753e+01   3.966277e+01
  -6.210734e+01   3.678987e+01
  -1.663494e+02  -3.415526e+00
  -1.268045e+02  -7.675177e+01
  -1.687426e+01  -8.881945e+01
   1.403647e+02  -8.648854e+01
   1.486277e+02  -3.287068e+00
   4.466343e+01   3.737017e+01
  -5.944625e+01   5.078433e+01
  -7.568388e+01  -1.501395e+01
  -1.468918e+01  -6.274112e+01
   6.387622e+01  -6.215863e+01
   7.184866e+01   1.450907e+01
   5.303804e+01   5.191914e+01
   4.640051e+01   3.229948e+01
   5.905257e+01  -6.540977e+00
   6.944285e+01   3.196437e+00
   2.652811e+01   7.241620e+01
  -4.187203e+01   1.502618e+02
  -1.088086e+02   1.569149e+02
  -1.581112e+02   1.736470e+01
  -1.235156e+02  -8.925375e+01
  -1.722810e+01  -1.231909e+02
   7.019576e+01  -6.439157e+01
   6.130578e+01   1.405487e+01
  -6.041643e+01   2.067302e+01
  -1.491415e+02  -3.401273e+01
  -6.292283e+01  -1.215249e+02
   6.282813e+01  -1.244251e+02
   2.137165e+02  -5.894462e+01
   1.660618e+02   2.579130e+01
   2.960936e+01   9.311183e+01
  -6.408428e+01   6.007810e+01
  -4.719532e+01   4.396533e+00
   3.749261e+01  -3.330607e+01
   7.741804e+01   1.386985e+01
   1.403663e+01   1.048092e+02
  -5.890958e+01   1.634059e+02
  -1.711269e+02   5.101366e+01
  -1.375318e+02  -1.043513e+02
  -2.638950e+01  -1.837359e+02
   6.582919e+01  -1.552448e+02
   9.580111e+01  -5.560779e+00
   7.131959e+01   1.128629e+02
  -5.217897e+00   1.113801e+02
  -4.495015e+01   2.315488e+01
  -4.854638e+01  -2.890543e+01
  -2.523481e+01  -9.447475e+00
  -4.335837e+00   2.017747e+01
  -2.462484e+01  -1.128029e+01
  -5.290561e+01  -8.846434e+01
  -5.112288e+01  -8.966916e+01
   4.408246e+01  -4.314454e+01
   1.389061e+02   4.336966e+01
   1.312283e+02   7.601946e+01
   9.377744e+00   4.561317e+01
  -8.537941e+01   2.364699e+01
  -9.437549e+01  -2.753003e+00
  -1.197814e+01  -1.067747e+01
   3.270423e+01  -2.455414e+01
   1.720959e+01  -1.739030e+01
  -2.069798e+01   5.583238e+00
   4.719371e+00   7.624696e+00
   8.185758e+01   3.497022e+00
   9.000516e+01   1.693432e+01
   2.432041e+01   8.987014e+01
  -1.282865e+02   1.262514e+02
  -1.696712e+02   7.030772e+01
  -1.477506e+02  -5.651592e+01
  -2.798663e+01  -1.751611e+02
   9.326721e+01  -1.536826e+02
   1.128820e+02  -7.738091e+01
   8.221188e+01   2.333566e+01
   2.834428e+01   3.417148e+01
  -1.381420e+00   1.069613e+01
   1.115562e+01   3.340116e+00
   2.524775e+01   4.969207e+01
   9.034176e+00   9.619231e+01
  -2.690546e+01   8.151624e+01
  -7.638823e+01  -8.945811e+00
  -8.162451e+01  -1.121406e+02
  -2.546099e+00  -1.246668e+02
   7.577659e+01  -2.801077e+01
   1.102324e+02   7.488737e+01
   2.718004e+01   1.051515e+02
  -6.089340e+01   6.380870e+01
  -1.043717e+02  -9.140822e+00
  -4.582729e+01  -4.161601e+01
   3.856450e+01  -4.770151e+01
   4.086106e+01  -2.734021e+01
  -3.458442e+01  -3.463149e-01
  -7.051957e+01   8.020739e+00
  -1.718903e+01  -2.480686e+01
   6.815571e+01  -7.627008e+01
   1.165680e+02  -5.752837e+01
   6.100167e+01   2.077190e+01
   2.902374e-02   7.700544e+01
  -6.682150e+01   7.208835e+01
  -4.336005e+01   3.670364e+00
  -9.180266e+00  -4.776156e+01
   2.959931e+01  -4.259011e+01
   4.163621e+01   1.193581e+01
   3.758134e+01   4.479425e+01
  -1.308867e+00   3.207529e+01
  -3.558124e+01  -6.328379e+00
  -3.613217e+01  -2.276778e+01
  -1.880129e+01  -1.336314e+00
   3.109668e+00   1.577850e+01
   2.648880e+00  -6.386533e-01
  -1.307035e+00  -3.649371e+01
   2.111208e+01  -5.080574e+01
   3.459818e+01  -1.052042e+01
   3.311505e+01   4.052393e+01
   1.140641e+01   5.266999e+01
  -4.406838e+01   2.670963e+01
  -6.137465e+01  -4.301151e+01
  -1.006597e+01  -6.420084e+01
   4.134808e+01  -3.851867e+01
   8.236509e+01   4.407047e-01
   4.613486e+01   4.008639e+01
  -2.311872e+01   4.035384e+01
  -6.975682e+01   2.370723e+01
  -2.775769e+01   7.589470e+00
   3.853812e+01  -3.983352e+00
   4.344109e+01   1.419172e+01
  -2.283087e+01   2.697704e+01
  -9.211096e+01   2.351265e+01
