
 $NMID
 id='ANONYMOUS ', fmtdat='(2E16.6)'
 volume=1.0
 tramp=1.0
 $END
   3.463116e+03  -1.448164e+02
   2.043381e+03   2.040720e+03
  -5.521203e+02   2.196266e+03
  -1.905273e+03   1.417395e+03
  -1.012184e+03  -2.393768e+02
   3.063845e+02  -5.884549e+02
   8.284043e+02   4.746222e+01
   6.320248e+01   7.731419e+02
  -4.554217e+02   8.307141e+02
  -8.281072e+02   8.955143e+01
  -5.346626e+02  -6.112330e+02
   8.810014e+01  -7.356097e+02
   5.154078e+02  -1.884605e+02
   3.400593e+02   5.305695e+02
  -1.947979e+02   7.481149e+02
  -4.423215e+02   4.355113e+01
  -2.322657e+02  -5.772424e+02
   2.039870e+02  -6.620264e+02
   5.603680e+02  -2.866737e+02
   4.959339e+02   2.543278e+02
   5.873570e+01   3.798847e+02
  -1.849220e+02   2.988555e+02
  -1.651673e+02   9.678772e+01
   1.390534e+02  -6.061633e+00
   3.314341e+02   1.074719e+02
   8.236162e+01   3.551094e+02
  -4.481932e+02   1.839619e+02
  -6.596964e+02  -1.294807e+02
  -3.374983e+02  -4.934792e+02
   3.056784e+02  -3.635808e+02
   6.589120e+02  -6.835423e+01
   2.687709e+02   3.979824e+02
  -2.620277e+02   5.031054e+02
  -5.189180e+02   2.360112e+02
  -4.015000e+02  -1.632865e+02
  -1.113496e+02  -3.661593e+02
   8.124373e+01  -2.148133e+02
   1.299276e+02   1.631019e+02
  -1.007375e+02   3.521892e+02
  -3.304067e+02  -6.517733e+00
  -2.133896e+02  -5.532084e+02
   1.955020e+02  -5.409139e+02
   5.099040e+02  -8.162425e+01
   2.561266e+02   4.613840e+02
  -1.777456e+02   1.725386e+02
  -2.553921e+02  -2.776421e+02
   5.147092e+01  -4.624543e+02
   4.714897e+02  -4.829246e+01
   5.461624e+02   2.947830e+02
   1.083398e+02   5.128602e+02
  -3.217875e+02   3.755378e+02
  -6.021857e+02   2.960930e+01
  -4.127377e+02  -3.283452e+02
   4.868214e+01  -3.067898e+02
   3.539636e+02  -1.036161e+02
   2.537125e+02   1.491626e+02
  -8.331946e+01   4.125666e+01
  -1.347685e+02  -9.709759e+01
   1.147147e+02  -1.206195e+02
   3.112087e+02   7.357515e+00
   1.428154e+02   2.318887e+02
  -1.424859e+02   3.156535e+02
  -3.336806e+02   1.034401e+02
  -1.969030e+02  -1.001852e+02
   8.352317e+01  -2.743224e+02
   2.367506e+02  -3.956620e+02
   3.118848e+02  -2.329140e+02
   2.216559e+02   1.621989e+02
   5.970532e+01   3.723472e+02
  -6.095763e+00   3.842791e+02
  -6.945812e+01   1.356310e+02
  -4.737675e+01   5.274045e+01
  -9.102971e+01   1.180439e+02
  -1.984212e+02   9.701436e+01
  -2.739966e+02  -8.583164e+01
  -1.179113e+02  -2.261117e+02
   5.622066e+01  -2.370205e+02
   2.268926e+02  -2.312300e+01
   1.102714e+02   2.152434e+02
   4.141210e+01   2.824606e+02
  -2.287568e+02   1.246535e+02
  -3.158886e+02  -1.745506e+02
  -2.187304e+02  -3.410281e+02
   1.370801e+01  -3.250648e+02
   1.921653e+02  -1.560993e+02
   1.506463e+02  -2.852199e+01
   9.977955e+01  -3.581258e+01
   2.389384e+02  -6.274511e+01
   4.202260e+02  -6.657654e+00
   3.303474e+02   2.470761e+02
   1.062728e+01   4.141553e+02
  -3.975833e+02   2.960159e+02
  -4.616486e+02   1.802019e+02
  -3.124254e+02  -6.120140e+01
  -2.403307e+01  -2.581555e+02
   9.723890e+01  -2.409111e+02
   4.320914e+01  -3.932022e+01
  -1.074699e+02   6.375191e+01
  -1.480464e+02  -2.498472e+01
  -3.634952e+01  -1.434962e+02
   1.588094e+02  -1.224324e+02
   1.245654e+02   4.236023e+01
  -2.780614e+01   1.493097e+02
  -1.564739e+02   3.808424e+01
  -1.230187e+02  -2.301739e+02
   1.243295e+01  -3.656982e+02
   2.409564e+02  -2.108443e+02
   2.701683e+02   8.291348e+01
   2.902010e+02   2.281831e+02
   9.984254e+01   2.454424e+02
  -1.216301e+02   1.419061e+02
  -1.283586e+02   2.009797e+01
  -4.499093e+01  -1.816383e+01
   7.122364e+01   3.663287e+01
   2.320789e+01   9.419689e+01
  -1.085383e+02   8.250104e+01
  -1.463180e+02  -2.052704e+01
  -4.752519e+01  -5.688365e+01
   7.552130e+01   4.931208e+00
   4.895498e+01   8.205977e+01
  -1.245194e+02   8.306331e+01
  -2.604127e+02   1.016263e+01
  -2.536883e+02  -1.486977e+02
  -3.214905e+01  -2.378023e+02
   1.405215e+02  -2.410941e+02
   2.778168e+02  -6.001142e+01
   1.599071e+02   3.572950e+01
  -9.815231e+00   1.066668e+02
  -8.243426e+01   1.210647e+01
   4.934828e+01  -7.601003e+01
   1.832810e+02  -4.691989e+01
   2.211550e+02   7.181272e+01
   6.997381e+01   1.934664e+02
  -9.567323e+01   1.577109e+02
  -1.330180e+02   3.387178e+01
  -5.709796e+01  -3.606650e+01
   2.271385e+01   1.293013e+01
   3.367875e+01   9.496248e+01
  -8.341661e+01   8.772756e+01
  -2.173179e+02   4.876643e+01
  -1.816880e+02  -1.108495e+02
  -6.103855e+01  -2.212425e+02
   1.537768e+02  -1.872388e+02
   1.729052e+02  -3.252387e+01
   7.574562e+01   1.002747e+02
  -5.227318e+01   9.250704e+01
  -6.170717e+01   3.286192e+01
  -6.757381e+00  -2.349085e+01
   2.422195e+01  -1.137279e+01
  -1.176484e+01   2.048573e+01
  -8.321487e+01  -1.631420e+00
  -1.060825e+02  -7.476045e+01
  -2.362924e+01  -1.667452e+02
   1.104936e+02  -1.604727e+02
   2.264522e+02   7.516492e-01
   2.100971e+02   1.418131e+02
   2.345562e+01   2.333198e+02
  -9.319475e+01   1.617434e+02
  -1.209417e+02   1.310162e+01
  -7.018485e+01  -4.325686e+01
  -3.497198e+01  -3.174105e+01
  -5.784560e+01   1.620857e+01
  -8.856676e+01   1.132277e+01
  -5.233351e+01  -4.974423e+01
   4.111512e+01  -8.432033e+01
   1.113910e+02  -7.230144e+01
   7.147961e+01   3.061847e+01
  -6.061459e+00   1.074724e+02
  -1.460108e+02   8.349195e+01
  -1.990017e+02  -1.392566e+01
  -1.260284e+02  -2.030962e+02
   1.405024e+02  -2.234974e+02
   2.247916e+02  -1.102838e+02
   2.034323e+02   1.057216e+02
   9.398000e+01   1.491240e+02
  -5.149429e+01   1.441765e+02
  -8.181284e+01   9.160885e+01
  -7.226080e+01   5.840578e+01
  -4.369515e+01   9.622436e+01
  -7.963693e+01   7.785155e+01
  -1.192779e+02  -1.751480e+01
  -1.131793e+02  -1.453969e+02
   1.145318e+01  -1.908983e+02
   9.207588e+01  -1.697330e+02
   1.855268e+02  -1.153754e+01
   1.474297e+02   1.243062e+02
   1.566720e+01   1.240540e+02
  -5.218783e+01   6.380240e+01
  -5.784512e+01  -1.387306e+01
  -5.825875e+00  -4.574576e+01
   2.047030e+01  -3.320443e+01
  -3.619833e+01  -1.564822e+01
  -7.327767e+01  -2.437427e+01
  -4.159712e+01  -3.778428e+01
   6.383009e+01  -3.904604e+01
   1.512351e+02  -1.150852e+01
   1.395499e+02   6.918718e+01
   1.882892e+00   8.854361e+01
  -1.368748e+02   8.677158e+01
  -1.307290e+02   4.976926e+00
  -4.276387e+01  -4.762602e+01
   6.359711e+01  -4.533069e+01
   7.415645e+01   2.122684e+01
   2.265765e+01   7.325908e+01
  -4.211859e+01   5.323969e+01
  -6.002777e+01  -1.852286e+00
  -4.664912e+01  -6.319804e+01
  -5.580028e+01  -3.624371e+01
  -5.675956e+01  -1.270802e-01
  -6.090428e+01   1.428088e+00
  -3.976782e+01  -7.113226e+01
   2.775057e+01  -1.349934e+02
   1.292373e+02  -1.284616e+02
   1.563327e+02  -1.169421e+01
   1.258957e+02   8.120263e+01
   2.246790e+01   1.300546e+02
  -8.293170e+01   7.237325e+01
  -5.942011e+01  -1.405860e+01
   5.510765e+01  -1.997152e+01
   1.401440e+02   3.642645e+01
   4.913613e+01   1.064597e+02
  -8.613407e+01   1.252346e+02
  -1.828983e+02   5.195518e+01
  -1.670895e+02  -1.533926e+01
  -3.019121e+01  -8.015792e+01
   4.502845e+01  -6.554069e+01
   5.014623e+01  -1.147974e+01
  -4.330690e+01   3.156778e+01
  -8.540082e+01  -2.040179e+01
  -3.408706e+01  -1.201559e+02
   6.997347e+01  -1.730872e+02
   1.406253e+02  -6.965588e+01
   1.085408e+02   9.364742e+01
   4.260206e+00   1.905129e+02
  -7.373544e+01   1.571202e+02
  -1.031701e+02   4.115503e+00
  -6.671579e+01  -1.131892e+02
   2.464967e+01  -9.129949e+01
   4.444036e+01  -2.787603e+01
   4.447062e+01   2.771714e+01
   1.818143e+01   8.138631e+00
   4.459993e+00  -1.765434e+01
   3.075939e+01   1.516423e+01
   3.496294e+01   9.408511e+01
   4.454225e+01   9.661949e+01
  -4.540389e+01   4.700060e+01
  -1.249474e+02  -3.194900e+01
  -1.104263e+02  -6.482329e+01
  -1.383621e+01  -5.142867e+01
   6.760337e+01  -3.798040e+01
   8.001213e+01  -5.582476e-01
   1.300240e+01   1.132600e+01
  -3.463123e+01   2.401726e+01
  -1.798492e+01   1.105912e+01
   1.949915e+01  -6.848162e+00
  -5.226213e+00  -5.601820e+00
  -5.902299e+01  -2.705585e+00
  -9.574319e+01  -1.267075e+01
  -1.143862e+01  -7.652604e+01
   1.119373e+02  -1.144321e+02
   1.728069e+02  -8.060609e+01
   1.520062e+02   5.525387e+01
   4.674734e+00   1.497612e+02
  -6.737826e+01   1.171606e+02
  -1.159222e+02   6.122952e+01
  -6.570822e+01  -2.469962e+01
  -2.715272e+01  -3.135107e+01
  -1.626588e+00  -1.105102e+01
  -1.268729e+01  -3.613223e+00
  -3.068088e+01  -4.297384e+01
  -2.164235e+01  -9.017019e+01
   2.927869e+01  -6.934446e+01
   8.004320e+01   8.973932e+00
   8.184171e+01   9.536340e+01
   1.051199e+01   1.052226e+02
  -6.719034e+01   3.998051e+01
  -1.046479e+02  -6.685048e+01
  -1.670263e+01  -8.951506e+01
   5.745965e+01  -6.461651e+01
   1.026458e+02   8.871588e+00
   4.940554e+01   5.283230e+01
  -2.659337e+01   5.411956e+01
  -3.238440e+01   2.441466e+01
   2.777302e+01  -2.129094e+00
   6.938697e+01  -1.620096e+01
   1.464463e+01   2.472411e+01
  -7.370791e+01   6.709070e+01
  -9.688348e+01   6.814812e+01
  -6.206848e+01  -1.266901e+01
   7.560251e+00  -8.403950e+01
   4.423630e+01  -8.001102e+01
   4.181289e+01  -7.536312e+00
   1.210663e+01   5.421851e+01
  -2.158383e+01   4.444144e+01
  -4.241392e+01  -1.096226e+01
  -3.380846e+01  -5.045670e+01
  -8.225213e-02  -3.383161e+01
   3.007227e+01   3.675391e+00
   3.613668e+01   2.137388e+01
   1.933149e+01   1.369116e+00
  -1.872498e+00  -1.927751e+01
  -3.630900e+00  -2.893996e-02
   1.084303e+00   3.620777e+01
  -9.742865e+00   3.610074e+01
  -3.216760e+01   1.548818e+01
  -3.646034e+01  -4.031297e+01
  -6.451966e+00  -6.388018e+01
   4.318420e+01  -2.953053e+01
   5.587311e+01   4.085005e+01
   1.694875e+01   5.572556e+01
  -5.259961e+01   4.647917e+01
  -1.016561e+02  -1.060218e+01
  -4.514358e+01  -4.117649e+01
   2.543671e+01  -4.238108e+01
   5.815427e+01  -2.642463e+01
   2.367379e+01  -4.398229e+00
  -3.159851e+01  -1.247493e-01
  -3.541153e+01  -9.700554e+00
   2.365514e+01  -2.997839e+01
   8.587873e+01  -2.638985e+01
