
 $NMID
 id='ANONYMOUS ', fmtdat='(2E16.6)'
 volume=1.0
 tramp=1.0
 $END
  -2.559700e+03   1.735275e+02
  -1.777973e+03  -1.569295e+03
   3.153332e+02  -1.816710e+03
   1.147382e+03  -1.010522e+03
   8.171795e+02   8.735589e+01
  -1.492311e+02   5.785787e+02
  -4.830642e+02  -2.991569e+02
  -2.441904e+02  -6.945281e+02
   5.242626e+02  -6.022139e+02
   7.278384e+02  -1.254669e+02
   3.390874e+02   3.788028e+02
  -1.096208e+02   5.390047e+02
  -4.254932e+02   2.093541e+02
  -3.835612e+02  -4.250879e+02
  -3.094028e+01  -5.489164e+02
   3.307216e+02  -1.304230e+02
   2.648157e+02   3.680731e+02
  -3.148837e+01   4.771638e+02
  -4.292810e+02   1.989088e+02
  -3.725617e+02  -1.320671e+02
  -6.023701e+01  -2.874598e+02
   1.113702e+02  -2.552586e+02
   6.383112e+01  -4.175097e+01
  -1.272902e+02   2.377183e+01
  -2.721338e+02  -1.673015e+02
  -6.024582e+01  -3.595002e+02
   3.265884e+02  -2.521666e+02
   5.097719e+02   6.479437e+01
   2.835610e+02   2.427216e+02
  -2.087992e+02   1.822124e+02
  -5.955356e+02   7.726431e+01
  -2.060463e+02  -2.936729e+02
   1.280310e+02  -4.211934e+02
   3.594031e+02  -1.641530e+02
   2.978646e+02   1.020274e+02
   1.097864e+02   3.434613e+02
  -7.912600e+01   1.837726e+02
  -7.970359e+01  -9.654413e+01
   7.837169e+01  -3.183133e+02
   2.266766e+02  -1.838989e+01
   1.967696e+02   4.561599e+02
  -1.568200e+02   4.649160e+02
  -4.060281e+02   1.700366e+02
  -1.994789e+02  -3.326116e+02
   1.226394e+02  -1.716200e+02
   1.582937e+02   2.131490e+02
  -3.257636e+01   4.116097e+02
  -3.566206e+02   9.675122e+01
  -3.823031e+02  -2.925270e+02
  -1.298194e+02  -3.937566e+02
   2.533391e+02  -2.915260e+02
   4.231891e+02   3.695107e+01
   3.677642e+02   2.038174e+02
  -7.967681e+01   2.435106e+02
  -3.321405e+02   1.075860e+02
  -2.130591e+02  -3.143755e+01
  -8.088628e-01  -4.147800e+01
   9.032014e+01   7.500461e+01
  -7.482954e+01   1.331059e+02
  -2.044841e+02  -2.224123e+01
  -1.042489e+02  -1.793846e+02
   1.130781e+02  -2.292519e+02
   2.838886e+02  -1.348823e+02
   2.076592e+02   2.878501e+01
  -4.779881e+01   1.972398e+02
  -1.893197e+02   3.308082e+02
  -2.413685e+02   2.221134e+02
  -2.309779e+02  -1.047662e+02
  -7.865145e+01  -2.889456e+02
   3.205401e+01  -2.908172e+02
   4.436823e+01  -1.097915e+02
   6.565563e+01  -3.469806e+01
   4.039066e+01  -8.584981e+01
   1.412967e+02  -9.920275e+01
   2.437005e+02   3.864488e+01
   9.186355e+01   1.784976e+02
  -3.471021e+01   1.409677e+02
  -1.977969e+02   2.207973e+01
  -1.219328e+02  -1.693568e+02
  -1.598753e+00  -2.703633e+02
   1.730490e+02  -5.329107e+01
   2.926596e+02   9.711583e+01
   1.815760e+02   2.334689e+02
  -1.539652e+01   2.627230e+02
  -1.132088e+02   1.386027e+02
  -1.268882e+02   4.489010e+01
  -9.599690e+01   7.585803e+01
  -1.464549e+02   8.402929e+01
  -3.223460e+02  -2.843869e+01
  -3.009751e+02  -2.004541e+02
   1.827716e+01  -3.404293e+02
   2.396051e+02  -3.259305e+02
   3.301427e+02  -1.150057e+02
   2.680141e+02   8.015136e+01
   2.962170e+01   1.963742e+02
  -4.511124e+01   1.932528e+02
  -3.389398e+01   3.421174e+01
   8.849760e+01  -4.694573e+01
   1.113681e+02   1.394994e+01
   2.112906e+01   1.227961e+02
  -9.420348e+01   1.248202e+02
  -8.945856e+01  -2.372148e+01
   7.006114e+00  -9.755688e+01
   1.479515e+02  -2.372183e+01
   1.271433e+02   1.672406e+02
   3.734021e+01   3.066120e+02
  -1.586077e+02   2.051835e+02
  -2.718857e+02  -4.357440e+01
  -2.213236e+02  -2.073023e+02
  -9.663661e+01  -2.130738e+02
   9.030555e+01  -1.162593e+02
   1.202050e+02  -1.334231e+01
   5.047641e+01   1.563582e+01
  -4.306656e+01  -4.477868e+01
  -2.830108e+01  -9.343675e+01
   9.217828e+01  -7.040876e+01
   1.028766e+02   7.847616e+00
   3.959269e+01   4.387836e+01
  -6.808482e+01   3.776855e+00
  -5.075766e+01  -5.962334e+01
   1.250068e+02  -5.165989e+01
   2.475362e+02  -5.100689e+00
   2.357175e+02   1.065899e+02
   4.711997e+01   2.073377e+02
  -1.258673e+02   2.522359e+02
  -2.248795e+02   1.291478e+02
  -1.373277e+02  -1.071919e+01
   1.566903e+01  -8.068215e+01
   5.913180e+01  -9.812002e+00
  -3.570171e+01   5.926626e+01
  -1.458982e+02   6.075508e+01
  -1.740030e+02  -6.351671e+01
  -5.032372e+01  -1.424332e+02
   4.271883e+01  -1.311748e+02
   9.633703e+01  -2.958294e+01
   4.691887e+01   2.803727e+01
  -2.470177e+01  -1.048893e+01
  -2.597793e+01  -7.135234e+01
   8.141264e+01  -8.466456e+01
   1.519713e+02  -4.825084e+01
   1.738613e+02   8.763720e+01
   2.500445e+01   1.705822e+02
  -1.137114e+02   1.577577e+02
  -1.317988e+02   1.636975e+01
  -5.072078e+01  -6.586893e+01
   3.847210e+01  -6.513622e+01
   5.142605e+01  -1.661601e+01
   1.326930e+01   1.361125e+01
  -2.385127e+01   1.611935e+01
   9.989075e+00  -1.387546e+01
   5.451743e+01  -1.184770e+01
   1.019448e+02   6.805157e+01
   3.127273e+01   1.384253e+02
  -9.346294e+01   1.374755e+02
  -1.666342e+02   2.637576e+01
  -1.638569e+02  -1.183430e+02
  -4.616661e+01  -1.990493e+02
   6.659614e+01  -1.157330e+02
   1.038439e+02  -3.093461e+01
   6.296363e+01   2.875038e+01
   3.242081e+01   2.063343e+01
   3.978798e+01  -1.922600e+01
   6.435928e+01  -1.373468e+01
   4.198319e+01   3.425445e+01
  -2.703633e+01   8.370408e+01
  -7.730208e+01   6.852394e+01
  -8.170084e+01  -2.011968e+01
   1.224100e+00  -8.698623e+01
   1.115585e+02  -6.695553e+01
   1.773671e+02   3.892260e+01
   1.010544e+02   1.654271e+02
  -1.009714e+02   1.611809e+02
  -1.961946e+02   8.578855e+01
  -2.241129e+02  -3.727544e+01
  -7.808540e+01  -1.227428e+02
   7.611505e+00  -1.016439e+02
   5.122661e+01  -7.282401e+01
   6.004104e+01  -5.132283e+01
   4.009601e+01  -6.903598e+01
   6.295490e+01  -7.503973e+01
   1.102944e+02  -8.890035e+00
   9.601505e+01   1.131232e+02
   4.433553e+01   1.624038e+02
  -4.674779e+01   1.405111e+02
  -1.389801e+02   2.281930e+01
  -1.143815e+02  -7.649262e+01
  -2.793737e+01  -1.290166e+02
   4.669405e+01  -6.832533e+01
   4.565636e+01   5.448363e+00
   7.182864e+00   4.173060e+01
  -5.287646e+00   2.914343e+01
   3.019770e+01   4.731851e+00
   5.942732e+01   1.007244e+01
   4.198895e+01   2.761302e+01
  -4.803103e+01   2.978543e+01
  -1.314412e+02   3.381132e+01
  -1.146580e+02  -3.831737e+01
  -5.395436e+00  -7.317209e+01
   8.362983e+01  -8.218858e+01
   1.106899e+02  -7.836847e+00
   3.854771e+01   2.533828e+01
  -4.449426e+01   4.288990e+01
  -6.358702e+01  -1.387971e+01
  -1.446757e+01  -5.596048e+01
   3.019771e+01  -4.611697e+01
   5.457900e+01  -5.705423e+00
   5.442228e+01   3.021325e+01
   4.480170e+01   3.563928e+01
   4.418921e+01   2.193142e+00
   4.603112e+01  -9.786108e+00
   3.455319e+01   4.252273e+01
  -1.756384e+01   1.105249e+02
  -8.557952e+01   1.191580e+02
  -1.366324e+02   4.932677e+01
  -1.293021e+02  -5.381536e+01
  -1.560338e+01  -8.974238e+01
   7.475659e+01  -5.521087e+01
   4.876049e+01   5.423065e+00
  -4.792886e+01   2.109605e+01
  -1.127555e+02  -2.165234e+01
  -6.974904e+01  -7.109351e+01
   4.636907e+01  -1.076815e+02
   1.461484e+02  -7.265133e+01
   1.371005e+02   2.230796e+00
   3.199091e+01   6.732743e+01
  -4.389562e+01   5.237425e+01
  -4.675802e+01   9.181542e+00
   2.794598e+01  -2.585025e+01
   6.996051e+01   4.117341e+00
   3.173054e+01   8.764393e+01
  -4.685941e+01   1.468613e+02
  -1.173471e+02   5.689578e+01
  -8.979225e+01  -6.083301e+01
  -3.658302e+01  -1.619796e+02
   6.010801e+01  -1.465528e+02
   8.461520e+01   5.836920e+00
   6.709762e+01   9.598439e+01
  -9.913369e+00   6.774824e+01
  -3.732723e+01   1.820283e+01
  -3.882941e+01  -1.944217e+01
  -1.621856e+01  -6.520923e+00
  -5.007750e-02   1.753688e+01
  -2.112935e+01  -7.051348e+00
  -4.914770e+01  -6.965258e+01
  -3.486993e+01  -8.704966e+01
   3.893596e+01  -4.158684e+01
   1.024242e+02   8.861546e+00
   9.289468e+01   5.643235e+01
   2.495536e+01   4.341176e+01
  -5.986936e+01   3.061508e+01
  -6.278963e+01   8.111941e+00
  -8.660043e+00  -8.564256e+00
   2.248014e+01  -2.062655e+01
   8.357319e+00  -1.548759e+01
  -1.526075e+01   6.005801e+00
   3.595905e+00   4.979927e+00
   5.376440e+01  -4.410943e-01
   7.137289e+01   1.649773e+00
   1.773871e+01   6.537718e+01
  -7.898150e+01   8.611821e+01
  -1.466530e+02   7.039010e+01
  -1.443417e+02  -3.953713e+01
  -2.361701e+01  -9.430512e+01
   5.529530e+01  -1.284140e+02
   9.917906e+01  -5.502708e+01
   5.431313e+01   8.661957e+00
   2.458282e+01   2.715322e+01
   1.176580e+00   9.360911e+00
   9.230815e+00   2.885718e+00
   2.992123e+01   3.250386e+01
   1.259869e+01   6.265773e+01
  -8.817538e+00   6.435181e+01
  -5.938395e+01  -3.797903e+00
  -7.482927e+01  -7.277713e+01
  -1.690471e+01  -8.046144e+01
   5.784836e+01  -2.621039e+01
   8.658516e+01   2.966176e+01
   3.911205e+01   7.202013e+01
  -4.308519e+01   6.380407e+01
  -7.910703e+01   2.314311e+00
  -3.463304e+01  -4.400672e+01
   2.221569e+01  -5.146692e+01
   2.695624e+01  -2.061159e+01
  -1.620954e+01   3.751144e+00
  -5.230428e+01   2.390673e+01
  -1.799623e+01  -1.984482e+01
   6.205480e+01  -5.437124e+01
   9.615400e+01  -4.949920e+01
   5.088925e+01   7.627500e+00
   2.896779e+00   6.837570e+01
  -3.685463e+01   7.641148e+01
  -3.340489e+01   1.185388e+01
  -1.319620e+01  -4.653721e+01
   1.102738e+01  -3.663868e+01
   3.082451e+01   1.008725e+01
   2.267941e+01   4.441232e+01
   5.159386e+00   2.608113e+01
  -2.759935e+01  -6.986671e-01
  -2.956011e+01  -1.578635e+01
  -1.576800e+01   1.863421e+00
   3.174330e+00   1.360799e+01
   7.472012e+00   3.114372e+00
  -4.702944e+00  -2.579166e+01
  -2.820658e+00  -3.987821e+01
   2.535387e+01  -1.420864e+01
   3.466363e+01   2.659931e+01
   4.911237e+00   4.878947e+01
  -3.011098e+01   2.070409e+01
  -5.645395e+01  -2.608296e+01
  -1.472967e+01  -5.007771e+01
   4.091885e+01  -3.702199e+01
   7.659875e+01  -1.552503e+01
   3.429484e+01   3.182005e+01
  -2.418234e+01   3.436498e+01
  -5.414206e+01   3.030382e+01
  -2.277805e+01   7.564808e+00
   2.398393e+01  -2.336659e+00
   3.348628e+01   5.665094e+00
  -1.414402e+01   2.007146e+01
  -6.357830e+01   1.938594e+01
