
 $NMID
 id='ANONYMOUS ', fmtdat='(2E16.6)'
 volume=1.0
 tramp=1.0
 $END
   3.796943e+03   4.970471e+00
   2.278270e+03   2.450939e+03
  -6.634608e+02   1.970168e+03
  -2.009843e+03   1.209460e+03
  -8.442637e+02  -6.614715e+02
   8.022626e+02  -6.616131e+02
   8.442716e+02   4.778494e+02
   9.212942e+01   1.206778e+03
  -7.546673e+02   9.621249e+02
  -8.772626e+02   1.864160e+01
  -3.469190e+02  -7.027647e+02
   3.777254e+02  -6.902237e+02
   6.001407e+02  -6.713820e+01
   4.720459e+02   7.389305e+02
  -2.109108e+02   7.272137e+02
  -5.177635e+02  -7.307367e+01
  -1.912594e+02  -6.259815e+02
   2.525271e+02  -5.774582e+02
   5.844367e+02  -8.813943e+01
   3.732427e+02   2.947975e+02
  -4.219784e+01   4.029081e+02
  -2.518546e+02   2.578947e+02
  -1.794750e+02   5.702358e+00
   1.262707e+02  -1.685330e+02
   4.359539e+02   1.090269e+02
   1.580353e+02   4.326688e+02
  -4.922810e+02   3.488247e+02
  -8.135225e+02  -7.671578e+01
  -4.389985e+02  -5.205774e+02
   3.326343e+02  -4.590450e+02
   7.533897e+02  -2.838208e+01
   2.706093e+02   3.690582e+02
  -2.473604e+02   5.828988e+02
  -5.388392e+02   2.720224e+02
  -4.520739e+02  -1.831909e+02
  -6.118770e+01  -4.660634e+02
   1.488539e+02  -2.578379e+02
   1.864903e+02   2.273958e+02
  -1.601761e+02   4.582178e+02
  -4.035544e+02  -4.624607e+01
  -3.616745e+02  -7.185149e+02
   2.865293e+02  -7.632973e+02
   5.783155e+02  -5.260775e+01
   3.079832e+02   6.061136e+02
  -2.654556e+02   2.644894e+02
  -3.511317e+02  -2.781282e+02
   3.959066e+01  -4.989266e+02
   5.489785e+02  -1.520829e+02
   5.478602e+02   4.355443e+02
   1.667216e+02   5.103325e+02
  -3.691297e+02   3.499775e+02
  -5.633009e+02   1.256895e+01
  -4.035234e+02  -3.463284e+02
   1.912647e+02  -3.509704e+02
   4.305208e+02  -7.340982e+01
   2.426610e+02   1.958823e+02
  -1.305705e+02   9.823760e+01
  -1.413294e+02  -1.506113e+02
   1.320758e+02  -2.064220e+02
   3.628933e+02   3.637732e+01
   1.199373e+02   2.763571e+02
  -1.872623e+02   2.767140e+02
  -3.015281e+02   1.374679e+02
  -1.942339e+02  -4.952851e+01
   4.298059e+01  -1.937100e+02
   1.763228e+02  -3.790232e+02
   2.941624e+02  -2.902350e+02
   2.632778e+02   1.030361e+02
   1.037732e+02   4.165679e+02
  -8.679160e+01   3.785460e+02
  -1.031692e+02   9.929916e+01
  -9.050769e+00  -3.053840e+01
  -2.825364e+01   6.106144e+01
  -1.874537e+02   1.795090e+02
  -2.793106e+02  -2.873370e+01
  -1.376220e+02  -2.440987e+02
   6.215094e+01  -2.383382e+02
   2.079830e+02  -3.977613e+01
   1.850017e+02   1.918489e+02
   1.990574e+01   3.229821e+02
  -2.442499e+02   1.327286e+02
  -3.592923e+02  -1.301051e+02
  -1.703500e+02  -3.008221e+02
   7.774824e+01  -3.001957e+02
   2.283015e+02  -1.498347e+02
   1.374526e+02  -1.406929e+01
   7.399718e+01  -4.936143e+01
   1.942714e+02  -1.020031e+02
   3.836828e+02   1.367235e+00
   3.850898e+02   2.169123e+02
  -1.183294e+01   3.753395e+02
  -3.389103e+02   4.146960e+02
  -4.801373e+02   1.524993e+02
  -3.103021e+02  -7.001084e+01
  -3.705044e+01  -2.793746e+02
   1.088748e+02  -2.517320e+02
   5.555078e+01  -9.146575e+00
  -8.977449e+01   9.845023e+01
  -2.021715e+02  -1.432966e+01
  -2.306543e+01  -1.684611e+02
   1.498813e+02  -1.533018e+02
   1.867608e+02   4.015575e+01
  -1.056218e+01   1.802181e+02
  -1.820811e+02   4.343066e+01
  -1.360846e+02  -2.091984e+02
  -7.555815e+00  -3.371706e+02
   2.058180e+02  -2.443481e+02
   3.141640e+02   1.757574e+01
   2.829346e+02   2.115893e+02
   1.277290e+02   2.522651e+02
  -9.294171e+01   1.468167e+02
  -1.528270e+02   1.983383e+01
  -6.615886e+01  -2.404478e+01
   7.668971e+01   2.803108e+01
   4.191671e+01   1.135596e+02
  -1.018745e+02   1.210326e+02
  -1.698013e+02  -6.660224e+00
  -7.620990e+01  -6.956207e+01
   5.992807e+01  -1.683749e+01
   5.496489e+01   6.099943e+01
  -1.195364e+02   8.422103e+01
  -2.594442e+02   4.182258e+01
  -2.575905e+02  -1.029659e+02
  -6.069208e+01  -2.190851e+02
   1.426355e+02  -2.923878e+02
   2.607202e+02  -1.358638e+02
   1.729732e+02   4.690647e+01
  -9.934977e+00   1.150448e+02
  -8.899017e+01   1.521011e+01
   2.329515e+01  -9.445089e+01
   1.915807e+02  -8.823647e+01
   2.144993e+02   6.633908e+01
   6.382920e+01   1.907660e+02
  -7.550759e+01   1.762914e+02
  -1.396035e+02   4.013397e+01
  -7.154499e+01  -2.918918e+01
   3.347673e+01  -8.042585e+00
   3.113076e+01   7.111574e+01
  -4.769242e+01   1.039384e+02
  -2.104898e+02   7.412023e+01
  -1.721644e+02  -7.915573e+01
  -5.535408e+01  -2.055257e+02
   1.507117e+02  -1.710240e+02
   1.787695e+02  -1.433542e+01
   7.080797e+01   1.052808e+02
  -5.642857e+01   1.025946e+02
  -7.837498e+01   3.035128e+01
  -2.096613e+01  -2.397194e+01
   2.005430e+01  -2.294161e+01
  -1.282942e+01  -1.415829e+00
  -6.749835e+01   1.596798e+00
  -8.585609e+01  -5.025488e+01
  -4.490652e+01  -1.424922e+02
   1.089979e+02  -1.738187e+02
   2.399815e+02  -2.978074e+01
   2.094640e+02   1.270551e+02
   4.482411e+01   2.269908e+02
  -8.619516e+01   1.564212e+02
  -1.345565e+02   3.691417e+01
  -7.923082e+01  -5.117722e+01
  -3.125883e+01  -3.185423e+01
  -4.505511e+01   1.694268e+01
  -7.920996e+01   8.185177e+00
  -3.688288e+01  -4.294223e+01
   2.942346e+01  -8.162367e+01
   8.930374e+01  -7.892479e+01
   7.990171e+01   9.478232e+00
  -4.641190e+00   1.006066e+02
  -1.238007e+02   7.505646e+01
  -2.034242e+02  -6.161381e+00
  -1.260006e+02  -1.833885e+02
   9.098387e+01  -1.870416e+02
   2.497974e+02  -1.021281e+02
   2.264910e+02   5.100085e+01
   1.002337e+02   1.514381e+02
  -2.064738e+01   1.367820e+02
  -8.122430e+01   9.526918e+01
  -7.010254e+01   4.969564e+01
  -4.757672e+01   7.399835e+01
  -8.213384e+01   7.636930e+01
  -1.250600e+02   2.227037e+00
  -1.121895e+02  -1.290856e+02
  -3.122077e+01  -2.096957e+02
   8.164407e+01  -1.669175e+02
   1.679451e+02  -1.298535e+01
   1.422255e+02   9.563382e+01
   2.946580e+01   1.545101e+02
  -5.288098e+01   9.641814e+01
  -5.728344e+01   5.951877e+00
  -2.295211e+01  -3.862257e+01
   3.597367e+00  -3.620116e+01
  -3.802129e+01  -1.088882e+01
  -7.318565e+01  -4.923131e+00
  -4.486920e+01  -2.507937e+01
   6.096788e+01  -3.851814e+01
   1.560774e+02  -3.549027e+01
   1.255441e+02   4.524983e+01
   1.933768e+01   8.799136e+01
  -9.291041e+01   8.152199e+01
  -1.291631e+02   1.068792e+01
  -5.053450e+01  -3.439586e+01
   5.239463e+01  -3.240396e+01
   7.490741e+01   1.090902e+01
   7.164817e+00   5.869507e+01
  -5.780942e+01   4.583228e+01
  -5.530072e+01   1.403699e-01
  -4.630995e+01  -4.510072e+01
  -4.104779e+01  -3.589028e+01
  -5.966611e+01  -2.091613e+00
  -5.986195e+01   6.254739e+00
  -3.437347e+01  -5.509762e+01
   3.150164e+01  -1.123338e+02
   1.086053e+02  -1.460390e+02
   1.447768e+02  -4.201939e+01
   1.388921e+02   7.646552e+01
   1.404928e+01   1.210824e+02
  -5.933526e+01   6.044784e+01
  -5.518859e+01  -4.205325e+00
   5.496659e+01  -2.988996e+01
   1.332008e+02   3.067067e+01
   7.180999e+01   8.327223e+01
  -6.074056e+01   1.185490e+02
  -1.771752e+02   6.661364e+01
  -1.687385e+02  -1.099929e+01
  -3.488149e+01  -7.382886e+01
   5.118855e+01  -7.189872e+01
   4.619593e+01  -1.349291e+01
  -3.470908e+01   2.862053e+01
  -8.419320e+01  -1.216063e+01
  -3.035398e+01  -1.120837e+02
   5.566256e+01  -1.604731e+02
   1.369335e+02  -7.076223e+01
   1.112109e+02   8.411391e+01
   4.099950e+01   1.805634e+02
  -6.241657e+01   1.396133e+02
  -9.653261e+01   6.225048e+00
  -7.984593e+01  -1.055203e+02
   1.918461e+00  -9.045220e+01
   4.573310e+01  -2.664216e+01
   5.273115e+01   2.519599e+01
   2.124774e+01   8.871445e+00
   2.761648e+00  -1.953721e+01
   2.321439e+01   1.035179e+01
   4.538206e+01   7.484305e+01
   4.963645e+01   1.097356e+02
  -3.782648e+01   4.515095e+01
  -1.215080e+02  -3.181815e+01
  -1.197635e+02  -6.061448e+01
  -2.391992e+01  -4.710555e+01
   7.889626e+01  -3.027925e+01
   8.010656e+01  -1.895158e+00
   6.283638e+00   6.842166e+00
  -3.312716e+01   2.562421e+01
  -1.196999e+01   1.714775e+01
   1.956845e+01  -3.672938e+00
  -4.096024e+00  -8.414895e+00
  -6.850459e+01  -1.100593e+01
  -9.607164e+01  -1.639582e+01
  -1.107220e+01  -7.380271e+01
   1.065972e+02  -1.129757e+02
   1.556117e+02  -7.215126e+01
   1.302400e+02   5.415091e+01
   8.378743e+00   1.294925e+02
  -6.707491e+01   1.309395e+02
  -1.041823e+02   7.293994e+01
  -6.896976e+01  -1.371503e+01
  -2.844941e+01  -2.887157e+01
   3.161931e+00  -6.774298e+00
  -1.132507e+01   1.052901e+00
  -3.084809e+01  -3.591058e+01
  -2.834566e+01  -7.675065e+01
   2.022571e+01  -6.755130e+01
   7.804774e+01   7.809944e+00
   7.693035e+01   9.206521e+01
   4.389264e+00   9.128738e+01
  -6.439673e+01   2.580650e+01
  -1.164923e+02  -5.997521e+01
  -3.356546e+01  -8.382255e+01
   4.936878e+01  -5.611512e+01
   7.785531e+01   8.399471e+00
   4.145100e+01   4.328727e+01
  -1.952117e+01   4.496909e+01
  -2.239921e+01   2.012267e+01
   2.813690e+01  -1.180964e+00
   6.880335e+01  -1.908504e+01
   1.877744e+01   2.109667e+01
  -6.760627e+01   6.047539e+01
  -1.023079e+02   6.642231e+01
  -6.128519e+01  -3.182177e+00
   6.284157e+00  -8.139299e+01
   3.609419e+01  -7.512633e+01
   3.209768e+01  -8.758359e+00
   1.003169e+01   5.462741e+01
  -2.368214e+01   3.875170e+01
  -3.678267e+01  -1.639562e+01
  -3.306395e+01  -4.564004e+01
  -7.121511e-02  -2.584674e+01
   2.838581e+01   5.018802e+00
   3.179882e+01   1.874011e+01
   2.143783e+01  -2.623939e+00
  -1.361580e+00  -1.197631e+01
  -8.378986e+00   3.890425e+00
  -2.060611e+00   3.547606e+01
  -7.867605e+00   3.423398e+01
  -2.630336e+01   3.474318e+00
  -2.789816e+01  -3.849998e+01
   4.831908e+00  -4.997884e+01
   3.903598e+01  -2.352853e+01
   4.965450e+01   3.457572e+01
   1.819515e+01   5.045886e+01
  -4.507118e+01   3.569885e+01
  -8.514799e+01   6.869641e+00
  -4.059806e+01  -3.370879e+01
   2.295378e+01  -3.954255e+01
   5.683730e+01  -2.588971e+01
   2.137362e+01  -8.921594e+00
  -3.252842e+01  -2.813964e+00
  -3.831389e+01  -1.012228e+01
   2.957296e+01  -2.565586e+01
   8.303591e+01  -2.302063e+01
