
 $NMID
 id='ANONYMOUS ', fmtdat='(2E16.6)'
 volume=1.0
 tramp=1.0
 $END
  -4.251328e+03  -5.590361e+01
  -2.162189e+03  -2.913519e+03
   5.786308e+02  -2.323830e+03
   2.083854e+03  -1.252792e+03
   8.911075e+02   5.879082e+02
  -7.599013e+02   7.027531e+02
  -9.976767e+02  -4.410714e+02
  -8.845933e+01  -1.180204e+03
   7.508372e+02  -9.240940e+02
   9.982543e+02   2.645275e+01
   4.513210e+02   7.858091e+02
  -3.267360e+02   8.014569e+02
  -6.829561e+02   7.784551e+01
  -4.553005e+02  -7.923610e+02
   2.379460e+02  -7.690896e+02
   5.234811e+02  -9.002993e+00
   2.519486e+02   6.425120e+02
  -2.764103e+02   5.903424e+02
  -6.643267e+02   1.367624e+02
  -4.219533e+02  -3.137167e+02
  -7.425646e+00  -4.376840e+02
   2.561822e+02  -2.788282e+02
   2.011766e+02  -8.209740e+00
  -1.380432e+02   1.502351e+02
  -4.716693e+02  -8.892997e+01
  -1.799376e+02  -4.104885e+02
   4.790054e+02  -3.768359e+02
   8.535062e+02   1.190757e+02
   5.044709e+02   4.640362e+02
  -4.088668e+02   4.858241e+02
  -8.163036e+02   1.346148e+02
  -3.214958e+02  -4.447656e+02
   2.528829e+02  -5.562861e+02
   6.342461e+02  -2.673601e+02
   4.716780e+02   1.642451e+02
   5.878396e+01   4.936548e+02
  -1.390133e+02   2.832531e+02
  -2.066041e+02  -2.271540e+02
   1.344936e+02  -4.713668e+02
   4.149529e+02  -4.870264e+00
   3.975745e+02   8.061772e+02
  -3.218975e+02   7.809427e+02
  -6.191519e+02   1.226987e+02
  -2.545067e+02  -5.665163e+02
   2.998833e+02  -2.824990e+02
   3.447880e+02   2.677506e+02
  -3.856672e+01   5.121740e+02
  -5.163761e+02   1.282441e+02
  -5.892029e+02  -3.722309e+02
  -1.482977e+02  -5.564937e+02
   3.620524e+02  -3.916335e+02
   6.221886e+02   3.130870e+01
   4.185525e+02   3.708289e+02
  -1.640542e+02   3.851527e+02
  -4.521070e+02   6.583474e+01
  -2.520385e+02  -2.017870e+02
   1.439863e+02  -9.802119e+01
   1.566087e+02   1.517311e+02
  -1.688666e+02   2.139843e+02
  -3.986591e+02  -2.532605e+01
  -1.564092e+02  -2.817884e+02
   1.804427e+02  -2.974040e+02
   3.248491e+02  -1.362597e+02
   2.016503e+02   2.108110e+01
  -6.086159e+01   2.086338e+02
  -2.011397e+02   3.850457e+02
  -3.594125e+02   3.360947e+02
  -2.848597e+02  -1.121716e+02
  -1.021284e+02  -4.400425e+02
   5.698870e+01  -4.188956e+02
   1.179135e+02  -1.030455e+02
   2.437610e+01   1.722840e+01
   3.492539e+00  -7.223435e+01
   1.747671e+02  -1.451150e+02
   3.014884e+02   7.982183e+00
   1.644848e+02   2.677684e+02
  -5.773902e+01   2.743693e+02
  -2.368931e+02   6.472742e+01
  -1.743488e+02  -2.429695e+02
  -3.408591e+01  -3.114461e+02
   2.586144e+02  -1.316738e+02
   3.581935e+02   1.172541e+02
   1.990625e+02   3.154520e+02
  -8.087910e+01   3.281856e+02
  -2.361422e+02   1.484510e+02
  -1.527816e+02  -3.010777e+00
  -7.700663e+01   5.357303e+01
  -1.995221e+02   1.024819e+02
  -4.253614e+02   1.738041e+01
  -4.070095e+02  -2.252761e+02
   1.843533e+01  -3.920823e+02
   3.431247e+02  -3.794023e+02
   4.637107e+02  -1.462900e+02
   3.366954e+02   5.442916e+01
   4.277016e+01   2.889421e+02
  -1.064745e+02   2.659612e+02
  -7.348733e+01   2.250789e+01
   1.017835e+02  -1.213138e+02
   2.093367e+02   2.996078e+01
   3.293233e+01   1.758032e+02
  -1.528269e+02   1.383109e+02
  -1.996202e+02  -5.111698e+01
   3.118019e+01  -2.011065e+02
   1.896834e+02  -5.969835e+01
   1.503640e+02   2.486300e+02
   3.877488e+00   3.937826e+02
  -1.963819e+02   2.528877e+02
  -3.193194e+02  -2.044826e+01
  -2.582872e+02  -1.958972e+02
  -1.356140e+02  -2.767516e+02
   8.876022e+01  -1.569663e+02
   1.708257e+02  -2.824379e+01
   6.832619e+01   2.622740e+01
  -7.176479e+01  -3.874719e+01
  -4.954342e+01  -1.287155e+02
   1.253732e+02  -1.173081e+02
   1.727616e+02   2.527392e+01
   8.518473e+01   7.593435e+01
  -5.853502e+01   1.957852e+01
  -5.686289e+01  -6.435147e+01
   1.316469e+02  -7.542992e+01
   2.672644e+02  -1.447166e+01
   2.551199e+02   9.275107e+01
   7.591926e+01   2.269779e+02
  -1.669427e+02   2.875160e+02
  -2.639505e+02   1.490162e+02
  -1.714115e+02  -2.769185e+01
   1.239945e+01  -1.210948e+02
   9.604142e+01  -1.669563e+01
  -2.517562e+01   9.732744e+01
  -1.975101e+02   7.918070e+01
  -2.183580e+02  -8.165840e+01
  -6.472803e+01  -1.763686e+02
   7.805809e+01  -1.921772e+02
   1.502272e+02  -3.763975e+01
   7.322750e+01   3.898125e+01
  -3.318302e+01   8.080613e+00
  -4.954279e+01  -7.495264e+01
   5.521429e+01  -1.077863e+02
   2.134123e+02  -6.800462e+01
   2.062526e+02   9.143939e+01
   6.008169e+01   2.151987e+02
  -1.476995e+02   1.936314e+02
  -1.903901e+02   1.327219e+01
  -6.920063e+01  -1.067656e+02
   6.261267e+01  -1.051104e+02
   8.057534e+01  -2.921851e+01
   2.196759e+01   2.487765e+01
  -1.490685e+01   1.992626e+01
   1.247910e+01  -4.091525e+00
   7.490729e+01   1.287943e+00
   9.950950e+01   6.816621e+01
   4.164279e+01   1.481508e+02
  -1.165270e+02   1.618724e+02
  -2.355584e+02   2.486696e+01
  -2.211042e+02  -1.328920e+02
  -5.320326e+01  -2.440667e+02
   9.814932e+01  -1.721235e+02
   1.315337e+02  -4.099673e+01
   8.240477e+01   5.061030e+01
   3.016101e+01   3.432730e+01
   5.032613e+01  -1.956078e+01
   7.883278e+01  -5.857339e+00
   4.500463e+01   3.819090e+01
  -3.446175e+01   8.718622e+01
  -9.487991e+01   7.183161e+01
  -8.933347e+01  -1.019245e+01
   6.597666e+00  -1.009107e+02
   1.171823e+02  -8.948559e+01
   2.099861e+02  -2.648754e+00
   1.287700e+02   1.926479e+02
  -1.012135e+02   2.112292e+02
  -2.587951e+02   1.138718e+02
  -2.521597e+02  -5.251104e+01
  -8.654648e+01  -1.502913e+02
   2.252947e+01  -1.446768e+02
   9.549580e+01  -1.073618e+02
   7.517235e+01  -6.360395e+01
   6.152570e+01  -8.640784e+01
   7.990385e+01  -8.363149e+01
   1.209838e+02   9.440233e+00
   1.072397e+02   1.501003e+02
   1.868265e+01   2.265605e+02
  -7.182902e+01   1.800075e+02
  -1.802360e+02   2.230298e+01
  -1.328124e+02  -9.830647e+01
  -2.294599e+01  -1.493469e+02
   6.018757e+01  -1.013805e+02
   5.726762e+01  -4.821911e-02
   1.591691e+01   4.527175e+01
  -9.786135e+00   4.179240e+01
   4.014863e+01   1.279537e+01
   7.744421e+01   1.888160e+01
   4.219575e+01   2.709441e+01
  -5.709218e+01   3.562631e+01
  -1.638284e+02   2.964345e+01
  -1.363031e+02  -3.400680e+01
  -1.875957e+01  -8.726325e+01
   1.067904e+02  -8.638367e+01
   1.324349e+02  -1.190410e+01
   4.824195e+01   3.992691e+01
  -5.176541e+01   4.243917e+01
  -7.388762e+01  -1.301010e+01
  -6.565981e+00  -6.396794e+01
   5.166532e+01  -5.183689e+01
   5.455567e+01   1.284671e+00
   4.556976e+01   4.361356e+01
   4.936232e+01   3.312477e+01
   6.313782e+01  -1.465866e+00
   6.176778e+01  -5.462551e+00
   3.795015e+01   5.305713e+01
  -3.498514e+01   1.102208e+02
  -1.073165e+02   1.464519e+02
  -1.509729e+02   3.090395e+01
  -1.455400e+02  -6.733137e+01
  -1.837225e+01  -1.314351e+02
   6.802578e+01  -6.702402e+01
   5.523932e+01   2.987391e+00
  -5.732438e+01   2.622477e+01
  -1.372886e+02  -3.790247e+01
  -7.521930e+01  -9.415128e+01
   7.244940e+01  -1.264079e+02
   1.840547e+02  -5.402271e+01
   1.723028e+02   1.504769e+01
   3.381167e+01   7.311625e+01
  -5.397536e+01   6.985711e+01
  -4.921348e+01   1.368196e+01
   3.927614e+01  -2.473740e+01
   9.070998e+01   7.725785e+00
   3.692605e+01   1.157886e+02
  -6.591428e+01   1.589994e+02
  -1.406898e+02   7.901621e+01
  -1.270653e+02  -9.859988e+01
  -3.491222e+01  -1.987861e+02
   7.161995e+01  -1.453085e+02
   1.018093e+02  -1.342570e+01
   7.655124e+01   1.112056e+02
  -6.526363e+00   9.883972e+01
  -4.739095e+01   2.472791e+01
  -5.617932e+01  -3.051363e+01
  -2.511081e+01  -8.880895e+00
  -3.085886e+00   1.891744e+01
  -2.391017e+01  -1.067137e+01
  -4.959226e+01  -8.422950e+01
  -5.640947e+01  -1.067636e+02
   3.998445e+01  -5.143199e+01
   1.253082e+02   2.959693e+01
   1.160588e+02   6.077111e+01
   2.416275e+01   4.910539e+01
  -7.861532e+01   2.312270e+01
  -9.002726e+01   4.840373e-01
  -7.902403e+00  -8.535829e+00
   3.702677e+01  -2.526614e+01
   1.326499e+01  -1.864991e+01
  -2.102300e+01   2.482326e+00
   4.455900e+00   8.334044e+00
   6.209395e+01   2.868936e+00
   9.867671e+01   1.400102e+01
   1.237099e+01   7.899565e+01
  -1.138362e+02   1.186483e+02
  -1.704449e+02   9.585540e+01
  -1.328550e+02  -4.202081e+01
  -3.003979e+01  -1.465688e+02
   7.428038e+01  -1.319141e+02
   1.090854e+02  -7.015995e+01
   7.596172e+01   1.767964e+01
   2.926883e+01   3.117085e+01
  -2.228084e+00   7.603598e+00
   1.117094e+01   6.582591e-01
   2.974208e+01   3.572438e+01
   2.786778e+01   7.734218e+01
  -2.333198e+01   7.702594e+01
  -8.679113e+01  -5.491377e+00
  -7.923658e+01  -9.695979e+01
   2.976425e-01  -9.818903e+01
   7.939489e+01  -2.899799e+01
   1.109555e+02   6.373457e+01
   3.367425e+01   8.384911e+01
  -5.282274e+01   6.273484e+01
  -8.958506e+01  -9.417333e+00
  -4.421511e+01  -4.356461e+01
   2.116830e+01  -4.945499e+01
   2.481107e+01  -2.343990e+01
  -3.191899e+01   3.269091e+00
  -7.117158e+01   1.586229e+01
  -1.936517e+01  -2.257586e+01
   7.281185e+01  -6.108723e+01
   1.010593e+02  -6.232449e+01
   6.416943e+01   6.142158e+00
  -1.496640e+00   7.919417e+01
  -4.154289e+01   8.082418e+01
  -3.125451e+01   6.936898e+00
  -1.067545e+01  -5.757156e+01
   2.179659e+01  -4.009816e+01
   3.710879e+01   1.593661e+01
   3.696593e+01   5.425577e+01
   1.687527e+00   2.812946e+01
  -3.277926e+01  -6.894513e+00
  -3.339724e+01  -2.154529e+01
  -2.356111e+01   2.886728e+00
  -5.122319e-01   1.277828e+01
   7.996751e+00  -5.609623e+00
   3.336238e+00  -3.959860e+01
   9.902130e+00  -3.494626e+01
   2.740261e+01  -6.234138e+00
   2.444638e+01   4.142838e+01
  -5.632312e+00   5.300894e+01
  -4.151480e+01   2.580690e+01
  -5.707729e+01  -3.554592e+01
  -1.317742e+01  -5.622168e+01
   5.085650e+01  -3.584427e+01
   8.631002e+01  -2.269115e+00
   4.532884e+01   4.024839e+01
  -2.736661e+01   3.767948e+01
  -6.051483e+01   2.575842e+01
  -2.268041e+01   1.009450e+01
   3.761642e+01   3.041645e+00
   3.767536e+01   1.305336e+01
  -3.241970e+01   3.185600e+01
  -8.532067e+01   1.966582e+01
