
 $NMID
 id='ANONYMOUS ', fmtdat='(2E16.6)'
 volume=1.0
 tramp=1.0
 $END
  -4.363538e+03   1.922127e+02
  -2.579076e+03  -2.430536e+03
   8.592646e+02  -2.623695e+03
   2.062433e+03  -1.241507e+03
   9.927137e+02   6.231131e+02
  -6.859521e+02   6.483168e+02
  -9.818837e+02  -2.412870e+02
  -1.274408e+02  -1.111299e+03
   7.302723e+02  -9.112830e+02
   1.047785e+03   4.480000e+01
   4.467322e+02   8.815756e+02
  -2.174982e+02   8.254183e+02
  -6.069036e+02   1.395840e+02
  -4.767062e+02  -7.388147e+02
   1.941744e+02  -8.788054e+02
   5.640350e+02  -1.454197e+01
   2.766481e+02   6.139913e+02
  -2.662834e+02   7.033588e+02
  -6.917633e+02   1.592296e+02
  -4.313998e+02  -2.725192e+02
  -6.071881e+01  -4.545760e+02
   2.283056e+02  -3.224370e+02
   2.086952e+02  -1.374724e+01
  -1.363736e+02   1.123987e+02
  -4.121260e+02  -1.106898e+02
  -1.951239e+02  -4.508096e+02
   4.848131e+02  -3.494472e+02
   8.403675e+02   1.157209e+02
   5.026743e+02   4.810426e+02
  -3.798581e+02   4.632519e+02
  -7.758062e+02  -1.943493e+01
  -3.395953e+02  -4.239400e+02
   2.343785e+02  -5.765091e+02
   6.140078e+02  -2.242478e+02
   4.522830e+02   2.147761e+02
   1.370273e+02   4.697261e+02
  -1.690699e+02   2.796603e+02
  -1.948014e+02  -1.727933e+02
   1.630460e+02  -4.771652e+02
   4.806395e+02   1.686017e+01
   3.245505e+02   7.555537e+02
  -2.814415e+02   8.856199e+02
  -6.784715e+02   7.478474e+00
  -3.579722e+02  -5.689341e+02
   2.737232e+02  -3.029196e+02
   3.918907e+02   3.327464e+02
  -2.668874e+01   5.249982e+02
  -5.236690e+02   1.718853e+02
  -5.880017e+02  -4.128980e+02
  -2.281654e+02  -5.645670e+02
   3.386429e+02  -4.117206e+02
   6.571568e+02   6.453033e+01
   4.316722e+02   3.517399e+02
  -1.134421e+02   3.594542e+02
  -4.472338e+02   1.053853e+02
  -2.509369e+02  -1.789587e+02
   1.452773e+02  -8.353711e+01
   1.781999e+02   1.284686e+02
  -1.830706e+02   2.005091e+02
  -4.039558e+02  -4.174897e+01
  -1.614889e+02  -2.819059e+02
   1.858214e+02  -2.926645e+02
   3.442338e+02  -1.164871e+02
   1.910917e+02   6.003121e+01
  -4.382614e+01   2.761251e+02
  -1.486354e+02   4.078719e+02
  -3.153200e+02   2.831472e+02
  -2.972173e+02  -1.335143e+02
  -1.321843e+02  -4.244599e+02
   6.605383e+01  -4.688544e+02
   1.114189e+02  -1.261184e+02
   1.947737e+01  -7.534119e+00
   3.424966e+01  -9.090528e+01
   2.027967e+02  -1.310703e+02
   3.193589e+02   2.110707e+01
   1.716078e+02   2.674901e+02
  -4.260663e+01   2.737792e+02
  -2.367823e+02   4.333293e+01
  -1.817381e+02  -2.470397e+02
  -2.959165e+01  -3.280578e+02
   2.743740e+02  -1.266718e+02
   4.114944e+02   1.294031e+02
   1.957545e+02   3.008849e+02
  -6.955099e+01   3.244553e+02
  -2.280103e+02   1.751837e+02
  -1.611149e+02   3.432885e+01
  -9.992384e+01   5.537260e+01
  -2.402836e+02   8.756637e+01
  -4.368587e+02  -3.026012e+01
  -4.119435e+02  -2.774299e+02
  -6.166536e+01  -4.026555e+02
   4.009317e+02  -4.291146e+02
   4.857376e+02  -2.018014e+02
   3.456453e+02   7.070684e+01
   6.434568e+01   2.801182e+02
  -9.538905e+01   2.651354e+02
  -7.613453e+01   1.341346e+01
   1.012597e+02  -1.131473e+02
   1.868053e+02   2.155467e+01
   3.989559e+01   1.962868e+02
  -1.599232e+02   1.660308e+02
  -1.954778e+02  -4.659898e+01
   2.552611e+01  -1.971313e+02
   1.875437e+02  -3.146322e+01
   1.389221e+02   2.518026e+02
   1.041713e+00   3.965107e+02
  -1.857283e+02   2.547605e+02
  -3.063468e+02  -3.496272e+01
  -3.087578e+02  -2.222935e+02
  -1.405540e+02  -2.841389e+02
   8.854162e+01  -1.788757e+02
   1.722827e+02  -2.714073e+01
   6.827647e+01   2.933060e+01
  -7.506716e+01  -3.150150e+01
  -3.540538e+01  -1.274894e+02
   1.266893e+02  -9.886668e+01
   1.755977e+02   1.308513e+01
   7.251311e+01   7.671597e+01
  -7.116675e+01   2.247282e+01
  -6.398452e+01  -6.192584e+01
   1.185082e+02  -7.112516e+01
   2.551286e+02  -3.966686e+01
   2.773665e+02   9.472460e+01
   6.806994e+01   2.427805e+02
  -1.546382e+02   3.063305e+02
  -2.778856e+02   1.567121e+02
  -1.805796e+02  -3.420511e+01
   1.129865e+01  -1.286832e+02
   1.015142e+02  -2.594042e+01
  -3.135852e+01   1.085177e+02
  -2.217230e+02   9.344315e+01
  -2.556022e+02  -6.828395e+01
  -6.675285e+01  -2.123123e+02
   8.237222e+01  -1.939115e+02
   1.575576e+02  -4.124006e+01
   7.686926e+01   4.417667e+01
  -3.307806e+01   4.468311e+00
  -5.425274e+01  -7.519942e+01
   6.344268e+01  -1.154878e+02
   2.072074e+02  -6.847554e+01
   2.019546e+02   9.545549e+01
   6.048857e+01   2.245214e+02
  -1.694874e+02   2.350773e+02
  -2.017181e+02   2.408121e+01
  -7.625376e+01  -1.176273e+02
   6.301912e+01  -1.122995e+02
   8.669436e+01  -2.742561e+01
   2.261828e+01   2.750929e+01
  -2.671488e+01   2.396694e+01
   9.602371e+00  -1.016464e+01
   8.129742e+01  -6.996399e+00
   1.130530e+02   7.174048e+01
   4.015285e+01   1.708416e+02
  -1.169115e+02   1.653498e+02
  -2.575125e+02   1.332066e+01
  -2.140419e+02  -1.216649e+02
  -6.509981e+01  -2.527909e+02
   9.127629e+01  -1.812955e+02
   1.417660e+02  -4.662424e+01
   8.146920e+01   4.993044e+01
   3.446559e+01   3.293383e+01
   5.390883e+01  -2.350686e+01
   9.009229e+01  -1.141763e+01
   4.476014e+01   4.528008e+01
  -4.823499e+01   7.517532e+01
  -1.124871e+02   6.918207e+01
  -9.388986e+01  -2.520903e+01
  -1.848605e+01  -1.173522e+02
   1.386796e+02  -1.061764e+02
   2.142572e+02   4.077168e+01
   1.386626e+02   2.015736e+02
  -8.667334e+01   2.245167e+02
  -2.482673e+02   1.438999e+02
  -2.396098e+02  -7.292278e+01
  -1.166927e+02  -1.785246e+02
   1.805262e+01  -1.563834e+02
   9.353763e+01  -1.150527e+02
   7.433717e+01  -6.877530e+01
   5.560524e+01  -9.898559e+01
   8.230063e+01  -8.063207e+01
   1.260711e+02   5.696239e-01
   1.081583e+02   1.657926e+02
   3.510473e+01   2.172930e+02
  -7.870357e+01   2.088390e+02
  -1.790844e+02   3.066876e+01
  -1.497169e+02  -9.439235e+01
  -3.008953e+01  -1.731848e+02
   6.339882e+01  -1.079876e+02
   6.548678e+01   5.243915e+00
   1.610789e+01   4.382250e+01
  -1.494487e+01   3.195918e+01
   4.089591e+01   1.554216e+01
   7.037316e+01   2.214519e+01
   4.933821e+01   3.389701e+01
  -6.360903e+01   3.352763e+01
  -1.617574e+02   2.588147e+01
  -1.524561e+02  -3.549647e+01
  -2.086579e+01  -9.313398e+01
   1.178917e+02  -8.260933e+01
   1.329617e+02  -1.135136e+01
   4.843558e+01   3.954716e+01
  -5.999047e+01   3.918982e+01
  -7.644859e+01  -1.830907e+01
  -2.160701e+01  -6.684236e+01
   4.616271e+01  -6.233700e+01
   5.835863e+01  -5.549853e+00
   4.977812e+01   4.750557e+01
   4.688085e+01   4.005407e+01
   6.793701e+01  -4.465985e-02
   6.961301e+01  -4.318035e+00
   3.082661e+01   5.500875e+01
  -2.214471e+01   1.199427e+02
  -1.259104e+02   1.434579e+02
  -1.637645e+02   4.288445e+01
  -1.460220e+02  -6.269175e+01
  -1.801055e+01  -1.357233e+02
   7.820965e+01  -7.099998e+01
   6.427619e+01   8.190446e+00
  -5.829886e+01   2.929280e+01
  -1.464656e+02  -3.273867e+01
  -7.963883e+01  -9.988196e+01
   7.955205e+01  -1.370747e+02
   2.175605e+02  -5.764996e+01
   1.749535e+02   2.408404e-02
   4.066394e+01   8.309329e+01
  -5.060754e+01   7.083775e+01
  -4.766469e+01   1.403876e+01
   4.196053e+01  -2.881930e+01
   8.719530e+01   1.334134e+01
   4.056483e+01   1.307795e+02
  -7.528903e+01   1.685500e+02
  -1.558559e+02   6.972075e+01
  -1.260773e+02  -1.010726e+02
  -2.484604e+01  -2.157287e+02
   5.334573e+01  -1.604940e+02
   1.060776e+02  -2.230873e+00
   8.977695e+01   1.213669e+02
   5.044266e+00   1.082599e+02
  -4.168040e+01   3.130004e+01
  -5.676885e+01  -2.308352e+01
  -2.572057e+01  -8.129676e+00
  -3.445049e+00   1.938185e+01
  -2.162093e+01  -1.651760e+01
  -5.560517e+01  -8.487214e+01
  -6.131684e+01  -1.070923e+02
   4.752078e+01  -6.465524e+01
   1.415339e+02   2.572125e+01
   1.275058e+02   6.254212e+01
   3.070969e+01   4.930512e+01
  -8.323596e+01   3.064371e+01
  -8.985386e+01   9.772242e+00
  -1.250620e+01  -5.699847e+00
   3.781568e+01  -2.001212e+01
   1.473638e+01  -1.815674e+01
  -2.298697e+01   4.849796e+00
   5.556711e+00   8.249096e+00
   7.075435e+01   1.895164e-01
   9.804563e+01   2.016142e+01
   1.260650e+01   8.138068e+01
  -1.216749e+02   1.167240e+02
  -1.792691e+02   8.367685e+01
  -1.683978e+02  -4.143873e+01
  -3.101826e+01  -1.684699e+02
   7.290770e+01  -1.466660e+02
   1.214901e+02  -7.491728e+01
   7.493981e+01   1.607188e+01
   3.320171e+01   3.215022e+01
  -2.434569e-01   7.944821e+00
   1.084805e+01   3.183546e+00
   4.273232e+01   3.873679e+01
   3.114528e+01   8.779842e+01
  -2.572068e+01   7.801665e+01
  -8.771238e+01  -2.992761e+00
  -8.929706e+01  -1.044231e+02
  -1.674849e+01  -1.091123e+02
   7.271383e+01  -2.888815e+01
   1.146978e+02   6.790390e+01
   3.162780e+01   9.375111e+01
  -4.889265e+01   6.552586e+01
  -9.885460e+01  -1.854297e-01
  -5.109865e+01  -4.709188e+01
   1.805178e+01  -5.692056e+01
   3.017354e+01  -2.892981e+01
  -3.396521e+01   3.712173e+00
  -8.079765e+01   2.005543e+01
  -1.988267e+01  -2.190959e+01
   6.571850e+01  -6.977160e+01
   1.044564e+02  -6.221330e+01
   6.715345e+01   3.566571e+00
  -3.974892e+00   8.722453e+01
  -3.823608e+01   8.677402e+01
  -3.159702e+01   7.667602e+00
  -1.053056e+01  -5.859202e+01
   2.044440e+01  -5.066232e+01
   4.341482e+01   1.488203e+01
   3.391642e+01   5.562845e+01
  -1.629204e-04   3.561309e+01
  -3.438781e+01  -2.714296e+00
  -3.989145e+01  -2.059861e+01
  -2.113355e+01   2.944508e-01
   4.324306e+00   1.546592e+01
   8.928062e+00  -4.051698e+00
   3.757744e+00  -3.802351e+01
   1.251934e+01  -3.798250e+01
   3.037026e+01  -8.615428e+00
   3.074367e+01   4.101594e+01
  -1.554342e+00   5.935110e+01
  -4.912112e+01   2.616650e+01
  -6.066926e+01  -2.753299e+01
  -1.155229e+01  -5.535031e+01
   5.348584e+01  -4.477915e+01
   1.054426e+02   8.195079e+00
   5.303834e+01   4.278873e+01
  -2.582753e+01   3.939235e+01
  -6.072666e+01   2.509535e+01
  -2.161066e+01   5.974746e+00
   3.657635e+01  -2.237517e-01
   4.013503e+01   1.215102e+01
  -2.764302e+01   3.289954e+01
  -8.115914e+01   3.079011e+01
