
 $NMID
 id='ANONYMOUS ', fmtdat='(2E16.6)'
 volume=1.0
 tramp=1.0
 $END
  -3.485602e+03   2.666414e+02
  -1.652505e+03  -1.705750e+03
   3.480022e+02  -2.049318e+03
   1.494542e+03  -1.188492e+03
   7.162515e+02   3.369721e+02
  -3.954368e+02   4.951106e+02
  -7.767272e+02  -1.092129e+02
  -1.296953e+02  -8.075430e+02
   4.669768e+02  -7.763584e+02
   7.125834e+02  -3.740003e+01
   4.095357e+02   4.898759e+02
  -5.800826e+01   7.030130e+02
  -4.878523e+02   2.091444e+02
  -2.839292e+02  -5.162773e+02
   8.581587e+01  -7.511532e+02
   4.019181e+02  -3.777783e+01
   2.283258e+02   5.458822e+02
  -1.597224e+02   5.354510e+02
  -4.224355e+02   2.512323e+02
  -4.528575e+02  -2.252184e+02
  -8.163224e+01  -3.836095e+02
   1.368837e+02  -3.039095e+02
   1.501286e+02  -7.609926e+01
  -1.623322e+02   3.791415e+01
  -3.287352e+02  -1.348021e+02
  -1.347987e+02  -2.734393e+02
   3.762178e+02  -1.522463e+02
   6.192915e+02  -9.974869e+00
   3.188790e+02   3.833544e+02
  -3.370796e+02   3.329883e+02
  -6.877367e+02   1.680781e+01
  -3.115039e+02  -3.714891e+02
   1.744017e+02  -4.479482e+02
   4.201906e+02  -2.042283e+02
   3.956117e+02   1.343589e+02
   9.892375e+01   3.288610e+02
  -8.688136e+01   1.847341e+02
  -1.203308e+02  -1.542834e+02
   1.301358e+02  -3.160350e+02
   2.905148e+02   3.324956e+01
   1.840407e+02   4.793689e+02
  -1.480221e+02   5.326846e+02
  -4.639744e+02   3.012170e+01
  -2.557386e+02  -4.247222e+02
   1.825855e+02  -1.862789e+02
   2.556424e+02   2.635191e+02
  -3.213426e+01   3.828846e+02
  -3.755075e+02   1.024656e+02
  -4.983458e+02  -2.690261e+02
  -8.859348e+01  -4.474546e+02
   3.063448e+02  -3.640870e+02
   5.516067e+02  -4.771727e+00
   4.034542e+02   2.779889e+02
  -7.612227e+01   2.757219e+02
  -3.379121e+02   7.915911e+01
  -2.479874e+02  -1.260227e+02
   8.173979e+01  -3.005425e+01
   1.467435e+02   1.124008e+02
  -1.469440e+02   1.280352e+02
  -2.746068e+02  -5.035958e+00
  -1.466325e+02  -2.198108e+02
   1.454804e+02  -2.976678e+02
   2.912704e+02  -1.468797e+02
   1.998841e+02   7.488797e+01
  -4.336257e+01   2.514621e+02
  -1.372742e+02   3.724632e+02
  -2.991138e+02   2.728141e+02
  -2.268922e+02  -1.029845e+02
  -9.961964e+01  -3.641438e+02
  -7.049917e+00  -3.660140e+02
   3.762060e+01  -1.244296e+02
   4.564540e+01  -3.489789e+01
   7.870470e+01  -1.045404e+02
   1.874348e+02  -1.076196e+02
   2.544503e+02   5.568725e+01
   1.243718e+02   1.999804e+02
  -4.131357e+01   2.090741e+02
  -2.223972e+02   3.821499e+01
  -1.312918e+02  -2.104013e+02
  -3.588410e+01  -2.756851e+02
   2.003466e+02  -9.956827e+01
   3.447541e+02   1.454802e+02
   1.731340e+02   2.188466e+02
  -1.862305e+01   2.983176e+02
  -1.594787e+02   1.604723e+02
  -1.468999e+02   3.533371e+01
  -9.603216e+01   6.021301e+01
  -2.447580e+02   5.123775e+01
  -4.070579e+02   2.299791e+00
  -2.892436e+02  -1.894031e+02
  -5.599009e+01  -3.954005e+02
   3.225903e+02  -3.150654e+02
   3.856817e+02  -1.775887e+02
   2.804382e+02   6.372890e+01
   2.188016e+01   2.325165e+02
  -7.823581e+01   2.313167e+02
  -2.331265e+01   2.619194e+01
   9.668130e+01  -6.823312e+01
   1.350796e+02   3.157233e+01
   2.589439e+01   1.143114e+02
  -1.289448e+02   1.086906e+02
  -1.328978e+02  -4.173320e+01
   1.131105e+01  -1.164188e+02
   1.601387e+02  -4.242561e+01
   1.216387e+02   2.050450e+02
   1.520618e+01   3.288912e+02
  -2.147115e+02   2.435867e+02
  -2.810587e+02  -5.209431e+01
  -2.732728e+02  -1.759328e+02
  -1.203098e+02  -2.317491e+02
   9.300732e+01  -1.555095e+02
   1.317287e+02  -2.715665e-01
   4.838290e+01   1.433741e+01
  -6.715927e+01  -2.927642e+01
  -1.693084e+01  -9.910041e+01
   1.068508e+02  -9.098983e+01
   1.507167e+02   2.100378e+01
   5.451659e+01   5.831816e+01
  -7.071094e+01   6.351537e+00
  -4.704816e+01  -7.711074e+01
   1.207479e+02  -8.593337e+01
   2.173290e+02  -4.127768e+01
   2.528190e+02   1.245388e+02
   3.276080e+01   2.240657e+02
  -1.292357e+02   2.426396e+02
  -2.488854e+02   1.165560e+02
  -1.519892e+02  -3.450806e+01
   1.052863e+01  -9.964946e+01
   8.243986e+01  -2.314227e+01
  -4.084839e+01   8.010882e+01
  -1.707444e+02   6.358129e+01
  -2.165326e+02  -5.729558e+01
  -5.745490e+01  -1.691896e+02
   9.315774e+01  -1.667549e+02
   1.299798e+02  -2.554558e+01
   4.650974e+01   2.455185e+01
  -2.961010e+01   1.957669e+00
  -4.158445e+01  -9.306936e+01
   6.370447e+01  -8.816220e+01
   1.911034e+02  -5.229872e+01
   1.902303e+02   9.567225e+01
   5.650254e+01   2.017835e+02
  -1.135556e+02   1.823338e+02
  -1.721560e+02   2.648331e+01
  -6.342782e+01  -9.289843e+01
   4.874820e+01  -9.309108e+01
   7.237212e+01  -2.372414e+01
   9.337117e+00   2.174748e+01
  -2.683336e+01   1.480776e+01
   7.068788e+00  -1.747531e+01
   7.660504e+01  -5.266107e+00
   8.961175e+01   5.308478e+01
   4.565545e+01   1.573232e+02
  -1.093613e+02   1.852942e+02
  -2.297272e+02   2.384025e+01
  -2.133464e+02  -1.166294e+02
  -5.946779e+01  -2.380659e+02
   7.342554e+01  -1.639646e+02
   1.098265e+02  -2.785387e+01
   6.470413e+01   2.868626e+01
   3.215536e+01   2.741357e+01
   4.547839e+01  -1.654917e+01
   7.683056e+01  -1.700110e+01
   5.640248e+01   4.288681e+01
  -3.869061e+01   8.414669e+01
  -9.483882e+01   5.512788e+01
  -7.028128e+01  -2.352845e+01
  -7.657720e+00  -1.055231e+02
   1.298786e+02  -7.084819e+01
   1.677985e+02  -8.121430e+00
   1.287413e+02   1.718619e+02
  -9.174741e+01   2.127058e+02
  -2.215978e+02   1.084076e+02
  -2.218993e+02  -8.488739e+01
  -8.927112e+01  -1.491038e+02
   2.383672e+01  -1.208182e+02
   6.900294e+01  -8.666329e+01
   5.681950e+01  -5.267058e+01
   3.009938e+01  -8.975155e+01
   5.734917e+01  -6.239812e+01
   1.175699e+02   1.981132e+01
   9.088979e+01   1.256880e+02
  -1.810293e+00   1.963740e+02
  -5.943603e+01   1.888117e+02
  -1.684102e+02   3.130065e+01
  -1.475505e+02  -1.037013e+02
  -2.018055e+01  -1.292626e+02
   5.884139e+01  -7.508247e+01
   5.428879e+01   1.215106e+01
   1.255659e+01   3.489304e+01
  -1.467209e+01   3.228677e+01
   3.651040e+01   1.190383e+01
   7.240577e+01   1.041258e+01
   3.918437e+01   2.814596e+01
  -5.241985e+01   3.750324e+01
  -1.224932e+02   1.874952e+01
  -1.439063e+02  -5.034163e+01
  -1.062154e+01  -7.933340e+01
   1.175251e+02  -7.648306e+01
   1.201909e+02  -1.191810e+00
   4.437866e+01   4.123903e+01
  -5.205507e+01   4.749144e+01
  -6.698325e+01  -1.214800e+01
  -2.559376e+01  -6.533705e+01
   4.167851e+01  -5.026569e+01
   5.707689e+01  -7.978856e+00
   4.959289e+01   4.247678e+01
   5.080216e+01   2.884955e+01
   4.617362e+01  -1.775395e+00
   5.530388e+01  -1.366416e+00
   3.949877e+01   6.295344e+01
  -2.632852e+01   1.301616e+02
  -1.113557e+02   1.396221e+02
  -1.350034e+02   2.596859e+00
  -1.271727e+02  -6.826866e+01
  -2.912266e+01  -1.266429e+02
   6.442347e+01  -6.115484e+01
   5.102622e+01   3.377562e+00
  -4.600757e+01   2.823514e+01
  -1.145234e+02  -2.454727e+01
  -4.725788e+01  -9.422863e+01
   7.037084e+01  -1.249777e+02
   1.622412e+02  -4.806904e+01
   1.453040e+02   1.532528e+01
   3.420420e+01   7.079867e+01
  -5.212910e+01   7.092753e+01
  -4.291405e+01   1.114264e+01
   3.650301e+01  -2.803294e+01
   7.973834e+01   7.096721e+00
   3.551561e+01   1.100987e+02
  -5.927708e+01   1.646210e+02
  -1.316233e+02   6.638318e+01
  -1.161355e+02  -8.111164e+01
  -1.665288e+01  -1.736404e+02
   4.632531e+01  -1.695294e+02
   1.008714e+02  -9.969942e+00
   6.837013e+01   1.042457e+02
  -6.807466e+00   8.207253e+01
  -4.199363e+01   3.396894e+01
  -4.131673e+01  -2.510950e+01
  -1.566683e+01  -7.298499e+00
  -2.820060e+00   1.675472e+01
  -2.351780e+01  -1.555704e+01
  -3.654347e+01  -8.266624e+01
  -5.748882e+01  -9.584960e+01
   4.076802e+01  -4.584686e+01
   1.286602e+02   1.703090e+01
   1.137094e+02   5.128605e+01
   1.997509e+01   4.610147e+01
  -7.141831e+01   3.535696e+01
  -7.069107e+01   8.591513e+00
  -1.244593e+01  -8.448611e+00
   3.134465e+01  -2.319100e+01
   1.567393e+01  -1.228741e+01
  -1.669682e+01   4.078827e+00
   3.290374e+00   5.811012e+00
   5.459159e+01   1.151551e+00
   9.176211e+01   9.786823e+00
   1.143613e+01   6.503985e+01
  -9.040702e+01   1.158072e+02
  -1.562458e+02   7.814595e+01
  -1.495662e+02  -2.978885e+01
  -2.425526e+01  -1.301577e+02
   4.899228e+01  -1.015644e+02
   1.078056e+02  -7.188676e+01
   7.276138e+01   1.144289e+01
   2.885989e+01   3.021027e+01
   3.113629e+00   1.003648e+01
   1.302403e+01   1.314112e+00
   3.589798e+01   3.904351e+01
   2.899689e+01   7.587881e+01
  -2.536155e+01   7.095145e+01
  -7.874926e+01  -4.118916e+00
  -7.024800e+01  -7.348176e+01
  -1.575121e+01  -9.607655e+01
   6.385967e+01  -4.365130e+01
   1.001191e+02   5.484225e+01
   2.406298e+01   8.073576e+01
  -5.074555e+01   6.900842e+01
  -8.801981e+01   5.172342e+00
  -4.939277e+01  -4.075900e+01
   2.104389e+01  -4.964215e+01
   2.850160e+01  -2.669380e+01
  -2.570161e+01   1.151002e+00
  -6.570785e+01   1.899124e+01
  -1.545666e+01  -2.333859e+01
   5.980580e+01  -5.953551e+01
   9.811699e+01  -7.283802e+01
   5.322581e+01   4.750715e-01
  -3.517827e+00   7.470632e+01
  -2.923896e+01   6.815294e+01
  -3.583012e+01   1.216562e+01
  -1.059228e+01  -5.213812e+01
   1.343177e+01  -4.452874e+01
   3.842285e+01   7.115529e+00
   3.312534e+01   4.557017e+01
   9.948426e-02   3.341335e+01
  -2.283574e+01  -2.369640e+00
  -3.606097e+01  -2.573714e+01
  -1.844853e+01  -1.962578e+00
   2.714555e+00   1.711553e+01
   5.559703e+00  -1.167440e+00
   3.806640e+00  -3.355416e+01
   1.211465e+01  -3.291274e+01
   2.394449e+01  -1.225956e+01
   3.553140e+01   2.997893e+01
   1.079178e+01   5.575097e+01
  -3.574863e+01   2.661887e+01
  -5.971136e+01  -3.259040e+01
  -1.764543e+01  -4.242323e+01
   4.559002e+01  -4.304346e+01
   8.786554e+01  -3.469083e+00
   4.447320e+01   4.068758e+01
  -2.521241e+01   3.815158e+01
  -4.975530e+01   2.709894e+01
  -2.373871e+01   7.329996e+00
   2.708664e+01  -1.330545e+00
   3.142250e+01   7.419317e+00
  -2.089810e+01   2.725698e+01
  -6.237856e+01   2.410193e+01
