
 $NMID
 id='ANONYMOUS ', fmtdat='(2E16.6)'
 volume=1.0
 tramp=1.0
 $END
   2.991200e+03   5.959945e+01
   1.762860e+03   1.626190e+03
  -4.445555e+02   2.116522e+03
  -1.482067e+03   8.836384e+02
  -7.729812e+02  -4.176342e+02
   2.172386e+02  -4.725497e+02
   4.705550e+02   1.284949e+02
  -9.444710e+00   7.368893e+02
  -4.995964e+02   5.489399e+02
  -6.454108e+02  -8.602680e+01
  -3.057052e+02  -6.305185e+02
   4.585667e+01  -5.540966e+02
   4.277220e+02  -1.141108e+02
   2.816471e+02   5.272392e+02
  -1.845520e+02   6.121848e+02
  -4.599711e+02   2.208367e+01
  -3.060060e+02  -5.983948e+02
   1.766753e+02  -6.224364e+02
   5.056616e+02  -9.293324e+01
   3.153606e+02   2.034943e+02
   5.303439e+01   2.835166e+02
  -1.720802e+02   2.217673e+02
  -1.637544e+02   3.231199e+01
   1.455896e+02  -1.616360e+01
   3.355847e+02   1.520125e+02
   7.126662e+01   3.450362e+02
  -4.131770e+02   2.674226e+02
  -6.796421e+02  -1.783840e+02
  -2.802467e+02  -4.447790e+02
   3.858656e+02  -3.406506e+02
   6.328105e+02   8.843915e+01
   2.280752e+02   3.681041e+02
  -2.261698e+02   4.454784e+02
  -4.529142e+02   8.388623e+01
  -2.964317e+02  -1.047625e+02
  -5.972133e+01  -3.706251e+02
   1.259352e+02  -2.300402e+02
   2.055908e+01   1.351169e+02
  -6.130036e+01   2.335752e+02
  -2.608312e+02  -3.968967e+01
  -1.304260e+02  -4.752553e+02
   1.969715e+02  -4.607230e+02
   3.211041e+02   2.090196e+01
   9.631618e+01   3.800741e+02
  -1.953533e+02   1.817593e+02
  -2.904569e+02  -2.717834e+02
   1.100171e+02  -4.027299e+02
   4.616372e+02  -1.133359e+02
   5.173769e+02   3.563394e+02
   1.736380e+02   5.383216e+02
  -2.534591e+02   2.723311e+02
  -4.540427e+02  -8.406022e+01
  -3.740000e+02  -3.246544e+02
   1.098770e+02  -3.117827e+02
   3.658847e+02  -5.719642e+01
   1.925931e+02   1.710996e+02
  -6.997760e+01   5.138324e+01
  -1.005132e+02  -9.631521e+01
   1.107224e+02  -1.423681e+02
   2.719388e+02   3.852936e+01
   1.115260e+02   2.585351e+02
  -1.867516e+02   2.311481e+02
  -2.567343e+02   9.595921e+01
  -1.989969e+02  -6.404844e+01
   2.448133e+01  -2.255174e+02
   2.074324e+02  -2.918287e+02
   2.847175e+02  -1.639044e+02
   2.369836e+02   1.396963e+02
   6.123542e+01   4.090814e+02
  -8.034633e+01   3.073118e+02
  -3.971942e+01   1.069032e+02
  -1.506449e+01   9.270331e+01
  -6.685335e+01   8.645533e+01
  -2.126761e+02   7.438662e+01
  -2.388215e+02  -8.839795e+01
  -9.711391e+01  -2.356494e+02
   7.589444e+01  -1.820153e+02
   1.648818e+02   2.153933e+01
   1.371375e+02   1.935654e+02
  -2.099493e+01   2.481181e+02
  -2.359888e+02   1.013709e+02
  -2.817636e+02  -1.312666e+02
  -1.526502e+02  -3.446919e+02
   7.221247e+01  -2.268306e+02
   1.895694e+02  -1.604232e+02
   1.618603e+02  -3.207633e+01
   1.089042e+02  -6.738094e+01
   2.389761e+02  -4.864657e+01
   3.157863e+02   6.436923e+01
   2.881113e+02   2.530373e+02
  -3.027718e+00   4.018481e+02
  -3.019531e+02   3.079682e+02
  -4.490014e+02   1.992601e+02
  -2.316802e+02  -5.226834e+01
  -2.084061e+01  -2.110398e+02
   8.255935e+01  -1.802257e+02
   4.115030e+01  -3.357975e+01
  -1.143016e+02   5.558899e+01
  -1.517540e+02  -3.529862e+01
  -2.162083e+01  -1.662136e+02
   1.230028e+02  -1.271985e+02
   1.132502e+02   5.545067e+01
  -4.758093e+01   1.366728e+02
  -1.514815e+02  -3.362666e-01
  -1.153644e+02  -1.483887e+02
  -1.940042e+01  -2.884127e+02
   1.637819e+02  -1.499010e+02
   2.878851e+02   4.569944e+01
   2.417150e+02   2.420313e+02
   7.369455e+01   2.258571e+02
  -9.503073e+01   1.344416e+02
  -1.289581e+02   9.697834e+00
  -3.649773e+01  -2.134056e+01
   5.815886e+01   4.435404e+01
   6.516835e+00   1.085691e+02
  -1.027828e+02   6.468533e+01
  -1.444354e+02  -3.059720e+01
  -4.291731e+01  -6.618246e+01
   6.873542e+01  -8.432792e+00
   4.208633e+01   6.359672e+01
  -1.125198e+02   8.838612e+01
  -2.606880e+02  -8.042905e+00
  -2.210222e+02  -1.359364e+02
  -5.974088e+01  -2.160976e+02
   1.658916e+02  -2.091719e+02
   2.496821e+02  -1.102946e+02
   1.263037e+02   2.830097e+01
  -3.411789e+01   8.536392e+01
  -6.787025e+01   4.786812e-01
   4.081862e+01  -8.130868e+01
   1.912747e+02  -5.204357e+01
   1.717825e+02   6.859312e+01
   4.651985e+01   1.722424e+02
  -7.787199e+01   1.333977e+02
  -1.120136e+02   2.801898e+01
  -4.212509e+01  -3.066562e+01
   2.892514e+01   9.136785e+00
   3.800988e+01   8.159514e+01
  -8.765129e+01   1.129086e+02
  -1.602919e+02   3.176649e+01
  -1.752759e+02  -1.290885e+02
  -9.851064e+00  -2.230791e+02
   1.519962e+02  -1.605179e+02
   1.684515e+02  -2.058001e+01
   4.860712e+01   1.015075e+02
  -5.089667e+01   8.517477e+01
  -7.920932e+01   2.277543e+01
  -1.526627e+01  -2.183504e+01
   2.383898e+01  -1.634588e+01
  -5.516477e+00   1.663983e+01
  -6.306941e+01  -1.094871e+01
  -8.867664e+01  -7.542696e+01
  -8.183995e+00  -1.387413e+02
   1.401946e+02  -1.232327e+02
   1.858007e+02  -3.288106e+01
   1.760740e+02   1.358218e+02
   4.710391e+01   2.067097e+02
  -7.759868e+01   1.196768e+02
  -9.379066e+01   1.860559e+01
  -6.887366e+01  -4.224820e+01
  -1.888504e+01  -2.077458e+01
  -4.435377e+01   1.111229e+01
  -6.806047e+01   2.490495e+00
  -5.305470e+01  -4.032135e+01
   4.967295e+01  -9.081360e+01
   9.385380e+01  -4.879586e+01
   6.814737e+01   2.060365e+01
  -8.718455e+00   1.118627e+02
  -1.325233e+02   8.051162e+01
  -1.541270e+02  -6.983176e+01
  -9.843326e+01  -1.902051e+02
   9.439183e+01  -1.726923e+02
   2.009582e+02  -1.026408e+02
   2.022556e+02   7.263540e+01
   7.344326e+01   1.314160e+02
  -4.128952e+01   1.306472e+02
  -9.497056e+01   7.217315e+01
  -7.294747e+01   6.046721e+01
  -5.023971e+01   7.221193e+01
  -6.852238e+01   6.588288e+01
  -1.169825e+02  -1.864947e+01
  -9.340961e+01  -1.505317e+02
  -1.408592e+01  -1.811300e+02
   9.550961e+01  -1.562527e+02
   1.525766e+02  -1.121843e+01
   9.437078e+01   8.535512e+01
   2.027217e+01   1.449113e+02
  -6.006603e+01   6.857392e+01
  -6.327241e+01  -1.397965e+01
   1.174857e+00  -3.895221e+01
   8.359761e+00  -2.413821e+01
  -2.972182e+01  -1.785267e+01
  -8.587762e+01  -1.369892e+01
  -4.249410e+01  -2.766098e+01
   5.727639e+01  -4.190270e+01
   1.421965e+02  -1.319655e+01
   1.167613e+02   5.337228e+01
   1.044218e+01   8.236324e+01
  -1.081537e+02   6.199159e+01
  -1.284469e+02   8.179792e+00
  -3.736684e+01  -4.276456e+01
   5.051867e+01  -3.652396e+01
   6.932689e+01   5.559933e+00
   4.466516e+00   6.815111e+01
  -4.198205e+01   5.360927e+01
  -5.023946e+01   3.481506e+00
  -4.152695e+01  -3.244502e+01
  -3.781622e+01  -3.652104e+01
  -4.880477e+01  -3.133967e+00
  -6.150406e+01  -4.218621e+00
  -4.009531e+01  -6.704711e+01
   4.237468e+01  -1.172809e+02
   8.515461e+01  -1.097567e+02
   1.462600e+02  -1.957593e+01
   1.141884e+02   7.509665e+01
   1.371810e+01   1.194381e+02
  -7.632711e+01   5.997489e+01
  -5.212969e+01  -1.243792e+01
   5.227576e+01  -1.670705e+01
   9.692250e+01   2.788343e+01
   6.131829e+01   1.024581e+02
  -6.203591e+01   8.505874e+01
  -1.717514e+02   3.474172e+01
  -1.352609e+02  -2.915288e+01
  -2.754264e+01  -7.817219e+01
   5.617382e+01  -6.242246e+01
   3.478389e+01  -2.566952e+00
  -3.666597e+01   3.205465e+01
  -6.676000e+01  -1.714788e+01
  -3.306475e+01  -8.778570e+01
   6.279310e+01  -1.135981e+02
   1.133690e+02  -7.257567e+01
   1.062129e+02   6.187873e+01
   1.605242e+01   1.421507e+02
  -7.633140e+01   1.310293e+02
  -8.076018e+01  -6.623448e+00
  -4.669244e+01  -9.415473e+01
   5.468161e+00  -9.258352e+01
   4.060702e+01  -1.334403e+01
   4.098937e+01   2.967006e+01
   2.247715e+01   7.351549e+00
   4.318325e+00  -1.685048e+01
   1.700177e+01   1.527186e+01
   5.286139e+01   6.863616e+01
   4.154748e+01   7.900447e+01
  -4.621195e+01   3.814950e+01
  -1.071182e+02  -2.384754e+01
  -1.014645e+02  -6.154982e+01
  -1.275156e+01  -4.148192e+01
   8.045102e+01  -2.824818e+01
   7.274565e+01  -3.441092e+00
   1.253934e+01   6.860857e+00
  -2.978406e+01   1.716364e+01
  -1.758413e+01   1.760948e+01
   1.473604e+01  -1.990453e+00
  -4.637222e+00  -6.398990e+00
  -6.826357e+01  -8.202397e+00
  -8.558259e+01  -1.122141e+01
  -1.300501e+01  -7.118516e+01
   8.710587e+01  -9.784790e+01
   1.469956e+02  -5.118560e+01
   1.216192e+02   4.106056e+01
   2.364605e+01   1.465062e+02
  -7.151036e+01   1.391542e+02
  -9.997129e+01   5.493985e+01
  -7.598646e+01  -2.051610e+01
  -2.992158e+01  -3.296900e+01
   1.178285e+00  -9.471497e+00
  -1.000001e+01  -5.675193e+00
  -2.944502e+01  -3.814274e+01
  -1.555047e+01  -6.048747e+01
   3.010599e+01  -6.215140e+01
   7.009098e+01   1.039473e+01
   9.089013e+01   9.249625e+01
  -6.569956e+00   1.010964e+02
  -6.290644e+01   2.460127e+01
  -8.570534e+01  -5.784692e+01
  -3.474514e+01  -1.012694e+02
   5.185545e+01  -5.324798e+01
   7.863842e+01   4.253796e+00
   2.955417e+01   4.119036e+01
  -2.392798e+01   5.798577e+01
  -3.668364e+01   3.042881e+01
   2.475765e+01  -4.273437e+00
   5.394435e+01  -6.360098e+00
   1.368284e+01   1.963168e+01
  -7.154225e+01   6.112834e+01
  -1.181337e+02   5.001402e+01
  -5.638363e+01  -5.240372e+00
   1.042262e+01  -6.674698e+01
   4.375825e+01  -7.995245e+01
   3.469994e+01  -8.188484e+00
   2.942845e+00   4.922622e+01
  -2.271706e+01   4.631209e+01
  -3.922569e+01  -1.230364e+01
  -2.512726e+01  -4.532562e+01
  -4.929225e-01  -3.558899e+01
   3.091462e+01   7.360606e+00
   3.416754e+01   2.285487e+01
   2.128091e+01   2.146268e+00
  -4.965601e+00  -1.535599e+01
  -8.997806e+00  -4.081999e+00
  -1.639518e+00   3.023733e+01
  -1.250283e+01   4.965128e+01
  -2.556312e+01   1.301912e+01
  -3.287057e+01  -4.010420e+01
   1.596535e+00  -5.125977e+01
   2.590598e+01  -2.070402e+01
   5.850869e+01   3.132151e+01
   1.738764e+01   5.582521e+01
  -5.441800e+01   3.377664e+01
  -7.641501e+01  -1.523857e+01
  -3.630862e+01  -3.296009e+01
   2.586773e+01  -3.914844e+01
   5.065261e+01  -2.507370e+01
   1.957673e+01  -7.377667e+00
  -3.003661e+01  -5.354669e-01
  -2.959328e+01  -8.039434e+00
   2.341390e+01  -1.983195e+01
   6.854939e+01  -2.189428e+01
