
 $NMID
 id='ANONYMOUS ', fmtdat='(2E16.6)'
 volume=1.0
 tramp=1.0
 $END
  -3.528085e+03   1.406368e+02
  -1.712234e+03  -2.412563e+03
   8.373885e+02  -2.661362e+03
   1.932336e+03  -6.385151e+02
   7.886207e+02   6.168050e+02
  -6.234809e+02   5.739485e+02
  -7.304370e+02  -2.464663e+02
   3.442190e+01  -9.757366e+02
   7.600521e+02  -6.119668e+02
   8.048381e+02   1.340264e+02
   3.591758e+02   7.676258e+02
  -1.024949e+02   7.605746e+02
  -5.698578e+02   6.319422e+01
  -3.431533e+02  -7.226371e+02
   2.467621e+02  -7.272406e+02
   5.444685e+02  -1.702102e+01
   2.510500e+02   7.362748e+02
  -3.127459e+02   6.047124e+02
  -5.467255e+02  -3.104247e+01
  -3.478049e+02  -2.884733e+02
   1.134702e+01  -3.257549e+02
   2.391822e+02  -2.302299e+02
   2.293733e+02   2.646690e+00
  -1.105476e+02   9.997904e+01
  -4.250446e+02  -1.281025e+02
  -1.377383e+02  -4.092736e+02
   5.050606e+02  -4.062213e+02
   8.142807e+02   8.332072e+01
   4.375056e+02   5.522182e+02
  -4.641381e+02   4.979724e+02
  -7.511828e+02  -1.066145e+02
  -2.956960e+02  -4.609856e+02
   3.386366e+02  -5.859817e+02
   4.903231e+02  -1.421488e+02
   3.451691e+02   1.958694e+02
   5.460194e+01   4.548264e+02
  -2.433150e+02   2.687969e+02
  -1.203373e+02  -1.759267e+02
   9.114587e+01  -3.989575e+02
   4.066100e+02  -3.285286e+00
   1.663374e+02   5.933009e+02
  -2.053407e+02   6.481984e+02
  -4.805910e+02  -5.064867e+01
  -1.990288e+02  -5.395552e+02
   2.939904e+02  -2.864421e+02
   3.787173e+02   3.336911e+02
  -5.059606e+01   5.170492e+02
  -5.274428e+02   1.464854e+02
  -5.819993e+02  -4.222670e+02
  -1.609238e+02  -5.988241e+02
   3.242036e+02  -2.860519e+02
   5.321925e+02   4.816576e+01
   4.056576e+02   4.418420e+02
  -1.438436e+02   3.865388e+02
  -4.453994e+02   4.097086e+01
  -2.202551e+02  -2.418314e+02
   1.049817e+02  -1.099050e+02
   1.529760e+02   1.474106e+02
  -1.611744e+02   2.099555e+02
  -3.313932e+02  -6.663795e+01
  -1.050386e+02  -2.824294e+02
   2.045980e+02  -2.588223e+02
   2.769706e+02  -5.141438e+01
   1.665812e+02   8.365530e+01
  -1.555284e+01   1.930401e+02
  -1.942823e+02   2.702068e+02
  -2.750349e+02   1.690138e+02
  -2.802536e+02  -1.366952e+02
  -5.584567e+01  -4.407547e+02
   1.067390e+02  -3.298571e+02
   1.040862e+02  -9.400611e+01
   2.079626e+01  -6.350007e+00
   3.853955e+01  -5.814889e+01
   1.839893e+02  -9.858010e+01
   2.649728e+02   4.502982e+01
   1.487293e+02   2.391409e+02
  -5.448073e+01   2.227899e+02
  -1.883421e+02  -7.440501e-01
  -1.820112e+02  -2.066866e+02
  -7.334075e+00  -2.852841e+02
   2.720569e+02  -1.097373e+02
   3.043942e+02   1.482151e+02
   1.949535e+02   3.329410e+02
  -1.057779e+02   2.283444e+02
  -2.401137e+02   1.367118e+02
  -1.529968e+02  -1.742026e+00
  -9.415213e+01   4.512763e+01
  -2.106074e+02   7.087200e+01
  -2.956540e+02  -4.574756e+01
  -2.906740e+02  -2.554980e+02
  -4.254251e+00  -3.732408e+02
   2.983772e+02  -3.521104e+02
   4.746342e+02  -2.133247e+02
   2.507618e+02   8.432106e+01
   4.178778e+01   2.186256e+02
  -1.090517e+02   2.020732e+02
  -8.348257e+01   3.814243e+01
   9.901259e+01  -8.809756e+01
   1.861399e+02   2.699312e+01
   4.901061e+01   1.842415e+02
  -1.760221e+02   1.692945e+02
  -1.491286e+02  -5.139683e+01
   2.376553e+01  -1.702122e+02
   1.739553e+02  -3.613200e+01
   1.195061e+02   1.872928e+02
  -3.116492e+01   2.941581e+02
  -1.693233e+02   1.375335e+02
  -2.969440e+02  -3.989251e+01
  -2.443709e+02  -2.373556e+02
  -1.200383e+02  -2.177618e+02
   9.956568e+01  -1.439092e+02
   1.651558e+02  -2.781386e+01
   4.857588e+01   3.538029e+01
  -6.879059e+01  -4.736895e+01
  -3.184464e+01  -1.119793e+02
   1.043843e+02  -8.896172e+01
   1.641742e+02   1.582797e+01
   6.203226e+01   7.558794e+01
  -7.254731e+01   2.257597e+01
  -5.387789e+01  -6.609761e+01
   1.295255e+02  -7.772776e+01
   2.547024e+02  -1.256391e+01
   2.421390e+02   1.338797e+02
   5.604936e+01   2.262289e+02
  -1.318308e+02   2.067174e+02
  -2.638121e+02   1.489089e+02
  -1.462789e+02  -3.744026e+01
   2.991526e+01  -1.064722e+02
   8.061842e+01  -1.672883e+01
  -2.987252e+01   9.158627e+01
  -1.938878e+02   6.140496e+01
  -2.069389e+02  -7.066466e+01
  -6.325771e+01  -1.987013e+02
   8.409669e+01  -1.537760e+02
   1.227391e+02  -2.240205e+01
   5.841246e+01   3.278004e+01
  -1.238134e+01  -6.577212e-01
  -2.779776e+01  -9.065728e+01
   7.999083e+01  -1.157299e+02
   1.865603e+02  -4.063271e+01
   2.075920e+02   1.232048e+02
   2.603289e+01   2.445085e+02
  -1.863852e+02   1.948823e+02
  -1.853859e+02   1.032792e+01
  -5.604594e+01  -1.101023e+02
   5.187048e+01  -9.446125e+01
   8.178279e+01  -3.234263e+01
   2.606536e+01   2.308396e+01
  -1.957660e+01   1.803917e+01
   9.085370e+00  -8.699138e+00
   5.265947e+01   1.829912e+01
   9.078920e+01   7.467820e+01
   1.843468e+01   1.289813e+02
  -1.306780e+02   1.423209e+02
  -2.002068e+02   2.770709e+01
  -1.741065e+02  -1.295061e+02
  -5.582279e+01  -2.305047e+02
   9.585000e+01  -1.337032e+02
   1.057275e+02  -1.365689e+01
   6.697497e+01   5.201388e+01
   1.463076e+01   2.745104e+01
   4.073360e+01  -8.487577e+00
   6.679202e+01  -3.965411e+00
   3.565896e+01   4.535271e+01
  -4.449724e+01   8.047402e+01
  -9.138789e+01   4.688158e+01
  -6.008181e+01  -2.396520e+01
   1.635301e+01  -1.172172e+02
   1.203407e+02  -7.771350e+01
   1.689851e+02   6.057678e+01
   9.140960e+01   1.972653e+02
  -9.769579e+01   2.024011e+02
  -2.313261e+02   9.285579e+01
  -2.306450e+02  -7.230333e+01
  -9.660707e+01  -1.482328e+02
   4.441889e+01  -1.588342e+02
   9.760396e+01  -8.392548e+01
   7.409939e+01  -6.319599e+01
   6.117291e+01  -8.018426e+01
   8.331283e+01  -6.818123e+01
   1.270090e+02   1.974753e+01
   9.286744e+01   1.409118e+02
   3.690238e+01   2.071494e+02
  -1.029456e+02   1.607152e+02
  -1.549646e+02   1.488260e+01
  -1.038946e+02  -8.918864e+01
  -1.913379e+01  -1.473614e+02
   5.095705e+01  -8.376322e+01
   6.420110e+01   2.486555e+00
   2.969385e+00   3.752085e+01
  -4.465001e+00   2.215651e+01
   3.630533e+01   1.895386e+01
   8.463278e+01   2.614000e+01
   4.005879e+01   3.495260e+01
  -5.134326e+01   3.193151e+01
  -1.491992e+02  -4.976985e+00
  -1.274669e+02  -3.663683e+01
  -1.645468e+01  -6.831351e+01
   1.065374e+02  -7.187059e+01
   1.309888e+02  -1.291896e+01
   4.527604e+01   3.902147e+01
  -5.167122e+01   3.555752e+01
  -7.392854e+01  -1.638085e+01
  -1.842643e+00  -6.134609e+01
   5.242391e+01  -5.207450e+01
   5.169644e+01   4.928986e+00
   4.020665e+01   4.059520e+01
   3.558232e+01   3.574113e+01
   4.801985e+01   5.384494e+00
   5.903929e+01   1.318655e+00
   3.545097e+01   6.829868e+01
  -3.601731e+01   1.246015e+02
  -9.097972e+01   1.026425e+02
  -1.526323e+02   2.463747e+01
  -1.071532e+02  -7.348073e+01
  -7.272423e+00  -1.292587e+02
   8.858294e+01  -6.010779e+01
   5.344686e+01   1.591971e+01
  -5.821388e+01   2.047332e+01
  -1.061487e+02  -2.757370e+01
  -6.654953e+01  -9.499594e+01
   6.771152e+01  -9.994456e+01
   1.632659e+02  -3.191756e+01
   1.402667e+02   2.237409e+01
   3.492007e+01   7.575202e+01
  -5.954581e+01   6.786275e+01
  -3.756793e+01   7.226286e+00
   4.322418e+01  -3.049744e+01
   7.311930e+01   1.648717e+01
   2.157170e+01   9.589234e+01
  -7.001703e+01   1.137411e+02
  -1.384812e+02   5.457191e+01
  -1.047953e+02  -8.247659e+01
  -4.259360e+00  -1.431216e+02
   8.864336e+01  -1.468141e+02
   7.707877e+01   4.283878e+00
   5.097194e+01   1.006937e+02
  -7.606130e+00   1.042405e+02
  -3.709178e+01   1.632176e+01
  -5.426144e+01  -3.302859e+01
  -2.778031e+01  -9.250805e+00
  -2.417756e+00   1.768213e+01
  -1.361183e+01  -9.615635e+00
  -4.620220e+01  -7.259586e+01
  -4.032999e+01  -9.560788e+01
   4.828619e+01  -4.350592e+01
   1.242394e+02   3.340514e+01
   1.082989e+02   6.379937e+01
   1.242582e+01   3.796343e+01
  -8.711215e+01   1.758000e+01
  -8.484292e+01   5.364895e+00
  -8.840493e+00  -5.989326e+00
   3.499037e+01  -1.632674e+01
   1.693728e+01  -1.980413e+01
  -1.977081e+01  -2.962269e-01
   5.139335e+00   8.175721e+00
   6.961878e+01   7.230122e+00
   8.218504e+01   1.999858e+01
   5.164286e-01   7.404930e+01
  -1.037212e+02   9.980824e+01
  -1.496882e+02   4.704184e+01
  -1.307255e+02  -5.595170e+01
  -2.200438e+01  -1.514623e+02
   7.159739e+01  -1.515094e+02
   1.084682e+02  -5.148296e+01
   7.870223e+01   2.340312e+01
   2.522830e+01   3.717879e+01
  -5.043246e+00   6.077926e+00
   8.089613e+00   3.459362e+00
   2.966862e+01   4.113126e+01
   1.745787e+01   6.071800e+01
  -3.172468e+01   6.358975e+01
  -7.033598e+01  -1.664830e+01
  -7.865892e+01  -1.161587e+02
  -1.236838e+00  -9.322562e+01
   6.685820e+01  -2.067977e+01
   9.618124e+01   7.318685e+01
   3.347119e+01   1.050127e+02
  -5.891299e+01   5.159065e+01
  -7.424480e+01  -1.113544e+01
  -2.396918e+01  -3.663965e+01
   3.492551e+01  -5.242542e+01
   3.298794e+01  -3.070588e+01
  -3.034439e+01  -7.231929e-01
  -5.258056e+01   2.747051e+00
  -1.106048e+01  -2.133994e+01
   8.045135e+01  -7.163281e+01
   1.150479e+02  -5.885805e+01
   4.767179e+01   1.058500e+01
  -1.265138e+01   6.862408e+01
  -5.102655e+01   7.172193e+01
  -3.037748e+01   6.016762e+00
   1.118468e+00  -4.506823e+01
   2.556176e+01  -4.509278e+01
   4.113828e+01   1.710615e+01
   2.262964e+01   4.984527e+01
  -3.826435e+00   3.340104e+01
  -3.240439e+01  -8.620122e+00
  -3.700968e+01  -1.946769e+01
  -2.302740e+01  -9.856577e-01
  -5.256993e-01   1.142409e+01
   7.930665e+00  -2.994906e+00
   8.602020e+00  -3.502407e+01
   1.664866e+01  -4.841138e+01
   3.260052e+01  -3.588169e+00
   2.218348e+01   4.446836e+01
  -3.856534e+00   5.662660e+01
  -3.580537e+01   1.691951e+01
  -6.136784e+01  -3.878575e+01
  -1.126431e+01  -6.124371e+01
   5.860421e+01  -3.704262e+01
   8.232407e+01   1.589933e+01
   3.553386e+01   3.077385e+01
  -2.730411e+01   3.631079e+01
  -5.539688e+01   1.336990e+01
  -1.980487e+01   5.712487e+00
   3.637402e+01   4.734726e+00
   3.267773e+01   1.273182e+01
  -2.712741e+01   2.457377e+01
  -9.028932e+01   2.695389e+01
