
 $NMID
 id='ANONYMOUS ', fmtdat='(2E16.6)'
 volume=1.0
 tramp=1.0
 $END
   3.876332e+03   5.406794e+01
   1.861624e+03   2.404395e+03
  -7.897665e+02   2.741255e+03
  -1.815735e+03   7.663968e+02
  -7.075626e+02  -6.365303e+02
   6.437761e+02  -5.358992e+02
   8.300218e+02   3.826582e+02
  -1.637444e+02   1.015624e+03
  -8.232390e+02   6.747838e+02
  -7.607852e+02  -1.490564e+02
  -3.990353e+02  -8.684937e+02
   1.376377e+02  -7.909773e+02
   5.713877e+02  -6.511348e+01
   3.218001e+02   8.239670e+02
  -3.333519e+02   7.190265e+02
  -5.780175e+02  -4.929134e+01
  -2.019077e+02  -7.087806e+02
   3.762735e+02  -5.552240e+02
   5.130916e+02   2.225840e+01
   3.412620e+02   3.046980e+02
  -3.068824e+00   3.477941e+02
  -2.447780e+02   2.206739e+02
  -2.160305e+02  -2.787715e+01
   1.029153e+02  -1.153192e+02
   4.056704e+02   1.534473e+02
   1.961577e+02   4.035025e+02
  -5.485291e+02   4.084560e+02
  -7.755913e+02  -1.020862e+02
  -4.293512e+02  -6.354795e+02
   4.469064e+02  -5.251525e+02
   7.743878e+02   1.091210e+02
   3.844985e+02   4.428744e+02
  -3.356957e+02   5.154355e+02
  -5.098526e+02   1.923356e+02
  -3.352874e+02  -2.036278e+02
  -6.045872e+00  -4.701139e+02
   2.104547e+02  -2.655728e+02
   1.339997e+02   1.987910e+02
  -1.695638e+02   4.087647e+02
  -4.311386e+02  -4.007282e+01
  -1.624403e+02  -5.974138e+02
   3.238271e+02  -6.533628e+02
   5.282772e+02   6.579134e+00
   1.277688e+02   5.175608e+02
  -3.143088e+02   2.676366e+02
  -3.791944e+02  -3.576139e+02
   4.981127e+01  -5.046100e+02
   5.394767e+02  -7.777935e+01
   5.915855e+02   4.618243e+02
   9.239560e+01   6.143457e+02
  -3.317960e+02   2.414727e+02
  -5.278427e+02  -5.027196e+01
  -3.908009e+02  -4.476936e+02
   1.797223e+02  -4.093559e+02
   4.527943e+02  -4.067587e+00
   2.166224e+02   2.428441e+02
  -1.225497e+02   1.303136e+02
  -1.267926e+02  -1.693491e+02
   1.713811e+02  -1.868721e+02
   3.362434e+02   7.583431e+01
   9.305171e+01   3.060196e+02
  -1.931952e+02   2.564447e+02
  -3.097499e+02   5.628516e+01
  -1.811999e+02  -9.312411e+01
   2.442297e+01  -1.867310e+02
   2.028053e+02  -2.406819e+02
   2.609931e+02  -1.756731e+02
   2.782499e+02   1.184931e+02
   4.436476e+01   4.556653e+02
  -1.071708e+02   3.478186e+02
  -1.248421e+02   8.475530e+01
  -3.911866e+01   6.333603e+00
  -1.075492e+01   6.875897e+01
  -1.864406e+02   1.051093e+02
  -2.896982e+02  -4.315133e+01
  -1.562515e+02  -2.249464e+02
   5.970845e+01  -2.334144e+02
   2.121965e+02  -1.870221e+01
   1.701432e+02   2.158634e+02
  -2.919435e+01   2.778465e+02
  -2.847812e+02   9.712804e+01
  -2.888308e+02  -1.616077e+02
  -1.913122e+02  -3.360989e+02
   1.247119e+02  -2.580274e+02
   2.556471e+02  -1.215575e+02
   1.307958e+02   8.654389e+00
   8.241316e+01  -3.061033e+01
   2.217496e+02  -6.848436e+01
   3.282505e+02   6.227271e+01
   2.877275e+02   2.808925e+02
  -3.368170e+01   3.972968e+02
  -2.976208e+02   3.427115e+02
  -4.797949e+02   1.826533e+02
  -2.459467e+02  -7.979173e+01
  -5.051050e+01  -2.621609e+02
   1.349027e+02  -2.213369e+02
   9.464522e+01  -3.163990e+01
  -1.029031e+02   8.563940e+01
  -1.963549e+02  -2.813028e+01
  -5.775096e+01  -2.084619e+02
   1.786369e+02  -1.759494e+02
   1.550801e+02   6.464229e+01
  -1.892352e+01   1.958767e+02
  -1.951308e+02   2.198288e+01
  -1.212476e+02  -1.988238e+02
   5.503121e+01  -2.905828e+02
   1.826775e+02  -1.252696e+02
   2.981874e+02   7.058424e+01
   2.548520e+02   2.433178e+02
   1.027124e+02   2.232794e+02
  -1.010283e+02   1.363015e+02
  -1.519571e+02   2.017164e+01
  -5.189789e+01  -3.445088e+01
   7.260159e+01   5.397707e+01
   4.117154e+01   1.195669e+02
  -1.225201e+02   8.720278e+01
  -1.592278e+02  -7.243440e+00
  -6.777989e+01  -7.509130e+01
   8.135963e+01  -1.206621e+01
   5.774264e+01   7.174437e+01
  -1.300206e+02   7.553387e+01
  -2.538281e+02  -3.233299e+00
  -2.371058e+02  -1.379309e+02
  -4.412994e+01  -2.105851e+02
   1.519305e+02  -2.332597e+02
   2.792357e+02  -1.494045e+02
   1.475040e+02   6.845287e+01
  -2.939767e+01   1.167304e+02
  -9.422054e+01   1.301012e+01
   3.669081e+01  -1.009959e+02
   2.069028e+02  -4.939300e+01
   1.889650e+02   9.951718e+01
   6.282402e+01   2.102576e+02
  -8.945547e+01   1.589689e+02
  -1.322281e+02   1.653418e+01
  -6.196837e+01  -4.016947e+01
   1.052359e+01  -6.988638e-01
   1.587796e+01   7.512371e+01
  -9.010087e+01   1.264586e+02
  -1.734397e+02   2.633369e+01
  -1.979314e+02  -1.204494e+02
  -2.049993e+01  -2.254647e+02
   1.712989e+02  -1.824007e+02
   1.782943e+02  -4.190392e+00
   6.183405e+01   1.087369e+02
  -6.566785e+01   9.957414e+01
  -8.677205e+01   3.299424e+01
  -2.577655e+01  -2.804205e+01
   1.553601e+01  -1.869712e+01
  -1.016071e+01   8.543542e+00
  -4.716326e+01  -1.357335e+01
  -9.954444e+01  -9.415429e+01
  -2.799537e+01  -1.305564e+02
   1.080379e+02  -1.371611e+02
   1.969989e+02  -2.903798e+00
   1.740710e+02   1.494056e+02
   2.673629e+01   2.230832e+02
  -9.651169e+01   1.350386e+02
  -1.002627e+02   1.923139e+01
  -7.378626e+01  -5.681922e+01
  -2.155227e+01  -3.002103e+01
  -4.299279e+01   8.954791e+00
  -7.070249e+01   7.403511e+00
  -3.286563e+01  -4.853831e+01
   3.984356e+01  -8.346772e+01
   9.408600e+01  -4.698540e+01
   5.707007e+01   2.142182e+01
  -1.292874e+01   9.592180e+01
  -1.241894e+02   6.557001e+01
  -1.578846e+02  -3.939295e+01
  -1.014760e+02  -1.935299e+02
   1.019604e+02  -2.099255e+02
   2.438284e+02  -8.165433e+01
   2.310941e+02   6.695330e+01
   9.306160e+01   1.590435e+02
  -5.059105e+01   1.528194e+02
  -9.959557e+01   9.080732e+01
  -7.270662e+01   6.283134e+01
  -5.272036e+01   7.241390e+01
  -8.362777e+01   5.765008e+01
  -1.139894e+02  -2.552686e+01
  -1.118724e+02  -1.345247e+02
  -2.380613e+01  -2.181251e+02
   1.091958e+02  -1.710534e+02
   1.604026e+02  -1.712391e+01
   9.986657e+01   8.503802e+01
   3.298525e+00   1.515910e+02
  -5.615096e+01   9.039879e+01
  -6.545182e+01   1.704087e+00
  -3.728048e+00  -3.337927e+01
   3.539847e+00  -2.203341e+01
  -3.791493e+01  -1.871092e+01
  -7.564983e+01  -2.706427e+01
  -3.840319e+01  -3.517584e+01
   5.922332e+01  -2.974532e+01
   1.327319e+02   9.712114e+00
   1.261811e+02   3.555638e+01
   1.750435e+01   6.439561e+01
  -1.171111e+02   7.857766e+01
  -1.386301e+02   1.116472e+01
  -4.682048e+01  -3.888071e+01
   5.390411e+01  -3.116526e+01
   6.794045e+01   2.329402e+01
   6.380608e+00   6.193722e+01
  -5.830000e+01   5.768056e+01
  -5.128908e+01  -7.856170e+00
  -3.795832e+01  -4.569301e+01
  -3.369064e+01  -3.761972e+01
  -4.828068e+01  -6.233535e+00
  -6.661781e+01  -4.582174e-01
  -3.694045e+01  -6.888568e+01
   2.405886e+01  -1.246950e+02
   9.008509e+01  -1.051937e+02
   1.644070e+02  -2.836039e+01
   1.076003e+02   8.341280e+01
   5.083772e+00   1.177652e+02
  -9.200297e+01   6.100367e+01
  -5.672776e+01  -1.129086e+01
   6.171911e+01  -1.863596e+01
   1.138154e+02   3.699392e+01
   7.458244e+01   9.992602e+01
  -6.925668e+01   9.745191e+01
  -1.689647e+02   4.763381e+01
  -1.375697e+02  -3.230779e+01
  -3.573138e+01  -8.006475e+01
   6.004053e+01  -6.156189e+01
   3.771786e+01  -6.134604e+00
  -4.416645e+01   2.596406e+01
  -7.655285e+01  -1.908140e+01
  -1.623837e+01  -1.005970e+02
   6.056975e+01  -1.153748e+02
   1.565785e+02  -4.126578e+01
   8.827565e+01   8.161350e+01
   4.721309e+00   1.556585e+02
  -9.511137e+01   1.249892e+02
  -8.069299e+01  -8.352734e+00
  -5.169429e+01  -1.071137e+02
   4.938922e+00  -1.093088e+02
   3.655154e+01  -1.664293e+01
   5.228462e+01   3.182663e+01
   3.091325e+01   9.872808e+00
   1.733552e+00  -1.902829e+01
   1.527947e+01   9.144673e+00
   4.122802e+01   7.786508e+01
   3.341542e+01   1.008957e+02
  -4.139606e+01   4.118535e+01
  -1.228900e+02  -3.748244e+01
  -1.124716e+02  -6.604499e+01
  -1.580527e+01  -4.017599e+01
   8.825190e+01  -1.929320e+01
   7.715294e+01  -6.930020e+00
   9.898858e+00   6.156116e+00
  -3.215891e+01   1.790359e+01
  -1.660920e+01   2.025073e+01
   2.083717e+01   8.599814e-01
  -4.725619e+00  -9.347994e+00
  -6.953210e+01  -6.713080e+00
  -9.112017e+01  -3.106696e+01
  -3.124644e+00  -7.294260e+01
   1.055609e+02  -9.485829e+01
   1.508428e+02  -4.289269e+01
   1.142822e+02   7.089330e+01
   1.717892e+01   1.582013e+02
  -8.497669e+01   1.370299e+02
  -1.106341e+02   4.910098e+01
  -7.674176e+01  -2.535499e+01
  -2.188944e+01  -3.791456e+01
   4.971472e+00  -7.279386e+00
  -6.959183e+00  -2.758194e+00
  -3.009223e+01  -3.999830e+01
  -1.822081e+01  -6.450854e+01
   2.901071e+01  -6.205115e+01
   7.351377e+01   1.672860e+01
   6.738313e+01   1.148497e+02
   1.003179e+01   9.391664e+01
  -6.800008e+01   1.991399e+01
  -8.583665e+01  -7.282638e+01
  -3.552286e+01  -1.090085e+02
   5.665798e+01  -4.961596e+01
   7.718042e+01   1.632252e+01
   2.924323e+01   3.678609e+01
  -3.802419e+01   5.445939e+01
  -2.872416e+01   2.669928e+01
   2.913009e+01   3.135269e+00
   4.677540e+01   1.326697e+00
   1.043538e+01   2.081003e+01
  -8.073435e+01   6.312901e+01
  -1.190474e+02   6.679752e+01
  -4.766888e+01  -1.156573e+01
   1.427852e+01  -6.626297e+01
   6.041587e+01  -7.165297e+01
   2.885974e+01  -4.505384e+00
  -3.899888e+00   4.484548e+01
  -2.479207e+01   4.353828e+01
  -3.917632e+01  -1.967047e+01
  -2.474581e+01  -5.255825e+01
   4.853375e+00  -3.241497e+01
   3.328403e+01   8.310653e+00
   3.422136e+01   1.846997e+01
   2.056935e+01   5.077260e-01
   1.745027e+00  -1.229200e+01
  -6.838582e+00   4.210540e+00
  -9.245913e+00   3.338132e+01
  -1.710935e+01   4.263030e+01
  -3.165687e+01   2.957237e+00
  -2.545706e+01  -4.626884e+01
   7.744838e+00  -5.324311e+01
   3.942486e+01  -1.022637e+01
   4.906328e+01   3.986293e+01
   6.666662e+00   5.961928e+01
  -5.399114e+01   2.961085e+01
  -8.529704e+01  -2.107238e+01
  -3.701721e+01  -3.115854e+01
   2.873408e+01  -3.971281e+01
   6.031500e+01  -7.850079e+00
   1.721047e+01  -4.377812e+00
  -3.552645e+01  -2.717087e+00
  -3.175632e+01  -1.602010e+01
   2.938076e+01  -2.609471e+01
   9.387349e+01  -1.922287e+01
