
 $NMID
 id='ANONYMOUS ', fmtdat='(2E16.6)'
 volume=1.0
 tramp=1.0
 $END
   3.420389e+03   2.092715e+02
   2.283233e+03   1.668369e+03
  -3.995688e+02   2.220942e+03
  -1.625220e+03   4.943228e+02
  -1.055419e+03  -1.371132e+02
   3.950527e+02  -2.855281e+02
   7.014625e+02   4.648794e+02
   2.168163e+01   8.364633e+02
  -7.291780e+02   5.348135e+02
  -8.452294e+02  -5.116548e+01
  -3.394633e+02  -7.838479e+02
   1.293190e+02  -7.751502e+02
   4.324253e+02  -1.381846e+02
   2.595751e+02   5.557120e+02
  -3.625169e+02   6.263133e+02
  -5.249138e+02  -3.059137e+01
  -2.711836e+02  -4.676433e+02
   2.998922e+02  -5.032856e+02
   5.941358e+02  -9.593758e+01
   4.002323e+02   3.575895e+02
   9.081752e+01   3.103347e+02
  -2.274933e+02   1.863400e+02
  -1.625479e+02  -3.428089e+01
   1.691209e+02   5.738536e+00
   3.322243e+02   1.716486e+02
   7.082753e+01   4.611927e+02
  -4.593786e+02   3.341994e+02
  -6.615911e+02  -1.153527e+02
  -3.121899e+02  -4.681473e+02
   3.975400e+02  -3.739343e+02
   6.968678e+02   2.347152e+02
   2.258350e+02   3.316805e+02
  -3.091283e+02   4.162705e+02
  -5.989131e+02   1.375280e+02
  -3.688938e+02  -2.529863e+02
  -6.113894e+01  -3.860751e+02
   7.733041e+01  -2.111925e+02
   6.860928e+01   1.199278e+02
  -2.651927e+02   3.148637e+02
  -3.075256e+02  -1.431499e+02
  -5.413238e+01  -6.844549e+02
   3.812703e+02  -6.188027e+02
   4.420214e+02   5.958907e+01
   2.247135e+02   5.325660e+02
  -2.663083e+02   1.718222e+02
  -2.973838e+02  -2.400379e+02
   1.261968e+02  -4.790724e+02
   4.202826e+02  -1.521584e+02
   4.868451e+02   3.766587e+02
   1.841787e+02   4.927234e+02
  -4.107359e+02   3.082253e+02
  -5.460691e+02  -1.226992e+02
  -2.977433e+02  -3.284537e+02
   1.692686e+02  -2.991613e+02
   3.590898e+02  -7.810070e+01
   1.902686e+02   1.056759e+02
  -1.258630e+01   5.149218e+01
  -7.086692e+01  -1.169248e+02
   1.315191e+02  -1.026055e+02
   2.892823e+02   9.892137e+01
   9.303138e+01   2.369399e+02
  -2.088276e+02   2.221594e+02
  -3.362301e+02   6.720954e+01
  -2.191938e+02  -5.453223e+01
  -3.614899e-01  -2.334721e+02
   2.839196e+02  -3.692722e+02
   4.117260e+02  -1.482136e+02
   2.157863e+02   9.536265e+01
   5.867730e+01   3.865720e+02
  -1.279012e+02   3.380152e+02
  -7.677131e+01   1.273127e+02
  -1.451868e+01   5.252851e+01
  -8.013735e+01   8.815114e+01
  -1.918142e+02   8.188449e+01
  -2.653116e+02  -9.653107e+01
  -1.252200e+02  -2.391850e+02
   1.021979e+02  -2.116953e+02
   2.247439e+02   5.332862e+01
   1.400888e+02   2.066694e+02
  -1.116934e+02   2.377770e+02
  -2.506917e+02   7.761785e+01
  -2.904101e+02  -1.336343e+02
  -1.195518e+02  -3.324603e+02
   1.387747e+02  -2.626128e+02
   2.205395e+02  -1.146646e+02
   1.275026e+02  -4.762486e+01
   1.072360e+02  -5.354729e+01
   2.563500e+02  -3.977373e+01
   4.147295e+02   1.850361e+02
   3.080470e+02   3.392873e+02
  -4.822538e+01   4.366362e+02
  -2.072810e+02   4.009525e+02
  -4.385689e+02   1.619982e+02
  -2.856561e+02  -1.382029e+02
  -4.722176e+01  -2.663810e+02
   1.209691e+02  -2.238130e+02
   6.414097e+01  -3.137289e+01
  -1.150315e+02   8.010144e+01
  -1.588989e+02  -1.584627e+01
  -3.267493e+01  -2.007830e+02
   1.570210e+02  -1.550991e+02
   1.257374e+02   5.596573e+01
  -1.644618e+01   1.486199e+02
  -1.798604e+02   9.095205e+00
  -1.492733e+02  -2.190860e+02
   3.550709e+01  -3.402386e+02
   2.419850e+02  -1.640961e+02
   3.032471e+02   4.314567e+01
   2.511873e+02   2.757127e+02
   4.936205e+01   2.832727e+02
  -1.158287e+02   1.430256e+02
  -1.645474e+02   1.146103e+01
  -5.075351e+01  -2.949688e+01
   4.929939e+01   5.849062e+01
  -5.537025e+00   1.101411e+02
  -1.270652e+02   8.035285e+01
  -1.628112e+02  -1.826808e+01
  -4.991240e+01  -7.774532e+01
   7.518209e+01  -6.532795e+00
   3.522179e+01   8.474281e+01
  -1.490901e+02   9.180360e+01
  -2.509021e+02  -3.005816e+01
  -2.393188e+02  -1.553425e+02
  -3.947148e+01  -2.079781e+02
   2.279932e+02  -2.160589e+02
   2.757680e+02  -1.299766e+02
   1.393701e+02   6.695156e+01
  -4.814883e+01   9.801134e+01
  -8.462885e+01  -2.163971e+01
   2.823175e+01  -8.826084e+01
   1.954757e+02  -5.607659e+01
   2.062667e+02   1.508660e+02
   5.532265e+01   1.808963e+02
  -1.063222e+02   1.445676e+02
  -1.402298e+02   5.793743e+00
  -5.366468e+01  -3.334208e+01
   3.301136e+01  -1.564898e+00
   2.940735e+01   1.084515e+02
  -8.014787e+01   1.167944e+02
  -2.231046e+02   5.214955e+00
  -1.837288e+02  -1.435716e+02
   2.640874e+01  -2.186081e+02
   2.024778e+02  -1.498314e+02
   1.588681e+02   2.002977e+01
   6.042509e+01   1.183785e+02
  -6.487467e+01   9.012473e+01
  -7.209092e+01   2.658336e+01
  -1.281991e+01  -2.568705e+01
   2.909985e+01  -1.252557e+01
  -8.224440e+00   1.455152e+01
  -7.144675e+01  -2.001498e+01
  -6.292649e+01  -9.266338e+01
  -8.031509e-02  -1.728106e+02
   1.702652e+02  -1.420240e+02
   2.395203e+02  -3.668818e+01
   1.902551e+02   1.692568e+02
   5.492018e+01   2.422968e+02
  -1.062055e+02   1.402996e+02
  -1.164368e+02   3.758390e+01
  -6.736595e+01  -5.401065e+01
  -2.923683e+01  -3.935629e+01
  -5.222729e+01   1.050056e+01
  -7.905753e+01  -2.898933e+00
  -4.353569e+01  -5.292507e+01
   3.802478e+01  -9.295263e+01
   1.159851e+02  -4.223949e+01
   8.480833e+01   3.370413e+01
  -2.076399e+01   1.117529e+02
  -1.385737e+02   8.621772e+01
  -2.095891e+02  -8.650020e+01
  -6.846841e+01  -2.304842e+02
   1.115483e+02  -2.436338e+02
   2.396803e+02  -6.268467e+01
   2.422863e+02   6.414001e+01
   8.254088e+01   1.611681e+02
  -4.353828e+01   1.428090e+02
  -1.048854e+02   7.048889e+01
  -6.751776e+01   7.292506e+01
  -7.289916e+01   8.878745e+01
  -8.797625e+01   6.432937e+01
  -1.221567e+02  -1.924275e+01
  -1.261403e+02  -1.559719e+02
  -5.342554e+01  -2.079220e+02
   1.046476e+02  -1.626872e+02
   1.843806e+02  -8.970977e+00
   1.260234e+02   1.411311e+02
   8.857800e+00   1.256121e+02
  -6.172985e+01   7.631603e+01
  -5.420691e+01   4.492586e+00
   2.155381e-01  -5.616675e+01
   1.580686e+01  -3.682606e+01
  -3.079081e+01  -1.343271e+01
  -7.334732e+01  -1.912361e+01
  -4.400830e+01  -3.180622e+01
   5.938551e+01  -3.155796e+01
   1.568525e+02   7.588236e+00
   1.545542e+02   5.835365e+01
   1.389288e+01   8.961464e+01
  -1.572294e+02   7.157159e+01
  -1.169565e+02   1.496235e+01
  -4.871947e+01  -4.596639e+01
   6.555886e+01  -3.814063e+01
   7.312279e+01   1.922897e+01
   1.652543e+00   6.735394e+01
  -4.632883e+01   5.823619e+01
  -5.854025e+01   1.427043e+00
  -5.117712e+01  -4.607079e+01
  -3.584858e+01  -4.711821e+01
  -6.034307e+01  -1.869959e+00
  -6.571768e+01  -1.380880e+00
  -3.932374e+01  -6.128851e+01
   2.625058e+01  -1.517953e+02
   1.126703e+02  -1.424241e+02
   1.487675e+02  -4.903290e+01
   1.016350e+02   9.689535e+01
  -1.744082e+01   1.195563e+02
  -8.604649e+01   6.693584e+01
  -6.388848e+01  -1.370546e+01
   5.899204e+01  -1.772404e+01
   1.335670e+02   5.003839e+01
   8.668745e+01   8.805278e+01
  -1.019775e+02   1.179794e+02
  -1.862118e+02   4.350061e+01
  -1.645498e+02  -5.633921e+01
  -3.416243e+01  -7.691861e+01
   6.899758e+01  -5.255835e+01
   5.286628e+01   7.617365e-01
  -3.868020e+01   2.800876e+01
  -9.193664e+01  -1.612241e+01
  -3.524700e+01  -1.050167e+02
   9.996091e+01  -1.535846e+02
   1.528658e+02  -4.804403e+01
   1.270914e+02   8.609329e+01
   1.429073e+01   1.999795e+02
  -1.012926e+02   1.375040e+02
  -1.055924e+02  -2.339063e+01
  -4.706928e+01  -1.223172e+02
  -3.238863e+00  -1.009278e+02
   5.948369e+01  -7.157452e+00
   4.675713e+01   3.142722e+01
   2.039901e+01   6.249809e+00
   4.257104e+00  -1.850148e+01
   2.109501e+01   2.208732e+01
   6.023240e+01   6.512925e+01
   2.522115e+01   1.054973e+02
  -5.403012e+01   3.829294e+01
  -1.243703e+02  -3.904666e+01
  -1.217498e+02  -6.367751e+01
  -2.009963e+01  -4.875623e+01
   8.359263e+01  -7.766565e+00
   8.238653e+01  -1.608845e+01
   1.015043e+01   6.506817e+00
  -3.568979e+01   1.807746e+01
  -1.472152e+01   1.581238e+01
   1.856958e+01  -6.005462e-01
  -4.084051e+00  -6.407191e+00
  -5.951330e+01  -5.059929e+00
  -9.760487e+01  -3.099004e+01
  -1.446104e+01  -8.324238e+01
   1.176164e+02  -1.117361e+02
   2.047471e+02  -4.357903e+01
   1.332433e+02   7.333542e+01
   4.254385e+01   1.541695e+02
  -6.526901e+01   1.246578e+02
  -1.123923e+02   6.161600e+01
  -7.907504e+01  -1.832398e+01
  -2.440287e+01  -4.137277e+01
   8.547505e-01  -1.265485e+01
  -1.019966e+01  -8.892270e+00
  -2.743480e+01  -4.666797e+01
  -2.004677e+01  -7.964590e+01
   2.543136e+01  -7.132313e+01
   7.491566e+01   2.864569e+01
   5.615399e+01   1.010716e+02
   8.586940e+00   1.028153e+02
  -8.594894e+01   2.047381e+01
  -9.037847e+01  -6.882995e+01
  -3.646330e+01  -9.025756e+01
   7.448328e+01  -4.697541e+01
   1.016107e+02   1.342248e+01
   4.068177e+01   5.952725e+01
  -3.314124e+01   4.854277e+01
  -3.323801e+01   3.280982e+01
   2.948101e+01  -4.296000e+00
   6.551454e+01   1.610513e+00
   1.438085e+01   2.423097e+01
  -8.061074e+01   5.795487e+01
  -1.314152e+02   4.128009e+01
  -6.364981e+01  -1.619369e+01
   1.837896e+01  -7.419799e+01
   5.283215e+01  -7.324379e+01
   3.682553e+01  -9.482616e+00
   1.759717e+00   5.299901e+01
  -2.377337e+01   3.831254e+01
  -3.578659e+01  -1.665621e+01
  -2.362882e+01  -5.544977e+01
   6.012688e+00  -3.480803e+01
   3.196502e+01   5.549455e+00
   3.551187e+01   1.883384e+01
   2.122980e+01   4.208833e+00
  -3.950021e+00  -1.793829e+01
  -8.435917e+00  -2.418008e+00
  -1.130699e+00   3.258624e+01
  -6.796650e+00   3.966301e+01
  -2.497529e+01   1.273483e+01
  -3.216943e+01  -3.364366e+01
  -9.687798e+00  -5.729560e+01
   4.217498e+01  -1.915949e+01
   5.438748e+01   3.687923e+01
   1.398073e+01   4.840887e+01
  -6.121380e+01   2.547751e+01
  -9.029362e+01  -2.077487e+01
  -5.139625e+01  -3.612474e+01
   2.718167e+01  -4.290606e+01
   5.876455e+01  -2.672540e+01
   2.613708e+01  -5.028379e+00
  -2.568391e+01  -4.498024e-01
  -3.303875e+01  -1.687496e+01
   2.976501e+01  -2.227699e+01
   8.507503e+01  -1.569498e+01
