
 $NMID
 id='ANONYMOUS ', fmtdat='(2E16.6)'
 volume=1.0
 tramp=1.0
 $END
  -3.726530e+03  -5.290830e+02
  -1.879174e+03  -1.957135e+03
   4.243896e+02  -1.915666e+03
   1.400323e+03  -7.563802e+02
   8.684935e+02  -1.778035e+02
  -3.798105e+02   1.509041e+02
  -3.422307e+02  -3.180967e+02
   2.959763e+01  -6.677396e+02
   7.443016e+02  -5.911727e+02
   7.991635e+02   2.265737e+02
   3.080960e+02   6.204079e+02
  -5.700225e+01   6.347896e+02
  -4.447010e+02   2.819135e+01
  -1.525765e+02  -6.071896e+02
   3.230609e+02  -5.331184e+02
   4.281256e+02   1.762125e+01
   2.227011e+02   5.180037e+02
  -2.663258e+02   6.069609e+02
  -4.834958e+02   1.693092e+02
  -3.666866e+02  -3.106965e+02
  -1.015698e+02  -3.178813e+02
   2.189982e+02  -2.112312e+02
   8.238531e+01  -1.746929e+01
  -2.139837e+02  -6.848010e+01
  -3.607447e+02  -2.691369e+02
   7.359018e+01  -4.617784e+02
   4.437530e+02  -2.785017e+02
   6.386914e+02   2.112095e+02
   2.101000e+02   4.811364e+02
  -3.367286e+02   2.303430e+02
  -6.105598e+02  -3.243202e+02
  -1.515008e+02  -4.102352e+02
   3.712075e+02  -4.072760e+02
   5.352842e+02  -1.442008e+02
   2.887673e+02   2.492099e+02
  -7.109842e+00   3.341803e+02
  -9.093891e+01   1.853562e+02
   7.151066e+01  -1.346242e+02
   3.376080e+02  -2.529673e+02
   3.135489e+02   1.069653e+02
   4.502437e+00   6.706479e+02
  -4.474765e+02   4.823114e+02
  -4.531894e+02  -1.152790e+02
  -9.209850e+01  -4.573608e+02
   2.091173e+02  -1.702131e+02
   2.389303e+02   3.417775e+02
  -1.422965e+02   3.784487e+02
  -4.144984e+02   5.165677e+01
  -4.753368e+02  -4.073976e+02
  -1.438823e+02  -5.196445e+02
   4.278440e+02  -2.245742e+02
   5.585691e+02   1.262323e+02
   2.787678e+02   3.523221e+02
  -1.136810e+02   2.508087e+02
  -3.463083e+02   3.208134e+01
  -1.985894e+02  -8.586364e+01
   3.966536e+01  -5.090515e+01
   4.863387e+01   1.053708e+02
  -1.806580e+02   7.819064e+01
  -2.940710e+02  -9.620433e+01
  -8.166666e+01  -2.336238e+02
   1.976154e+02  -2.252438e+02
   3.357337e+02  -9.837590e+01
   2.457777e+02   8.452631e+01
   9.718971e-01   3.043003e+02
  -2.577749e+02   3.131065e+02
  -3.790134e+02   1.411163e+02
  -2.342602e+02  -1.415308e+02
   7.364286e+00  -3.542522e+02
   9.197097e+01  -3.068380e+02
   1.682958e+01  -1.197676e+02
  -4.066336e+00  -1.000734e+02
   1.358640e+02  -9.359537e+01
   2.663043e+02  -7.813491e+01
   2.618975e+02   1.452806e+02
   1.184926e+02   2.754816e+02
  -1.186881e+02   1.912644e+02
  -2.229255e+02  -7.668092e+01
  -1.556321e+02  -2.481503e+02
   8.634076e+01  -2.691442e+02
   2.576980e+02  -6.732571e+01
   3.161136e+02   2.211662e+02
   1.094293e+02   2.993595e+02
  -1.105450e+02   2.835362e+02
  -1.864641e+02   1.265295e+02
  -1.483916e+02   6.987686e+01
  -1.312033e+02   5.031749e+01
  -2.695242e+02   3.608767e+01
  -4.600611e+02  -1.401998e+02
  -3.133976e+02  -3.592154e+02
   5.600308e+01  -4.093942e+02
   4.226543e+02  -4.140739e+02
   4.693184e+02  -1.785005e+02
   3.059632e+02   1.321632e+02
   1.312271e+01   2.544116e+02
  -1.054611e+02   1.848894e+02
  -3.075924e+01   2.436621e+00
   1.542691e+02  -4.813915e+01
   1.570755e+02   4.074807e+01
  -9.683471e+00   1.604372e+02
  -1.354162e+02   8.984462e+01
  -1.324177e+02  -4.842548e+01
   4.365991e+01  -1.439987e+02
   1.719984e+02   2.048056e+00
   1.391504e+02   2.121550e+02
  -5.385690e+01   3.876879e+02
  -2.673465e+02   1.560940e+02
  -3.297596e+02  -7.408282e+01
  -2.685253e+02  -2.945569e+02
  -4.006394e+01  -3.029199e+02
   1.494837e+02  -1.331975e+02
   1.606421e+02  -1.269205e+01
   4.278949e+01   3.120057e+01
  -5.330322e+01  -7.526104e+01
   9.142547e+00  -1.164557e+02
   1.287130e+02  -6.456704e+01
   1.607073e+02   3.455479e+01
   4.133292e+01   8.319019e+01
  -8.595722e+01  -7.916684e+00
  -3.859042e+01  -9.427750e+01
   1.283350e+02  -9.599507e+01
   2.784073e+02   3.850885e+01
   2.534656e+02   1.665231e+02
   3.216478e+01   2.566075e+02
  -2.591321e+02   2.189811e+02
  -3.007065e+02   1.006888e+02
  -1.444583e+02  -7.414147e+01
   5.167189e+01  -1.039323e+02
   8.520529e+01   2.290975e+01
  -5.053544e+01   9.586401e+01
  -2.078714e+02   6.827507e+00
  -1.940407e+02  -1.593331e+02
  -6.177702e+01  -1.942643e+02
   1.341262e+02  -1.533081e+02
   1.526255e+02  -9.703812e+00
   4.775792e+01   5.198127e+01
  -5.774078e+01  -3.523386e+00
  -2.765336e+01  -1.075208e+02
   8.560860e+01  -1.292088e+02
   2.230940e+02   1.268139e+01
   1.725094e+02   1.366522e+02
  -1.798162e+01   2.199754e+02
  -2.110726e+02   1.313090e+02
  -1.771779e+02  -2.818805e+00
  -4.936556e+01  -1.144110e+02
   7.034154e+01  -9.539757e+01
   7.241301e+01  -3.194127e+01
   5.042141e+00   2.877251e+01
  -3.863541e+01   1.494563e+01
   9.934683e+00  -2.201209e+01
   8.017508e+01  -2.091298e+00
   1.031136e+02   9.923791e+01
  -5.130404e+00   1.903649e+02
  -1.696540e+02   1.476601e+02
  -2.765206e+02   2.076651e+01
  -1.850916e+02  -1.959413e+02
  -2.323904e+01  -2.651785e+02
   1.265602e+02  -1.642574e+02
   1.237296e+02  -2.148087e+01
   6.620050e+01   5.904100e+01
   2.801084e+01   4.032970e+01
   5.264356e+01  -8.166555e+00
   9.229227e+01  -4.143647e+00
   4.984686e+01   5.599428e+01
  -3.238119e+01   9.175034e+01
  -1.273673e+02   6.763347e+01
  -9.882327e+01  -4.121333e+01
   3.142946e+01  -1.210859e+02
   1.667389e+02  -7.512732e+01
   2.033591e+02   7.907929e+01
   5.167872e+01   2.537703e+02
  -1.419123e+02   2.197526e+02
  -2.843701e+02   5.080925e+01
  -2.433657e+02  -9.208344e+01
  -8.953921e+01  -1.748260e+02
   5.601329e+01  -1.397859e+02
   1.028598e+02  -7.280045e+01
   7.191578e+01  -6.659862e+01
   6.765272e+01  -8.789745e+01
   8.984603e+01  -6.832172e+01
   1.340253e+02   2.526514e+01
   1.274913e+02   1.410441e+02
   3.492320e+01   2.191944e+02
  -1.403799e+02   1.620311e+02
  -1.818618e+02   9.432617e+00
  -1.187478e+02  -1.397315e+02
   5.382248e+00  -1.644562e+02
   9.551330e+01  -7.987872e+01
   6.709754e+01   6.309622e+00
  -3.945741e+00   5.349453e+01
  -2.663117e+01   4.196122e+01
   2.830897e+01   1.945422e+01
   7.225683e+01   1.349821e+01
   4.947339e+01   4.583114e+01
  -6.916267e+01   4.367804e+01
  -1.639325e+02   4.648587e+00
  -1.477744e+02  -5.496660e+01
  -4.436270e+00  -1.011036e+02
   1.269326e+02  -7.769851e+01
   1.495701e+02  -6.711042e+00
   4.879286e+01   5.333064e+01
  -5.704839e+01   4.469475e+01
  -8.030730e+01  -2.217313e+01
  -4.886852e+00  -7.975458e+01
   4.704415e+01  -6.261178e+01
   5.688948e+01  -2.702676e+00
   5.061175e+01   4.758419e+01
   3.933234e+01   5.247526e+01
   6.159451e+01   8.020401e+00
   7.127126e+01   3.651516e+00
   3.635177e+01   6.590667e+01
  -2.230263e+01   1.441435e+02
  -1.369757e+02   1.735426e+02
  -1.632926e+02   3.273183e+01
  -1.192236e+02  -1.052143e+02
  -4.242005e+00  -1.461658e+02
   1.044236e+02  -6.124100e+01
   6.263233e+01   1.592978e+01
  -6.010689e+01   1.577054e+01
  -1.273779e+02  -4.613899e+01
  -6.685618e+01  -9.792214e+01
   1.046196e+02  -1.106605e+02
   2.238339e+02  -6.097367e+01
   1.563638e+02   5.556347e+01
   3.640112e+01   8.204025e+01
  -6.269919e+01   5.427305e+01
  -5.178613e+01  -3.571398e+00
   4.046397e+01  -3.353165e+01
   8.625595e+01   2.277051e+01
   4.628502e+01   1.242673e+02
  -8.581879e+01   1.325577e+02
  -1.545511e+02   5.125397e+01
  -1.322364e+02  -8.594409e+01
  -6.116374e+00  -2.059320e+02
   1.180751e+02  -1.339702e+02
   9.941309e+01   1.536257e+01
   4.800904e+01   1.528023e+02
  -1.659785e+01   1.029848e+02
  -5.486382e+01   8.851529e+00
  -4.455693e+01  -3.522353e+01
  -1.912415e+01  -9.427898e+00
  -6.704051e+00   1.775098e+01
  -3.218388e+01  -1.562484e+01
  -5.625587e+01  -7.317705e+01
  -2.675568e+01  -1.305609e+02
   6.881913e+01  -4.130269e+01
   1.384831e+02   5.405196e+01
   1.164725e+02   7.829259e+01
   1.275085e+01   5.866838e+01
  -8.333627e+01   1.953776e+01
  -9.179548e+01   1.023019e+01
  -1.737912e+01  -8.312583e+00
   3.621109e+01  -1.918623e+01
   1.796733e+01  -1.377921e+01
  -1.750151e+01   5.085196e-01
   2.403581e+00   6.443647e+00
   6.188152e+01   2.750847e+00
   9.695439e+01   2.507157e+01
   1.823046e+01   8.042296e+01
  -1.048899e+02   1.186092e+02
  -1.895241e+02   4.281847e+01
  -1.431655e+02  -9.951100e+01
  -3.591641e+01  -1.561493e+02
   8.572027e+01  -1.347921e+02
   1.354162e+02  -6.222199e+01
   6.983411e+01   2.435338e+01
   2.364734e+01   4.520044e+01
   3.074408e+00   1.370148e+01
   1.342457e+01   9.146692e+00
   2.631198e+01   5.304894e+01
   1.891277e+01   9.032141e+01
  -3.476704e+01   7.549512e+01
  -8.263449e+01  -2.964661e+01
  -6.433759e+01  -1.034623e+02
  -1.299670e+01  -9.932222e+01
   6.979166e+01  -2.479964e+01
   1.068599e+02   7.816427e+01
   4.021540e+01   8.864461e+01
  -7.738644e+01   4.898065e+01
  -9.882636e+01  -1.338215e+01
  -4.313383e+01  -6.357849e+01
   4.107246e+01  -5.643949e+01
   4.219106e+01  -3.354598e+01
  -2.406492e+01   6.955802e+00
  -7.234929e+01   1.706201e+00
  -1.406875e+01  -2.687365e+01
   7.327000e+01  -5.105087e+01
   1.228101e+02  -5.468604e+01
   6.723154e+01   1.822469e+01
  -2.360432e+01   8.381143e+01
  -6.005570e+01   7.270261e+01
  -3.891923e+01   1.160353e+01
  -1.867673e+00  -5.680341e+01
   2.516945e+01  -4.601671e+01
   3.723108e+01   1.774812e+01
   2.502835e+01   6.215867e+01
   9.294028e-02   4.408776e+01
  -3.231261e+01  -7.899254e+00
  -4.359384e+01  -2.643725e+01
  -2.205345e+01  -3.059869e+00
   5.611685e-01   1.969562e+01
   1.300995e+01   4.230261e+00
  -2.389251e+00  -2.939259e+01
   4.484541e+00  -4.686473e+01
   2.446940e+01  -1.560431e+01
   2.707867e+01   3.789628e+01
   8.465306e+00   5.013456e+01
  -4.587257e+01   2.320692e+01
  -5.783035e+01  -2.972691e+01
  -1.520246e+01  -4.998780e+01
   6.004852e+01  -3.017991e+01
   1.020563e+02   1.787301e+01
   5.417594e+01   4.549390e+01
  -2.383647e+01   4.373200e+01
  -6.339017e+01   2.332527e+01
  -2.284500e+01   8.551939e+00
   2.797721e+01   1.004400e+00
   3.078673e+01   1.333915e+01
  -2.679962e+01   2.296719e+01
  -7.218560e+01   4.935433e+00
