
 $NMID
 id='ANONYMOUS ', fmtdat='(2E16.6)'
 volume=1.0
 tramp=1.0
 $END
  -3.060859e+03  -1.053198e+02
  -1.711114e+03  -1.729969e+03
   3.595541e+02  -1.805135e+03
   1.570786e+03  -6.750913e+02
   5.275753e+02   5.025873e+02
  -4.293821e+02   3.797842e+02
  -6.553663e+02  -4.583467e+02
   1.224574e+02  -7.207046e+02
   7.285031e+02  -4.351336e+02
   6.918197e+02   2.230320e+02
   2.046106e+02   5.905520e+02
  -1.913186e+02   5.900592e+02
  -5.059150e+02   7.375288e+00
  -2.066541e+02  -6.091241e+02
   3.629918e+02  -6.139075e+02
   4.172846e+02   3.851047e+01
   2.192529e+02   5.218853e+02
  -2.920054e+02   4.112236e+02
  -4.105213e+02   5.269289e+01
  -2.257439e+02  -3.745390e+02
  -3.475633e+01  -2.973993e+02
   2.015430e+02  -1.713005e+02
   1.224334e+02  -1.519671e+01
  -7.263809e+01   5.187007e+01
  -2.702440e+02  -1.143659e+02
  -7.771815e+01  -3.424662e+02
   3.296942e+02  -2.739979e+02
   5.589989e+02   2.767316e+01
   3.520752e+02   5.160339e+02
  -2.402837e+02   2.758419e+02
  -5.649047e+02  -1.817853e+02
  -2.710359e+02  -3.721656e+02
   2.853425e+02  -3.158592e+02
   3.951943e+02  -9.951090e+01
   2.574397e+02   2.278886e+02
  -2.077067e+01   3.756646e+02
  -1.528276e+02   1.768355e+02
  -1.399561e+02  -2.514051e+02
   2.029430e+02  -2.952894e+02
   2.914627e+02   3.872018e+01
   1.670476e+01   4.812376e+02
  -2.625210e+02   5.499094e+02
  -4.690632e+02  -1.164995e+02
  -1.389747e+02  -4.310539e+02
   1.930607e+02  -2.496778e+02
   2.949633e+02   2.024720e+02
  -1.050123e+02   4.084704e+02
  -3.716683e+02   7.688724e+01
  -3.984692e+02  -2.171894e+02
  -8.756147e+01  -3.980124e+02
   3.259526e+02  -2.300817e+02
   4.260055e+02   7.063830e+01
   2.306630e+02   3.836876e+02
  -1.157188e+02   2.604445e+02
  -3.808392e+02   8.170598e+00
  -1.719727e+02  -1.991590e+02
   1.028626e+02  -9.834826e+01
   1.027581e+02   1.554918e+02
  -1.312596e+02   1.295970e+02
  -2.475434e+02  -9.142942e+01
  -8.491319e+01  -2.221950e+02
   2.100437e+02  -1.284635e+02
   2.728720e+02   3.785393e-01
   9.986174e+01   1.142390e+02
  -1.256480e+01   1.718088e+02
  -2.360880e+02   2.526780e+02
  -2.636802e+02   1.157097e+02
  -2.255409e+02  -1.143360e+02
  -3.682589e+01  -2.969316e+02
   1.344321e+02  -2.922372e+02
   9.965853e+01  -8.635868e+01
  -2.342743e+01   4.318955e+00
   5.500029e+00  -3.266447e+01
   1.440709e+02  -6.833140e+01
   2.101650e+02   5.599761e+01
   1.031360e+02   1.741507e+02
  -5.341941e+01   1.629789e+02
  -1.931465e+02  -2.086630e+01
  -1.226394e+02  -1.653099e+02
   5.962251e+01  -2.362444e+02
   1.829090e+02  -8.132339e+01
   2.557603e+02   1.601157e+02
   1.113061e+02   2.622964e+02
  -1.194085e+02   2.134676e+02
  -1.796987e+02   6.592950e+01
  -1.300469e+02  -1.731700e+01
  -9.616363e+01  -1.524852e+01
  -1.652138e+02   7.737525e+00
  -2.697145e+02  -8.190356e+01
  -2.063355e+02  -2.715953e+02
   2.592799e+01  -3.117696e+02
   2.811946e+02  -2.674452e+02
   3.000602e+02  -1.494980e+02
   2.251258e+02   9.904522e+01
   2.663743e+01   1.818977e+02
  -1.263659e+02   1.771057e+02
  -6.588657e+01   2.429757e+01
   5.299690e+01  -7.969419e+01
   1.426134e+02  -6.059891e+00
   3.551561e+01   1.329532e+02
  -1.221259e+02   1.006421e+02
  -1.177400e+02  -4.976576e+01
   2.776906e+00  -1.243188e+02
   1.582872e+02  -3.818194e+01
   9.867808e+01   1.577494e+02
  -8.514727e+01   2.815993e+02
  -1.996772e+02   1.105209e+02
  -2.193597e+02  -6.279920e+01
  -1.804202e+02  -1.739876e+02
  -2.028084e+01  -2.205569e+02
   7.521946e+01  -9.510784e+01
   1.145838e+02  -1.162559e+01
   4.032152e+01   3.590170e+01
  -4.078491e+01  -3.489395e+01
  -9.642993e+00  -7.584742e+01
   8.692744e+01  -5.174142e+01
   1.049303e+02   6.762216e+00
   3.242302e+01   6.036508e+01
  -5.328218e+01  -1.632223e-01
  -3.676409e+01  -4.451507e+01
   6.725342e+01  -7.706212e+01
   1.844607e+02   4.281100e+01
   1.658826e+02   1.331162e+02
   3.076280e+01   1.836697e+02
  -1.799613e+02   1.717067e+02
  -2.234940e+02   7.655747e+01
  -1.260322e+02  -6.103653e+01
   3.806420e+01  -7.470812e+01
   7.382380e+01   2.068372e+00
  -2.179907e+01   6.955161e+01
  -1.568812e+02   1.413699e+01
  -1.346652e+02  -1.135458e+02
  -4.009682e+01  -1.401668e+02
   1.015485e+02  -8.915884e+01
   9.557172e+01  -1.496346e+01
   3.741080e+01   3.404743e+01
  -1.236940e+01   1.426421e+00
  -2.279197e+01  -5.628405e+01
   5.081011e+01  -6.654206e+01
   1.556295e+02   3.001732e+01
   1.507199e+02   1.283632e+02
  -2.569836e+00   1.448985e+02
  -1.463216e+02   9.011132e+01
  -1.363056e+02  -1.621495e+01
  -3.810678e+01  -9.334581e+01
   4.414830e+01  -7.109162e+01
   5.592235e+01  -2.008554e+01
   1.554074e+01   2.555768e+01
  -1.603728e+01   1.048573e+01
   5.461599e+00  -3.797018e+00
   5.260488e+01   2.094988e+01
   5.779872e+01   8.135079e+01
  -1.109649e+01   1.235623e+02
  -1.200285e+02   8.267009e+01
  -1.557380e+02   1.887829e+01
  -1.439824e+02  -1.221606e+02
  -3.575418e+01  -1.735171e+02
   7.143042e+01  -9.688812e+01
   1.067497e+02  -1.032859e+01
   4.544935e+01   4.603074e+01
   1.483423e+01   3.079685e+01
   4.073897e+01  -6.089400e-01
   5.854350e+01   6.284632e+00
   1.128004e+01   3.569606e+01
  -3.392858e+01   6.304041e+01
  -8.368296e+01   1.620970e+01
  -5.426643e+01  -3.737174e+01
   3.401146e+01  -6.835304e+01
   1.006448e+02  -4.460300e+01
   1.392518e+02   6.296913e+01
   4.659691e+01   1.518647e+02
  -4.236529e+01   1.501471e+02
  -1.986771e+02   4.729924e+01
  -1.696725e+02  -1.015236e+02
  -7.248335e+01  -1.140003e+02
   4.063668e+01  -8.263015e+01
   8.040312e+01  -4.130578e+01
   5.260223e+01  -5.123516e+01
   4.181144e+01  -5.623747e+01
   8.000159e+01  -4.295802e+01
   9.262434e+01   4.261816e+01
   7.085649e+01   1.097865e+02
   5.952473e+00   1.399355e+02
  -8.679879e+01   1.083838e+02
  -1.257835e+02   2.109022e+01
  -6.596027e+01  -8.932962e+01
  -7.283602e+00  -1.169219e+02
   4.700315e+01  -5.368767e+01
   4.394415e+01   2.582809e-01
  -6.203156e+00   3.170921e+01
  -1.359043e+01   2.793757e+01
   2.675468e+01   1.971359e+01
   5.092662e+01   2.297827e+01
   3.069782e+01   3.264353e+01
  -3.791454e+01   1.972019e+01
  -1.025434e+02  -4.142752e+01
  -8.864877e+01  -4.471778e+01
   3.814325e+00  -5.490829e+01
   9.472337e+01  -3.028703e+01
   9.660189e+01  -6.542816e+00
   3.513938e+01   3.074334e+01
  -4.406626e+01   2.388251e+01
  -5.156316e+01  -2.223276e+01
   3.324045e+00  -4.983923e+01
   3.977882e+01  -3.453998e+01
   4.444572e+01   4.154393e+00
   2.655864e+01   4.005146e+01
   3.111541e+01   3.498421e+01
   3.973160e+01   3.101147e+00
   4.262089e+01   8.424865e+00
   9.737685e+00   4.530969e+01
  -3.797630e+01   9.267782e+01
  -9.244707e+01   9.506529e+01
  -1.165755e+02   4.745934e+00
  -7.634057e+01  -1.033220e+02
   1.830551e+01  -8.502150e+01
   6.610090e+01  -4.221833e+01
   3.995076e+01   1.635359e+01
  -4.523323e+01   5.514413e+00
  -8.631463e+01  -4.100367e+01
  -3.588902e+01  -7.929607e+01
   7.843408e+01  -7.408088e+01
   1.552308e+02  -8.158005e+00
   1.152689e+02   3.777300e+01
   2.012298e+01   5.705622e+01
  -4.704223e+01   3.635430e+01
  -4.300623e+01  -1.505122e+00
   3.050032e+01  -1.665035e+01
   6.318121e+01   2.671719e+01
   1.874688e+01   9.044359e+01
  -9.668986e+01   9.894084e+01
  -1.265022e+02   2.173722e+01
  -9.153305e+01  -6.297273e+01
   3.592042e+01  -1.584499e+02
   7.507100e+01  -1.009377e+02
   7.790718e+01   1.091346e+01
   2.294918e+01   1.018815e+02
   8.498094e+00   7.193292e+01
  -3.277229e+01   1.022332e+01
  -3.144098e+01  -2.119821e+01
  -1.762494e+01  -6.164901e+00
  -5.577192e+00   1.256848e+01
  -1.119069e+01  -1.223786e+01
  -2.899856e+01  -7.550613e+01
  -2.391460e+01  -8.855501e+01
   4.028850e+01  -2.624426e+01
   8.770095e+01   3.787941e+01
   8.868859e+01   3.857327e+01
   4.955376e+00   4.253159e+01
  -6.366900e+01   4.814580e+00
  -6.279757e+01   3.293975e+00
  -9.119784e+00  -4.491332e+00
   2.726276e+01  -8.821689e+00
   7.577075e+00  -1.007291e+01
  -1.799503e+01  -2.942799e+00
   4.531690e+00   5.683465e+00
   4.963310e+01   7.502445e+00
   5.959009e+01   3.027726e+01
  -6.889846e+00   5.630257e+01
  -8.318832e+01   7.019375e+01
  -1.404363e+02   2.635163e+01
  -1.029784e+02  -7.866622e+01
  -2.844020e+00  -9.369089e+01
   5.841049e+01  -1.185331e+02
   8.186528e+01  -3.776750e+01
   4.800946e+01   1.750158e+01
   1.616383e+01   2.645844e+01
  -3.983713e+00   3.926334e+00
   6.771380e+00   4.479290e+00
   1.556567e+01   3.195027e+01
   9.723070e+00   6.223866e+01
  -3.305404e+01   5.366050e+01
  -5.232641e+01  -1.981869e+01
  -4.875685e+01  -8.311476e+01
   1.301432e+01  -7.733378e+01
   6.151844e+01  -1.315569e+01
   5.890140e+01   6.588769e+01
   8.532220e+00   8.250871e+01
  -5.902429e+01   2.660424e+01
  -6.505406e+01  -1.391102e+01
  -2.867480e+01  -3.758345e+01
   2.874904e+01  -3.513772e+01
   1.924462e+01  -1.826549e+01
  -2.510848e+01  -2.641151e+00
  -4.870884e+01  -9.019711e+00
  -5.988974e+00  -2.458784e+01
   6.916425e+01  -4.280770e+01
   8.581945e+01  -3.549554e+01
   5.393543e+01   1.030036e+01
  -2.644570e+01   5.385056e+01
  -5.411814e+01   4.659817e+01
  -2.689226e+01  -5.390936e+00
   6.707080e+00  -4.102937e+01
   2.076460e+01  -2.731437e+01
   2.291912e+01   1.587847e+01
   1.891078e+01   3.760140e+01
  -3.848811e+00   2.385616e+01
  -2.397527e+01  -1.152635e+01
  -2.593851e+01  -1.254100e+01
  -1.398400e+01  -3.467072e+00
  -1.772613e+00   8.120801e+00
   5.051157e+00  -2.397633e+00
   1.121133e+01  -2.599180e+01
   2.181660e+01  -2.831836e+01
   1.834940e+01  -6.549780e+00
   1.039482e+01   3.867971e+01
  -5.781296e+00   3.880706e+01
  -3.245033e+01   6.428342e+00
  -4.414174e+01  -3.816064e+01
  -1.203848e+01  -4.431049e+01
   4.145678e+01  -1.428749e+01
   6.346114e+01   4.157967e+01
   3.613781e+01   3.080943e+01
  -2.038388e+01   2.598181e+01
  -5.514571e+01   9.016258e+00
  -2.159173e+01  -1.179860e+00
   2.696311e+01   2.656508e+00
   3.048678e+01   1.704917e+01
  -2.446496e+01   1.907210e+01
  -5.799221e+01   6.916756e+00
