
 $NMID
 id='ANONYMOUS ', fmtdat='(2E16.6)'
 volume=1.0
 tramp=1.0
 $END
  -4.627277e+03   3.367518e+02
  -2.632421e+03  -2.778226e+03
   9.186244e+02  -3.096536e+03
   2.539789e+03  -3.268923e+02
   1.086145e+03   5.813371e+02
  -8.921891e+02   3.668689e+02
  -9.969065e+02  -4.983718e+02
   8.386319e+01  -1.107975e+03
   1.142030e+03  -7.627621e+02
   1.082846e+03   1.789885e+02
   5.569405e+02   9.722873e+02
  -2.227492e+02   9.376353e+02
  -8.152433e+02   1.228472e+02
  -4.015130e+02  -7.588644e+02
   3.526801e+02  -7.898793e+02
   6.849587e+02  -2.986276e+01
   3.081363e+02   6.745097e+02
  -3.074253e+02   6.260411e+02
  -6.596507e+02  -1.063878e+01
  -4.416438e+02  -4.929651e+02
  -2.801656e+00  -4.128253e+02
   2.887282e+02  -2.690613e+02
   2.401125e+02  -1.303245e+00
  -6.662051e+01   6.479215e+01
  -4.343540e+02  -8.767844e+01
  -1.873441e+02  -3.506391e+02
   4.046614e+02  -4.075406e+02
   8.603272e+02   1.083088e+02
   4.242340e+02   6.101612e+02
  -4.176918e+02   5.546578e+02
  -8.476196e+02  -5.068373e+01
  -3.624709e+02  -4.430928e+02
   3.549987e+02  -5.421699e+02
   6.080690e+02  -2.454865e+02
   4.776553e+02   3.394948e+02
   6.130995e+01   4.976321e+02
  -2.415596e+02   3.276348e+02
  -1.439332e+02  -2.888464e+02
   1.185806e+02  -4.826564e+02
   5.245883e+02  -2.520066e+01
   2.504576e+02   8.066632e+02
  -4.291677e+02   7.094649e+02
  -6.470107e+02  -7.507728e+01
  -2.643271e+02  -5.870397e+02
   2.943025e+02  -3.599991e+02
   3.882438e+02   2.644049e+02
  -8.052370e+01   5.927305e+02
  -5.917671e+02   1.042682e+02
  -5.897198e+02  -3.646821e+02
  -2.107050e+02  -6.135155e+02
   4.470369e+02  -3.333309e+02
   6.493876e+02   6.338514e+01
   3.901423e+02   4.436728e+02
  -1.986228e+02   4.454793e+02
  -4.926165e+02   4.345075e+01
  -2.225816e+02  -1.886208e+02
   9.438967e+01  -1.031428e+02
   1.325996e+02   2.094534e+02
  -1.820646e+02   2.182823e+02
  -3.842908e+02  -1.528865e+02
  -9.561005e+01  -3.067916e+02
   2.440350e+02  -2.306157e+02
   3.657544e+02  -5.468619e+01
   1.983577e+02   1.026628e+02
  -3.473235e+01   1.912417e+02
  -2.306880e+02   3.110944e+02
  -3.920661e+02   2.046636e+02
  -2.650735e+02  -1.252370e+02
  -4.738979e+01  -4.245396e+02
   1.951376e+02  -4.147409e+02
   1.362257e+02  -1.219418e+02
   5.956464e+01   2.357811e+01
   3.966319e+01  -9.048431e+01
   1.687048e+02  -1.179444e+02
   2.536970e+02   7.154913e+01
   1.691534e+02   2.611581e+02
  -8.781660e+01   2.382484e+02
  -2.649195e+02   1.092479e+00
  -1.988381e+02  -2.076529e+02
   3.817144e+01  -2.936021e+02
   2.400982e+02  -1.066222e+02
   3.841198e+02   2.057156e+02
   1.889880e+02   3.876671e+02
  -1.501457e+02   3.133277e+02
  -2.782525e+02   9.444917e+01
  -1.631904e+02   1.534049e+00
  -1.012693e+02   1.638578e+01
  -2.397148e+02   4.759726e+01
  -4.429692e+02  -8.799313e+01
  -3.330176e+02  -3.533222e+02
   3.867681e+00  -4.622727e+02
   2.975999e+02  -3.889474e+02
   4.788879e+02  -1.964876e+02
   3.640367e+02   1.049182e+02
   3.182392e+01   2.962603e+02
  -1.587730e+02   2.619973e+02
  -1.006468e+02   5.383405e+01
   1.161674e+02  -1.110792e+02
   2.007721e+02  -3.188072e+01
   7.297973e+01   2.042168e+02
  -1.402277e+02   1.924717e+02
  -1.903067e+02  -8.127073e+01
   7.057043e-01  -1.900182e+02
   2.061148e+02  -1.274118e+01
   1.598893e+02   2.220057e+02
  -9.417876e+01   3.572574e+02
  -2.486332e+02   1.786090e+02
  -3.429488e+02  -6.373281e+01
  -2.410259e+02  -2.957552e+02
  -6.843716e+01  -2.728780e+02
   1.396453e+02  -1.592133e+02
   1.771963e+02  -3.338949e+01
   6.986461e+01   4.691768e+01
  -6.601268e+01  -4.058029e+01
  -3.758744e+01  -1.245189e+02
   1.222151e+02  -1.199953e+02
   1.901101e+02  -4.660354e+00
   5.996333e+01   8.333662e+01
  -8.219432e+01   1.589798e+01
  -5.168115e+01  -7.011137e+01
   1.082045e+02  -1.254762e+02
   2.679171e+02   8.169733e+00
   2.709325e+02   1.532547e+02
   8.449540e+01   2.202001e+02
  -2.562343e+02   2.597878e+02
  -2.988518e+02   9.065725e+01
  -1.803425e+02  -7.240548e+01
   3.431785e+01  -1.134614e+02
   1.044211e+02  -1.196529e+01
  -2.242266e+01   1.062365e+02
  -1.987748e+02   6.572158e+01
  -2.365203e+02  -1.375230e+02
  -8.475795e+01  -1.949709e+02
   1.241924e+02  -1.637509e+02
   1.488738e+02  -2.886640e+01
   7.072543e+01   4.344695e+01
  -2.089101e+01   2.096031e+00
  -3.336799e+01  -8.734707e+01
   7.375408e+01  -1.138962e+02
   2.145342e+02  -1.156203e+01
   1.936834e+02   1.450887e+02
   1.949703e+01   2.375335e+02
  -1.891547e+02   1.514056e+02
  -1.866933e+02  -2.305289e+01
  -6.145296e+01  -1.219453e+02
   6.476891e+01  -1.124258e+02
   8.507179e+01  -3.822880e+01
   2.009162e+01   2.276481e+01
  -1.898254e+01   1.818159e+01
   8.576949e+00  -5.392263e+00
   6.675282e+01   3.548608e+01
   7.150646e+01   1.002711e+02
  -4.897166e+00   1.793514e+02
  -1.391087e+02   1.519002e+02
  -2.169678e+02   2.559029e+01
  -2.072429e+02  -1.713582e+02
  -4.408270e+01  -2.576132e+02
   1.307003e+02  -1.596626e+02
   1.436782e+02  -2.757371e+01
   6.277491e+01   6.781717e+01
   2.423679e+01   4.617692e+01
   5.468856e+01  -1.804503e+00
   7.323351e+01   9.521692e+00
   3.564708e+01   5.916235e+01
  -4.551751e+01   8.393984e+01
  -1.131429e+02   1.962872e+01
  -9.377150e+01  -5.422293e+01
   2.924370e+01  -1.156259e+02
   1.527316e+02  -7.956146e+01
   2.199776e+02   8.494911e+01
   7.570736e+01   2.193270e+02
  -9.540589e+01   2.326929e+02
  -3.039528e+02   7.155583e+01
  -2.705167e+02  -1.059853e+02
  -1.007415e+02  -1.762634e+02
   4.233676e+01  -1.576380e+02
   1.018844e+02  -7.564208e+01
   7.965198e+01  -6.955220e+01
   8.544735e+01  -8.369426e+01
   1.012164e+02  -7.140833e+01
   1.356057e+02   3.633473e+01
   1.140966e+02   1.611922e+02
   2.340941e+01   2.015926e+02
  -1.368796e+02   1.591457e+02
  -1.837475e+02   4.068028e+01
  -1.378336e+02  -1.226109e+02
  -1.087907e+01  -1.366807e+02
   8.123908e+01  -8.844563e+01
   5.269521e+01  -2.073807e+00
  -1.021042e+00   4.432598e+01
  -1.121936e+01   3.018566e+01
   3.671593e+01   2.416360e+01
   7.207978e+01   2.056014e+01
   4.365579e+01   4.367148e+01
  -6.324217e+01   3.904762e+01
  -1.526733e+02  -1.034620e+01
  -1.580727e+02  -5.476537e+01
  -1.405940e+01  -9.614400e+01
   1.197817e+02  -6.291272e+01
   1.373972e+02  -9.810060e-01
   5.234638e+01   3.725284e+01
  -6.123340e+01   3.519433e+01
  -7.928297e+01  -2.104714e+01
   4.965530e+00  -7.460554e+01
   5.901739e+01  -5.623904e+01
   5.551652e+01   9.488858e+00
   4.387735e+01   5.802994e+01
   4.188491e+01   4.880190e+01
   6.259743e+01   5.444453e+00
   6.799025e+01   1.385356e+01
   3.553789e+01   6.579141e+01
  -3.953896e+01   1.614738e+02
  -1.322096e+02   1.232105e+02
  -1.615435e+02   1.430422e+01
  -1.159269e+02  -1.033994e+02
   1.539753e+01  -1.301952e+02
   9.300714e+01  -6.254126e+01
   5.611550e+01   2.112999e+01
  -6.101523e+01   1.363317e+01
  -1.395401e+02  -5.171177e+01
  -8.296400e+01  -9.426285e+01
   9.445254e+01  -1.042297e+02
   1.820810e+02  -4.493857e+01
   1.745159e+02   7.372845e+01
   3.692078e+01   9.420089e+01
  -6.456989e+01   6.849244e+01
  -5.414252e+01  -3.851686e-01
   3.946355e+01  -2.537666e+01
   9.020691e+01   2.940651e+01
   2.335761e+01   1.208197e+02
  -1.199999e+02   1.341304e+02
  -1.732067e+02   5.588306e+01
  -1.254239e+02  -9.936609e+01
  -6.894446e+00  -2.238105e+02
   1.109140e+02  -1.376665e+02
   1.211768e+02   1.412737e+01
   5.057014e+01   1.350010e+02
  -7.217235e-01   9.869903e+01
  -4.954098e+01   1.993448e+01
  -5.357212e+01  -3.682775e+01
  -2.741234e+01  -6.604078e+00
  -2.594460e+00   1.885063e+01
  -1.400918e+01  -1.497583e+01
  -5.368292e+01  -8.155971e+01
  -3.360280e+01  -1.248870e+02
   5.361468e+01  -4.110260e+01
   1.324739e+02   5.613020e+01
   1.272971e+02   6.984556e+01
   1.058758e+01   5.954080e+01
  -9.625690e+01   1.850551e+01
  -8.187493e+01   2.298057e+00
  -9.055239e+00  -7.746915e+00
   3.824181e+01  -1.838525e+01
   9.729509e+00  -1.608939e+01
  -2.391715e+01   1.096037e+00
   6.359253e+00   9.214373e+00
   8.177063e+01   1.828997e+00
   9.362426e+01   3.709046e+01
  -5.408449e-01   9.032045e+01
  -1.467041e+02   1.102887e+02
  -2.058830e+02   3.917208e+01
  -1.529503e+02  -9.283285e+01
  -2.339941e+01  -1.614827e+02
   8.104241e+01  -1.421530e+02
   1.198745e+02  -4.335773e+01
   7.503787e+01   2.120706e+01
   2.129680e+01   4.825580e+01
  -2.659942e+00   9.768616e+00
   7.268690e+00   5.407093e+00
   2.545637e+01   5.226589e+01
   2.826479e+01   7.735310e+01
  -2.543671e+01   6.970527e+01
  -8.469936e+01  -3.635404e+01
  -6.651822e+01  -1.227752e+02
  -8.675277e+00  -1.151801e+02
   9.161124e+01  -8.531178e+00
   9.718393e+01   9.016079e+01
   1.679224e+01   1.107500e+02
  -7.945767e+01   5.423963e+01
  -9.041854e+01  -2.610083e+01
  -2.968486e+01  -5.652728e+01
   3.955390e+01  -4.739408e+01
   3.362288e+01  -2.530381e+01
  -3.748566e+01  -1.398091e+00
  -7.176760e+01  -7.668152e+00
  -1.285331e+01  -2.944889e+01
   8.460754e+01  -7.519045e+01
   1.314673e+02  -6.084137e+01
   6.252624e+01   1.655437e+01
  -2.408944e+01   8.208491e+01
  -5.352022e+01   7.736692e+01
  -3.802715e+01   6.881291e+00
   1.067723e+01  -6.054788e+01
   3.481701e+01  -3.273462e+01
   3.645898e+01   2.825510e+01
   1.921077e+01   5.867209e+01
  -8.643503e+00   3.579374e+01
  -3.641587e+01  -1.160648e+01
  -3.680582e+01  -1.878375e+01
  -1.879627e+01  -3.644513e+00
  -3.805112e+00   1.526591e+01
   6.623032e+00  -5.135319e+00
   1.011944e+01  -4.218057e+01
   1.460318e+01  -4.736786e+01
   3.644556e+01  -6.478286e+00
   3.437386e+01   4.535112e+01
  -4.899861e+00   6.226433e+01
  -5.066413e+01   1.191639e+01
  -5.620299e+01  -4.769185e+01
  -1.233322e+01  -5.834418e+01
   6.129862e+01  -3.258915e+01
   9.298610e+01   3.253400e+01
   4.827767e+01   3.955923e+01
  -2.959683e+01   3.858378e+01
  -7.197940e+01   2.245294e+01
  -2.389990e+01   1.935143e+00
   3.601981e+01   8.052387e+00
   4.143513e+01   1.634219e+01
  -3.130953e+01   2.997675e+01
  -9.697963e+01   1.833154e+01
