
 $NMID
 id='ANONYMOUS ', fmtdat='(2E16.6)'
 volume=1.0
 tramp=1.0
 $END
   2.965068e+03   7.632373e+01
   1.606816e+03   1.396356e+03
  -3.129376e+02   1.905850e+03
  -1.449999e+03   5.603602e+02
  -6.500048e+02  -4.341105e+01
   3.313870e+02  -2.803134e+02
   3.599629e+02   1.083121e+02
  -4.988611e+01   4.750299e+02
  -4.047352e+02   4.238737e+02
  -5.101813e+02  -5.018960e+01
  -2.359500e+02  -4.562442e+02
   3.558815e+00  -6.108173e+02
   2.938476e+02  -3.680868e+01
   1.636135e+01   3.786121e+02
  -2.107191e+02   4.353523e+02
  -3.174435e+02   1.197296e+01
  -2.763069e+02  -5.007595e+02
   1.846869e+02  -4.145017e+02
   3.710106e+02  -4.998414e+01
   2.631230e+02   1.755224e+02
   1.308059e+02   3.096027e+02
  -1.760192e+02   1.612204e+02
  -1.008597e+02   5.764467e+01
   1.303367e+02   1.761676e+01
   2.205688e+02   2.398876e+02
   4.271485e+01   2.133425e+02
  -3.630395e+02   1.322959e+02
  -5.026027e+02  -5.259610e+01
  -1.495879e+02  -3.369890e+02
   1.732616e+02  -2.017335e+02
   4.384329e+02   1.435229e+02
   2.427745e+02   3.618604e+02
  -2.364185e+02   2.116743e+02
  -4.209056e+02   2.298582e+01
  -1.808395e+02  -1.533671e+02
  -1.626314e+01  -2.746947e+02
   8.272354e+01  -1.699295e+02
   4.384305e+00   1.312068e+02
  -1.397797e+02   1.201626e+02
  -2.154031e+02  -3.971666e+00
  -1.309348e+01  -3.517440e+02
   3.638967e+02  -3.442084e+02
   3.646213e+02   1.702752e+02
   1.266442e+02   2.445789e+02
  -1.629288e+02   1.815585e+02
  -1.987061e+02  -1.638180e+02
   8.393415e+01  -3.127430e+02
   3.364809e+02  -3.130921e+01
   3.555036e+02   3.390876e+02
   1.071633e+02   3.700572e+02
  -2.681463e+02   1.149470e+02
  -3.526791e+02  -8.843376e+01
  -2.113298e+02  -2.625074e+02
   9.257981e+01  -1.922414e+02
   2.735955e+02  -1.389845e+01
   1.498156e+02   8.899175e+01
  -4.451832e+01   1.485352e+01
  -2.114934e+01  -7.715573e+01
   1.093555e+02  -3.113915e+01
   1.777310e+02   8.241282e+01
   1.055848e+02   1.453834e+02
  -1.248541e+02   1.673951e+02
  -2.412312e+02   4.954111e+01
  -1.994298e+02  -7.846017e+01
   1.347705e+01  -2.030246e+02
   2.214688e+02  -1.839221e+02
   2.587321e+02  -5.156141e+01
   1.716487e+02   1.378004e+02
   4.730866e+01   2.487434e+02
  -1.170805e+02   2.200763e+02
  -1.731323e+01   1.516131e+02
  -2.628646e+01   2.603666e+01
  -9.095810e+01   9.178157e+01
  -1.480010e+02   6.350932e+01
  -2.133687e+02  -9.969042e+01
  -5.502177e+01  -1.830971e+02
   6.714975e+01  -1.553411e+02
   1.497155e+02   3.629578e+01
   1.284423e+02   1.481485e+02
  -7.189748e+01   1.658326e+02
  -1.729024e+02   5.940512e+01
  -2.341258e+02  -1.619889e+02
  -1.004036e+02  -2.288006e+02
   9.933321e+01  -2.028698e+02
   1.327750e+02  -7.282820e+01
   1.308772e+02  -5.002072e+01
   9.353992e+01  -1.318879e+01
   1.920172e+02  -3.836389e+01
   2.868492e+02   1.401175e+02
   1.573701e+02   2.363743e+02
  -2.157746e+00   3.258545e+02
  -2.826821e+02   2.867956e+02
  -3.752595e+02   1.254239e+02
  -2.148082e+02  -2.976573e+01
  -3.447845e+01  -1.928209e+02
   9.011692e+01  -1.324886e+02
   3.825245e+01  -4.172183e+01
  -8.306832e+01   4.759193e+01
  -1.151923e+02  -3.282421e+01
  -1.691046e+01  -1.021295e+02
   8.359538e+01  -1.022324e+02
   9.379966e+01   3.378240e+01
  -1.595547e+01   1.040779e+02
  -1.292975e+02  -7.371978e+00
  -1.245842e+02  -1.738176e+02
   7.051583e+01  -2.301573e+02
   2.160240e+02  -1.208842e+02
   1.845686e+02   5.977499e+01
   1.812269e+02   1.755646e+02
   1.058716e+01   2.138563e+02
  -9.521039e+01   1.174748e+02
  -1.196259e+02   5.338372e+00
  -2.934119e+01  -2.250588e+01
   3.221228e+01   3.269116e+01
   1.650425e+00   8.534369e+01
  -8.205028e+01   5.255572e+01
  -1.072587e+02  -1.977474e+01
  -2.456826e+01  -4.535711e+01
   5.401050e+01   7.765513e+00
   2.975778e+01   6.866139e+01
  -7.876866e+01   6.271294e+01
  -1.798726e+02  -6.677107e-01
  -1.662263e+02  -1.367483e+02
  -4.323125e+01  -1.840758e+02
   1.673832e+02  -1.136988e+02
   2.341303e+02  -3.600013e+01
   7.653387e+01   4.530223e+01
  -2.131275e+01   6.121818e+01
  -5.290757e+01  -1.479125e+01
   3.570947e+01  -6.061814e+01
   1.334139e+02  -7.172142e+00
   1.222082e+02   1.004553e+02
   3.911064e+01   1.433676e+02
  -9.075365e+01   1.032632e+02
  -9.812852e+01   9.460832e+00
  -2.827214e+01  -2.731521e+01
   2.888497e+01   1.408280e+01
   5.768819e+00   7.762570e+01
  -7.021138e+01   8.279617e+01
  -1.594159e+02  -2.526139e+01
  -1.100655e+02  -1.001553e+02
   2.693742e-01  -1.617110e+02
   1.360884e+02  -8.078844e+01
   1.155930e+02   1.089278e+01
   3.494965e+01   8.075387e+01
  -4.461961e+01   7.360574e+01
  -5.576584e+01   1.891457e+01
  -1.881079e+00  -2.787291e+01
   2.736094e+01   5.343152e-01
  -6.380492e+00   1.525850e+01
  -5.968178e+01  -3.612868e+00
  -5.092355e+01  -6.655724e+01
  -1.346212e+00  -9.495173e+01
   1.376678e+02  -9.614463e+01
   1.836554e+02   1.646170e+01
   1.136758e+02   1.470054e+02
   1.644927e-01   1.537507e+02
  -8.737522e+01   1.154491e+02
  -9.293773e+01  -9.782553e-01
  -3.071767e+01  -3.834050e+01
  -1.649877e+01  -2.712801e+01
  -4.187771e+01   7.522972e+00
  -6.276571e+01  -5.332792e+00
  -3.505768e+01  -3.965908e+01
   4.459845e+01  -7.313261e+01
   8.159202e+01  -3.361152e+01
   5.751512e+01   3.067580e+01
  -1.319723e+01   7.421031e+01
  -1.055011e+02   5.191780e+01
  -1.190654e+02  -7.047540e+01
  -4.210140e+01  -1.341283e+02
   9.931567e+01  -1.958446e+02
   1.896525e+02  -2.426603e+01
   1.556491e+02   8.862361e+01
   6.695065e+01   1.240434e+02
  -3.596312e+01   9.992788e+01
  -6.867202e+01   4.834318e+01
  -5.516475e+01   4.802630e+01
  -4.270805e+01   6.487867e+01
  -6.428817e+01   4.262472e+01
  -9.367272e+01  -1.909019e+01
  -7.598945e+01  -9.854638e+01
  -2.214891e+01  -1.834328e+02
   8.888656e+01  -9.390868e+01
   1.257443e+02  -4.773057e-01
   9.252032e+01   9.078630e+01
  -4.817765e+00   1.017069e+02
  -5.024617e+01   5.720353e+01
  -4.737295e+01  -1.597697e+00
   1.185666e+00  -3.240424e+01
   2.078482e+01  -2.086417e+01
  -1.796865e+01  -1.433027e+01
  -6.200901e+01  -1.733884e+01
  -3.622691e+01  -3.174887e+01
   5.327441e+01  -2.820198e+01
   1.053729e+02   6.039888e+00
   7.358942e+01   4.345135e+01
   8.072698e-01   5.221542e+01
  -1.105679e+02   4.329832e+01
  -1.089328e+02   9.030674e+00
  -2.673059e+01  -4.447405e+01
   5.626752e+01  -2.599127e+01
   5.264131e+01   2.271300e+01
   1.935472e+00   5.279210e+01
  -3.144944e+01   4.899460e+01
  -5.321354e+01  -6.235549e+00
  -2.803515e+01  -4.656704e+01
  -2.793693e+01  -3.619669e+01
  -4.253126e+01  -9.355452e+00
  -4.108278e+01  -5.162727e+00
  -3.322633e+01  -4.717232e+01
   2.645443e+01  -1.223526e+02
   1.075078e+02  -1.016690e+02
   1.386416e+02  -1.832841e+01
   6.939255e+01   9.330354e+01
  -3.074559e+01   1.058793e+02
  -5.968401e+01   2.905416e+01
  -3.840642e+01  -3.560234e+00
   4.018373e+01  -1.154461e+01
   8.421094e+01   4.940995e+01
   5.536211e+01   7.349234e+01
  -7.960701e+01   6.750957e+01
  -1.369357e+02   2.763923e+01
  -8.417319e+01  -5.546572e+01
  -1.858805e+01  -6.301155e+01
   4.513315e+01  -3.288618e+01
   3.772620e+01   8.832172e+00
  -3.679082e+01   2.141266e+01
  -5.927292e+01  -1.469284e+01
  -1.900157e+01  -6.939074e+01
   6.845763e+01  -1.110221e+02
   1.000326e+02  -3.261943e+01
   9.922337e+01   5.954290e+01
  -3.343406e+01   1.306231e+02
  -7.505730e+01   8.676582e+01
  -6.223552e+01  -1.789336e+01
  -2.074337e+01  -9.436754e+01
   1.048690e+01  -7.513899e+01
   3.169907e+01  -6.736139e+00
   2.899797e+01   2.485573e+01
   1.515330e+01   3.982509e+00
   3.950596e+00  -1.223268e+01
   2.124035e+01   1.886040e+01
   4.413696e+01   7.961717e+01
   1.302995e+01   8.007603e+01
  -4.369640e+01   2.600572e+01
  -8.971484e+01  -2.490352e+01
  -9.312817e+01  -5.050366e+01
  -8.915888e+00  -3.422346e+01
   6.266067e+01  -1.602551e+01
   6.512109e+01   1.741265e+00
   1.002517e+01   7.099256e+00
  -2.456203e+01   1.612585e+01
  -1.241537e+01   1.147448e+01
   1.123010e+01   2.929371e+00
  -2.852095e+00  -2.521820e+00
  -4.419249e+01  -6.039797e+00
  -5.677160e+01  -3.244558e+01
  -1.164574e+01  -5.266186e+01
   9.081451e+01  -7.571272e+01
   1.332626e+02  -1.815854e+01
   9.979849e+01   6.752990e+01
   2.272286e+01   1.157232e+02
  -6.834900e+01   9.204608e+01
  -7.772353e+01   2.785386e+01
  -6.357192e+01  -1.263032e+01
  -1.303913e+01  -2.693624e+01
  -1.790841e+00  -5.830314e+00
  -7.803701e+00  -4.341593e+00
  -1.944238e+01  -3.694095e+01
  -1.620726e+01  -6.583739e+01
   2.690770e+01  -5.250821e+01
   5.264524e+01   2.010146e+01
   4.806391e+01   7.407770e+01
   1.025077e+01   8.208593e+01
  -6.160343e+01   2.139531e+01
  -6.457801e+01  -5.751306e+01
  -2.603125e+01  -6.598277e+01
   4.162031e+01  -3.513164e+01
   6.076482e+01   2.980088e+00
   2.793992e+01   4.344016e+01
  -2.480619e+01   3.029430e+01
  -2.496606e+01   2.464063e+01
   2.044653e+01  -7.612440e+00
   4.617476e+01   7.325083e+00
   7.389945e+00   1.927805e+01
  -6.398582e+01   4.479046e+01
  -9.002861e+01   2.576392e+01
  -4.558780e+01  -1.537408e+01
   1.899465e+01  -5.541889e+01
   4.462165e+01  -4.549952e+01
   3.767277e+01  -2.212518e+00
  -1.942303e+00   3.549640e+01
  -1.898885e+01   2.762959e+01
  -2.083985e+01  -1.200417e+01
  -1.624896e+01  -3.662309e+01
   4.318865e+00  -2.955502e+01
   2.286957e+01   3.780098e+00
   2.761662e+01   2.184006e+01
   1.467535e+01   4.637759e+00
  -4.087055e-01  -1.311031e+01
  -2.206120e+00  -5.572851e+00
  -2.545943e+00   2.421801e+01
  -4.895175e+00   3.219336e+01
  -2.207503e+01   7.120440e+00
  -3.203805e+01  -3.026256e+01
  -5.272952e+00  -4.165605e+01
   2.628579e+01  -1.082361e+01
   4.412437e+01   3.586826e+01
   1.016041e+01   4.516926e+01
  -3.791944e+01   1.906528e+01
  -7.105487e+01  -9.035903e+00
  -3.867708e+01  -3.227048e+01
   2.627099e+01  -3.007064e+01
   4.842340e+01  -1.114738e+01
   2.038613e+01  -1.008449e+00
  -2.159238e+01   1.359520e+00
  -2.224597e+01  -6.334819e+00
   1.767531e+01  -2.259858e+01
   5.532124e+01  -1.076407e+01
