
 $NMID
 id='ANONYMOUS ', fmtdat='(2E16.6)'
 volume=1.0
 tramp=1.0
 $END
   4.562282e+03  -9.386555e+01
   2.933358e+03   2.668418e+03
  -6.575385e+02   2.801255e+03
  -2.092048e+03   1.749145e+02
  -1.342670e+03  -4.465099e+02
   5.295424e+02  -5.209488e+02
   8.250668e+02   6.188109e+02
  -6.947471e+01   1.182949e+03
  -9.539976e+02   5.926383e+02
  -8.865060e+02  -1.489177e+02
  -3.648409e+02  -9.628110e+02
   2.586366e+02  -8.664861e+02
   6.493339e+02  -6.831728e+01
   3.474039e+02   7.700191e+02
  -3.980629e+02   7.209538e+02
  -5.752304e+02  -6.439597e+01
  -3.077233e+02  -7.435333e+02
   2.568620e+02  -5.917331e+02
   5.381635e+02  -7.429731e+01
   3.830416e+02   3.478543e+02
   1.146064e+01   4.338151e+02
  -2.564178e+02   2.378457e+02
  -2.208997e+02  -3.747182e+01
   1.929886e+02  -7.039866e+01
   4.990590e+02   1.647285e+02
   2.270378e+02   5.252639e+02
  -5.140888e+02   5.007216e+02
  -9.247783e+02  -1.698663e+02
  -3.133314e+02  -7.247604e+02
   4.286188e+02  -4.737748e+02
   7.482753e+02   1.886778e+02
   3.563998e+02   5.488555e+02
  -3.698012e+02   4.911428e+02
  -6.659439e+02   1.809644e+02
  -3.847993e+02  -2.725815e+02
  -5.771763e+01  -5.214071e+02
   1.799668e+02  -3.334218e+02
   1.008904e+02   2.617035e+02
  -2.643903e+02   4.607220e+02
  -4.494684e+02  -8.416050e+01
  -2.037353e+02  -7.602017e+02
   3.343882e+02  -5.876855e+02
   5.776922e+02   7.971423e+01
   2.168499e+02   6.392316e+02
  -3.299122e+02   3.016704e+02
  -3.985041e+02  -3.868033e+02
   3.644487e+01  -5.615318e+02
   6.099725e+02  -1.938355e+02
   6.574646e+02   3.896171e+02
   2.360759e+02   6.623551e+02
  -4.261266e+02   3.502271e+02
  -6.305693e+02  -9.525341e+01
  -3.982609e+02  -3.716534e+02
   2.443414e+02  -3.706518e+02
   4.453935e+02  -4.807744e-02
   2.577578e+02   1.892669e+02
  -1.017689e+02   9.361123e+01
  -1.113024e+02  -1.865747e+02
   1.986604e+02  -2.019537e+02
   3.102748e+02   1.454208e+02
   1.291791e+02   2.977565e+02
  -2.421176e+02   2.382724e+02
  -2.962266e+02   6.954224e+01
  -2.416388e+02  -4.274377e+01
  -3.657491e+01  -2.501565e+02
   1.887987e+02  -3.794842e+02
   3.599587e+02  -2.171022e+02
   3.296128e+02   1.149880e+02
   8.465410e+01   4.645252e+02
  -2.061415e+02   3.826415e+02
  -9.164508e+01   1.223725e+02
  -2.938356e+01  -1.290696e+01
  -6.339935e+01   9.707173e+01
  -2.121897e+02   1.359664e+02
  -3.111973e+02  -3.195547e+01
  -1.969970e+02  -3.155798e+02
   6.591246e+01  -2.632178e+02
   2.702539e+02  -8.371060e+00
   2.288076e+02   2.807773e+02
  -1.139195e+01   3.235387e+02
  -2.730210e+02   1.085609e+02
  -3.895961e+02  -1.758251e+02
  -1.886252e+02  -3.487945e+02
   1.249538e+02  -3.246858e+02
   2.554271e+02  -9.739038e+01
   1.608377e+02  -1.112351e+01
   1.130621e+02  -7.239874e+01
   2.090753e+02  -9.605434e+01
   4.133936e+02   1.047812e+02
   3.503569e+02   3.462687e+02
   8.164509e+01   4.966859e+02
  -4.030246e+02   4.829365e+02
  -4.619060e+02   2.419068e+02
  -3.613618e+02  -1.106599e+02
  -8.790315e+01  -3.332330e+02
   1.788757e+02  -2.751936e+02
   7.308214e+01  -1.194489e+01
  -1.147206e+02   1.257449e+02
  -2.014388e+02   2.374997e+01
  -5.062193e+01  -2.294756e+02
   1.496364e+02  -2.189751e+02
   1.669938e+02   6.164374e+01
  -7.223047e+00   2.145001e+02
  -2.344651e+02   2.755156e+01
  -1.925347e+02  -2.936035e+02
   4.809532e+01  -3.304638e+02
   2.773844e+02  -1.750145e+02
   3.744411e+02   4.663507e+01
   3.225231e+02   2.093056e+02
   8.584893e+01   2.959476e+02
  -9.580244e+01   1.636416e+02
  -1.779008e+02   3.247007e+01
  -4.643030e+01  -3.700957e+01
   7.586047e+01   2.872896e+01
   2.118685e+01   1.324066e+02
  -1.315151e+02   1.261390e+02
  -1.937084e+02  -8.391864e+00
  -4.803447e+01  -8.397084e+01
   8.542529e+01  -1.420206e+01
   5.729398e+01   6.646299e+01
  -1.190345e+02   1.333178e+02
  -3.081232e+02  -6.799314e-02
  -2.777568e+02  -1.267877e+02
  -9.132050e+01  -2.792048e+02
   2.429107e+02  -2.586331e+02
   3.283710e+02  -1.519859e+02
   1.819091e+02   7.895000e+01
  -3.505927e+01   1.084354e+02
  -9.089343e+01   1.239836e-01
   4.372095e+01  -1.124178e+02
   2.272542e+02  -5.911801e+01
   2.134589e+02   1.522141e+02
   9.361793e+01   2.196586e+02
  -8.625457e+01   1.496837e+02
  -1.551734e+02   3.660183e+01
  -6.750506e+01  -4.052531e+01
   4.349291e+01  -1.106338e+01
   2.568440e+01   8.551279e+01
  -5.757515e+01   1.388559e+02
  -1.897932e+02   4.074212e+01
  -2.342798e+02  -1.546449e+02
   1.174251e+00  -2.388981e+02
   1.808817e+02  -1.720010e+02
   1.986763e+02  -1.328344e+01
   5.281682e+01   1.151787e+02
  -6.644293e+01   1.238619e+02
  -8.829233e+01   2.684506e+01
  -2.019588e+01  -2.999139e+01
   2.503766e+01  -2.775739e+01
  -6.805855e+00   1.016241e+01
  -6.059665e+01  -8.780559e+00
  -8.699320e+01  -7.892672e+01
  -7.105962e+00  -1.714027e+02
   1.384995e+02  -1.656809e+02
   2.497697e+02  -2.232700e+01
   1.830684e+02   1.587483e+02
   4.773427e+01   2.371998e+02
  -1.149189e+02   1.641522e+02
  -1.537114e+02   1.390700e+01
  -8.231981e+01  -6.188033e+01
  -2.627256e+01  -3.617645e+01
  -4.920899e+01   1.248147e+01
  -7.433290e+01   1.125313e+01
  -4.106481e+01  -4.695401e+01
   2.451925e+01  -1.061469e+02
   8.173370e+01  -5.797476e+01
   9.091802e+01   2.714203e+01
  -1.106387e+01   1.210827e+02
  -1.450851e+02   1.058894e+02
  -2.121930e+02  -7.678918e+01
  -8.806692e+01  -2.222851e+02
   8.952313e+01  -2.515600e+02
   2.822537e+02  -1.200525e+02
   2.702502e+02   8.190444e+01
   1.338309e+02   1.700505e+02
  -4.255477e+01   1.374310e+02
  -9.566670e+01   6.722367e+01
  -8.153620e+01   7.840456e+01
  -6.721470e+01   7.798919e+01
  -9.422250e+01   8.233456e+01
  -1.352014e+02  -1.532141e+01
  -1.166531e+02  -1.494535e+02
  -3.252589e+01  -2.273637e+02
   1.182999e+02  -1.575351e+02
   1.859662e+02  -8.518831e+00
   1.360231e+02   1.119813e+02
   2.868980e+01   1.673105e+02
  -5.948765e+01   1.056090e+02
  -5.941405e+01   1.198298e+01
  -3.106733e+00  -5.275447e+01
   1.077739e+01  -3.691161e+01
  -3.225286e+01  -2.815150e+01
  -9.050398e+01  -1.717785e+01
  -4.982438e+01  -3.818943e+01
   6.494608e+01  -4.717474e+01
   1.848337e+02  -1.206895e+01
   1.544267e+02   3.606009e+01
   4.775720e+00   1.001625e+02
  -1.192020e+02   9.773656e+01
  -1.621904e+02   1.837242e+01
  -5.514849e+01  -3.922685e+01
   6.141875e+01  -3.530227e+01
   7.935128e+01   2.058659e+01
   7.046245e+00   5.795007e+01
  -5.361743e+01   6.898341e+01
  -6.728457e+01   1.105656e+01
  -3.961383e+01  -5.206768e+01
  -4.062383e+01  -3.721371e+01
  -6.019385e+01  -3.374274e+00
  -6.713984e+01   7.805754e+00
  -5.110352e+01  -6.697084e+01
   6.426235e+00  -1.688906e+02
   1.009325e+02  -1.403628e+02
   1.581324e+02  -4.124971e+01
   1.180955e+02   1.005913e+02
   6.595015e-01   1.334070e+02
  -7.841941e+01   6.530937e+01
  -6.339740e+01  -5.945001e+00
   6.596640e+01  -2.136621e+01
   1.539573e+02   5.821989e+01
   8.856539e+01   1.139014e+02
  -8.340307e+01   1.084435e+02
  -2.054194e+02   6.253546e+01
  -1.658100e+02  -4.812500e+01
  -3.685791e+01  -9.617307e+01
   6.082411e+01  -8.707603e+01
   5.260093e+01  -1.150129e+01
  -3.810518e+01   2.415349e+01
  -9.245561e+01  -2.400736e+01
  -2.863377e+01  -8.675728e+01
   1.024898e+02  -1.433016e+02
   1.592236e+02  -6.945826e+01
   1.313958e+02   1.014191e+02
   6.163322e+00   2.010865e+02
  -1.006091e+02   1.576877e+02
  -1.029921e+02  -1.544243e+01
  -4.901377e+01  -1.317084e+02
  -5.444306e+00  -1.122974e+02
   5.506108e+01  -1.914616e+01
   5.014707e+01   3.021117e+01
   2.648676e+01   9.537822e+00
   4.267532e+00  -2.349758e+01
   2.690150e+01   7.791089e+00
   7.053815e+01   8.786237e+01
   3.002577e+01   1.172836e+02
  -4.613813e+01   4.664545e+01
  -1.508509e+02  -3.671254e+01
  -1.445601e+02  -6.988405e+01
  -2.050699e+01  -4.432404e+01
   8.454899e+01  -2.545502e+01
   1.004448e+02  -1.083851e+01
   1.368180e+01   6.391596e+00
  -3.925272e+01   2.250931e+01
  -1.564020e+01   2.082323e+01
   2.098355e+01  -2.255384e-01
  -5.058695e+00  -1.020826e+01
  -8.649222e+01   2.820521e+00
  -9.604024e+01  -2.124298e+01
  -1.480796e+01  -9.092893e+01
   1.215714e+02  -1.053205e+02
   1.873566e+02  -6.589056e+01
   1.437419e+02   8.061600e+01
   3.041244e+01   1.668187e+02
  -7.489794e+01   1.708303e+02
  -1.177574e+02   6.148529e+01
  -7.986326e+01  -1.652069e+01
  -2.585036e+01  -3.984172e+01
   3.757171e+00  -1.122947e+01
  -1.187437e+01  -3.196310e+00
  -3.773002e+01  -4.108014e+01
  -3.904208e+01  -9.600844e+01
   2.875831e+01  -8.365884e+01
   7.719497e+01   2.326863e+01
   7.933320e+01   1.090878e+02
   1.392996e+01   1.206343e+02
  -8.079188e+01   2.432924e+01
  -1.238694e+02  -6.663513e+01
  -5.082113e+01  -1.178096e+02
   7.495338e+01  -5.914765e+01
   1.018233e+02   9.756926e+00
   3.623703e+01   5.655065e+01
  -2.159635e+01   5.648940e+01
  -3.653854e+01   3.431150e+01
   3.482482e+01   9.407929e-01
   7.658017e+01  -1.910065e+00
   1.570748e+01   2.665531e+01
  -8.995077e+01   7.412512e+01
  -1.363971e+02   7.663554e+01
  -6.324956e+01  -3.484941e+00
   2.160982e+01  -8.593716e+01
   5.563955e+01  -9.600091e+01
   3.686662e+01  -7.587189e+00
  -7.275501e+00   5.461235e+01
  -1.855404e+01   4.502400e+01
  -3.340074e+01  -1.960915e+01
  -2.862962e+01  -5.331685e+01
   2.206400e+00  -2.908478e+01
   3.552527e+01   7.774305e+00
   4.153986e+01   2.169057e+01
   2.339718e+01  -1.036367e+00
   4.448669e-01  -1.470600e+01
  -1.270223e+01   2.103733e+00
  -1.249508e+01   3.887162e+01
  -5.123649e+00   4.661247e+01
  -3.153726e+01   6.981617e+00
  -2.919326e+01  -4.029538e+01
   1.975607e-01  -5.873791e+01
   4.558318e+01  -2.300447e+01
   6.374673e+01   3.961907e+01
   2.498495e+01   6.905871e+01
  -4.985224e+01   2.847508e+01
  -8.023905e+01  -2.714101e+01
  -5.484394e+01  -4.325985e+01
   2.498221e+01  -4.098293e+01
   6.728523e+01  -2.127352e+01
   2.355711e+01  -1.008161e+01
  -3.550951e+01  -6.085160e+00
  -3.800527e+01  -1.465901e+01
   3.110197e+01  -2.781798e+01
   9.079184e+01  -1.725970e+01
