
 $NMID
 id='ANONYMOUS ', fmtdat='(2E16.6)'
 volume=1.0
 tramp=1.0
 $END
  -3.465458e+03   7.269415e+01
  -2.379539e+03  -1.692017e+03
   9.909824e+01  -2.417512e+03
   1.292631e+03  -1.082389e+03
   1.141790e+03  -2.999507e+02
   5.548043e-01   2.043400e+02
  -4.561499e+02  -1.588503e+02
  -2.519728e+01  -4.820685e+02
   4.221673e+02  -5.704404e+02
   4.971356e+02  -1.352497e+02
   5.421542e+02   5.722298e+02
  -4.885976e+01   8.122220e+02
  -3.451138e+02   1.840547e+02
  -2.075211e+02  -3.488621e+02
   1.405178e+02  -5.423323e+02
   4.620679e+02  -1.533479e+02
   3.651285e+02   5.627816e+02
  -1.355463e+02   6.279808e+02
  -4.680009e+02   1.973388e+02
  -4.472061e+02  -1.410754e+02
  -1.516547e+02  -4.159695e+02
   1.373453e+02  -2.262598e+02
   1.192365e+02  -8.437091e+01
  -1.902606e+02  -5.879269e+01
  -2.369362e+02  -3.133071e+02
  -4.326135e+01  -3.167986e+02
   4.395690e+02  -1.959350e+02
   6.938313e+02   1.411064e+02
   1.894525e+02   3.305499e+02
  -2.916904e+02   2.544208e+02
  -5.518494e+02  -1.658172e+02
  -1.945086e+02  -3.920366e+02
   2.076616e+02  -3.366037e+02
   4.938134e+02  -1.127897e+02
   2.953583e+02   1.561114e+02
   8.506176e+01   3.035501e+02
  -3.255179e+01   2.193258e+02
   3.943488e+01  -7.575505e+01
   1.523765e+02  -1.465339e+02
   2.147664e+02   5.360846e+01
  -4.345759e+01   4.522945e+02
  -2.845402e+02   3.502993e+02
  -2.663474e+02   2.297517e+01
  -1.915020e+02  -3.139525e+02
   1.936863e+02  -1.608512e+02
   2.507040e+02   2.338048e+02
  -9.638858e+01   4.502248e+02
  -4.874244e+02   9.236645e+01
  -5.263802e+02  -3.988001e+02
  -1.814768e+02  -5.288438e+02
   3.312748e+02  -2.694095e+02
   5.670390e+02   1.674363e+01
   3.022827e+02   2.586144e+02
  -8.577795e+01   2.857937e+02
  -2.832086e+02   9.209707e+01
  -1.952485e+02  -4.829940e+01
   1.519264e+01  -5.434860e+01
   2.575540e+01   2.396229e+01
  -1.036655e+02   5.809336e+01
  -2.160071e+02  -7.875024e+01
  -1.747254e+02  -1.920071e+02
   1.452710e+02  -2.445116e+02
   3.486404e+02  -1.116733e+02
   2.721696e+02   1.118194e+02
  -7.201062e+01   3.068809e+02
  -2.848670e+02   3.023398e+02
  -2.982034e+02   1.326382e+02
  -2.584573e+02  -1.696579e+02
  -7.851420e+01  -3.746215e+02
   4.048439e+01  -3.043132e+02
   5.449064e+01  -1.998970e+02
   4.310668e+01  -1.020532e+02
   9.648512e+01  -1.389998e+02
   2.303948e+02  -6.843283e+01
   2.229268e+02   1.296226e+02
   8.886820e+01   2.741008e+02
  -7.944137e+01   2.078993e+02
  -1.825969e+02  -2.337825e+01
  -1.338093e+02  -2.457711e+02
   5.591065e+01  -2.089975e+02
   2.493167e+02  -7.166079e+01
   2.829629e+02   1.799614e+02
   1.975663e+02   3.113508e+02
  -8.022945e+01   2.697359e+02
  -1.635878e+02   1.280243e+02
  -1.613662e+02   9.447337e+01
  -1.316464e+02   5.337858e+01
  -2.558973e+02   6.396255e+01
  -4.055434e+02  -9.665174e+01
  -2.763318e+02  -2.367526e+02
  -2.254331e+01  -4.637017e+02
   4.009168e+02  -4.174723e+02
   5.081290e+02  -1.618119e+02
   3.283836e+02   1.090856e+02
   4.383246e+01   2.766400e+02
  -7.739206e+01   1.671170e+02
  -4.262437e+01   5.596836e+01
   1.261161e+02  -5.085217e+01
   1.254849e+02   2.558676e+01
   1.674258e+01   1.462645e+02
  -1.242316e+02   1.334432e+02
  -1.009262e+02  -4.111084e+01
   2.973202e+01  -1.327499e+02
   1.630434e+02   7.828391e+00
   1.602146e+02   2.636224e+02
  -4.737261e+00   3.485110e+02
  -2.176063e+02   1.795244e+02
  -3.522802e+02  -2.728426e+01
  -2.736533e+02  -2.372052e+02
  -3.146557e+01  -2.362012e+02
   1.245314e+02  -1.475414e+02
   1.616878e+02  -4.547302e-02
   3.212774e+01   1.425153e+01
  -5.432685e+01  -5.550047e+01
  -1.819278e+00  -1.025333e+02
   1.187405e+02  -6.677712e+01
   1.562452e+02   2.576123e+01
   2.964006e+01   5.107156e+01
  -8.040778e+01  -1.336999e+01
  -5.187882e+01  -9.389219e+01
   1.353823e+02  -7.583724e+01
   2.906358e+02   2.161464e+01
   2.746248e+02   1.513266e+02
   1.669965e+01   2.863712e+02
  -2.130188e+02   1.946457e+02
  -2.719216e+02   7.802184e+01
  -1.176757e+02  -4.446781e+01
   2.587854e+01  -6.935306e+01
   5.314122e+01  -5.466862e-01
  -5.901483e+01   7.982552e+01
  -1.708219e+02   3.184853e+01
  -1.749212e+02  -1.168765e+02
  -5.450988e+01  -1.990685e+02
   8.375707e+01  -1.344365e+02
   1.253309e+02  -1.388335e+00
   5.128826e+01   2.821953e+01
  -3.400467e+01  -2.304954e+01
  -2.555382e+01  -1.144435e+02
   1.054716e+02  -1.163625e+02
   1.745961e+02   2.562196e+00
   1.686422e+02   1.452497e+02
  -5.533883e+00   2.079779e+02
  -1.481642e+02   1.548715e+02
  -1.766868e+02   2.210609e+01
  -5.164879e+01  -9.870831e+01
   5.552109e+01  -9.781880e+01
   7.797347e+01  -2.211640e+01
  -8.776837e-01   2.226706e+01
  -3.931982e+01   6.578825e+00
   1.127648e+01  -2.465055e+01
   8.607664e+01   5.631833e+00
   1.044463e+02   9.072177e+01
   1.053150e+00   1.837707e+02
  -1.386093e+02   1.101949e+02
  -2.499048e+02  -1.675715e+01
  -1.661020e+02  -1.584298e+02
  -7.521408e+00  -2.071571e+02
   1.035251e+02  -1.584710e+02
   1.168889e+02  -1.340712e+01
   6.324826e+01   3.158372e+01
   3.074872e+01   2.983676e+01
   5.484017e+01  -1.475708e+01
   8.375938e+01  -3.549414e+00
   6.474733e+01   5.590070e+01
  -6.362634e+01   1.047406e+02
  -1.263781e+02   5.644993e+01
  -9.565045e+01  -4.518643e+01
   7.769059e+00  -1.202133e+02
   1.581748e+02  -8.391855e+01
   1.892222e+02   7.845884e+01
   6.364733e+01   2.190349e+02
  -1.647312e+02   2.320547e+02
  -2.603830e+02   5.620063e+01
  -2.601683e+02  -9.199178e+01
  -1.103906e+02  -1.803746e+02
   3.719425e+01  -1.417558e+02
   8.195291e+01  -7.474608e+01
   7.522898e+01  -7.260609e+01
   5.481113e+01  -9.807895e+01
   9.363903e+01  -8.287019e+01
   1.316910e+02   2.134575e+01
   1.109149e+02   1.416621e+02
   1.397117e+01   2.462571e+02
  -8.731567e+01   1.557625e+02
  -1.560611e+02  -1.140792e+00
  -1.367084e+02  -1.294343e+02
  -4.605974e+00  -1.529602e+02
   7.668543e+01  -7.125771e+01
   6.220840e+01   1.829755e+01
  -2.741806e+00   4.428041e+01
  -2.980355e+01   2.670403e+01
   2.456064e+01   1.153721e+01
   8.483526e+01   2.236056e+01
   4.306373e+01   4.590905e+01
  -8.031020e+01   3.967022e+01
  -1.730162e+02   3.318236e-01
  -1.322531e+02  -6.173154e+01
  -5.601817e+00  -9.039493e+01
   1.430149e+02  -7.336384e+01
   1.705888e+02   1.156460e+01
   3.990373e+01   5.075954e+01
  -6.264834e+01   3.732910e+01
  -7.285794e+01  -2.354830e+01
  -1.247690e+01  -7.313874e+01
   4.587429e+01  -6.775990e+01
   7.197682e+01  -8.446290e-01
   5.130939e+01   5.503092e+01
   4.481262e+01   4.185041e+01
   5.150768e+01   6.168939e+00
   6.633941e+01  -3.565504e+00
   5.399143e+01   7.066713e+01
  -4.004848e+01   1.566886e+02
  -1.530747e+02   1.290499e+02
  -1.961192e+02   4.311937e+01
  -1.159482e+02  -9.289755e+01
   1.114018e+01  -1.146544e+02
   8.602612e+01  -6.808094e+01
   5.973746e+01   4.212037e+00
  -6.201936e+01   1.697212e+01
  -1.373795e+02  -6.344632e+01
  -8.471224e+01  -1.010791e+02
   9.045289e+01  -9.870001e+01
   1.969066e+02  -3.824550e+01
   1.312402e+02   2.963415e+01
   3.169860e+01   9.352256e+01
  -5.757535e+01   5.814810e+01
  -4.388841e+01  -1.548932e+00
   4.640714e+01  -2.424528e+01
   9.050058e+01   1.030130e+01
   4.159168e+01   1.137115e+02
  -8.747527e+01   1.390650e+02
  -1.561309e+02   6.180742e+01
  -1.308472e+02  -1.184844e+02
  -6.849416e+00  -1.631931e+02
   7.882860e+01  -1.301904e+02
   9.576674e+01   1.552275e+01
   3.604314e+01   1.090980e+02
  -3.494299e+00   1.128166e+02
  -4.815696e+01   1.069758e+01
  -4.317625e+01  -2.823924e+01
  -1.651121e+01  -7.664578e+00
  -6.852680e+00   1.960319e+01
  -3.107610e+01  -2.431828e+01
  -5.806640e+01  -1.018481e+02
  -2.274216e+01  -1.065320e+02
   5.147340e+01  -4.317046e+01
   1.379880e+02   2.911918e+01
   1.229515e+02   7.104542e+01
   1.353890e+01   4.156017e+01
  -8.179255e+01   2.574947e+01
  -9.008820e+01   9.760050e+00
  -1.863637e+01  -1.313282e+01
   3.559674e+01  -2.505159e+01
   1.756671e+01  -1.282430e+01
  -1.195094e+01   4.659647e+00
   5.097903e+00   5.273393e+00
   6.440703e+01  -2.900620e+00
   8.023309e+01   1.811178e+01
   1.989263e+01   8.029483e+01
  -1.208857e+02   1.104459e+02
  -1.690555e+02   3.801796e+01
  -1.436636e+02  -6.808899e+01
  -3.443086e+01  -1.727153e+02
   9.421104e+01  -1.649367e+02
   1.092420e+02  -6.112104e+01
   8.592696e+01   1.322510e+01
   1.973769e+01   3.445381e+01
   3.195842e+00   1.287863e+01
   1.282138e+01   9.470258e+00
   2.909595e+01   4.721276e+01
   1.975547e+01   9.507965e+01
  -2.926669e+01   6.815647e+01
  -7.704981e+01  -1.483897e+01
  -8.339419e+01  -9.897572e+01
  -1.458107e+01  -1.093346e+02
   7.836021e+01  -3.238164e+01
   1.044708e+02   6.868600e+01
   4.204221e+01   1.031765e+02
  -6.403203e+01   5.687783e+01
  -1.094389e+02  -1.989797e+00
  -3.945813e+01  -5.350065e+01
   2.871145e+01  -6.512505e+01
   4.110274e+01  -3.141575e+01
  -2.671789e+01   7.687495e+00
  -6.150329e+01   7.636122e+00
  -1.194566e+01  -2.842965e+01
   8.590057e+01  -5.343919e+01
   1.135309e+02  -3.431161e+01
   6.741053e+01   1.203128e+01
  -1.335702e+01   8.353100e+01
  -5.119678e+01   7.841323e+01
  -4.672836e+01   1.170327e+01
  -5.467486e+00  -4.965631e+01
   1.876497e+01  -5.442865e+01
   3.620936e+01   9.681697e+00
   2.581447e+01   5.158886e+01
  -2.605262e+00   4.004037e+01
  -3.314662e+01  -2.781111e+00
  -4.341809e+01  -3.034141e+01
  -1.912945e+01  -5.697394e+00
   4.220589e+00   2.078172e+01
   4.091386e+00   1.005444e+01
  -2.892145e+00  -2.666538e+01
  -1.972689e+00  -5.187538e+01
   2.686068e+01  -2.195364e+01
   4.188448e+01   3.958117e+01
   1.215469e+01   6.570470e+01
  -3.905626e+01   2.196473e+01
  -5.481081e+01  -4.348085e+01
  -2.085416e+01  -6.215536e+01
   6.142981e+01  -2.974902e+01
   8.941981e+01   1.389572e+01
   4.864656e+01   3.970657e+01
  -2.838650e+01   4.192027e+01
  -6.146752e+01   2.674887e+01
  -2.725388e+01   4.978648e+00
   3.140126e+01  -4.014189e+00
   3.463770e+01   5.615781e+00
  -2.353637e+01   2.662066e+01
  -8.114409e+01   2.408237e+01
