
 $NMID
 id='ANONYMOUS ', fmtdat='(2E16.6)'
 volume=1.0
 tramp=1.0
 $END
   5.290483e+03  -1.731386e+02
   2.836485e+03   3.084133e+03
  -8.249360e+02   3.070252e+03
  -1.980829e+03   7.795577e+02
  -1.036933e+03  -8.825660e+02
   7.447095e+02  -6.399093e+02
   1.062991e+03   6.870874e+02
  -2.119532e+02   1.063782e+03
  -8.993956e+02   7.421764e+02
  -1.031652e+03  -1.373247e+02
  -4.644903e+02  -9.278924e+02
   2.742190e+02  -9.949425e+02
   7.795464e+02  -6.627233e+01
   3.703698e+02   7.819157e+02
  -3.079275e+02   7.187106e+02
  -5.699584e+02   4.050061e+01
  -2.721486e+02  -7.442983e+02
   2.721712e+02  -6.987038e+02
   5.803036e+02  -3.796836e+01
   3.223979e+02   4.270813e+02
  -2.841311e+01   4.898057e+02
  -2.436711e+02   2.423179e+02
  -2.022814e+02   3.400219e+01
   1.080607e+02  -1.472901e+02
   5.074104e+02   1.857874e+02
   2.328705e+02   4.519299e+02
  -4.716558e+02   5.030395e+02
  -9.618082e+02  -2.037748e+01
  -4.708189e+02  -6.012869e+02
   4.970205e+02  -5.687625e+02
   7.719245e+02  -5.447993e+01
   4.501171e+02   5.750419e+02
  -3.613628e+02   5.352908e+02
  -5.909618e+02   1.542433e+02
  -4.086317e+02  -1.986498e+02
  -7.322861e+01  -5.554259e+02
   2.541343e+02  -3.402565e+02
   2.708589e+02   3.101381e+02
  -1.582424e+02   5.045578e+02
  -4.990270e+02   1.823546e+00
  -2.373516e+02  -7.119642e+02
   3.075098e+02  -7.025689e+02
   6.167288e+02   5.495560e+01
   2.138277e+02   6.138819e+02
  -2.651009e+02   3.457241e+02
  -4.328922e+02  -3.985131e+02
   1.922926e+01  -5.532469e+02
   6.053208e+02  -1.777878e+02
   6.645614e+02   4.159137e+02
   1.455873e+02   6.588008e+02
  -3.964716e+02   3.174601e+02
  -6.724553e+02   1.140672e-01
  -3.643750e+02  -4.229557e+02
   1.772532e+02  -3.350141e+02
   4.772900e+02  -2.645444e+01
   2.094396e+02   2.634110e+02
  -1.341178e+02   1.117334e+02
  -1.933723e+02  -1.811737e+02
   1.952836e+02  -2.170818e+02
   3.296234e+02   7.452935e+01
   1.515543e+02   3.121612e+02
  -2.016940e+02   2.396831e+02
  -3.190159e+02   1.229944e+02
  -2.239175e+02  -1.009879e+02
   3.332380e+00  -2.007860e+02
   2.340566e+02  -2.912339e+02
   3.358417e+02  -2.216788e+02
   3.054320e+02   1.758614e+02
   9.734256e+01   4.052433e+02
  -1.537922e+02   3.707683e+02
  -1.497122e+02   1.063412e+02
  -2.218107e+01  -2.988332e+01
  -3.034206e+01   5.947360e+01
  -2.086863e+02   1.716824e+02
  -3.148034e+02  -4.450868e+01
  -1.814878e+02  -3.019750e+02
   5.444943e+01  -2.728741e+02
   2.467181e+02  -5.773668e+00
   2.403749e+02   2.390526e+02
   1.801130e+01   3.097825e+02
  -2.721252e+02   1.658943e+02
  -3.711115e+02  -2.132774e+02
  -2.492628e+02  -3.809707e+02
   7.734989e+01  -2.924794e+02
   2.150806e+02  -6.237672e+01
   1.582632e+02   1.686129e+01
   9.629666e+01  -3.204924e+01
   2.326869e+02  -9.359919e+01
   3.466408e+02  -4.675561e+00
   3.035264e+02   2.199065e+02
   4.471419e+01   4.699981e+02
  -3.963860e+02   5.046279e+02
  -5.777409e+02   2.336920e+02
  -3.510324e+02  -5.936649e+01
  -6.068067e+01  -3.122105e+02
   1.926996e+02  -2.585341e+02
   9.411911e+01  -3.426743e+01
  -1.044282e+02   1.326362e+02
  -2.217510e+02  -1.000078e+01
  -7.421262e+01  -2.275595e+02
   1.917422e+02  -1.756985e+02
   1.953062e+02   5.712444e+01
  -1.617358e+01   2.258061e+02
  -1.975024e+02   3.535336e+01
  -1.605781e+02  -2.621499e+02
   2.768950e+01  -3.291354e+02
   1.844805e+02  -1.809405e+02
   3.303015e+02   4.245849e+01
   3.230874e+02   1.957162e+02
   1.201138e+02   2.562056e+02
  -1.054432e+02   1.673251e+02
  -1.810569e+02   3.484187e+01
  -6.105256e+01  -3.451104e+01
   8.693961e+01   2.647688e+01
   5.151507e+01   1.081418e+02
  -1.231236e+02   1.199328e+02
  -2.013128e+02  -6.441362e+00
  -5.310802e+01  -7.429880e+01
   8.541303e+01  -1.991551e+01
   6.178303e+01   6.792304e+01
  -1.115228e+02   9.568788e+01
  -2.893133e+02   5.408278e+01
  -2.951126e+02  -1.425302e+02
  -9.520050e+01  -3.009635e+02
   1.323700e+02  -2.443782e+02
   2.822562e+02  -1.096536e+02
   1.747049e+02   4.434796e+01
  -2.360199e+01   1.219977e+02
  -9.571842e+01   1.134879e+01
   2.502862e+01  -1.260799e+02
   2.092840e+02  -7.066535e+01
   1.948017e+02   7.141996e+01
   9.592984e+01   2.340433e+02
  -9.757872e+01   1.622641e+02
  -1.393158e+02   2.332598e+01
  -8.385422e+01  -4.480776e+01
   3.311538e+01  -4.578219e+00
   2.341596e+01   7.179062e+01
  -6.035748e+01   1.197783e+02
  -1.941641e+02   4.164424e+01
  -1.770313e+02  -1.285843e+02
  -1.629950e+01  -2.057298e+02
   1.810955e+02  -1.531397e+02
   1.948910e+02  -1.858624e+01
   6.553420e+01   1.097458e+02
  -6.921070e+01   1.274030e+02
  -8.209885e+01   4.041362e+01
  -1.751099e+01  -2.846855e+01
   2.175170e+01  -2.306850e+01
  -9.074669e+00   4.735903e+00
  -5.970580e+01  -4.017572e+00
  -9.126170e+01  -7.404696e+01
  -1.204171e+01  -1.421520e+02
   8.872463e+01  -1.519564e+02
   2.388399e+02  -1.751384e+01
   2.017115e+02   1.189971e+02
   7.048069e-01   2.393529e+02
  -7.529014e+01   1.808129e+02
  -1.386718e+02   2.009011e+01
  -6.458703e+01  -6.364427e+01
  -2.539399e+01  -3.403045e+01
  -5.391237e+01   1.685903e+01
  -7.393960e+01   1.804028e+01
  -4.948245e+01  -4.342357e+01
   3.700684e+01  -9.094077e+01
   9.485055e+01  -6.320005e+01
   9.140266e+01   2.444348e+01
   9.997199e-01   1.023093e+02
  -1.275668e+02   1.129811e+02
  -2.051398e+02  -2.586673e+01
  -1.017338e+02  -1.672584e+02
   9.426742e+01  -2.479792e+02
   2.752070e+02  -1.071000e+02
   2.616881e+02   5.724936e+01
   1.391103e+02   1.970955e+02
  -3.616738e+01   1.619169e+02
  -9.393628e+01   6.701551e+01
  -8.298629e+01   7.571064e+01
  -5.763331e+01   8.400738e+01
  -8.381219e+01   7.998030e+01
  -1.347381e+02  -2.183676e+01
  -1.249424e+02  -1.391890e+02
  -4.881977e+01  -2.220425e+02
   9.995844e+01  -1.534884e+02
   1.584831e+02   3.871287e+00
   1.713073e+02   1.014864e+02
   4.429351e+01   1.581359e+02
  -4.840291e+01   1.067149e+02
  -6.152386e+01   8.794652e+00
  -6.712107e+00  -3.965860e+01
   7.251331e+00  -3.606118e+01
  -3.363693e+01  -2.166846e+01
  -7.820929e+01  -2.285039e+01
  -5.138974e+01  -4.193052e+01
   6.556765e+01  -4.810702e+01
   1.559519e+02  -4.377421e+00
   1.387776e+02   4.402582e+01
   1.920854e+01   7.008153e+01
  -1.210355e+02   9.185391e+01
  -1.511864e+02   2.351913e+01
  -5.173372e+01  -3.975907e+01
   5.643440e+01  -3.694349e+01
   7.786037e+01   1.821672e+01
   8.550431e+00   6.223050e+01
  -6.254500e+01   5.699383e+01
  -6.255596e+01  -1.631000e+00
  -4.149863e+01  -4.338410e+01
  -4.679501e+01  -3.615190e+01
  -6.127255e+01  -3.319706e+00
  -6.823483e+01  -1.550539e+00
  -3.931284e+01  -6.487137e+01
   3.870723e+01  -1.506649e+02
   1.076149e+02  -1.548161e+02
   1.679983e+02  -5.056390e+01
   1.055888e+02   8.921581e+01
   2.262580e-01   1.043108e+02
  -8.607601e+01   7.120530e+01
  -5.657711e+01  -1.047942e+01
   5.076658e+01  -1.596035e+01
   1.345044e+02   3.746453e+01
   8.277012e+01   1.187879e+02
  -6.941661e+01   1.050694e+02
  -2.010861e+02   6.200530e+01
  -1.534577e+02  -4.359882e+01
  -5.016210e+01  -9.598960e+01
   5.377262e+01  -7.163577e+01
   5.747183e+01  -9.703347e+00
  -4.232085e+01   2.483958e+01
  -7.950859e+01  -1.837913e+01
  -3.497464e+01  -1.215963e+02
   7.943096e+01  -1.648160e+02
   1.728134e+02  -8.837985e+01
   1.286930e+02   1.153002e+02
  -1.241267e+01   1.983859e+02
  -7.743699e+01   1.319125e+02
  -9.163920e+01   6.917349e+00
  -5.944080e+01  -1.204271e+02
   1.701367e+00  -1.075152e+02
   4.121907e+01  -2.592965e+01
   5.175615e+01   2.704831e+01
   2.960493e+01   7.314448e+00
   3.643562e+00  -2.168621e+01
   1.947229e+01   1.244346e+01
   6.717186e+01   9.152807e+01
   5.082652e+01   9.339899e+01
  -4.050107e+01   3.799669e+01
  -1.320212e+02  -2.528245e+01
  -1.286078e+02  -6.685418e+01
  -1.691829e+01  -4.664522e+01
   7.789829e+01  -3.711468e+01
   8.681266e+01  -7.643960e+00
   1.025422e+01   5.756571e+00
  -3.624632e+01   2.577384e+01
  -1.549266e+01   2.314744e+01
   2.238223e+01  -4.718314e-01
  -6.611636e+00  -1.051568e+01
  -8.222529e+01  -1.891033e+00
  -8.138679e+01  -2.912711e+01
  -2.689869e+00  -7.519828e+01
   1.118594e+02  -1.076263e+02
   1.664133e+02  -5.327627e+01
   1.243553e+02   6.799002e+01
   2.821469e+01   1.694720e+02
  -5.190442e+01   1.782217e+02
  -1.038653e+02   4.200458e+01
  -8.563521e+01  -2.705584e+01
  -2.405464e+01  -2.742258e+01
   6.597494e+00  -7.971458e+00
  -8.428255e+00  -8.932745e-01
  -3.265982e+01  -4.310715e+01
  -3.175990e+01  -1.120417e+02
   3.612848e+01  -7.121297e+01
   6.874890e+01   2.211763e+01
   9.397070e+01   1.070096e+02
  -7.637663e+00   1.206299e+02
  -7.581500e+01   2.156913e+01
  -9.838631e+01  -7.364709e+01
  -3.923149e+01  -1.047864e+02
   5.704001e+01  -5.445898e+01
   9.709801e+01   8.148785e+00
   2.255976e+01   4.533528e+01
  -2.135824e+01   6.092174e+01
  -2.778019e+01   2.770683e+01
   3.721856e+01   3.622492e+00
   5.852960e+01  -2.035627e+00
   1.619970e+01   2.070841e+01
  -8.434730e+01   5.844278e+01
  -1.055625e+02   7.519373e+01
  -6.152014e+01   3.846257e+00
   9.990353e+00  -8.256591e+01
   6.462370e+01  -8.442960e+01
   3.504876e+01  -1.259882e+01
  -5.006748e+00   4.777941e+01
  -2.420913e+01   4.617188e+01
  -3.297539e+01  -1.788743e+01
  -2.738567e+01  -5.158577e+01
  -1.527114e+00  -2.832868e+01
   3.147139e+01   5.282206e+00
   4.157718e+01   1.639911e+01
   2.150733e+01  -4.003463e-01
  -1.626455e-01  -1.033272e+01
  -1.125034e+01   4.555386e+00
  -1.597981e+01   3.765266e+01
  -1.671134e+01   4.653513e+01
  -3.367405e+01   6.913744e+00
  -2.672465e+01  -4.185300e+01
   8.187497e+00  -6.539706e+01
   4.481155e+01  -1.986919e+01
   5.040802e+01   3.754185e+01
   1.917605e+01   6.584458e+01
  -4.722832e+01   3.205015e+01
  -8.150890e+01  -1.456098e+01
  -4.766799e+01  -4.975711e+01
   1.666288e+01  -4.075452e+01
   6.410088e+01  -2.370272e+01
   2.283164e+01  -8.733982e+00
  -3.858606e+01   9.695945e-01
  -3.747117e+01  -1.596984e+01
   2.976442e+01  -3.599768e+01
   8.979096e+01  -2.438462e+01
