
 $NMID
 id='ANONYMOUS ', fmtdat='(2E16.6)'
 volume=1.0
 tramp=1.0
 $END
   4.458403e+03  -8.015803e+01
   2.966964e+03   2.903804e+03
  -6.451352e+02   2.941978e+03
  -1.989432e+03   6.698951e+02
  -1.208535e+03  -7.745537e+02
   5.952387e+02  -5.151959e+02
   8.289075e+02   6.193756e+02
  -8.569811e+01   1.133562e+03
  -8.107998e+02   6.237938e+02
  -9.984993e+02  -1.417378e+02
  -5.275925e+02  -8.736039e+02
   2.390405e+02  -1.015501e+03
   6.305180e+02  -1.464986e+02
   3.956262e+02   7.019816e+02
  -2.769494e+02   6.589704e+02
  -6.441164e+02  -9.464419e-01
  -2.627023e+02  -7.356944e+02
   2.519830e+02  -6.456366e+02
   5.968398e+02  -5.395684e+01
   4.368313e+02   3.572634e+02
   4.345410e+01   4.713698e+02
  -2.086035e+02   2.708189e+02
  -1.910705e+02   2.701280e+01
   1.249526e+02  -5.126994e+01
   3.887203e+02   2.232202e+02
   2.346641e+02   4.745547e+02
  -5.661336e+02   3.643136e+02
  -9.484022e+02  -1.411701e+02
  -4.213135e+02  -6.274387e+02
   4.692738e+02  -5.490860e+02
   7.167949e+02   4.352509e+01
   3.436081e+02   4.893022e+02
  -2.743456e+02   4.741718e+02
  -5.259184e+02   1.365324e+02
  -4.174579e+02  -2.354869e+02
  -4.940971e+01  -5.052462e+02
   1.684487e+02  -3.001283e+02
   1.081073e+02   2.338676e+02
  -1.767237e+02   3.948276e+02
  -4.756782e+02  -4.690039e+01
  -1.932246e+02  -6.706830e+02
   3.186746e+02  -6.857670e+02
   6.164205e+02   5.602311e+01
   1.817600e+02   5.932280e+02
  -3.035447e+02   3.580116e+02
  -4.372489e+02  -3.364820e+02
   9.440735e+01  -5.456021e+02
   6.463822e+02  -1.192139e+02
   6.014620e+02   4.905876e+02
   1.798427e+02   6.243973e+02
  -3.523018e+02   3.294469e+02
  -6.261253e+02  -2.623960e+01
  -3.695869e+02  -3.283818e+02
   1.830571e+02  -3.556756e+02
   4.704023e+02  -4.337144e+01
   2.337547e+02   2.139644e+02
  -1.603477e+02   1.226044e+02
  -1.246645e+02  -1.601424e+02
   1.687745e+02  -1.919298e+02
   3.294253e+02   7.600880e+01
   1.313293e+02   3.186895e+02
  -2.114357e+02   2.039075e+02
  -3.984902e+02   7.233056e+01
  -2.358254e+02  -7.546995e+01
   5.014568e+01  -2.314093e+02
   2.382191e+02  -3.635299e+02
   3.960921e+02  -2.578911e+02
   3.460812e+02   1.358394e+02
   1.103362e+02   4.786305e+02
  -1.232817e+02   3.236066e+02
  -1.562034e+02   1.399338e+02
  -4.852127e+01  -1.614334e+01
  -2.517044e+01   9.321222e+01
  -1.978541e+02   1.529383e+02
  -2.926688e+02  -1.193530e+02
  -1.800875e+02  -2.950735e+02
   6.053722e+01  -2.937956e+02
   2.355995e+02   3.347387e+00
   2.353767e+02   2.631290e+02
  -8.093205e+00   3.064031e+02
  -2.932496e+02   1.358828e+02
  -3.790444e+02  -2.082129e+02
  -2.210981e+02  -3.807847e+02
   7.593602e+01  -3.107509e+02
   2.052703e+02  -1.272611e+02
   1.784299e+02  -7.670031e+00
   1.125142e+02  -5.225016e+01
   2.730461e+02  -6.411271e+01
   3.567892e+02   1.137377e+02
   3.495297e+02   3.041695e+02
   5.497935e+01   5.259385e+02
  -4.262518e+02   4.172384e+02
  -5.697961e+02   2.012923e+02
  -3.377057e+02  -7.941819e+01
  -4.311822e+01  -3.119838e+02
   1.639020e+02  -2.239755e+02
   7.307978e+01  -3.840873e+01
  -1.061819e+02   1.168169e+02
  -2.001176e+02  -9.359178e+00
  -4.549512e+01  -2.309893e+02
   1.949774e+02  -1.940102e+02
   1.888524e+02   6.217962e+01
   8.747273e-01   2.151302e+02
  -2.078005e+02  -7.971235e+00
  -1.942263e+02  -2.636407e+02
   6.028143e+01  -3.392517e+02
   2.251618e+02  -1.638567e+02
   3.451008e+02   3.985519e+01
   2.819366e+02   2.620489e+02
   6.657500e+01   2.840317e+02
  -1.192573e+02   1.665343e+02
  -2.030163e+02   1.911055e+01
  -5.313965e+01  -3.581489e+01
   6.981861e+01   3.450563e+01
   2.123541e+01   1.412924e+02
  -1.238350e+02   1.032114e+02
  -1.908245e+02   9.247508e+00
  -5.532954e+01  -8.010616e+01
   8.527472e+01  -1.275117e+01
   6.779459e+01   8.183122e+01
  -1.110199e+02   8.503157e+01
  -2.813965e+02   4.758138e+01
  -2.931454e+02  -1.248507e+02
  -7.583302e+01  -2.779425e+02
   1.880735e+02  -2.822753e+02
   3.099853e+02  -1.351361e+02
   1.713488e+02   5.859049e+01
  -3.397055e+01   1.031276e+02
  -8.515162e+01   4.545180e+00
   4.404974e+01  -1.015745e+02
   2.082859e+02  -4.866253e+01
   1.928483e+02   9.927809e+01
   6.924747e+01   2.326802e+02
  -9.936809e+01   1.546085e+02
  -1.518443e+02   2.001681e+01
  -7.893571e+01  -4.192552e+01
   2.864858e+01   3.951092e+00
   3.177145e+01   8.579098e+01
  -8.239999e+01   1.283890e+02
  -2.151255e+02   3.954463e+01
  -1.775096e+02  -1.383030e+02
  -1.157569e+01  -2.079180e+02
   1.713598e+02  -1.429794e+02
   1.956795e+02  -1.556292e+01
   6.022681e+01   1.286915e+02
  -7.195898e+01   1.366842e+02
  -8.879295e+01   3.454044e+01
  -1.602154e+01  -3.334545e+01
   2.664818e+01  -1.707012e+01
  -1.164748e+01   9.409008e+00
  -6.967494e+01  -5.882827e+00
  -8.864842e+01  -8.873678e+01
  -1.017473e+01  -1.503541e+02
   1.307240e+02  -1.705806e+02
   2.448006e+02   9.655668e+00
   1.896668e+02   1.481039e+02
   3.255921e+01   2.168578e+02
  -1.120080e+02   1.884067e+02
  -1.613290e+02   1.713914e+01
  -7.270903e+01  -5.486498e+01
  -2.148988e+01  -3.383135e+01
  -5.854393e+01   1.615033e+01
  -8.005994e+01  -2.671822e+00
  -5.043280e+01  -6.115357e+01
   3.809673e+01  -1.024437e+02
   1.102939e+02  -6.347086e+01
   1.160691e+02   3.160948e+01
  -5.911525e-01   1.189419e+02
  -1.565470e+02   1.000176e+02
  -1.907264e+02  -5.852019e+01
  -8.508345e+01  -1.836312e+02
   1.103700e+02  -2.309570e+02
   3.116881e+02  -9.743715e+01
   2.726143e+02   1.014404e+02
   1.403394e+02   1.942800e+02
  -3.255417e+01   1.547565e+02
  -9.228237e+01   8.306986e+01
  -8.956225e+01   7.905044e+01
  -6.421015e+01   9.054909e+01
  -9.326215e+01   8.257541e+01
  -1.355124e+02  -4.159991e+01
  -1.169713e+02  -1.724945e+02
  -4.351454e+01  -2.706161e+02
   1.060168e+02  -1.644975e+02
   1.745701e+02   8.508611e-01
   1.539535e+02   1.272512e+02
   2.001997e+01   1.682825e+02
  -6.334714e+01   1.061534e+02
  -6.389302e+01  -9.865489e+00
  -1.546543e+01  -4.114689e+01
   1.850336e+01  -3.214704e+01
  -3.211506e+01  -2.165274e+01
  -9.753534e+01  -1.738618e+01
  -4.868898e+01  -4.266431e+01
   7.857040e+01  -4.603521e+01
   1.558709e+02  -3.633353e+01
   1.312885e+02   4.654463e+01
   3.122259e+01   8.148301e+01
  -1.407058e+02   7.383284e+01
  -1.590661e+02   3.463952e+00
  -5.040131e+01  -4.885110e+01
   6.352980e+01  -3.029492e+01
   7.930175e+01   2.267937e+01
   4.746618e+00   6.549790e+01
  -6.645935e+01   5.628619e+01
  -7.192373e+01  -9.915704e-02
  -3.564204e+01  -4.486767e+01
  -4.079434e+01  -5.092556e+01
  -6.534677e+01  -7.537821e+00
  -6.860820e+01   7.524643e-01
  -4.091658e+01  -7.972190e+01
   3.671599e+01  -1.555965e+02
   1.375153e+02  -1.214705e+02
   1.996491e+02  -3.928857e+01
   1.218022e+02   8.574384e+01
   5.647811e+00   1.246141e+02
  -8.191796e+01   6.031532e+01
  -6.497988e+01  -1.816583e+01
   6.411934e+01  -1.877484e+01
   1.444622e+02   5.297104e+01
   9.202946e+01   1.301924e+02
  -1.056246e+02   1.050060e+02
  -1.808221e+02   4.386607e+01
  -1.641546e+02  -3.168811e+01
  -5.022831e+01  -8.508377e+01
   6.578056e+01  -7.990849e+01
   5.151787e+01  -3.128196e+00
  -4.182688e+01   2.284235e+01
  -9.016455e+01  -1.580491e+01
  -3.711406e+01  -1.227195e+02
   1.068843e+02  -1.555634e+02
   1.844161e+02  -7.223551e+01
   1.311831e+02   1.082876e+02
   3.142282e-01   1.806612e+02
  -8.952362e+01   1.204048e+02
  -1.052283e+02  -1.111511e+01
  -5.365598e+01  -1.001630e+02
   6.152521e+00  -1.203639e+02
   4.735114e+01  -1.844015e+01
   6.040171e+01   3.330860e+01
   2.954908e+01   1.024829e+01
   3.452423e+00  -2.117119e+01
   2.554544e+01   1.705801e+01
   5.543491e+01   1.043844e+02
   4.017010e+01   1.104457e+02
  -4.468670e+01   4.335978e+01
  -1.495857e+02  -3.847529e+01
  -1.322936e+02  -8.339090e+01
  -1.415256e+01  -5.005029e+01
   8.919304e+01  -2.775143e+01
   9.827931e+01  -1.382842e-01
   1.212879e+01   1.004579e+01
  -3.978721e+01   2.268934e+01
  -1.488597e+01   1.960121e+01
   2.296030e+01  -1.705290e+00
  -5.959774e+00  -1.021208e+01
  -7.854359e+01  -5.159042e+00
  -9.580897e+01  -2.429685e+01
  -9.668085e-01  -8.593507e+01
   1.463026e+02  -1.189825e+02
   2.029457e+02  -7.326073e+01
   1.212153e+02   6.423953e+01
   1.864460e+01   1.792003e+02
  -9.765689e+01   1.717655e+02
  -1.146267e+02   3.554845e+01
  -9.227711e+01  -1.895642e+01
  -2.077509e+01  -3.539692e+01
   4.358761e+00  -7.403756e+00
  -9.064051e+00  -4.484183e+00
  -3.519898e+01  -4.127799e+01
  -2.593979e+01  -9.649680e+01
   3.144199e+01  -7.347488e+01
   7.819723e+01   2.087942e+01
   9.793120e+01   1.010887e+02
  -1.947457e-01   1.139277e+02
  -8.430335e+01   2.721661e+01
  -1.163102e+02  -7.421098e+01
  -4.940930e+01  -1.120484e+02
   5.922459e+01  -5.033712e+01
   9.830420e+01   1.510185e+01
   3.505295e+01   4.536888e+01
  -3.640616e+01   6.257225e+01
  -3.502266e+01   2.363599e+01
   3.889514e+01  -2.757924e+00
   6.390161e+01  -4.793513e+00
   1.602472e+01   2.662737e+01
  -7.944154e+01   7.241610e+01
  -1.308774e+02   5.922129e+01
  -6.882749e+01  -8.896692e+00
   1.443730e+01  -8.171076e+01
   4.762290e+01  -8.362086e+01
   3.869510e+01  -1.202377e+01
  -3.615612e+00   4.584643e+01
  -2.150248e+01   4.529036e+01
  -3.429895e+01  -2.254792e+01
  -2.299168e+01  -5.088213e+01
   2.600147e+00  -3.273634e+01
   3.755807e+01   7.440503e+00
   4.066596e+01   2.683315e+01
   2.350983e+01   2.377312e+00
   3.442058e-01  -1.270648e+01
  -8.546179e+00  -2.812013e-01
  -7.859601e+00   3.348605e+01
  -1.774133e+01   4.921616e+01
  -3.237926e+01   7.592478e+00
  -2.796213e+01  -4.111503e+01
   3.784182e+00  -6.611761e+01
   4.849829e+01  -1.817247e+01
   6.371451e+01   4.506066e+01
   2.227099e+01   6.926003e+01
  -5.586024e+01   2.983576e+01
  -8.898639e+01  -2.706687e+01
  -5.069482e+01  -4.640164e+01
   2.954790e+01  -4.673408e+01
   7.245141e+01  -1.409412e+01
   2.523324e+01  -6.677021e+00
  -3.994736e+01  -3.926213e+00
  -4.382081e+01  -1.885882e+01
   3.144072e+01  -3.149024e+01
   9.700641e+01  -2.794708e+01
