
 $NMID
 id='ANONYMOUS ', fmtdat='(2E16.6)'
 volume=1.0
 tramp=1.0
 $END
   3.052043e+03   4.088383e+00
   2.034322e+03   2.012870e+03
  -3.930928e+02   2.248538e+03
  -1.350890e+03   8.338917e+02
  -1.061423e+03  -1.618126e+02
   2.384975e+02  -2.222514e+02
   5.493250e+02   1.796533e+02
  -3.167605e+01   6.176285e+02
  -4.165871e+02   5.415771e+02
  -5.436122e+02  -6.360251e+01
  -4.956125e+02  -5.495844e+02
   1.742129e+02  -8.152055e+02
   3.989839e+02  -8.023410e+01
   2.345376e+02   4.566778e+02
  -2.377912e+02   5.160317e+02
  -5.095059e+02   9.696020e+01
  -2.192650e+02  -5.433327e+02
   1.489380e+02  -5.413488e+02
   4.132625e+02  -1.201766e+02
   3.530589e+02   1.630015e+02
   5.761461e+01   4.002439e+02
  -1.690491e+02   1.897716e+02
  -1.519109e+02   4.457721e+01
   1.579358e+02   1.144123e+01
   2.416974e+02   1.783862e+02
   9.927630e+01   2.742614e+02
  -3.816301e+02   3.094330e+02
  -7.684547e+02  -1.548764e+02
  -1.542727e+02  -3.795400e+02
   3.343583e+02  -3.410787e+02
   5.494405e+02   1.034021e+02
   1.746782e+02   3.955716e+02
  -2.313650e+02   3.468802e+02
  -4.514348e+02   1.258131e+02
  -3.056503e+02  -1.676293e+02
  -2.868281e+01  -2.923259e+02
   5.883808e+01  -2.312981e+02
   1.476062e+01   1.097385e+02
  -1.691829e+02   2.634537e+02
  -2.755735e+02  -5.110979e+01
  -4.231666e+01  -4.611278e+02
   2.524212e+02  -3.919410e+02
   3.509459e+02  -2.133304e+01
   2.237964e+02   4.129092e+02
  -2.066800e+02   2.078679e+02
  -2.529067e+02  -2.746820e+02
   1.571819e+01  -4.509711e+02
   4.735845e+02  -1.286751e+02
   4.620374e+02   3.659361e+02
   1.344758e+02   4.796379e+02
  -3.197566e+02   2.711408e+02
  -5.289604e+02  -8.044179e+01
  -2.598296e+02  -2.773931e+02
   1.198811e+02  -2.899911e+02
   2.819693e+02  -3.085033e+01
   1.858968e+02   6.631174e+01
  -2.666981e+01   4.835030e+01
  -4.612894e+01  -4.737318e+01
   1.368113e+02  -6.062057e+01
   2.382524e+02   6.278738e+01
   1.720824e+02   2.109154e+02
  -1.370920e+02   2.251255e+02
  -2.736800e+02   5.824340e+01
  -2.130510e+02  -8.333078e+01
   4.688241e+01  -2.104065e+02
   2.054188e+02  -2.422557e+02
   2.821814e+02  -1.304508e+02
   2.294169e+02   1.347513e+02
   5.308904e+01   3.774013e+02
  -6.664960e+01   2.661391e+02
  -9.617882e+01   1.269104e+02
  -3.195996e+01   5.664106e+01
  -6.031676e+01   1.080933e+02
  -2.147491e+02   9.111789e+01
  -2.298821e+02  -9.204135e+01
  -1.003313e+02  -2.468506e+02
   7.275678e+01  -2.148468e+02
   1.700600e+02   1.935844e+00
   1.378682e+02   2.326141e+02
  -3.540725e+01   1.686776e+02
  -2.127197e+02   7.628709e+01
  -2.757700e+02  -1.572711e+02
  -1.420090e+02  -2.958386e+02
   9.551767e+01  -2.218710e+02
   1.592461e+02  -9.272801e+01
   1.381081e+02  -4.420710e+01
   9.286950e+01  -3.186883e+01
   2.206796e+02  -6.334112e+01
   3.283063e+02   6.055675e+01
   2.392423e+02   2.179664e+02
   3.034984e+00   4.165179e+02
  -3.345387e+02   3.626680e+02
  -4.870280e+02   1.353477e+02
  -2.970624e+02  -8.574644e+01
  -4.383953e+01  -2.640538e+02
   1.012831e+02  -1.801602e+02
   6.497837e+01  -2.487504e+01
  -1.062095e+02   7.069976e+01
  -1.332435e+02  -1.964093e+01
  -4.376470e+01  -1.494115e+02
   1.238399e+02  -1.555317e+02
   1.148804e+02   3.833339e+01
  -3.561296e+01   1.386825e+02
  -1.562049e+02  -9.673591e+00
  -1.484596e+02  -2.182940e+02
   3.722630e+01  -2.802498e+02
   1.820419e+02  -1.259380e+02
   2.849183e+02   4.108250e+01
   2.418179e+02   2.142580e+02
   3.994103e+01   1.671053e+02
  -1.087798e+02   1.423160e+02
  -1.565114e+02   1.899048e+01
  -3.642116e+01  -2.078438e+01
   5.741542e+01   4.397389e+01
   1.863567e+01   9.492454e+01
  -9.609134e+01   7.610926e+01
  -1.464707e+02  -2.450301e+01
  -3.368538e+01  -4.830797e+01
   6.262469e+01  -5.359729e+00
   4.291260e+01   7.698676e+01
  -1.233941e+02   6.446528e+01
  -2.589011e+02  -2.004071e+01
  -2.293914e+02  -1.188570e+02
  -1.876002e+01  -2.467424e+02
   1.653969e+02  -1.892288e+02
   2.481422e+02  -5.809681e+01
   1.161893e+02   4.961640e+01
  -2.958062e+01   7.560078e+01
  -5.965146e+01   1.369794e+00
   4.084772e+01  -7.340873e+01
   1.539210e+02  -2.869678e+01
   1.588157e+02   9.855977e+01
   5.312233e+01   1.872048e+02
  -6.057378e+01   1.128366e+02
  -1.193581e+02   5.174835e+00
  -5.058566e+01  -2.623705e+01
   1.910907e+01   1.090889e+01
   3.036245e+01   9.477897e+01
  -8.355867e+01   1.055221e+02
  -1.540685e+02   5.894898e+00
  -1.488481e+02  -1.261816e+02
  -1.039138e+01  -1.765160e+02
   1.456581e+02  -1.277545e+02
   1.577221e+02  -1.436516e+01
   4.978414e+01   1.002718e+02
  -6.996177e+01   8.629056e+01
  -6.951821e+01   2.824443e+01
  -7.879517e+00  -2.384536e+01
   2.559642e+01  -1.140874e+01
  -7.355126e+00   1.575398e+01
  -6.852472e+01  -1.856410e+01
  -8.411180e+01  -7.430831e+01
  -4.244778e+00  -1.535004e+02
   1.041503e+02  -1.166172e+02
   1.975771e+02   2.115283e+01
   1.612628e+02   1.406210e+02
   6.600687e+00   1.785485e+02
  -1.018761e+02   1.562908e+02
  -1.118240e+02   6.059629e+00
  -5.652143e+01  -3.432616e+01
  -2.027803e+01  -2.503321e+01
  -4.692575e+01   1.146009e+01
  -6.936196e+01   9.249840e+00
  -4.729533e+01  -4.484667e+01
   4.414359e+01  -7.392144e+01
   1.014504e+02  -4.712057e+01
   6.911187e+01   4.342948e+01
  -1.832532e+01   1.085625e+02
  -1.430749e+02   8.917491e+01
  -1.477213e+02  -6.667184e+01
  -7.634835e+01  -2.008788e+02
   1.426751e+02  -1.901767e+02
   2.265850e+02  -6.391091e+01
   2.278957e+02   7.388124e+01
   8.244526e+01   1.664323e+02
  -3.493038e+01   1.248163e+02
  -7.667934e+01   5.641300e+01
  -6.939949e+01   6.721759e+01
  -4.807434e+01   9.507339e+01
  -7.498655e+01   6.789981e+01
  -1.120166e+02  -2.225121e+01
  -1.106116e+02  -1.315020e+02
  -1.539518e+01  -2.139039e+02
   9.154927e+01  -1.408300e+02
   1.476468e+02   6.211663e+00
   1.350544e+02   1.135800e+02
   1.797888e+01   1.286551e+02
  -6.034471e+01   7.296600e+01
  -4.994907e+01  -1.171956e+01
   1.327870e+00  -3.775408e+01
   1.425891e+01  -2.505842e+01
  -2.116918e+01  -1.321162e+01
  -6.906694e+01  -1.739281e+01
  -3.276274e+01  -3.834521e+01
   6.568440e+01  -3.585274e+01
   1.351594e+02  -1.116799e-01
   1.209173e+02   4.970754e+01
   3.245602e+00   7.885934e+01
  -1.197967e+02   6.124461e+01
  -1.391478e+02  -1.834551e+00
  -3.990617e+01  -4.393145e+01
   5.796725e+01  -2.720780e+01
   5.738817e+01   2.109824e+01
   1.055064e+01   6.149792e+01
  -3.927802e+01   6.077469e+01
  -6.022936e+01  -2.615927e+00
  -3.525595e+01  -4.987797e+01
  -3.793542e+01  -3.819239e+01
  -4.913671e+01  -4.609451e+00
  -5.873502e+01   1.991201e-01
  -3.991294e+01  -7.063929e+01
   3.189994e+01  -1.374491e+02
   1.327019e+02  -1.140759e+02
   1.552550e+02  -2.467008e+01
   9.236695e+01   7.833067e+01
   8.168196e-01   1.029017e+02
  -8.301437e+01   5.798357e+01
  -5.396546e+01  -4.147675e+00
   5.333403e+01  -1.380777e+01
   1.156289e+02   4.851409e+01
   8.499946e+01   1.010679e+02
  -7.216861e+01   8.018975e+01
  -1.722822e+02   3.594006e+01
  -1.138457e+02  -3.177593e+01
  -2.853804e+01  -8.053980e+01
   4.851847e+01  -5.686565e+01
   3.620574e+01  -4.493391e+00
  -4.009081e+01   1.841502e+01
  -7.790480e+01  -1.278672e+01
  -2.552296e+01  -9.586889e+01
   6.995965e+01  -1.214039e+02
   1.411547e+02  -4.282120e+01
   1.042893e+02   1.100242e+02
   1.274540e+01   1.400483e+02
  -7.065334e+01   1.179201e+02
  -8.353569e+01  -1.903652e+01
  -3.095557e+01  -9.077729e+01
   1.013689e+00  -9.986203e+01
   3.887657e+01  -1.091247e+01
   3.990974e+01   2.273935e+01
   1.916027e+01   6.767941e+00
   6.131162e+00  -1.761750e+01
   1.823271e+01   2.017398e+01
   5.274583e+01   8.492228e+01
   2.100772e+01   9.563042e+01
  -4.251203e+01   3.529619e+01
  -1.382743e+02  -2.968038e+01
  -1.170919e+02  -6.226043e+01
  -1.022584e+01  -3.305985e+01
   7.523717e+01  -2.005765e+01
   7.688973e+01  -1.085703e+01
   1.425201e+01   1.122795e+01
  -3.107513e+01   2.154237e+01
  -1.427319e+01   1.345309e+01
   1.408357e+01  -3.633722e+00
  -4.648602e+00  -7.089982e+00
  -5.710419e+01  -2.444697e+00
  -7.130523e+01  -2.127692e+01
  -1.065232e+01  -7.304264e+01
   1.173818e+02  -9.180713e+01
   1.506801e+02  -4.162439e+01
   9.581346e+01   6.218903e+01
   2.940945e+01   1.582946e+02
  -6.897316e+01   1.303363e+02
  -9.381617e+01   5.995601e+01
  -7.762588e+01  -2.051480e+01
  -1.537947e+01  -2.746566e+01
  -2.375316e+00  -1.115228e+01
  -1.059550e+01  -3.660907e+00
  -2.669880e+01  -4.176168e+01
  -1.009955e+01  -9.097365e+01
   2.851178e+01  -5.679335e+01
   7.074392e+01   1.393271e+01
   6.073772e+01   8.425087e+01
   2.140854e+00   1.034387e+02
  -6.985847e+01   2.180873e+01
  -9.027030e+01  -6.731360e+01
  -2.742565e+01  -9.717105e+01
   5.660668e+01  -5.295499e+01
   1.003950e+02   4.718317e+00
   3.142967e+01   4.238413e+01
  -3.061271e+01   5.134093e+01
  -3.135026e+01   2.839832e+01
   2.770718e+01  -3.023056e+00
   5.286288e+01  -1.851389e+00
   7.901479e+00   2.070344e+01
  -7.068409e+01   4.942694e+01
  -9.292774e+01   3.347722e+01
  -5.940619e+01  -1.620655e+01
   2.062238e+01  -7.408497e+01
   4.325226e+01  -6.527646e+01
   3.325692e+01  -6.824930e+00
   1.781307e+00   4.315835e+01
  -2.142080e+01   4.491438e+01
  -3.265021e+01  -1.424675e+01
  -1.961195e+01  -4.347395e+01
   3.189472e+00  -2.845447e+01
   2.822463e+01   5.687103e+00
   3.870030e+01   2.329511e+01
   1.704685e+01   4.115278e+00
  -9.812683e-01  -1.449485e+01
  -3.148518e+00  -3.541052e+00
   1.183564e+00   2.735297e+01
  -3.933395e+00   4.490028e+01
  -2.774175e+01   1.797938e+01
  -3.030991e+01  -3.986432e+01
  -3.001572e+00  -5.151239e+01
   3.777401e+01  -2.098886e+01
   4.335033e+01   4.715118e+01
   1.500265e+01   5.457711e+01
  -4.984698e+01   2.739751e+01
  -7.020771e+01  -1.177765e+01
  -4.564440e+01  -3.465920e+01
   2.469096e+01  -3.350599e+01
   5.383082e+01  -1.569960e+01
   2.166426e+01  -9.664215e-01
  -2.895805e+01  -1.282349e-01
  -2.818079e+01  -9.289209e+00
   2.298596e+01  -2.506029e+01
   7.728122e+01  -2.132388e+01
