
 $NMID
 id='ANONYMOUS ', fmtdat='(2E16.6)'
 volume=1.0
 tramp=1.0
 $END
  -3.577012e+03   3.747688e+01
  -1.951544e+03  -2.066836e+03
   2.740317e+02  -2.421281e+03
   1.432944e+03  -8.045024e+02
   9.000031e+02   1.388366e+02
  -2.417697e+02   2.581264e+02
  -4.438721e+02  -1.597893e+02
   6.067296e+01  -7.065436e+02
   4.519906e+02  -5.111332e+02
   5.443061e+02   6.137710e+01
   4.342184e+02   4.863609e+02
  -1.729105e+02   7.241179e+02
  -3.488141e+02   5.102466e+01
  -1.023818e+02  -4.554290e+02
   2.110454e+02  -4.745925e+02
   4.812584e+02  -3.441623e+01
   1.810350e+02   5.593063e+02
  -1.868921e+02   5.601440e+02
  -3.884159e+02   1.148305e+02
  -3.030970e+02  -1.570978e+02
  -3.881606e+01  -3.582238e+02
   1.520927e+02  -1.861136e+02
   1.575255e+02  -6.601038e+01
  -1.873255e+02  -4.920524e+01
  -2.541984e+02  -1.938946e+02
  -1.121814e+02  -2.873986e+02
   3.731639e+02  -3.161571e+02
   6.966686e+02   1.756940e+02
   1.882869e+02   4.178864e+02
  -2.958991e+02   3.603075e+02
  -5.401948e+02  -9.630666e+01
  -1.891318e+02  -3.781949e+02
   2.613013e+02  -3.421365e+02
   4.091253e+02  -1.398699e+02
   2.512492e+02   2.001804e+02
  -5.864399e+00   3.342300e+02
  -9.344124e+01   2.158528e+02
   2.249949e+01  -7.367743e+01
   1.761259e+02  -2.549442e+02
   3.471007e+02   5.622827e+01
   1.164416e+02   4.595455e+02
  -2.997616e+02   4.351323e+02
  -3.927688e+02  -3.509579e+01
  -1.340214e+02  -4.088373e+02
   2.084993e+02  -2.103385e+02
   2.420569e+02   2.839952e+02
  -3.281235e+00   4.371782e+02
  -4.682627e+02   9.749452e+01
  -5.519244e+02  -3.941385e+02
  -1.676554e+02  -4.897504e+02
   3.096062e+02  -2.551252e+02
   5.460201e+02   2.862634e+01
   2.708034e+02   2.984031e+02
  -1.007106e+02   2.488537e+02
  -3.090254e+02  -5.075851e+00
  -1.693738e+02  -4.623151e+01
   2.783459e+01  -5.299446e+01
   5.561955e+01   8.353558e+01
  -1.200916e+02   8.734178e+01
  -2.123013e+02  -1.023763e+02
  -1.496309e+02  -2.362034e+02
   1.451107e+02  -2.330882e+02
   2.736021e+02  -6.834235e+01
   1.888645e+02   8.414441e+01
  -4.260325e+01   2.054731e+02
  -2.579165e+02   2.534362e+02
  -2.888293e+02   1.144837e+02
  -2.267161e+02  -1.486603e+02
  -4.708306e+01  -3.731330e+02
   6.568459e+01  -2.670232e+02
   7.855872e+01  -1.130107e+02
   3.872382e+01  -6.986250e+01
   8.713222e+01  -1.092735e+02
   2.129692e+02  -1.001914e+02
   2.362936e+02   1.154751e+02
   9.813527e+01   2.363211e+02
  -7.874750e+01   1.944958e+02
  -1.419574e+02  -3.279952e+01
  -1.436713e+02  -2.182551e+02
   4.143776e+01  -1.915713e+02
   2.353443e+02  -7.693114e+01
   2.638619e+02   1.616018e+02
   9.878091e+01   2.658742e+02
  -9.782826e+01   2.233757e+02
  -1.480051e+02   9.726679e+01
  -1.372903e+02   4.297449e+01
  -1.006047e+02   4.194222e+01
  -2.069342e+02   5.237978e+01
  -3.236248e+02  -5.659478e+01
  -2.350684e+02  -2.351085e+02
   1.961170e+01  -4.122280e+02
   3.268902e+02  -3.609064e+02
   4.422739e+02  -1.495009e+02
   2.814726e+02   8.399684e+01
   3.430602e+01   2.468292e+02
  -1.103177e+02   1.836293e+02
  -5.282961e+01   1.639123e+01
   1.025682e+02  -6.306015e+01
   1.477218e+02   1.695318e+01
   4.527143e+01   1.528616e+02
  -1.262204e+02   1.585772e+02
  -1.261722e+02  -4.218155e+01
   3.520510e+01  -1.390466e+02
   1.567740e+02   1.407720e+01
   1.401986e+02   2.365319e+02
  -3.625059e+01   2.878250e+02
  -1.873355e+02   1.338709e+02
  -2.856066e+02  -3.777876e+01
  -2.475294e+02  -2.033098e+02
  -5.012286e+01  -1.716689e+02
   1.182818e+02  -1.355386e+02
   1.546088e+02  -1.535624e+01
   3.572162e+01   2.505160e+01
  -6.746361e+01  -4.463993e+01
  -1.819322e+01  -9.611487e+01
   9.444872e+01  -7.643007e+01
   1.462663e+02   2.396184e+01
   2.824716e+01   5.019896e+01
  -6.910114e+01   1.295566e+01
  -3.773839e+01  -7.019607e+01
   1.318625e+02  -6.535133e+01
   2.644997e+02  -3.743528e+00
   2.260916e+02   1.427209e+02
   3.897613e+00   2.498075e+02
  -1.546771e+02   1.784214e+02
  -2.414696e+02   7.566022e+01
  -1.012816e+02  -6.297580e+01
   2.074654e+01  -7.365206e+01
   6.538979e+01   4.997539e-01
  -4.846348e+01   7.906873e+01
  -1.623533e+02   2.409125e+01
  -1.468706e+02  -8.163807e+01
  -4.486778e+01  -1.960922e+02
   5.881985e+01  -1.200166e+02
   1.195399e+02  -6.978612e+00
   5.357002e+01   2.889934e+01
  -2.519283e+01  -4.122092e+00
  -2.488691e+01  -8.304786e+01
   7.794317e+01  -1.120966e+02
   1.375419e+02  -2.234738e+01
   1.514497e+02   1.124899e+02
  -7.884697e+00   1.763094e+02
  -1.378063e+02   1.170912e+02
  -1.540862e+02   2.384303e+01
  -4.563509e+01  -1.006066e+02
   6.163260e+01  -9.185410e+01
   6.978545e+01  -2.597851e+01
   7.363642e+00   2.524968e+01
  -3.076153e+01   1.043781e+01
   3.300619e+00  -1.388131e+01
   6.409576e+01   1.163797e+01
   8.143806e+01   6.505924e+01
   1.222661e+01   1.498224e+02
  -1.068713e+02   1.256928e+02
  -2.101380e+02  -1.710628e+00
  -1.787515e+02  -1.503680e+02
  -2.651644e+00  -1.960640e+02
   8.685345e+01  -1.526049e+02
   1.151696e+02  -8.939032e+00
   5.829032e+01   4.566886e+01
   2.186766e+01   2.388410e+01
   4.879059e+01  -1.241802e+01
   7.257771e+01  -5.250875e+00
   4.186347e+01   4.514465e+01
  -3.416004e+01   7.189103e+01
  -9.080350e+01   4.543576e+01
  -6.693695e+01  -4.019398e+01
   1.001618e+01  -1.028918e+02
   1.326967e+02  -7.197757e+01
   1.599247e+02   6.465694e+01
   7.322685e+01   1.843876e+02
  -1.302764e+02   2.008503e+02
  -2.335024e+02   6.283634e+01
  -2.092213e+02  -6.183499e+01
  -8.717487e+01  -1.591235e+02
   3.475995e+01  -1.204491e+02
   7.536119e+01  -6.281523e+01
   7.367303e+01  -6.080562e+01
   5.017225e+01  -9.093240e+01
   7.284781e+01  -6.451396e+01
   1.071509e+02   2.157487e+01
   1.151829e+02   1.452754e+02
   2.159200e+01   2.118147e+02
  -9.476388e+01   1.421659e+02
  -1.523229e+02  -2.008475e+01
  -1.294745e+02  -1.079547e+02
  -1.249099e+01  -1.408416e+02
   5.915623e+01  -6.960686e+01
   5.284419e+01   8.818743e+00
  -2.475458e+00   4.470576e+01
  -1.637140e+01   2.554227e+01
   2.093146e+01   1.383377e+01
   7.439638e+01   1.722293e+01
   3.952511e+01   3.634616e+01
  -6.262374e+01   3.660268e+01
  -1.363995e+02   2.153523e+00
  -1.115433e+02  -4.782091e+01
  -5.291819e+00  -7.683986e+01
   1.153788e+02  -6.373615e+01
   1.336767e+02  -7.667050e+00
   3.583128e+01   4.643046e+01
  -5.547708e+01   2.667979e+01
  -6.146731e+01  -1.826122e+01
  -1.383374e+01  -5.693778e+01
   4.337019e+01  -6.116611e+01
   5.642554e+01   2.981068e+00
   3.416551e+01   5.435790e+01
   3.859944e+01   3.931408e+01
   5.096595e+01   5.213119e+00
   5.797587e+01   4.180576e-02
   3.320776e+01   6.630073e+01
  -1.899407e+01   1.244012e+02
  -1.061449e+02   1.169082e+02
  -1.573464e+02   2.659434e+01
  -9.009185e+01  -7.901040e+01
  -8.220494e+00  -1.102196e+02
   7.726045e+01  -6.474893e+01
   5.722106e+01   3.461703e+00
  -4.987592e+01   1.500588e+01
  -1.095002e+02  -4.276009e+01
  -7.117406e+01  -1.029240e+02
   6.908106e+01  -8.876686e+01
   1.795165e+02  -2.708996e+01
   1.131406e+02   3.464927e+01
   2.324932e+01   8.119891e+01
  -4.463591e+01   5.909094e+01
  -3.583463e+01  -1.133867e+00
   3.493059e+01  -2.016498e+01
   7.833370e+01   1.588325e+01
   3.821958e+01   9.354372e+01
  -8.230065e+01   1.234235e+02
  -1.272218e+02   5.629059e+01
  -1.223416e+02  -1.024832e+02
  -1.571900e+01  -1.615683e+02
   7.950579e+01  -1.140609e+02
   8.301685e+01   1.889402e+01
   3.872517e+01   8.306985e+01
  -9.221987e+00   9.288719e+01
  -3.753589e+01   1.109985e+01
  -3.957187e+01  -2.503280e+01
  -1.891409e+01  -6.289629e+00
  -3.308229e+00   1.696410e+01
  -1.856922e+01  -1.867721e+01
  -4.908000e+01  -8.411587e+01
  -2.139408e+01  -9.244420e+01
   4.214477e+01  -3.267500e+01
   1.320249e+02   3.825628e+01
   1.260027e+02   6.772817e+01
   9.379525e+00   3.470868e+01
  -7.317324e+01   2.266228e+01
  -8.638281e+01   1.432962e+01
  -1.349260e+01  -9.091214e+00
   2.975367e+01  -1.977063e+01
   1.528267e+01  -1.246845e+01
  -1.446923e+01   1.109409e+00
   4.144772e+00   7.356254e+00
   6.306770e+01   1.683809e+00
   7.820293e+01   1.864897e+01
   1.683738e+01   7.138125e+01
  -1.182582e+02   1.055159e+02
  -1.671854e+02   4.464590e+01
  -1.169271e+02  -5.740546e+01
  -2.052382e+01  -1.421560e+02
   6.307776e+01  -1.472960e+02
   9.148342e+01  -6.150142e+01
   7.032475e+01   2.130968e+01
   1.827649e+01   2.745307e+01
   2.024651e+00   1.000469e+01
   1.204656e+01   4.953781e+00
   2.908928e+01   3.978074e+01
   1.525576e+01   8.295676e+01
  -2.721404e+01   5.599166e+01
  -6.510390e+01  -1.896975e+01
  -5.786032e+01  -8.702544e+01
  -7.030001e+00  -1.005965e+02
   6.782789e+01  -2.337639e+01
   7.832759e+01   6.830846e+01
   3.040541e+01   1.016369e+02
  -5.732992e+01   5.273525e+01
  -9.322047e+01  -4.074544e+00
  -3.641678e+01  -4.812794e+01
   3.327582e+01  -4.972397e+01
   3.114066e+01  -2.838970e+01
  -2.906357e+01   4.292163e+00
  -5.060386e+01   1.359370e-01
  -8.157476e+00  -1.922890e+01
   7.384703e+01  -5.437648e+01
   9.694983e+01  -3.979323e+01
   5.745447e+01   1.748788e+01
  -1.963190e+01   6.776351e+01
  -3.985706e+01   6.652836e+01
  -3.218496e+01   7.383776e+00
  -7.294486e+00  -4.360182e+01
   2.345115e+01  -4.420804e+01
   2.921115e+01   1.240001e+01
   1.804588e+01   4.508075e+01
  -2.750546e+00   2.996252e+01
  -2.830377e+01  -5.956381e+00
  -3.577782e+01  -2.254968e+01
  -1.757465e+01  -4.577983e+00
   1.054210e+00   1.476203e+01
   5.303267e+00   4.412659e+00
  -1.252652e+00  -3.038305e+01
   6.358849e+00  -4.635306e+01
   2.578694e+01  -1.505824e+01
   3.181974e+01   3.307066e+01
   8.459076e+00   5.063168e+01
  -3.346332e+01   2.006658e+01
  -4.076921e+01  -4.145726e+01
  -1.525406e+01  -5.406682e+01
   4.889707e+01  -2.810176e+01
   6.681027e+01   4.397627e+00
   4.977451e+01   3.852114e+01
  -2.256709e+01   4.181651e+01
  -5.767149e+01   1.450145e+01
  -2.219836e+01   3.992951e+00
   2.590465e+01  -1.291804e+00
   2.712546e+01   1.080079e+01
  -2.314307e+01   2.422758e+01
  -7.124259e+01   2.413104e+01
