
 $NMID
 id='ANONYMOUS ', fmtdat='(2E16.6)'
 volume=1.0
 tramp=1.0
 $END
  -4.705216e+03   4.159078e+01
  -2.651983e+03  -3.045106e+03
   6.777030e+02  -2.868279e+03
   1.886723e+03  -8.834338e+02
   9.146577e+02   6.619569e+02
  -3.616647e+02   2.844295e+02
  -7.910951e+02  -6.379733e+02
   6.571901e+01  -9.716693e+02
   7.971221e+02  -5.869789e+02
   9.117830e+02   2.189730e+02
   4.484001e+02   9.838201e+02
  -2.218777e+02   9.698223e+02
  -6.498252e+02  -6.797362e+00
  -3.578793e+02  -7.558940e+02
   3.277053e+02  -7.707120e+02
   5.936343e+02   2.647530e+01
   2.682964e+02   7.129342e+02
  -3.632717e+02   6.272708e+02
  -6.088956e+02   5.574560e+01
  -3.645602e+02  -2.979782e+02
  -2.935740e+01  -5.007022e+02
   2.069026e+02  -2.452012e+02
   1.983638e+02  -3.300925e+01
  -1.513488e+02   4.364414e+01
  -3.653707e+02  -2.064237e+02
  -2.530825e+02  -5.017413e+02
   5.626562e+02  -5.062128e+02
   8.071660e+02   1.062978e+02
   4.403370e+02   5.933381e+02
  -4.257255e+02   4.515633e+02
  -7.035469e+02  -1.186043e+02
  -3.402950e+02  -5.068697e+02
   3.317778e+02  -5.517419e+02
   6.708113e+02  -1.438158e+02
   3.464384e+02   2.466290e+02
   3.242300e+01   4.521795e+02
  -1.885937e+02   2.903827e+02
  -1.373060e+02  -2.097874e+02
   2.546831e+02  -4.994652e+02
   4.335045e+02   4.734900e+01
   1.589800e+02   6.330037e+02
  -3.266556e+02   6.799685e+02
  -5.394218e+02   7.003041e+00
  -1.836216e+02  -5.874545e+02
   3.074764e+02  -2.752678e+02
   4.475901e+02   4.024390e+02
  -4.862832e+01   5.111372e+02
  -5.564794e+02   1.174403e+02
  -6.480324e+02  -4.797017e+02
  -2.001193e+02  -6.635778e+02
   3.705113e+02  -3.275530e+02
   6.550027e+02   1.017885e+02
   3.153599e+02   3.746281e+02
  -1.844159e+02   3.486204e+02
  -4.383560e+02   7.937444e+00
  -2.873327e+02  -1.924540e+02
   8.428190e+01  -1.232034e+02
   1.216900e+02   1.426715e+02
  -1.975332e+02   1.631164e+02
  -3.142141e+02  -8.089703e+01
  -1.824809e+02  -3.105585e+02
   2.017807e+02  -2.572666e+02
   3.392591e+02  -5.171880e+01
   2.234735e+02   9.720414e+01
  -1.290930e+01   2.088861e+02
  -2.767979e+02   3.293149e+02
  -3.577649e+02   1.945688e+02
  -3.450341e+02  -1.630167e+02
  -1.046006e+02  -4.140943e+02
   1.248805e+02  -3.797313e+02
   1.315546e+02  -1.220377e+02
   2.580510e+01   1.312993e+01
   5.008182e+01  -9.568659e+01
   1.908055e+02  -1.573438e+02
   2.967376e+02   8.120617e+01
   1.776675e+02   2.989117e+02
  -8.695564e+01   2.913910e+02
  -2.196195e+02   1.451889e+01
  -2.111480e+02  -2.594777e+02
   2.504889e+01  -2.915857e+02
   2.888011e+02  -1.009886e+02
   3.385581e+02   1.795832e+02
   2.321865e+02   3.564708e+02
  -1.225318e+02   2.993216e+02
  -2.105062e+02   1.001388e+02
  -1.683761e+02   3.668631e+00
  -9.169982e+01   3.915179e+01
  -2.457785e+02   6.903932e+01
  -3.921827e+02  -9.607227e+01
  -2.917164e+02  -2.895589e+02
   4.483919e+01  -4.541466e+02
   3.815996e+02  -4.362357e+02
   5.496105e+02  -2.768910e+02
   3.213689e+02   9.473760e+01
   6.865997e+01   2.891593e+02
  -1.455639e+02   2.873298e+02
  -8.640975e+01   2.311987e+01
   1.112225e+02  -1.190370e+02
   2.000512e+02   8.505669e+00
   4.526543e+01   2.068476e+02
  -1.861775e+02   1.897381e+02
  -1.810118e+02  -4.537547e+01
   3.132672e+01  -2.227613e+02
   1.894080e+02  -2.497982e+01
   1.450471e+02   2.632969e+02
  -2.853720e+01   3.606389e+02
  -2.246750e+02   2.146345e+02
  -3.216051e+02  -7.443266e+01
  -3.408903e+02  -2.190603e+02
  -8.656737e+01  -2.584924e+02
   1.186937e+02  -1.705516e+02
   2.146773e+02  -2.016531e+01
   5.259184e+01   3.573510e+01
  -7.865998e+01  -4.314554e+01
  -2.714315e+01  -1.456034e+02
   1.453296e+02  -1.003441e+02
   1.955737e+02   2.980896e+01
   5.032855e+01   7.885794e+01
  -8.064870e+01   5.807223e+00
  -7.050896e+01  -8.038209e+01
   1.385225e+02  -6.540454e+01
   3.099081e+02  -2.533227e+00
   3.010131e+02   1.544511e+02
   5.955562e+01   2.784018e+02
  -1.627161e+02   2.815410e+02
  -3.142136e+02   1.365126e+02
  -1.786778e+02  -5.193830e+01
   2.728074e+01  -1.068718e+02
   8.846712e+01   1.025129e+01
  -4.102005e+01   1.125777e+02
  -2.285999e+02   4.770838e+01
  -1.883818e+02  -1.100838e+02
  -6.039176e+01  -2.226871e+02
   1.009272e+02  -1.569677e+02
   1.554271e+02  -2.131576e+01
   8.058485e+01   4.788377e+01
  -2.735238e+01  -1.574838e+00
  -2.877345e+01  -8.932413e+01
   8.856833e+01  -1.234189e+02
   2.004163e+02  -1.973941e+01
   1.919779e+02   1.227659e+02
   1.314704e+01   2.156168e+02
  -1.644978e+02   1.619665e+02
  -2.258564e+02   2.970943e+01
  -5.173811e+01  -1.311543e+02
   6.850985e+01  -1.279995e+02
   9.102919e+01  -2.314336e+01
   2.005830e+01   3.190140e+01
  -2.331465e+01   1.724676e+01
   9.975221e+00  -7.624380e+00
   6.426631e+01  -3.026002e+00
   8.233784e+01   8.000706e+01
   8.042503e+00   1.637932e+02
  -1.356963e+02   1.387719e+02
  -2.399894e+02   2.346388e+01
  -1.952117e+02  -1.691883e+02
  -3.065853e+01  -2.667111e+02
   1.221432e+02  -1.900378e+02
   1.457684e+02  -1.316503e+01
   7.364815e+01   5.778310e+01
   2.753369e+01   3.475356e+01
   5.947642e+01  -2.311192e+01
   7.709068e+01  -5.705691e+00
   4.162583e+01   5.432699e+01
  -4.300554e+01   9.076058e+01
  -9.403976e+01   6.580344e+01
  -8.064470e+01  -3.140112e+01
   1.064879e+01  -1.307100e+02
   1.296281e+02  -9.613728e+01
   1.856570e+02   6.342540e+01
   1.114495e+02   2.129166e+02
  -1.262759e+02   2.519929e+02
  -2.791461e+02   8.531439e+01
  -2.586001e+02  -7.919791e+01
  -1.343608e+02  -2.081062e+02
   5.370081e+01  -1.771794e+02
   1.007574e+02  -8.929609e+01
   8.848502e+01  -7.996231e+01
   6.634479e+01  -9.351057e+01
   9.343677e+01  -7.937372e+01
   1.146275e+02   2.777317e+01
   1.314211e+02   1.504542e+02
   3.755793e+01   2.332866e+02
  -1.032777e+02   1.612085e+02
  -1.595005e+02   1.423274e+01
  -1.447267e+02  -1.366766e+02
  -3.233326e+01  -1.664011e+02
   6.754138e+01  -9.133404e+01
   6.423751e+01  -1.086369e+00
  -3.570294e+00   4.340773e+01
  -7.060837e+00   3.736284e+01
   3.166950e+01   2.091997e+01
   9.930932e+01   2.340822e+01
   5.141417e+01   4.335866e+01
  -7.121115e+01   4.291527e+01
  -1.618780e+02   8.111081e+00
  -1.487332e+02  -5.399020e+01
  -1.484095e+01  -8.420157e+01
   1.475883e+02  -7.746024e+01
   1.503712e+02  -7.568581e+00
   4.421462e+01   4.270226e+01
  -6.039648e+01   3.783132e+01
  -8.244355e+01  -3.419445e+01
  -7.616241e+00  -6.933871e+01
   6.525604e+01  -6.502372e+01
   7.621785e+01   4.849984e-01
   4.564117e+01   4.856722e+01
   4.612063e+01   4.283820e+01
   6.894742e+01   6.550427e+00
   7.022840e+01  -5.189872e+00
   3.429411e+01   7.452123e+01
  -5.032665e+01   1.537446e+02
  -1.397429e+02   1.366613e+02
  -1.934462e+02   4.061556e+01
  -1.296322e+02  -8.887271e+01
  -1.441290e+01  -1.237617e+02
   9.276084e+01  -7.131640e+01
   6.183968e+01   1.781547e+01
  -6.736612e+01   1.615371e+01
  -1.565882e+02  -6.162107e+01
  -8.506367e+01  -1.135533e+02
   7.595507e+01  -1.135647e+02
   2.015270e+02  -2.196747e+01
   1.763831e+02   2.381166e+01
   3.517029e+01   1.008405e+02
  -5.667655e+01   7.371102e+01
  -4.846067e+01   5.378752e+00
   4.123312e+01  -2.345730e+01
   8.951429e+01   1.668610e+01
   3.570603e+01   1.229555e+02
  -7.842275e+01   1.596720e+02
  -1.849173e+02   6.023986e+01
  -1.357642e+02  -1.115027e+02
   1.222272e+01  -2.051745e+02
   6.842488e+01  -1.384547e+02
   9.794371e+01   1.364958e+01
   6.062272e+01   1.334055e+02
  -3.002579e+00   1.224262e+02
  -4.622741e+01   2.038139e+01
  -5.326647e+01  -2.976032e+01
  -2.957277e+01  -1.285246e+01
  -3.261057e+00   2.091008e+01
  -2.002118e+01  -1.173573e+01
  -6.487687e+01  -9.863020e+01
  -2.335525e+01  -1.116139e+02
   4.934602e+01  -4.555738e+01
   1.497881e+02   4.074451e+01
   1.347760e+02   7.159260e+01
   1.407029e+01   5.112303e+01
  -8.794008e+01   2.677719e+01
  -9.614777e+01   1.728741e+01
  -1.173856e+01  -8.678993e+00
   3.940652e+01  -2.427314e+01
   1.695187e+01  -2.306235e+01
  -2.050548e+01   3.697480e-02
   4.925696e+00   9.982215e+00
   7.855224e+01   4.140113e+00
   8.067151e+01   3.150311e+01
  -3.415800e+00   7.389819e+01
  -1.328983e+02   1.117158e+02
  -1.860922e+02   6.103225e+01
  -1.333233e+02  -6.683188e+01
  -3.657425e+01  -1.802481e+02
   8.630491e+01  -1.712126e+02
   1.223473e+02  -4.874538e+01
   8.722203e+01   2.078668e+01
   2.281580e+01   3.606022e+01
  -2.063573e+00   6.511691e+00
   1.139513e+01   4.504687e+00
   4.184570e+01   4.995233e+01
   2.261790e+01   1.021889e+02
  -3.341216e+01   6.525664e+01
  -7.875041e+01  -1.173173e+01
  -7.899126e+01  -1.144371e+02
  -8.210328e+00  -1.325333e+02
   7.479381e+01  -2.987661e+01
   1.054887e+02   8.715243e+01
   3.890334e+01   1.075822e+02
  -6.195528e+01   6.174559e+01
  -1.073552e+02  -3.063312e+00
  -3.684860e+01  -5.023463e+01
   3.214764e+01  -5.455713e+01
   3.573223e+01  -2.996886e+01
  -3.629577e+01  -1.245163e+00
  -6.568042e+01   1.065777e+01
  -1.284028e+01  -2.023246e+01
   8.930508e+01  -6.204781e+01
   1.286978e+02  -3.294884e+01
   6.554315e+01   1.701947e+01
  -1.640415e+01   8.456723e+01
  -5.395962e+01   8.564596e+01
  -4.048214e+01   5.486187e+00
  -7.043105e-01  -5.122395e+01
   2.310152e+01  -4.765378e+01
   3.502058e+01   1.942344e+01
   2.015726e+01   5.262003e+01
   1.949464e+00   3.504134e+01
  -3.088484e+01  -8.326281e+00
  -4.306852e+01  -2.486340e+01
  -2.249333e+01  -1.492963e+00
  -8.165556e-01   1.285057e+01
   8.442639e+00   7.632795e-01
   8.997562e+00  -3.528545e+01
   2.101055e+01  -5.083236e+01
   3.099252e+01  -1.038795e+01
   3.723724e+01   4.576417e+01
  -1.658797e+00   5.915648e+01
  -4.276211e+01   1.689299e+01
  -5.656179e+01  -4.089835e+01
  -1.882276e+01  -6.804578e+01
   5.784798e+01  -3.112770e+01
   8.990954e+01   1.968484e+01
   5.205331e+01   4.335882e+01
  -3.148051e+01   4.911842e+01
  -6.820672e+01   1.099184e+01
  -2.266368e+01   6.017615e+00
   4.045841e+01  -9.224733e-01
   3.668275e+01   2.109094e+01
  -2.978921e+01   3.312166e+01
  -9.429782e+01   1.676403e+01
