
 $NMID
 id='ANONYMOUS ', fmtdat='(2E16.6)'
 volume=1.0
 tramp=1.0
 $END
   4.840935e+03  -7.123256e+01
   2.761388e+03   2.911714e+03
  -6.697259e+02   2.721190e+03
  -1.820781e+03   8.718991e+02
  -9.232614e+02  -7.704284e+02
   3.561873e+02  -4.629209e+02
   8.804455e+02   4.588450e+02
  -7.956276e+01   1.204906e+03
  -8.614546e+02   6.218103e+02
  -9.195644e+02  -1.584426e+02
  -4.771994e+02  -9.601298e+02
   2.396352e+02  -9.809990e+02
   6.816788e+02  -5.390827e+01
   3.615144e+02   7.716114e+02
  -2.870220e+02   7.548562e+02
  -6.141865e+02   2.120483e+01
  -3.062451e+02  -7.848672e+02
   3.080396e+02  -6.738342e+02
   5.510926e+02  -5.507711e+01
   3.815837e+02   3.693548e+02
   3.286288e+01   4.918661e+02
  -2.151535e+02   2.779220e+02
  -1.793543e+02   3.670133e+01
   1.167751e+02  -1.076842e+02
   4.877990e+02   2.084831e+02
   2.714217e+02   4.715022e+02
  -5.335074e+02   5.347587e+02
  -8.814014e+02  -5.765503e+01
  -4.694517e+02  -6.229102e+02
   4.734615e+02  -5.055636e+02
   6.755893e+02   6.304461e+01
   3.868668e+02   5.121167e+02
  -3.155025e+02   5.646565e+02
  -6.177710e+02   1.673565e+02
  -3.732076e+02  -2.440629e+02
  -3.520845e+01  -4.650166e+02
   2.482321e+02  -2.727039e+02
   1.476503e+02   2.399041e+02
  -2.740480e+02   4.919924e+02
  -5.024326e+02  -4.658142e+01
  -2.028907e+02  -7.126229e+02
   3.293533e+02  -6.771469e+02
   5.683547e+02  -1.620437e+01
   2.167794e+02   5.562051e+02
  -3.065901e+02   3.177320e+02
  -4.559296e+02  -4.005357e+02
   8.053027e+01  -5.558857e+02
   6.115295e+02  -1.162661e+02
   6.651276e+02   4.269614e+02
   1.458644e+02   6.392155e+02
  -3.822473e+02   3.809998e+02
  -6.788329e+02  -6.600001e+01
  -3.428820e+02  -3.836582e+02
   1.627504e+02  -2.977427e+02
   4.941321e+02  -2.647671e+01
   2.895267e+02   2.391825e+02
  -1.282703e+02   9.540366e+01
  -1.514685e+02  -1.828753e+02
   1.866964e+02  -1.961716e+02
   3.231116e+02   1.009174e+02
   1.561273e+02   3.043061e+02
  -2.098858e+02   2.578467e+02
  -3.203073e+02   9.831208e+01
  -2.303421e+02  -9.208781e+01
  -9.185173e+00  -2.177245e+02
   2.041527e+02  -3.448261e+02
   3.706680e+02  -2.163734e+02
   3.597160e+02   1.663729e+02
   9.330375e+01   4.484339e+02
  -1.270870e+02   3.973242e+02
  -1.513838e+02   9.428315e+01
   1.948884e+00  -2.153825e+01
  -3.925170e+01   6.202408e+01
  -1.831950e+02   1.749627e+02
  -3.194475e+02  -2.870754e+01
  -1.875345e+02  -3.112297e+02
   7.403341e+01  -2.860550e+02
   2.248967e+02  -8.323076e+00
   2.329239e+02   2.770039e+02
  -4.142279e+01   3.152057e+02
  -2.735117e+02   1.428680e+02
  -4.064720e+02  -1.915171e+02
  -2.279951e+02  -3.233387e+02
   1.167459e+02  -2.759909e+02
   2.177900e+02  -1.253532e+02
   1.710110e+02   1.723993e+01
   9.262500e+01  -6.251238e+01
   2.311157e+02  -6.637099e+01
   3.612996e+02   8.878731e+01
   2.876405e+02   2.804244e+02
  -3.846385e+01   5.134356e+02
  -3.337130e+02   4.718738e+02
  -5.322466e+02   2.854098e+02
  -3.570826e+02  -6.940562e+01
  -8.716943e+01  -3.206840e+02
   1.633937e+02  -2.820938e+02
   7.474266e+01  -1.886490e+01
  -1.312997e+02   1.248917e+02
  -2.158625e+02  -2.374461e+01
  -6.238799e+01  -2.090301e+02
   1.897581e+02  -1.940489e+02
   1.736700e+02   4.940852e+01
  -2.889221e+01   1.992466e+02
  -2.111948e+02   1.457382e+01
  -1.797739e+02  -2.572672e+02
   1.860591e+01  -3.578735e+02
   2.286001e+02  -2.074303e+02
   3.350051e+02   5.334359e+01
   3.455279e+02   2.053841e+02
   1.005592e+02   2.550415e+02
  -9.953438e+01   1.754234e+02
  -2.081892e+02   1.673985e+01
  -5.259174e+01  -3.665899e+01
   8.398366e+01   4.787331e+01
   3.849546e+01   1.371166e+02
  -1.400715e+02   1.044172e+02
  -2.224345e+02  -2.451816e+01
  -4.488666e+01  -8.005695e+01
   8.261517e+01  -1.914625e+01
   8.218305e+01   7.290977e+01
  -1.289696e+02   9.627377e+01
  -3.202565e+02   9.905948e+00
  -3.028226e+02  -1.544457e+02
  -8.440086e+01  -2.981082e+02
   1.835814e+02  -2.666617e+02
   3.088884e+02  -1.523527e+02
   1.860905e+02   5.564039e+01
  -2.831733e+01   1.160883e+02
  -9.322256e+01  -3.884141e+00
   3.751158e+01  -1.275228e+02
   2.141697e+02  -7.010262e+01
   2.041863e+02   1.036823e+02
   8.672567e+01   2.379637e+02
  -1.006872e+02   1.540998e+02
  -1.563458e+02   2.432708e+01
  -8.134144e+01  -5.553309e+01
   3.451519e+01  -1.151370e+01
   4.269538e+01   8.687326e+01
  -7.023746e+01   1.403769e+02
  -2.225170e+02   3.108721e+01
  -1.867973e+02  -1.605698e+02
  -1.789208e+01  -2.079091e+02
   1.457960e+02  -1.660413e+02
   2.250076e+02  -1.891829e+01
   5.833916e+01   1.362603e+02
  -7.666744e+01   1.264883e+02
  -9.082092e+01   3.707048e+01
  -2.384404e+01  -3.042211e+01
   2.602977e+01  -2.522450e+01
  -7.165140e+00  -8.300460e-01
  -6.551581e+01   1.256221e+00
  -9.917470e+01  -7.256395e+01
  -2.547249e+01  -1.565768e+02
   1.034009e+02  -1.573036e+02
   2.393280e+02  -3.803096e+01
   2.001487e+02   1.508532e+02
   7.198161e+00   2.736546e+02
  -1.082639e+02   1.777959e+02
  -1.431692e+02   2.340285e+01
  -7.329841e+01  -5.906227e+01
  -2.749147e+01  -3.289201e+01
  -5.475431e+01   2.170424e+01
  -7.688416e+01   1.190996e+01
  -5.179853e+01  -4.957775e+01
   3.596983e+01  -1.044457e+02
   8.795391e+01  -6.761270e+01
   8.997955e+01   1.955420e+01
  -6.836683e+00   1.153546e+02
  -1.342446e+02   1.228470e+02
  -1.922629e+02  -4.170885e+01
  -1.209431e+02  -2.175109e+02
   1.017889e+02  -2.700758e+02
   2.990768e+02  -8.732307e+01
   2.949278e+02   7.652202e+01
   1.416274e+02   2.065292e+02
  -3.731442e+01   1.658962e+02
  -9.011012e+01   8.191287e+01
  -8.616960e+01   8.096161e+01
  -5.681336e+01   9.650810e+01
  -9.219609e+01   8.476434e+01
  -1.257052e+02  -1.595766e+01
  -1.564751e+02  -1.687864e+02
  -6.784451e+01  -2.292563e+02
   9.097927e+01  -1.688493e+02
   1.624721e+02  -2.421030e+01
   1.653546e+02   1.195586e+02
   3.054240e+01   1.722971e+02
  -7.030207e+01   9.510584e+01
  -6.753321e+01   2.783611e+00
  -2.482953e+00  -4.191983e+01
   7.124556e+00  -4.127721e+01
  -3.963741e+01  -1.699414e+01
  -9.007115e+01  -1.923686e+01
  -5.377491e+01  -4.505962e+01
   6.934593e+01  -5.204645e+01
   1.561539e+02  -1.638165e+01
   1.503657e+02   6.018266e+01
   1.229578e+01   8.829477e+01
  -1.393607e+02   8.351558e+01
  -1.634831e+02   3.141921e+01
  -5.427322e+01  -4.946535e+01
   5.842434e+01  -4.338015e+01
   8.013985e+01   2.170601e+01
   1.156900e+01   6.733656e+01
  -5.749848e+01   7.300000e+01
  -7.682912e+01   2.517207e+00
  -5.614721e+01  -4.860375e+01
  -4.805545e+01  -4.155940e+01
  -6.516154e+01  -5.907212e+00
  -6.855177e+01   4.811893e+00
  -3.559575e+01  -7.095688e+01
   2.721255e+01  -1.657705e+02
   1.142906e+02  -1.475686e+02
   1.883973e+02  -5.343593e+01
   1.274977e+02   9.434371e+01
   1.116124e+01   1.237177e+02
  -9.273537e+01   7.284232e+01
  -5.729060e+01  -1.591087e+01
   6.699618e+01  -1.535140e+01
   1.426865e+02   5.548514e+01
   9.114508e+01   1.131503e+02
  -7.835158e+01   1.206872e+02
  -1.956471e+02   4.783949e+01
  -1.743406e+02  -2.691820e+01
  -3.207495e+01  -1.051664e+02
   5.611717e+01  -8.662574e+01
   4.796310e+01  -1.217650e+01
  -3.788883e+01   3.020022e+01
  -9.810304e+01  -1.342106e+01
  -3.918719e+01  -1.241959e+02
   8.388353e+01  -1.704664e+02
   1.728962e+02  -6.619325e+01
   1.579178e+02   8.821804e+01
   1.335069e+01   1.938010e+02
  -7.702017e+01   1.450313e+02
  -1.069990e+02  -1.459700e+01
  -6.813184e+01  -1.344764e+02
   3.238920e+00  -1.145018e+02
   4.406435e+01  -2.206033e+01
   6.099962e+01   3.113679e+01
   3.130527e+01   1.423313e+01
   1.333014e+00  -2.381202e+01
   2.099426e+01   8.590219e+00
   6.618673e+01   1.052274e+02
   3.594078e+01   1.063238e+02
  -4.604045e+01   4.644023e+01
  -1.512537e+02  -1.826143e+01
  -1.577477e+02  -5.775060e+01
  -1.511319e+01  -4.521415e+01
   9.109146e+01  -2.514984e+01
   9.366337e+01  -1.558372e+01
   1.157921e+01   4.861816e+00
  -3.845967e+01   2.492309e+01
  -1.747594e+01   2.211811e+01
   2.110575e+01   6.546666e-01
  -5.431658e+00  -1.131618e+01
  -7.893899e+01  -2.055090e+00
  -8.440839e+01  -2.008555e+01
  -4.414609e+00  -7.491153e+01
   1.108901e+02  -1.106327e+02
   1.808090e+02  -6.453062e+01
   1.415292e+02   5.895934e+01
   3.664873e+01   1.821736e+02
  -7.365366e+01   1.700330e+02
  -1.186018e+02   6.139599e+01
  -9.223923e+01  -1.779583e+01
  -2.521820e+01  -3.180500e+01
   4.167061e+00  -7.219495e+00
  -1.246350e+01  -3.245562e+00
  -4.231371e+01  -4.930123e+01
  -3.368282e+01  -1.032972e+02
   2.655018e+01  -7.083166e+01
   8.612089e+01   1.293457e+01
   9.089822e+01   1.029807e+02
   1.482231e+01   1.344562e+02
  -7.705604e+01   3.519550e+01
  -9.049881e+01  -7.734830e+01
  -4.360860e+01  -1.058396e+02
   6.489213e+01  -6.530337e+01
   1.115911e+02  -6.278485e+00
   4.389210e+01   4.534208e+01
  -3.092861e+01   5.738940e+01
  -3.276666e+01   3.174507e+01
   3.843543e+01  -2.547251e+00
   6.920926e+01  -8.062155e+00
   1.264701e+01   2.306620e+01
  -8.893260e+01   6.844979e+01
  -1.278577e+02   5.679973e+01
  -6.551481e+01  -3.671162e+00
   1.768455e+01  -8.368794e+01
   4.875491e+01  -8.269689e+01
   3.529549e+01  -2.834523e+00
  -1.879968e+00   5.370419e+01
  -2.209946e+01   4.245392e+01
  -3.512952e+01  -1.684492e+01
  -2.498451e+01  -5.179472e+01
  -5.464903e+00  -3.244394e+01
   3.144473e+01   6.565682e+00
   4.663310e+01   1.987624e+01
   2.281226e+01  -2.416846e-01
  -2.538577e+00  -1.344789e+01
  -1.077461e+01   9.528998e-01
  -6.263850e+00   3.430985e+01
  -1.502369e+01   4.875696e+01
  -2.909887e+01   1.281026e+01
  -3.763255e+01  -4.872240e+01
  -2.700646e+00  -6.152955e+01
   4.128409e+01  -1.806982e+01
   6.316895e+01   4.100912e+01
   1.824279e+01   6.832112e+01
  -5.570079e+01   2.922760e+01
  -8.845493e+01  -6.626220e+00
  -5.854047e+01  -4.244578e+01
   3.384249e+01  -4.447423e+01
   6.528869e+01  -1.678749e+01
   2.556009e+01  -7.893615e+00
  -3.962209e+01  -1.944508e-01
  -3.391399e+01  -2.250530e+01
   2.733765e+01  -3.332811e+01
   8.849270e+01  -2.295944e+01
