
 $NMID
 id='ANONYMOUS ', fmtdat='(2E16.6)'
 volume=1.0
 tramp=1.0
 $END
  -5.262580e+03   2.875478e+02
  -2.586557e+03  -3.054594e+03
   7.489107e+02  -2.756081e+03
   1.696710e+03  -8.763404e+02
   1.037627e+03   9.713058e+02
  -6.279435e+02   5.092260e+02
  -9.393421e+02  -5.563485e+02
   1.678901e+02  -1.148988e+03
   9.100645e+02  -6.213796e+02
   9.119167e+02   1.711399e+02
   4.673717e+02   9.105057e+02
  -2.407057e+02   9.467601e+02
  -7.173435e+02   2.163892e+01
  -3.021818e+02  -7.984437e+02
   2.855342e+02  -7.324232e+02
   5.948398e+02   3.415510e+01
   2.823420e+02   8.097776e+02
  -2.334239e+02   6.719335e+02
  -5.174246e+02   3.139723e+01
  -3.506227e+02  -4.266678e+02
  -3.901277e+00  -5.073878e+02
   2.376868e+02  -2.580089e+02
   1.617928e+02  -2.444370e+01
  -1.207375e+02   1.300990e+02
  -5.188609e+02  -2.245676e+02
  -2.737728e+02  -4.739365e+02
   4.948726e+02  -5.029158e+02
   9.796574e+02   3.146498e+01
   4.351934e+02   6.387786e+02
  -5.431765e+02   5.393706e+02
  -7.276521e+02  -3.357376e+01
  -4.144599e+02  -5.692426e+02
   3.453746e+02  -4.979982e+02
   5.371225e+02  -1.717734e+02
   3.649374e+02   2.361907e+02
   7.137849e+00   5.299161e+02
  -2.625933e+02   2.549717e+02
  -1.801020e+02  -2.764210e+02
   2.373655e+02  -4.490700e+02
   5.117252e+02   3.582136e+01
   1.668370e+02   7.652095e+02
  -3.010140e+02   6.552955e+02
  -5.856231e+02  -8.757827e+01
  -1.486877e+02  -5.926029e+02
   3.154721e+02  -3.536873e+02
   4.341755e+02   3.884098e+02
  -4.387958e+01   5.247604e+02
  -6.247145e+02   1.539066e+02
  -6.595832e+02  -3.807654e+02
  -9.582650e+01  -5.594918e+02
   3.860871e+02  -3.434213e+02
   6.252342e+02   3.498793e+01
   3.640113e+02   4.149478e+02
  -1.772009e+02   3.142199e+02
  -4.774779e+02  -1.604950e+01
  -2.613338e+02  -2.521616e+02
   1.422410e+02  -9.664903e+01
   1.725302e+02   1.967746e+02
  -2.025350e+02   1.922675e+02
  -3.374244e+02  -9.586284e+01
  -1.464543e+02  -3.266450e+02
   2.142769e+02  -2.438794e+02
   2.921580e+02  -1.085862e+02
   2.247264e+02   8.864628e+01
   8.467063e+00   1.965959e+02
  -1.831407e+02   3.242900e+02
  -3.610709e+02   2.437245e+02
  -3.312430e+02  -1.466457e+02
  -1.203360e+02  -4.493219e+02
   1.366693e+02  -3.746937e+02
   1.520797e+02  -5.598445e+01
  -1.728734e+00   1.819308e+01
   2.071907e+01  -5.152898e+01
   2.042142e+02  -1.871314e+02
   3.241908e+02   2.793258e+01
   1.815229e+02   3.050739e+02
  -6.028530e+01   2.782866e+02
  -2.559452e+02   1.480301e+01
  -2.452047e+02  -2.932196e+02
  -4.771915e+00  -3.178838e+02
   2.736504e+02  -1.400455e+02
   4.167869e+02   2.124733e+02
   2.111123e+02   3.542896e+02
  -9.927429e+01   2.767276e+02
  -2.209772e+02   1.090687e+02
  -1.582368e+02  -2.680445e+01
  -9.401437e+01   5.574351e+01
  -2.161991e+02   9.144806e+01
  -3.463889e+02  -3.872155e+01
  -2.526625e+02  -2.588465e+02
  -3.375467e+01  -5.085992e+02
   3.690999e+02  -4.937030e+02
   5.739404e+02  -2.655331e+02
   3.606380e+02   6.986697e+01
   5.761648e+01   3.403046e+02
  -1.778078e+02   2.459712e+02
  -8.524555e+01   2.734735e+01
   1.337777e+02  -1.457445e+02
   2.184188e+02   6.680673e+00
   6.988811e+01   2.268495e+02
  -2.024375e+02   1.766442e+02
  -1.814808e+02  -4.963021e+01
   2.068953e+01  -2.201951e+02
   2.041470e+02  -2.616882e+01
   1.824691e+02   2.610375e+02
  -4.040117e+01   3.212098e+02
  -2.268785e+02   1.810448e+02
  -3.508147e+02  -6.090741e+01
  -3.015592e+02  -2.196116e+02
  -8.861067e+01  -2.487978e+02
   1.025890e+02  -1.743763e+02
   1.779364e+02  -2.968182e+01
   5.338629e+01   3.211346e+01
  -8.466131e+01  -4.088948e+01
  -4.119968e+01  -1.323596e+02
   1.279308e+02  -1.205221e+02
   2.085666e+02   1.063497e+01
   5.361182e+01   7.352364e+01
  -8.700060e+01   2.077644e+01
  -7.274761e+01  -7.724421e+01
   1.202522e+02  -1.078937e+02
   3.009564e+02  -4.911893e+01
   2.966546e+02   1.499700e+02
   7.863001e+01   3.085479e+02
  -1.776096e+02   2.656181e+02
  -2.913774e+02   1.298031e+02
  -1.836612e+02  -6.416276e+01
   3.315762e+01  -1.163234e+02
   9.395184e+01  -6.248474e+00
  -3.372241e+01   1.264278e+02
  -2.117286e+02   6.961733e+01
  -2.013159e+02  -8.606127e+01
  -8.604342e+01  -2.516963e+02
   1.013634e+02  -1.496848e+02
   1.382115e+02  -2.132512e+01
   7.684376e+01   4.860847e+01
  -3.481598e+01   1.237188e+01
  -3.787037e+01  -7.862778e+01
   6.520368e+01  -1.233314e+02
   1.984940e+02  -4.284214e+01
   1.992162e+02   1.505550e+02
  -7.390649e+00   2.029562e+02
  -1.610954e+02   1.597746e+02
  -2.033039e+02   1.667674e+01
  -5.478268e+01  -1.126774e+02
   6.416147e+01  -1.320842e+02
   9.608696e+01  -3.701953e+01
   1.999091e+01   2.772761e+01
  -2.962793e+01   2.753462e+01
   3.962017e+00  -1.715740e+00
   6.483516e+01   1.412539e+00
   9.978926e+01   6.744480e+01
   8.204639e+00   1.566814e+02
  -9.903542e+01   1.734998e+02
  -2.331620e+02   3.621727e+01
  -2.166162e+02  -1.457144e+02
  -9.843907e+00  -2.521940e+02
   8.402150e+01  -1.870140e+02
   1.291140e+02  -2.359364e+01
   7.077502e+01   5.958955e+01
   2.809576e+01   3.089857e+01
   5.264577e+01  -1.720580e+01
   6.901100e+01  -1.983130e+01
   4.863617e+01   4.630764e+01
  -3.820967e+01   1.035937e+02
  -8.889378e+01   5.555977e+01
  -8.931106e+01  -1.993438e+01
   7.020602e-01  -9.859301e+01
   1.307637e+02  -1.241953e+02
   1.771245e+02   3.727821e+01
   1.190790e+02   1.940837e+02
  -7.196355e+01   2.544487e+02
  -2.984898e+02   9.975225e+01
  -2.866851e+02  -7.899008e+01
  -1.561894e+02  -2.051622e+02
   2.929787e+01  -1.538868e+02
   7.824413e+01  -6.799159e+01
   8.202974e+01  -7.896577e+01
   5.132767e+01  -9.913023e+01
   8.846807e+01  -7.860206e+01
   1.326787e+02   2.042430e+01
   1.471172e+02   1.548908e+02
   6.728095e+01   2.351231e+02
  -9.328937e+01   1.696734e+02
  -1.601185e+02   1.139417e+01
  -1.763443e+02  -1.087010e+02
  -3.795960e+01  -1.741379e+02
   7.196347e+01  -1.086591e+02
   6.204142e+01  -2.897772e+00
   4.867592e+00   4.101109e+01
  -6.006567e+00   3.557643e+01
   3.634489e+01   2.022265e+01
   8.522016e+01   2.342694e+01
   4.813933e+01   3.618993e+01
  -6.355105e+01   5.610345e+01
  -1.533912e+02   2.327891e+01
  -1.467910e+02  -6.057580e+01
  -1.788802e+01  -8.324906e+01
   1.260173e+02  -9.019297e+01
   1.661835e+02  -2.794968e+01
   5.333266e+01   4.954241e+01
  -5.520375e+01   4.137895e+01
  -7.599473e+01  -1.628027e+01
  -1.449593e+01  -5.874947e+01
   5.833037e+01  -5.696069e+01
   6.746099e+01  -2.597917e+00
   4.336478e+01   4.410898e+01
   4.333764e+01   3.213530e+01
   5.552777e+01   6.983978e+00
   6.877132e+01  -4.881303e+00
   4.223323e+01   7.146378e+01
  -2.894021e+01   1.643179e+02
  -1.008813e+02   1.508811e+02
  -1.718949e+02   5.958881e+01
  -1.138994e+02  -8.722979e+01
  -6.708258e+00  -1.261806e+02
   8.692681e+01  -7.213416e+01
   5.780679e+01   1.268456e+01
  -5.762367e+01   1.374461e+01
  -1.364175e+02  -4.212526e+01
  -8.088459e+01  -1.253735e+02
   6.959975e+01  -1.075627e+02
   1.815285e+02  -4.809781e+01
   1.553263e+02   4.537816e+01
   4.059335e+01   9.697719e+01
  -6.234944e+01   8.332973e+01
  -4.859994e+01   1.042548e+01
   3.619187e+01  -2.644884e+01
   9.221012e+01   1.440557e+01
   3.659100e+01   1.080949e+02
  -7.834533e+01   1.625515e+02
  -1.649851e+02   7.115724e+01
  -1.381335e+02  -9.624816e+01
  -2.848706e+00  -1.867424e+02
   8.496322e+01  -1.473108e+02
   1.071039e+02   3.177404e+00
   5.809677e+01   1.236523e+02
  -7.751088e+00   1.089269e+02
  -4.033079e+01   2.294413e+01
  -5.879259e+01  -2.532169e+01
  -3.067414e+01  -1.040780e+01
  -2.699197e+00   2.286027e+01
  -2.479336e+01  -6.918402e+00
  -6.285693e+01  -1.025060e+02
  -4.582378e+01  -9.356722e+01
   4.207719e+01  -4.341720e+01
   1.408463e+02   3.067294e+01
   1.477546e+02   6.371432e+01
   1.533500e+01   4.258779e+01
  -8.128194e+01   3.546008e+01
  -9.086811e+01   1.178143e+01
  -1.249380e+01  -2.823975e+00
   3.754880e+01  -2.608077e+01
   1.540541e+01  -2.274804e+01
  -2.216965e+01  -1.652850e+00
   5.979106e+00   1.150463e+01
   7.480517e+01   4.046439e+00
   8.646812e+01   2.182220e+01
   5.541725e+00   6.833734e+01
  -1.102059e+02   1.096162e+02
  -1.699861e+02   6.452108e+01
  -1.255959e+02  -5.357119e+01
  -3.636687e+01  -1.655736e+02
   5.169746e+01  -1.801208e+02
   1.044344e+02  -6.260162e+01
   8.878755e+01   2.130476e+01
   2.586855e+01   2.820326e+01
  -5.813347e+00   6.751133e+00
   9.995944e+00   1.850051e+00
   4.080445e+01   4.606164e+01
   3.628334e+01   1.028647e+02
  -2.838595e+01   7.388360e+01
  -7.499362e+01  -2.433372e+01
  -8.903744e+01  -9.812235e+01
  -6.991116e+00  -1.192774e+02
   7.688008e+01  -2.176902e+01
   9.119425e+01   7.477911e+01
   3.895833e+01   1.130228e+02
  -5.784681e+01   6.054695e+01
  -9.643134e+01   5.839223e+00
  -3.554807e+01  -4.323420e+01
   2.323254e+01  -6.289286e+01
   2.947442e+01  -3.027332e+01
  -3.605161e+01  -2.967613e+00
  -6.780669e+01   4.678748e+00
  -1.451575e+01  -2.494386e+01
   8.124149e+01  -6.745757e+01
   1.169505e+02  -7.850318e+01
   5.742061e+01  -7.715006e-01
  -1.893442e+01   7.900331e+01
  -5.270616e+01   8.331769e+01
  -3.549130e+01   4.034763e+00
   1.569969e+00  -5.169396e+01
   2.008103e+01  -4.285949e+01
   3.319668e+01   1.827845e+01
   2.964553e+01   5.627734e+01
   2.678690e+00   2.851932e+01
  -3.242856e+01  -3.991238e+00
  -4.304398e+01  -1.645551e+01
  -2.172773e+01  -9.100519e-01
   1.542221e+00   1.183143e+01
   1.166242e+01  -1.962585e+00
   1.275637e+01  -3.421962e+01
   1.448762e+01  -4.427244e+01
   2.716571e+01  -1.114704e+01
   3.397684e+01   4.163005e+01
  -8.766145e-01   5.903847e+01
  -4.179141e+01   1.770987e+01
  -5.734319e+01  -4.390982e+01
  -1.679968e+01  -7.205744e+01
   4.376366e+01  -3.450705e+01
   7.556296e+01   1.455304e+01
   5.017346e+01   4.963478e+01
  -2.692526e+01   4.154436e+01
  -6.324067e+01   2.371856e+01
  -2.297108e+01   8.734397e+00
   3.469083e+01  -2.157843e+00
   3.543337e+01   1.909337e+01
  -2.874745e+01   3.455135e+01
  -9.412607e+01   2.418261e+01
