
 $NMID
 id='ANONYMOUS ', fmtdat='(2E16.6)'
 volume=1.0
 tramp=1.0
 $END
   4.540876e+03   4.934030e+02
   2.717024e+03   2.805184e+03
  -7.392556e+02   2.876121e+03
  -2.124980e+03   1.202728e+03
  -9.423971e+02  -7.742138e+02
   7.041544e+02  -5.829639e+02
   8.754054e+02   4.112696e+02
   5.197459e+01   1.100435e+03
  -7.223583e+02   8.379782e+02
  -1.029708e+03  -1.646657e+02
  -4.499488e+02  -1.008660e+03
   3.374564e+02  -1.008321e+03
   6.706346e+02  -9.381624e+01
   3.140292e+02   7.008440e+02
  -3.036178e+02   7.717269e+02
  -6.528481e+02   3.893868e+01
  -2.238413e+02  -7.505647e+02
   3.206674e+02  -6.970062e+02
   5.524828e+02  -6.636140e+01
   4.217321e+02   3.982310e+02
   3.811001e+01   5.106794e+02
  -2.187206e+02   2.545294e+02
  -2.133472e+02   3.324068e+01
   8.774568e+01  -9.620193e+01
   3.719790e+02   1.314280e+02
   2.427361e+02   4.694493e+02
  -4.824994e+02   3.677579e+02
  -9.221912e+02  -1.642915e+02
  -4.455644e+02  -5.596961e+02
   3.993196e+02  -4.865945e+02
   7.176358e+02   4.004545e+00
   4.042456e+02   5.709084e+02
  -2.848887e+02   5.019437e+02
  -4.832963e+02   1.531879e+02
  -4.498020e+02  -2.304975e+02
  -2.528431e+01  -4.982566e+02
   2.169689e+02  -2.792393e+02
   2.757388e+02   2.646849e+02
  -1.522004e+02   4.528676e+02
  -4.639215e+02  -1.630612e+01
  -2.100386e+02  -5.806110e+02
   2.591796e+02  -6.947251e+02
   6.199233e+02  -4.555516e+01
   2.153938e+02   4.953775e+02
  -3.018856e+02   3.558485e+02
  -4.252531e+02  -3.577396e+02
   5.618917e+01  -6.197698e+02
   5.974822e+02  -1.025642e+02
   6.287674e+02   4.745826e+02
   1.543376e+02   6.012678e+02
  -3.737036e+02   3.659486e+02
  -6.913420e+02  -4.565085e+01
  -4.025072e+02  -3.895838e+02
   1.375334e+02  -3.549872e+02
   4.739955e+02  -6.039404e+01
   2.563574e+02   2.210533e+02
  -1.491501e+02   1.275884e+02
  -1.653811e+02  -1.960113e+02
   1.758641e+02  -1.489558e+02
   3.597413e+02   7.428651e+01
   1.960798e+02   2.998844e+02
  -2.196515e+02   2.568627e+02
  -3.749252e+02   9.433127e+01
  -1.713112e+02  -1.126532e+02
   4.424467e+01  -2.498655e+02
   2.395084e+02  -3.131631e+02
   3.299572e+02  -2.271694e+02
   3.030887e+02   1.569097e+02
   9.201205e+01   4.306122e+02
  -5.750180e+01   3.752769e+02
  -1.397567e+02   1.171500e+02
  -3.983581e+01  -3.784371e+01
  -2.117997e+01   9.005721e+01
  -2.004632e+02   1.298336e+02
  -2.226604e+02  -4.814705e+01
  -1.532911e+02  -2.806217e+02
   6.313115e+01  -2.785113e+02
   2.435237e+02  -3.546867e+01
   2.269140e+02   2.479219e+02
   7.640855e+00   2.881870e+02
  -2.935978e+02   1.580825e+02
  -3.664037e+02  -2.147711e+02
  -2.191124e+02  -4.121303e+02
   1.142839e+02  -3.205166e+02
   2.220564e+02  -1.359134e+02
   1.781273e+02  -2.020041e+00
   1.104881e+02  -3.923103e+01
   2.119046e+02  -7.202567e+01
   3.542561e+02   2.565066e+01
   3.392164e+02   2.666573e+02
  -4.665935e+01   4.974787e+02
  -4.228961e+02   4.782938e+02
  -5.221466e+02   2.076553e+02
  -3.532053e+02  -8.121539e+01
  -6.840413e+01  -3.159219e+02
   1.367393e+02  -2.360651e+02
   8.062073e+01  -2.403295e+01
  -1.221928e+02   1.185121e+02
  -2.043664e+02  -1.571890e+01
  -2.777483e+01  -2.039057e+02
   1.639940e+02  -1.587417e+02
   2.141431e+02   5.234476e+01
  -2.454555e+01   2.118142e+02
  -1.887942e+02   3.788140e+01
  -1.657858e+02  -2.835634e+02
  -1.270250e+01  -3.534716e+02
   1.943886e+02  -1.950234e+02
   3.584290e+02   6.405008e+01
   2.764240e+02   2.064015e+02
   9.964271e+01   2.677661e+02
  -8.814244e+01   1.887936e+02
  -1.791238e+02   2.526993e+01
  -5.555254e+01  -2.737192e+01
   7.476601e+01   4.007464e+01
   3.305726e+01   1.175904e+02
  -1.158978e+02   1.047737e+02
  -1.953329e+02  -3.459108e+01
  -6.027730e+01  -6.222306e+01
   8.428283e+01  -3.033349e+01
   6.923927e+01   6.859203e+01
  -1.326935e+02   9.118486e+01
  -2.918674e+02  -1.005349e+01
  -2.721645e+02  -1.377230e+02
  -5.631527e+01  -2.790332e+02
   1.588109e+02  -2.692483e+02
   2.633034e+02  -9.791377e+01
   1.734864e+02   4.877146e+01
  -1.991031e+01   1.169305e+02
  -8.200299e+01   8.756113e+00
   3.299544e+01  -1.102155e+02
   1.922677e+02  -5.281231e+01
   2.048514e+02   9.585388e+01
   7.912702e+01   2.434591e+02
  -8.743860e+01   1.615740e+02
  -1.391296e+02   3.238961e+01
  -8.526609e+01  -4.998467e+01
   2.607312e+01   7.361990e+00
   3.678750e+01   6.837006e+01
  -8.379897e+01   1.167986e+02
  -1.948549e+02   3.300846e+01
  -1.730209e+02  -1.149826e+02
  -4.408295e+01  -2.088793e+02
   1.458400e+02  -1.381490e+02
   2.071656e+02  -1.754121e+01
   6.999782e+01   1.200099e+02
  -7.353445e+01   1.086786e+02
  -8.784276e+01   3.782155e+01
  -2.320237e+01  -2.507591e+01
   2.583555e+01  -1.416325e+01
  -1.131307e+01   2.204687e+00
  -7.212710e+01  -6.856001e+00
  -7.300051e+01  -8.196199e+01
  -1.461342e+01  -1.364839e+02
   1.194577e+02  -1.394653e+02
   2.282946e+02  -1.159442e+01
   2.215898e+02   1.323614e+02
  -1.374573e+00   2.263346e+02
  -1.166111e+02   2.179810e+02
  -1.429092e+02   2.693261e+01
  -6.831343e+01  -4.854596e+01
  -2.603585e+01  -3.480596e+01
  -5.538664e+01   9.361829e+00
  -8.116856e+01   1.308767e+01
  -3.441091e+01  -5.364781e+01
   3.316201e+01  -8.610555e+01
   1.067217e+02  -4.593760e+01
   9.071325e+01   3.947717e+01
  -9.860780e+00   1.244180e+02
  -1.456018e+02   1.084360e+02
  -1.809318e+02  -4.407905e+01
  -1.031042e+02  -1.716821e+02
   1.221230e+02  -2.375748e+02
   2.623116e+02  -8.710365e+01
   2.952601e+02   6.424457e+01
   1.127605e+02   1.847153e+02
  -4.541867e+01   1.653329e+02
  -9.346382e+01   7.977054e+01
  -8.226723e+01   7.541589e+01
  -7.059147e+01   9.052525e+01
  -1.088281e+02   8.007558e+01
  -1.364136e+02  -2.495708e+01
  -1.359155e+02  -1.399097e+02
  -2.595584e+01  -2.292515e+02
   9.288556e+01  -1.544777e+02
   1.594032e+02   2.763701e+00
   1.565906e+02   1.466801e+02
   1.158633e+01   1.662657e+02
  -6.917885e+01   1.027785e+02
  -6.532377e+01   4.195844e-01
  -4.250585e+00  -4.073710e+01
   9.903327e-01  -3.404579e+01
  -3.744924e+01  -1.606636e+01
  -7.866060e+01  -3.351399e+01
  -4.289263e+01  -4.001507e+01
   7.314181e+01  -3.280803e+01
   1.577103e+02   6.867307e+00
   1.502789e+02   5.066314e+01
   1.457093e+01   8.478292e+01
  -1.166764e+02   5.323758e+01
  -1.486666e+02   8.104892e+00
  -5.125845e+01  -4.722283e+01
   6.619406e+01  -3.043125e+01
   7.846671e+01   2.184307e+01
   1.104261e+00   6.775521e+01
  -5.676582e+01   5.565510e+01
  -6.258358e+01  -3.566826e+00
  -5.051096e+01  -5.306560e+01
  -4.342948e+01  -3.859663e+01
  -5.910956e+01  -1.003584e+00
  -6.961790e+01  -8.046294e-01
  -3.253592e+01  -7.710458e+01
   5.032771e+01  -1.596261e+02
   1.292414e+02  -1.363780e+02
   1.734256e+02  -3.451633e+01
   1.164226e+02   8.911817e+01
   1.223899e+01   1.157323e+02
  -8.548914e+01   7.255281e+01
  -6.533040e+01  -1.425566e+01
   5.372099e+01  -1.239503e+01
   1.224751e+02   4.568759e+01
   8.303317e+01   1.290784e+02
  -6.136666e+01   1.123671e+02
  -1.751726e+02   4.595842e+01
  -1.575933e+02  -1.484979e+01
  -3.063116e+01  -8.554088e+01
   6.079033e+01  -8.045189e+01
   4.613674e+01  -1.433621e+01
  -3.613231e+01   2.488641e+01
  -9.985005e+01  -2.385538e+01
  -3.207177e+01  -1.375824e+02
   8.718156e+01  -1.494011e+02
   1.758555e+02  -5.143950e+01
   1.267069e+02   9.802320e+01
   2.066776e+01   2.166765e+02
  -8.101189e+01   1.396204e+02
  -1.090441e+02   5.942549e+00
  -6.516974e+01  -1.058600e+02
  -4.126391e+00  -1.109093e+02
   4.977124e+01  -2.315812e+01
   5.361055e+01   3.064243e+01
   2.755364e+01   1.114708e+01
   4.837143e+00  -2.137179e+01
   1.728058e+01   1.757839e+01
   6.916995e+01   9.334150e+01
   5.448154e+01   1.051027e+02
  -4.283615e+01   4.879805e+01
  -1.484110e+02  -3.675671e+01
  -1.383732e+02  -8.692842e+01
  -1.246000e+01  -5.017527e+01
   9.118107e+01  -2.923059e+01
   9.473781e+01  -3.453511e+00
   1.230480e+01   9.181538e+00
  -4.549412e+01   2.149355e+01
  -1.337978e+01   1.525610e+01
   2.186195e+01  -3.001906e+00
  -5.956348e+00  -9.103981e+00
  -7.797770e+01  -6.763187e+00
  -7.970046e+01  -3.101276e+01
  -1.479210e+01  -8.516000e+01
   1.271396e+02  -1.096970e+02
   1.552123e+02  -6.247646e+01
   1.458542e+02   5.050453e+01
   1.522949e+01   1.617382e+02
  -1.042062e+02   1.510576e+02
  -1.045235e+02   6.773576e+01
  -8.043271e+01  -3.217469e+01
  -2.714626e+01  -3.404318e+01
   3.824037e+00  -6.931609e+00
  -7.872711e+00  -3.662854e+00
  -3.536605e+01  -4.583690e+01
  -1.446550e+01  -1.016931e+02
   2.978883e+01  -6.538604e+01
   7.382705e+01   1.594475e+01
   7.384291e+01   1.208756e+02
  -9.513517e-01   1.175759e+02
  -8.399645e+01   3.111239e+01
  -1.002734e+02  -8.291088e+01
  -2.476432e+01  -1.103098e+02
   5.798239e+01  -5.452601e+01
   9.740575e+01   9.532124e+00
   3.790443e+01   4.112167e+01
  -3.189833e+01   6.486838e+01
  -2.818998e+01   3.080451e+01
   3.829344e+01   2.195422e+00
   5.832488e+01  -7.465992e+00
   1.877878e+01   2.408877e+01
  -7.476459e+01   5.770522e+01
  -1.150857e+02   5.320506e+01
  -7.257055e+01  -1.745874e+01
   1.918493e+01  -8.181179e+01
   5.046492e+01  -6.843590e+01
   3.724124e+01  -7.388401e+00
   1.628387e+00   5.402306e+01
  -2.555406e+01   4.464999e+01
  -3.370954e+01  -1.508691e+01
  -2.496594e+01  -4.758441e+01
   2.245120e+00  -3.720255e+01
   3.630560e+01   8.678773e+00
   4.262883e+01   2.088389e+01
   2.024827e+01   4.293777e+00
  -2.670134e-01  -1.105801e+01
  -7.274231e+00   2.963888e+00
  -7.347837e+00   3.428400e+01
  -2.456407e+01   4.607903e+01
  -3.612928e+01   6.181303e+00
  -3.435477e+01  -4.988526e+01
   9.623906e+00  -6.639537e+01
   4.257475e+01  -1.442788e+01
   5.507690e+01   4.070876e+01
   6.634288e+00   6.632079e+01
  -5.237739e+01   3.065070e+01
  -8.415091e+01  -7.858517e+00
  -4.660772e+01  -4.535406e+01
   2.496603e+01  -4.417849e+01
   6.600661e+01  -1.713111e+01
   2.706950e+01  -7.667190e+00
  -3.730776e+01   2.507983e+00
  -3.582066e+01  -1.659370e+01
   3.566503e+01  -3.565213e+01
   9.731387e+01  -1.696862e+01
