
 $NMID
 id='ANONYMOUS ', fmtdat='(2E16.6)'
 volume=1.0
 tramp=1.0
 $END
  -4.772242e+03  -2.748573e+02
  -2.834366e+03  -3.062814e+03
   7.604111e+02  -2.976163e+03
   1.886191e+03  -1.266960e+03
   1.246087e+03   7.390960e+02
  -5.901323e+02   6.726458e+02
  -8.771565e+02  -2.308582e+02
  -5.721677e+01  -1.065636e+03
   7.335014e+02  -9.744894e+02
   9.912044e+02   1.652099e+02
   5.557611e+02   9.371831e+02
  -3.295478e+02   9.414602e+02
  -7.107624e+02   1.267499e+02
  -4.266549e+02  -7.104494e+02
   2.631164e+02  -7.732574e+02
   6.338888e+02  -2.685167e+01
   2.677555e+02   7.251249e+02
  -2.742782e+02   7.094920e+02
  -5.381895e+02   1.103741e+02
  -4.514263e+02  -4.186433e+02
  -2.429142e+01  -5.061169e+02
   2.079838e+02  -2.613353e+02
   1.884437e+02  -4.657032e+01
  -1.035326e+02   6.844434e+01
  -3.857681e+02  -1.590037e+02
  -2.476598e+02  -4.826440e+02
   4.813091e+02  -3.905622e+02
   8.966860e+02   1.611185e+02
   4.201709e+02   6.162871e+02
  -4.325655e+02   4.806148e+02
  -6.895757e+02  -4.070549e+01
  -4.153152e+02  -5.387985e+02
   2.727551e+02  -5.386323e+02
   4.877766e+02  -1.822615e+02
   4.470449e+02   1.935363e+02
   7.631557e+01   4.837304e+02
  -1.619659e+02   3.308107e+02
  -2.022950e+02  -1.864272e+02
   1.317372e+02  -4.093363e+02
   4.325146e+02   4.242174e+01
   2.725410e+02   5.788968e+02
  -2.770722e+02   7.326212e+02
  -5.779943e+02   3.865923e+01
  -1.828921e+02  -4.369171e+02
   2.916356e+02  -3.466944e+02
   4.295642e+02   3.630852e+02
  -4.243636e+01   5.733109e+02
  -6.022875e+02   8.425525e+01
  -5.831574e+02  -4.592599e+02
  -1.825948e+02  -6.091870e+02
   3.343918e+02  -3.515410e+02
   6.923314e+02   3.140469e+01
   4.134622e+02   3.525786e+02
  -1.398115e+02   3.480366e+02
  -5.136008e+02   5.645811e+01
  -2.442227e+02  -2.156734e+02
   1.387276e+02  -1.067172e+02
   1.587176e+02   1.588341e+02
  -1.456676e+02   1.716323e+02
  -3.644907e+02  -5.092125e+01
  -1.950552e+02  -3.054809e+02
   1.955252e+02  -2.534326e+02
   3.774814e+02  -7.947799e+01
   2.128101e+02   1.039314e+02
  -6.221313e+01   2.606324e+02
  -2.479776e+02   3.546187e+02
  -3.594405e+02   2.600016e+02
  -3.457099e+02  -1.249508e+02
  -1.260510e+02  -4.494852e+02
   6.275680e+01  -3.966626e+02
   1.592117e+02  -1.361640e+02
   4.519857e+01   2.133941e+01
   4.267018e+01  -1.000533e+02
   2.106634e+02  -1.491726e+02
   2.558613e+02   3.509876e+01
   1.626561e+02   2.722922e+02
  -6.856845e+01   2.855917e+02
  -2.538459e+02   2.424287e+01
  -2.069046e+02  -2.654634e+02
  -1.080121e+01  -2.809399e+02
   2.888942e+02  -1.289491e+02
   3.842170e+02   1.677904e+02
   2.278661e+02   3.998150e+02
  -8.973507e+01   3.190877e+02
  -1.940692e+02   1.448508e+02
  -2.042957e+02  -2.407585e+00
  -1.125591e+02   4.470920e+01
  -2.367439e+02   3.898680e+01
  -3.738594e+02  -3.927557e+01
  -3.284836e+02  -2.699927e+02
   2.467194e+01  -4.807345e+02
   4.287431e+02  -4.671377e+02
   5.598177e+02  -2.112748e+02
   3.802928e+02   9.706779e+01
   6.314180e+01   2.952852e+02
  -1.430211e+02   2.472502e+02
  -9.744960e+01   3.256603e+01
   1.001767e+02  -1.208163e+02
   2.086353e+02  -1.169074e+00
   3.683789e+01   2.149435e+02
  -1.706750e+02   1.789518e+02
  -2.146365e+02  -4.242027e+01
   2.575311e+01  -2.117015e+02
   1.886127e+02  -3.609653e+01
   1.776488e+02   2.633590e+02
  -3.163445e+01   3.485657e+02
  -2.144424e+02   2.108238e+02
  -3.937177e+02  -5.104584e+01
  -2.977959e+02  -2.402379e+02
  -8.222088e+01  -2.627720e+02
   9.675806e+01  -1.861107e+02
   1.671965e+02  -3.102491e+01
   6.170210e+01   2.850719e+01
  -7.139977e+01  -3.969643e+01
  -3.220388e+01  -1.263917e+02
   1.233605e+02  -1.135426e+02
   1.943894e+02   2.496299e+01
   6.397272e+01   6.846275e+01
  -7.918138e+01   2.167058e+01
  -6.796058e+01  -6.992346e+01
   1.455043e+02  -8.835671e+01
   2.995706e+02  -2.270188e+01
   3.038044e+02   1.289340e+02
   4.479249e+01   2.717221e+02
  -1.814137e+02   2.532616e+02
  -2.704925e+02   1.215297e+02
  -1.638051e+02  -4.090534e+01
   2.028157e+01  -1.093491e+02
   9.449931e+01  -1.743672e+01
  -3.264906e+01   1.122259e+02
  -2.052019e+02   3.975472e+01
  -2.049318e+02  -9.244225e+01
  -5.372581e+01  -2.440161e+02
   7.592013e+01  -1.697111e+02
   1.428189e+02  -1.985719e+01
   7.899569e+01   4.097224e+01
  -2.286012e+01  -7.544133e+00
  -4.835227e+01  -6.879626e+01
   8.270482e+01  -1.148879e+02
   1.985616e+02  -2.563837e+01
   1.770707e+02   1.347802e+02
   3.659940e+01   1.994351e+02
  -1.529212e+02   1.719758e+02
  -2.161957e+02   1.557713e+00
  -6.620811e+01  -1.198746e+02
   7.810359e+01  -1.148006e+02
   9.189618e+01  -3.570188e+01
   2.066561e+01   2.083845e+01
  -2.868566e+01   1.134527e+01
   1.235670e+01  -4.185466e+00
   8.319383e+01   8.938511e+00
   6.969826e+01   8.338033e+01
   4.449824e+01   1.279782e+02
  -1.036705e+02   1.567198e+02
  -2.305074e+02   2.945467e+01
  -2.229909e+02  -1.338987e+02
  -3.342342e+01  -2.333166e+02
   1.112379e+02  -2.065528e+02
   1.443056e+02  -3.507342e+01
   7.021797e+01   4.402834e+01
   3.197088e+01   3.067615e+01
   6.122664e+01  -1.085582e+01
   8.228200e+01  -6.413139e+00
   3.993682e+01   5.313284e+01
  -3.471628e+01   9.926088e+01
  -1.025379e+02   4.625787e+01
  -9.198980e+01  -4.079341e+01
   1.032658e+01  -1.181111e+02
   1.739726e+02  -1.108556e+02
   1.856521e+02   4.963987e+01
   1.184108e+02   1.823780e+02
  -1.068171e+02   2.456336e+02
  -2.792470e+02   8.229760e+01
  -2.896251e+02  -6.474339e+01
  -1.237558e+02  -1.915717e+02
   3.425672e+01  -1.736569e+02
   8.246158e+01  -8.180744e+01
   7.895961e+01  -7.560286e+01
   5.789985e+01  -9.536784e+01
   1.063921e+02  -8.099187e+01
   1.207376e+02   5.063371e+01
   1.274005e+02   1.443072e+02
   6.440808e+00   2.280124e+02
  -8.902590e+01   1.766687e+02
  -1.597827e+02   6.979101e+00
  -1.462816e+02  -1.353944e+02
  -2.251025e+01  -1.733936e+02
   6.300954e+01  -1.010411e+02
   5.716600e+01   3.193650e+00
   9.928632e+00   4.452733e+01
  -8.010183e+00   2.916658e+01
   3.596493e+01   1.815724e+01
   7.933607e+01   2.284997e+01
   4.330788e+01   4.150847e+01
  -6.812202e+01   3.633847e+01
  -1.758325e+02   1.394886e+01
  -1.435129e+02  -6.022212e+01
  -1.973420e+01  -9.780925e+01
   1.243180e+02  -5.082749e+01
   1.470289e+02  -1.182105e+01
   5.223150e+01   4.930079e+01
  -6.283636e+01   3.522006e+01
  -7.743457e+01  -2.162627e+01
  -9.603924e+00  -6.428599e+01
   6.170063e+01  -6.112766e+01
   6.437751e+01   9.280770e+00
   5.980744e+01   4.898786e+01
   4.336210e+01   4.607108e+01
   5.803824e+01  -6.429805e-02
   7.225991e+01   1.555800e+00
   3.405281e+01   7.546614e+01
  -2.550767e+01   1.565986e+02
  -1.318816e+02   1.256947e+02
  -1.898874e+02   3.589642e+01
  -1.194305e+02  -8.478402e+01
  -1.168242e+01  -1.135562e+02
   9.542582e+01  -7.518194e+01
   6.331729e+01   1.730000e+01
  -5.053839e+01   2.019119e+01
  -1.391991e+02  -4.968375e+01
  -7.709529e+01  -1.280060e+02
   7.076763e+01  -1.048183e+02
   1.752849e+02  -3.900896e+01
   1.608764e+02   2.193523e+01
   3.859565e+01   8.895071e+01
  -6.215622e+01   7.592423e+01
  -4.593058e+01   6.844602e+00
   3.720990e+01  -2.244553e+01
   9.922633e+01   1.827240e+01
   2.693242e+01   1.420938e+02
  -1.031803e+02   1.612480e+02
  -1.765974e+02   6.132423e+01
  -1.238398e+02  -1.053030e+02
  -3.571675e+01  -1.991803e+02
   6.752151e+01  -1.480918e+02
   1.110585e+02  -9.014064e-01
   6.557062e+01   1.070080e+02
   2.882535e+00   1.098373e+02
  -4.453781e+01   2.551496e+01
  -5.529463e+01  -3.067226e+01
  -2.596842e+01  -9.409542e+00
  -3.517720e+00   2.089960e+01
  -1.908541e+01  -1.775529e+01
  -6.609558e+01  -1.087918e+02
  -4.743146e+01  -1.037997e+02
   4.535524e+01  -5.489958e+01
   1.449674e+02   3.500203e+01
   1.340519e+02   8.337088e+01
   1.085657e+01   4.817364e+01
  -9.348887e+01   2.650868e+01
  -9.745108e+01   2.138700e+00
  -1.114251e+01  -9.615083e+00
   4.087042e+01  -2.623932e+01
   1.568889e+01  -1.737064e+01
  -2.350177e+01   2.453458e+00
   6.671985e+00   8.793522e+00
   7.725021e+01   3.257551e+00
   8.336841e+01   2.335907e+01
   1.041899e+01   9.090892e+01
  -1.239535e+02   1.150381e+02
  -1.629240e+02   6.508556e+01
  -1.420253e+02  -5.252178e+01
  -3.402263e+01  -1.568034e+02
   8.861194e+01  -1.617651e+02
   1.018546e+02  -5.526045e+01
   7.988028e+01   2.153811e+01
   2.706774e+01   3.291405e+01
  -3.874108e+00   8.467883e+00
   9.576816e+00   4.624185e+00
   3.340406e+01   4.708729e+01
   1.725093e+01   1.055367e+02
  -2.998526e+01   6.965576e+01
  -8.072113e+01  -7.052145e+00
  -8.702793e+01  -1.188240e+02
   4.562273e+00  -1.229585e+02
   9.030240e+01  -2.567708e+01
   1.022088e+02   7.914268e+01
   3.938188e+01   1.186199e+02
  -5.532482e+01   6.738594e+01
  -1.012550e+02  -2.496703e+00
  -4.201516e+01  -4.015909e+01
   4.291978e+01  -6.310002e+01
   3.273007e+01  -2.652678e+01
  -4.059176e+01   1.146210e+00
  -6.552010e+01   1.223678e+01
  -1.645276e+01  -2.839622e+01
   7.360493e+01  -6.822857e+01
   1.151004e+02  -5.730680e+01
   7.245761e+01   6.823566e+00
  -2.045540e+01   8.276034e+01
  -5.023666e+01   8.081651e+01
  -3.974350e+01   4.165009e+00
  -3.083255e+00  -5.144436e+01
   2.362001e+01  -4.791337e+01
   3.726665e+01   1.610992e+01
   3.307799e+01   4.814420e+01
  -3.151120e+00   3.784998e+01
  -3.606780e+01  -1.109092e+01
  -4.268804e+01  -2.784793e+01
  -1.947313e+01  -4.293999e+00
   9.270831e-01   1.387471e+01
   6.422592e+00  -3.407860e-02
   5.680927e+00  -3.479212e+01
   2.351517e+01  -4.811872e+01
   3.527442e+01  -1.174259e+01
   3.356829e+01   4.731667e+01
  -4.240156e+00   6.170639e+01
  -4.488626e+01   2.026937e+01
  -5.765383e+01  -4.273811e+01
  -9.813642e+00  -6.678826e+01
   5.148278e+01  -3.190429e+01
   8.812340e+01   1.872564e+01
   4.544497e+01   4.679924e+01
  -2.957593e+01   4.349583e+01
  -7.040488e+01   1.619725e+01
  -2.699557e+01   4.900831e+00
   4.027041e+01   3.890989e-01
   3.958998e+01   1.780974e+01
  -3.039638e+01   3.280431e+01
  -9.979388e+01   2.457757e+01
