
 $NMID
 id='ANONYMOUS ', fmtdat='(2E16.6)'
 volume=1.0
 tramp=1.0
 $END
   4.382539e+03   1.462574e+02
   2.339830e+03   2.939830e+03
  -4.891160e+02   3.139726e+03
  -1.862274e+03   1.061622e+03
  -8.431213e+02  -7.350096e+02
   5.251990e+02  -5.479144e+02
   7.117127e+02   2.046976e+02
   4.986555e+01   1.036735e+03
  -7.981607e+02   9.575239e+02
  -9.091890e+02  -6.238870e+01
  -5.461560e+02  -8.822337e+02
   2.596164e+02  -8.835178e+02
   6.372548e+02  -1.718203e+02
   4.107893e+02   6.711057e+02
  -1.706794e+02   7.329271e+02
  -6.399969e+02   3.139273e+01
  -3.126125e+02  -7.125221e+02
   2.661938e+02  -6.945350e+02
   5.528693e+02  -1.271801e+02
   4.092150e+02   3.268928e+02
  -1.140852e+01   4.721347e+02
  -2.097551e+02   2.478471e+02
  -1.994653e+02   4.216373e+01
   1.209001e+02  -8.625387e+01
   3.811857e+02   1.406785e+02
   2.280316e+02   4.307675e+02
  -4.744690e+02   3.907497e+02
  -8.029098e+02  -1.502800e+02
  -4.341767e+02  -5.593905e+02
   3.983204e+02  -4.648372e+02
   6.817324e+02  -1.423135e+01
   3.815225e+02   5.382718e+02
  -2.674460e+02   4.921827e+02
  -5.199814e+02   1.669825e+02
  -3.837399e+02  -2.003264e+02
  -1.138624e+02  -4.382197e+02
   1.635055e+02  -3.373004e+02
   1.695554e+02   1.684383e+02
  -1.224704e+02   3.683509e+02
  -4.600551e+02   6.353631e+00
  -2.462258e+02  -5.623270e+02
   1.939978e+02  -7.353462e+02
   6.228735e+02  -5.061412e+01
   2.168715e+02   4.601883e+02
  -3.133070e+02   3.328289e+02
  -3.785584e+02  -3.806900e+02
   2.659004e+01  -5.637248e+02
   5.759900e+02  -1.107672e+02
   6.018684e+02   4.046534e+02
   1.641509e+02   5.985957e+02
  -2.913926e+02   3.275828e+02
  -7.081602e+02  -4.093627e+01
  -3.967586e+02  -3.170602e+02
   1.171464e+02  -2.923891e+02
   4.735672e+02  -2.226942e+01
   2.539194e+02   1.651591e+02
  -1.125193e+02   1.210198e+02
  -1.578136e+02  -1.238278e+02
   1.548778e+02  -1.566467e+02
   3.361575e+02   6.718356e+01
   1.721054e+02   2.812218e+02
  -1.515230e+02   2.667000e+02
  -3.219834e+02   2.737978e+01
  -2.453068e+02  -5.857256e+01
   5.686070e+01  -2.283102e+02
   2.430779e+02  -3.142227e+02
   3.310238e+02  -2.606789e+02
   3.239486e+02   1.301621e+02
   9.837788e+01   4.628993e+02
  -6.191038e+01   4.005441e+02
  -1.607323e+02   1.354335e+02
  -2.956908e+01  -2.343744e+00
  -3.528355e+01   8.161803e+01
  -2.223529e+02   1.330832e+02
  -2.639647e+02  -5.953965e+01
  -2.131844e+02  -2.722603e+02
   5.917667e+01  -2.993338e+02
   2.421890e+02  -1.676361e+01
   2.047081e+02   2.444430e+02
   1.010070e+01   2.964665e+02
  -2.658573e+02   1.253718e+02
  -3.678453e+02  -1.426500e+02
  -2.289282e+02  -3.776441e+02
   7.209684e+01  -2.724045e+02
   2.018086e+02  -1.341100e+02
   1.830876e+02   4.393297e+00
   1.127107e+02  -5.475572e+01
   2.361822e+02  -5.407772e+01
   3.902815e+02   2.259852e+01
   3.431723e+02   2.237940e+02
  -1.023594e+01   4.648657e+02
  -3.758868e+02   3.964336e+02
  -5.467355e+02   1.935614e+02
  -3.738307e+02  -9.318491e+01
  -5.550533e+01  -2.812343e+02
   1.209260e+02  -2.607589e+02
   8.384805e+01  -3.461280e+01
  -1.013433e+02   8.784447e+01
  -1.995372e+02  -6.947368e+00
  -3.768783e+01  -2.138971e+02
   1.770445e+02  -1.876825e+02
   1.851657e+02   6.255766e+01
  -2.440907e+01   1.936644e+02
  -1.765124e+02   3.099867e+01
  -1.909189e+02  -2.402852e+02
   2.777893e+01  -3.238676e+02
   2.242951e+02  -2.288317e+02
   3.494615e+02   2.531129e+01
   3.374433e+02   2.353938e+02
   1.059870e+02   2.197310e+02
  -1.173717e+02   1.686489e+02
  -1.784782e+02   3.292937e+01
  -6.445759e+01  -2.756490e+01
   6.722292e+01   3.332985e+01
   3.882973e+01   1.268359e+02
  -1.265232e+02   9.855430e+01
  -1.932330e+02  -2.512099e+01
  -5.780234e+01  -6.485623e+01
   8.830744e+01  -2.293498e+01
   7.939509e+01   7.607455e+01
  -1.416848e+02   8.780627e+01
  -2.816496e+02   4.664570e+01
  -3.167872e+02  -1.313264e+02
  -5.917482e+01  -2.711948e+02
   1.831334e+02  -2.524734e+02
   2.817588e+02  -1.103359e+02
   1.784382e+02   3.517819e+01
  -1.546976e+01   1.064504e+02
  -9.596911e+01   1.565590e+01
   2.898124e+01  -1.097280e+02
   1.838316e+02  -4.625661e+01
   2.127655e+02   7.701369e+01
   7.156310e+01   2.365033e+02
  -7.921124e+01   1.583766e+02
  -1.405403e+02   2.797085e+01
  -7.589059e+01  -3.670841e+01
   2.423953e+01  -5.209235e-01
   5.753453e+01   7.289272e+01
  -7.896684e+01   1.300668e+02
  -1.865358e+02   2.991365e+01
  -2.081660e+02  -1.058791e+02
  -3.657933e+01  -2.113292e+02
   1.444718e+02  -1.539893e+02
   2.159651e+02  -1.772780e+01
   6.366931e+01   1.164153e+02
  -7.873631e+01   1.217948e+02
  -9.041906e+01   3.476504e+01
  -2.047414e+01  -2.011693e+01
   2.431291e+01  -9.113460e+00
  -1.135279e+01   4.782450e+00
  -6.830761e+01  -1.166824e+01
  -7.785282e+01  -7.034183e+01
  -5.047080e+01  -1.439199e+02
   1.132242e+02  -1.625701e+02
   2.276866e+02  -3.264057e+01
   2.008048e+02   1.357942e+02
   2.506098e+01   2.321469e+02
  -1.126091e+02   1.946659e+02
  -1.343412e+02   2.848627e+01
  -6.880600e+01  -4.472784e+01
  -3.358053e+01  -2.627240e+01
  -5.653016e+01   1.569499e+01
  -7.731715e+01   6.164793e+00
  -4.798072e+01  -4.387206e+01
   3.757719e+01  -1.059093e+02
   9.160168e+01  -6.133539e+01
   8.832735e+01   3.980421e+01
  -9.430189e+00   1.103044e+02
  -1.564933e+02   1.045646e+02
  -2.009278e+02  -2.988100e+01
  -1.287001e+02  -1.888394e+02
   1.083820e+02  -2.440176e+02
   2.519936e+02  -8.532876e+01
   2.547657e+02   5.781411e+01
   1.179738e+02   2.027501e+02
  -2.829904e+01   1.705908e+02
  -7.408286e+01   8.020694e+01
  -7.984166e+01   6.163403e+01
  -6.811840e+01   1.021444e+02
  -9.926398e+01   7.253905e+01
  -1.190922e+02  -3.075781e+01
  -1.388889e+02  -1.461758e+02
  -1.884037e+01  -2.298553e+02
   8.771227e+01  -1.736136e+02
   1.692923e+02  -1.692593e+01
   1.584934e+02   1.361873e+02
   3.483641e+01   1.689844e+02
  -5.610155e+01   1.017109e+02
  -5.427056e+01  -6.301892e+00
  -1.119383e+01  -4.363111e+01
   7.301328e+00  -3.187234e+01
  -3.475846e+01  -1.605370e+01
  -8.721265e+01  -1.752426e+01
  -4.115005e+01  -3.405895e+01
   6.777485e+01  -3.543305e+01
   1.801471e+02  -1.828718e+01
   1.601277e+02   5.697969e+01
   1.807828e+01   9.664871e+01
  -1.208156e+02   6.054683e+01
  -1.358610e+02   1.830761e+01
  -4.195019e+01  -4.266183e+01
   5.498325e+01  -3.576041e+01
   7.377154e+01   1.443090e+01
   1.494758e+01   6.000646e+01
  -5.094164e+01   5.383752e+01
  -7.113877e+01  -3.329254e+00
  -5.429568e+01  -4.294107e+01
  -4.006020e+01  -3.925038e+01
  -5.422010e+01   1.741194e-01
  -7.021250e+01   8.984102e-01
  -4.031038e+01  -7.426205e+01
   1.990304e+01  -1.490719e+02
   1.160335e+02  -1.276041e+02
   1.782286e+02  -3.927690e+01
   1.251527e+02   7.205465e+01
   8.469219e+00   1.219585e+02
  -8.981197e+01   7.858406e+01
  -6.301851e+01  -1.281028e+01
   5.489071e+01  -1.867607e+01
   1.380482e+02   4.535988e+01
   7.838016e+01   1.098905e+02
  -6.870781e+01   1.034584e+02
  -1.786079e+02   4.075312e+01
  -1.692150e+02  -2.008180e+01
  -4.434905e+01  -9.270944e+01
   5.999019e+01  -7.838524e+01
   5.109484e+01  -6.802428e+00
  -3.841932e+01   2.384534e+01
  -9.572877e+01  -1.086956e+01
  -2.146382e+01  -1.306879e+02
   9.096958e+01  -1.687240e+02
   1.745571e+02  -7.039062e+01
   1.322558e+02   1.130562e+02
   4.242703e+01   1.833402e+02
  -6.966678e+01   1.483286e+02
  -1.061242e+02  -2.686532e+00
  -7.385741e+01  -1.108864e+02
   2.866134e+00  -1.068332e+02
   4.277224e+01  -2.567933e+01
   5.262530e+01   3.223141e+01
   2.887230e+01   5.633782e+00
   3.454054e+00  -2.154854e+01
   1.659617e+01   1.597469e+01
   6.054602e+01   9.315196e+01
   4.282011e+01   1.037381e+02
  -4.922007e+01   4.937718e+01
  -1.383418e+02  -3.327436e+01
  -1.286590e+02  -7.231692e+01
  -1.594926e+01  -4.966096e+01
   9.313971e+01  -2.061095e+01
   8.652386e+01  -2.790662e+00
   8.784285e+00   6.424409e+00
  -3.863096e+01   2.720586e+01
  -1.598200e+01   1.717844e+01
   2.183464e+01  -1.376296e+00
  -5.987810e+00  -9.499970e+00
  -8.102658e+01   3.965530e-01
  -8.714298e+01  -1.270934e+01
  -3.567222e+00  -7.936955e+01
   1.135307e+02  -1.101064e+02
   1.650111e+02  -6.346731e+01
   1.372575e+02   5.003948e+01
   2.778564e+01   1.431286e+02
  -9.174552e+01   1.603303e+02
  -1.023820e+02   5.861067e+01
  -8.377494e+01  -1.984356e+01
  -3.143302e+01  -2.924536e+01
   3.270028e+00  -7.958027e+00
  -1.071383e+01  -2.655702e+00
  -3.559467e+01  -4.681237e+01
  -2.006964e+01  -9.999348e+01
   3.095786e+01  -6.666355e+01
   7.516437e+01   8.003316e+00
   8.445437e+01   1.099585e+02
  -1.075073e+00   1.172134e+02
  -8.682679e+01   2.584388e+01
  -9.286416e+01  -8.465565e+01
  -4.008757e+01  -1.204191e+02
   5.589065e+01  -6.785327e+01
   9.952186e+01   4.228679e+00
   4.446865e+01   4.665673e+01
  -3.767409e+01   6.072129e+01
  -3.293946e+01   2.671384e+01
   3.679830e+01   1.170830e+00
   6.810445e+01  -1.655709e+01
   1.553965e+01   2.632930e+01
  -7.329520e+01   6.654287e+01
  -1.169714e+02   6.306826e+01
  -6.274843e+01  -6.015732e+00
   1.138408e+01  -7.521908e+01
   5.014358e+01  -8.384280e+01
   4.128344e+01  -1.253172e+01
   1.032176e+01   5.165742e+01
  -2.378313e+01   4.397966e+01
  -3.382471e+01  -1.378709e+01
  -3.156877e+01  -4.451178e+01
   2.651655e-01  -3.504181e+01
   3.209082e+01   1.036410e+01
   4.108083e+01   2.417828e+01
   1.923416e+01   1.960277e+00
  -2.669767e+00  -1.356247e+01
  -6.947899e+00  -8.090113e-01
   5.609401e-01   3.336926e+01
  -1.782308e+01   4.148688e+01
  -3.200897e+01   1.245872e+01
  -3.437764e+01  -3.892957e+01
  -2.880098e+00  -6.160950e+01
   4.212509e+01  -2.530340e+01
   5.479781e+01   3.249198e+01
   1.690448e+01   6.076003e+01
  -4.892206e+01   3.657638e+01
  -8.668377e+01  -1.378200e+01
  -4.896198e+01  -4.337220e+01
   2.682459e+01  -4.310304e+01
   6.435364e+01  -1.496872e+01
   2.401400e+01  -6.672391e+00
  -3.735054e+01   2.937803e-01
  -3.665635e+01  -1.551586e+01
   2.779540e+01  -3.131178e+01
   9.548781e+01  -2.330314e+01
