
 $NMID
 id='ANONYMOUS ', fmtdat='(2E16.6)'
 volume=1.0
 tramp=1.0
 $END
  -3.100634e+03   2.469129e+02
  -2.227796e+03  -1.688621e+03
   2.229904e+01  -1.926826e+03
   8.970628e+02  -1.088041e+03
   9.431654e+02  -1.467531e+02
   1.271294e+02   1.062339e+02
  -1.899999e+02  -7.697566e+00
  -9.834872e+01  -2.746460e+02
   3.320794e+02  -5.252786e+02
   6.131991e+02  -1.527116e+02
   4.331322e+02   4.385784e+02
  -2.231176e+01   5.925248e+02
  -1.406217e+02   2.432257e+02
  -3.679793e+02  -3.088672e+02
   2.679004e+01  -4.576693e+02
   4.072752e+02  -9.251400e+01
   2.438077e+02   4.322411e+02
  -1.753230e+02   6.701006e+02
  -3.628751e+02   3.119566e+02
  -3.813567e+02  -1.169025e+02
  -1.312938e+02  -3.527360e+02
   5.617136e+01  -2.185891e+02
   5.990428e+01  -5.021343e+01
  -1.540823e+02  -1.249640e+02
  -2.354992e+02  -1.978706e+02
  -1.563719e+01  -3.579795e+02
   4.686760e+02  -2.566288e+02
   6.313401e+02   1.777442e+02
   1.667688e+02   3.266681e+02
  -3.086977e+02   1.883611e+02
  -3.841175e+02  -9.362969e+01
  -1.710807e+02  -2.950011e+02
   1.770140e+02  -3.365308e+02
   3.777191e+02  -1.394634e+02
   3.210659e+02   9.576342e+01
   1.042793e+02   2.515623e+02
  -4.351572e+01   2.086188e+02
   6.707078e+01  -6.480636e+01
   1.281265e+02  -1.567594e+02
   2.730767e+02   1.338840e+02
   9.332119e+01   4.731704e+02
  -1.567894e+02   3.838506e+02
  -2.854481e+02   5.191041e+01
  -1.424974e+02  -2.897505e+02
   1.699738e+02  -1.463885e+02
   1.881559e+02   2.489285e+02
  -8.176118e+01   3.838968e+02
  -4.447622e+02   1.051004e+02
  -5.061969e+02  -3.308510e+02
  -1.771212e+02  -4.975694e+02
   2.192015e+02  -2.511426e+02
   4.909999e+02   8.895371e+00
   3.347071e+02   1.751542e+02
  -2.172061e+01   1.781117e+02
  -2.105285e+02   1.001736e+02
  -1.893989e+02   4.019207e+00
  -1.713569e+01  -6.596653e+01
   9.192867e+00   4.855201e+00
  -9.589937e+01   4.279193e+01
  -1.830614e+02  -2.819661e-01
  -1.298030e+02  -2.115433e+02
   1.212620e+02  -2.254101e+02
   2.829686e+02  -1.392987e+02
   2.152537e+02   9.282368e+01
  -5.271111e+01   2.846836e+02
  -1.748632e+02   3.211119e+02
  -3.073611e+02   1.607448e+02
  -2.126667e+02  -1.281504e+02
  -8.682770e+01  -3.726568e+02
  -6.142817e+00  -2.802805e+02
   3.762948e+01  -1.541850e+02
   1.146268e+01  -1.204897e+02
   1.465175e+02  -1.075833e+02
   2.237611e+02  -7.247148e+01
   2.178319e+02   9.185925e+01
   8.932239e+01   2.357131e+02
  -7.444364e+01   1.806964e+02
  -1.606905e+02  -1.306638e+01
  -1.429385e+02  -2.443662e+02
   5.159191e+01  -2.017492e+02
   2.258445e+02  -7.843163e+01
   2.451718e+02   1.322820e+02
   1.879166e+02   2.693248e+02
  -2.238052e+01   2.211292e+02
  -1.379356e+02   1.397254e+02
  -1.375442e+02   6.591524e+01
  -1.251400e+02   5.787557e+01
  -2.695830e+02   4.981165e+01
  -3.582615e+02  -8.843976e+01
  -2.933150e+02  -2.114360e+02
   3.198059e+01  -3.956387e+02
   3.255622e+02  -4.209353e+02
   4.449806e+02  -1.884561e+02
   2.609477e+02   6.982343e+01
   1.088147e+01   2.496245e+02
  -9.235368e+01   1.674595e+02
  -3.359836e+01   3.847190e+01
   1.067380e+02  -2.906792e+01
   1.329372e+02   3.337993e+01
   2.269604e+01   1.436297e+02
  -1.242685e+02   1.106726e+02
  -1.179972e+02  -4.636690e+01
   1.517036e+01  -1.342717e+02
   1.281086e+02   6.514728e+00
   1.377444e+02   2.089449e+02
   8.029677e+00   3.008710e+02
  -2.032060e+02   1.872263e+02
  -3.580450e+02  -2.146546e+01
  -3.304481e+02  -2.496240e+02
  -6.161650e+01  -2.070937e+02
   1.105534e+02  -1.365476e+02
   1.393513e+02  -6.711291e+00
   3.403871e+01   5.489658e+00
  -5.257145e+01  -5.574639e+01
  -1.093918e+01  -1.172500e+02
   1.086816e+02  -7.700156e+01
   1.333818e+02   3.491993e+01
   2.195981e+01   4.668907e+01
  -7.567183e+01   2.038489e+00
  -4.391525e+01  -9.219648e+01
   1.598713e+02  -7.514874e+01
   2.984835e+02  -5.651681e-01
   2.418967e+02   1.189459e+02
   3.970241e+01   2.372885e+02
  -1.725373e+02   2.276296e+02
  -2.238529e+02   8.281876e+01
  -1.276500e+02  -1.683988e+01
   2.143391e+01  -7.293170e+01
   5.397153e+01  -2.121389e+00
  -4.449715e+01   7.859794e+01
  -1.450501e+02   2.784261e+01
  -1.461843e+02  -7.203126e+01
  -5.987593e+01  -1.977530e+02
   7.028722e+01  -1.063872e+02
   1.093177e+02  -7.753089e+00
   4.690176e+01   2.552634e+01
  -2.557204e+01  -2.017716e+01
  -3.087831e+01  -1.052019e+02
   9.078878e+01  -1.055003e+02
   1.805280e+02  -1.144287e+01
   1.560660e+02   1.186772e+02
   1.894348e+01   2.032207e+02
  -1.264976e+02   1.530801e+02
  -1.609552e+02   1.532112e+01
  -3.838962e+01  -8.031387e+01
   6.285337e+01  -1.008453e+02
   6.035917e+01  -1.971956e+01
  -2.265450e+00   1.914774e+01
  -3.118992e+01   5.036513e+00
   8.173506e+00  -2.706567e+01
   7.083166e+01  -1.098455e+01
   1.162552e+02   7.310508e+01
   2.258218e+01   1.628143e+02
  -1.140665e+02   1.421631e+02
  -2.050818e+02   1.202282e+01
  -1.744428e+02  -1.253904e+02
  -1.888312e+01  -1.995440e+02
   8.600491e+01  -1.467988e+02
   1.034182e+02  -2.506273e+01
   6.534983e+01   3.003199e+01
   3.143519e+01   1.971601e+01
   4.919738e+01  -1.375098e+01
   7.810492e+01  -1.707165e+01
   6.127946e+01   5.769927e+01
  -3.504428e+01   9.698278e+01
  -9.590720e+01   8.623274e+01
  -1.119519e+02  -4.630748e+01
   9.690648e+00  -1.278909e+02
   1.405512e+02  -1.267134e+02
   1.741488e+02   4.030339e+01
   9.194359e+01   2.021271e+02
  -1.187103e+02   1.941425e+02
  -2.370701e+02   7.669917e+01
  -2.403325e+02  -7.674526e+01
  -8.594174e+01  -1.445793e+02
   2.120591e+01  -1.341175e+02
   6.941373e+01  -7.337978e+01
   6.185980e+01  -6.687472e+01
   4.881017e+01  -9.611916e+01
   8.081923e+01  -7.888798e+01
   1.215071e+02   1.107492e+01
   1.540760e+02   1.340608e+02
   3.923839e+01   2.243458e+02
  -8.447813e+01   1.661197e+02
  -1.576884e+02   1.456547e-01
  -1.257445e+02  -1.089712e+02
  -3.964863e+01  -1.408219e+02
   6.274678e+01  -8.282566e+01
   5.416463e+01   1.532612e+01
  -2.665994e+00   4.673459e+01
  -1.972514e+01   3.478719e+01
   2.150485e+01   5.583952e+00
   7.155021e+01   1.914438e+01
   4.165670e+01   2.789570e+01
  -6.881058e+01   3.918193e+01
  -1.680875e+02   1.165250e+01
  -1.367317e+02  -5.866450e+01
   4.338120e-01  -9.595541e+01
   1.115647e+02  -6.229435e+01
   1.394989e+02  -1.406399e+01
   4.178958e+01   3.742308e+01
  -4.771686e+01   3.672424e+01
  -7.220718e+01  -1.440894e+01
  -1.985695e+01  -7.254674e+01
   4.818518e+01  -6.416343e+01
   6.240908e+01  -2.733202e+00
   4.683769e+01   3.528355e+01
   4.695545e+01   3.745822e+01
   4.759465e+01  -2.089464e+00
   6.766003e+01  -5.654570e+00
   4.359547e+01   6.642676e+01
  -1.475663e+01   1.348981e+02
  -1.087889e+02   1.247468e+02
  -1.624951e+02   4.004451e+01
  -1.158455e+02  -6.800599e+01
  -1.142992e+01  -1.069669e+02
   8.363592e+01  -8.558684e+01
   6.088027e+01   3.738062e+00
  -4.643249e+01   1.647398e+01
  -1.074527e+02  -2.730779e+01
  -6.967506e+01  -9.207921e+01
   6.152607e+01  -1.082571e+02
   1.586499e+02  -4.650043e+01
   1.286806e+02   3.418799e+01
   3.224665e+01   7.527971e+01
  -5.910202e+01   5.759587e+01
  -3.933646e+01   2.809769e+00
   3.402407e+01  -2.654263e+01
   8.489157e+01   1.290882e+01
   3.947795e+01   1.117692e+02
  -4.891979e+01   1.463498e+02
  -1.378339e+02   8.704845e+01
  -1.220002e+02  -8.814558e+01
  -3.252825e+01  -1.356417e+02
   6.476662e+01  -1.390417e+02
   9.170165e+01   1.539557e+00
   5.534471e+01   9.879019e+01
  -1.614406e+01   1.007782e+02
  -4.533190e+01   1.718794e+01
  -5.003358e+01  -2.530553e+01
  -1.463114e+01  -6.320086e+00
  -4.644466e+00   1.723237e+01
  -2.542716e+01  -1.730196e+01
  -5.471145e+01  -7.129548e+01
  -4.146705e+01  -8.620564e+01
   4.911150e+01  -4.266834e+01
   1.379034e+02   2.390853e+01
   1.316696e+02   6.236371e+01
   1.808992e+01   4.549629e+01
  -7.724013e+01   2.512584e+01
  -7.750099e+01   6.522461e+00
  -1.784055e+01  -9.033847e+00
   3.139164e+01  -2.325023e+01
   1.818585e+01  -1.078653e+01
  -1.348421e+01   6.986253e+00
   2.840781e+00   5.601288e+00
   6.227888e+01  -1.686871e+00
   8.446048e+01  -8.495546e-01
   2.523708e+01   7.372107e+01
  -8.777281e+01   9.894871e+01
  -1.471585e+02   9.016582e+01
  -1.122679e+02  -3.736636e+01
  -2.668595e+01  -1.545803e+02
   7.822284e+01  -1.372317e+02
   9.544755e+01  -7.131212e+01
   7.881099e+01   1.351888e+01
   2.488400e+01   3.165911e+01
   4.533757e+00   1.394670e+01
   1.456337e+01   6.104386e+00
   3.376409e+01   3.910023e+01
   2.301629e+01   8.625679e+01
  -2.886615e+01   6.566321e+01
  -6.830718e+01  -7.719940e+00
  -7.532300e+01  -9.683521e+01
  -1.154493e+01  -1.057714e+02
   7.019202e+01  -3.070159e+01
   9.724347e+01   6.107212e+01
   3.876812e+01   8.704734e+01
  -5.209080e+01   6.190964e+01
  -1.038747e+02   5.317008e+00
  -4.920822e+01  -4.697141e+01
   2.766988e+01  -5.782183e+01
   3.908441e+01  -3.464795e+01
  -2.397675e+01   7.133167e+00
  -5.379732e+01   1.099067e+01
  -1.909566e+01  -2.179909e+01
   5.731458e+01  -6.202263e+01
   9.774344e+01  -5.320039e+01
   6.381318e+01   6.389265e+00
  -7.093743e+00   7.528076e+01
  -4.918786e+01   9.769547e+01
  -3.576454e+01   1.281780e+01
  -1.300745e+01  -4.185132e+01
   1.962920e+01  -4.826978e+01
   3.707291e+01   5.300779e+00
   3.501803e+01   4.765068e+01
  -4.128274e-01   3.514334e+01
  -3.076293e+01  -1.408348e+00
  -3.898805e+01  -1.836495e+01
  -1.884793e+01  -2.631633e+00
   6.208184e+00   1.870029e+01
   5.213744e+00   5.532438e+00
  -7.265437e+00  -2.873852e+01
  -9.225583e-01  -5.020328e+01
   1.840937e+01  -2.385925e+01
   3.825709e+01   2.460950e+01
   2.196724e+01   5.296532e+01
  -3.331628e+01   3.234410e+01
  -5.055099e+01  -1.671885e+01
  -2.339294e+01  -5.276821e+01
   4.910228e+01  -3.574411e+01
   8.235595e+01   8.477037e+00
   4.830740e+01   4.071853e+01
  -1.910788e+01   4.273953e+01
  -5.440588e+01   3.552342e+01
  -2.444445e+01   7.768405e+00
   2.599458e+01  -4.174594e+00
   3.154173e+01   3.409523e+00
  -2.164100e+01   2.336051e+01
  -8.646319e+01   3.066588e+01
