
 $NMID
 id='ANONYMOUS ', fmtdat='(2E16.6)'
 volume=1.0
 tramp=1.0
 $END
   3.371028e+03   2.489852e+02
   1.846928e+03   1.619729e+03
  -2.124630e+02   2.133374e+03
  -1.245534e+03   1.036893e+03
  -8.356572e+02   2.804199e+01
   1.410063e+02  -2.636418e+02
   4.307062e+02   2.348524e+02
   6.478316e+01   5.608013e+02
  -3.447686e+02   5.756174e+02
  -5.064063e+02   1.366507e+02
  -4.642092e+02  -5.468284e+02
   4.983862e+01  -7.397491e+02
   2.924171e+02  -1.722596e+02
   3.196241e+02   3.516811e+02
  -5.368540e+01   4.519630e+02
  -4.709696e+02   9.744166e+01
  -2.704183e+02  -4.802841e+02
   2.141241e+02  -6.310459e+02
   4.595213e+02  -3.062063e+02
   4.420002e+02   1.006137e+02
   1.078009e+02   3.760706e+02
  -1.035982e+02   2.282038e+02
  -1.510086e+02   3.912114e+01
   1.057658e+02   2.931089e+01
   2.834078e+02   2.039106e+02
   8.276606e+01   3.699920e+02
  -4.974458e+02   2.128688e+02
  -6.945778e+02  -1.518341e+02
  -1.742324e+02  -3.012759e+02
   3.149714e+02  -3.276968e+02
   4.769216e+02   1.309635e+01
   2.014842e+02   3.501100e+02
  -1.962790e+02   3.385733e+02
  -4.346273e+02   1.237589e+02
  -3.327028e+02  -1.249790e+02
  -9.495970e+01  -2.540631e+02
   7.436452e+01  -2.081855e+02
  -2.908370e+01   6.458820e+00
  -2.210835e+02   1.830082e+02
  -2.780628e+02  -9.413912e+01
  -5.547618e+01  -5.233137e+02
   1.835462e+02  -3.871228e+02
   3.049468e+02  -2.585407e+01
   1.392526e+02   3.971558e+02
  -1.904180e+02   1.744192e+02
  -2.219982e+02  -3.345453e+02
   3.349950e+01  -4.540488e+02
   4.342343e+02  -3.865504e+01
   4.838692e+02   4.068085e+02
   1.803087e+02   5.275123e+02
  -3.063407e+02   3.336090e+02
  -5.646181e+02  -6.102842e+01
  -2.959708e+02  -2.179036e+02
   7.765734e+01  -2.358159e+02
   2.027345e+02  -6.443787e+01
   1.952398e+02   4.504203e+01
  -2.556240e+01   6.616946e+01
  -6.165049e+01  -1.749884e+01
   1.086452e+02  -5.436899e+01
   2.397178e+02   1.243625e+01
   1.428369e+02   1.904465e+02
  -1.280955e+02   2.395747e+02
  -2.793352e+02   1.545698e+02
  -2.231737e+02  -1.070461e+02
   9.075475e+00  -2.819265e+02
   2.260311e+02  -2.842671e+02
   3.237321e+02  -1.211125e+02
   2.293303e+02   1.556777e+02
   8.997431e+01   3.933476e+02
  -3.378047e+01   2.969890e+02
  -9.133321e-01   1.397139e+02
  -2.436007e+01   7.561729e+01
  -1.028143e+02   8.483048e+01
  -2.175049e+02   8.056164e+01
  -1.985733e+02  -1.221213e+02
  -1.208704e+02  -2.461635e+02
   6.542434e+01  -2.001454e+02
   1.380789e+02   3.539361e+01
   1.443053e+02   2.621977e+02
  -1.564222e+01   2.368403e+02
  -2.419605e+02   8.929377e+01
  -2.374760e+02  -1.513716e+02
  -1.522352e+02  -2.599931e+02
   3.323173e+01  -2.429393e+02
   1.457491e+02  -1.396146e+02
   1.237359e+02  -5.606934e+01
   1.280885e+02  -4.597531e+01
   2.561054e+02  -5.470042e+01
   3.798311e+02   4.778634e+01
   3.028657e+02   2.274587e+02
  -4.772139e+01   3.939907e+02
  -3.562391e+02   4.064041e+02
  -4.570085e+02   1.370064e+02
  -3.229702e+02  -5.469601e+01
  -3.670089e+01  -2.668211e+02
   9.809757e+01  -1.609171e+02
   2.753081e+01  -1.954622e+01
  -1.188000e+02   7.040378e+01
  -1.492834e+02  -6.546993e+01
  -1.154729e+01  -1.446898e+02
   1.364641e+02  -1.199184e+02
   1.262282e+02   3.814864e+01
  -2.168024e+01   1.485818e+02
  -1.544161e+02  -1.438216e+01
  -1.783135e+02  -2.301866e+02
  -1.222035e+01  -3.063075e+02
   2.129103e+02  -1.962659e+02
   3.546977e+02   4.607280e+01
   2.689855e+02   2.366187e+02
   7.734530e+01   2.250623e+02
  -1.166028e+02   1.353358e+02
  -1.641688e+02   2.486581e+01
  -3.950238e+01  -6.625607e+00
   6.267887e+01   5.480906e+01
  -1.224905e+00   1.150231e+02
  -1.209240e+02   9.015386e+01
  -1.533480e+02  -7.320265e+00
  -4.606343e+01  -5.107422e+01
   8.832506e+01  -3.326430e+00
   3.743039e+01   8.735354e+01
  -1.461981e+02   5.729203e+01
  -2.801929e+02   1.195097e+01
  -2.690338e+02  -1.126309e+02
  -4.499474e+01  -2.425470e+02
   1.777321e+02  -2.132253e+02
   2.457245e+02  -9.429189e+01
   1.299626e+02   3.373476e+01
  -3.870233e+01   7.432111e+01
  -5.927032e+01  -1.782084e+00
   4.743500e+01  -8.976833e+01
   1.638915e+02  -3.777513e+01
   1.826287e+02   7.582474e+01
   5.097518e+01   1.806126e+02
  -6.843910e+01   1.349878e+02
  -1.237632e+02   1.945861e+01
  -5.195355e+01  -4.151655e+01
   4.159737e+01   1.839528e+01
   3.716636e+01   9.104420e+01
  -8.090500e+01   1.015837e+02
  -1.766243e+02   5.299204e+01
  -1.612068e+02  -1.278581e+02
  -3.918983e+01  -1.988161e+02
   1.434613e+02  -1.494057e+02
   1.566957e+02   1.430660e+00
   4.533541e+01   7.621770e+01
  -6.825306e+01   9.071330e+01
  -6.428412e+01   2.744295e+01
   5.027235e+00  -2.000234e+01
   3.343070e+01  -1.293361e+01
  -9.093648e+00   2.841336e+01
  -7.906499e+01  -2.127706e+00
  -1.077319e+02  -8.144227e+01
  -3.407580e+01  -1.592058e+02
   1.044948e+02  -1.291968e+02
   2.115508e+02  -9.445625e+00
   1.706442e+02   1.229488e+02
   3.281377e+01   2.137719e+02
  -7.190921e+01   1.431886e+02
  -1.070113e+02   3.493271e+01
  -6.808648e+01  -4.072907e+01
  -3.295545e+01  -2.692411e+01
  -4.935015e+01   2.197904e+01
  -7.411557e+01   1.507839e+01
  -6.603540e+01  -4.876294e+01
   3.701592e+01  -1.027040e+02
   1.047500e+02  -7.014715e+01
   1.084756e+02   3.572134e+01
  -1.154038e+01   1.207327e+02
  -1.501772e+02   9.609332e+01
  -1.638755e+02  -5.426443e+01
  -8.417558e+01  -1.790441e+02
   1.041474e+02  -2.122656e+02
   2.245104e+02  -6.688797e+01
   2.525937e+02   6.888549e+01
   8.756548e+01   1.486860e+02
  -2.827513e+01   1.271967e+02
  -7.704599e+01   7.768764e+01
  -7.477188e+01   7.865236e+01
  -5.700087e+01   9.311112e+01
  -8.062632e+01   8.839526e+01
  -1.172781e+02  -2.265837e+01
  -1.243274e+02  -1.431381e+02
  -3.718703e+01  -2.149377e+02
   9.221580e+01  -1.533976e+02
   1.626559e+02   1.105273e+01
   1.350736e+02   1.072972e+02
   2.362054e+01   1.564757e+02
  -6.005141e+01   9.033149e+01
  -6.340114e+01  -1.254351e+01
   3.836760e+00  -3.966133e+01
   2.002510e+01  -3.771261e+01
  -2.575012e+01  -8.661493e+00
  -6.743004e+01  -1.649819e+01
  -4.121334e+01  -3.191184e+01
   6.615750e+01  -4.409746e+01
   1.580610e+02  -1.272143e+00
   1.365759e+02   6.775819e+01
   8.643128e+00   8.111591e+01
  -1.091817e+02   6.946730e+01
  -1.489571e+02   1.158756e+01
  -4.120705e+01  -4.374666e+01
   4.996533e+01  -3.520417e+01
   6.793239e+01   1.401555e+01
   2.042202e+01   6.381528e+01
  -4.484214e+01   6.346814e+01
  -5.893443e+01   4.856870e-01
  -4.959777e+01  -3.398247e+01
  -4.294112e+01  -3.872826e+01
  -5.056120e+01  -1.540222e+00
  -6.518059e+01  -8.322198e-01
  -3.693892e+01  -7.454263e+01
   2.273210e+01  -1.359191e+02
   8.840659e+01  -1.320606e+02
   1.717086e+02  -1.182733e+01
   1.249859e+02   7.001703e+01
   2.759531e+01   1.068853e+02
  -7.762188e+01   7.326667e+01
  -6.025546e+01  -7.261210e+00
   4.835455e+01  -1.771265e+01
   1.070568e+02   3.332472e+01
   6.588577e+01   9.486621e+01
  -6.518257e+01   1.066788e+02
  -1.726231e+02   4.035021e+01
  -1.459245e+02  -3.617874e+01
  -3.520601e+01  -8.422952e+01
   6.445247e+01  -6.575521e+01
   4.057389e+01  -2.364046e+00
  -3.051158e+01   2.936520e+01
  -9.236790e+01  -1.536479e+01
  -4.253687e+01  -1.163468e+02
   4.578756e+01  -1.323647e+02
   1.605337e+02  -9.282027e+01
   1.172046e+02   1.006766e+02
   3.068939e+01   1.551224e+02
  -6.923050e+01   1.342310e+02
  -9.412654e+01  -1.956660e+00
  -6.015382e+01  -9.185674e+01
   5.057272e+00  -1.019122e+02
   4.640524e+01  -6.886490e+00
   5.042190e+01   3.079603e+01
   1.780714e+01   5.023697e+00
   3.437211e+00  -1.807408e+01
   2.665629e+01   1.858022e+01
   5.496938e+01   7.944363e+01
   4.251465e+01   9.082259e+01
  -4.723624e+01   4.454462e+01
  -1.305446e+02  -4.408753e+01
  -1.248137e+02  -7.189954e+01
  -1.471444e+01  -4.646091e+01
   8.016463e+01  -2.554733e+01
   8.247665e+01  -5.510823e+00
   1.833126e+01   9.596858e+00
  -3.114307e+01   2.272138e+01
  -1.824269e+01   1.386524e+01
   1.133349e+01  -4.274014e+00
  -3.809115e+00  -5.993331e+00
  -6.617907e+01  -2.244521e+00
  -8.311604e+01  -1.046126e+01
  -1.882553e+01  -7.274548e+01
   8.915750e+01  -1.024747e+02
   1.734551e+02  -7.562898e+01
   1.333616e+02   3.710657e+01
   5.050494e+01   1.621994e+02
  -7.874116e+01   1.457257e+02
  -9.657617e+01   7.305209e+01
  -7.482667e+01  -1.929410e+01
  -2.431246e+01  -3.158712e+01
  -2.026425e+00  -1.139523e+01
  -1.174573e+01  -7.837112e+00
  -3.054528e+01  -4.628436e+01
  -2.427657e+01  -8.492744e+01
   2.380848e+01  -6.696573e+01
   6.922055e+01   1.102517e+01
   8.940267e+01   8.939369e+01
   1.625350e+01   9.989476e+01
  -7.209185e+01   3.396774e+01
  -8.722490e+01  -5.344995e+01
  -3.105153e+01  -9.100645e+01
   5.965886e+01  -5.651778e+01
   1.005572e+02   5.594189e+00
   4.470713e+01   5.127649e+01
  -2.336933e+01   5.212163e+01
  -3.654508e+01   2.954570e+01
   2.739186e+01  -3.580512e+00
   5.756588e+01  -1.234829e+01
   2.197902e+01   2.090551e+01
  -6.305606e+01   5.229283e+01
  -1.078587e+02   4.739908e+01
  -6.279231e+01  -1.137111e+01
   5.069684e+00  -7.325765e+01
   5.278034e+01  -8.040486e+01
   3.551499e+01  -1.448919e+01
   1.031267e+01   5.020412e+01
  -2.003591e+01   4.708356e+01
  -3.360959e+01  -6.564221e+00
  -2.944329e+01  -4.431547e+01
  -2.311696e+00  -3.625164e+01
   3.490801e+01   4.949242e+00
   3.670531e+01   1.992040e+01
   1.815225e+01   3.614139e+00
  -5.891012e+00  -1.759236e+01
  -7.644266e+00  -1.314720e+00
   3.430640e+00   2.443473e+01
  -2.101043e+00   4.671142e+01
  -2.833170e+01   1.604917e+01
  -4.055821e+01  -2.965563e+01
  -1.965412e+01  -5.506240e+01
   3.749005e+01  -2.805108e+01
   5.611899e+01   2.639587e+01
   1.618350e+01   5.506784e+01
  -4.765666e+01   4.335649e+01
  -8.812450e+01   2.323356e+00
  -5.341878e+01  -4.015832e+01
   2.455931e+01  -4.289283e+01
   5.802337e+01  -2.606220e+01
   2.495316e+01  -1.197204e+01
  -3.230325e+01   4.062168e+00
  -2.687535e+01  -5.608564e+00
   1.771612e+01  -2.795712e+01
   7.390941e+01  -2.791712e+01
