
 $NMID
 id='ANONYMOUS ', fmtdat='(2E16.6)'
 volume=1.0
 tramp=1.0
 $END
   1.718122e+03   3.596256e+02
   8.201791e+02   1.018562e+03
   1.356038e+02   9.680113e+02
  -4.941348e+02   1.161980e+03
  -6.081224e+02   7.164279e+01
  -1.944507e+02   5.718564e+01
   2.146706e+02   6.698451e+01
   1.138389e+02   3.027879e+02
  -2.117463e+02   4.551462e+02
  -4.115693e+02   1.954738e+02
  -1.940500e+02  -3.792165e+02
  -1.126378e+02  -3.622322e+02
   1.522645e+02  -1.971347e+02
   1.039198e+02   2.396856e+02
  -7.126401e+01   2.988972e+02
  -2.502226e+02   2.542220e+01
  -1.967871e+02  -2.802291e+02
   7.630332e+01  -2.691926e+02
   3.175185e+02  -2.174530e+02
   3.262015e+02   1.220299e+02
   7.680486e+01   2.163564e+02
  -3.808137e+01   1.520945e+02
  -9.288859e-01   2.989343e+01
   9.987119e+01   8.741465e+01
   1.973745e+02   1.688716e+02
   1.179774e+01   2.692530e+02
  -2.890170e+02   7.302885e+01
  -2.677463e+02  -8.274844e+01
  -1.795385e+02  -1.888676e+02
   1.851952e+02  -4.266303e+01
   2.603814e+02   7.217249e+01
   1.086042e+02   1.800484e+02
  -1.506098e+02   2.023465e+02
  -1.952093e+02   1.171037e+02
  -1.464971e+02  -1.093991e+02
  -6.665468e+01  -1.251182e+02
   1.427303e+01  -7.303020e+01
   1.813353e+01   3.046155e+01
  -1.147562e+02   1.443065e+02
  -8.308334e+01  -8.553179e+01
  -4.289621e+01  -2.528398e+02
   7.397316e+01  -2.284025e+02
   1.574061e+02  -1.746778e+01
   1.234509e+02   1.183080e+02
  -5.853144e+01   4.946360e+01
  -7.562846e+01  -1.387001e+02
   8.540153e+01  -2.119537e+02
   2.138774e+02   1.547237e+01
   2.668347e+02   2.741852e+02
   8.239046e+01   2.282015e+02
  -1.723950e+02   1.549656e+02
  -2.611047e+02  -9.612471e+01
  -1.530398e+02  -1.188266e+02
   1.599252e+00  -1.564241e+02
   1.557615e+02  -1.217168e+02
   1.477936e+02  -1.139933e+01
   9.640260e+00  -4.304272e+01
  -3.517338e+01  -4.147610e+01
   3.178401e+01  -4.179367e+01
   1.056689e+02  -2.348315e+01
   9.915054e+01   9.142303e+01
  -8.262384e+01   1.501524e+02
  -2.132325e+02   1.207340e+02
  -1.573508e+02  -3.993155e+01
  -7.173693e+00  -1.984901e+02
   1.604803e+02  -2.439464e+02
   2.699230e+02  -1.219594e+02
   1.226719e+02   1.378612e+02
   3.417107e+01   1.941344e+02
  -1.873962e+01   1.785648e+02
   2.691224e+00   8.433871e+01
  -3.269332e+01   7.286027e+01
  -1.308420e+02   6.765564e+01
  -1.677720e+02   3.698054e+01
  -1.423626e+02  -6.444405e+01
  -3.841076e+01  -1.623353e+02
   8.005183e+01  -1.060330e+02
   1.346052e+02   9.079624e+00
   9.160474e+01   1.250929e+02
  -1.061837e+01   1.640539e+02
  -1.504468e+02   1.581096e+01
  -1.899921e+02  -7.748384e+01
  -6.621714e+01  -2.068749e+02
   2.253280e+01  -1.466154e+02
   9.207166e+01  -1.033713e+02
   8.356077e+01  -5.051660e+01
   8.153072e+01  -5.926114e+01
   1.966730e+02   2.060808e+01
   2.240077e+02   5.297927e+01
   2.057737e+02   1.615874e+02
  -7.585470e-01   2.335413e+02
  -2.242303e+02   1.987480e+02
  -2.961909e+02   1.108037e+02
  -1.636412e+02  -4.662782e+01
  -1.502748e+01  -1.280225e+02
   2.877737e+01  -1.209069e+02
  -6.297387e+00  -1.007124e+01
  -7.468054e+01   2.688183e+01
  -8.961482e+01  -2.508381e+01
   1.003589e+01  -8.973795e+01
   6.849752e+01  -5.966876e+01
   5.018966e+01   4.281755e+01
  -2.644599e+01   6.646185e+01
  -9.040346e+01   2.024263e+01
  -6.047916e+01  -1.388981e+02
  -2.962406e+01  -2.126061e+02
   1.215899e+02  -1.363826e+02
   2.016641e+02   3.701950e+01
   1.758993e+02   1.607621e+02
   4.407696e+01   1.735869e+02
  -1.069216e+02   7.645907e+01
  -7.991441e+01  -7.719302e+00
  -2.123754e+01   2.132792e+00
   3.048004e+01   3.887738e+01
  -1.078488e+01   7.022875e+01
  -8.711880e+01   2.673442e+01
  -8.389391e+01  -1.395365e+01
  -2.060561e+01  -2.177190e+01
   4.995532e+01   2.026533e+01
   1.951415e+01   6.788563e+01
  -7.379016e+01   7.366102e+01
  -1.820552e+02  -8.952605e+00
  -1.683978e+02  -1.458380e+02
  -2.302584e+01  -1.496640e+02
   9.043465e+01  -1.333547e+02
   1.421723e+02  -7.212148e+01
   7.295768e+01   2.715073e+01
  -1.472470e+01   4.380591e+01
  -3.318406e+01  -1.061740e+01
   4.804313e+01  -3.759811e+01
   9.823437e+01  -2.060342e+01
   1.030303e+02   5.705661e+01
   2.249029e+01   8.768398e+01
  -5.714113e+01   8.219928e+01
  -6.339503e+01   1.824695e+01
  -2.528804e+01  -2.977575e+01
   3.704295e+01   8.470601e+00
   9.589967e+00   7.354241e+01
  -5.132699e+01   7.374575e+01
  -1.387132e+02   4.176192e+01
  -1.077002e+02  -4.976708e+01
  -1.906357e+01  -1.185424e+02
   7.882039e+01  -9.177038e+01
   1.056979e+02  -1.018504e+00
   4.275544e+01   4.509842e+01
  -3.937300e+01   5.006168e+01
  -3.830464e+01   7.921348e+00
   4.717597e-01  -1.206412e+01
   2.424836e+01  -1.043086e+01
  -8.024832e+00   1.826476e+01
  -5.901017e+01   2.099394e+00
  -7.495643e+01  -7.225157e+01
  -5.386801e+00  -1.019366e+02
   7.409683e+01  -1.028160e+02
   1.484219e+02  -3.947369e+01
   1.415933e+02   9.961561e+01
   3.757458e+01   1.267185e+02
  -7.434701e+01   9.905433e+01
  -7.534859e+01   2.978390e+01
  -5.663552e+01  -2.271671e+01
  -2.481950e+01  -1.113388e+01
  -3.317701e+01   7.145315e+00
  -5.988950e+01   7.701358e+00
  -2.984798e+01  -4.320256e+01
   1.205836e+01  -6.619977e+01
   7.176644e+01  -4.568188e+01
   6.109735e+01   1.248772e+01
  -8.500922e+00   8.132085e+01
  -9.909725e+01   4.778672e+01
  -1.426108e+02  -5.031344e+01
  -5.770025e+01  -1.215801e+02
   6.223123e+01  -1.127710e+02
   1.364293e+02  -4.874433e+01
   1.484434e+02   8.280184e+01
   5.384000e+01   1.026644e+02
  -4.778541e+01   7.669089e+01
  -5.703796e+01   5.082377e+01
  -4.059976e+01   4.080662e+01
  -3.521852e+01   5.262323e+01
  -6.244746e+01   4.701171e+01
  -7.853934e+01  -5.981681e+00
  -7.152177e+01  -1.048212e+02
   4.035117e-01  -1.348886e+02
   6.171051e+01  -9.061091e+01
   8.451172e+01  -2.879158e+01
   7.650190e+01   7.990401e+01
  -6.464211e+00   9.732947e+01
  -5.450088e+01   4.940378e+01
  -4.668167e+01  -2.455620e+00
  -1.691753e-01  -3.865100e+01
   1.214751e+01  -2.499838e+01
  -1.423305e+01  -4.828288e+00
  -4.707984e+01   6.191112e-01
  -3.522997e+01  -2.028194e+01
   3.684198e+01  -2.298944e+01
   1.039012e+02   2.225940e+01
   8.378824e+01   5.325696e+01
  -1.186104e+01   6.829633e+01
  -5.830314e+01   5.804522e+01
  -8.751633e+01   2.304231e+00
  -3.329516e+01  -2.594841e+01
   2.602616e+01  -2.948188e+01
   5.183111e+01   1.212180e-01
   1.724445e+01   4.522700e+01
  -2.156120e+01   3.347530e+01
  -4.096709e+01   4.542388e+00
  -4.214618e+01  -2.549549e+01
  -3.563932e+01  -2.200245e+01
  -3.113210e+01   3.906224e+00
  -4.279059e+01  -3.253096e+00
  -3.077553e+01  -3.798970e+01
   1.465675e+01  -8.888062e+01
   6.621665e+01  -1.114752e+02
   1.071153e+02  -2.746084e+01
   8.940192e+01   5.917122e+01
   2.925138e+00   8.282131e+01
  -6.087240e+01   3.832468e+01
  -3.759199e+01  -6.118903e+00
   3.191596e+01  -1.968770e+01
   7.731349e+01   2.578349e+01
   4.497002e+01   6.489941e+01
  -4.071453e+01   7.081508e+01
  -1.064373e+02   3.056766e+01
  -1.021281e+02  -1.541402e+01
  -4.184862e+00  -4.900081e+01
   3.610975e+01  -3.528572e+01
   3.276611e+01  -2.853209e+00
  -2.225390e+01   2.310018e+01
  -5.779465e+01  -1.425931e+01
  -2.730304e+01  -7.708655e+01
   3.639150e+01  -1.001268e+02
   9.485245e+01  -5.030458e+01
   6.841638e+01   4.102664e+01
   1.178138e+01   1.216725e+02
  -4.203465e+01   6.781105e+01
  -6.640475e+01   4.467014e+00
  -4.160714e+01  -6.733872e+01
   5.594767e+00  -5.574848e+01
   3.082445e+01  -9.614410e+00
   2.456764e+01   2.347058e+01
   9.625008e+00   4.309912e+00
   5.193426e+00  -1.076306e+01
   2.467355e+01   6.115766e+00
   3.553665e+01   5.891126e+01
   1.550544e+01   6.531904e+01
  -2.972516e+01   2.752973e+01
  -7.222246e+01  -2.235651e+01
  -6.088150e+01  -2.946604e+01
  -1.720886e+01  -3.744441e+01
   4.195932e+01  -1.557304e+01
   5.027042e+01  -2.363311e+00
   1.267293e+01   7.346275e+00
  -2.028214e+01   1.236952e+01
  -1.233274e+01   5.232740e+00
   8.464763e+00  -3.922195e+00
  -5.055740e-01  -2.767600e+00
  -3.056121e+01  -7.345218e-02
  -5.854354e+01  -1.008769e+01
  -1.749846e+01  -4.884531e+01
   3.304142e+01  -8.260523e+01
   1.127130e+02  -6.334490e+01
   1.070861e+02   2.237983e+01
   1.976453e+01   8.140583e+01
  -3.383428e+01   1.010474e+02
  -6.517395e+01   4.749947e+01
  -4.195337e+01  -7.621517e+00
  -1.886779e+01  -2.245552e+01
  -3.784017e-01  -8.142402e+00
  -9.775798e+00  -4.662448e+00
  -9.199629e+00  -3.363217e+01
  -1.957022e+01  -5.760063e+01
   1.456888e+01  -3.986963e+01
   4.634805e+01   3.527011e+00
   5.216764e+01   6.167491e+01
   3.889349e+00   5.434389e+01
  -3.523611e+01   1.584648e+01
  -6.970443e+01  -2.098922e+01
  -2.826250e+01  -5.163623e+01
   3.022024e+01  -4.321092e+01
   6.678101e+01   6.111637e-01
   2.762621e+01   3.390294e+01
  -2.057701e+01   4.316405e+01
  -2.349500e+01   1.861481e+01
   1.399628e+01  -4.062848e+00
   3.736887e+01  -1.227159e+01
   1.277678e+01   1.442501e+01
  -4.047791e+01   4.346482e+01
  -7.316649e+01   4.520577e+01
  -4.746767e+01  -8.663125e+00
   3.518767e+00  -5.969078e+01
   3.825808e+01  -5.017787e+01
   3.149619e+01  -4.399671e+00
   3.197077e+00   3.042081e+01
  -1.437863e+01   2.340301e+01
  -2.554058e+01  -1.206992e+00
  -2.696244e+01  -3.380875e+01
   3.696144e-01  -2.017675e+01
   2.193351e+01   4.120715e+00
   2.513042e+01   1.465556e+01
   1.420579e+01   1.027245e+00
  -3.098101e-01  -1.418062e+01
  -7.422102e+00  -8.930268e+00
   1.442434e+00   1.282559e+01
   9.121628e+00   3.178220e+01
  -1.748025e+01   1.483646e+01
  -2.712221e+01  -2.118142e+01
  -6.410400e-01  -3.129430e+01
   1.999362e+01  -2.382734e+01
   3.792132e+01   1.350423e+01
   1.860053e+01   3.523483e+01
  -2.961749e+01   2.188783e+01
  -5.335601e+01   2.755142e+00
  -3.439508e+01  -2.519620e+01
   2.356082e+01  -3.131009e+01
   3.580498e+01  -2.035424e+01
   1.771568e+01  -5.356588e+00
  -1.503180e+01   4.804652e+00
  -1.681544e+01   1.339802e+00
   1.168709e+01  -1.394619e+01
   4.657042e+01  -1.000304e+01
