
 $NMID
 id='ANONYMOUS ', fmtdat='(2E16.6)'
 volume=1.0
 tramp=1.0
 $END
  -3.531813e+03  -3.207059e+02
  -2.131129e+03  -1.919268e+03
   2.383629e+02  -2.316447e+03
   1.413309e+03  -1.294305e+03
   9.996526e+02  -1.544097e+02
  -3.126474e+01   5.497243e+02
  -7.146115e+02   6.840310e+01
  -2.540280e+02  -6.343588e+02
   3.873439e+02  -6.775440e+02
   7.170119e+02  -1.579453e+02
   3.915331e+02   4.956687e+02
  -5.570651e+00   6.853464e+02
  -3.620741e+02   2.359092e+02
  -4.540133e+02  -5.062339e+02
   1.350927e+02  -6.277459e+02
   5.013908e+02  -8.378587e+01
   3.684539e+02   5.796320e+02
  -2.487300e+02   7.074735e+02
  -5.175778e+02   2.009879e+02
  -4.295803e+02  -8.969067e+01
  -1.304811e+02  -3.787140e+02
   2.052112e+02  -3.215079e+02
   1.193008e+02  -8.922217e+01
  -1.760490e+02  -3.613396e+01
  -2.579897e+02  -2.029954e+02
   4.734501e-01  -3.188750e+02
   4.746028e+02  -2.142163e+02
   7.806919e+02   1.627627e+02
   2.440072e+02   3.031265e+02
  -2.992535e+02   2.724415e+02
  -6.106636e+02  -8.600310e+01
  -2.069444e+02  -4.109628e+02
   2.238446e+02  -3.782268e+02
   4.988747e+02  -2.142148e+02
   3.755488e+02   1.562354e+02
   1.379455e+02   3.346734e+02
  -2.910006e+01   2.216296e+02
   2.742774e+01  -1.018318e+02
   1.246545e+02  -1.664597e+02
   2.004786e+02   9.315312e+01
   8.343572e+01   5.509959e+02
  -2.584300e+02   5.396628e+02
  -4.295308e+02   6.467050e+01
  -2.764590e+02  -3.542630e+02
   1.777355e+02  -1.488532e+02
   1.613992e+02   2.590520e+02
  -1.208942e+02   4.160449e+02
  -5.122196e+02   6.116145e+01
  -4.838641e+02  -3.715225e+02
  -1.964640e+02  -5.581477e+02
   2.841879e+02  -3.236078e+02
   6.155229e+02   9.068475e+01
   4.413691e+02   2.900135e+02
   3.826872e+00   2.806094e+02
  -2.704469e+02   1.260308e+02
  -2.935284e+02   4.056285e+00
  -1.151317e+01  -3.918158e+01
   7.277189e+01   3.914248e+01
  -7.995295e+01   1.264776e+02
  -2.681637e+02  -6.213316e+01
  -1.177898e+02  -2.313203e+02
   1.609063e+02  -2.457118e+02
   3.838514e+02  -1.458773e+02
   2.637037e+02   1.209463e+02
  -3.589438e+01   2.775281e+02
  -2.536638e+02   3.712556e+02
  -3.115228e+02   1.689314e+02
  -2.526050e+02  -1.354222e+02
  -4.748839e+01  -4.489203e+02
   7.255065e+01  -3.901066e+02
   2.889556e+01  -1.719301e+02
   1.903044e+01  -7.606614e+01
   1.302148e+02  -1.036072e+02
   2.772976e+02  -5.966439e+01
   2.815533e+02   8.619180e+01
   9.018341e+01   2.516278e+02
  -1.112565e+02   2.175828e+02
  -1.886162e+02  -1.934687e+01
  -1.336503e+02  -2.125756e+02
   2.449868e+01  -2.166055e+02
   2.873682e+02  -6.419562e+01
   2.983892e+02   1.113330e+02
   1.511324e+02   3.218767e+02
  -1.794526e+01   2.621523e+02
  -1.945970e+02   1.734023e+02
  -1.471089e+02   6.504066e+01
  -1.544467e+02   3.427719e+01
  -3.008540e+02   3.472001e+01
  -4.289565e+02  -1.067576e+02
  -3.283255e+02  -2.873371e+02
   1.333410e+01  -4.375886e+02
   3.484832e+02  -4.118893e+02
   4.967855e+02  -1.358143e+02
   3.131318e+02   1.329440e+02
   4.218365e+01   2.814912e+02
  -6.738770e+01   2.107661e+02
  -1.960165e+01   4.947950e+01
   1.016697e+02  -4.544851e+01
   1.281215e+02   5.807880e+00
   2.314477e+01   1.462697e+02
  -9.671122e+01   1.310997e+02
  -1.230631e+02  -7.055376e+01
   1.110515e+01  -1.467238e+02
   1.695711e+02  -3.482438e+01
   1.414485e+02   2.267819e+02
  -2.629630e+01   3.445394e+02
  -2.579113e+02   1.948032e+02
  -3.762819e+02  -1.163255e+02
  -2.733263e+02  -2.887663e+02
  -6.507926e+01  -2.293886e+02
   1.389883e+02  -1.359339e+02
   1.507388e+02  -1.162823e+01
   4.466425e+01   1.105517e+01
  -5.416857e+01  -6.106057e+01
  -5.664910e+00  -1.239570e+02
   1.330283e+02  -6.907306e+01
   1.363155e+02   1.564041e+01
   3.574826e+01   5.729170e+01
  -7.993754e+01  -2.749979e+01
  -2.938311e+01  -9.779857e+01
   1.494398e+02  -8.254277e+01
   3.190251e+02   5.177456e+01
   2.344532e+02   1.876964e+02
   1.786686e+01   2.566724e+02
  -2.119562e+02   2.675079e+02
  -2.577520e+02   1.091093e+02
  -1.393894e+02  -2.930496e+01
   2.544411e+01  -7.803794e+01
   6.785954e+01  -9.349043e-01
  -4.464345e+01   9.086039e+01
  -1.698391e+02   5.741196e+01
  -2.010632e+02  -1.128323e+02
  -5.751185e+01  -1.871249e+02
   8.299989e+01  -1.574096e+02
   1.078331e+02  -4.025528e+01
   3.806544e+01   3.072364e+01
  -3.510841e+01  -2.584421e+01
  -3.085746e+01  -1.088297e+02
   9.810286e+01  -1.147699e+02
   2.018662e+02  -1.059267e+01
   2.045900e+02   1.136337e+02
   1.655653e+01   2.192557e+02
  -1.682905e+02   1.789079e+02
  -1.767869e+02  -1.557570e+01
  -7.118903e+01  -8.876314e+01
   4.872312e+01  -9.422893e+01
   6.890201e+01  -1.756361e+01
   2.426060e+00   2.024098e+01
  -2.652583e+01   1.129514e+01
   6.669890e+00  -2.466812e+01
   9.138276e+01  -1.745959e+00
   1.151754e+02   9.041501e+01
   1.303875e+01   1.938884e+02
  -1.395346e+02   1.627623e+02
  -2.631784e+02   3.464117e+01
  -1.814537e+02  -1.661017e+02
  -7.707213e+01  -2.010483e+02
   1.099790e+02  -1.630390e+02
   1.176899e+02  -3.655253e+01
   9.069217e+01   5.661291e+01
   2.935966e+01   3.721991e+01
   5.241372e+01  -1.262454e+01
   8.772782e+01  -9.780312e+00
   4.977533e+01   6.006355e+01
  -5.497946e+01   9.415073e+01
  -1.324129e+02   6.622181e+01
  -8.945289e+01  -6.814874e+01
   2.106786e+01  -1.230417e+02
   1.668034e+02  -6.893417e+01
   2.098419e+02   6.881402e+01
   1.031438e+02   2.297045e+02
  -1.206022e+02   1.990151e+02
  -2.364319e+02   1.018280e+02
  -2.379041e+02  -1.079718e+02
  -8.320385e+01  -1.655246e+02
   5.420512e+01  -1.384237e+02
   7.974878e+01  -7.350074e+01
   6.969945e+01  -7.056230e+01
   7.002636e+01  -1.022056e+02
   1.038575e+02  -8.149685e+01
   1.326086e+02   7.801768e+00
   1.110594e+02   1.806660e+02
   2.057385e+01   2.578215e+02
  -1.074356e+02   1.937966e+02
  -1.923582e+02   3.249090e+01
  -1.134353e+02  -1.563032e+02
  -6.528469e+00  -1.766692e+02
   8.087372e+01  -7.460409e+01
   6.271522e+01   1.518382e+01
  -5.292893e+00   5.430974e+01
  -3.133733e+01   3.706574e+01
   3.242361e+01   1.336276e+01
   8.394599e+01   1.761562e+01
   5.929136e+01   3.997025e+01
  -6.750351e+01   3.359426e+01
  -1.765925e+02  -1.689157e+01
  -1.430828e+02  -5.144375e+01
  -2.139548e+00  -1.011986e+02
   1.365987e+02  -8.365645e+01
   1.589611e+02  -1.017180e+01
   4.652565e+01   4.691081e+01
  -5.460458e+01   4.240764e+01
  -7.412050e+01  -5.396086e+00
  -2.056264e+01  -7.363786e+01
   5.213415e+01  -6.745984e+01
   6.281423e+01   1.787658e+00
   6.038893e+01   5.697333e+01
   5.030210e+01   4.284068e+01
   4.954768e+01  -6.284306e+00
   7.100093e+01   1.454584e+00
   4.367912e+01   7.315791e+01
  -2.570108e+01   1.582994e+02
  -1.192143e+02   1.487696e+02
  -1.912776e+02   1.401804e+01
  -1.335644e+02  -9.967762e+01
   4.312205e-01  -1.240118e+02
   1.081216e+02  -5.787830e+01
   6.027134e+01   9.700570e+00
  -5.431009e+01   2.608641e+01
  -1.473658e+02  -4.817532e+01
  -7.035412e+01  -1.073116e+02
   8.392320e+01  -1.059275e+02
   1.844329e+02  -7.379364e+01
   1.377709e+02   4.421207e+01
   3.680246e+01   8.880061e+01
  -6.876581e+01   5.656059e+01
  -4.426179e+01  -1.664982e+00
   3.589085e+01  -2.776233e+01
   8.983164e+01   3.038761e+01
   5.310057e+01   1.216751e+02
  -7.420590e+01   1.460651e+02
  -1.680097e+02   6.890658e+01
  -1.312750e+02  -9.957396e+01
  -9.954174e+00  -1.720624e+02
   8.340149e+01  -1.668206e+02
   9.884705e+01   1.631253e+01
   4.906085e+01   1.226268e+02
  -1.543317e+01   1.112636e+02
  -4.960359e+01   1.823485e+01
  -4.392572e+01  -3.800095e+01
  -1.352546e+01  -5.142208e+00
  -5.806155e+00   1.850307e+01
  -3.036680e+01  -2.937505e+01
  -4.857332e+01  -8.423725e+01
  -3.509655e+01  -1.063058e+02
   4.995970e+01  -4.246429e+01
   1.609886e+02   5.885995e+01
   1.265491e+02   8.419634e+01
   2.441686e+01   5.379285e+01
  -9.744501e+01   2.721017e+01
  -8.651637e+01   2.814441e+00
  -1.619672e+01  -9.737008e+00
   3.528478e+01  -2.038006e+01
   1.774843e+01  -1.620415e+01
  -1.496796e+01   5.945742e+00
   2.712205e+00   4.494098e+00
   6.643016e+01   4.226958e+00
   1.057541e+02   2.156117e+01
   3.167824e+01   8.091687e+01
  -1.130876e+02   1.343296e+02
  -2.025098e+02   5.455533e+01
  -1.391456e+02  -5.641738e+01
  -2.950165e+01  -1.553466e+02
   1.016336e+02  -1.587588e+02
   1.280656e+02  -6.784121e+01
   7.624356e+01   2.290091e+01
   2.604239e+01   3.847856e+01
   3.700890e-01   1.385227e+01
   1.477893e+01   7.273145e+00
   2.918018e+01   4.794129e+01
   1.636754e+01   8.778832e+01
  -1.624984e+01   8.194837e+01
  -8.809844e+01  -1.645358e+01
  -8.313895e+01  -1.318596e+02
  -1.394775e+01  -1.153138e+02
   8.142041e+01  -2.848135e+01
   1.161697e+02   5.579069e+01
   4.125785e+01   1.074800e+02
  -6.605377e+01   6.918220e+01
  -9.753906e+01  -1.753700e+01
  -5.320270e+01  -6.042376e+01
   4.023592e+01  -5.983994e+01
   3.823303e+01  -3.472751e+01
  -3.026222e+01   9.565225e+00
  -6.981209e+01   1.028808e+01
  -1.820550e+01  -2.658541e+01
   6.396551e+01  -6.176424e+01
   1.083056e+02  -5.679906e+01
   7.289249e+01   2.446603e+01
  -1.341475e+01   8.665470e+01
  -5.737773e+01   7.755655e+01
  -4.752673e+01   1.201879e+01
  -9.265101e+00  -4.858167e+01
   3.122101e+01  -5.161985e+01
   4.821462e+01   1.314422e+01
   2.998032e+01   5.860493e+01
  -5.972172e+00   4.162788e+01
  -3.487297e+01  -9.216083e+00
  -3.848135e+01  -2.605034e+01
  -2.017884e+01  -4.413710e+00
   4.908637e+00   2.020679e+01
   5.006589e+00   9.223899e+00
  -7.840194e+00  -3.198108e+01
   1.165888e+00  -5.597868e+01
   2.904359e+01  -1.846447e+01
   3.522320e+01   3.966741e+01
   1.386560e+01   5.247525e+01
  -3.867006e+01   3.094114e+01
  -6.384144e+01  -3.077880e+01
  -2.413895e+01  -6.513745e+01
   5.730161e+01  -3.519668e+01
   8.888635e+01   8.429001e+00
   4.685231e+01   3.957390e+01
  -3.043418e+01   4.797574e+01
  -5.389411e+01   3.187430e+01
  -2.894047e+01   3.017305e+00
   3.623882e+01  -1.240667e+00
   3.733472e+01   1.750359e+00
  -2.664356e+01   2.069079e+01
  -8.188686e+01   1.867850e+01
