
 $NMID
 id='ANONYMOUS ', fmtdat='(2E16.6)'
 volume=1.0
 tramp=1.0
 $END
   3.772976e+03  -2.916491e+02
   2.300613e+03   1.973798e+03
  -1.043517e+02   2.580384e+03
  -1.744952e+03   1.427974e+03
  -8.887100e+02  -1.222492e+02
   2.289228e+02  -3.813030e+02
   6.616710e+02   1.217064e+02
   2.393861e+02   7.560065e+02
  -6.016359e+02   7.588641e+02
  -7.080824e+02   1.582054e+02
  -4.755534e+02  -6.124342e+02
   5.743763e+01  -8.026334e+02
   3.506468e+02  -2.810958e+02
   4.337135e+02   5.167476e+02
  -8.109345e+01   7.047300e+02
  -5.638943e+02   7.237037e+01
  -3.683435e+02  -5.450182e+02
   2.459584e+02  -6.335111e+02
   4.614957e+02  -2.469070e+02
   4.449314e+02   1.512045e+02
   9.314554e+01   3.875164e+02
  -1.695331e+02   3.240179e+02
  -1.757073e+02   7.812914e+01
   1.878188e+02  -1.340143e+01
   2.685600e+02   1.489556e+02
   2.629094e+01   3.404690e+02
  -4.825588e+02   2.700857e+02
  -7.241511e+02  -1.440921e+02
  -3.151580e+02  -3.256235e+02
   3.032065e+02  -3.024452e+02
   6.470655e+02  -6.137475e+00
   2.078055e+02   3.905400e+02
  -2.276600e+02   4.334041e+02
  -4.799684e+02   2.299907e+02
  -3.675696e+02  -1.617880e+02
  -1.219766e+02  -3.626105e+02
   1.173852e+02  -2.648998e+02
  -2.745645e+01   1.340355e+02
  -8.871183e+01   2.855357e+02
  -2.642635e+02  -8.204088e+01
  -2.527553e+02  -6.365944e+02
   2.691792e+02  -6.358936e+02
   4.222713e+02  -1.058422e+02
   3.168664e+02   4.153426e+02
  -1.785606e+02   2.184742e+02
  -2.358506e+02  -2.413380e+02
   1.015005e+02  -4.546117e+02
   4.606403e+02  -7.324249e+01
   5.840324e+02   3.077256e+02
   2.058269e+02   5.618367e+02
  -3.238710e+02   3.367128e+02
  -5.624740e+02  -1.134068e+02
  -3.810745e+02  -3.531679e+02
   2.471513e+01  -3.336882e+02
   3.120179e+02  -8.742841e+01
   2.546759e+02   2.896080e+01
  -1.809948e+01   7.323715e+01
  -8.275867e+01  -6.052664e+01
   9.245213e+01  -1.470682e+02
   2.699035e+02   3.701523e+01
   1.540985e+02   2.612410e+02
  -1.341781e+02   2.681878e+02
  -3.409216e+02   1.309251e+02
  -2.345394e+02  -1.340497e+02
   3.040836e+01  -2.700742e+02
   2.584639e+02  -3.728974e+02
   3.247221e+02  -1.704819e+02
   2.266853e+02   1.385066e+02
   2.297408e+01   4.654404e+02
  -3.879521e+01   3.861352e+02
  -5.389868e+01   1.426647e+02
  -2.892972e+01   5.046233e+01
  -1.130882e+02   1.067074e+02
  -2.428711e+02   7.962065e+01
  -2.699651e+02  -4.866384e+01
  -1.057587e+02  -2.086668e+02
   1.243827e+02  -2.078880e+02
   1.786502e+02   2.449572e+01
   1.400356e+02   2.068681e+02
  -1.117168e+01   2.425054e+02
  -2.963359e+02   5.826281e+01
  -3.240884e+02  -7.092434e+01
  -1.447707e+02  -2.788979e+02
   8.484819e+00  -3.098335e+02
   2.110797e+02  -1.427118e+02
   1.621484e+02  -4.944930e+01
   1.696779e+02  -2.929933e+01
   2.809602e+02  -5.940467e+01
   4.545662e+02   7.383726e+01
   3.376084e+02   2.588333e+02
  -1.729327e+01   4.151575e+02
  -3.532688e+02   3.685377e+02
  -4.935134e+02   1.096409e+02
  -3.306538e+02  -1.257966e+02
  -2.244340e+01  -2.686718e+02
   6.690135e+01  -2.107937e+02
   2.869408e+01  -4.805459e+01
  -9.488722e+01   5.727687e+01
  -1.552595e+02  -8.635307e+00
  -4.489878e+01  -1.429838e+02
   1.263884e+02  -1.419552e+02
   1.326478e+02   6.056326e+01
  -1.271827e+01   1.581124e+02
  -1.797167e+02   3.183790e+01
  -1.383536e+02  -2.059978e+02
   3.398065e+01  -3.660083e+02
   2.492798e+02  -2.196630e+02
   3.479257e+02   1.035192e+02
   2.964222e+02   2.700955e+02
   8.617270e+01   2.581058e+02
  -1.369707e+02   1.485439e+02
  -1.573143e+02   1.470828e+01
  -4.715926e+01  -1.571288e+01
   5.943459e+01   6.391550e+01
   1.181344e+01   1.341146e+02
  -1.240524e+02   8.505744e+01
  -1.422579e+02  -6.648747e-01
  -4.851285e+01  -5.819963e+01
   8.040456e+01   1.365916e+01
   3.444842e+01   9.195830e+01
  -1.244730e+02   8.794511e+01
  -3.012779e+02  -5.206480e+01
  -2.307524e+02  -1.579222e+02
  -1.245957e+01  -2.751648e+02
   2.112883e+02  -2.456317e+02
   2.495253e+02  -1.471381e+02
   1.564271e+02   1.559536e+01
  -2.255162e+01   9.368318e+01
  -7.873673e+01   5.603571e+00
   3.846714e+01  -9.262715e+01
   1.742770e+02  -7.127332e+01
   2.053942e+02   8.356873e+01
   7.665982e+01   1.870504e+02
  -7.213936e+01   1.564774e+02
  -1.259127e+02   4.060892e+01
  -4.403052e+01  -3.461203e+01
   2.424903e+01   1.750028e+01
   3.038643e+01   1.080123e+02
  -1.029407e+02   1.056841e+02
  -2.022214e+02   1.197876e+01
  -1.980769e+02  -1.163250e+02
  -3.467063e+01  -2.149594e+02
   1.610783e+02  -1.874951e+02
   1.809234e+02  -2.000126e+01
   6.358101e+01   8.247275e+01
  -5.311567e+01   1.053782e+02
  -7.239481e+01   2.401795e+01
  -2.871845e+00  -2.189866e+01
   2.443503e+01  -1.100263e+01
  -9.890094e+00   2.269550e+01
  -9.066055e+01  -5.648532e+00
  -1.101584e+02  -8.783331e+01
  -1.127970e+01  -1.757239e+02
   1.515228e+02  -1.689059e+02
   2.569379e+02  -4.382502e+01
   2.017656e+02   1.774343e+02
   8.073591e+01   2.206403e+02
  -1.193051e+02   1.653338e+02
  -1.211672e+02   4.785372e+01
  -7.964701e+01  -5.566118e+01
  -3.720837e+01  -3.204065e+01
  -5.379444e+01   1.882463e+01
  -9.099760e+01   3.443578e+00
  -4.835804e+01  -4.941686e+01
   4.783505e+01  -9.539640e+01
   1.204304e+02  -6.096143e+01
   9.353769e+01   7.353879e+01
  -1.026043e+01   1.320872e+02
  -1.794167e+02   7.243704e+01
  -2.173596e+02  -2.217716e+01
  -1.126358e+02  -2.176122e+02
   1.105614e+02  -2.065139e+02
   2.063712e+02  -1.009796e+02
   2.575502e+02   9.333166e+01
   8.729171e+01   1.664176e+02
  -4.426294e+01   1.384568e+02
  -8.699819e+01   8.754439e+01
  -6.988269e+01   7.324797e+01
  -6.374416e+01   8.993322e+01
  -9.905642e+01   8.119011e+01
  -1.293177e+02  -8.859333e+00
  -1.174685e+02  -1.649218e+02
  -1.380163e+01  -2.462227e+02
   9.114471e+01  -1.893816e+02
   1.720726e+02  -5.086903e+01
   1.299991e+02   1.334237e+02
   1.326429e+01   1.698267e+02
  -9.045300e+01   8.127371e+01
  -6.289076e+01  -7.344252e+00
   4.353855e+00  -4.923214e+01
   2.332145e+01  -3.329972e+01
  -3.244938e+01  -1.079423e+01
  -8.518129e+01  -2.162171e+01
  -4.987079e+01  -4.022102e+01
   6.146785e+01  -3.885208e+01
   1.621548e+02   6.061097e+00
   1.459329e+02   6.510574e+01
   2.948979e+00   9.493452e+01
  -1.248449e+02   8.884781e+01
  -1.583817e+02   1.496214e+01
  -4.596809e+01  -4.018875e+01
   5.090583e+01  -5.312486e+01
   7.599798e+01   1.481182e+00
   1.784474e+01   8.327714e+01
  -4.920656e+01   6.679632e+01
  -7.234213e+01   6.609586e+00
  -5.022981e+01  -6.074152e+01
  -5.403506e+01  -3.649026e+01
  -5.528976e+01   7.581326e+00
  -7.250384e+01   2.045579e-01
  -4.470233e+01  -7.756392e+01
   2.392119e+01  -1.452150e+02
   1.121743e+02  -1.520078e+02
   1.968400e+02  -1.841782e+01
   1.408926e+02   1.021731e+02
   2.885746e+00   1.256501e+02
  -1.103640e+02   5.840173e+01
  -6.429298e+01  -1.341202e+01
   5.938458e+01  -2.563051e+01
   1.429977e+02   2.459683e+01
   7.022713e+01   1.057852e+02
  -8.341621e+01   1.374899e+02
  -1.910546e+02   6.509136e+01
  -1.334206e+02  -4.583806e+01
  -2.934198e+01  -8.514806e+01
   6.090625e+01  -6.547616e+01
   4.629726e+01   3.867566e+00
  -3.466696e+01   2.774199e+01
  -9.384977e+01  -2.628678e+01
  -3.361437e+01  -1.249186e+02
   5.305775e+01  -1.690307e+02
   1.670409e+02  -8.452128e+01
   1.308571e+02   9.949299e+01
   1.045673e+01   1.802805e+02
  -7.583206e+01   1.574096e+02
  -1.129987e+02  -9.484889e+00
  -5.266527e+01  -1.181859e+02
   1.089025e+01  -1.059196e+02
   4.710450e+01  -1.728975e+01
   4.757380e+01   3.604558e+01
   1.754023e+01   2.124070e+00
   3.861705e+00  -1.865151e+01
   2.618953e+01   2.273253e+01
   5.240825e+01   8.653756e+01
   3.920072e+01   1.079079e+02
  -4.797725e+01   4.315919e+01
  -1.583630e+02  -5.039228e+01
  -1.283329e+02  -7.326269e+01
  -1.925076e+01  -5.346631e+01
   9.904100e+01  -2.374289e+01
   8.149899e+01  -1.076298e+01
   1.495123e+01   9.527698e+00
  -3.272704e+01   2.133203e+01
  -1.702133e+01   1.633554e+01
   1.695468e+01  -4.046243e+00
  -4.022482e+00  -4.296241e+00
  -6.634743e+01   9.698828e-01
  -9.601929e+01  -2.572443e+01
  -1.864781e+01  -6.533335e+01
   1.020621e+02  -1.314733e+02
   2.119987e+02  -5.820862e+01
   1.581579e+02   6.846203e+01
   4.704347e+01   1.596010e+02
  -9.846166e+01   1.591139e+02
  -1.094388e+02   7.429332e+01
  -7.798488e+01  -2.175011e+01
  -2.745483e+01  -3.647973e+01
   2.085310e-01  -9.906183e+00
  -1.497752e+01  -6.033545e+00
  -3.361749e+01  -4.955188e+01
  -1.902000e+01  -8.065364e+01
   1.699891e+01  -7.726333e+01
   8.817593e+01   1.272108e+01
   7.690118e+01   1.321830e+02
   1.228657e+01   1.048936e+02
  -7.774267e+01   3.498944e+01
  -1.121379e+02  -6.551828e+01
  -3.661304e+01  -1.117309e+02
   6.563136e+01  -6.406125e+01
   1.059327e+02   5.179238e+00
   4.756391e+01   5.412005e+01
  -4.442105e+01   5.924904e+01
  -3.688974e+01   3.236147e+01
   3.144314e+01  -2.610173e+00
   7.183093e+01  -1.272244e+01
   1.713235e+01   2.587836e+01
  -7.269262e+01   6.805260e+01
  -1.021900e+02   6.502196e+01
  -7.023728e+01  -2.359651e+01
   1.108869e+01  -8.397019e+01
   6.180907e+01  -8.143232e+01
   4.749256e+01  -1.075003e+01
   8.841415e+00   5.613669e+01
  -3.428982e+01   5.092589e+01
  -3.971763e+01  -9.708635e+00
  -2.937962e+01  -5.947488e+01
   4.424145e+00  -3.756331e+01
   3.146824e+01   9.836180e+00
   4.074629e+01   2.362197e+01
   2.110923e+01   1.470402e+00
  -4.608484e+00  -1.922626e+01
  -7.071624e+00  -6.558119e+00
   6.004230e+00   3.015225e+01
  -6.229443e+00   4.884288e+01
  -3.028199e+01   2.011910e+01
  -4.097289e+01  -3.808484e+01
  -1.297342e+01  -5.610902e+01
   3.791465e+01  -3.051786e+01
   6.179632e+01   3.028331e+01
   2.144734e+01   7.045177e+01
  -5.813254e+01   4.107023e+01
  -9.765710e+01  -7.373587e+00
  -4.530966e+01  -3.679325e+01
   2.901476e+01  -4.843918e+01
   5.890560e+01  -3.511905e+01
   2.670056e+01  -3.832975e+00
  -3.383309e+01   2.642746e+00
  -3.941839e+01  -5.800658e+00
   2.596231e+01  -2.790518e+01
   8.269642e+01  -2.299624e+01
