
 $NMID
 id='ANONYMOUS ', fmtdat='(2E16.6)'
 volume=1.0
 tramp=1.0
 $END
  -2.716320e+03  -1.600274e+02
  -1.541118e+03  -1.813379e+03
   1.734143e+02  -1.565681e+03
   1.046482e+03  -1.114626e+03
   7.320196e+02   1.847737e+02
  -9.734501e+00   2.044802e+02
  -4.644778e+02  -1.532896e+02
  -1.356950e+02  -5.654907e+02
   3.968243e+02  -6.809222e+02
   6.088616e+02  -1.178245e+02
   2.715744e+02   5.318398e+02
   8.595305e+01   5.891112e+02
  -3.119021e+02   2.273924e+02
  -2.026536e+02  -3.430781e+02
   1.506029e+02  -4.835708e+02
   4.083893e+02  -5.303945e+01
   2.131309e+02   3.916616e+02
  -1.980102e+02   4.344913e+02
  -3.736284e+02   1.449723e+02
  -4.075741e+02  -1.923753e+02
  -6.211942e+01  -2.803350e+02
   1.058461e+02  -2.231582e+02
   6.271473e+01  -4.977977e+01
  -1.342829e+02  -6.362320e-01
  -2.933339e+02  -1.456052e+02
  -5.289557e+01  -3.244063e+02
   3.548452e+02  -2.054472e+02
   4.383032e+02   9.629147e+01
   3.286126e+02   2.544582e+02
  -2.868296e+02   2.405605e+02
  -3.938301e+02  -3.009282e+01
  -1.667164e+02  -2.876272e+02
   1.526332e+02  -2.956627e+02
   3.304115e+02  -1.382287e+02
   2.526656e+02   1.064990e+02
   1.220211e+02   2.646908e+02
  -8.571786e+01   1.517537e+02
  -6.606069e+01  -5.837155e+01
   1.909555e+02  -2.144186e+02
   1.671312e+02   5.889621e+01
   8.879632e+01   4.331756e+02
  -1.207473e+02   4.465347e+02
  -2.990833e+02   4.315090e+01
  -1.982741e+02  -2.926128e+02
   1.573181e+02  -1.310770e+02
   1.607023e+02   1.965588e+02
  -1.147391e+02   3.467391e+02
  -3.477798e+02   5.958114e+01
  -4.068460e+02  -2.623441e+02
  -1.098067e+02  -4.080230e+02
   2.024426e+02  -2.582864e+02
   4.225141e+02   1.365688e+02
   2.495141e+02   2.124284e+02
  -1.699369e+01   1.895501e+02
  -2.297616e+02   1.285306e+02
  -2.106002e+02  -5.634141e+01
   4.520303e+01  -9.831561e+00
   9.293434e+01   5.592092e+01
  -8.647516e+01   1.149969e+02
  -1.969533e+02   2.311939e+01
  -1.242444e+02  -1.596443e+02
   1.194439e+02  -2.336519e+02
   2.695609e+02  -1.317125e+02
   1.786079e+02   4.760748e+01
  -5.718667e+00   2.156423e+02
  -1.539809e+02   3.180280e+02
  -3.028377e+02   1.342283e+02
  -1.950332e+02  -1.466546e+02
  -3.633219e+01  -2.864375e+02
   6.015456e+01  -2.939704e+02
   3.955369e+01  -1.004629e+02
   1.979102e+01  -5.271891e+01
   1.139295e+02  -7.068447e+01
   1.861220e+02  -7.112806e+01
   1.964031e+02   4.946230e+01
   7.415274e+01   2.027185e+02
  -7.512380e+01   1.371320e+02
  -1.612939e+02  -7.925704e+00
  -1.108042e+02  -1.963736e+02
  -4.142809e+00  -2.185007e+02
   1.965668e+02  -5.654267e+01
   3.016525e+02   9.668886e+01
   1.164739e+02   2.506926e+02
  -5.066583e+01   1.969505e+02
  -1.408286e+02   1.004552e+02
  -9.014779e+01   3.856699e+01
  -9.139088e+01   3.490494e+01
  -2.258419e+02   2.296289e+01
  -2.609156e+02  -4.956165e+01
  -2.509595e+02  -2.222357e+02
   4.041029e+00  -3.281536e+02
   2.837909e+02  -2.714948e+02
   3.690528e+02  -1.599430e+02
   2.265482e+02   5.030303e+01
   4.371464e+01   1.881286e+02
  -6.296425e+01   1.799696e+02
  -2.356768e+01   1.218712e+01
   7.890811e+01  -4.133150e+01
   1.286520e+02   1.674396e+01
   9.554349e+00   1.264117e+02
  -1.036129e+02   8.839970e+01
  -8.429865e+01  -5.760814e+01
   4.306465e+01  -1.009064e+02
   1.208100e+02  -2.727548e+01
   8.988053e+01   1.796090e+02
   2.078608e+01   2.486678e+02
  -1.744728e+02   1.389002e+02
  -2.543481e+02  -8.312302e+01
  -2.529111e+02  -1.877229e+02
  -4.853572e+01  -2.040952e+02
   1.206166e+02  -1.123473e+02
   1.245614e+02   1.739962e+00
   3.252075e+01   8.229657e+00
  -3.697055e+01  -3.728573e+01
  -1.046501e+00  -7.952931e+01
   1.081445e+02  -5.397665e+01
   1.228811e+02   2.066037e+01
   3.157016e+01   3.331381e+01
  -6.076534e+01  -8.072579e+00
  -2.666322e+01  -7.476377e+01
   1.021654e+02  -8.133033e+01
   2.273468e+02   1.843337e+01
   2.212443e+02   1.542383e+02
   2.678822e+01   1.960020e+02
  -1.256454e+02   1.815851e+02
  -1.950891e+02   9.610922e+01
  -1.261614e+02  -3.341781e+01
   1.463285e+01  -7.084345e+01
   5.113619e+01   3.724195e+00
  -4.613540e+01   6.456844e+01
  -1.239235e+02   3.695621e+01
  -1.384676e+02  -6.363976e+01
  -3.981603e+01  -1.510653e+02
   6.551594e+01  -1.161829e+02
   1.009979e+02  -2.229409e+01
   4.189441e+01   3.676981e+01
  -3.287249e+01  -4.668586e+00
  -1.993911e+01  -8.857945e+01
   6.002431e+01  -9.278887e+01
   1.499901e+02  -3.249338e+01
   1.503369e+02   8.252483e+01
   1.795288e+01   1.576017e+02
  -1.021817e+02   1.218883e+02
  -1.350044e+02   2.524186e+00
  -6.219336e+01  -7.113947e+01
   5.823659e+01  -7.603080e+01
   6.004689e+01  -1.370900e+01
   5.522846e+00   1.808741e+01
  -1.627728e+01   1.764212e+01
   7.091277e+00  -1.366461e+01
   6.428231e+01   4.502282e+00
   8.249762e+01   7.157408e+01
   1.421638e+01   1.380509e+02
  -8.518634e+01   1.309905e+02
  -1.716301e+02   2.670906e+01
  -1.759417e+02  -1.133455e+02
  -5.008708e+01  -1.679498e+02
   8.933183e+01  -1.282423e+02
   9.275246e+01  -3.385094e+01
   6.878102e+01   3.480307e+01
   2.745569e+01   1.878481e+01
   4.268133e+01  -6.672123e+00
   7.719681e+01  -8.388665e+00
   4.187059e+01   5.517378e+01
  -1.160189e+01   7.045026e+01
  -8.012414e+01   5.463235e+01
  -6.848860e+01  -2.509779e+01
   1.709279e+01  -1.058600e+02
   1.255048e+02  -7.505572e+01
   1.622095e+02   2.981407e+01
   7.578473e+01   1.505393e+02
  -6.565054e+01   1.525214e+02
  -1.873963e+02   9.964694e+01
  -1.834687e+02  -1.023771e+02
  -8.185413e+01  -1.286455e+02
   5.140116e+01  -1.053235e+02
   7.224857e+01  -6.798401e+01
   4.955811e+01  -5.468872e+01
   5.074380e+01  -7.077089e+01
   7.466067e+01  -6.121775e+01
   9.310450e+01   3.917036e+00
   9.525343e+01   1.134318e+02
   1.365977e+01   1.742408e+02
  -7.364358e+01   1.341816e+02
  -1.285258e+02   2.815936e+01
  -9.270313e+01  -9.997045e+01
   6.867155e+00  -1.175227e+02
   6.584585e+01  -6.544236e+01
   5.359609e+01   1.535933e+00
  -5.847837e-01   4.549494e+01
  -1.647115e+01   2.798396e+01
   2.185821e+01   9.007019e+00
   6.592617e+01   1.409248e+01
   4.493781e+01   2.508131e+01
  -4.508287e+01   3.227920e+01
  -1.240791e+02  -8.930554e+00
  -1.256160e+02  -5.768536e+01
  -1.960533e+00  -8.174108e+01
   7.335449e+01  -5.719829e+01
   1.025160e+02  -1.486298e+01
   3.919190e+01   3.138572e+01
  -3.748917e+01   3.209483e+01
  -6.595407e+01  -3.135051e+00
  -2.230411e+01  -6.059948e+01
   2.573822e+01  -4.145721e+01
   5.026761e+01  -4.665171e+00
   4.545448e+01   3.848826e+01
   4.354636e+01   2.923764e+01
   4.100711e+01  -5.695510e+00
   5.300865e+01  -3.143701e+00
   3.814717e+01   5.114590e+01
  -1.262525e+01   1.208797e+02
  -7.345275e+01   1.251004e+02
  -1.372967e+02   4.528510e+01
  -1.190599e+02  -6.372406e+01
  -7.252940e+00  -1.170052e+02
   7.855772e+01  -5.278712e+01
   3.947217e+01   8.971841e+00
  -3.778875e+01   2.604241e+01
  -1.027209e+02  -3.196220e+01
  -5.315055e+01  -8.598090e+01
   5.705870e+01  -8.069082e+01
   1.350864e+02  -3.918854e+01
   1.277688e+02   2.577984e+01
   1.406984e+01   6.667200e+01
  -4.497587e+01   5.177774e+01
  -4.032686e+01   5.692391e+00
   3.070108e+01  -2.676917e+01
   7.077574e+01   1.351937e+01
   3.547103e+01   1.037312e+02
  -5.318177e+01   1.228024e+02
  -1.181434e+02   6.149250e+01
  -8.696940e+01  -6.343771e+01
  -2.086336e+01  -1.520547e+02
   5.564672e+01  -1.110815e+02
   8.142650e+01  -4.590215e+00
   4.650575e+01   8.721299e+01
  -2.219866e+00   6.386751e+01
  -3.905303e+01   1.271689e+01
  -3.575635e+01  -2.503423e+01
  -1.673552e+01  -6.115131e+00
  -6.052144e+00   1.497111e+01
  -2.182865e+01  -7.063357e+00
  -4.214223e+01  -7.517615e+01
  -2.761798e+01  -9.138480e+01
   3.098440e+01  -3.051013e+01
   1.082838e+02   3.664417e+01
   9.061906e+01   3.775379e+01
   2.156998e+01   4.522802e+01
  -6.097755e+01   1.835437e+01
  -5.816479e+01   6.969514e+00
  -1.342030e+01  -6.419849e+00
   2.888093e+01  -1.560172e+01
   1.216868e+01  -1.155928e+01
  -1.286478e+01   3.838130e+00
   2.990843e+00   6.405516e+00
   4.792480e+01  -3.609669e+00
   7.359814e+01   1.583366e+01
   2.193397e+01   5.922406e+01
  -6.163532e+01   1.108028e+02
  -1.551445e+02   6.564204e+01
  -1.294909e+02  -3.156764e+01
  -2.623899e+01  -1.112425e+02
   4.490826e+01  -1.177902e+02
   8.141886e+01  -6.140333e+01
   5.485086e+01   1.393740e+01
   2.332200e+01   2.437408e+01
  -9.748047e-01   9.040226e+00
   1.133168e+01   4.854399e+00
   2.006340e+01   4.249184e+01
   1.928890e+01   7.912820e+01
  -1.774262e+01   5.181740e+01
  -6.185200e+01  -2.498043e+00
  -7.205700e+01  -7.746006e+01
  -3.766282e+00  -7.338351e+01
   5.797362e+01  -2.099943e+01
   9.018707e+01   4.330816e+01
   3.099049e+01   6.864350e+01
  -4.598966e+01   5.096483e+01
  -6.937194e+01   2.819734e+00
  -3.258870e+01  -4.437985e+01
   2.300094e+01  -4.956485e+01
   2.352599e+01  -2.476928e+01
  -1.876039e+01   5.675290e+00
  -5.530262e+01   8.753577e+00
  -1.218484e+01  -1.869465e+01
   5.494239e+01  -5.944325e+01
   8.512210e+01  -5.906038e+01
   5.395529e+01   1.106331e+01
  -1.246479e+01   7.577126e+01
  -4.906730e+01   6.860735e+01
  -3.385551e+01   3.687087e+00
  -7.292033e+00  -3.411513e+01
   1.627384e+01  -3.466104e+01
   3.102642e+01   5.844783e+00
   2.898281e+01   3.551685e+01
  -2.753199e+00   2.839032e+01
  -2.436248e+01  -5.690506e+00
  -2.939037e+01  -1.815477e+01
  -1.759467e+01   1.319771e+00
   8.587510e-01   1.479909e+01
   8.507921e+00   4.348749e+00
  -1.048559e-04  -2.413803e+01
  -5.012732e+00  -4.322654e+01
   2.055509e+01  -1.554699e+01
   3.690580e+01   3.260505e+01
   7.212827e-01   4.771478e+01
  -3.068206e+01   2.276090e+01
  -4.469615e+01  -2.110603e+01
  -1.703720e+01  -4.225518e+01
   4.226450e+01  -2.980671e+01
   7.467467e+01   1.386470e+01
   4.086036e+01   3.222562e+01
  -2.779958e+01   3.667373e+01
  -4.296011e+01   2.943903e+01
  -2.164147e+01   4.108556e+00
   2.008429e+01  -1.574456e+00
   2.105916e+01   3.746603e+00
  -1.804000e+01   2.228483e+01
  -7.108962e+01   1.481991e+01
