
 $NMID
 id='ANONYMOUS ', fmtdat='(2E16.6)'
 volume=1.0
 tramp=1.0
 $END
  -1.988230e+03   4.879853e+01
  -1.994325e+03  -1.125325e+03
  -2.207727e+02  -1.135234e+03
   7.488927e+02  -1.071883e+03
   9.128134e+02  -1.779482e+02
   2.168269e+00   1.353472e+02
  -1.674156e+02   6.417859e+01
  -3.063523e+02  -4.142064e+02
   2.323235e+02  -3.821106e+02
   4.328241e+02  -1.378862e+02
   3.327139e+02   3.297426e+02
  -3.148683e+00   4.885403e+02
  -2.199094e+02   2.567915e+02
  -3.222291e+02  -2.912465e+02
  -1.276067e+01  -4.469042e+02
   2.712669e+02  -6.155113e+01
   2.315525e+02   3.780467e+02
  -4.240474e+01   4.993452e+02
  -3.272992e+02   2.721959e+02
  -4.209195e+02  -1.707487e+02
  -8.544268e+01  -2.768885e+02
   9.602427e+01  -1.874545e+02
   8.658582e+00  -5.513756e+01
  -1.665581e+02  -9.898235e+01
  -1.985248e+02  -2.227391e+02
   5.905047e+01  -3.232480e+02
   3.471540e+02  -5.102932e+01
   4.727219e+02   1.559789e+02
   1.775902e+02   1.781420e+02
  -1.997915e+02   1.750690e+02
  -3.095075e+02  -1.241933e+02
  -1.334636e+02  -2.773811e+02
   1.459639e+02  -2.417421e+02
   2.290202e+02  -1.047408e+02
   2.578031e+02   1.175098e+02
   1.423402e+02   1.965320e+02
   4.282903e+01   1.222942e+02
   2.826902e+01  -8.394433e+01
   5.144163e+01  -1.005876e+02
   6.293240e+01   1.769764e+02
  -4.862678e+01   3.011906e+02
  -2.006656e+02   3.123246e+02
  -2.473871e+02   1.617350e+01
  -1.491840e+02  -5.185835e+01
   1.567463e+02  -1.028272e+02
   1.601373e+02   1.550972e+02
  -1.366008e+02   2.865997e+02
  -3.323668e+02   7.062058e+01
  -3.355283e+02  -2.389766e+02
  -1.000046e+02  -3.094275e+02
   2.325692e+02  -2.112288e+02
   3.902013e+02   6.363536e+01
   3.208141e+02   1.852756e+02
   2.114495e+01   1.656149e+02
  -2.271072e+02   1.178283e+02
  -1.972588e+02   1.300435e+01
  -1.724217e+00   1.325697e+00
   5.420110e+01   3.595151e+01
  -1.748525e+01   5.136783e+01
  -1.513467e+02  -3.040178e+01
  -7.705595e+01  -1.152925e+02
   9.359258e+01  -2.312682e+02
   2.937958e+02  -1.254332e+02
   2.377405e+02   7.821978e+01
   1.945427e+01   2.704087e+02
  -2.213613e+02   2.807247e+02
  -2.753130e+02   1.675540e+02
  -1.750769e+02  -1.329947e+02
   4.445164e+00  -2.626196e+02
   2.376792e+01  -2.318409e+02
   2.127929e+01  -1.402404e+02
   3.211564e+01  -1.072903e+02
   1.338083e+02  -8.721470e+01
   2.118277e+02  -1.775279e+01
   1.724378e+02   7.164862e+01
   6.344343e+01   1.791280e+02
  -7.114491e+01   1.483493e+02
  -1.567297e+02  -2.750300e+01
  -7.190842e+01  -2.042818e+02
   3.977324e+01  -2.012943e+02
   2.135150e+02  -1.951731e+01
   2.405680e+02   9.710476e+01
   1.484298e+02   2.299762e+02
  -3.424877e+00   2.106158e+02
  -1.163296e+02   1.138653e+02
  -1.216407e+02   7.919451e+01
  -1.260971e+02   5.985199e+01
  -2.152335e+02   4.492544e+00
  -3.132023e+02  -6.469559e+01
  -2.589860e+02  -1.900462e+02
   3.762511e+01  -3.301159e+02
   3.343332e+02  -2.780984e+02
   3.716026e+02  -1.030233e+02
   1.911019e+02   1.345783e+02
  -2.695677e+01   1.636861e+02
  -2.769098e+01   1.546626e+02
   1.888810e+00   3.088397e+01
   9.713736e+01  -2.236679e+01
   9.144045e+01   4.776741e+01
  -1.950582e+01   9.311086e+01
  -6.784756e+01   6.079609e+01
  -1.023103e+02  -4.190453e+01
   2.426187e+01  -9.728237e+01
   1.027074e+02  -1.128926e+00
   1.090014e+02   1.984214e+02
  -2.903233e+01   2.561546e+02
  -1.930899e+02   1.809996e+02
  -2.464522e+02  -7.668233e+01
  -1.844087e+02  -2.243593e+02
  -4.921456e+01  -2.126828e+02
   1.222441e+02  -1.176778e+02
   1.110570e+02   1.565856e+01
   2.398995e+01   1.306028e+01
  -3.187314e+01  -5.327038e+01
   1.325229e+01  -9.026484e+01
   1.019255e+02  -3.590966e+01
   1.023793e+02   3.494491e+01
   1.899449e+01   4.711444e+01
  -6.811260e+01  -2.292922e+01
  -2.392160e+01  -9.482068e+01
   1.152801e+02  -8.411616e+01
   2.364318e+02   6.164242e+01
   2.069057e+02   1.850588e+02
   2.328901e+01   1.917417e+02
  -1.607372e+02   2.432227e+02
  -1.865006e+02   8.149274e+01
  -9.738253e+01  -1.045588e+01
   1.501795e+01  -4.680371e+01
   5.311927e+01  -2.847091e+00
  -4.269862e+01   5.091891e+01
  -1.129293e+02   4.685611e+01
  -1.326952e+02  -8.225686e+01
  -5.802236e+01  -1.444023e+02
   6.743168e+01  -1.073060e+02
   8.178680e+01  -6.738552e+00
   3.352268e+01   2.243616e+01
  -3.848887e+01  -2.312925e+01
  -2.017248e+01  -1.032607e+02
   7.361871e+01  -1.061006e+02
   1.720409e+02  -6.575266e-01
   1.438232e+02   7.722150e+01
   5.431227e+00   1.822436e+02
  -9.412324e+01   1.135978e+02
  -1.374724e+02   8.008873e+00
  -5.300391e+01  -6.835342e+01
   4.650606e+01  -6.817614e+01
   5.416219e+01  -1.069443e+01
  -1.343046e-01   1.231432e+01
  -3.024077e+01   4.702757e+00
   5.441163e+00  -1.923285e+01
   7.984325e+01   4.273041e+00
   8.524961e+01   8.147134e+01
   2.141405e+00   1.431524e+02
  -1.039004e+02   1.213377e+02
  -1.620000e+02   1.384642e+01
  -1.559257e+02  -1.346278e+02
  -6.444104e+01  -1.864271e+02
   1.037089e+02  -1.198141e+02
   9.395357e+01  -1.707677e+01
   5.454803e+01   2.353255e+01
   2.767821e+01   1.648317e+01
   4.306529e+01  -7.663197e+00
   7.455538e+01  -1.104415e+00
   4.670414e+01   5.848434e+01
  -1.800141e+01   9.077287e+01
  -1.209086e+02   6.517005e+01
  -8.601574e+01  -3.757568e+01
   2.173288e+01  -9.296107e+01
   1.495487e+02  -5.803416e+01
   1.784991e+02   3.503137e+01
   7.191384e+01   1.711978e+02
  -1.135730e+02   1.758258e+02
  -2.086689e+02   9.552100e+01
  -2.002801e+02  -9.137926e+01
  -6.588873e+01  -1.297806e+02
   3.669213e+01  -1.113161e+02
   6.390169e+01  -5.245786e+01
   4.702943e+01  -4.885640e+01
   4.707879e+01  -7.970847e+01
   7.565954e+01  -6.688819e+01
   1.054933e+02   8.764738e+00
   7.120467e+01   1.437185e+02
   1.753373e+00   1.838638e+02
  -5.980278e+01   1.329202e+02
  -1.297154e+02   3.680458e+01
  -7.830875e+01  -1.184285e+02
   8.300113e+00  -1.146973e+02
   7.357992e+01  -6.067548e+01
   5.257806e+01   1.144321e+01
  -2.690227e+00   4.243135e+01
  -2.741545e+01   2.792323e+01
   2.174257e+01   5.525782e+00
   6.884581e+01   8.694383e+00
   4.010988e+01   2.667147e+01
  -5.879667e+01   3.613552e+01
  -1.507538e+02  -1.183116e+00
  -1.244348e+02  -5.457867e+01
   2.338855e+00  -8.206169e+01
   1.154068e+02  -5.698965e+01
   1.137564e+02   9.193648e+00
   3.785482e+01   4.266016e+01
  -4.190989e+01   3.657370e+01
  -5.920278e+01  -9.819710e+00
  -1.514905e+01  -5.696587e+01
   3.361453e+01  -5.092499e+01
   5.523424e+01  -7.858940e+00
   4.889401e+01   4.616840e+01
   4.232102e+01   3.585703e+01
   3.933989e+01   3.164169e-01
   4.753169e+01   1.456891e+00
   3.532892e+01   5.686188e+01
  -2.276353e+01   1.098922e+02
  -1.125512e+02   1.276036e+02
  -1.392788e+02   2.297711e+01
  -1.025839e+02  -7.687742e+01
  -8.523980e+00  -1.145645e+02
   6.614351e+01  -4.658547e+01
   4.281879e+01   9.118788e+00
  -4.185302e+01   2.214309e+01
  -1.100066e+02  -3.571965e+00
  -4.454190e+01  -9.394074e+01
   6.405914e+01  -7.749201e+01
   1.452769e+02  -2.796164e+01
   1.067344e+02   3.430173e+01
   2.224936e+01   5.681785e+01
  -5.491174e+01   4.395473e+01
  -3.908170e+01  -1.986971e+00
   2.983165e+01  -2.854929e+01
   6.423020e+01   2.915023e+01
   3.673557e+01   9.947590e+01
  -8.214887e+01   1.477510e+02
  -1.121940e+02   4.653074e+01
  -9.772670e+01  -5.802359e+01
  -1.684920e+01  -1.640334e+02
   7.122218e+01  -1.064881e+02
   8.864269e+01   9.940396e+00
   4.831333e+01   9.100566e+01
  -1.916671e+01   7.576345e+01
  -3.513871e+01   1.290270e+01
  -3.446173e+01  -2.976770e+01
  -6.715322e+00  -6.432063e+00
  -8.929989e+00   1.271729e+01
  -2.811503e+01  -1.891468e+01
  -5.349156e+01  -7.208877e+01
  -1.859907e+01  -9.030056e+01
   4.731780e+01  -3.245595e+01
   9.680809e+01   2.405341e+01
   8.657399e+01   3.728036e+01
   1.685641e+01   4.019976e+01
  -5.874734e+01   1.632385e+01
  -6.472272e+01   5.680055e+00
  -1.176164e+01  -1.163992e+01
   2.617469e+01  -1.870676e+01
   1.763986e+01  -5.037686e+00
  -1.098068e+01   6.333395e+00
   1.868401e+00   3.536563e+00
   5.084556e+01  -8.508086e-01
   7.778090e+01   1.770332e+01
   2.861505e+01   6.511583e+01
  -6.275448e+01   9.767545e+01
  -1.400433e+02   6.364208e+01
  -1.104114e+02  -4.437048e+01
  -1.586323e+01  -1.203937e+02
   6.234594e+01  -1.099802e+02
   9.603658e+01  -5.908033e+01
   6.908900e+01   1.343025e+01
   1.802815e+01   3.021797e+01
   3.093620e+00   1.120265e+01
   1.085704e+01   5.712481e+00
   2.132012e+01   4.445084e+01
   5.058808e+00   6.999994e+01
  -2.274069e+01   5.288172e+01
  -6.517429e+01  -7.609980e+00
  -5.891880e+01  -6.545289e+01
  -1.778995e+01  -8.568123e+01
   6.008868e+01  -2.815195e+01
   9.417111e+01   2.905177e+01
   2.610983e+01   7.610948e+01
  -4.943448e+01   5.453330e+01
  -7.434420e+01  -8.516454e+00
  -3.498447e+01  -4.611118e+01
   3.025388e+01  -5.092889e+01
   3.056495e+01  -2.231673e+01
  -1.805061e+01   7.998198e+00
  -4.999615e+01   1.224498e+01
  -1.583134e+01  -2.141106e+01
   6.284921e+01  -5.350824e+01
   8.786031e+01  -4.246415e+01
   5.012179e+01   1.610880e+01
  -1.097761e+01   7.614653e+01
  -4.637202e+01   6.619949e+01
  -4.129900e+01   9.986069e+00
  -1.156469e+01  -4.164315e+01
   2.282100e+01  -3.533939e+01
   2.923899e+01   4.948249e+00
   2.242559e+01   4.154293e+01
  -2.193999e-01   2.997219e+01
  -2.498821e+01  -7.001325e+00
  -3.214759e+01  -2.332842e+01
  -1.435328e+01  -3.761212e+00
   2.399504e+00   1.900087e+01
   6.789716e+00   1.139578e+01
  -8.721836e+00  -2.776367e+01
   2.323026e+00  -4.499396e+01
   2.022893e+01  -2.062823e+01
   3.249907e+01   3.222220e+01
   5.213506e+00   4.948004e+01
  -2.566011e+01   2.929698e+01
  -5.541031e+01  -2.413272e+01
  -1.785647e+01  -4.201991e+01
   4.561253e+01  -2.221949e+01
   8.145014e+01   3.054376e+00
   3.103469e+01   2.994473e+01
  -3.171983e+01   3.427893e+01
  -4.024469e+01   2.016481e+01
  -2.641125e+01   3.649752e+00
   2.032298e+01  -2.347609e+00
   2.749957e+01  -1.945242e+00
  -1.917929e+01   1.819604e+01
  -5.690040e+01   1.664717e+01
