
 $NMID
 id='ANONYMOUS ', fmtdat='(2E16.6)'
 volume=1.0
 tramp=1.0
 $END
  -9.565661e+02  -4.984828e+01
  -2.991589e+02  -3.188467e+02
   2.285194e+02  -5.620438e+02
   4.297762e+02  -5.787040e+02
   1.372872e+02   6.455017e-02
   2.487122e+01   9.980968e+01
  -2.477605e+02  -5.507180e+01
   6.536369e+00  -2.150798e+02
   2.121199e+02  -2.680336e+02
   2.757654e+02   5.338650e+00
  -7.288938e+01   1.060207e+02
  -1.056092e+02   2.339282e+02
  -1.452990e+02   6.959347e+01
  -5.600353e+01  -1.564825e+02
   5.296132e+01  -2.183664e+02
   4.300049e+01   2.920195e+01
   4.298761e+01   1.198106e+02
  -8.940619e+01   1.300721e+02
  -1.947620e+02   8.485826e+01
  -1.347350e+02  -1.142944e+02
  -4.365164e+01  -1.368207e+02
   3.422668e+01  -8.341369e+01
   8.109950e+00  -1.902136e+01
  -3.613502e+01  -4.334680e+00
  -1.594679e+02  -1.129840e+02
   6.823319e+01  -1.226412e+02
   1.861007e+02  -5.198612e+01
   2.523849e+02   4.651214e+01
   1.789339e+02   1.215364e+02
  -1.496994e+02  -2.996992e+00
  -3.016568e+02   4.570208e+01
  -6.293681e+01  -1.224571e+02
   8.546336e+01  -9.974750e+01
   1.968268e+02  -8.964858e+01
   1.681748e+02   8.590911e+01
   2.245638e+01   1.292229e+02
  -3.558456e+01   3.747016e+01
  -5.224871e+01  -3.056851e+01
   1.348226e+02  -6.029634e+01
   6.413243e+01   1.313996e+02
   1.673013e+01   1.795463e+02
  -1.332930e+02   2.125686e+02
  -1.162602e+02   7.552289e+01
  -9.762744e+01  -1.751120e+02
   7.823398e+01  -7.212619e+01
   3.555201e+01   1.637070e+02
  -5.693725e+01   1.911190e+02
  -2.213891e+02   4.507204e+01
  -1.577752e+02  -1.720666e+02
  -1.575946e+00  -1.156081e+02
   1.709317e+02  -1.100946e+02
   1.704577e+02  -6.109007e+00
   1.150029e+02   8.513686e+01
  -3.407566e+01   1.139143e+02
  -1.187787e+02   4.685090e+01
  -1.051690e+02  -2.048245e+01
  -1.320063e+01  -1.123110e+00
   1.821497e+01   2.552214e+01
  -3.867707e+01   3.043028e+01
  -1.016709e+02   1.771325e-01
  -3.187930e+01  -7.084826e+01
   5.095256e+01  -1.189510e+02
   1.466686e+02  -7.023076e+01
   1.147347e+02   5.171056e+01
   3.898420e+01   7.969248e+01
  -1.429874e+02   1.288040e+02
  -1.379117e+02   4.796265e+01
  -9.409921e+01  -7.131465e+01
  -1.562310e+01  -1.461215e+02
   1.684465e+01  -1.423261e+02
  -1.176024e+01  -2.196469e+01
  -2.079295e+01  -4.197088e+01
   5.608094e+01  -2.481266e+01
   7.953861e+01  -3.541382e+01
   1.040098e+02   2.317637e+01
   2.465966e+01   1.026097e+02
  -6.243492e+01   4.806185e+01
  -6.303932e+01  -1.019099e+01
  -1.019104e+01  -7.511868e+01
   1.115007e+01  -8.804639e+01
   1.021240e+02  -2.396729e+01
   1.388712e+02   7.646603e+01
   5.578848e+01   9.684421e+01
  -4.100180e+01   1.084524e+02
  -6.553452e+01   4.371566e+01
  -3.442139e+01   4.288824e+01
  -4.273402e+01   2.963340e+01
  -1.044086e+02  -3.768541e+00
  -1.604867e+02  -1.780088e+00
  -1.039372e+02  -1.094341e+02
   5.385987e+01  -1.726528e+02
   8.495600e+01  -1.304713e+02
   2.116735e+02  -4.835703e+01
   9.732879e+01   7.588316e+01
   8.078352e+00   1.248433e+02
  -1.363410e+01   6.423931e+01
  -4.145079e+00   6.022495e+00
   6.349831e+01  -2.791590e+01
   4.797147e+01  -3.218622e+00
  -4.708532e+00   3.872539e+01
  -7.189346e+01   4.563093e+01
  -1.889636e+01  -2.852732e+01
   2.130304e+01  -5.162930e+01
   6.922683e+01  -1.637528e+01
   4.029707e+01   6.921944e+01
   1.427838e+00   1.401574e+02
  -1.033388e+02   1.207928e+02
  -1.264665e+02  -3.335343e+01
  -1.051774e+02  -1.066267e+02
  -9.175473e+00  -1.111868e+02
   5.368851e+01  -4.517269e+01
   7.764580e+01  -4.044588e+00
   2.302639e+01   5.779565e+00
  -1.688679e+01  -2.185921e+01
   1.647967e+01  -4.627631e+01
   6.457749e+01  -1.020788e+01
   4.765951e+01   2.147442e+01
   1.102536e+01   2.280468e+01
  -2.784159e+01  -4.728522e+00
  -6.287981e+00  -3.528258e+01
   4.028093e+01  -3.373846e+01
   1.227677e+02   1.629692e+01
   8.617011e+01   7.680296e+01
  -2.733139e+00   9.827305e+01
  -6.529705e+01   1.000994e+02
  -1.277712e+02   4.905500e+01
  -4.668360e+01  -2.071140e+01
   9.766596e+00  -2.920546e+01
   2.055850e+01   9.095719e+00
  -2.041418e+01   2.290380e+01
  -8.218762e+01   2.949282e+01
  -6.188994e+01  -2.379989e+01
  -2.182930e+01  -6.965069e+01
   4.577429e+01  -6.168787e+01
   4.994330e+01  -2.797591e+00
   8.571246e+00   2.226467e+01
  -2.334540e+01  -1.219458e+01
  -9.829003e+00  -3.921110e+01
   4.869590e+01  -3.158887e+01
   1.024571e+02  -2.195429e+01
   6.868011e+01   4.396507e+01
   5.280157e+00   7.915291e+01
  -5.947599e+01   5.597564e+01
  -2.807536e+01  -5.235805e+00
  -4.041676e+01  -3.548997e+01
   2.995814e+01  -3.040367e+01
   2.403866e+01  -1.636010e+01
   2.170674e+00   7.157030e+00
  -1.507164e+01   8.692848e+00
   5.228856e+00  -1.030402e+01
   3.730817e+01   1.961934e+00
   3.055399e+01   3.647687e+01
   1.069294e+01   6.825884e+01
  -6.399631e+01   7.948386e+01
  -1.106106e+02   1.562498e+01
  -9.583223e+01  -5.711453e+01
  -1.551428e+01  -8.725888e+01
   4.382781e+01  -3.907018e+01
   4.433332e+01  -2.783339e+01
   3.363814e+01   1.607586e+01
   1.316351e+01   1.149146e+01
   1.677054e+01  -1.047784e+00
   3.644020e+01  -1.405690e+00
   1.140150e+01   1.903222e+01
  -1.294569e+01   4.614300e+01
  -4.081051e+01   3.499795e+01
  -3.127331e+01  -1.722761e+01
   1.140006e+01  -4.152093e+01
   7.104115e+01  -3.503920e+01
   8.289529e+01   2.932500e+01
   3.173013e+01   7.351884e+01
  -4.834274e+01   7.962238e+01
  -1.374884e+02   3.045676e+01
  -1.031101e+02  -4.668050e+01
  -3.870923e+01  -7.923310e+01
   2.917821e+01  -4.103483e+01
   2.889933e+01  -2.148494e+01
   2.934066e+01  -2.311191e+01
   3.266248e+01  -2.726164e+01
   4.098012e+01  -1.495739e+01
   4.541659e+01  -6.280815e-01
   3.734125e+01   5.811418e+01
   6.233544e+00   9.126844e+01
  -5.404382e+01   6.867488e+01
  -6.678311e+01   2.701080e+01
  -6.257936e+01  -5.666722e+01
   9.088067e+00  -5.851687e+01
   4.163195e+01  -2.345581e+01
   2.800200e+01   1.992836e+00
  -2.307791e-01   1.676071e+01
  -9.780795e+00   2.067519e+01
   1.118555e+01   4.950182e+00
   2.713718e+01   6.626454e+00
   2.385520e+01   2.011360e+01
  -2.522346e+01   1.578668e+01
  -5.682141e+01  -7.563607e+00
  -2.409989e+01  -4.986192e+01
   8.813101e-01  -3.662004e+01
   4.608225e+01  -4.984231e+01
   6.786381e+01  -1.945898e+00
   2.325298e+01   1.406486e+01
  -1.795192e+01   1.808737e+01
  -3.526704e+01  -2.539769e+00
  -2.238764e+00  -3.592450e+01
   2.759312e+01  -1.909330e+01
   2.597002e+01   1.287529e+00
   2.302090e+01   2.264391e+01
   1.387578e+01   1.738149e+01
   2.028846e+01   2.541319e+00
   2.126619e+01   8.430626e+00
   1.897816e+01   2.651725e+01
  -2.187453e+01   6.004496e+01
  -4.064451e+01   7.300722e+01
  -7.047666e+01   3.588146e+01
  -5.049395e+01  -4.953286e+01
   7.962173e+00  -5.369791e+01
   3.657362e+01  -2.358704e+01
   1.819791e+01   2.261922e+00
  -2.465321e+01   1.092472e+01
  -5.827141e+01  -1.969162e+01
  -3.192098e+01  -3.204576e+01
   1.994199e+01  -5.174282e+01
   6.795740e+01  -4.353818e+01
   5.963654e+01   3.446476e+00
   1.303330e+01   3.228072e+01
  -1.862764e+01   1.559812e+01
  -2.189993e+01   9.136024e-01
   7.276290e+00  -1.990100e+01
   3.604410e+01  -2.849144e-02
  -5.122018e-01   2.793260e+01
  -1.501448e+01   5.274087e+01
  -7.308248e+01   9.328886e+00
  -5.439380e+01  -4.421091e+01
  -5.487072e+00  -6.116761e+01
   2.876321e+01  -5.818133e+01
   4.052341e+01   3.254681e+00
   2.922693e+01   5.026632e+01
  -4.482625e-01   4.157345e+01
  -1.983235e+01   1.649893e+00
  -1.292199e+01  -1.766829e+01
  -2.004383e+00  -5.535294e+00
  -3.676560e+00   5.976056e+00
  -1.065720e+01  -1.182781e+01
  -2.236153e+01  -3.690292e+01
  -1.248284e+01  -4.463965e+01
   2.197404e+01  -1.502690e+01
   5.160653e+01   2.252023e+01
   6.092594e+01   3.149950e+01
   7.804835e+00   2.221513e+01
  -3.285569e+01   1.125535e+01
  -3.088988e+01   3.980273e+00
  -5.302731e+00  -3.455473e+00
   1.293544e+01  -7.270583e+00
   9.307707e+00  -4.222572e+00
  -5.195539e+00   1.233392e+00
   6.662314e-02   2.153652e+00
   1.815483e+01   2.861742e-01
   3.944978e+01   1.097111e+01
   6.213539e+00   2.969042e+01
  -4.596393e+01   6.395929e+01
  -7.785318e+01   1.594014e+01
  -5.810885e+01  -2.376329e+01
  -5.432205e+00  -5.121113e+01
   2.856570e+01  -6.688903e+01
   5.201992e+01  -2.745044e+01
   2.831110e+01   2.811181e+00
   1.240798e+01   1.238665e+01
  -1.261450e-01   3.883471e+00
   4.482392e+00   3.804617e+00
   2.804343e+00   1.989116e+01
   1.037156e+01   3.771568e+01
  -7.264766e+00   2.938783e+01
  -3.304371e+01  -2.225335e+00
  -2.497663e+01  -4.139032e+01
  -5.056678e+00  -3.277858e+01
   2.493616e+01  -6.685347e+00
   5.926562e+01   1.996572e+01
   1.272409e+01   3.422387e+01
  -2.966200e+01   3.172483e+01
  -3.026685e+01  -7.242202e+00
  -1.774717e+01  -2.733436e+01
   1.234249e+01  -2.078192e+01
   1.626953e+01  -9.247374e+00
  -8.268654e+00   9.680832e-01
  -3.098330e+01   7.689137e+00
  -4.968641e+00  -9.656586e+00
   3.244176e+01  -2.525526e+01
   5.156679e+01  -2.380635e+01
   2.609755e+01   1.111891e+01
  -4.582288e+00   3.946729e+01
  -2.576744e+01   2.914661e+01
  -1.496096e+01   6.255587e+00
  -5.015895e+00  -1.946842e+01
   9.106562e+00  -1.805561e+01
   1.805052e+01   2.398415e+00
   1.578714e+01   2.413042e+01
   2.197299e-01   1.371357e+01
  -1.117758e+01  -2.881498e+00
  -1.503683e+01  -7.631232e+00
  -9.577258e+00  -3.565244e-01
   3.374637e+00   6.894246e+00
   2.422089e+00   6.143893e+00
  -5.973893e+00  -1.224379e+01
  -2.034062e+00  -1.718725e+01
   7.790410e+00  -5.560619e+00
   1.410181e+01   1.202160e+01
  -6.264242e+00   1.670785e+01
  -1.464696e+01   8.421306e+00
  -2.709740e+01  -3.861324e+00
  -6.974195e+00  -2.266228e+01
   2.472872e+01  -1.028090e+01
   3.581744e+01   5.180049e+00
   1.965970e+01   1.463560e+01
  -1.288708e+01   1.859492e+01
  -2.999099e+01   1.794988e+01
  -7.569436e+00   6.637168e+00
   9.768345e+00  -1.435643e+00
   1.478223e+01   1.911175e+00
  -6.632942e+00   3.070659e+00
  -2.920252e+01   1.148776e+00
