
 $NMID
 id='ANONYMOUS ', fmtdat='(2E16.6)'
 volume=1.0
 tramp=1.0
 $END
   2.963704e+03  -1.255096e+02
   2.294951e+03   7.671204e+02
   4.695205e+02   1.831961e+03
  -1.141828e+03   1.338130e+03
  -9.557256e+02   5.706291e+02
  -3.308908e+02  -1.646054e+02
   4.006935e+02  -2.429049e+01
   7.423212e+01   4.874045e+02
  -3.559629e+02   5.577894e+02
  -7.013375e+02   2.840647e+02
  -5.098399e+02  -3.918960e+02
  -1.645910e+02  -5.725486e+02
   2.271860e+02  -3.053183e+02
   2.578057e+02   2.829212e+02
  -5.910406e+01   6.169883e+02
  -3.470522e+02   1.674305e+02
  -3.520451e+02  -4.483482e+02
   1.067002e+02  -6.298611e+02
   4.041166e+02  -3.696001e+02
   4.726174e+02   1.694174e+02
   1.657349e+02   3.376749e+02
  -7.121599e+01   2.687821e+02
  -3.407462e+01   9.822616e+01
   1.806253e+02   1.505706e+02
   2.669947e+02   2.123384e+02
  -6.788994e+01   3.343417e+02
  -3.790604e+02   1.298990e+02
  -5.199043e+02  -1.700644e+02
  -1.817221e+02  -3.685836e+02
   2.306770e+02  -1.538855e+02
   3.900749e+02   1.322930e+02
   1.191141e+02   2.836549e+02
  -1.935183e+02   3.182441e+02
  -4.301220e+02   1.879431e+02
  -2.909668e+02  -1.069782e+02
  -1.565194e+02  -2.771755e+02
  -7.612510e+01  -1.351824e+02
  -7.095296e+01   5.147286e+01
  -5.655127e+01   1.009943e+02
  -6.692982e+01  -1.439469e+02
  -2.755626e+00  -3.447321e+02
   1.494066e+02  -3.943330e+02
   2.220552e+02   5.788551e+00
   2.689745e+02   2.399955e+02
  -1.476649e+00   1.095246e+02
  -1.078813e+02  -2.026744e+02
   1.347063e+02  -2.859098e+02
   4.119973e+02  -3.775917e+01
   4.357786e+02   3.779775e+02
   1.678219e+02   4.133547e+02
  -2.619038e+02   2.544273e+02
  -4.254349e+02  -7.161439e+01
  -3.927388e+02  -1.958820e+02
  -5.318836e+01  -1.960461e+02
   2.456376e+02  -1.538610e+02
   2.034802e+02   4.071329e+01
   7.084159e+01   1.425976e+01
  -4.391967e+01  -1.103321e+01
   6.140180e+01  -4.121110e+01
   1.924217e+02   1.731667e+01
   9.594046e+01   1.745223e+02
  -1.491812e+02   2.492420e+02
  -3.805111e+02   1.554621e+02
  -2.742469e+02  -1.213823e+02
   1.437742e+01  -3.221407e+02
   2.669964e+02  -3.254832e+02
   3.455825e+02  -1.068841e+02
   2.096486e+02   1.967402e+02
   2.799864e+01   3.060630e+02
  -4.109240e+01   2.809330e+02
  -1.842543e+01   2.038891e+02
  -3.524789e+01   1.474266e+02
  -1.927424e+02   9.379535e+01
  -2.806516e+02  -2.315305e+01
  -2.391058e+02  -1.002143e+02
  -6.319210e+01  -2.629409e+02
   1.048247e+02  -1.495130e+02
   1.923746e+02   7.794405e+01
   1.354258e+02   2.058940e+02
  -5.739747e+01   2.455267e+02
  -2.199940e+02   2.499937e+01
  -3.112177e+02  -1.366462e+02
  -1.361921e+02  -2.901639e+02
   1.653030e+01  -2.482114e+02
   1.418955e+02  -1.583911e+02
   1.624857e+02  -1.132345e+02
   1.651338e+02  -5.842440e+01
   2.751147e+02   9.783772e-02
   4.118632e+02   9.850056e+01
   3.285081e+02   2.870140e+02
   1.655675e+00   4.399085e+02
  -3.671828e+02   4.398668e+02
  -4.972198e+02   1.369873e+02
  -2.451819e+02  -9.859475e+01
  -2.347309e+01  -2.295417e+02
   7.961300e+01  -2.117066e+02
  -8.628250e+00  -4.552202e+01
  -9.591361e+01   1.842362e+01
  -8.269044e+01  -2.793409e+01
  -1.404131e+01  -1.221344e+02
   9.670567e+01  -9.816272e+01
   6.881778e+01   4.048546e+01
  -1.455127e+01   9.078939e+01
  -1.765918e+02  -7.218938e+00
  -1.668235e+02  -2.047014e+02
   3.122072e+01  -3.540378e+02
   2.277180e+02  -1.832514e+02
   3.255053e+02   5.836529e+01
   2.738615e+02   2.696449e+02
   6.252811e+01   2.398343e+02
  -1.403501e+02   8.535229e+01
  -1.276394e+02   8.895099e+00
  -2.381803e+01  -3.717214e+00
   3.394911e+01   7.116039e+01
  -2.310089e+01   8.430678e+01
  -9.609940e+01   4.114379e+01
  -1.248360e+02  -1.201049e+01
  -2.309214e+01  -4.578586e+01
   7.239302e+01   3.660142e+01
   1.913733e+01   1.087694e+02
  -1.577535e+02   8.310884e+01
  -3.086520e+02  -2.980227e+01
  -2.552910e+02  -1.871903e+02
  -2.014756e+01  -2.531489e+02
   1.990695e+02  -2.274607e+02
   2.442490e+02  -1.074187e+02
   1.335411e+02   4.218731e+01
  -3.112596e+01   7.169702e+01
  -4.041677e+01   2.532126e+00
   5.660265e+01  -7.700875e+01
   1.616550e+02  -5.939433e+01
   1.847929e+02   9.228540e+01
   6.061075e+01   1.761454e+02
  -8.697084e+01   1.211631e+02
  -1.160672e+02   2.868765e+01
  -3.235104e+01  -3.100899e+01
   3.693319e+01   3.477230e+01
   1.928984e+01   1.104539e+02
  -1.074393e+02   1.063234e+02
  -2.037118e+02   2.029739e+01
  -1.591027e+02  -1.377143e+02
  -2.928329e+01  -1.926504e+02
   1.361620e+02  -1.446092e+02
   1.590058e+02   1.634211e+01
   6.203862e+01   8.995031e+01
  -5.251686e+01   8.462083e+01
  -5.974278e+01   2.676040e+01
  -8.839972e-01  -2.302790e+01
   4.025183e+01  -4.979496e+00
  -7.128464e+00   3.075692e+01
  -9.468034e+01  -3.958560e+00
  -1.348420e+02  -1.011100e+02
  -1.343836e+01  -1.760720e+02
   1.147486e+02  -1.508221e+02
   2.517318e+02  -1.085427e+01
   1.941173e+02   1.514208e+02
   8.575079e+01   2.176149e+02
  -1.052811e+02   1.501238e+02
  -1.295155e+02   4.852099e+01
  -7.701119e+01  -4.438391e+01
  -3.439396e+01  -2.603507e+01
  -4.892994e+01   1.153686e+01
  -9.761167e+01   1.068311e+01
  -5.734375e+01  -5.875037e+01
   4.635537e+01  -9.870212e+01
   1.318241e+02  -8.087685e+01
   9.782697e+01   5.732364e+01
  -1.898062e+01   1.142870e+02
  -1.699728e+02   8.440203e+01
  -2.174193e+02  -7.727858e+01
  -7.967247e+01  -2.261649e+02
   1.298562e+02  -1.950670e+02
   2.794619e+02  -1.235568e+02
   1.875268e+02   9.554948e+01
   1.100077e+02   1.727849e+02
  -5.321721e+01   1.171666e+02
  -8.570571e+01   6.559004e+01
  -5.983508e+01   6.733966e+01
  -5.387188e+01   9.080214e+01
  -9.042434e+01   7.786501e+01
  -1.491351e+02  -1.355124e+01
  -1.039347e+02  -1.609997e+02
  -2.363616e+01  -2.156120e+02
   1.132982e+02  -1.536198e+02
   1.629781e+02  -3.254263e+01
   1.123018e+02   1.190396e+02
   1.465780e+01   1.477685e+02
  -7.025588e+01   5.885168e+01
  -5.246826e+01  -1.486127e+01
   1.401804e+01  -6.210612e+01
   3.341414e+01  -3.864396e+01
  -2.584796e+01  -8.032553e+00
  -7.379219e+01  -1.221404e+01
  -5.963441e+01  -3.860510e+01
   7.525332e+01  -3.617211e+01
   1.679896e+02   3.454723e+01
   1.203496e+02   4.736384e+01
  -1.183716e+01   9.331303e+01
  -1.254791e+02   9.010019e+01
  -1.549883e+02   5.354049e+00
  -5.207009e+01  -4.808805e+01
   6.356273e+01  -4.943143e+01
   8.689520e+01   1.034175e+01
   2.615731e+01   8.154101e+01
  -4.051503e+01   6.457346e+01
  -6.633320e+01   3.052706e+00
  -5.773085e+01  -5.605823e+01
  -5.651626e+01  -4.860011e+01
  -5.486269e+01   6.825188e+00
  -6.514803e+01  -4.701851e+00
  -4.193786e+01  -6.994678e+01
   1.532038e+01  -1.521839e+02
   1.377544e+02  -1.710593e+02
   1.894767e+02  -3.017029e+01
   1.214407e+02   9.340754e+01
   3.199829e+00   1.307807e+02
  -9.020279e+01   6.913470e+01
  -5.531477e+01  -1.175203e+01
   5.604770e+01  -2.326821e+01
   1.297763e+02   3.195277e+01
   7.026293e+01   1.081596e+02
  -7.047389e+01   1.039390e+02
  -2.116169e+02   6.762039e+01
  -1.576307e+02  -4.759571e+01
  -2.918700e+01  -7.970350e+01
   6.545457e+01  -3.917912e+01
   4.866548e+01   4.419107e+00
  -4.592710e+01   3.849885e+01
  -8.748914e+01  -2.808214e+01
  -5.097049e+01  -1.116943e+02
   6.245463e+01  -1.611276e+02
   1.311562e+02  -6.456468e+01
   1.231670e+02   1.058548e+02
   2.786627e+01   1.849937e+02
  -5.631296e+01   1.497156e+02
  -9.865487e+01  -1.733416e+01
  -5.227925e+01  -1.098232e+02
   1.274081e+01  -1.058469e+02
   5.155467e+01  -1.150697e+01
   3.453968e+01   2.480933e+01
   1.392562e+01   3.478599e+00
   7.468613e+00  -1.522491e+01
   3.589881e+01   2.627796e+01
   5.842718e+01   8.377924e+01
   3.272754e+01   9.974302e+01
  -6.004574e+01   4.263304e+01
  -1.158192e+02  -4.550449e+01
  -1.091099e+02  -7.368439e+01
  -2.505004e+01  -5.234067e+01
   7.358513e+01  -1.879239e+01
   8.704073e+01  -6.179434e+00
   1.956651e+01   1.065080e+01
  -3.441021e+01   1.681022e+01
  -1.756956e+01   1.037874e+01
   1.387737e+01  -9.432917e+00
  -2.871083e+00  -3.483705e+00
  -6.028814e+01   7.728664e+00
  -1.015270e+02  -1.124881e+01
  -3.535780e+01  -9.244185e+01
   1.031448e+02  -1.280779e+02
   1.672320e+02  -6.621386e+01
   1.525938e+02   5.102475e+01
   3.739159e+01   1.384479e+02
  -7.003465e+01   1.609987e+02
  -1.204575e+02   6.880504e+01
  -7.495857e+01  -1.313389e+01
  -2.684512e+01  -3.998502e+01
  -3.548882e+00  -1.532361e+01
  -1.648016e+01  -1.052127e+01
  -2.293921e+01  -5.107729e+01
  -1.854283e+01  -9.160434e+01
   2.504951e+01  -8.178179e+01
   7.514426e+01   1.861887e+01
   7.374014e+01   1.026426e+02
   1.011069e+01   1.149121e+02
  -6.727174e+01   1.995962e+01
  -1.281796e+02  -6.355468e+01
  -4.258934e+01  -9.927220e+01
   6.148403e+01  -6.169554e+01
   9.626636e+01   8.926134e+00
   4.699633e+01   6.544183e+01
  -3.653643e+01   6.518770e+01
  -4.650871e+01   2.972047e+01
   2.305652e+01  -6.243111e+00
   6.422380e+01  -9.934356e+00
   1.850065e+01   2.834607e+01
  -5.961764e+01   7.693076e+01
  -1.030853e+02   7.047041e+01
  -6.128863e+01  -1.511775e+01
   1.299758e+01  -9.420373e+01
   5.662586e+01  -7.635933e+01
   4.288708e+01  -1.546402e+01
   8.274169e+00   4.780659e+01
  -2.144946e+01   5.191573e+01
  -3.615246e+01  -8.199087e+00
  -3.041295e+01  -5.169298e+01
   3.663963e+00  -4.305209e+01
   3.393975e+01   2.682651e+00
   4.933892e+01   2.293718e+01
   2.036123e+01   4.213813e+00
  -5.414247e+00  -2.096310e+01
  -2.406168e+00  -9.474594e+00
   1.066015e+01   3.243809e+01
   9.361614e+00   6.128339e+01
  -2.090748e+01   2.873454e+01
  -4.242559e+01  -3.047414e+01
  -2.361983e+01  -5.651217e+01
   4.182101e+01  -3.010906e+01
   7.230885e+01   2.404155e+01
   2.519736e+01   5.080624e+01
  -5.258262e+01   4.107929e+01
  -9.383972e+01  -1.735090e+01
  -5.298227e+01  -4.173951e+01
   2.605799e+01  -4.327988e+01
   6.194389e+01  -4.562317e+01
   2.856330e+01  -4.981530e+00
  -2.170411e+01   2.240326e+00
  -3.977388e+01   2.299800e+00
   1.494253e+01  -2.184282e+01
   6.637561e+01  -1.622572e+01
