
 $NMID
 id='ANONYMOUS ', fmtdat='(2E16.6)'
 volume=1.0
 tramp=1.0
 $END
  -3.203215e+03  -2.525711e+02
  -1.988698e+03  -1.043278e+03
  -4.308930e+02  -2.115984e+03
   1.454290e+03  -1.347563e+03
   1.044951e+03  -4.792458e+02
   1.172544e+02   2.954017e+02
  -4.549227e+02  -4.401033e+01
  -4.177563e+01  -6.164090e+02
   3.808950e+02  -5.389247e+02
   6.661557e+02  -2.109688e+02
   4.612567e+02   4.081206e+02
   1.052231e+02   6.298166e+02
  -1.656442e+02   3.218516e+02
  -3.156707e+02  -3.044369e+02
   1.539934e+02  -6.027152e+02
   4.063499e+02  -9.793425e+01
   3.496736e+02   4.036557e+02
  -1.009934e+02   5.697789e+02
  -4.447391e+02   3.691744e+02
  -4.796501e+02  -1.608534e+02
  -1.289748e+02  -3.488648e+02
   8.423362e+01  -2.695301e+02
   7.483526e+01  -8.969582e+01
  -1.774903e+02  -1.298703e+02
  -2.759767e+02  -1.738515e+02
  -1.515089e+00  -3.011375e+02
   4.015527e+02  -1.084938e+02
   5.584945e+02   2.063213e+02
   2.105533e+02   3.516141e+02
  -2.587452e+02   1.647718e+02
  -4.977479e+02  -8.985923e+01
  -1.315051e+02  -3.179530e+02
   2.298275e+02  -3.475861e+02
   3.834672e+02  -1.547337e+02
   3.124350e+02   1.332375e+02
   1.570346e+02   2.979629e+02
   3.546526e+01   1.795631e+02
   8.215119e+01  -6.894789e+01
   7.603907e+01  -1.782822e+02
   1.280486e+02   1.386324e+02
   8.121820e+01   4.025846e+02
  -1.556736e+02   4.472284e+02
  -3.053811e+02   1.363754e+01
  -1.922825e+02  -3.129689e+02
   1.119664e+01  -1.955433e+02
   1.637431e+02   2.534466e+02
  -1.604951e+02   3.236082e+02
  -4.045841e+02  -3.102828e+00
  -5.071867e+02  -3.433003e+02
  -1.542814e+02  -4.460315e+02
   2.657893e+02  -2.893619e+02
   4.420164e+02   6.536744e+01
   4.169865e+02   2.073190e+02
   1.373331e+01   2.937574e+02
  -2.577774e+02   1.328809e+02
  -2.128367e+02  -4.968349e+00
  -3.304058e+01  -2.306005e+01
   4.130388e+01   4.883949e+00
  -7.098348e+01   5.423339e+01
  -1.884617e+02  -2.601962e+01
  -8.075658e+01  -2.045528e+02
   1.748150e+02  -2.622458e+02
   3.550855e+02  -1.311685e+02
   2.408838e+02   1.111550e+02
   1.330859e+01   2.896946e+02
  -2.830438e+02   3.406225e+02
  -3.525847e+02   1.250370e+02
  -2.289445e+02  -1.674806e+02
  -2.444895e+01  -2.971896e+02
   3.717853e+01  -2.874378e+02
   1.495919e-01  -1.470154e+02
   3.675000e+01  -1.159385e+02
   1.622754e+02  -1.095573e+02
   2.555983e+02   9.299089e+00
   2.367094e+02   1.131370e+02
   9.522419e+01   2.003541e+02
  -1.250067e+02   1.411379e+02
  -1.750321e+02  -5.316913e+01
  -1.630576e+02  -2.145371e+02
   3.960115e+01  -2.384210e+02
   2.290822e+02  -3.733974e+01
   3.384598e+02   1.216215e+02
   1.206421e+02   2.741223e+02
  -3.067197e+01   2.732908e+02
  -1.555915e+02   1.601320e+02
  -1.328443e+02   8.031323e+01
  -1.560232e+02   3.842424e+01
  -2.928694e+02   6.833937e+00
  -4.111747e+02  -1.046769e+02
  -2.964620e+02  -3.067783e+02
  -4.640611e+00  -3.930863e+02
   3.476008e+02  -4.085989e+02
   4.803942e+02  -1.154883e+02
   2.397587e+02   1.007393e+02
   2.195328e+01   2.230843e+02
  -9.124148e+01   1.971876e+02
   2.183080e+00   3.669070e+01
   1.073135e+02  -3.995342e+01
   1.262350e+02   2.138290e+01
   3.097817e+00   1.207077e+02
  -9.577672e+01   9.439078e+01
  -1.034331e+02  -6.240590e+01
   1.487615e+01  -1.288426e+02
   1.659098e+02   7.015600e-01
   1.589544e+02   2.038281e+02
  -5.796273e+00   3.212669e+02
  -2.384840e+02   1.895719e+02
  -3.239624e+02  -4.902977e+01
  -2.469995e+02  -2.823009e+02
  -8.805619e+01  -2.577514e+02
   1.368739e+02  -1.235500e+02
   1.315114e+02  -4.187238e+00
   3.044739e+01   8.571795e-01
  -3.396196e+01  -6.445758e+01
   1.452241e+01  -9.603505e+01
   1.061350e+02  -5.676536e+01
   1.191232e+02   6.594115e+00
   3.325177e+01   4.833029e+01
  -7.793492e+01  -2.200114e+01
  -3.320368e+01  -1.070912e+02
   1.374222e+02  -8.793821e+01
   2.839917e+02   3.480768e+01
   2.504151e+02   1.944428e+02
   1.252102e+01   2.281720e+02
  -1.966372e+02   2.079578e+02
  -2.445878e+02   1.357248e+02
  -1.236263e+02  -3.153140e+01
   2.604517e+01  -7.633890e+01
   4.940788e+01  -5.618345e+00
  -5.487915e+01   7.218674e+01
  -1.626337e+02   6.008575e+01
  -1.653848e+02  -8.440040e+01
  -7.360497e+01  -1.776406e+02
   9.126949e+01  -1.192305e+02
   1.272377e+02  -3.602631e+01
   3.957817e+01   3.659671e+01
  -3.150123e+01  -2.467425e+01
  -2.524831e+01  -1.165775e+02
   1.082298e+02  -9.094826e+01
   1.990699e+02  -2.043823e+01
   1.773208e+02   1.234337e+02
   2.382077e+01   1.959184e+02
  -1.642131e+02   1.473249e+02
  -1.657203e+02   5.132821e-01
  -6.279941e+01  -8.622898e+01
   5.745245e+01  -9.501645e+01
   6.176430e+01  -2.476831e+01
   6.148031e-02   2.298148e+01
  -3.676721e+01   8.557417e+00
   3.193135e+00  -2.810705e+01
   9.222043e+01   4.934424e+00
   1.221510e+02   8.818732e+01
   1.788573e+01   1.664213e+02
  -1.253949e+02   1.541814e+02
  -2.350833e+02   8.954657e+00
  -1.989376e+02  -1.551535e+02
  -7.584638e+01  -2.124984e+02
   1.119176e+02  -1.429302e+02
   1.280621e+02  -3.715913e+01
   8.118013e+01   4.596160e+01
   2.950284e+01   2.788349e+01
   4.565897e+01  -9.929784e+00
   9.730510e+01  -1.429540e+01
   5.518394e+01   5.718047e+01
  -3.826173e+01   9.617300e+01
  -1.332366e+02   6.037786e+01
  -9.110613e+01  -5.553878e+01
   1.832417e+01  -1.211099e+02
   1.663964e+02  -7.009751e+01
   1.970552e+02   7.962792e+01
   8.186241e+01   2.080601e+02
  -1.303362e+02   1.990454e+02
  -2.758072e+02   1.096416e+02
  -1.996980e+02  -8.446487e+01
  -9.203494e+01  -1.419989e+02
   4.447990e+01  -1.187011e+02
   8.474748e+01  -8.183441e+01
   6.277593e+01  -6.061157e+01
   5.435974e+01  -8.175058e+01
   9.999101e+01  -5.995856e+01
   1.444384e+02   1.027622e+01
   1.004110e+02   1.443500e+02
   2.901925e+01   2.283843e+02
  -9.685455e+01   1.531311e+02
  -1.582518e+02   1.975280e+01
  -9.516812e+01  -1.184245e+02
  -1.408114e+01  -1.489990e+02
   6.718850e+01  -6.260026e+01
   5.629938e+01   1.624088e+01
  -1.174127e+01   5.447222e+01
  -2.846773e+01   3.211464e+01
   2.475878e+01   5.923196e+00
   7.501443e+01   1.345453e+01
   5.387931e+01   3.896265e+01
  -7.158478e+01   4.045547e+01
  -1.611467e+02  -2.270693e+01
  -1.209621e+02  -4.831208e+01
   1.726602e+00  -8.785986e+01
   1.213560e+02  -9.215731e+01
   1.507529e+02   1.209255e+00
   4.962635e+01   4.868723e+01
  -6.136597e+01   5.012744e+01
  -8.558208e+01  -8.453746e+00
  -1.462763e+01  -8.099280e+01
   4.061444e+01  -6.154078e+01
   6.885932e+01  -4.105100e+00
   5.639303e+01   6.030367e+01
   5.747689e+01   4.193125e+01
   5.775712e+01  -1.277236e+01
   5.956178e+01   2.378508e+00
   4.322415e+01   7.757609e+01
  -2.252989e+01   1.508312e+02
  -1.255061e+02   1.709552e+02
  -1.832691e+02   1.552666e+01
  -1.345985e+02  -1.008146e+02
  -8.922425e+00  -1.343848e+02
   9.159621e+01  -5.878439e+01
   5.204195e+01   1.401315e+01
  -5.912753e+01   1.991392e+01
  -1.279296e+02  -2.629605e+01
  -6.438372e+01  -1.068463e+02
   6.879366e+01  -1.119087e+02
   1.994896e+02  -6.973839e+01
   1.572128e+02   4.151162e+01
   3.096509e+01   7.642083e+01
  -6.340025e+01   4.741131e+01
  -4.415128e+01  -5.681752e+00
   3.678001e+01  -3.571248e+01
   8.586598e+01   2.513382e+01
   4.992697e+01   1.061020e+02
  -5.944028e+01   1.746505e+02
  -1.408298e+02   6.449624e+01
  -1.163893e+02  -9.590309e+01
  -3.457417e+01  -1.865598e+02
   8.053230e+01  -1.464810e+02
   1.060080e+02   1.750520e+01
   4.622157e+01   9.706000e+01
  -1.595384e+01   9.484207e+01
  -4.996745e+01   1.224505e+01
  -3.366753e+01  -3.146318e+01
  -1.419765e+01  -2.300692e+00
  -6.929238e+00   1.453442e+01
  -2.958239e+01  -2.487812e+01
  -5.594446e+01  -8.335329e+01
  -3.817363e+01  -1.005134e+02
   5.441065e+01  -4.008658e+01
   1.214883e+02   5.175055e+01
   1.060221e+02   6.642902e+01
   2.109841e+01   4.817167e+01
  -7.935183e+01   1.350609e+01
  -8.452872e+01  -2.793575e+00
  -1.928267e+01  -6.677141e+00
   3.437503e+01  -1.301532e+01
   1.584493e+01  -1.169234e+01
  -1.316378e+01   6.368145e+00
   2.479274e+00   3.598662e+00
   6.323577e+01  -5.688026e+00
   9.675595e+01   1.194986e+01
   3.601775e+01   8.616026e+01
  -9.524020e+01   1.265158e+02
  -1.713341e+02   5.765719e+01
  -1.459044e+02  -4.133325e+01
  -4.585479e+01  -1.391803e+02
   8.475486e+01  -1.520400e+02
   1.105429e+02  -7.190502e+01
   7.320649e+01   1.257887e+01
   2.291625e+01   3.655150e+01
   5.301337e+00   1.139863e+01
   1.511313e+01   1.070606e+01
   2.876259e+01   4.653948e+01
   2.160683e+01   8.861042e+01
  -2.040245e+01   7.074791e+01
  -7.513129e+01  -2.250207e+01
  -5.347207e+01  -1.090212e+02
  -2.051497e+01  -1.068987e+02
   5.614581e+01  -2.716882e+01
   1.198633e+02   6.683933e+01
   3.543956e+01   1.034785e+02
  -6.462586e+01   5.426826e+01
  -9.104743e+01  -7.922151e+00
  -5.207145e+01  -5.447865e+01
   3.657111e+01  -6.190922e+01
   4.018251e+01  -2.637447e+01
  -2.439901e+01   4.215193e+00
  -6.903673e+01   4.534013e+00
  -1.851379e+01  -2.624987e+01
   6.356129e+01  -7.821480e+01
   1.059423e+02  -6.622646e+01
   6.051217e+01   2.200633e+01
  -1.046589e+01   9.220483e+01
  -6.391687e+01   7.037358e+01
  -4.160392e+01   1.449315e+01
  -5.453770e+00  -5.087535e+01
   2.543910e+01  -4.695917e+01
   3.628270e+01   9.856953e+00
   3.260029e+01   4.934189e+01
  -3.820877e+00   3.717265e+01
  -3.195752e+01  -5.203850e+00
  -4.505341e+01  -1.984281e+01
  -1.885632e+01  -4.117794e+00
   7.009469e+00   2.086983e+01
   3.927053e+00   8.660553e+00
  -8.702739e+00  -3.031669e+01
  -2.410316e+00  -5.616332e+01
   2.651819e+01  -2.655893e+01
   4.200531e+01   2.974071e+01
   2.663066e+01   6.305347e+01
  -4.160336e+01   3.032564e+01
  -6.458399e+01  -2.883464e+01
  -2.202383e+01  -5.199877e+01
   5.287094e+01  -4.098822e+01
   8.893944e+01   1.222519e+01
   5.159086e+01   4.073790e+01
  -2.676561e+01   4.251271e+01
  -6.039548e+01   3.821210e+01
  -2.603171e+01   7.729263e+00
   2.354492e+01  -2.410904e+00
   3.570835e+01   1.671224e+00
  -2.130714e+01   2.410394e+01
  -6.611071e+01   1.142765e+01
