
 $NMID
 id='ANONYMOUS ', fmtdat='(2E16.6)'
 volume=1.0
 tramp=1.0
 $END
  -1.002740e+03  -3.495288e+02
  -5.902092e+02  -7.941019e+02
   1.839523e+01  -5.233314e+02
   4.855686e+02  -5.177549e+02
   1.592388e+02  -1.493635e+02
   2.362859e+01  -1.772408e+02
  -7.443407e+01   7.419456e+01
  -2.029061e+02  -1.821188e+02
   4.707392e+01  -1.957662e+02
   2.265538e+02  -4.512034e+01
   6.704680e+01   3.515660e+01
  -1.046486e+02   2.788949e+02
  -1.491947e+02   3.777775e+01
  -4.977565e+01  -1.485925e+02
   8.655190e+01  -8.740115e+01
   1.045960e+02   3.027463e+01
   1.972023e+01   1.058107e+02
   2.231754e+01   1.463708e+02
  -2.311597e+02   9.838370e+01
  -1.069210e+02  -5.991947e+01
  -5.161162e+01  -8.346986e+01
   5.222157e+00  -6.811720e+01
  -4.040848e+01  -1.554820e+00
  -6.799119e+01  -2.497780e+01
  -1.254860e+02  -1.422559e+02
   8.072281e+01  -1.726906e+02
   2.747966e+02  -1.553521e+01
   2.399278e+02   1.934478e+02
   1.496959e+02   2.041148e+02
  -1.350773e+02  -5.449836e+00
  -2.367030e+02  -1.465328e+01
   2.155241e+00  -1.911962e+02
   1.098600e+02  -1.576920e+02
   1.366697e+02  -1.126682e+02
   1.023994e+02   3.082400e+01
   1.190212e+01   1.635949e+02
  -1.227261e+01   3.487575e+01
  -1.768009e+01  -6.987426e+01
   1.376582e+02  -5.508144e+01
   8.456629e+01   1.934411e+02
  -4.181278e+01   1.545943e+02
  -1.530798e+02   1.379196e+02
  -1.539520e+02   1.794955e+01
  -8.318324e+01  -8.872186e+01
   4.604182e+01   2.407503e+00
  -7.102172e-02   1.692811e+02
  -5.405457e+01   1.165058e+02
  -1.744426e+02  -1.301907e+01
  -1.086355e+02  -2.202175e+02
   3.316304e+00  -1.504678e+02
   1.301952e+02  -5.195610e+01
   2.031819e+02   6.857497e+01
   1.388942e+02   5.733803e+01
  -1.006349e+01   6.512914e+01
  -1.578254e+02   1.774225e+01
  -5.376662e+01   6.984346e+00
  -1.618256e+01   5.144221e+01
   2.840221e+01   1.699029e+01
  -5.367117e+01   3.833339e+01
  -7.210335e+01  -2.307753e+01
  -4.285983e+01  -4.300458e+01
   2.066015e+01  -1.011498e+02
   1.263810e+02  -7.147225e+01
   1.282344e+02   8.457271e-01
   2.523271e+01   1.313843e+02
  -1.397519e+02   1.492641e+02
  -1.212452e+02   6.702328e+01
  -5.345072e+01  -8.273445e+01
   3.085968e+01  -1.065674e+02
   5.354002e+00  -9.743504e+01
  -2.899471e+01  -6.596170e+01
   1.206694e+01  -3.706300e+01
   5.622182e+01  -3.489997e+01
   9.298052e+01  -1.582456e+01
   1.223387e+02   7.190161e+01
   1.780513e+01   1.019453e+02
  -7.811266e+01   6.410289e+01
  -7.805461e+01  -2.282909e+01
  -1.535595e+01  -1.041084e+02
   8.428749e+00  -5.625728e+01
   9.907818e+01   9.184460e+00
   1.121366e+02   6.587617e+01
   2.987031e+01   1.157569e+02
  -5.312552e+00   1.093361e+02
  -3.247925e+01   6.446404e+01
  -4.196321e+01   3.637745e+01
  -6.983306e+01   5.350580e+01
  -8.515193e+01  -1.082726e+01
  -1.519815e+02  -3.974550e+01
  -1.173087e+02  -1.307829e+02
   3.060576e+01  -1.629688e+02
   1.564899e+02  -1.587384e+02
   1.774969e+02  -6.073724e+01
   7.241820e+01   5.829347e+01
  -2.432528e+01   6.652664e+01
  -2.489987e+01   1.043863e+02
   1.373838e+01  -7.502060e+00
   5.434445e+01   1.145542e+01
   3.549696e+01   2.959890e+01
  -2.874467e+01   5.785101e+01
  -4.884976e+01   2.289221e+01
  -1.002869e+01  -2.074388e+01
   4.797400e+01  -3.498045e+01
   7.591044e+01   1.660141e-01
   5.712131e+01   7.115531e+01
   1.895636e-01   1.612708e+02
  -9.415996e+01   1.279508e+02
  -1.233047e+02  -2.905276e+01
  -7.205397e+01  -1.014039e+02
  -2.137653e+01  -1.199866e+02
   5.369349e+01  -2.525099e+01
   4.842214e+01   9.624931e+00
   1.552546e+01   1.942619e+00
  -1.849778e+01  -3.861893e+01
   1.648507e+01  -4.816016e+01
   4.969521e+01  -6.648446e+00
   4.053943e+01   3.100549e+01
   8.671995e+00   1.296302e+01
  -4.194636e+01  -6.618351e+00
  -4.577544e-01  -3.890995e+01
   5.143164e+01  -3.823219e+01
   1.210192e+02   1.518790e+01
   5.612364e+01   6.805790e+01
   2.798051e+00   1.333001e+02
  -7.347563e+01   9.628802e+01
  -1.268975e+02   1.193526e+01
  -3.455820e+01  -2.958511e+01
   2.372188e+01  -2.279882e+01
   1.988581e+01   7.755495e+00
  -2.663384e+01   1.903020e+01
  -8.218006e+01   1.768051e+01
  -7.896860e+01  -4.179556e+01
  -2.743453e+01  -7.814592e+01
   2.301484e+01  -4.167822e+01
   4.940074e+01  -1.064329e+01
   6.771923e+00   1.976614e+01
  -2.753034e+01  -1.489660e+01
  -1.646732e+01  -4.582163e+01
   3.853440e+01  -4.610600e+01
   1.019222e+02   1.184694e+01
   8.840881e+01   5.178109e+01
   1.369183e+01   8.522093e+01
  -5.577485e+01   4.970683e+01
  -5.241813e+01  -1.788130e+00
  -2.994520e+01  -3.859924e+01
   2.871780e+01  -1.908228e+01
   1.810926e+01  -3.822348e+00
  -1.911628e-02   1.476482e+01
  -1.528996e+01  -6.106474e-01
   1.976762e+00  -1.395555e+01
   3.491937e+01  -3.420052e+00
   4.013946e+01   3.935547e+01
   1.379387e+01   6.342261e+01
  -6.593322e+01   8.272547e+01
  -9.535719e+01   7.722464e+00
  -7.801196e+01  -7.414483e+01
  -2.343975e+01  -8.593113e+01
   4.126199e+01  -3.816289e+01
   4.824903e+01  -2.544807e+01
   2.360018e+01   1.870444e+01
   1.211908e+01   1.171128e+01
   2.217692e+01   1.454866e+00
   3.615103e+01  -2.050159e+00
   1.591208e+01   9.260815e+00
   4.851951e+00   5.238318e+01
  -5.253695e+01   3.670275e+01
  -4.270128e+01  -2.702008e+01
   1.068991e+01  -4.869474e+01
   5.524789e+01  -2.941921e+01
   7.849497e+01   4.546371e+00
   3.485050e+01   8.516594e+01
  -6.377560e+01   8.728771e+01
  -1.123255e+02   3.101279e+01
  -6.354212e+01  -3.454478e+01
  -1.420638e+01  -5.461129e+01
   1.912649e+01  -4.212743e+01
   3.519341e+01  -3.169171e+01
   2.711956e+01  -2.421735e+01
   2.518045e+01  -2.501657e+01
   3.485453e+01  -2.609748e+01
   5.292516e+01  -1.098573e+00
   3.887527e+01   5.656952e+01
   1.249884e+01   9.682554e+01
  -4.145323e+01   6.454544e+01
  -7.126790e+01   2.441826e+01
  -4.782519e+01  -5.117104e+01
   2.619717e+01  -6.090294e+01
   4.334050e+01  -1.544942e+01
   2.057536e+01   9.494834e+00
  -5.476144e+00   2.925369e+01
  -1.602242e+01   1.415744e+01
   9.908736e+00   2.374774e+00
   4.098683e+01   6.843436e+00
   2.660248e+01   1.746581e+01
  -2.809440e+01   2.310261e+01
  -5.755132e+01   8.734593e+00
  -5.010470e+01  -2.416295e+01
  -1.392073e+00  -3.026569e+01
   5.781479e+01  -4.493191e+01
   4.382226e+01   3.622455e+00
   2.485754e+01   2.033418e+01
  -2.404157e+01   2.201784e+01
  -3.217110e+01  -5.263934e-01
   3.955388e-01  -3.416963e+01
   8.764360e+00  -2.153862e+01
   2.373197e+01   3.410007e+00
   2.243035e+01   9.934170e+00
   2.120902e+01   2.176580e+01
   2.570454e+01   7.860175e-01
   2.100015e+01   1.284369e+01
   2.119513e+01   3.293612e+01
  -6.644700e+00   4.454689e+01
  -3.660398e+01   6.125662e+01
  -8.005986e+01   2.075542e+01
  -5.643024e+01  -4.013964e+01
   1.891721e+00  -4.672821e+01
   3.500975e+01  -2.471789e+01
   2.401616e+01   4.211218e+00
  -2.186732e+01   1.424063e+01
  -5.449287e+01  -4.328844e+00
  -3.062097e+01  -3.415291e+01
   3.731422e+01  -5.385506e+01
   8.050574e+01  -5.799112e+01
   5.908535e+01   1.508699e+01
   2.184733e+01   3.295938e+01
  -2.418337e+01   1.879870e+01
  -1.959588e+01  -3.725262e-03
   1.712093e+01  -1.914110e+01
   3.451635e+01   3.674841e+00
   1.798109e+01   3.135996e+01
  -3.475184e+01   6.531417e+01
  -5.155302e+01   9.613560e+00
  -3.630650e+01  -4.656963e+01
  -2.460078e+01  -6.620772e+01
   3.315579e+01  -5.329205e+01
   3.795517e+01  -7.260574e-01
   2.626238e+01   5.753504e+01
  -1.938997e+01   3.341387e+01
  -2.084303e+01   4.795084e+00
  -1.171601e+01  -1.617623e+01
  -1.915583e+00  -4.561601e+00
  -4.133784e+00   5.456600e+00
  -1.511076e+01  -8.488141e+00
  -2.069258e+01  -2.613789e+01
  -1.643715e+01  -4.613363e+01
   2.802628e+01  -1.535931e+01
   3.961640e+01   1.940143e+01
   3.602499e+01   3.619824e+01
   8.185786e+00   1.611420e+01
  -2.442904e+01   8.933303e+00
  -3.220794e+01   8.563695e-01
  -8.068757e+00  -4.829311e+00
   1.289297e+01  -5.358486e+00
   8.538106e+00  -5.602800e+00
  -8.711633e+00   5.767666e-01
   1.760849e-01   2.289568e+00
   2.246987e+01  -3.275517e+00
   3.001155e+01   1.111420e+01
   1.459663e+01   2.374276e+01
  -3.356678e+01   5.377296e+01
  -8.812767e+01   4.605146e+01
  -6.900033e+01   1.620142e+00
  -1.291029e+01  -5.607062e+01
   2.376689e+01  -6.742900e+01
   3.907881e+01  -2.000643e+01
   2.924273e+01   2.093521e+00
   1.150384e+01   1.408277e+01
   2.311941e+00   3.196345e+00
   6.035861e+00   3.785695e+00
   2.848261e+00   1.767566e+01
   3.878491e+00   3.342353e+01
  -1.171660e+01   3.009638e+01
  -3.294936e+01  -9.594489e+00
  -2.162801e+01  -2.793676e+01
  -5.424831e+00  -3.777294e+01
   2.409083e+01  -1.268165e+01
   4.569595e+01   2.487527e+01
   1.958251e+01   3.257276e+01
  -2.142490e+01   2.867283e+01
  -3.975752e+01  -7.453948e+00
  -1.671466e+01  -2.527488e+01
   1.293386e+01  -2.411308e+01
   2.073979e+01  -1.219921e+01
  -8.922450e+00   3.685344e+00
  -2.278075e+01   1.113723e+01
  -8.593618e+00  -9.096158e+00
   2.576588e+01  -4.338653e+01
   4.541790e+01  -3.160139e+01
   3.033032e+01   9.500483e+00
  -4.121586e+00   3.292042e+01
  -2.812100e+01   2.713416e+01
  -1.305215e+01   1.477864e+01
  -4.045419e+00  -1.530055e+01
   8.760608e+00  -1.585999e+01
   1.377293e+01   3.000379e+00
   9.892629e+00   2.507229e+01
  -1.100388e+00   1.719812e+01
  -9.669502e+00   3.338531e-02
  -1.801777e+01  -5.390664e+00
  -1.023243e+01  -2.255557e+00
   3.608999e+00   7.123963e+00
   5.681985e+00   6.776573e+00
  -5.601417e+00  -6.922243e+00
  -9.865659e+00  -2.073675e+01
   3.457534e+00  -6.003163e+00
   1.080114e+01   1.615073e+00
   6.122918e-01   1.456106e+01
  -1.965958e+01   8.963060e+00
  -2.914312e+01  -6.194681e+00
  -1.487890e+00  -2.300678e+01
   1.993523e+01  -1.650004e+01
   3.658479e+01  -6.995515e+00
   1.974528e+01   1.927475e+01
  -9.692879e+00   1.654236e+01
  -2.863456e+01   1.829410e+01
  -1.097039e+01   4.564815e+00
   6.575142e+00   1.379961e+00
   1.502686e+01   3.618714e+00
  -7.761431e+00   6.783722e+00
  -3.020738e+01  -7.267250e+00
