
 $NMID
 id='ANONYMOUS ', fmtdat='(2E16.6)'
 volume=1.0
 tramp=1.0
 $END
   9.176171e+02  -2.874015e+02
   1.013134e+03   6.753853e+02
  -1.063849e+01   7.816664e+02
  -5.112336e+02   9.045298e+02
  -3.668034e+02  -3.466822e+01
   1.141613e+02   1.028200e+02
   3.305675e+02  -6.209047e+01
   1.134342e+02   2.384543e+02
  -2.620477e+01   3.903088e+02
  -3.210961e+02   1.609552e+02
  -1.677252e+02  -2.050942e+02
  -7.297066e+01  -1.379214e+02
   7.060101e+01  -9.527936e+01
   1.961369e+02   1.870999e+02
  -1.021095e+01   2.524228e+02
  -1.161798e+02   2.056131e+01
  -1.697490e+02  -1.305920e+02
  -1.843939e+01  -1.819459e+02
   1.397527e+02  -1.115922e+02
   2.088843e+02   9.633147e+01
   1.291715e+02   1.329421e+02
  -5.341037e+01   7.768015e+01
   1.728777e+01   3.307858e+01
   5.400037e+01   7.522599e+01
   1.246203e+02   1.264636e+02
  -6.605329e+01   1.169290e+02
  -1.501589e+02  -5.546142e+01
  -1.680793e+02  -2.713925e+01
  -1.813277e+02  -1.159355e+02
   1.449818e+02  -2.924678e+01
   1.726464e+02   3.011122e+01
   7.415801e+01   1.281383e+02
  -2.091914e+01   1.198019e+02
  -1.796823e+02   7.824460e+01
  -1.611545e+02  -5.312334e+01
  -4.901987e+01  -1.414464e+02
  -1.088251e+01  -1.071556e+02
   1.875564e+01   1.341578e+01
  -3.091716e+01   6.062174e+01
  -1.927940e+01  -1.463434e+02
   3.454299e+01  -1.468959e+02
   8.752013e+01  -1.515901e+02
   1.384326e+02  -2.708675e+00
   1.058261e+02   2.702349e+01
  -9.469240e+01   5.043901e+01
  -6.392737e+01  -8.312997e+01
   6.548684e+01  -5.948091e+01
   1.177122e+02  -2.938737e+01
   1.201735e+02   6.950994e+01
   7.542229e+01   1.871795e+02
  -8.584295e+01   9.485453e+01
  -1.418008e+02  -5.969242e+01
  -1.458447e+02  -9.083831e+01
  -2.496575e+01  -1.524869e+02
   1.175875e+02  -7.974956e+01
   8.938001e+01   1.972429e+01
   3.570196e+01   2.790731e+01
  -4.244457e+01  -2.376893e+01
   2.529463e+01  -3.342561e+01
   8.151997e+01  -3.864421e+01
   6.330714e+01   5.367484e+01
  -4.259102e+01   1.099469e+02
  -1.591127e+02   5.158470e+01
  -1.168678e+02  -7.713603e+01
  -4.733735e+01  -1.375303e+02
   1.515959e+02  -1.421469e+02
   1.505684e+02  -8.834679e+01
   9.697497e+01   3.034619e+01
   3.460083e+00   1.142443e+02
   6.031735e+00   1.516986e+02
   1.248486e+01   9.831272e+01
   3.385492e+00   4.722234e+01
  -8.334456e+01   2.392754e+01
  -1.155086e+02  -4.611489e+01
  -8.813461e+01  -2.774110e+01
  -2.719077e+01  -1.421754e+02
   3.617532e+01  -6.391862e+01
   8.447628e+01   8.550725e+00
   5.881560e+01   1.028079e+02
  -1.440464e+01   1.154283e+02
  -1.083358e+02  -2.353075e+00
  -1.313101e+02  -4.357900e+01
  -2.241504e+01  -8.893225e+01
   1.314203e+01  -1.191762e+02
   6.745050e+01  -8.770744e+01
   6.404866e+01  -2.579528e+01
   6.852079e+01  -3.170447e+01
   1.169680e+02   9.836595e-01
   1.894126e+02   3.891699e+01
   9.358201e+01   7.576528e+01
  -4.570851e+01   2.042936e+02
  -1.576553e+02   1.435724e+02
  -2.179024e+02   8.694874e+01
  -6.612712e+01  -6.968629e+01
   5.701992e+00  -5.994735e+01
   3.171513e+00  -9.617586e+01
  -1.935318e+01  -2.500909e+01
  -4.723820e+01   8.718795e+00
   2.775028e+00  -1.252386e+01
   4.787538e-01  -2.896253e+01
   9.492121e+00  -1.669944e+01
   3.552145e+01   3.292635e+01
  -3.149321e+01   6.157413e+01
  -7.049609e+01   3.049013e+01
  -6.678463e+01  -1.122671e+02
  -2.206406e+01  -1.169194e+02
   9.148439e+01  -1.356900e+02
   1.370355e+02   7.582087e+00
   8.241594e+01   7.965292e+01
   3.727745e+01   1.303658e+02
  -5.143838e+01   3.724287e+01
  -4.409934e+01  -1.394948e+00
  -1.573895e+01   4.812735e+00
   6.996177e+00   2.711833e+01
  -2.273394e+01   3.664253e+01
  -4.751894e+01   8.627480e+00
  -5.411392e+01  -2.720645e+01
  -1.615937e+01  -1.732372e+01
   2.616178e+01   1.251533e+01
   3.181993e+00   3.928937e+01
  -5.703445e+01   5.050860e+01
  -1.035130e+02  -3.019447e+01
  -9.650208e+01  -9.006874e+01
  -1.598986e+01  -1.120898e+02
   8.983226e+01  -9.648937e+01
   1.216765e+02  -6.125242e+01
   7.117014e+01   6.908499e+00
  -8.091995e+00   2.886820e+01
  -3.111407e+01  -1.174759e+00
   1.464129e+01  -3.333331e+01
   7.417547e+01  -3.495791e+01
   6.622324e+01   4.455397e+01
   1.610150e+01   8.414520e+01
  -3.752407e+01   5.545686e+01
  -5.026080e+01   1.400564e+01
  -9.086462e+00  -7.972420e+00
   1.720866e+01   1.366601e+01
   1.417792e+01   5.888802e+01
  -6.308160e+01   4.516020e+01
  -8.123162e+01   1.714733e+01
  -8.981423e+01  -6.153722e+01
  -2.288683e+00  -7.891770e+01
   5.237606e+01  -5.551864e+01
   6.409904e+01   1.001864e+01
   2.994266e+01   2.134078e+01
  -3.316797e+01   3.748365e+01
  -3.118476e+01   9.814398e+00
   1.325139e+00  -6.672504e+00
   1.125157e+01  -3.688975e+00
  -2.184982e+00   1.485009e+01
  -3.691494e+01  -1.239617e+00
  -3.299352e+01  -4.064701e+01
  -8.792070e+00  -8.662205e+01
   7.193002e+01  -7.126743e+01
   1.226038e+02  -7.546314e+00
   9.512843e+01   5.862877e+01
   6.093028e+01   8.995511e+01
  -4.319727e+01   6.335267e+01
  -6.113691e+01   2.951200e+01
  -2.549300e+01  -1.400087e+01
  -1.768301e+01  -7.476714e+00
  -2.333742e+01   4.517762e+00
  -3.961496e+01   3.481106e-01
  -2.830508e+01  -2.454361e+01
   6.500069e+00  -4.623869e+01
   5.288951e+01  -1.697417e+01
   3.852816e+01   2.488825e+01
  -1.491061e+01   4.903124e+01
  -5.705267e+01   2.412104e+01
  -8.599537e+01  -1.911567e+01
  -4.397321e+01  -8.503170e+01
   3.934211e+01  -7.412782e+01
   1.056322e+02  -4.821953e+01
   9.027342e+01   5.461268e+01
   4.460148e+01   6.187274e+01
  -2.265201e+01   6.708189e+01
  -3.891138e+01   4.180439e+01
  -1.246942e+01   2.265253e+01
  -1.145573e+01   3.128559e+01
  -2.626617e+01   2.237523e+01
  -6.165422e+01  -1.160533e+01
  -2.847321e+01  -5.661361e+01
   4.584914e+00  -8.334634e+01
   3.686897e+01  -8.069918e+01
   7.339781e+01  -1.589799e+01
   3.665659e+01   6.561420e+01
  -9.418687e+00   4.192413e+01
  -3.160850e+01   2.563949e+01
  -1.275785e+01  -7.777886e+00
   2.866909e+00  -2.145756e+01
   1.359408e+01  -7.832502e+00
  -1.451475e+01  -4.233914e+00
  -4.064241e+01  -8.535653e+00
  -2.136160e+01  -1.321741e+01
   3.095275e+01  -1.369721e+01
   7.531334e+01   1.743568e+01
   4.636761e+01   2.931021e+01
   5.275171e-01   3.253538e+01
  -5.888832e+01   3.643978e+01
  -4.056367e+01  -2.923777e+00
  -1.761183e+01  -1.749775e+01
   2.345241e+01  -2.009145e+01
   3.514118e+01   2.214347e+00
   7.553349e+00   3.800969e+01
  -1.687528e+01   3.040550e+01
  -2.816626e+01   6.233710e+00
  -3.182687e+01  -1.737317e+01
  -1.669073e+01  -1.281407e+01
  -2.359082e+01   1.816163e+00
  -2.105087e+01  -4.209862e+00
  -1.565352e+01  -3.290976e+01
   1.483681e+01  -6.409991e+01
   3.768793e+01  -7.046069e+01
   6.618435e+01  -6.566103e+00
   5.961363e+01   5.820990e+01
  -6.151099e+00   6.533147e+01
  -2.719695e+01   3.493641e+01
  -2.557722e+01  -2.974854e+00
   3.086170e+01  -1.669496e+01
   6.657699e+01   7.287699e+00
   1.979164e+01   4.257728e+01
  -3.120917e+01   5.444759e+01
  -6.135331e+01   2.315695e+01
  -5.616908e+01  -2.629814e+00
  -1.842718e+01  -2.674646e+01
   3.003282e+01  -1.660316e+01
   1.859215e+01   1.606655e+00
  -1.243642e+01   1.879073e+01
  -2.544394e+01  -1.345008e+01
  -1.774887e+01  -3.505159e+01
   3.287829e+01  -6.786188e+01
   5.603117e+01  -7.383661e+00
   5.450239e+01   3.415369e+01
   5.442265e+00   8.572353e+01
  -1.851121e+01   5.280430e+01
  -4.783492e+01  -1.764582e+00
  -2.386966e+01  -5.705737e+01
   5.320554e+00  -4.652804e+01
   2.355977e+01  -7.786173e+00
   1.343463e+01   1.141083e+01
   6.248232e+00   5.372798e-01
   3.541176e+00  -2.915544e+00
   1.348864e+01   1.285690e+01
   2.631727e+01   3.432362e+01
   1.654002e+01   4.308091e+01
  -2.816809e+01   1.646398e+01
  -3.953905e+01  -1.820779e+01
  -4.475816e+01  -1.355408e+01
  -1.194240e+01  -2.211444e+01
   2.702261e+01  -1.557233e+00
   3.545115e+01  -2.209627e+00
   7.027107e+00   3.151390e+00
  -9.936382e+00   6.021611e+00
  -8.801223e+00   1.299091e+00
   4.748768e+00  -7.150147e-01
   2.549227e-01  -9.329508e-01
  -2.614292e+01  -6.613847e-01
  -3.866016e+01  -1.075173e+01
  -1.190336e+01  -4.371035e+01
   5.236038e+01  -6.128262e+01
   5.998798e+01  -4.589719e+01
   7.445201e+01   1.461766e+01
   7.602116e+00   5.382496e+01
  -1.564832e+01   5.651468e+01
  -3.862788e+01   2.870777e+01
  -4.206198e+01  -1.060418e+01
  -1.459471e+01  -1.239202e+01
  -3.323633e+00  -5.631274e+00
  -3.756644e+00  -5.267321e+00
  -9.029672e+00  -1.827935e+01
  -9.503071e+00  -3.254295e+01
   1.294999e+01  -3.500053e+01
   3.063995e+01   6.664358e+00
   1.512646e+01   3.593301e+01
   3.709893e+00   3.845109e+01
  -2.750167e+01   1.486075e+01
  -5.618929e+01  -2.352215e+01
  -2.838068e+01  -4.277023e+01
   2.847669e+01  -4.168814e+01
   4.803756e+01   2.585984e+00
   1.913977e+01   2.559139e+01
  -1.345614e+01   2.881688e+01
  -1.506675e+01   1.073464e+01
   9.532103e+00  -6.020025e+00
   3.129481e+01  -1.150739e+01
   1.179214e+01   1.046718e+01
  -3.294358e+01   3.281636e+01
  -5.779379e+01   4.356244e+01
  -2.333486e+01  -1.202263e+00
   5.446718e+00  -3.924641e+01
   2.540066e+01  -2.131891e+01
   1.867465e+01  -6.335356e+00
   1.091437e+01   1.955553e+01
  -1.084525e+01   2.002750e+01
  -1.448963e+01   8.953980e-01
  -1.452682e+01  -2.479930e+01
   9.892307e-01  -1.512909e+01
   1.006980e+01   2.704548e+00
   1.769077e+01   1.269309e+01
   8.884027e+00   1.846351e+00
  -2.734169e+00  -9.408449e+00
  -1.750093e+00  -5.070422e+00
   6.846409e+00   1.900778e+01
   3.209292e+00   2.107841e+01
  -2.183650e+00   7.289133e+00
  -1.362585e+01  -3.679598e+00
   1.396838e+00  -2.119217e+01
   1.690765e+01  -9.410690e+00
   2.749458e+01   1.157400e+01
   9.554043e+00   1.810190e+01
  -2.861162e+01   1.548909e+01
  -4.556267e+01  -6.209317e+00
  -1.295841e+01  -9.741381e+00
   9.675539e+00  -1.751180e+01
   2.509085e+01  -1.845994e+01
   1.039758e+01  -4.686731e+00
  -6.885743e+00  -2.015551e-01
  -1.944292e+01   3.346489e-01
   9.713660e+00  -5.563207e+00
   2.213931e+01  -6.496544e+00
