
 $NMID
 id='ANONYMOUS ', fmtdat='(2E16.6)'
 volume=1.0
 tramp=1.0
 $END
   2.499303e+03  -4.964008e+02
   1.696228e+03   1.038636e+03
   4.712939e+02   1.744771e+03
  -9.342253e+02   1.166824e+03
  -7.349346e+02   3.722716e+02
  -1.713815e+02   1.146844e+01
   3.801653e+02  -1.916255e+02
   1.935599e+02   3.925265e+02
  -2.411373e+02   4.794979e+02
  -5.328059e+02   2.411603e+02
  -4.333993e+02  -3.915876e+02
  -1.595427e+02  -4.305395e+02
   2.564144e+02  -3.208065e+02
   2.592905e+02   2.401942e+02
  -8.528459e+01   5.129620e+02
  -2.453006e+02   1.496004e+02
  -3.087100e+02  -3.420659e+02
   7.028964e+01  -5.022830e+02
   3.610441e+02  -3.070247e+02
   4.530614e+02   1.497757e+02
   1.891869e+02   2.937083e+02
  -5.746259e+01   1.917315e+02
  -1.411276e+01   9.663168e+01
   1.187261e+02   1.660392e+02
   1.875121e+02   1.754776e+02
  -1.829489e+01   2.100317e+02
  -3.204829e+02   9.380003e+01
  -3.946385e+02  -1.617550e+02
  -2.939816e+02  -2.390237e+02
   2.155399e+02  -1.096963e+02
   3.048949e+02   6.033545e+01
   1.745715e+02   2.319882e+02
  -1.383378e+02   2.424210e+02
  -3.224630e+02   1.804173e+02
  -2.147012e+02  -1.048095e+02
  -1.510039e+02  -2.541124e+02
  -4.532748e+01  -1.408880e+02
  -1.024955e+02  -1.171265e+01
  -1.048207e+02   4.939848e+01
  -8.022064e+01  -9.207258e+01
  -2.057970e+01  -2.311082e+02
   1.462506e+02  -3.041304e+02
   1.993699e+02  -1.325887e+02
   1.393158e+02   2.235682e+02
  -7.750564e+01   4.427721e+01
  -1.158492e+02  -1.849401e+02
   1.594439e+02  -1.857030e+02
   2.979700e+02  -1.748442e+01
   4.303225e+02   1.812292e+02
   1.524902e+02   4.148465e+02
  -1.872716e+02   2.611832e+02
  -4.248032e+02  -6.890588e+01
  -2.813294e+02  -1.906047e+02
  -6.049813e+01  -1.707341e+02
   2.494354e+02  -1.166960e+02
   2.431611e+02   1.794615e+00
   1.837432e+01   1.636642e+01
  -2.637264e+01  -1.671797e+01
   2.012857e+01  -6.418521e+01
   1.617198e+02   1.058828e+01
   7.853023e+01   1.426833e+02
  -1.087486e+02   2.258989e+02
  -2.990152e+02   1.362583e+02
  -2.112610e+02  -1.166152e+02
   4.720098e+01  -3.145168e+02
   2.841571e+02  -2.691261e+02
   3.202942e+02  -1.232193e+02
   1.805493e+02   1.181013e+02
   2.056777e+00   2.325317e+02
   9.005430e+00   2.847687e+02
  -1.407699e+01   1.783054e+02
  -4.561552e+01   1.295694e+02
  -1.573072e+02   9.003132e+01
  -1.934902e+02  -9.354687e+00
  -1.897517e+02  -9.258628e+01
  -6.408525e+01  -1.782430e+02
   1.022065e+02  -1.340040e+02
   1.328376e+02   8.500096e+00
   9.273507e+01   1.993195e+02
  -5.053132e+01   1.951042e+02
  -1.641406e+02   1.048119e+01
  -2.889357e+02  -1.291347e+02
  -1.332423e+02  -1.919630e+02
   6.063784e+00  -2.087873e+02
   9.770233e+01  -1.683673e+02
   1.422106e+02  -9.668649e+01
   1.286441e+02  -4.661331e+01
   2.007967e+02   3.881506e+01
   2.925711e+02   1.244252e+02
   2.287156e+02   2.460200e+02
  -6.531827e+01   3.151163e+02
  -3.047675e+02   3.578485e+02
  -3.661798e+02   1.891095e+02
  -1.856549e+02  -1.119736e+02
  -6.806909e+00  -1.667214e+02
   4.251149e+01  -1.987441e+02
  -1.355725e+01  -5.222695e+01
  -1.020747e+02   2.072538e+00
  -6.810727e+01  -9.124467e+00
   1.634627e+00  -8.969461e+01
   5.250478e+01  -8.347763e+01
   5.103512e+01   7.324803e+01
  -1.706961e+01   7.225600e+01
  -1.300503e+02   1.573501e+01
  -1.113573e+02  -2.076995e+02
  -2.205347e+01  -3.071757e+02
   2.081480e+02  -1.411633e+02
   2.770275e+02   4.714535e+01
   2.115414e+02   2.168180e+02
   1.460999e+01   2.154229e+02
  -1.269409e+02   8.089928e+01
  -1.024788e+02  -5.538798e+00
  -2.185468e+01  -7.198695e+00
   1.958834e+01   6.205267e+01
  -2.541097e+01   7.462463e+01
  -9.363617e+01   1.513096e+01
  -1.077073e+02  -2.144990e+01
  -2.652473e+01  -3.877342e+01
   5.983297e+01   3.394912e+01
   2.826942e+01   7.347955e+01
  -1.068355e+02   7.165773e+01
  -2.170002e+02  -3.574988e+01
  -1.612037e+02  -1.295172e+02
  -2.228904e+01  -2.151320e+02
   2.079888e+02  -1.803991e+02
   1.853765e+02  -1.068719e+02
   1.126847e+02   2.587890e+01
  -8.934380e+00   5.419911e+01
  -4.432539e+01  -7.140053e+00
   5.882211e+01  -5.923105e+01
   1.656076e+02  -3.866922e+01
   1.162749e+02   1.002442e+02
   4.292663e+01   1.526069e+02
  -7.330894e+01   1.029432e+02
  -1.033819e+02   2.469855e+01
  -1.856980e+01  -2.857229e+01
   2.722420e+01   3.251940e+01
   1.781621e+01   1.073554e+02
  -9.975098e+01   7.801018e+01
  -1.662437e+02   6.954447e+00
  -1.544244e+02  -1.172018e+02
  -2.473061e-01  -1.625720e+02
   1.259226e+02  -1.131055e+02
   1.506290e+02  -4.174199e+00
   4.550488e+01   7.441095e+01
  -3.920853e+01   6.595664e+01
  -5.474896e+01   1.962834e+01
   4.724321e+00  -1.459851e+01
   3.519630e+01   3.717440e+00
  -1.107688e+01   3.019782e+01
  -8.214813e+01   6.137038e+00
  -1.066668e+02  -7.402109e+01
  -1.868159e+00  -1.488529e+02
   1.271915e+02  -1.095944e+02
   2.032104e+02  -3.721186e+01
   1.507538e+02   1.296420e+02
   4.812502e+01   1.955644e+02
  -9.584534e+01   9.905705e+01
  -1.116203e+02   2.870017e+01
  -6.382743e+01  -3.113153e+01
  -2.625569e+01  -1.751413e+01
  -5.482345e+01   8.843763e+00
  -7.461578e+01   4.801227e+00
  -5.020064e+01  -5.420549e+01
   3.099627e+01  -9.235052e+01
   1.235545e+02  -6.127819e+01
   9.262434e+01   4.686100e+01
  -3.383544e+01   1.070328e+02
  -1.427347e+02   6.496537e+01
  -1.777299e+02  -7.123340e+01
  -6.311706e+01  -1.901993e+02
   1.444516e+02  -1.878466e+02
   2.402276e+02  -7.303694e+01
   1.384908e+02   1.019869e+02
   9.214911e+01   1.468095e+02
  -3.738785e+01   9.646128e+01
  -7.595772e+01   6.602964e+01
  -4.834558e+01   5.923199e+01
  -4.845689e+01   6.759483e+01
  -6.497280e+01   6.176008e+01
  -1.122229e+02  -7.128848e+00
  -9.306112e+01  -1.175290e+02
  -4.181130e+01  -1.484354e+02
   8.039640e+01  -1.294687e+02
   1.264859e+02  -2.149683e+01
   8.271431e+01   1.030862e+02
  -1.236746e+01   1.249208e+02
  -6.318663e+01   4.441191e+01
  -5.146832e+01  -1.484168e+01
   5.134522e+00  -4.063503e+01
   2.300264e+01  -2.894871e+01
  -2.140973e+01  -9.548437e+00
  -7.724078e+01  -1.907218e+01
  -4.985433e+01  -3.031126e+01
   6.923549e+01  -4.082241e+01
   1.346028e+02   1.992509e+01
   1.058730e+02   6.524907e+01
  -1.256571e+01   7.273647e+01
  -1.173181e+02   6.669052e+01
  -1.091763e+02   1.576904e+01
  -3.974504e+01  -4.201267e+01
   4.375870e+01  -5.085150e+01
   6.424443e+01   9.350750e+00
   1.593747e+01   6.549721e+01
  -3.359252e+01   5.625002e+01
  -5.964289e+01  -1.787042e+00
  -5.213886e+01  -4.340024e+01
  -4.818099e+01  -3.683912e+01
  -4.327843e+01   6.148291e+00
  -5.044939e+01   6.733113e-02
  -4.196051e+01  -5.988968e+01
   1.604767e+01  -1.102779e+02
   9.041349e+01  -1.436270e+02
   1.458197e+02  -2.571473e+01
   9.707088e+01   7.025124e+01
  -4.073416e+00   1.087334e+02
  -7.555632e+01   6.359224e+01
  -5.025067e+01  -1.176970e+01
   5.129652e+01  -1.893898e+01
   1.386764e+02   3.133902e+01
   5.614907e+01   7.786274e+01
  -5.987688e+01   9.758681e+01
  -1.540217e+02   4.401523e+01
  -1.422796e+02  -2.676868e+01
  -2.140892e+01  -7.132599e+01
   5.064594e+01  -3.643774e+01
   3.757454e+01   4.166075e-01
  -3.271343e+01   3.032632e+01
  -6.230708e+01  -8.959291e+00
  -3.125291e+01  -9.826829e+01
   5.976978e+01  -1.566315e+02
   1.225502e+02  -5.483451e+01
   1.051367e+02   6.625226e+01
   5.864370e+00   1.600105e+02
  -6.733943e+01   1.022611e+02
  -8.419759e+01  -6.615607e+00
  -4.444631e+01  -1.114047e+02
   1.551706e+01  -8.215502e+01
   4.735106e+01  -9.634427e+00
   2.868435e+01   2.717898e+01
   1.219902e+01   4.383865e+00
   5.227483e+00  -1.191658e+01
   3.120738e+01   1.863231e+01
   4.117471e+01   8.687778e+01
   2.663446e+01   8.157889e+01
  -5.393650e+01   3.086075e+01
  -9.413572e+01  -3.866599e+01
  -1.034413e+02  -4.150891e+01
  -1.741866e+01  -3.544307e+01
   5.072779e+01  -1.635571e+01
   6.574222e+01  -5.169001e+00
   2.002582e+01   1.088380e+01
  -2.553282e+01   1.623944e+01
  -1.593705e+01   6.934428e+00
   1.210186e+01  -5.081446e+00
  -1.392630e+00  -2.869765e+00
  -4.825828e+01   2.065021e+00
  -8.049692e+01  -3.128247e+00
  -2.241833e+01  -7.396558e+01
   6.405062e+01  -1.198760e+02
   1.476513e+02  -6.919082e+01
   1.324607e+02   6.161938e+01
   3.355788e+01   1.334147e+02
  -5.748482e+01   1.238746e+02
  -9.753278e+01   6.343850e+01
  -7.074093e+01  -6.900470e+00
  -2.306830e+01  -3.047442e+01
  -4.081715e+00  -1.541307e+01
  -1.316242e+01  -8.203222e+00
  -2.231400e+01  -3.661502e+01
  -1.844405e+01  -7.398163e+01
   2.134295e+01  -6.477822e+01
   6.498225e+01   7.655009e+00
   5.181093e+01   8.112843e+01
   2.446044e+01   1.011247e+02
  -5.402613e+01   2.699892e+01
  -9.858608e+01  -4.312537e+01
  -3.247552e+01  -8.530376e+01
   6.132041e+01  -5.303137e+01
   9.400831e+01   7.794968e+00
   4.449392e+01   4.667896e+01
  -2.880735e+01   5.377459e+01
  -3.638174e+01   2.270604e+01
   2.175168e+01  -1.249150e+01
   5.614471e+01  -6.693878e+00
   1.216814e+01   2.495609e+01
  -6.485194e+01   6.514190e+01
  -1.045327e+02   4.942650e+01
  -5.729700e+01  -2.369456e+01
   6.002339e+00  -6.961272e+01
   5.028634e+01  -5.486979e+01
   3.953890e+01  -6.703377e+00
   8.987885e+00   4.346274e+01
  -1.731391e+01   3.676784e+01
  -3.199331e+01  -2.365638e+00
  -2.951040e+01  -4.165275e+01
  -1.451116e-01  -3.525239e+01
   2.231449e+01   8.921394e-01
   3.839958e+01   2.146813e+01
   1.653054e+01   2.342847e+00
  -5.002119e+00  -1.815689e+01
  -1.312087e+00  -9.961886e+00
   1.262004e+01   3.073150e+01
   5.486261e+00   4.396492e+01
  -1.730154e+01   2.340971e+01
  -3.307771e+01  -2.010552e+01
  -1.765807e+01  -4.801116e+01
   3.675573e+01  -2.561269e+01
   5.919143e+01   2.278546e+01
   2.418586e+01   5.254450e+01
  -4.751153e+01   3.061401e+01
  -8.055101e+01  -6.767419e+00
  -4.513191e+01  -3.234641e+01
   2.148628e+01  -2.934611e+01
   4.760841e+01  -3.293508e+01
   2.493922e+01  -7.264009e+00
  -1.659706e+01   1.793862e+00
  -3.249656e+01  -9.546064e-01
   1.348306e+01  -1.704352e+01
   6.171071e+01  -1.607169e+01
