
 $NMID
 id='ANONYMOUS ', fmtdat='(2E16.6)'
 volume=1.0
 tramp=1.0
 $END
  -2.177078e+03  -1.876145e+02
  -1.424646e+03  -1.389630e+03
   3.395230e+02  -1.621502e+03
   1.503991e+03  -5.624049e+02
   7.067279e+02   1.719795e+02
  -3.006617e+02   4.518322e+02
  -4.269386e+02  -1.857745e+02
  -7.026815e+01  -7.857686e+02
   5.220767e+02  -4.538256e+02
   6.409959e+02   3.255637e+01
   2.288149e+02   4.730949e+02
  -4.891913e+01   4.348148e+02
  -3.149708e+02   1.653291e+02
  -2.710821e+02  -3.310110e+02
   1.462446e+02  -5.105578e+02
   2.508120e+02  -5.408592e+01
   1.790709e+02   3.523395e+02
  -1.149881e+02   3.572184e+02
  -4.527863e+02   1.443877e+02
  -2.370969e+02  -2.441282e+02
  -1.744422e+01  -2.139315e+02
   1.643302e+02  -2.012487e+02
   1.169428e+02  -4.893712e+01
  -3.933158e+01  -5.703446e+00
  -2.613608e+02  -1.176060e+02
  -1.657473e+01  -2.169099e+02
   2.861095e+02  -1.549738e+02
   3.507264e+02   5.387084e+01
   2.553507e+02   2.940624e+02
  -1.788603e+02   2.382151e+02
  -4.213400e+02  -4.415576e+01
  -1.914497e+02  -2.371483e+02
   2.275454e+02  -2.543136e+02
   4.031380e+02  -1.058072e+02
   2.947495e+02   1.495372e+02
   9.845798e+01   3.341798e+02
  -7.536832e+01   1.177797e+02
  -1.881166e+01  -7.473838e+01
   1.624257e+02  -2.324642e+02
   2.056065e+02   2.861362e+01
   8.469907e+01   4.583922e+02
  -2.181855e+02   4.354157e+02
  -3.450392e+02   7.340532e+01
  -8.133928e+01  -3.284014e+02
   1.427222e+02  -1.670570e+02
   2.344295e+02   1.678481e+02
  -9.149775e+00   2.219554e+02
  -2.674765e+02   1.096067e+02
  -3.303144e+02  -2.460204e+02
  -1.086269e+02  -3.494571e+02
   2.484453e+02  -1.920688e+02
   3.143623e+02   4.242624e+00
   2.626533e+02   2.022276e+02
  -1.401123e+02   1.797787e+02
  -2.717598e+02   3.325795e+01
  -2.067744e+02  -1.106541e+02
   1.352916e+01  -4.147996e+01
   1.021048e+02   4.671761e+01
  -1.013219e+02   7.459426e+01
  -2.232641e+02  -6.088629e+01
  -6.889628e+01  -1.690529e+02
   1.357825e+02  -1.632714e+02
   2.094972e+02  -2.923645e+01
   1.460302e+02   6.433335e+01
  -4.790708e+01   1.784774e+02
  -1.657263e+02   2.056516e+02
  -2.390847e+02   1.335078e+02
  -1.631009e+02  -1.034006e+02
  -4.385289e+01  -2.464822e+02
   9.241517e+01  -2.260438e+02
   4.883624e+01  -1.016148e+02
   5.435392e+01  -3.288179e+01
   3.948384e+01  -5.072434e+01
   1.260013e+02  -6.806064e+01
   1.582850e+02   6.277225e+01
   1.098763e+02   1.636304e+02
  -2.137569e+01   1.235822e+02
  -1.364110e+02  -3.183970e+00
  -1.079867e+02  -1.736986e+02
   2.917823e+01  -1.808222e+02
   1.430636e+02  -4.986662e+01
   2.309580e+02   1.407840e+02
   1.373175e+02   2.046769e+02
  -7.430591e+01   1.922380e+02
  -1.701819e+02   6.930859e+01
  -9.799852e+01   2.716927e+01
  -8.293349e+01   2.236232e+01
  -1.236449e+02   8.393402e+00
  -2.685946e+02  -6.900663e+01
  -2.055425e+02  -1.828681e+02
   1.499507e+01  -2.782232e+02
   1.677059e+02  -2.384912e+02
   2.899694e+02  -7.244940e+01
   1.865591e+02   7.084011e+01
  -9.123432e+00   1.884131e+02
  -8.721929e+01   1.338726e+02
  -3.046922e+01   3.353661e+01
   7.423256e+01  -4.706630e+01
   8.299844e+01   1.641324e+01
   9.059282e+00   1.163763e+02
  -8.211621e+01   1.009164e+02
  -9.473897e+01  -5.929168e-01
   2.741438e+00  -1.104739e+02
   1.176519e+02   1.131587e+01
   1.033328e+02   1.648599e+02
  -1.351249e+01   1.898756e+02
  -1.902456e+02   1.343201e+02
  -2.133145e+02  -3.501418e+01
  -1.064932e+02  -1.589340e+02
  -3.416980e+01  -1.998049e+02
   6.735842e+01  -8.673341e+01
   9.142560e+01  -3.518765e+00
   3.511474e+01   1.507074e+01
  -3.757138e+01  -1.958185e+01
  -1.302108e+01  -7.166442e+01
   6.890239e+01  -3.699301e+01
   1.012527e+02   2.894924e+00
   3.389808e+01   3.301528e+01
  -5.303499e+01   4.716309e+00
  -2.452964e+01  -4.628576e+01
   8.688089e+01  -4.988307e+01
   1.604751e+02   3.554778e+01
   1.365443e+02   9.035302e+01
   2.902187e+01   1.567203e+02
  -1.398091e+02   1.489546e+02
  -2.411404e+02   5.533586e+01
  -9.562749e+01  -2.092714e+01
   2.760239e+01  -5.840875e+01
   5.169339e+01  -7.685220e+00
  -2.917820e+01   5.695138e+01
  -1.423160e+02   4.410834e+01
  -1.369167e+02  -8.210342e+01
  -6.164777e+01  -1.176270e+02
   5.783300e+01  -1.062165e+02
   1.167617e+02  -1.892985e+01
   3.451313e+01   2.180544e+01
  -1.786428e+01  -1.253304e+01
  -2.149518e+01  -6.150035e+01
   4.174022e+01  -7.118770e+01
   1.092684e+02  -5.306359e+00
   1.344581e+02   1.169945e+02
   1.533356e+01   1.250473e+02
  -1.073827e+02   9.634919e+01
  -1.060470e+02  -8.877935e+00
  -4.129331e+01  -7.389061e+01
   4.838961e+01  -6.310277e+01
   5.234264e+01  -2.055380e+01
   9.767605e+00   1.716635e+01
  -2.262918e+01   1.043563e+01
   1.144965e+01  -6.253335e+00
   4.420049e+01   5.830375e+00
   6.403200e+01   5.902613e+01
  -1.050637e+01   1.077897e+02
  -9.414568e+01   8.610165e+01
  -1.655036e+02   1.913463e+01
  -1.021430e+02  -1.227243e+02
  -1.559896e+01  -1.644464e+02
   7.061655e+01  -7.844677e+01
   9.827270e+01  -3.861869e+00
   4.713620e+01   3.631324e+01
   2.400586e+01   2.443829e+01
   3.166548e+01  -3.204688e+00
   5.010132e+01   3.857484e+00
   3.057052e+01   3.128847e+01
  -2.404155e+01   6.951147e+01
  -6.158658e+01   2.839029e+01
  -5.464930e+01  -2.634402e+01
   2.148324e+01  -6.475204e+01
   7.436800e+01  -3.803250e+01
   1.289527e+02   3.940648e+01
   6.093011e+01   1.244304e+02
  -9.141084e+01   1.238106e+02
  -1.939302e+02   4.985077e+01
  -1.206325e+02  -6.317130e+01
  -5.915477e+01  -1.073668e+02
   2.631025e+01  -8.384972e+01
   6.801822e+01  -4.842788e+01
   5.973669e+01  -4.451531e+01
   3.900120e+01  -5.106595e+01
   4.164637e+01  -3.296021e+01
   8.855361e+01   1.693485e+01
   5.197307e+01   8.458971e+01
   2.850237e+01   1.332747e+02
  -6.342281e+01   1.247633e+02
  -1.114529e+02   9.927537e+00
  -6.499256e+01  -7.921038e+01
   2.986338e+00  -9.320977e+01
   4.188271e+01  -4.987909e+01
   2.856801e+01   3.716265e+00
   1.308416e+00   2.786821e+01
  -7.294342e+00   2.375186e+01
   2.403203e+01   9.690949e+00
   4.746489e+01   1.532673e+01
   2.730775e+01   2.869312e+01
  -3.800168e+01   1.923709e+01
  -1.044686e+02   1.215457e+01
  -6.042713e+01  -3.585576e+01
   1.545307e+00  -3.659374e+01
   8.835911e+01  -5.128665e+01
   8.025518e+01   4.669550e+00
   3.411101e+01   2.054238e+01
  -3.923378e+01   3.038182e+01
  -5.657956e+01  -1.702514e+01
  -7.370236e+00  -4.772573e+01
   3.320843e+01  -3.818305e+01
   4.616759e+01   3.332371e+00
   2.194985e+01   3.616339e+01
   2.299788e+01   2.733882e+01
   4.051551e+01   2.424190e+00
   3.539749e+01   3.585147e+00
   2.321836e+01   4.196044e+01
  -2.192003e+01   1.068493e+02
  -8.484965e+01   8.971560e+01
  -8.791392e+01   1.555644e+01
  -8.110169e+01  -6.982922e+01
   9.556003e-01  -9.282429e+01
   4.816858e+01  -3.389760e+01
   4.143763e+01   7.523278e+00
  -4.961705e+01   1.613626e+01
  -9.634289e+01  -3.214503e+01
  -4.478647e+01  -6.162898e+01
   5.648694e+01  -5.710721e+01
   1.337309e+02  -2.316343e+01
   1.034448e+02   4.694960e+01
   1.584695e+01   5.429624e+01
  -4.138028e+01   3.679692e+01
  -3.002741e+01  -9.670367e-01
   2.696953e+01  -1.757198e+01
   4.777110e+01   2.328847e+01
   8.887409e+00   5.501793e+01
  -5.771643e+01   8.484097e+01
  -1.021572e+02   5.436599e+01
  -7.438370e+01  -5.973938e+01
  -6.156361e+00  -1.256577e+02
   7.834523e+01  -8.670334e+01
   6.521691e+01   6.444522e+00
   4.888943e+01   8.540456e+01
  -8.822796e+00   5.881524e+01
  -3.417240e+01   6.291461e+00
  -2.401573e+01  -1.864501e+01
  -1.495382e+01  -2.962971e+00
  -2.603534e+00   9.383801e+00
  -1.642084e+01  -7.295030e+00
  -3.102802e+01  -6.021884e+01
  -1.527800e+01  -6.504756e+01
   3.110376e+01  -3.427110e+01
   6.684584e+01   3.116883e+01
   8.376722e+01   4.548055e+01
   9.867473e+00   3.290830e+01
  -4.277266e+01   7.722347e+00
  -5.271825e+01  -2.052045e+00
  -6.464714e+00  -5.911484e+00
   1.774210e+01  -1.185509e+01
   1.324096e+01  -8.398897e+00
  -1.208687e+01   1.104268e+00
   1.729127e+00   4.161570e+00
   4.857481e+01   4.024730e+00
   5.615721e+01   1.041677e+01
   1.272384e+01   6.545881e+01
  -8.688718e+01   7.388530e+01
  -1.293133e+02   3.106064e+01
  -9.140719e+01  -7.249782e+01
  -4.600636e+00  -1.054973e+02
   5.904651e+01  -8.167771e+01
   7.957400e+01  -3.845244e+01
   5.051203e+01   5.895052e+00
   1.105831e+01   2.963186e+01
  -2.373505e-01   9.133456e+00
   7.240645e+00   3.013458e+00
   1.886844e+01   3.150273e+01
   1.334254e+01   5.804873e+01
  -1.510576e+01   5.123487e+01
  -5.288251e+01  -1.134654e+01
  -4.637473e+01  -5.970987e+01
  -7.221092e+00  -6.172636e+01
   4.360937e+01  -1.350103e+01
   7.290839e+01   5.362964e+01
   2.320481e+01   7.867349e+01
  -5.479423e+01   3.088947e+01
  -5.389142e+01  -1.416091e+01
  -2.908502e+01  -3.752153e+01
   2.101034e+01  -3.247237e+01
   2.502457e+01  -1.818366e+01
  -1.745958e+01   3.653382e+00
  -4.935949e+01   1.462455e+00
  -1.023894e+01  -2.191596e+01
   5.852201e+01  -4.544177e+01
   9.009874e+01  -2.661544e+01
   3.042863e+01   1.099120e+01
  -1.411203e+01   5.033798e+01
  -3.690628e+01   4.411383e+01
  -2.296696e+01   1.839538e+00
  -5.397856e+00  -3.772760e+01
   1.373846e+01  -2.394635e+01
   2.356709e+01   6.352697e+00
   2.167305e+01   3.616727e+01
   1.975198e-01   2.119515e+01
  -1.845034e+01  -4.790471e+00
  -2.476525e+01  -1.521702e+01
  -1.478887e+01  -1.811053e+00
  -6.643705e-01   1.036778e+01
   2.920235e+00   5.380127e-03
   3.813358e+00  -2.068193e+01
   2.535233e+00  -3.064285e+01
   2.546240e+01  -4.723923e+00
   1.525045e+01   2.558957e+01
   2.204357e+00   3.632281e+01
  -2.808452e+01   1.929033e+01
  -4.075408e+01  -2.881001e+01
  -7.624799e+00  -4.081991e+01
   3.732249e+01  -2.293889e+01
   5.368401e+01   7.603567e+00
   2.952965e+01   2.659333e+01
  -1.766446e+01   1.917052e+01
  -5.394354e+01   1.561220e+01
  -1.556941e+01   3.426281e+00
   1.829923e+01  -4.109184e+00
   2.448533e+01   2.875960e+00
  -1.774155e+01   2.058605e+01
  -4.782769e+01   1.456624e+01
