
 $NMID
 id='ANONYMOUS ', fmtdat='(2E16.6)'
 volume=1.0
 tramp=1.0
 $END
  -8.546033e+02   2.013884e+02
  -7.758764e+02  -5.800081e+02
  -1.751515e+02  -3.911078e+02
   3.387386e+02  -5.322507e+02
  -1.556517e+01   7.458548e+01
  -2.099014e+01   1.730445e+02
  -1.977507e+02  -7.515229e+01
  -5.332161e+01  -2.515596e+02
   2.101191e+02  -1.869895e+02
   2.705104e+02   3.858033e+01
   1.447440e+01   1.136514e+01
  -3.421835e+00   2.208359e+02
  -1.913097e+02   9.386965e+00
  -6.702209e+01  -5.932768e+01
  -1.066658e+00  -1.491495e+02
   7.599788e+01  -1.149827e+01
   7.243301e+01   5.166029e+01
   2.746064e+01   2.029194e+02
  -1.474745e+02   7.362845e+01
  -8.551283e+01  -5.396843e+01
  -5.759659e+01  -6.083411e+01
   5.341564e+01  -9.534823e+01
   6.269435e+00  -1.556454e+01
  -7.190408e+01   1.753162e+01
  -1.112991e+02  -1.237890e+02
   7.902273e+01   5.785318e+00
   1.811589e+02  -6.724653e+01
   2.370861e+02   1.527688e+01
   1.703176e+02   1.739852e+02
  -9.312116e+01   2.598522e+01
  -2.251303e+02  -2.000563e+01
  -2.886638e+01  -9.833464e+01
   9.414120e+01  -9.846491e+01
   2.160935e+02  -3.395948e+01
   1.339324e+02   5.798078e+01
   1.762666e+01   1.383915e+02
  -1.373416e+01   4.659653e+01
   6.501057e-01  -4.784255e+01
   1.982616e+01  -5.057327e+01
   5.339296e+01   4.003665e+01
   3.496046e+01   2.040756e+02
  -1.248385e+02   1.939297e+02
  -1.030409e+02  -4.770866e+00
  -6.199853e+01  -2.247938e+02
   8.211474e+01  -2.035693e+01
   2.285537e+01   6.675483e+01
  -2.294469e+01   1.307412e+02
  -1.534533e+02   2.998287e+01
  -1.863302e+02  -7.667951e+01
  -6.546459e+01  -1.497989e+02
   7.391136e+01  -9.694502e+01
   1.436676e+02  -2.630080e+01
   1.373203e+02   7.669632e+01
  -4.614229e+00   6.818067e+01
  -1.051801e+02  -8.563445e+00
  -8.540458e+01  -3.152312e+01
  -1.502012e+01  -1.988684e+01
   3.830763e+01   1.884428e+01
  -4.385576e+01   4.734481e+01
  -8.989399e+01  -5.215357e+01
  -2.636754e+01  -2.206674e+01
   7.678643e+01  -1.084654e+02
   7.503718e+01  -5.245921e+01
   8.530910e+01   1.647622e+01
  -1.081960e+01   5.482866e+01
  -5.958996e+01   1.023768e+02
  -1.117165e+02   4.116452e+01
  -2.099521e+01  -8.999232e+00
  -1.636549e+01  -1.240793e+02
   4.654798e+00  -1.379411e+02
  -9.043583e+00  -3.946474e+01
  -5.916230e+00  -3.388885e+01
   3.135215e+01  -3.354425e+01
   8.548877e+01  -5.374969e+01
   8.020083e+01   2.276706e+01
   2.181921e+01   8.334798e+01
  -2.733656e+01   3.349904e+01
  -2.694906e+01  -2.158623e+00
  -3.714326e+01  -3.171050e+01
   1.204753e+01  -5.238961e+01
   5.828171e+01  -2.619588e+01
   9.667737e+01   2.869408e+01
   4.941473e+01   3.297815e+01
  -4.494107e+00   6.354877e+01
  -5.205914e+01   4.877406e+01
  -2.744030e+01   3.641440e+01
  -3.248696e+01   2.288277e+01
  -3.762957e+01   5.488497e+00
  -1.782287e+02  -4.072542e+01
  -1.030674e+02  -8.346832e+01
  -1.214782e+01  -9.301521e+01
   1.104268e+02  -1.335288e+02
   1.561543e+02  -6.005216e+01
   6.369846e+01   2.627823e+01
   1.152377e+01   9.678972e+01
  -3.387468e+01   8.302117e+01
  -8.245280e-01   1.090287e+01
   3.427646e+01  -6.274442e+00
   2.103442e+01   1.822514e+00
   1.368675e+01   1.877847e+01
  -4.328891e+01   9.735477e+00
  -2.081981e+01   1.443697e+00
   7.581470e+00  -2.175443e+01
   5.083819e+01  -1.521468e+01
   4.455100e+01   6.963939e+01
   2.697457e+00   1.001490e+02
  -7.556066e+01   7.876466e+01
  -5.934820e+01  -8.333751e+00
  -8.334919e+01  -7.122591e+01
  -1.501250e+01  -5.253718e+01
   2.283988e+01  -3.787166e+01
   4.697143e+01   3.436953e+00
   1.628034e+01   1.119815e+01
  -1.099660e+01  -1.145162e+01
   3.953419e+00  -2.796503e+01
   2.259303e+01  -5.076586e+00
   4.109056e+01   1.193079e+01
   3.602505e+00   2.288659e+01
  -1.527372e+01   3.848972e+00
  -5.409033e+00  -9.261134e+00
   4.100537e+01  -2.106950e+01
   8.416467e+01  -1.278213e+01
   2.709694e+01   2.001257e+01
   1.664880e+01   6.086471e+01
  -5.999400e+01   7.467926e+01
  -1.030428e+02   4.754412e+01
  -3.426781e+01  -1.102820e+00
   9.149756e+00  -2.784662e+01
   2.353398e+01   4.175814e+00
  -2.554892e+00   2.722577e+01
  -5.647091e+01   1.566913e+01
  -7.578638e+01  -2.833462e+01
  -2.927275e+01  -7.519128e+01
   1.585489e+01  -4.306966e+01
   4.732014e+01  -1.540725e+01
   2.371174e+00  -4.454842e-01
  -1.322331e+01  -1.039620e+01
  -9.391750e+00  -2.292341e+01
   3.001414e+01  -4.686889e+01
   7.193666e+01   2.939266e+00
   6.672220e+01   3.577870e+01
   1.010395e+01   6.783614e+01
  -4.501291e+01   5.470386e+01
  -2.556090e+01   1.142007e+01
  -2.444593e+01  -4.446199e+01
   9.736640e+00  -3.354039e+01
   2.398301e+01  -5.431139e+00
   2.238282e+00   7.290969e+00
  -1.529158e+01   2.208705e+00
   2.556151e+00  -2.550401e+00
   2.350579e+01  -2.057800e-01
   2.173281e+01   1.394457e+01
  -3.456893e+00   3.286670e+01
  -4.251007e+01   5.897772e+01
  -1.077204e+02   1.208008e+01
  -8.149763e+01  -6.281645e+01
  -1.730506e+01  -5.172726e+01
   1.918073e+01  -4.540073e+01
   4.059839e+01  -1.651730e+01
   2.082957e+01   1.534108e+01
   1.512084e+01   1.038571e+01
   6.983969e+00  -6.041301e+00
   2.089395e+01  -6.529635e+00
   9.282196e+00   3.337009e+00
  -1.533636e+01   3.580147e+01
  -3.024301e+01   2.954966e+01
  -3.396158e+01  -6.282692e+00
   7.365658e-01  -3.545032e+01
   4.637119e+01  -4.380946e+01
   6.663064e+01   1.520788e+01
   3.485924e+01   6.247468e+01
  -3.686854e+01   8.980800e+01
  -8.478121e+01   1.563112e+01
  -5.229314e+01  -5.331891e+00
  -1.253826e+01  -2.412039e+01
   4.463635e+00  -3.717570e+01
   2.062378e+01  -2.318505e+01
   1.513950e+01  -1.772571e+01
   1.991908e+01  -2.642791e+01
   1.527793e+01  -2.228265e+01
   3.945485e+01   7.213122e+00
   2.671029e+01   2.937899e+01
   1.242844e+01   8.651577e+01
  -3.326054e+01   5.660732e+01
  -6.738517e+01   1.432867e+01
  -4.271564e+01  -4.211644e+01
  -5.478571e+00  -3.350671e+01
   1.657650e+01  -2.394450e+01
   1.176296e+01   7.777606e-01
   8.970724e-01   1.261284e+01
  -3.966982e+00   1.013121e+01
   6.081249e+00   3.441955e-01
   2.437890e+01   1.698935e+00
   1.173845e+01   1.201183e+01
  -1.398637e+01   1.340619e+01
  -6.274577e+01   2.714922e+00
  -1.612004e+01  -8.144848e+00
   7.771169e-01  -2.534699e+01
   3.532533e+01  -3.230201e+01
   4.381139e+01  -4.947554e-01
   1.625924e+01   1.392751e+01
  -2.015286e+01   2.038120e+01
  -2.770849e+01  -4.860419e+00
  -5.346938e+00  -2.151636e+01
   8.716467e+00  -1.006774e+01
   2.064818e+01  -7.591163e+00
   2.215973e+01   1.559089e+01
   1.021887e+01   7.149106e+00
   1.721589e+01  -2.971774e+00
   1.337797e+01  -2.275125e+00
   1.714294e+01   2.671310e+01
  -7.453872e+00   3.913244e+01
  -4.733526e+01   6.311020e+01
  -6.227830e+01   2.191113e+01
  -4.863182e+01  -3.088011e+01
  -2.916452e+00  -4.125083e+01
   1.876160e+01  -2.188424e+01
   7.867539e+00   2.482475e+00
  -2.231079e+01   8.462233e+00
  -5.951004e+01  -8.382248e+00
  -2.191351e+01  -3.347006e+01
   1.436637e+01  -3.511378e+01
   6.057781e+01  -1.755088e+01
   3.798886e+01   1.516413e+01
   6.792510e+00   2.440544e+01
  -1.647813e+01   1.478873e+01
  -1.139045e+01  -1.909072e+00
   1.675474e+01  -1.311217e+01
   2.466773e+01   3.763451e+00
   6.665964e+00   1.733662e+00
  -1.146482e+01   3.317239e+01
  -8.172462e+00   5.077669e+00
  -4.654071e+01  -2.405486e+01
  -8.180323e+00  -3.875493e+01
   2.551394e+01  -5.708503e+01
   3.286085e+01   5.142113e+00
   1.851155e+01   2.520540e+01
  -1.947665e-01   2.840348e+01
  -1.733698e+01   6.379277e+00
  -1.030474e+01  -8.793309e+00
  -4.063640e+00  -3.911509e+00
  -2.826553e-01   3.622459e+00
  -1.141709e+01  -8.031049e+00
  -2.157150e+01  -2.352573e+01
  -1.390924e+01  -3.253783e+01
   1.583132e+01  -1.424150e+01
   4.405555e+01   6.825089e+00
   5.196634e+01   2.106437e+01
   4.665947e+00   5.024852e+00
  -2.361199e+01   8.955962e+00
  -3.341396e+01   3.974437e+00
  -3.777671e+00  -2.835291e+00
   5.302030e+00  -6.904297e+00
   6.974286e+00  -5.169929e+00
  -6.138832e+00   4.943605e-01
  -1.672229e-01  -4.861127e-01
   1.842112e+01  -2.938982e+00
   2.587650e+01   5.470671e+00
   5.105675e+00   2.988815e+01
  -3.951135e+01   3.678967e+01
  -4.171424e+01   1.686929e+01
  -2.519609e+01  -1.951028e+01
  -5.632361e+00  -3.925803e+01
   8.923830e+00  -3.650921e+01
   2.525995e+01  -1.583692e+01
   2.542380e+01   8.253621e-01
   7.496636e+00   1.209976e+01
   5.671786e-01   2.559380e+00
   3.954555e+00   3.775064e-01
   3.537436e+00   3.756830e+00
   7.400487e+00   2.810249e+01
  -9.673431e+00   2.742351e+01
  -2.872252e+01  -8.324361e+00
  -1.970134e+01  -1.793849e+01
  -1.357723e+01  -2.873484e+01
   1.212562e+01  -1.176727e+01
   5.619360e+01   3.071137e+01
   2.027429e+01   3.178055e+01
  -1.990088e+01   2.002773e+01
  -7.974338e+00  -1.118470e+00
  -1.101898e+01  -1.008132e+01
  -8.953251e-01  -1.070168e+01
   7.878306e+00  -8.480966e+00
  -4.740494e+00  -9.875578e-01
  -2.473744e+01   4.519037e+00
  -9.176249e+00  -9.309443e+00
   2.549670e+01  -2.681320e+01
   4.063196e+01  -1.501012e+01
   2.264494e+01   2.997694e+00
  -1.721372e-02   2.855851e+01
  -1.565374e+01   2.587866e+01
  -1.097445e+01   5.970749e+00
  -3.427900e+00  -1.837389e+01
   7.237581e+00  -1.249124e+01
   1.151224e+01   6.237009e+00
   6.231970e+00   1.448278e+01
   2.238688e+00   8.520064e+00
  -7.819075e+00  -3.079564e-01
  -1.075259e+01  -3.643642e+00
  -1.118345e+01  -2.119105e+00
   1.487620e+00   4.728737e+00
   1.966672e+00   3.124369e+00
  -1.307613e+00  -1.314982e+01
  -2.213637e+00  -1.278697e+01
   5.214356e+00  -6.991126e+00
   1.354071e+01   1.039302e+01
   4.312631e+00   1.382871e+01
  -1.265550e+01   8.129223e+00
  -1.596502e+01  -3.689781e+00
  -7.424362e+00  -1.426215e+01
   1.652348e+01  -1.338153e+01
   2.207300e+01   2.245224e+00
   5.996920e+00   7.213869e+00
  -4.536331e+00   7.390412e+00
  -1.700967e+01   9.988725e+00
  -7.453573e+00   1.884453e+00
   6.082099e+00  -5.078493e+00
   1.034819e+01   1.025253e+00
  -4.641900e+00   5.044543e+00
  -2.135122e+01   1.052061e+01
