
 $NMID
 id='ANONYMOUS ', fmtdat='(2E16.6)'
 volume=1.0
 tramp=1.0
 $END
   5.298437e+02   2.794119e+02
   5.066713e+02   3.412853e+02
   2.722184e+02   1.965229e+02
  -3.426640e+02   5.300877e+02
   2.497388e+01  -4.591870e+01
  -6.339914e+01  -8.961386e+01
   3.489106e+02  -2.157389e+01
   1.011754e+02   2.540950e+02
  -1.251346e+01   1.501672e+02
  -7.597736e+01   1.088335e+01
  -2.630176e+01   3.133430e+01
   3.720799e+00  -1.746026e+02
   1.520828e+02  -2.481905e+01
   9.659273e+01   2.700522e+01
   1.811309e+01   4.846373e+01
  -4.882628e+01   1.207617e+01
  -8.091683e+01   3.276204e+01
  -3.153630e+01  -1.029029e+02
   1.035233e+02  -3.240925e+01
   5.210157e+01  -1.613531e+01
   3.576316e+01   5.273306e+01
  -3.106405e+01   6.892349e+01
   6.480845e-02   1.408859e+01
   4.271417e+01  -2.766112e+01
   8.689479e+01   4.590907e+01
  -2.878467e+01  -1.918507e+01
  -1.244086e+02   6.244610e+01
  -1.598095e+02  -3.253820e+01
  -1.095672e+02  -1.232599e+02
   4.835993e+01  -1.836642e+01
   1.954076e+02   5.141167e+01
   2.230725e+01   2.869673e+01
  -4.026585e+01   4.143997e+01
  -1.290439e+02   9.893738e+01
  -6.307777e+01  -4.771005e+01
   5.686701e+00  -1.098814e+02
   3.061430e+01  -1.846141e+01
  -1.649791e+01   5.940707e+01
  -4.544178e+01   6.503622e+01
  -2.555049e+00  -3.228961e+01
  -6.930107e+01  -4.227789e+01
   7.624132e+00  -1.299807e+02
   3.439078e+01   9.371303e+00
   7.107997e+01   8.178192e+01
  -2.008316e+01   1.548525e+01
   2.691182e+01   3.408688e+01
   3.706835e+01  -5.906575e+01
   1.143138e+02   2.382026e+00
   9.714488e+01   6.660397e+01
   5.313138e+01   7.923312e+01
  -2.636730e+01   6.961587e+01
  -9.951755e+01  -2.622073e+01
  -1.030093e+02  -3.938843e+01
  -1.535234e+01  -8.966538e+01
   9.249101e+01   4.257896e+00
   6.068641e+01   1.355595e+01
   2.903372e+01  -5.543910e+00
  -2.037976e+01  -2.407477e+01
   4.962326e+01  -5.844443e+01
   5.434957e+01  -2.015034e+01
   4.896133e+01  -3.208663e+01
  -7.308592e+01   7.976038e+01
  -5.440691e+01   2.980470e+01
  -5.502350e+01   2.493200e+01
   3.393312e+01  -3.968917e+01
   3.451233e+01  -8.001815e+01
   3.776760e+01  -1.921087e+01
  -2.685794e-01   1.282434e+01
   3.873620e+01   7.355158e+01
  -2.923020e+01   1.073392e+02
   3.947072e+00   2.387535e+01
  -2.762952e+00   1.185807e+01
  -1.217161e+01   1.509636e+01
  -6.208040e+01   7.172417e+00
  -5.294029e+01  -1.158199e+01
  -1.992575e+00  -4.747382e+01
   1.352468e+01   7.937347e+00
   2.168862e+01   1.132411e+01
   3.624653e+01  -7.708631e+00
  -2.220896e-01   8.708184e+00
  -6.048082e+00   1.368899e+01
  -6.944723e+01  -8.239382e+00
  -8.223230e+00  -9.636775e+00
  -2.131886e+01  -7.307956e+01
   3.147271e+01  -4.947462e+01
   3.478133e+01  -2.462692e+01
   3.490041e+01  -2.383054e+01
  -1.778432e+00  -4.192003e+00
   7.103420e+01   2.518832e+01
   4.140986e+01   3.157484e+01
   7.832252e+00   7.396536e+01
  -7.458296e+01   7.044211e+01
  -5.235494e+01   1.549391e+01
  -2.686436e+01  -1.938266e+00
  -4.812456e+00  -5.617552e+01
   2.702664e+01  -5.740991e+01
  -4.949395e-01  -9.184675e+00
  -1.824035e+01   3.086249e+00
  -6.489098e+00  -3.300798e+00
   1.731816e+01  -1.660308e+00
   3.865845e+00  -5.240687e+00
  -1.970465e-01  -4.101537e+00
   1.267485e+01   8.286058e+00
  -5.597368e+01   2.190599e+01
  -3.578242e+01  -4.778969e+01
   1.535509e+01  -8.016648e+01
   4.891499e+01  -7.412344e+01
   2.544499e+01  -1.148334e+01
   5.729387e+01   1.675356e+01
   7.975081e+00   3.875949e+01
  -1.577800e+01   1.087354e+01
  -1.845945e+01   4.473165e+00
  -7.875312e+00  -9.255056e+00
   6.991040e-01   6.023583e+00
  -1.308645e+00   1.534270e+01
  -1.022748e+01   1.627845e+01
  -1.927285e+01  -1.005413e+01
  -1.654415e+01  -2.972444e+00
   7.856801e+00   5.777796e+00
  -8.400605e-01  -3.196906e+00
  -1.838652e+01   1.239937e+01
  -4.603777e+01   1.147118e+01
  -1.356532e+01   9.667080e+00
  -2.185967e+01  -4.387027e+01
   1.818955e+01  -4.929758e+01
   7.150714e+01  -5.257831e+01
   1.203016e+01  -1.342003e+01
  -1.527537e+00   1.688111e+01
  -1.793532e+01  -1.893484e+00
  -2.858926e+00  -9.012968e+00
   3.676937e+01   7.424558e-01
   4.304709e+01   2.457834e+01
   1.444699e+01   4.088342e+01
  -1.056189e+01   1.860435e+01
  -3.416388e+01   7.572429e+00
   3.382909e+00   6.760011e-01
   3.830880e+00   1.020371e+01
   1.150313e+01   2.851688e+00
  -2.248695e+01   3.513968e+01
  -2.794001e+01  -2.157341e+01
  -4.248516e+01  -1.832958e+01
  -2.146423e+01  -2.990792e+01
   1.704424e+01  -3.464230e+01
   1.007089e+01  -1.552215e+01
   4.724813e+00   2.365926e+01
  -4.224934e+00   1.779307e+01
  -1.389132e+01   2.030748e+00
  -5.922653e+00  -4.913518e+00
   7.280472e+00   8.247891e-01
  -2.963499e-01   1.791706e-01
  -1.574553e+01  -2.233024e+00
  -5.199581e+00  -1.591115e+01
  -6.561864e+00  -1.623577e+01
   3.473145e+01  -4.124690e+01
   7.153933e+01  -2.350393e+01
   4.733019e+01   4.356968e+01
   1.021689e+01   3.906314e+01
  -8.747895e+00   2.127771e+01
  -2.845066e+01   1.349530e+00
  -1.371319e+01  -5.274861e+00
  -1.190679e+01  -6.934660e+00
  -3.838501e-01   8.546184e-01
  -1.606379e+01   1.568312e+00
   1.099843e+00   8.939313e+00
   4.933189e+00  -2.598610e+01
   1.983031e+01  -1.359988e+01
   1.509574e+01   5.326349e+00
   3.058224e-01   1.885106e+01
  -1.571432e+01   2.975634e+01
  -5.058741e+01  -1.001020e+01
  -4.774367e+01  -2.610211e+01
   2.275085e+01  -6.008866e+01
   4.808505e+01  -2.911998e+01
   2.640856e+01  -7.656009e-01
   1.815636e+01   1.140807e+01
   2.577533e+00   1.272899e+01
  -1.607609e+01   1.614468e+01
  -7.111145e+00   1.242131e+01
  -1.286969e+00   1.347212e+01
  -1.141719e+01   1.542971e+01
  -2.876153e+01  -3.673976e+00
  -1.588704e+01  -1.818608e+01
  -7.067731e+00  -3.483398e+01
  -1.306562e+00  -3.706695e+01
   5.283206e+01  -1.238117e+01
   2.230954e+01   2.246442e+01
   3.408186e+00  -1.821101e+00
  -7.716234e+00   6.814659e+00
  -3.477680e+00  -4.998844e+00
  -2.442830e-01  -7.501601e+00
   2.342687e+00  -2.862594e+00
  -7.054783e+00  -2.957808e-01
  -1.806973e+01  -2.783939e+00
  -1.144620e+01  -4.645793e+00
   6.265941e+00  -4.612534e+00
   3.274634e+01  -4.761971e+00
   1.620456e+01  -1.151226e+01
  -2.010209e+00   1.343872e+01
  -2.928612e+01   1.383369e+01
  -2.008428e+01   6.241366e+00
  -8.956082e+00  -1.051735e+01
   1.572028e+01  -1.316865e+01
   1.481995e+01  -3.210596e+00
   3.040827e-01   1.408107e+01
  -1.675600e+00   9.960506e+00
  -9.032609e+00   1.268185e+00
  -1.740417e+01  -1.178788e+01
  -6.884445e+00  -1.300626e+00
  -1.427104e+01   1.029153e+00
  -7.498505e+00   3.486491e+00
  -9.097033e+00  -1.142820e+01
  -5.736680e+00  -2.726293e+01
   3.480707e+01  -4.572410e+01
   4.643395e+01  -9.741967e-01
   2.023820e+01   1.019546e+01
   4.754575e+00   2.865253e+01
  -1.213863e+01   9.444523e+00
  -2.435920e+00  -1.273195e+00
   1.496007e+01  -7.849713e+00
   3.524357e+01   6.356480e+00
   9.036387e+00   1.681742e+01
  -1.172265e+01   2.860705e+01
  -4.352075e+01   6.920958e-02
  -1.948584e+01  -1.386955e+01
  -4.001143e+00  -1.096148e+01
   5.125664e+00  -8.416218e+00
   4.284830e+00  -5.011827e-01
  -1.280170e+01   5.040514e+00
  -1.237140e+01  -6.587216e+00
  -7.447442e-01   1.822219e+01
   2.608265e+00  -2.928725e+01
  -1.234740e+01  -1.094674e+01
   3.350170e+01   2.503005e+01
   7.790995e+00   3.091071e+01
  -1.557434e+01   3.065950e+01
  -2.666796e+01   6.470595e+00
  -7.622043e+00  -1.651064e+01
   9.780550e-01  -1.338745e+01
   9.541859e+00  -6.403639e+00
   6.896842e+00  -2.774017e+00
   2.145513e+00   2.293258e-01
   1.941013e-01  -1.309528e+00
   8.616277e+00   2.425708e+00
   1.029415e+01   1.491092e+01
   1.290233e+01   1.965632e+01
  -1.323884e+01   9.613431e+00
  -2.080768e+01   3.219661e+00
  -3.136177e+01  -1.213063e+01
  -4.562059e-01  -3.579245e+00
   1.236033e+01   1.872939e+00
   2.296431e+01  -2.316784e+00
   1.313249e+00   3.355040e+00
  -3.625647e+00   4.586818e+00
  -3.422582e+00   4.422836e+00
   5.431836e+00  -2.344689e+00
   2.087022e-01   8.991872e-03
  -8.457732e+00   5.395056e+00
  -1.286286e+01  -3.856507e+00
  -1.886842e+00  -1.383141e+01
   1.515234e+01  -3.876942e+01
   1.612589e+01  -2.101333e+01
   3.158883e+01   1.454138e+00
   9.260658e+00   1.854788e+01
  -5.680837e+00   2.267027e+01
  -1.754920e+01   1.026104e+01
  -1.176269e+01  -4.546870e+00
  -6.090274e+00  -5.640827e+00
   3.283976e-01  -8.286118e-01
  -3.509420e+00   3.552304e-01
  -1.278986e+00   1.329547e+00
  -2.265723e+00  -1.216109e+01
   6.703090e+00  -1.681757e+01
   1.894247e+01   4.027239e+00
   8.653791e+00  -2.600788e+00
  -5.600257e+00   2.574059e+01
  -9.320108e+00   6.104506e+00
  -4.158008e+01  -3.000148e+01
  -1.611703e+01  -1.980223e+01
   1.462250e+01  -1.709676e+01
   3.785255e+00  -6.536968e+00
   9.566616e+00   3.267614e+00
  -2.702357e+00   6.777721e+00
  -5.178145e+00   3.168743e+00
   1.537679e+00   4.172935e-02
   2.153192e+01  -5.939120e+00
   8.196396e+00   6.288541e+00
  -1.731159e+01   2.660911e+01
  -1.986927e+01   1.241993e+01
  -1.514404e+01  -7.338360e+00
  -3.134111e+00  -1.397483e+01
   5.810589e+00  -7.449364e+00
   5.960518e+00  -7.056556e+00
   1.811954e+00   1.192549e+01
  -3.832462e+00   5.922031e+00
  -8.937147e+00  -4.000320e+00
  -6.744928e+00  -6.849279e+00
  -1.451630e+00  -7.383919e+00
   4.695176e+00  -2.162283e-01
   4.913799e+00   4.000065e+00
   6.760875e+00   8.266000e-01
  -1.375107e+00  -2.922642e+00
  -6.585006e-01  -1.134871e+00
  -1.189420e+00   1.124360e+01
   7.649639e-01   4.778453e+00
  -2.282475e+00   3.809788e+00
  -8.622076e+00  -3.161300e+00
  -6.528850e-01  -6.030011e+00
   5.265251e+00  -4.830226e+00
   1.000092e+01  -1.767910e-01
   3.964487e+00   6.780871e+00
  -8.468078e+00   1.179933e+01
  -1.517979e+01   4.613931e+00
  -1.969107e+00  -1.683947e+00
   2.436708e+00  -5.226084e+00
   1.431320e+01  -8.082746e+00
   3.274621e+00  -1.361716e+00
  -3.947633e+00   3.604842e+00
  -1.103283e+01  -1.076649e+00
   2.124615e+00  -9.870537e-01
   9.325787e+00  -3.038619e+00
