
 $NMID
 id='ANONYMOUS ', fmtdat='(2E16.6)'
 volume=1.0
 tramp=1.0
 $END
   7.567036e+02  -2.228585e+02
   6.976302e+02   3.192922e+02
   9.725006e+01   8.302515e+02
  -2.422163e+02   9.206538e+02
  -4.664295e+02   2.481183e+02
  -2.283314e+02   5.574214e+01
   2.033688e+02  -1.419322e+02
   7.209913e+01   1.129311e+02
  -1.296189e+02   4.252797e+02
  -3.041247e+02   1.012928e+02
  -1.972848e+02  -1.927311e+01
  -9.632128e+01  -1.168506e+02
   1.282950e+02  -1.411179e+02
   5.076155e+01   1.246901e+02
  -6.664298e+01   1.216380e+02
  -6.448747e+01   8.904355e+01
  -1.627651e+02  -1.212314e+02
  -3.691048e+01  -1.324503e+02
   1.779923e+02  -2.077165e+02
   2.245458e+02   6.297229e+01
   1.453931e+02   1.033320e+02
  -3.201312e+01   7.698319e+01
   3.512504e+01   7.207861e+01
   5.393712e+01   7.767407e+01
   8.768599e+01   1.388535e+02
  -6.396811e+01   1.075459e+01
  -1.340814e+02  -3.976440e+01
  -1.180575e+02  -1.211541e+02
  -5.335952e+01  -9.209068e+01
   7.993789e+01   3.124902e+00
   1.319007e+02   2.905638e+01
   8.021075e+00   6.296764e+01
  -3.152531e+01   1.176958e+02
  -1.722220e+02   8.682873e+01
  -1.232092e+02  -3.590519e+01
  -5.703938e+01  -1.474003e+02
  -3.532509e+01  -6.575887e+01
   1.934491e+01   5.998380e-01
  -5.990994e+01  -1.100076e+01
   1.194291e+01  -4.455731e+01
   5.282095e-01  -1.424474e+02
   7.455463e+01  -1.345854e+02
   3.750537e+01  -3.635183e+01
   1.300545e+02   1.418322e+02
  -2.745217e+01  -7.574201e+00
  -1.735193e+01  -6.425271e+01
   1.061380e+01  -1.885083e+01
   1.367514e+02   2.449254e+01
   1.676118e+02   1.198897e+02
   3.797834e+01   2.209725e+02
  -2.879885e+01   7.934378e+01
  -8.137589e+01   1.309729e+01
  -1.299523e+02  -4.803806e+01
  -2.914241e+01  -7.398502e+01
   6.565797e+01  -9.057584e+01
   6.913524e+01  -2.091494e+01
  -7.089525e+00  -3.738792e+01
  -4.211374e-02  -3.514829e+00
   4.945525e+01  -2.240175e+01
   3.390031e+01  -1.748156e+01
   8.901374e+01   2.543602e+01
  -2.041626e+01   6.983612e+01
  -8.338564e+01   6.191614e+01
  -1.100293e+02  -4.227363e+01
   2.927996e+01  -1.469772e+02
   1.301548e+02  -1.164771e+02
   1.746777e+02  -5.645159e+01
   5.223136e+01   8.124223e+01
   3.574865e+01   1.103251e+02
  -2.390671e+00   1.344086e+02
   1.664811e+01   1.143151e+02
  -4.489194e+01   7.023833e+01
  -6.418288e+01   3.445230e+01
  -6.492194e+01  -2.240912e+01
  -1.036864e+02  -6.981784e+01
   2.242500e+00  -1.001243e+02
   4.005627e+01  -1.746160e+01
   4.675857e+01   2.001383e+01
   1.736689e+01   7.377555e+01
  -1.756893e+01   9.410935e+01
  -2.029882e+01   3.408563e+01
  -1.308680e+02  -8.576230e+01
  -8.004114e+00  -8.515783e+01
   1.639138e+01  -6.750171e+01
   6.314781e+01  -1.086333e+02
   7.159519e+01  -5.906878e+01
   5.295614e+01  -2.182702e+01
   9.069320e+01  -1.211962e+01
   1.707026e+02   3.006674e+01
   1.372438e+02   1.195054e+02
  -3.008126e+01   1.367659e+02
  -1.246447e+02   8.778020e+01
  -1.001277e+02   7.763125e+01
  -6.484697e+01  -2.395101e+01
  -2.035160e+01  -6.431037e+01
   3.304550e+01  -8.201692e+01
  -5.694297e+00  -7.927623e+00
  -2.925165e+01  -2.386362e+01
  -5.642288e+00  -1.927430e+01
  -1.287422e+01  -5.709971e+01
   3.591996e+01  -2.855835e+01
   2.071677e-02   6.569472e+00
  -1.306338e+01   3.234359e+01
  -6.108085e+01   2.129965e+01
  -1.156514e+01  -7.761850e+01
  -2.858151e+01  -1.006302e+02
   1.220755e+02  -1.219169e+02
   1.014449e+02   3.134900e+01
   1.089375e+02   6.246834e+01
   2.474618e+01   1.033064e+02
  -3.965520e+01   3.526949e+01
  -4.252819e+01   1.472663e+01
  -7.239716e+00  -9.233653e+00
  -1.682222e+00   1.403734e+01
  -2.737687e+01   3.954622e+01
  -1.945316e+01   2.186724e+01
  -4.358364e+01  -1.797378e+01
  -5.964635e+00  -8.453124e+00
   1.307952e+01   2.007096e+01
   1.124216e+01   3.438660e+01
  -5.440486e+01   2.420804e+01
  -5.506824e+01   7.262735e+00
  -6.070919e+01  -7.743854e+01
   1.504628e+01  -6.759278e+01
   6.583818e+01  -7.528268e+01
   1.342248e+02  -6.314163e+01
   5.424044e+01   2.607240e+01
  -1.529821e+00   1.145623e+01
  -2.071999e+01  -6.017800e+00
   2.269027e+01  -2.547340e+01
   1.102554e+02  -9.118850e+00
   6.964939e+01   3.981868e+01
  -7.387251e+00   6.725321e+01
  -3.072544e+01   5.001845e+01
  -4.930379e+01   6.337317e+00
   2.027354e+00   1.552416e+00
   1.932981e+01   1.142276e+01
  -1.120450e+01   5.413981e+01
  -3.884443e+01   3.984259e+01
  -7.734515e+01   1.007448e+00
  -8.837079e+01  -6.112007e+01
   9.502629e+00  -6.586610e+01
   6.177454e+01  -3.735790e+01
   3.414401e+01  -3.548497e+01
   2.141931e+01   2.690819e+01
  -2.905348e+01   2.591818e+01
  -1.590016e+01   1.447739e+01
   3.092224e+00  -1.107045e+01
   2.108589e+01  -2.661477e+00
  -3.797193e+00   2.360635e+01
  -4.053934e+01   2.612957e-01
  -3.216754e+01  -2.191185e+01
   4.298821e+00  -7.059560e+01
   6.273980e+01  -6.552005e+01
   1.069530e+02  -1.470066e+00
   7.535593e+01   1.888151e+01
  -1.642888e+01   8.391222e+01
  -7.239141e+00   2.870485e+01
  -6.002248e+01   1.636598e+01
  -2.778627e+01  -9.712038e+00
  -1.501603e+01  -1.168228e+01
  -1.814253e+01   3.361458e+00
  -3.086731e+01   8.867903e+00
  -1.087233e+01  -2.153285e+01
   1.434462e+01  -4.718604e+01
   5.405968e+01  -1.600629e+01
   3.627088e+01   1.669463e+01
  -2.130858e+00   5.875864e+01
  -4.949270e+01   1.376751e+01
  -8.993625e+01  -1.992458e+01
  -1.364255e+01  -7.299731e+01
   7.289216e+01  -6.213038e+01
   1.086800e+02  -5.311944e+01
   3.124587e+01   1.471128e+01
   4.307899e+01   4.690523e+01
  -2.623443e+01   2.460670e+01
  -2.439258e+01   3.134678e+01
  -1.164607e+01   2.724757e+01
  -7.520819e+00   2.886600e+01
  -1.623697e+01   3.441557e+00
  -4.657191e+01  -4.319240e+00
  -4.735059e+01  -1.901265e+01
  -2.909250e+01  -8.474471e+01
   5.172231e+01  -6.501452e+01
   6.632893e+01   3.988468e+00
   3.781240e+01   3.058760e+01
   5.839171e+00   4.689358e+01
  -2.527942e+01   2.318300e+01
  -1.280482e+01  -1.269121e+01
   3.829400e+00  -1.843121e+01
   1.395983e+01  -9.959976e+00
  -8.340060e+00  -4.087486e+00
  -3.274348e+01  -9.468981e+00
  -2.367157e+01  -1.209106e+01
   2.749947e+01  -1.252526e+01
   5.780537e+01   1.388626e+01
   2.551402e+01   5.626794e+00
   3.439957e-01   2.755468e+01
  -7.725703e+01   2.788523e+01
  -3.269499e+01   4.521846e+00
  -1.097105e+01  -2.446115e+01
   2.961257e+01  -1.344089e+01
   3.377169e+01   4.754421e+00
   1.266402e+01   2.697633e+01
  -1.115236e+01   2.273348e+01
  -2.729167e+01  -5.573223e-01
  -1.928450e+01  -1.083816e+01
  -1.466852e+01  -1.077773e+01
  -2.021373e+01   1.379077e+00
  -1.853728e+01   2.451159e+00
  -1.672890e+01  -2.704264e+01
   7.927226e+00  -5.991058e+01
   5.094213e+01  -5.248546e+01
   5.975631e+01  -4.017095e+00
   5.133091e+01   2.396027e+01
   9.709158e+00   4.711965e+01
  -2.357367e+01   7.213897e+00
  -2.102072e+01  -4.365039e+00
   2.448649e+01  -9.710646e+00
   5.710798e+01   1.278747e+01
   1.556104e+01   3.470775e+01
  -3.326025e+01   3.632033e+01
  -6.371628e+01   1.790593e+01
  -6.072838e+01   1.660866e+00
  -8.312680e+00  -3.348484e+01
   1.864387e+01  -1.781337e+01
   1.436899e+01  -2.620360e-01
  -1.908339e+01   1.653795e+01
  -2.997922e+01   7.567693e+00
  -5.790381e+00  -2.433811e+01
   2.663141e+01  -6.125966e+01
   5.743449e+01  -1.875672e+01
   3.826243e+01   2.625239e+01
   1.026971e+01   5.654417e+01
  -2.991532e+01   5.157676e+01
  -3.440390e+01   9.664107e+00
  -1.634578e+01  -4.526233e+01
   4.233458e+00  -2.694553e+01
   2.236351e+01  -1.301146e+01
   1.002732e+01   9.853092e+00
   3.321313e+00   1.302079e+00
   2.658270e+00  -2.278071e+00
   1.277656e+01   1.206673e+01
   2.227254e+01   2.809423e+01
   8.768023e+00   2.620154e+01
  -2.536725e+01   8.480887e+00
  -3.554452e+01  -2.062280e+00
  -5.009491e+01  -2.131709e+01
  -9.036542e+00  -1.930377e+01
   2.046195e+01  -1.500324e+01
   1.745325e+01  -1.025520e+01
   7.106479e+00   4.195048e+00
  -4.848861e+00   5.416550e+00
  -1.028057e+01   2.516299e+00
   3.915369e+00  -2.437252e+00
  -8.349768e-01  -9.530695e-03
  -2.521768e+01   4.333729e-02
  -4.094954e+01  -9.291591e+00
  -7.592962e+00  -2.810335e+01
   5.780148e+01  -5.051908e+01
   7.614544e+01  -3.425666e+01
   7.437401e+01   3.785006e+00
   9.797975e+00   5.804923e+01
  -1.433019e+01   5.528826e+01
  -4.355197e+01   3.208971e+01
  -2.489078e+01  -1.321706e+01
  -1.611455e+01  -1.480369e+01
  -3.381408e+00  -6.568579e+00
  -5.611772e+00  -4.076952e+00
  -7.721923e+00  -1.535376e+01
   4.015866e+00  -3.235411e+01
   1.342984e+01  -2.824047e+01
   3.039100e+01   1.008045e+00
   2.591269e+01   3.858737e+01
   6.155401e+00   3.396184e+01
  -2.519571e+01   1.244578e+01
  -4.770914e+01  -2.219714e+01
  -1.848189e+01  -4.534398e+01
   1.739489e+01  -3.008945e+01
   2.582832e+01  -8.734970e+00
   2.443268e+01   2.617872e+01
  -9.065222e+00   1.301596e+01
  -1.610837e+01   1.144968e+01
   1.056958e+01  -1.340815e+00
   2.975408e+01  -7.981095e+00
   1.033131e+01   1.259809e+01
  -3.713282e+01   2.857553e+01
  -4.795845e+01   3.931536e+01
  -2.359691e+01  -7.417321e+00
  -1.667217e+00  -2.315808e+01
   1.266459e+01  -2.346400e+01
   1.953468e+01  -8.422236e+00
   2.274032e+00   1.399048e+01
  -6.263765e+00   1.226884e+01
  -1.174541e+01  -3.777133e+00
  -8.865259e+00  -1.482175e+01
  -6.160053e-01  -1.861125e+01
   8.057795e+00  -2.651785e+00
   1.624333e+01   9.986885e+00
   1.143403e+01   1.338107e+00
  -1.215277e+00  -9.710536e+00
  -3.139050e+00  -4.535591e+00
   2.976807e+00   1.425912e+01
  -1.045026e+00   1.784332e+01
  -4.806867e+00   1.348168e+01
  -1.525002e+01   1.832114e-01
  -8.502275e+00  -1.841511e+01
   1.565549e+01  -1.157211e+01
   2.467509e+01   1.817897e+01
   8.672428e+00   1.792833e+01
  -2.355073e+01   1.540577e+01
  -3.554056e+01  -3.842305e+00
  -2.027465e+01  -1.104585e+01
   1.873761e-01  -1.938361e+01
   3.125665e+01  -1.735807e+01
   1.053177e+01  -1.224426e+00
  -2.545033e+00   3.395166e+00
  -1.457252e+01  -2.444011e+00
   2.808576e+00  -5.146469e+00
   1.273452e+01  -6.439202e+00
