
 $NMID
 id='ANONYMOUS ', fmtdat='(2E16.6)'
 volume=1.0
 tramp=1.0
 $END
  -6.613386e+06  -2.572298e+06
  -2.535991e+06  -4.269808e+06
   1.717811e+06  -3.461518e+06
   3.099969e+06  -1.597789e+06
   1.776796e+06   1.264423e+05
  -1.924589e+05   9.742635e+05
  -1.162753e+06   4.489454e+05
  -7.670348e+05  -9.752367e+05
   3.789847e+05  -1.671009e+06
   1.204167e+06  -5.792307e+05
   9.321674e+05   1.208954e+06
  -1.629813e+05   1.607327e+06
  -9.373440e+05   1.615913e+05
  -5.952522e+05  -1.407471e+06
   4.302879e+05  -1.374797e+06
   9.917245e+05   8.389904e+04
   4.539091e+05   1.407660e+06
  -7.323759e+05   1.427550e+06
  -1.518147e+06   2.836764e+05
  -1.207862e+06  -9.775527e+05
  -1.034252e+05  -1.362636e+06
   7.052637e+05  -7.552656e+05
   4.031548e+05  -2.779231e+04
  -5.798441e+05  -1.268591e+05
  -9.107034e+05  -9.435263e+05
   1.297591e+05  -1.395971e+06
   1.686173e+06  -7.528460e+05
   2.180577e+06   4.940146e+05
   1.043566e+06   1.266754e+06
  -6.724134e+05   1.046222e+06
  -1.413322e+06   1.546645e+05
  -6.593273e+05  -7.075030e+05
   6.865638e+05  -8.869627e+05
   1.288045e+06  -1.409641e+05
   6.786685e+05   9.584980e+05
  -3.745440e+05   1.288663e+06
  -7.673403e+05   3.970012e+05
  -2.505897e+05  -7.346320e+05
   4.024491e+05  -7.559963e+05
   4.021566e+05   3.060267e+05
  -1.526822e+05   1.054981e+06
  -5.418064e+05   5.800801e+05
  -3.577621e+05  -4.009756e+05
   1.272877e+05  -6.117010e+05
   4.067067e+05   1.322305e+05
   2.195794e+05   8.755139e+05
  -3.699289e+05   8.074560e+05
  -1.015896e+06   4.427236e+04
  -1.172768e+06  -7.481723e+05
  -5.132969e+05  -1.026184e+06
   5.573636e+05  -6.596983e+05
   1.107142e+06   4.352227e+04
   6.528376e+05   5.106241e+05
  -2.568716e+05   3.788949e+05
  -6.731108e+05  -1.102110e+05
  -3.113903e+05  -3.792119e+05
   2.670894e+05  -1.914707e+05
   4.255039e+05   1.512265e+05
   1.126771e+05   2.824625e+05
  -2.344619e+05   1.714224e+05
  -2.091057e+05  -2.101087e+03
   1.845595e+05  -8.797906e+04
   5.110162e+05   3.430687e+04
   2.708138e+05   4.165934e+05
  -5.454337e+05   8.111326e+05
  -1.296046e+06   7.234193e+05
  -1.292600e+06  -2.361110e+04
  -5.775844e+05  -9.169394e+05
   1.244521e+05  -1.241733e+06
   2.737464e+05  -8.984335e+05
   8.225087e+04  -4.586638e+05
   1.022986e+05  -3.898274e+05
   4.925324e+05  -4.981049e+05
   8.991174e+05  -2.773011e+05
   9.153304e+05   3.647033e+05
   4.515017e+05   9.228069e+05
  -2.441746e+05   8.276798e+05
  -7.252556e+05   7.237057e+04
  -5.997535e+05  -7.177326e+05
   9.949845e+04  -8.478896e+05
   7.995971e+05  -2.179624e+05
   8.752913e+05   5.847436e+05
   3.127483e+05   8.905536e+05
  -2.864532e+05   6.054935e+05
  -4.211722e+05   1.969004e+05
  -2.344670e+05   8.684805e+04
  -2.354219e+05   2.165871e+05
  -6.148480e+05   2.265409e+05
  -9.959620e+05  -9.603879e+04
  -8.468091e+05  -6.274727e+05
  -6.352963e+04  -1.035397e+06
   8.517541e+05  -1.002031e+06
   1.194272e+06  -4.502774e+05
   7.149404e+05   3.031281e+05
  -9.726626e+04   7.054861e+05
  -4.787023e+05   4.686580e+05
  -1.730214e+05  -8.716811e+04
   3.483205e+05  -3.444920e+05
   4.814005e+05  -7.408833e+04
   1.537628e+05   3.269238e+05
  -2.117204e+05   3.427147e+05
  -2.469778e+05  -3.822775e+04
   3.151082e+04  -3.240162e+05
   3.535094e+05  -9.910845e+04
   4.363560e+05   5.002368e+05
   1.218869e+05   9.082250e+05
  -4.877971e+05   6.888180e+05
  -9.719349e+05  -3.305456e+04
  -8.851958e+05  -6.839435e+05
  -2.513446e+05  -7.896995e+05
   3.715864e+05  -4.115902e+05
   4.690663e+05  -2.295198e+04
   1.305993e+05   1.917159e+04
  -1.094382e+05  -1.912582e+05
   6.650892e+04  -3.038490e+05
   4.200036e+05  -1.375774e+05
   4.915270e+05   1.600659e+05
   1.461109e+05   3.163965e+05
  -2.783243e+05   2.037734e+05
  -3.242177e+05  -6.789868e+04
   1.065665e+05  -2.425488e+05
   6.082435e+05  -1.135903e+05
   6.369822e+05   2.751765e+05
   7.772118e+04   6.042017e+05
  -5.850872e+05   5.454447e+05
  -7.444623e+05   1.138377e+05
  -3.068386e+05  -3.033071e+05
   2.340784e+05  -3.338224e+05
   3.521460e+05  -1.309152e+04
   1.096707e+04   2.671533e+05
  -3.882485e+05   1.907773e+05
  -4.606841e+05  -1.582781e+05
  -1.689585e+05  -4.145977e+05
   2.088922e+05  -3.304662e+05
   3.452521e+05  -2.301167e+04
   1.443181e+05   1.683293e+05
  -1.548774e+05   4.528977e+04
  -1.872810e+05  -2.438236e+05
   1.464589e+05  -3.620311e+05
   5.238399e+05  -1.334424e+05
   5.250792e+05   2.780754e+05
   1.049461e+05   5.315298e+05
  -3.499257e+05   4.290730e+05
  -4.446121e+05   7.981892e+04
  -1.701789e+05  -2.189141e+05
   1.507761e+05  -2.471440e+05
   2.271480e+05  -4.038950e+04
   5.204099e+04   1.644532e+05
  -1.504600e+05   1.693616e+05
  -1.658286e+05   1.756176e+04
   3.439927e+03  -6.245228e+04
   1.336796e+05   6.625785e+04
   8.820073e+03   2.615627e+05
  -3.179710e+05   2.431635e+05
  -5.330112e+05  -8.329872e+04
  -3.819239e+05  -4.933596e+05
   4.818653e+04  -6.537658e+05
   4.194275e+05  -4.387104e+05
   4.928514e+05  -2.883758e+04
   3.269453e+05   2.720653e+05
   1.427743e+05   3.030432e+05
   7.166447e+04   1.593322e+05
   6.323612e+04   6.695057e+04
  -9.521079e+03   1.348854e+05
  -1.904166e+05   2.303702e+05
  -3.629305e+05   1.332089e+05
  -3.270227e+05  -1.750090e+05
  -1.296930e+03  -4.279794e+05
   4.272906e+05  -3.351575e+05
   6.092110e+05   9.040022e+04
   3.498179e+05   5.155951e+05
  -1.828812e+05   6.044295e+05
  -6.002895e+05   3.204718e+05
  -6.400781e+05  -8.199812e+04
  -3.609218e+05  -3.211672e+05
  -2.887871e+04  -3.232394e+05
   1.397754e+05  -2.316513e+05
   1.332578e+05  -2.187344e+05
   9.933352e+04  -2.916862e+05
   1.697265e+05  -2.854988e+05
   3.099260e+05  -6.186612e+04
   3.425797e+05   2.926107e+05
   1.469271e+05   5.067897e+05
  -1.696592e+05   3.879158e+05
  -3.458364e+05   2.453219e+04
  -2.334461e+05  -2.948700e+05
   4.320140e+04  -3.506595e+05
   2.235438e+05  -1.626978e+05
   1.817301e+05   7.907630e+04
   2.845365e+04   2.076884e+05
  -4.332491e+04   1.990540e+05
   2.376464e+04   1.400865e+05
   9.683945e+04   1.117579e+05
   3.376983e+03   1.075703e+05
  -2.627433e+05   5.830624e+04
  -4.869756e+05  -7.314474e+04
  -4.193073e+05  -2.338294e+05
  -4.563586e+04  -3.210642e+05
   3.506413e+05  -2.721088e+05
   4.511633e+05  -1.153771e+05
   2.273298e+05   4.712263e+04
  -4.572140e+04   1.065037e+05
  -1.052987e+05   3.486457e+04
   3.133323e+04  -6.786983e+04
   1.483676e+05  -5.387645e+04
   1.152659e+05   9.793269e+04
   9.028365e+03   2.198854e+05
  -2.832993e+04   1.433522e+05
   3.222273e+04  -6.167793e+04
   9.914058e+04  -1.354575e+05
   7.457844e+04   4.386179e+04
  -5.923464e+04   2.753191e+05
  -2.263535e+05   2.666548e+05
  -2.923049e+05  -1.979369e+03
  -1.573447e+05  -2.534860e+05
   1.189000e+05  -2.451948e+05
   3.035699e+05  -2.377314e+04
   1.869874e+05   1.730535e+05
  -1.696427e+05   1.781909e+05
  -4.377944e+05   1.020846e+04
  -3.365778e+05  -1.958016e+05
   6.261901e+04  -2.944167e+05
   3.933676e+05  -2.108421e+05
   3.687073e+05  -5.741287e+03
   6.949050e+04   1.433860e+05
  -1.596013e+05   1.012559e+05
  -8.299273e+04  -6.175652e+04
   1.854620e+05  -1.189608e+05
   3.190438e+05   6.273812e+04
   1.324242e+05   3.482395e+05
  -2.262467e+05   4.461119e+05
  -4.381193e+05   2.009680e+05
  -3.373075e+05  -2.304063e+05
  -4.463622e+04  -4.985850e+05
   1.962020e+05  -3.783662e+05
   2.518124e+05   9.622073e+03
   1.536940e+05   3.073945e+05
  -2.236313e+03   2.789144e+05
  -1.306223e+05   4.247747e+04
  -1.636647e+05  -1.004882e+05
  -8.788025e+04  -4.029518e+04
   3.228239e+03   3.575443e+04
  -1.489188e+04  -6.411975e+04
  -1.157549e+05  -2.554719e+05
  -1.015507e+05  -2.933632e+05
   1.384287e+05  -1.051960e+05
   4.088067e+05   1.275704e+05
   3.908123e+05   2.187199e+05
   5.206247e+04   1.775256e+05
  -2.718198e+05   1.148650e+05
  -2.779199e+05   6.603227e+04
  -5.922540e+04   1.247638e+03
   5.744709e+04  -6.102392e+04
  -3.834172e+04  -6.862752e+04
  -1.248841e+05  -3.965997e+04
   3.498488e+03  -4.061821e+04
   2.340068e+05  -5.401618e+04
   2.798323e+05   2.213520e+04
   4.155383e+04   1.959785e+05
  -2.861538e+05   2.957702e+05
  -4.392800e+05   1.528490e+05
  -3.247830e+05  -1.654689e+05
  -4.819679e+04  -3.937032e+05
   2.047640e+05  -3.471020e+05
   2.903202e+05  -1.067558e+05
   1.876387e+05   8.936360e+04
   1.487984e+04   9.946687e+04
  -6.532181e+04  -1.326568e+03
  -6.709873e+02  -3.257229e+04
   9.820147e+04   8.084507e+04
   8.319461e+04   2.149580e+05
  -6.266508e+04   1.763979e+05
  -2.004698e+05  -6.434314e+04
  -1.747432e+05  -2.992902e+05
   2.735762e+04  -2.875147e+05
   2.437677e+05  -2.428517e+04
   2.693307e+05   2.475067e+05
   5.537701e+04   3.015805e+05
  -2.125312e+05   1.455558e+05
  -2.816745e+05  -4.615702e+04
  -1.070234e+05  -1.430344e+05
   8.666792e+04  -1.392033e+05
   6.915141e+04  -8.047072e+04
  -1.102739e+05  -1.306205e+04
  -1.868537e+05   9.038142e+02
  -2.083519e+04  -7.938021e+04
   2.275140e+05  -1.830501e+05
   3.039734e+05  -1.594859e+05
   1.578456e+05   3.155242e+04
  -4.045343e+04   2.197991e+05
  -1.248888e+05   2.027365e+05
  -8.234339e+04   1.776433e+03
   7.684805e+03  -1.512612e+05
   8.075668e+04  -9.490746e+04
   1.037476e+05   7.845277e+04
   5.819502e+04   1.608810e+05
  -3.504814e+04   8.431462e+04
  -1.077692e+05  -3.161988e+04
  -1.084800e+05  -5.797220e+04
  -5.924423e+04  -6.182124e+03
  -1.605794e+04   1.657091e+04
   8.455707e+03  -4.588615e+04
   4.464513e+04  -1.303995e+05
   9.862542e+04  -1.250127e+05
   1.263154e+05   4.680550e+03
   8.224900e+04   1.610358e+05
  -2.666479e+04   1.968442e+05
  -1.357303e+05   6.716416e+04
  -1.579069e+05  -1.113069e+05
  -4.787514e+04  -1.757798e+05
   1.307265e+05  -8.603693e+04
   2.202166e+05   4.970670e+04
   1.157592e+05   1.101609e+05
  -8.972953e+04   7.897748e+04
  -1.739471e+05   2.020572e+04
  -4.144507e+04  -1.062611e+04
   1.415086e+05   4.031558e+03
   1.356435e+05   5.832592e+04
  -7.529501e+04   1.096707e+05
  -2.583368e+05   7.726510e+04
