
 $NMID
 id='ANONYMOUS ', fmtdat='(2E16.6)'
 volume=1.0
 tramp=1.0
 $END
   3.402026e+07   2.927283e+06
   1.951859e+07   1.979929e+07
  -4.086927e+06   2.145855e+07
  -1.587797e+07   1.034146e+07
  -1.049618e+07  -1.693799e+06
   8.632965e+05  -5.522891e+06
   6.107901e+06  -1.008721e+06
   3.155368e+06   5.499786e+06
  -2.686751e+06   7.283930e+06
  -6.004315e+06   2.470449e+06
  -4.726394e+06  -4.378764e+06
  -3.497420e+05  -6.354425e+06
   3.082069e+06  -1.447465e+06
   2.152428e+06   4.844078e+06
  -2.189757e+06   5.480431e+06
  -5.127716e+06  -2.904213e+05
  -3.117498e+06  -6.582676e+06
   2.349293e+06  -7.679694e+06
   6.623657e+06  -3.374119e+06
   6.571442e+06   2.210037e+06
   2.974435e+06   5.132661e+06
  -6.767171e+05   4.519470e+06
  -1.305732e+06   2.449525e+06
   8.783041e+05   1.755779e+06
   2.258842e+06   3.196171e+06
  -3.743343e+05   4.521232e+06
  -5.534982e+06   3.061472e+06
  -7.966263e+06  -8.127573e+05
  -4.684138e+06  -3.859658e+06
   1.222708e+06  -3.658631e+06
   4.085049e+06  -1.001004e+06
   1.965009e+06   1.524541e+06
  -1.965251e+06   2.037611e+06
  -3.669849e+06   2.386099e+05
  -2.193170e+06  -2.633865e+06
   5.051914e+05  -4.088101e+06
   2.041406e+06  -2.277013e+06
   1.486172e+06   1.306302e+06
  -1.597269e+05   2.596768e+06
  -8.624407e+05  -5.952460e+04
   3.780251e+05  -3.119994e+06
   2.108093e+06  -2.175486e+06
   1.836395e+06   1.875890e+06
  -8.284511e+05   3.683230e+06
  -3.259017e+06   5.346138e+05
  -2.582274e+06  -4.054783e+06
   1.108235e+06  -4.892001e+06
   4.752398e+06  -1.238094e+06
   5.208924e+06   3.102421e+06
   1.971819e+06   4.476568e+06
  -2.425921e+06   2.532997e+06
  -4.427932e+06  -5.431091e+05
  -2.515155e+06  -2.300011e+06
   1.229179e+06  -1.674144e+06
   3.061228e+06   3.575652e+05
   1.521833e+06   1.612470e+06
  -1.071569e+06   9.056916e+05
  -1.577043e+06  -6.362421e+05
   1.929711e+05  -1.035509e+06
   1.565110e+06   8.597578e+04
   5.269010e+05   1.282725e+06
  -1.939271e+06   1.196672e+06
  -3.177580e+06  -2.375197e+05
  -1.681185e+06  -2.250800e+06
   1.670213e+06  -3.758338e+06
   4.539591e+06  -3.450126e+06
   4.987724e+06  -7.273674e+05
   2.946835e+06   2.957288e+06
   2.509181e+05   4.852599e+06
  -1.085384e+06   3.819474e+06
  -8.287137e+05   1.685565e+06
  -4.857155e+05   8.565032e+05
  -1.254742e+06   1.299803e+06
  -2.555454e+06   1.019300e+06
  -2.866282e+06  -8.469004e+05
  -1.535169e+06  -2.690465e+06
   6.188200e+05  -2.449935e+06
   2.107382e+06  -9.332734e+04
   1.818608e+06   2.360729e+06
  -2.399420e+05   2.855210e+06
  -2.659622e+06   1.043444e+06
  -3.459996e+06  -1.602712e+06
  -1.936236e+06  -3.138985e+06
   4.332049e+05  -2.805978e+06
   1.583264e+06  -1.541320e+06
   1.291690e+06  -7.795840e+05
   1.239000e+06  -8.277993e+05
   2.505664e+06  -7.037883e+05
   3.865727e+06   4.851762e+05
   3.195982e+06   2.409304e+06
   1.728135e+05   3.817437e+06
  -3.097162e+06   3.626975e+06
  -4.136446e+06   1.727217e+06
  -2.447611e+06  -8.165442e+05
   1.695533e+05  -2.284681e+06
   1.397850e+06  -1.658904e+06
   5.036181e+05   1.879524e+05
  -1.158951e+06   1.166995e+06
  -1.688524e+06   2.983779e+05
  -6.464449e+05  -1.088129e+06
   6.227735e+05  -1.076965e+06
   6.480048e+05   2.806155e+05
  -5.389781e+05   9.932397e+05
  -1.590532e+06  -2.851396e+05
  -1.311290e+06  -2.509387e+06
   3.435601e+05  -3.431040e+06
   2.393452e+06  -2.023519e+06
   3.506517e+06   6.479888e+05
   2.809892e+06   2.624990e+06
   6.723927e+05   2.754626e+06
  -1.292089e+06   1.445455e+06
  -1.594885e+06   1.345707e+05
  -4.694012e+05  -4.492242e+04
   3.483448e+05   6.996675e+05
  -3.062157e+05   1.146939e+06
  -1.605068e+06   5.060617e+05
  -1.801560e+06  -6.677894e+05
  -4.411913e+05  -1.180685e+06
   1.045558e+06  -5.930706e+05
   9.892240e+05   3.832834e+05
  -6.543823e+05   7.281341e+05
  -2.233422e+06   4.543601e+04
  -2.044725e+06  -1.215627e+06
  -7.078438e+03  -2.101972e+06
   2.196357e+06  -1.790649e+06
   2.667667e+06  -3.378863e+05
   1.124557e+06   1.108918e+06
  -8.213434e+05   1.267009e+06
  -1.309079e+06   1.199484e+05
  -8.467919e+04  -9.421860e+05
   1.403951e+06  -6.605546e+05
   1.633740e+06   6.493072e+05
   4.805792e+05   1.522305e+06
  -8.749568e+05   1.071269e+06
  -1.211645e+06  -8.703074e+04
  -3.719623e+05  -6.516447e+05
   6.535822e+05  -6.981905e+04
   6.524952e+05   9.763682e+05
  -5.926493e+05   1.326589e+06
  -1.928532e+06   4.588395e+05
  -1.905324e+06  -1.029812e+06
  -3.602354e+05  -1.941660e+06
   1.302638e+06  -1.549902e+06
   1.602830e+06  -2.637291e+05
   5.410289e+05   7.772825e+05
  -5.790124e+05   8.024176e+05
  -6.940654e+05   8.087542e+04
   8.705059e+03  -4.936309e+05
   5.717564e+05  -3.894522e+05
   3.898666e+05   6.569221e+04
  -2.541725e+05   1.376483e+05
  -5.464843e+05  -4.381734e+05
   6.374697e+04  -1.076695e+06
   1.256543e+06  -8.856901e+05
   1.976431e+06   3.624262e+05
   1.388095e+06   1.837512e+06
  -1.982639e+05   2.347221e+06
  -1.541109e+06   1.480653e+06
  -1.725140e+06   3.140094e+02
  -1.029160e+06  -9.400796e+05
  -4.093262e+05  -8.963753e+05
  -3.363404e+05  -4.068367e+05
  -4.118491e+05  -2.598121e+05
  -4.509878e+04  -6.175228e+05
   7.716384e+05  -8.876812e+05
   1.403853e+06  -4.175455e+05
   1.143986e+06   6.994900e+05
  -1.240996e+05   1.533641e+06
  -1.643320e+06   1.143354e+06
  -2.209389e+06  -4.143122e+05
  -1.175780e+06  -1.961258e+06
   8.217983e+05  -2.234040e+06
   2.308682e+06  -1.078337e+06
   2.297596e+06   4.616131e+05
   1.126837e+06   1.237615e+06
  -5.300373e+04   1.065491e+06
  -4.705677e+05   6.732568e+05
  -3.050765e+05   7.366658e+05
  -2.308554e+05   1.127375e+06
  -6.161938e+05   1.121888e+06
  -1.170378e+06   2.611348e+05
  -1.250665e+06  -1.052562e+06
  -5.187187e+05  -1.826270e+06
   6.145353e+05  -1.381445e+06
   1.241884e+06  -3.220863e+04
   8.104852e+05   1.153293e+06
  -2.624255e+05   1.309119e+06
  -9.639262e+05   5.018555e+05
  -7.308490e+05  -4.670412e+05
  -5.906540e+03  -8.954905e+05
   3.321833e+05  -7.465653e+05
  -2.479324e+03  -4.586651e+05
  -3.890545e+05  -3.655851e+05
  -3.881237e+04  -3.871188e+05
   1.035178e+06  -2.165698e+05
   1.885128e+06   2.919913e+05
   1.539770e+06   9.297250e+05
   6.101931e+04   1.274822e+06
  -1.398592e+06   1.038172e+06
  -1.695263e+06   3.414175e+05
  -8.167476e+05  -3.206939e+05
   2.024048e+05  -4.688176e+05
   4.420485e+05  -8.613956e+04
  -2.821202e+04   3.245027e+05
  -4.756317e+05   2.298109e+05
  -4.453988e+05  -3.338806e+05
  -1.416109e+05  -7.415720e+05
   6.505662e+03  -4.830995e+05
  -1.323587e+05   1.663077e+05
  -3.353351e+05   3.845480e+05
  -2.827932e+05  -2.080930e+05
   1.824192e+05  -9.919101e+05
   8.612697e+05  -1.002270e+06
   1.194713e+06  -7.758436e+04
   6.946045e+05   9.024244e+05
  -4.152171e+05   9.951904e+05
  -1.153471e+06   2.103188e+05
  -6.939409e+05  -5.877753e+05
   6.439871e+05  -6.406980e+05
   1.565197e+06   2.422075e+04
   1.104478e+06   7.792224e+05
  -3.477103e+05   1.023578e+06
  -1.447421e+06   6.157138e+05
  -1.270959e+06  -8.934778e+04
  -1.884153e+05  -5.115802e+05
   6.050952e+05  -3.084131e+05
   3.315870e+05   2.559569e+05
  -6.211586e+05   4.612072e+05
  -1.144271e+06  -1.576056e+05
  -5.600757e+05  -1.196331e+06
   6.886688e+05  -1.623541e+06
   1.501279e+06  -7.933164e+05
   1.216835e+06   7.765359e+05
   1.828505e+05   1.765770e+06
  -7.144701e+05   1.310945e+06
  -9.078873e+05  -1.063898e+05
  -4.832102e+05  -1.139907e+06
   1.226655e+05  -9.763680e+05
   5.158333e+05  -1.129060e+05
   5.166800e+05   3.718465e+05
   2.300307e+05   1.442965e+05
   1.792459e+04  -1.094707e+05
   1.676506e+05   2.574735e+05
   4.556292e+05   9.271032e+05
   2.688562e+05   1.051661e+06
  -6.006159e+05   3.832831e+05
  -1.450173e+06  -4.544589e+05
  -1.322414e+06  -8.032155e+05
  -1.860168e+05  -6.628299e+05
   8.990607e+05  -4.108516e+05
   9.793623e+05  -2.055764e+05
   2.891218e+05   2.256195e+04
  -1.690187e+05   2.169492e+05
   4.840428e+04   2.248923e+05
   3.468757e+05   1.228487e+05
   1.763148e+04   1.405061e+05
  -7.379528e+05   2.104445e+05
  -1.012609e+06  -4.441854e+04
  -2.956216e+05  -6.842535e+05
   9.124620e+05  -1.105157e+06
   1.615938e+06  -6.543570e+05
   1.279251e+06   4.939078e+05
   2.275242e+05   1.390012e+06
  -7.412412e+05   1.301888e+06
  -1.033837e+06   4.610140e+05
  -6.551050e+05  -2.732670e+05
  -9.305284e+04  -3.546978e+05
   1.449199e+05  -3.047857e+04
  -4.428402e+04   6.360607e+04
  -3.209874e+05  -3.301428e+05
  -2.645959e+05  -7.821179e+05
   1.989772e+05  -6.456393e+05
   6.862180e+05   1.720842e+05
   6.751281e+05   9.908070e+05
   1.962573e+04   1.012185e+06
  -7.928154e+05   1.722508e+05
  -9.892519e+05  -7.809693e+05
  -2.804687e+05  -1.068823e+06
   7.224944e+05  -6.014766e+05
   1.056212e+06   1.112341e+05
   4.608125e+05   5.602211e+05
  -2.936582e+05   5.910461e+05
  -3.171754e+05   3.273680e+05
   3.096128e+05   2.358578e+04
   6.514334e+05  -2.470614e+04
   1.149858e+05   2.931120e+05
  -8.080589e+05   6.614062e+05
  -1.166243e+06   5.508279e+05
  -6.662391e+05  -1.422705e+05
   1.130579e+05  -8.205463e+05
   4.951076e+05  -7.903710e+05
   3.614616e+05  -9.460259e+04
   1.897165e+04   4.997583e+05
  -2.561362e+05   3.892370e+05
  -3.560355e+05  -2.024811e+05
  -2.327543e+05  -5.685108e+05
   8.142854e+04  -3.666109e+05
   3.825746e+05   7.288973e+04
   4.321346e+05   2.425738e+05
   2.272864e+05   6.112072e+04
   5.687640e+03  -1.078229e+05
  -6.064959e+04   4.860863e+04
  -6.330910e+04   3.963835e+05
  -1.783582e+05   4.953293e+05
  -3.693404e+05   1.134330e+05
  -3.805581e+05  -4.565584e+05
  -4.720522e+04  -6.615101e+05
   4.353153e+05  -2.795789e+05
   6.136785e+05   3.247020e+05
   2.163764e+05   5.898280e+05
  -4.830155e+05   3.382924e+05
  -8.302040e+05  -1.157354e+05
  -4.456125e+05  -3.779794e+05
   2.992439e+05  -3.441877e+05
   6.202779e+05  -1.599738e+05
   2.019922e+05   3.037904e+03
  -4.085823e+05   3.016510e+04
  -4.332025e+05  -1.242369e+05
   2.094924e+05  -3.293499e+05
   8.097601e+05  -2.705797e+05
