
 $NMID
 id='ANONYMOUS ', fmtdat='(2E16.6)'
 volume=1.0
 tramp=1.0
 $END
  -8.045540e+06   7.709905e+05
  -6.001400e+06  -2.956568e+06
  -8.480679e+05  -5.083737e+06
   3.086549e+06  -4.160007e+06
   3.173949e+06  -1.020320e+06
   5.624772e+05   1.472068e+06
  -1.646164e+06   1.135751e+06
  -1.604391e+06  -1.166090e+06
   5.010834e+04  -2.527551e+06
   1.479080e+06  -1.353494e+06
   1.502089e+06   9.444352e+05
   3.574496e+05   1.794688e+06
  -7.632171e+05   4.190874e+05
  -7.751114e+05  -1.516267e+06
   3.418395e+05  -1.909442e+06
   1.443666e+06  -3.816025e+05
   1.292125e+06   1.570087e+06
  -1.231835e+05   2.212258e+06
  -1.508523e+06   1.193139e+06
  -1.654349e+06  -3.433875e+05
  -7.228562e+05  -1.070861e+06
   5.126208e+04  -7.932253e+05
  -1.703472e+05  -4.112762e+05
  -9.101691e+05  -7.050677e+05
  -9.632258e+05  -1.412518e+06
   2.254640e+05  -1.628370e+06
   1.846804e+06  -9.058584e+05
   2.425017e+06   2.737712e+05
   1.312652e+06   1.039282e+06
  -5.142285e+05   9.071195e+05
  -1.337485e+06   8.158007e+04
  -4.757987e+05  -7.376224e+05
   1.004517e+06  -8.167665e+05
   1.527336e+06   2.616855e+04
   7.394566e+05   1.110060e+06
  -3.124033e+05   1.394214e+06
  -5.869389e+05   5.674779e+05
  -1.438711e+05  -4.794294e+05
   2.533029e+05  -5.725256e+05
   1.536447e+05   3.649115e+05
  -2.771945e+05   1.171355e+06
  -6.557533e+05   8.182111e+05
  -6.858866e+05  -3.492173e+05
  -2.342585e+05  -1.019512e+06
   4.707775e+05  -4.529459e+05
   7.591696e+05   7.022921e+05
   9.532101e+04   1.192377e+06
  -1.121433e+06   5.142667e+05
  -1.703665e+06  -6.680617e+05
  -9.139483e+05  -1.312575e+06
   6.223770e+05  -9.877978e+05
   1.514578e+06  -1.117387e+05
   1.054621e+06   5.640973e+05
  -1.355871e+05   6.017813e+05
  -8.655287e+05   1.435431e+05
  -5.840241e+05  -2.956027e+05
   2.023222e+05  -2.940349e+05
   5.677465e+05   1.108140e+05
   1.422658e+05   4.681383e+05
  -5.239295e+05   3.613680e+05
  -5.764264e+05  -1.497827e+05
   1.499208e+05  -5.449012e+05
   8.636433e+05  -3.356317e+05
   6.695969e+05   4.276610e+05
  -3.949982e+05   1.131455e+06
  -1.382340e+06   1.111961e+06
  -1.485462e+06   2.607917e+05
  -8.342809e+05  -8.425677e+05
  -1.587672e+05  -1.439636e+06
   1.030046e+05  -1.281823e+06
   1.371310e+05  -7.904925e+05
   3.153374e+05  -5.013200e+05
   6.971471e+05  -4.356381e+05
   1.009712e+06  -1.717399e+05
   9.468785e+05   4.682868e+05
   4.246934e+05   1.023291e+06
  -3.227286e+05   8.653757e+05
  -8.221887e+05  -9.243365e+03
  -6.698059e+05  -8.682036e+05
   7.930059e+04  -9.748732e+05
   8.548719e+05  -3.088053e+05
   1.043905e+06   5.051339e+05
   5.709366e+05   8.732007e+05
  -5.690237e+04   7.307028e+05
  -3.238018e+05   4.363167e+05
  -2.616972e+05   3.231936e+05
  -3.450575e+05   3.911828e+05
  -8.324212e+05   3.582396e+05
  -1.331203e+06  -3.560873e+04
  -1.156833e+06  -7.304500e+05
  -1.457234e+05  -1.307953e+06
   1.016269e+06  -1.297041e+06
   1.408391e+06  -6.087769e+05
   8.053509e+05   3.037553e+05
  -1.121304e+05   7.801283e+05
  -4.918054e+05   5.331231e+05
  -1.461371e+05  -7.637243e+04
   3.938470e+05  -3.904444e+05
   5.360216e+05  -1.276799e+05
   2.011792e+05   3.243318e+05
  -2.105979e+05   3.633344e+05
  -2.669538e+05  -9.143360e+04
   1.149112e+05  -4.454350e+05
   6.037727e+05  -1.063119e+05
   6.988687e+05   7.633821e+05
   1.445932e+05   1.332987e+06
  -7.711951e+05   9.774461e+05
  -1.366435e+06  -5.358607e+04
  -1.148725e+06  -9.127536e+05
  -3.059483e+05  -1.016030e+06
   4.462599e+05  -5.296262e+05
   5.585030e+05  -5.806685e+04
   1.637910e+05   3.446016e+03
  -1.317364e+05  -2.324475e+05
   6.033943e+04  -3.803344e+05
   4.983430e+05  -2.094742e+05
   6.159129e+05   1.506669e+05
   1.963755e+05   3.639195e+05
  -3.383457e+05   2.258784e+05
  -3.679178e+05  -1.242516e+05
   2.186862e+05  -3.170173e+05
   8.401965e+05  -9.837230e+04
   8.079342e+05   4.106402e+05
   6.213169e+04   7.930855e+05
  -7.482976e+05   7.003474e+05
  -9.273951e+05   1.811895e+05
  -4.113229e+05  -3.353747e+05
   2.314379e+05  -4.231460e+05
   4.050154e+05  -7.199185e+04
   3.098847e+04   2.917777e+05
  -4.595154e+05   2.450884e+05
  -5.804485e+05  -1.753583e+05
  -2.278026e+05  -5.163124e+05
   2.597474e+05  -4.220146e+05
   4.334308e+05  -2.997422e+04
   1.668572e+05   2.059419e+05
  -2.083233e+05   3.627729e+04
  -2.299200e+05  -3.264428e+05
   1.972203e+05  -4.621046e+05
   6.640679e+05  -1.772907e+05
   6.706000e+05   3.277842e+05
   1.622691e+05   6.583143e+05
  -4.049399e+05   5.637024e+05
  -5.423466e+05   1.413017e+05
  -2.148604e+05  -2.461440e+05
   1.768164e+05  -2.915215e+05
   2.475754e+05  -3.129373e+04
   1.547674e+03   2.047904e+05
  -2.330640e+05   1.634827e+05
  -1.835087e+05  -4.857819e+04
   8.197210e+04  -1.089482e+05
   2.328628e+05   1.148440e+05
   2.654980e+04   3.846150e+05
  -4.171834e+05   3.454964e+05
  -6.987469e+05  -8.479043e+04
  -5.176288e+05  -6.117943e+05
   2.487258e+04  -8.275567e+05
   5.165403e+05  -5.681996e+05
   6.302844e+05  -4.782758e+04
   4.099105e+05   3.363944e+05
   1.595424e+05   3.595991e+05
   9.042609e+04   1.603112e+05
   1.226320e+05   6.280755e+04
   3.287839e+04   1.973857e+05
  -2.455333e+05   3.421730e+05
  -5.038171e+05   1.924264e+05
  -4.446735e+05  -2.407670e+05
   6.480409e+03  -5.790397e+05
   5.680379e+05  -4.536187e+05
   7.967426e+05   1.022026e+05
   4.643445e+05   6.636314e+05
  -2.206707e+05   8.001142e+05
  -7.708469e+05   4.433446e+05
  -8.299734e+05  -9.225740e+04
  -4.550617e+05  -4.187114e+05
  -1.271190e+04  -4.114196e+05
   1.840431e+05  -2.676388e+05
   1.332857e+05  -2.461289e+05
   7.058701e+04  -3.645070e+05
   1.789788e+05  -3.850519e+05
   3.872486e+05  -1.107088e+05
   4.481624e+05   3.443534e+05
   2.101211e+05   6.272241e+05
  -1.924281e+05   4.905455e+05
  -4.355051e+05   3.735761e+04
  -3.140605e+05  -3.776467e+05
   4.667606e+04  -4.652001e+05
   3.110574e+05  -2.229318e+05
   2.723072e+05   1.132403e+05
   4.946426e+04   3.003418e+05
  -7.301510e+04   2.799511e+05
   1.898220e+04   1.752629e+05
   1.377502e+05   1.257261e+05
   1.792137e+04   1.384403e+05
  -3.502078e+05   1.043602e+05
  -6.543711e+05  -5.598368e+04
  -5.584596e+05  -2.863465e+05
  -6.584748e+04  -4.351558e+05
   4.457000e+05  -3.878832e+05
   5.798161e+05  -1.670586e+05
   3.042140e+05   7.330195e+04
  -4.829808e+04   1.594964e+05
  -1.499656e+05   5.136245e+04
   4.184588e+03  -9.839236e+04
   1.670407e+05  -8.575127e+04
   1.604664e+05   1.060482e+05
   4.592794e+04   2.565772e+05
  -1.000422e+04   1.647208e+05
   4.988870e+04  -7.448725e+04
   1.319554e+05  -1.520934e+05
   1.101043e+05   7.070968e+04
  -5.705324e+04   3.588571e+05
  -2.850691e+05   3.645588e+05
  -3.950285e+05   4.132208e+04
  -2.385290e+05  -2.992180e+05
   1.228709e+05  -3.395112e+05
   3.830065e+05  -8.175220e+04
   2.500498e+05   1.972332e+05
  -2.088191e+05   2.424735e+05
  -5.601027e+05   3.077738e+04
  -4.290047e+05  -2.542107e+05
   8.805503e+04  -3.873098e+05
   5.086039e+05  -2.684964e+05
   4.682383e+05  -9.158976e+02
   8.369801e+04   1.828923e+05
  -2.062962e+05   1.275596e+05
  -1.151259e+05  -7.678791e+04
   2.162898e+05  -1.604101e+05
   3.974091e+05   4.900128e+04
   1.983040e+05   4.111468e+05
  -2.291240e+05   5.678411e+05
  -5.166448e+05   2.901722e+05
  -4.376193e+05  -2.561863e+05
  -9.257851e+04  -6.195306e+05
   2.305797e+05  -4.828048e+05
   3.279047e+05   1.129244e+04
   2.017270e+05   3.946550e+05
  -1.507158e+04   3.581214e+05
  -1.777728e+05   5.528530e+04
  -1.977891e+05  -1.284999e+05
  -9.323243e+04  -5.461171e+04
  -2.717703e+02   4.354640e+04
  -4.812860e+04  -7.438926e+04
  -1.701678e+05  -3.117535e+05
  -1.263084e+05  -3.707989e+05
   1.880802e+05  -1.524211e+05
   5.194439e+05   1.350725e+05
   4.927511e+05   2.630022e+05
   7.994827e+04   2.278993e+05
  -3.202885e+05   1.556525e+05
  -3.466825e+05   9.258323e+04
  -9.436648e+04   7.387199e+03
   5.917037e+04  -7.599522e+04
  -3.391958e+04  -8.965677e+04
  -1.367524e+05  -5.121640e+04
  -1.418898e+03  -4.934133e+04
   2.708361e+05  -7.512061e+04
   3.523922e+05   4.135851e+03
   9.274360e+04   2.262019e+05
  -3.136006e+05   3.880650e+05
  -5.418894e+05   2.467690e+05
  -4.350218e+05  -1.556370e+05
  -9.526108e+04  -4.845195e+05
   2.342578e+05  -4.644522e+05
   3.527658e+05  -1.672239e+05
   2.336898e+05   9.572976e+04
   3.082172e+04   1.214050e+05
  -6.129297e+04   1.162333e+02
   1.280282e+04  -3.464465e+04
   1.257268e+05   1.085975e+05
   1.098486e+05   2.715086e+05
  -6.255919e+04   2.240037e+05
  -2.422888e+05  -6.165453e+04
  -2.387197e+05  -3.436503e+05
  -6.341857e+03  -3.468972e+05
   2.790764e+05  -5.563629e+04
   3.493731e+05   2.695980e+05
   1.053039e+05   3.662327e+05
  -2.431471e+05   2.103521e+05
  -3.633733e+05  -2.541207e+04
  -1.640635e+05  -1.778000e+05
   9.015753e+04  -1.986960e+05
   9.417831e+04  -1.187012e+05
  -1.203214e+05  -1.128236e+04
  -2.309388e+05   1.556143e+04
  -4.121247e+04  -9.724887e+04
   2.730391e+05  -2.453912e+05
   3.911403e+05  -2.231506e+05
   2.251394e+05   2.564539e+04
  -2.665081e+04   2.829701e+05
  -1.483362e+05   2.819294e+05
  -1.097581e+05   3.304411e+04
  -6.071445e+03  -1.780290e+05
   8.432713e+04  -1.326278e+05
   1.253230e+05   7.706248e+04
   8.799590e+04   1.953974e+05
  -2.318968e+04   1.180319e+05
  -1.327547e+05  -2.476519e+04
  -1.527210e+05  -6.905329e+04
  -8.238356e+04  -1.051558e+04
  -3.943013e+03   2.710345e+04
   2.550710e+04  -3.681136e+04
   3.456647e+04  -1.424141e+05
   7.430925e+04  -1.565494e+05
   1.287120e+05  -2.191350e+04
   1.204287e+05   1.634340e+05
   5.099500e+03   2.267372e+05
  -1.525607e+05   9.680534e+04
  -2.095444e+05  -1.103372e+05
  -7.687316e+04  -2.064528e+05
   1.602131e+05  -1.246009e+05
   2.835573e+05   3.198935e+04
   1.575217e+05   1.250304e+05
  -9.709712e+04   1.155641e+05
  -2.079217e+05   5.490499e+04
  -6.075050e+04   2.975715e+03
   1.522231e+05  -2.952833e+03
   1.541226e+05   5.160902e+04
  -8.122895e+04   1.226069e+05
  -2.960384e+05   1.007097e+05
