
 $NMID
 id='ANONYMOUS ', fmtdat='(2E16.6)'
 volume=1.0
 tramp=1.0
 $END
   1.814793e+07  -7.576701e+05
   1.255238e+07   8.162184e+06
   4.052032e+05   1.160887e+07
  -7.678998e+06   7.897790e+06
  -6.627189e+06   8.862235e+05
  -4.549493e+05  -3.305618e+06
   3.721610e+06  -1.709298e+06
   2.869803e+06   2.909353e+06
  -7.779922e+05   5.070199e+06
  -3.391722e+06   2.332096e+06
  -3.013520e+06  -2.278018e+06
  -4.619162e+05  -3.797748e+06
   1.741759e+06  -8.267933e+05
   1.482805e+06   3.145679e+06
  -9.823172e+05   3.778025e+06
  -3.071298e+06   4.517927e+05
  -2.408744e+06  -3.508471e+06
   6.465763e+05  -4.570571e+06
   3.373912e+06  -2.291430e+06
   3.554597e+06   8.982655e+05
   1.604583e+06   2.460694e+06
  -1.542282e+05   2.003996e+06
  -2.595682e+04   1.114369e+06
   1.349093e+06   1.351173e+06
   1.698078e+06   2.548160e+06
  -3.954692e+05   3.100974e+06
  -3.626031e+06   1.848570e+06
  -4.937214e+06  -5.521481e+05
  -2.762095e+06  -2.250793e+06
   9.693045e+05  -2.024508e+06
   2.690264e+06  -3.157598e+05
   1.045588e+06   1.312895e+06
  -1.786173e+06   1.470734e+06
  -2.780546e+06  -5.292769e+04
  -1.341711e+06  -2.036478e+06
   6.083898e+05  -2.650698e+06
   1.208040e+06  -1.180137e+06
   4.647614e+05   9.144171e+05
  -3.640942e+05   1.301369e+06
  -3.386944e+05  -4.761738e+05
   4.801080e+05  -2.189146e+06
   1.326049e+06  -1.531567e+06
   1.316234e+06   9.066126e+05
   1.423476e+05   2.234231e+06
  -1.372443e+06   8.048695e+05
  -1.666068e+06  -1.795740e+06
   3.185746e+04  -2.705435e+06
   2.511094e+06  -1.016420e+06
   3.421982e+06   1.547106e+06
   1.638712e+06   2.734071e+06
  -1.397515e+06   1.861719e+06
  -2.999992e+06  -1.246197e+04
  -1.909788e+06  -1.313031e+06
   5.261993e+05  -1.200438e+06
   1.869693e+06  -8.839547e+04
   1.098588e+06   8.065661e+05
  -5.415869e+05   6.169309e+05
  -1.101218e+06  -3.257849e+05
  -8.816984e+04  -8.947632e+05
   1.111407e+06  -4.290772e+05
   9.074610e+05   5.807958e+05
  -6.469181e+05   1.061857e+06
  -1.871371e+06   4.005679e+05
  -1.272110e+06  -1.062803e+06
   8.610406e+05  -2.275915e+06
   2.767556e+06  -2.166118e+06
   2.999185e+06  -4.942553e+05
   1.716493e+06   1.723847e+06
   2.434117e+05   2.934149e+06
  -4.131601e+05   2.515940e+06
  -4.061416e+05   1.376127e+06
  -5.290232e+05   7.799790e+05
  -1.156582e+06   8.033053e+05
  -1.843608e+06   4.382245e+05
  -1.842520e+06  -7.923413e+05
  -8.665160e+05  -1.932625e+06
   5.921797e+05  -1.665791e+06
   1.556551e+06   2.313055e+04
   1.258898e+06   1.690581e+06
  -1.861129e+05   1.909657e+06
  -1.708333e+06   6.181534e+05
  -2.105322e+06  -1.016046e+06
  -1.157088e+06  -1.813698e+06
   1.590890e+05  -1.554259e+06
   7.479005e+05  -9.061051e+05
   6.125804e+05  -5.982229e+05
   7.251127e+05  -6.960806e+05
   1.643247e+06  -6.238820e+05
   2.584700e+06   1.554930e+05
   2.200307e+06   1.491578e+06
   2.145382e+05   2.550787e+06
  -2.014900e+06   2.475556e+06
  -2.748046e+06   1.144793e+06
  -1.583050e+06  -5.967051e+05
   1.995955e+05  -1.517568e+06
   9.726823e+05  -1.042052e+06
   3.143973e+05   1.586932e+05
  -7.834999e+05   7.729867e+05
  -1.098389e+06   2.239400e+05
  -4.064062e+05  -6.811388e+05
   4.460957e+05  -7.194059e+05
   5.186243e+05   2.016547e+05
  -2.896360e+05   8.349437e+05
  -1.186652e+06   8.443576e+04
  -1.214934e+06  -1.582900e+06
  -7.273693e+04  -2.535354e+06
   1.580700e+06  -1.720364e+06
   2.559403e+06   2.549245e+05
   2.085486e+06   1.810415e+06
   5.188977e+05   1.940172e+06
  -8.738456e+05   9.897328e+05
  -1.077395e+06   8.290224e+04
  -3.140274e+05  -2.333115e+04
   2.533423e+05   4.654109e+05
  -1.466886e+05   7.660965e+05
  -1.020933e+06   3.923497e+05
  -1.225003e+06  -3.616627e+05
  -3.582354e+05  -7.690932e+05
   6.952615e+05  -4.457634e+05
   7.253690e+05   2.552212e+05
  -4.234752e+05   5.930243e+05
  -1.598600e+06   1.404409e+05
  -1.508138e+06  -8.194761e+05
  -6.990111e+04  -1.509409e+06
   1.478286e+06  -1.300203e+06
   1.807377e+06  -2.895203e+05
   7.809554e+05   7.007297e+05
  -4.960209e+05   8.374529e+05
  -8.298959e+05   1.130982e+05
  -6.024670e+04  -6.008082e+05
   9.214340e+05  -4.685816e+05
   1.128565e+06   3.867457e+05
   3.952477e+05   1.032844e+06
  -5.584285e+05   7.979050e+05
  -8.594374e+05   6.742429e+03
  -3.097068e+05  -4.408571e+05
   4.241532e+05  -8.787738e+04
   4.606519e+05   6.302483e+05
  -3.728676e+05   8.964306e+05
  -1.283310e+06   3.362345e+05
  -1.291264e+06  -6.556079e+05
  -2.841561e+05  -1.291050e+06
   8.295577e+05  -1.074068e+06
   1.073722e+06  -2.245838e+05
   3.978991e+05   5.173550e+05
  -3.756905e+05   5.701586e+05
  -4.949207e+05   5.031403e+04
  -6.661150e+03  -3.945689e+05
   4.364219e+05  -3.099272e+05
   3.357915e+05   8.086645e+04
  -1.557599e+05   1.824231e+05
  -4.230297e+05  -2.367733e+05
  -2.513231e+04  -7.315679e+05
   8.137960e+05  -6.409456e+05
   1.339811e+06   1.918997e+05
   9.715477e+05   1.201227e+06
  -9.263437e+04   1.591809e+06
  -1.031713e+06   1.055838e+06
  -1.206388e+06   4.178388e+04
  -7.422111e+05  -6.686029e+05
  -2.673610e+05  -6.776170e+05
  -1.696478e+05  -2.917100e+05
  -2.438062e+05  -1.207995e+05
  -5.457724e+04  -3.747444e+05
   4.840191e+05  -6.281710e+05
   9.531209e+05  -3.358149e+05
   8.150318e+05   4.670331e+05
  -4.439804e+04   1.084596e+06
  -1.098043e+06   8.336218e+05
  -1.517398e+06  -2.309148e+05
  -8.623931e+05  -1.302175e+06
   4.690689e+05  -1.540711e+06
   1.520740e+06  -8.152923e+05
   1.597925e+06   2.357379e+05
   8.408201e+05   8.404283e+05
  -9.248737e+03   7.834875e+05
  -3.603314e+05   4.896318e+05
  -2.502178e+05   4.641958e+05
  -1.450473e+05   7.089758e+05
  -3.682953e+05   7.436092e+05
  -7.588063e+05   1.990954e+05
  -8.513779e+05  -6.844346e+05
  -3.778473e+05  -1.221006e+06
   3.944175e+05  -9.401955e+05
   8.463076e+05  -5.138689e+04
   5.905090e+05   7.493637e+05
  -1.196934e+05   9.005878e+05
  -6.245251e+05   4.119770e+05
  -5.274179e+05  -2.423093e+05
  -7.687558e+04  -5.929579e+05
   1.644276e+05  -5.433467e+05
  -1.851666e+04  -3.394711e+05
  -2.527431e+05  -2.424976e+05
  -2.572781e+04  -2.588699e+05
   6.771009e+05  -1.821929e+05
   1.255381e+06   1.342115e+05
   1.064512e+06   5.782236e+05
   1.095294e+05   8.527168e+05
  -8.808908e+05   7.368294e+05
  -1.135490e+06   2.909044e+05
  -5.903415e+05  -1.672979e+05
   1.003435e+05  -3.093119e+05
   2.935287e+05  -8.923933e+04
  -1.194384e+04   1.853082e+05
  -3.232778e+05   1.462298e+05
  -2.983416e+05  -2.143438e+05
  -7.292844e+04  -4.862481e+05
   2.548164e+04  -3.109243e+05
  -9.948495e+04   1.327945e+05
  -2.546664e+05   2.797167e+05
  -2.030664e+05  -1.305702e+05
   1.214522e+05  -6.708410e+05
   5.532695e+05  -6.876507e+05
   7.552811e+05  -7.754916e+04
   4.488373e+05   5.741381e+05
  -2.441537e+05   6.489843e+05
  -7.340712e+05   1.450039e+05
  -4.661212e+05  -3.896057e+05
   4.171908e+05  -4.525114e+05
   1.076087e+06  -2.102024e+04
   8.020643e+05   5.187211e+05
  -1.997531e+05   7.366364e+05
  -9.958757e+05   4.789502e+05
  -8.984644e+05  -3.007162e+04
  -1.478229e+05  -3.577910e+05
   4.080420e+05  -2.357846e+05
   2.248897e+05   1.519635e+05
  -4.160694e+05   2.994953e+05
  -7.578874e+05  -1.074263e+05
  -3.626355e+05  -7.921590e+05
   4.636604e+05  -1.073100e+06
   1.001690e+06  -5.269131e+05
   8.221808e+05   5.154022e+05
   1.408531e+05   1.191345e+06
  -4.718933e+05   9.104420e+05
  -6.310275e+05  -4.186997e+04
  -3.658699e+05  -7.710989e+05
   5.031803e+04  -6.916691e+05
   3.456107e+05  -1.008255e+05
   3.714834e+05   2.583998e+05
   1.749739e+05   1.133224e+05
   6.879004e+03  -8.516968e+04
   9.628992e+04   1.394763e+05
   3.139794e+05   6.069055e+05
   2.189716e+05   7.264665e+05
  -3.743168e+05   2.895382e+05
  -9.893654e+05  -2.892281e+05
  -9.281135e+05  -5.369349e+05
  -1.414805e+05  -4.407763e+05
   6.196032e+05  -2.750372e+05
   6.703122e+05  -1.563318e+05
   1.850646e+05  -1.212430e+04
  -1.183867e+05   1.413102e+05
   5.267617e+04   1.772439e+05
   2.539496e+05   1.070676e+05
   3.689110e+03   8.994499e+04
  -5.159684e+05   1.252904e+05
  -6.743035e+05  -2.249268e+04
  -1.717127e+05  -4.293845e+05
   6.157414e+05  -7.240470e+05
   1.049108e+06  -4.509480e+05
   8.241769e+05   3.119480e+05
   1.568585e+05   9.295389e+05
  -4.692538e+05   8.795079e+05
  -6.776267e+05   3.057137e+05
  -4.393693e+05  -1.918413e+05
  -5.665463e+04  -2.302743e+05
   1.104441e+05   6.072965e+03
  -3.076032e+04   6.606978e+04
  -2.370107e+05  -2.169981e+05
  -1.985318e+05  -5.289544e+05
   1.282801e+05  -4.283158e+05
   4.586628e+05   1.279651e+05
   4.396847e+05   6.664511e+05
  -2.474474e+03   6.603824e+05
  -5.316874e+05   9.074076e+04
  -6.508653e+05  -5.315029e+05
  -1.841389e+05  -7.029812e+05
   4.711615e+05  -3.904993e+05
   6.932505e+05   6.258624e+04
   3.116960e+05   3.450667e+05
  -1.748674e+05   3.785758e+05
  -1.856668e+05   2.306485e+05
   2.248122e+05   3.465506e+04
   4.402696e+05  -1.688629e+04
   7.505752e+04   1.861146e+05
  -5.368376e+05   4.559114e+05
  -7.672070e+05   4.109569e+05
  -4.362788e+05  -5.718314e+04
   6.390164e+04  -5.415189e+05
   2.982090e+05  -5.378157e+05
   2.089361e+05  -6.416166e+04
   4.900078e+02   3.371400e+05
  -1.645058e+05   2.487965e+05
  -2.301948e+05  -1.529564e+05
  -1.583830e+05  -3.775867e+05
   4.541455e+04  -2.247751e+05
   2.512558e+05   5.347840e+04
   2.934155e+05   1.398840e+05
   1.600872e+05   2.571854e+04
   3.581049e+03  -5.042058e+04
  -5.911237e+04   6.663269e+04
  -7.455069e+04   2.631822e+05
  -1.420425e+05   2.878541e+05
  -2.377146e+05   3.456186e+04
  -2.180106e+05  -3.109579e+05
   2.263067e+02  -4.248941e+05
   2.933844e+05  -1.753639e+05
   3.926155e+05   2.170881e+05
   1.355538e+05   3.951528e+05
  -3.121478e+05   2.320770e+05
  -5.397840e+05  -7.150112e+04
  -2.958525e+05  -2.459261e+05
   1.883887e+05  -2.180053e+05
   3.976262e+05  -9.705907e+04
   1.169363e+05  -5.642889e+03
  -2.870694e+05  -5.820110e+03
  -2.871340e+05  -1.078833e+05
   1.641592e+05  -2.259864e+05
   5.703492e+05  -1.703404e+05
