
 $NMID
 id='ANONYMOUS ', fmtdat='(2E16.6)'
 volume=1.0
 tramp=1.0
 $END
  -4.178328e+07  -9.569307e+05
  -2.509811e+07  -2.504683e+07
   4.971683e+06  -2.769306e+07
   2.010983e+07  -1.185648e+07
   1.268457e+07   3.900100e+06
  -1.860492e+06   6.949024e+06
  -7.493334e+06  -3.255170e+04
  -2.850878e+06  -7.137368e+06
   4.134996e+06  -7.822392e+06
   7.310112e+06  -2.142565e+06
   5.443184e+06   4.884143e+06
   5.376002e+05   6.921963e+06
  -3.250207e+06   1.921317e+06
  -2.174692e+06  -4.806344e+06
   2.795935e+06  -5.632491e+06
   6.072651e+06   7.048065e+05
   3.577317e+06   7.775372e+06
  -2.763202e+06   9.067914e+06
  -7.692656e+06   4.366746e+06
  -8.024479e+06  -1.889139e+06
  -4.472232e+06  -5.745722e+06
  -1.045384e+05  -6.033967e+06
   1.835270e+06  -3.971178e+06
   4.020468e+05  -2.177148e+06
  -1.514462e+06  -2.579581e+06
   1.271347e+05  -4.037897e+06
   5.095060e+06  -3.396603e+06
   8.147839e+06   1.964998e+05
   5.400890e+06   3.693901e+06
  -4.735516e+05   3.975819e+06
  -3.603737e+06   1.573176e+06
  -1.986029e+06  -7.339445e+05
   1.285195e+06  -1.326313e+06
   2.784625e+06  -2.436401e+05
   1.970949e+06   1.924599e+06
   2.741748e+04   3.678412e+06
  -1.750355e+06   2.805888e+06
  -2.110448e+06  -6.176075e+05
  -7.076607e+05  -2.819241e+06
   6.892984e+05  -8.342306e+05
  -8.574249e+04   2.580157e+06
  -2.146166e+06   2.082202e+06
  -2.016422e+06  -2.348189e+06
   1.456104e+06  -4.607612e+06
   4.714093e+06  -8.205586e+05
   3.629526e+06   5.033185e+06
  -1.320504e+06   6.249526e+06
  -5.629482e+06   1.742854e+06
  -5.678412e+06  -3.508689e+06
  -1.792672e+06  -4.919394e+06
   2.769344e+06  -2.454950e+06
   4.544986e+06   9.795450e+05
   2.319145e+06   2.717259e+06
  -1.694796e+06   1.819866e+06
  -3.539873e+06  -5.803193e+05
  -1.628156e+06  -2.009759e+06
   1.293738e+06  -1.061990e+06
   1.549742e+06   7.872208e+05
  -7.175233e+05   9.509700e+05
  -1.938605e+06  -8.274597e+05
  -3.349534e+04  -2.231999e+06
   3.024228e+06  -1.520932e+06
   3.973560e+06   6.827386e+05
   1.902011e+06   2.880235e+06
  -1.598800e+06   4.184165e+06
  -4.433254e+06   3.828408e+06
  -5.175793e+06   1.137845e+06
  -3.472155e+06  -2.821258e+06
  -5.459490e+05  -5.106641e+06
   1.371890e+06  -4.014337e+06
   1.229427e+06  -1.388778e+06
   3.525869e+05  -2.825149e+05
   6.157383e+05  -1.013194e+06
   1.945047e+06  -1.241949e+06
   2.610907e+06   3.343937e+05
   1.599164e+06   2.173841e+06
  -3.306774e+05   2.121421e+06
  -1.719113e+06   8.728862e+04
  -1.597369e+06  -2.111178e+06
   1.470679e+05  -2.696292e+06
   2.526603e+06  -1.226292e+06
   3.662851e+06   1.311182e+06
   2.386110e+06   3.187302e+06
  -1.974852e+05   3.250071e+06
  -1.763726e+06   1.989174e+06
  -1.629006e+06   9.189762e+05
  -1.446063e+06   7.213259e+05
  -2.566429e+06   5.473884e+05
  -3.852035e+06  -6.043343e+05
  -3.116098e+06  -2.446282e+06
  -1.098695e+05  -3.726366e+06
   2.986501e+06  -3.497037e+06
   3.899902e+06  -1.753670e+06
   2.364008e+06   6.065815e+05
   1.482770e+04   2.100450e+06
  -1.182975e+06   1.649929e+06
  -4.889307e+05  -1.143097e+05
   1.066760e+06  -1.142633e+06
   1.685271e+06  -3.091739e+05
   7.212617e+05   1.073512e+06
  -5.516354e+05   1.010762e+06
  -5.066721e+05  -3.369940e+05
   7.795535e+05  -8.103006e+05
   1.657193e+06   7.437251e+05
   9.309952e+05   2.850669e+06
  -9.449403e+05   3.253469e+06
  -2.652675e+06   1.475879e+06
  -3.219019e+06  -1.025971e+06
  -2.358526e+06  -2.578535e+06
  -4.895763e+05  -2.533440e+06
   1.203489e+06  -1.347531e+06
   1.484475e+06  -1.495699e+05
   4.496836e+05   4.705988e+04
  -3.243153e+05  -6.876353e+05
   3.477899e+05  -1.170155e+06
   1.655890e+06  -4.989322e+05
   1.800391e+06   7.492791e+05
   3.765622e+05   1.230785e+06
  -1.056321e+06   5.355762e+05
  -8.811116e+05  -4.170293e+05
   7.280084e+05  -5.893399e+05
   2.092035e+06   1.605489e+05
   1.769512e+06   1.248251e+06
  -1.476700e+05   1.923450e+06
  -2.144930e+06   1.593138e+06
  -2.561499e+06   2.559184e+05
  -1.089720e+06  -1.126896e+06
   8.266945e+05  -1.293653e+06
   1.347207e+06  -1.365028e+05
   1.257778e+05   9.487894e+05
  -1.380450e+06   6.421697e+05
  -1.571555e+06  -6.935384e+05
  -3.649204e+05  -1.504802e+06
   9.468249e+05  -9.552006e+05
   1.167591e+06   2.086646e+05
   2.809189e+05   6.879258e+05
  -6.904033e+05   5.521610e+04
  -6.482506e+05  -9.634476e+05
   5.616018e+05  -1.290404e+06
   1.855268e+06  -4.535100e+05
   1.843019e+06   9.959060e+05
   3.305737e+05   1.892716e+06
  -1.306706e+06   1.488957e+06
  -1.569167e+06   2.039569e+05
  -4.788300e+05  -7.840583e+05
   5.964863e+05  -7.480814e+05
   6.241921e+05  -5.855028e+04
  -7.590027e+04   4.071909e+05
  -5.140425e+05   2.687440e+05
  -2.379385e+05  -7.934096e+04
   3.437793e+05  -3.326800e+04
   5.059655e+05   5.313452e+05
  -1.357039e+05   1.071151e+06
  -1.251614e+06   8.285948e+05
  -1.906839e+06  -3.843899e+05
  -1.324559e+06  -1.791336e+06
   2.205602e+05  -2.238004e+06
   1.504079e+06  -1.339678e+06
   1.606203e+06   8.460044e+04
   8.668224e+05   8.792533e+05
   3.168591e+05   7.282034e+05
   3.722924e+05   2.863281e+05
   4.931399e+05   2.644970e+05
   6.668062e+04   6.496379e+05
  -7.831874e+05   8.366460e+05
  -1.348331e+06   3.351498e+05
  -1.022400e+06  -6.827871e+05
   1.975048e+05  -1.407941e+06
   1.597787e+06  -1.024819e+06
   2.092479e+06   4.468535e+05
   1.065894e+06   1.927205e+06
  -8.868250e+05   2.162022e+06
  -2.299231e+06   9.708602e+05
  -2.185951e+06  -5.580820e+05
  -9.613943e+05  -1.233718e+06
   1.444426e+05  -9.469718e+05
   4.167711e+05  -5.418822e+05
   1.820551e+05  -6.857174e+05
   1.591482e+05  -1.138169e+06
   6.114355e+05  -1.130169e+06
   1.160370e+06  -2.649260e+05
   1.205793e+06   1.013049e+06
   4.867282e+05   1.753001e+06
  -5.951514e+05   1.317292e+06
  -1.190017e+06  -7.432414e+02
  -7.537077e+05  -1.157874e+06
   3.224327e+05  -1.274957e+06
   1.014979e+06  -4.202897e+05
   7.315438e+05   5.585837e+05
  -6.129885e+04   9.368893e+05
  -4.218541e+05   7.244750e+05
  -4.965485e+04   4.128761e+05
   3.819394e+05   3.292865e+05
   4.340567e+04   3.601963e+05
  -1.030773e+06   1.941675e+05
  -1.857524e+06  -3.066117e+05
  -1.478600e+06  -9.409058e+05
   3.443077e+02  -1.283640e+06
   1.416582e+06  -1.018913e+06
   1.666774e+06  -2.737134e+05
   7.793140e+05   3.983109e+05
  -2.199576e+05   4.911463e+05
  -4.534209e+05   5.279540e+04
  -5.470421e+03  -3.492971e+05
   4.290457e+05  -2.228014e+05
   4.322771e+05   3.195921e+05
   1.813780e+05   6.808462e+05
   4.099626e+04   4.454431e+05
   1.314629e+05  -1.183581e+05
   2.948654e+05  -3.078056e+05
   2.622134e+05   2.102624e+05
  -1.592038e+05   9.239451e+05
  -8.350382e+05   9.671749e+05
  -1.204162e+06   1.201148e+05
  -7.249024e+05  -8.519837e+05
   3.925030e+05  -1.004230e+06
   1.131467e+06  -2.569353e+05
   6.642219e+05   5.482441e+05
  -6.404958e+05   6.001117e+05
  -1.481960e+06  -7.664548e+04
  -9.786600e+05  -7.914883e+05
   4.105806e+05  -9.437560e+05
   1.397264e+06  -4.908998e+05
   1.175350e+06   1.538202e+05
   1.420461e+05   4.857636e+05
  -5.968334e+05   2.632629e+05
  -3.383892e+05  -2.621074e+05
   5.649201e+05  -4.575503e+05
   1.088679e+06   1.158064e+05
   5.730618e+05   1.113109e+06
  -6.029498e+05   1.553105e+06
  -1.399890e+06   7.787708e+05
  -1.153073e+06  -7.266636e+05
  -1.663839e+05  -1.669412e+06
   6.976591e+05  -1.213334e+06
   8.629925e+05   1.470793e+05
   4.148465e+05   1.105037e+06
  -1.801432e+05   9.148370e+05
  -5.126257e+05   8.680156e+04
  -4.522767e+05  -3.595834e+05
  -1.759317e+05  -1.372947e+05
  -3.621520e+04   9.552318e+04
  -2.205648e+05  -2.592747e+05
  -4.502702e+05  -8.930734e+05
  -1.974124e+05  -1.007038e+06
   6.315935e+05  -3.650746e+05
   1.368459e+06   4.448321e+05
   1.207778e+06   7.865579e+05
   1.692167e+05   6.432834e+05
  -8.183214e+05   3.791401e+05
  -9.229783e+05   1.698904e+05
  -3.141607e+05  -3.827219e+04
   1.460527e+05  -2.052938e+05
   7.431288e+03  -2.028137e+05
  -2.740042e+05  -1.049840e+05
  -3.511489e+04  -1.262272e+05
   6.458393e+05  -2.030109e+05
   9.670463e+05   2.853352e+04
   3.545205e+05   6.416609e+05
  -8.169251e+05   1.067924e+06
  -1.564168e+06   6.654542e+05
  -1.271174e+06  -4.279648e+05
  -2.321704e+05  -1.310412e+06
   7.162822e+05  -1.259501e+06
   9.775849e+05  -4.722976e+05
   6.099017e+05   2.353996e+05
   1.100408e+05   3.335464e+05
  -8.814192e+04   4.665117e+04
   6.690342e+04  -3.179880e+04
   2.869026e+05   3.358836e+05
   2.318025e+05   7.514612e+05
  -1.775681e+05   6.230720e+05
  -6.357495e+05  -1.340844e+05
  -6.633067e+05  -9.041608e+05
  -7.321526e+04  -9.549665e+05
   7.138829e+05  -2.022940e+05
   9.464903e+05   6.960563e+05
   2.998966e+05   1.011577e+06
  -6.700826e+05   6.063885e+05
  -1.025651e+06  -8.449713e+04
  -4.753371e+05  -5.576387e+05
   2.704544e+05  -6.070562e+05
   3.375526e+05  -3.330345e+05
  -2.480668e+05  -1.716121e+04
  -6.073574e+05   2.850767e+04
  -1.268706e+05  -2.830264e+05
   7.705034e+05  -6.249569e+05
   1.155024e+06  -5.039805e+05
   6.858124e+05   1.563336e+05
  -9.819931e+04   7.973447e+05
  -5.024767e+05   7.809052e+05
  -3.776298e+05   1.329703e+05
  -3.665547e+04  -4.521631e+05
   2.286084e+05  -3.919473e+05
   3.266107e+05   1.549606e+05
   2.286080e+05   5.376420e+05
  -5.678371e+04   3.810360e+05
  -3.614901e+05  -5.140248e+04
  -4.326612e+05  -2.527630e+05
  -2.234831e+05  -8.120166e+04
   2.230811e+04   1.272079e+05
   7.537717e+04   1.500215e+04
   1.328198e+04  -3.384605e+05
   8.184670e+04  -4.929507e+05
   3.078200e+05  -1.717822e+05
   4.016180e+05   3.739292e+05
   1.131321e+05   6.046095e+05
  -3.886438e+05   2.812385e+05
  -6.038755e+05  -2.741550e+05
  -2.236539e+05  -5.397662e+05
   4.684454e+05  -3.328681e+05
   8.087769e+05   8.333228e+04
   4.368401e+05   3.539952e+05
  -2.755331e+05   3.575395e+05
  -5.902595e+05   1.927846e+05
  -2.204373e+05   1.248232e+04
   3.381475e+05  -4.928145e+04
   3.841484e+05   7.838885e+04
  -1.709389e+05   2.789947e+05
  -7.125696e+05   2.464783e+05
