
 $NMID
 id='ANONYMOUS ', fmtdat='(2E16.6)'
 volume=1.0
 tramp=1.0
 $END
  -1.377060e+07   3.254552e+05
  -1.019722e+07  -5.174828e+06
  -1.364387e+06  -8.634026e+06
   5.634733e+06  -7.379345e+06
   5.903359e+06  -1.962626e+06
   1.053743e+06   2.722747e+06
  -3.186337e+06   2.191512e+06
  -3.052155e+06  -2.229617e+06
   2.213497e+05  -4.844181e+06
   2.837428e+06  -2.481482e+06
   2.586567e+06   1.946663e+06
   3.330701e+05   3.380917e+06
  -1.511157e+06   5.615383e+05
  -1.241957e+06  -3.075810e+06
   8.357981e+05  -3.620891e+06
   2.649811e+06  -6.396850e+05
   2.180917e+06   2.915539e+06
  -4.175379e+05   3.895294e+06
  -2.754314e+06   1.850481e+06
  -2.735463e+06  -9.076116e+05
  -9.086269e+05  -1.924381e+06
   3.014850e+05  -1.130146e+06
  -4.494179e+05  -5.185760e+05
  -1.894655e+06  -1.456846e+06
  -1.723745e+06  -2.991228e+06
   7.563702e+05  -3.148298e+06
   3.733556e+06  -1.353019e+06
   4.526831e+06   1.025082e+06
   2.193645e+06   2.218854e+06
  -1.285555e+06   1.581579e+06
  -2.674186e+06  -1.904227e+05
  -7.607800e+05  -1.655409e+06
   2.232767e+06  -1.508037e+06
   3.081994e+06   3.565883e+05
   1.195322e+06   2.393399e+06
  -9.951115e+05   2.635738e+06
  -1.247365e+06   8.262226e+05
  -1.235168e+04  -1.067074e+06
   7.490165e+05  -9.650855e+05
   2.129053e+05   9.093318e+05
  -8.082515e+05   2.278192e+06
  -1.370404e+06   1.468648e+06
  -1.239891e+06  -6.849611e+05
  -4.715009e+05  -1.854409e+06
   6.634960e+05  -8.376114e+05
   1.210989e+06   1.194135e+06
   1.489495e+05   2.039415e+06
  -2.003792e+06   7.740095e+05
  -3.084289e+06  -1.419061e+06
  -1.601362e+06  -2.567624e+06
   1.294700e+06  -1.824170e+06
   2.919589e+06  -5.777395e+04
   1.965241e+06   1.195949e+06
  -2.941224e+05   1.141057e+06
  -1.616175e+06   1.941105e+05
  -1.058936e+06  -6.052676e+05
   4.027908e+05  -5.259143e+05
   1.084151e+06   2.915675e+05
   2.766450e+05   9.855392e+05
  -1.048918e+06   7.676456e+05
  -1.239491e+06  -2.482337e+05
   1.355626e+05  -1.035171e+06
   1.563757e+06  -6.396600e+05
   1.199108e+06   7.768916e+05
  -9.117662e+05   1.978533e+06
  -2.787459e+06   1.789761e+06
  -2.787449e+06   1.823981e+05
  -1.326633e+06  -1.725750e+06
  -1.478733e+04  -2.690924e+06
   3.484196e+05  -2.392309e+06
   3.335741e+05  -1.543318e+06
   7.313906e+05  -9.846896e+05
   1.521368e+06  -7.306176e+05
   2.047962e+06  -9.912965e+04
   1.753863e+06   1.149964e+06
   6.069719e+05   2.124862e+06
  -8.400893e+05   1.659338e+06
  -1.661126e+06  -1.723165e+05
  -1.174502e+06  -1.839144e+06
   3.425112e+05  -1.881163e+06
   1.701526e+06  -4.052400e+05
   1.844415e+06   1.179204e+06
   8.478312e+05   1.712841e+06
  -2.502592e+05   1.266403e+06
  -6.142152e+05   6.866864e+05
  -4.605035e+05   5.576702e+05
  -6.751022e+05   7.233796e+05
  -1.632506e+06   5.923314e+05
  -2.530917e+06  -2.453417e+05
  -2.100038e+06  -1.564593e+06
  -8.132221e+04  -2.534397e+06
   2.162244e+06  -2.328142e+06
   2.822315e+06  -9.122576e+05
   1.494167e+06   7.614318e+05
  -3.873786e+05   1.499676e+06
  -1.079071e+06   9.237062e+05
  -2.767350e+05  -1.948866e+05
   8.381135e+05  -6.906295e+05
   1.057704e+06  -1.550309e+05
   3.188694e+05   6.603975e+05
  -4.952367e+05   6.784315e+05
  -5.454756e+05  -2.187234e+05
   2.517588e+05  -9.008323e+05
   1.195677e+06  -2.198884e+05
   1.317266e+06   1.517385e+06
   1.731803e+05   2.642381e+06
  -1.606516e+06   1.870379e+06
  -2.669140e+06  -2.634007e+05
  -2.123600e+06  -1.962353e+06
  -4.426836e+05  -2.038614e+06
   9.565669e+05  -9.456855e+05
   1.093850e+06  -4.361645e+03
   3.137238e+05   3.754287e+04
  -2.237765e+05  -4.705061e+05
   1.621786e+05  -7.220326e+05
   9.799236e+05  -3.319525e+05
   1.168621e+06   3.730206e+05
   3.387324e+05   7.355692e+05
  -6.918405e+05   4.058895e+05
  -7.240683e+05  -2.924321e+05
   4.472742e+05  -6.145016e+05
   1.656566e+06  -1.022190e+05
   1.538280e+06   9.148627e+05
   1.843528e+04   1.569474e+06
  -1.558739e+06   1.255657e+06
  -1.824305e+06   2.052055e+05
  -7.383253e+05  -7.100272e+05
   5.107412e+05  -7.690618e+05
   7.816142e+05  -6.900743e+04
   7.476968e+03   5.653652e+05
  -9.250243e+05   4.027475e+05
  -1.100581e+06  -4.230537e+05
  -3.755785e+05  -1.040026e+06
   5.631438e+05  -7.994276e+05
   8.607164e+05  -8.891834e+03
   3.150045e+05   4.304208e+05
  -3.986525e+05   5.887899e+04
  -3.992866e+05  -6.507154e+05
   4.427807e+05  -8.562396e+05
   1.300517e+06  -2.379682e+05
   1.236266e+06   7.349885e+05
   2.096497e+05   1.291483e+06
  -8.660860e+05   1.023074e+06
  -1.071550e+06   1.873687e+05
  -3.851837e+05  -5.177906e+05
   3.892807e+05  -5.495221e+05
   5.044625e+05  -2.015525e+04
  -1.085688e+04   4.225587e+05
  -4.878670e+05   3.075989e+05
  -3.820698e+05  -1.232474e+05
   1.509027e+05  -2.263536e+05
   4.358770e+05   2.284134e+05
   1.039249e+04   7.338030e+05
  -8.439325e+05   6.026668e+05
  -1.327253e+06  -2.655784e+05
  -8.979799e+05  -1.253156e+06
   1.821209e+05  -1.592099e+06
   1.093385e+06  -1.025122e+06
   1.237990e+06   3.121031e+03
   7.502947e+05   7.357819e+05
   2.439690e+05   7.559657e+05
   1.211628e+05   3.399114e+05
   2.008930e+05   1.226767e+05
   2.927522e+04   3.602473e+05
  -5.142502e+05   6.156242e+05
  -9.932632e+05   3.005560e+05
  -8.237418e+05  -5.324514e+05
   9.390365e+04  -1.124382e+06
   1.159552e+06  -7.942612e+05
   1.520730e+06   3.159527e+05
   8.041869e+05   1.346160e+06
  -5.287280e+05   1.509180e+06
  -1.542886e+06   7.495067e+05
  -1.598350e+06  -2.921896e+05
  -8.381417e+05  -8.854054e+05
   3.068089e+04  -8.214681e+05
   4.174626e+05  -5.035707e+05
   3.258029e+05  -4.430088e+05
   2.066566e+05  -6.683640e+05
   3.991021e+05  -6.994552e+05
   7.527037e+05  -1.487917e+05
   8.031809e+05   7.352681e+05
   3.025382e+05   1.242372e+06
  -4.518214e+05   9.148944e+05
  -8.494597e+05   8.016703e+03
  -5.542728e+05  -7.681677e+05
   1.476103e+05  -8.905359e+05
   6.205313e+05  -4.034696e+05
   5.104476e+05   2.307387e+05
   7.193665e+04   5.738778e+05
  -1.592138e+05   5.377970e+05
   1.542926e+04   3.545049e+05
   2.349301e+05   2.672442e+05
   6.906770e+03   2.673328e+05
  -6.784045e+05   1.487774e+05
  -1.233425e+06  -2.016518e+05
  -1.030316e+06  -6.285778e+05
  -7.991984e+04  -8.399040e+05
   8.972575e+05  -6.760740e+05
   1.140144e+06  -2.426050e+05
   5.870130e+05   1.698411e+05
  -1.068022e+05   2.900770e+05
  -2.917379e+05   8.474695e+04
   3.023002e+04  -1.704965e+05
   3.421048e+05  -1.271730e+05
   2.856361e+05   2.315069e+05
   2.550825e+04   4.998748e+05
  -6.312264e+04   3.121163e+05
   1.113133e+05  -1.440344e+05
   2.909329e+05  -2.828425e+05
   2.009900e+05   1.464204e+05
  -1.751096e+05   6.777264e+05
  -5.989183e+05   6.509128e+05
  -7.385509e+05   1.323219e+04
  -3.894904e+05  -6.059313e+05
   2.852432e+05  -6.154559e+05
   7.315093e+05  -8.062751e+04
   4.425374e+05   4.248710e+05
  -4.379886e+05   4.351231e+05
  -1.090589e+06  -2.647608e+04
  -8.052062e+05  -5.598167e+05
   2.200985e+05  -7.467845e+05
   1.031876e+06  -4.552425e+05
   9.189536e+05   6.534944e+04
   1.391757e+05   3.719490e+05
  -4.184861e+05   2.221481e+05
  -2.069676e+05  -1.588044e+05
   4.464958e+05  -2.638161e+05
   7.512597e+05   1.704224e+05
   2.964268e+05   8.253603e+05
  -5.521611e+05   1.041832e+06
  -1.048128e+06   4.562099e+05
  -7.952302e+05  -5.736593e+05
  -6.936593e+04  -1.210739e+06
   5.276312e+05  -8.992216e+05
   6.352388e+05   6.593201e+04
   3.354881e+05   7.943322e+05
  -7.423087e+04   7.003164e+05
  -3.478339e+05   8.636544e+04
  -3.704895e+05  -2.848030e+05
  -1.828080e+05  -1.278242e+05
  -5.085287e+03   8.928819e+04
  -6.597482e+04  -1.374608e+05
  -2.708988e+05  -6.239344e+05
  -1.954334e+05  -7.437531e+05
   3.721244e+05  -2.703366e+05
   9.804029e+05   3.489387e+05
   9.185102e+05   5.933051e+05
   1.180039e+05   4.487759e+05
  -6.544658e+05   2.399106e+05
  -6.886411e+05   1.233251e+05
  -1.741703e+05   8.799859e+03
   1.322451e+05  -1.338750e+05
  -6.136961e+04  -1.893441e+05
  -2.676115e+05  -1.329454e+05
   1.057440e+04  -9.314771e+04
   5.475678e+05  -8.810295e+04
   6.737154e+05   7.120975e+04
   1.178608e+05   4.414515e+05
  -6.818594e+05   6.790808e+05
  -1.070410e+06   3.727738e+05
  -7.869615e+05  -3.775467e+05
  -9.246576e+04  -9.480432e+05
   5.233255e+05  -8.476453e+05
   7.018732e+05  -2.508165e+05
   4.324424e+05   2.319050e+05
   3.297937e+04   2.356808e+05
  -1.280245e+05  -2.290839e+04
   2.819831e+04  -7.626954e+04
   2.318897e+05   2.269746e+05
   1.721247e+05   5.424229e+05
  -1.603394e+05   4.168946e+05
  -4.560308e+05  -1.704290e+05
  -3.884389e+05  -7.096853e+05
   6.441234e+04  -6.621707e+05
   5.516294e+05  -4.128503e+04
   6.156310e+05   5.914688e+05
   1.285355e+05   7.181948e+05
  -5.027747e+05   3.495451e+05
  -6.843938e+05  -1.138827e+05
  -2.789199e+05  -3.564556e+05
   2.016251e+05  -3.525957e+05
   1.876462e+05  -2.130395e+05
  -2.406992e+05  -5.270291e+04
  -4.484336e+05  -1.356410e+04
  -5.788119e+04  -1.896776e+05
   5.678639e+05  -4.257345e+05
   7.816351e+05  -3.740806e+05
   4.174000e+05   7.433816e+04
  -1.005919e+05   5.333808e+05
  -3.207569e+05   5.131563e+05
  -1.998876e+05   3.794613e+04
   2.858012e+04  -3.463729e+05
   1.854990e+05  -2.313860e+05
   2.242175e+05   1.824189e+05
   1.325657e+05   3.904137e+05
  -6.546816e+04   2.103891e+05
  -2.487841e+05  -7.614288e+04
  -2.793898e+05  -1.498532e+05
  -1.581534e+05  -2.714521e+04
  -1.559761e+04   4.002336e+04
   6.073266e+04  -8.617409e+04
   1.105978e+05  -2.707900e+05
   1.909828e+05  -2.674777e+05
   2.528731e+05   5.408030e+03
   1.819487e+05   3.454788e+05
  -5.279339e+04   4.321090e+05
  -3.144117e+05   1.509119e+05
  -3.719654e+05  -2.545858e+05
  -1.034920e+05  -4.127505e+05
   3.249506e+05  -2.100324e+05
   5.297073e+05   1.148157e+05
   2.766723e+05   2.671461e+05
  -2.044903e+05   1.956351e+05
  -4.029198e+05   5.800363e+04
  -1.069093e+05  -5.029822e+03
   3.043743e+05   3.456099e+04
   2.889609e+05   1.420471e+05
  -1.911887e+05   2.268737e+05
  -6.048228e+05   1.356232e+05
