
 $NMID
 id='ANONYMOUS ', fmtdat='(2E16.6)'
 volume=1.0
 tramp=1.0
 $END
  -8.494493e+06  -2.235773e+05
  -4.597554e+06  -5.781223e+06
   1.840958e+06  -5.754035e+06
   4.410804e+06  -1.538901e+06
   2.139175e+06   1.759234e+06
  -9.239366e+05   1.595971e+06
  -1.562776e+06  -3.668220e+05
  -2.480099e+05  -1.584110e+06
   1.083796e+06  -1.284926e+06
   1.499527e+06  -8.135807e+04
   1.017345e+06   1.109129e+06
  -2.101505e+04   1.388807e+06
  -8.231127e+05   4.490824e+05
  -5.620605e+05  -7.623507e+05
   4.918727e+05  -8.433157e+05
   1.056464e+06   3.335748e+05
   4.202254e+05   1.455889e+06
  -7.691628e+05   1.455574e+06
  -1.517274e+06   5.521611e+05
  -1.510071e+06  -4.920673e+05
  -9.064474e+05  -1.241794e+06
   3.866364e+04  -1.444531e+06
   7.698970e+05  -9.249901e+05
   6.598001e+05  -9.712044e+04
  -5.816447e+04   1.529765e+05
  -2.806151e+05  -3.815972e+05
   5.006006e+05  -7.997270e+05
   1.363044e+06  -3.231672e+05
   1.194145e+06   6.103629e+05
   1.943127e+05   1.036143e+06
  -5.581996e+05   7.332512e+05
  -5.772069e+05   2.079222e+05
  -2.400879e+05  -1.469062e+05
   6.217707e+04  -2.334403e+05
   2.324406e+05   2.951733e+04
   1.203141e+05   4.832821e+05
  -3.309770e+05   5.362090e+05
  -6.618111e+05  -9.258702e+04
  -3.722418e+05  -7.021206e+05
   1.993422e+05  -4.709335e+05
   2.420016e+05   2.140624e+05
  -2.304449e+05   2.212323e+05
  -2.867601e+05  -5.500225e+05
   4.675291e+05  -8.856476e+05
   1.151057e+06  -4.644467e+04
   8.023893e+05   1.090838e+06
  -2.956419e+05   1.240333e+06
  -1.048695e+06   3.633516e+05
  -8.918541e+05  -5.250034e+05
  -1.729828e+05  -7.150567e+05
   4.747181e+05  -3.173002e+05
   6.247591e+05   2.371669e+05
   1.762583e+05   5.619169e+05
  -5.038192e+05   3.796644e+05
  -7.284457e+05  -1.945192e+05
  -2.459865e+05  -5.532256e+05
   3.171506e+05  -2.836052e+05
   2.371139e+05   1.816613e+05
  -2.673840e+05   1.213796e+05
  -3.450306e+05  -3.993151e+05
   2.341255e+05  -6.179381e+05
   7.808425e+05  -2.023068e+05
   7.074033e+05   3.626427e+05
   2.156513e+05   6.058653e+05
  -2.334390e+05   6.254329e+05
  -5.456025e+05   5.780491e+05
  -7.503933e+05   2.578384e+05
  -6.397757e+05  -3.858936e+05
  -1.277979e+05  -8.164290e+05
   3.520722e+05  -5.513620e+05
   3.092495e+05   6.156820e+04
  -1.036571e+05   2.595866e+05
  -2.882597e+05  -9.908684e+04
  -1.428605e+04  -4.274961e+05
   3.538173e+05  -2.869870e+05
   4.141054e+05   1.050257e+05
   1.608399e+05   2.999940e+05
  -1.522089e+05   1.576786e+05
  -2.792521e+05  -1.504520e+05
  -8.595395e+04  -3.737772e+05
   3.371663e+05  -3.046199e+05
   6.234050e+05   8.309967e+04
   4.500181e+05   5.078046e+05
  -3.739595e+04   5.997473e+05
  -3.614629e+05   3.347990e+05
  -3.205337e+05   5.734034e+04
  -1.953247e+05   7.984038e+03
  -2.679456e+05   5.084087e+04
  -4.185399e+05  -3.920198e+04
  -3.655640e+05  -2.484027e+05
  -8.100528e+04  -4.161299e+05
   2.295562e+05  -4.530569e+05
   3.974696e+05  -3.278185e+05
   3.659680e+05  -3.409061e+04
   1.484810e+05   2.710327e+05
  -1.054274e+05   3.003767e+05
  -1.453355e+05   1.267097e+04
   7.920701e+04  -2.277402e+05
   2.765615e+05  -1.082064e+05
   1.811314e+05   1.763401e+05
  -5.610707e+04   2.146577e+05
  -9.236350e+04   4.191654e+03
   8.572321e+04  -6.892207e+04
   1.620075e+05   1.512905e+05
  -1.221075e+04   3.612750e+05
  -2.297001e+05   2.737968e+05
  -2.855303e+05   3.341072e+03
  -2.338049e+05  -1.789100e+05
  -1.790780e+05  -2.167333e+05
  -7.675610e+04  -2.035744e+05
   9.263938e+04  -1.505739e+05
   1.708563e+05  -4.226760e+04
   5.494778e+04   1.524058e+04
  -7.479256e+04  -7.164383e+04
   1.164125e+04  -1.823343e+05
   2.314587e+05  -1.223176e+05
   2.898987e+05   7.998019e+04
   9.960600e+04   2.055156e+05
  -1.158007e+05   1.506794e+05
  -1.395089e+05   2.655062e+04
   1.145395e+03  -3.826991e+04
   1.397904e+05  -2.535852e+04
   1.564171e+05   4.689108e+04
   2.488306e+04   1.537709e+05
  -1.814334e+05   1.949363e+05
  -2.885073e+05   6.419109e+04
  -1.604183e+05  -1.547100e+05
   1.025289e+05  -2.197408e+05
   2.233794e+05  -4.408061e+04
   7.464210e+04   1.570382e+05
  -1.587070e+05   1.398120e+05
  -2.154331e+05  -5.619938e+04
  -6.266125e+04  -1.903910e+05
   1.181746e+05  -1.362725e+05
   1.670036e+05   1.265417e+04
   7.357615e+04   1.045374e+05
  -6.553168e+04   7.605594e+04
  -1.235126e+05  -3.911494e+04
  -2.530269e+04  -1.417314e+05
   1.560957e+05  -1.172674e+05
   2.259446e+05   4.928739e+04
   8.086552e+04   2.114274e+05
  -1.398396e+05   2.007992e+05
  -2.093451e+05   3.016254e+04
  -8.826320e+04  -1.234086e+05
   5.854101e+04  -1.364822e+05
   9.702960e+04  -5.335472e+04
   5.574104e+04   2.294076e+04
   1.795579e+04   5.584767e+04
   4.296435e+03   6.099575e+04
   3.293411e+02   5.315933e+04
   7.592403e+02   5.245799e+04
  -2.068585e+04   7.575606e+04
  -9.885767e+04   8.238495e+04
  -1.869169e+05  -1.121792e+03
  -1.662291e+05  -1.551286e+05
  -9.681162e+03  -2.392676e+05
   1.447078e+05  -1.583411e+05
   1.609132e+05   2.749555e+03
   7.826145e+04   8.646198e+04
   3.004735e+04   5.909388e+04
   4.665245e+04   1.587716e+04
   4.618996e+04   2.306847e+04
  -1.066701e+04   4.989847e+04
  -6.932780e+04   4.968949e+04
  -8.142089e+04   1.895693e+04
  -5.436766e+04  -3.262023e+04
   7.620388e+03  -9.017213e+04
   1.105389e+05  -9.724761e+04
   1.928303e+05   4.439581e+03
   1.429488e+05   1.655557e+05
  -4.743080e+04   2.367277e+05
  -2.247500e+05   1.391717e+05
  -2.384922e+05  -2.876318e+04
  -1.149986e+05  -1.131304e+05
  -2.081281e+03  -8.810916e+04
   1.859278e+04  -5.458405e+04
  -5.968690e+03  -8.508108e+04
   1.187787e+03  -1.405822e+05
   5.757839e+04  -1.385788e+05
   1.257624e+05  -4.875598e+04
   1.499623e+05   8.496816e+04
   8.924982e+04   1.776776e+05
  -3.548609e+04   1.580125e+05
  -1.280972e+05   3.131878e+04
  -1.020265e+05  -1.038338e+05
   1.334999e+04  -1.374400e+05
   9.675229e+04  -5.741381e+04
   7.635618e+04   4.735876e+04
   3.998594e+03   9.321656e+04
  -2.727908e+04   7.776693e+04
   1.965802e+03   4.742783e+04
   3.094697e+04   3.150208e+04
  -1.503496e+03   2.786692e+04
  -9.322235e+04   2.145834e+04
  -1.752979e+05  -6.894651e+03
  -1.618945e+05  -6.571925e+04
  -3.251087e+04  -1.252114e+05
   1.224095e+05  -1.287162e+05
   1.732764e+05  -5.914492e+04
   9.109966e+04   2.461288e+04
  -1.747112e+04   4.800396e+04
  -4.004463e+04   7.535045e+03
   1.435222e+04  -3.073310e+04
   5.557827e+04  -1.433726e+04
   4.215854e+04   3.981592e+04
   1.230980e+04   7.346407e+04
   3.787561e+03   5.114609e+04
   8.248859e+03  -5.584716e+03
   9.198735e+03  -3.642510e+04
   7.179492e+03  -4.547535e+02
  -7.022671e+03   7.148004e+04
  -5.032218e+04   9.559781e+04
  -9.546283e+04   2.851930e+04
  -7.457296e+04  -6.973870e+04
   2.461649e+04  -9.693515e+04
   1.070387e+05  -2.917678e+04
   6.997822e+04   5.338044e+04
  -6.178528e+04   6.509151e+04
  -1.520234e+05   4.258144e+03
  -1.059903e+05  -6.680070e+04
   3.080405e+04  -9.498468e+04
   1.323707e+05  -6.810061e+04
   1.201803e+05  -5.932962e+03
   2.445382e+04   4.726873e+04
  -5.552774e+04   4.367618e+04
  -4.240558e+04  -1.516392e+04
   4.724925e+04  -5.586080e+04
   1.132475e+05  -5.327749e+03
   7.136257e+04   1.091621e+05
  -5.221461e+04   1.685879e+05
  -1.445184e+05   9.065692e+04
  -1.270981e+05  -7.054959e+04
  -3.020195e+04  -1.740363e+05
   5.874092e+04  -1.341004e+05
   8.745459e+04  -1.845175e+02
   6.137304e+04   1.015897e+05
   8.280792e+03   9.570502e+04
  -4.143590e+04   2.198048e+04
  -5.653462e+04  -2.464319e+04
  -3.017240e+04  -8.269464e+03
  -2.505293e+03   1.422595e+04
  -1.885633e+04  -1.982877e+04
  -5.807028e+04  -8.686625e+04
  -4.317020e+04  -1.059236e+05
   5.357560e+04  -4.743082e+04
   1.501398e+05   3.133650e+04
   1.394501e+05   6.664315e+04
   2.218179e+04   5.979594e+04
  -8.713031e+04   4.554082e+04
  -9.343919e+04   2.999921e+04
  -2.489805e+04   1.034657e+03
   1.867326e+04  -2.596440e+04
  -4.085833e+03  -2.334965e+04
  -3.487430e+04  -3.745999e+03
  -5.090820e+03  -6.508302e+03
   6.779811e+04  -2.684116e+04
   9.775025e+04  -9.831546e+03
   3.336529e+04   6.191128e+04
  -8.080866e+04   1.181577e+05
  -1.508045e+05   7.898206e+04
  -1.252109e+05  -3.869751e+04
  -3.297993e+04  -1.328074e+05
   5.565404e+04  -1.294797e+05
   8.936840e+04  -5.340926e+04
   6.417636e+04   1.547109e+04
   1.489828e+04   2.829176e+04
  -1.307271e+04   2.934445e+03
   1.790603e+03  -7.829039e+03
   3.624262e+04   2.491713e+04
   4.072702e+04   7.130039e+04
  -7.775477e+03   6.862149e+04
  -7.094914e+04  -5.260128e+03
  -8.020868e+04  -9.089364e+04
  -1.098119e+04  -1.021634e+05
   8.019367e+04  -2.352878e+04
   1.050564e+05   7.106689e+04
   3.481476e+04   1.020475e+05
  -6.492576e+04   6.198760e+04
  -1.001519e+05  -3.498984e+02
  -4.877231e+04  -4.338660e+04
   1.765360e+04  -5.533950e+04
   2.004425e+04  -3.787365e+04
  -3.371556e+04  -5.438419e+03
  -6.137195e+04   6.737038e+03
  -1.115301e+04  -2.634298e+04
   7.322508e+04  -7.363828e+04
   1.072101e+05  -6.862940e+04
   6.445975e+04   6.045125e+03
  -3.962901e+03   8.208247e+04
  -3.891737e+04   8.077849e+04
  -3.044378e+04   9.033564e+03
  -3.344869e+03  -4.985748e+04
   2.201215e+04  -3.690320e+04
   3.572750e+04   2.039745e+04
   2.710401e+04   5.316657e+04
  -5.359264e+03   3.374305e+04
  -3.895763e+04  -4.520870e+03
  -4.487012e+04  -1.805198e+04
  -2.267875e+04  -3.179340e+03
   1.910572e+02   7.762883e+03
   5.807303e+03  -9.934747e+03
   6.036272e+03  -4.165874e+04
   1.888613e+04  -4.768385e+04
   3.803740e+04  -8.955929e+03
   3.778615e+04   4.556964e+04
   4.851610e+03   6.464702e+04
  -4.116532e+04   2.894397e+04
  -5.956905e+04  -2.777370e+04
  -2.465133e+04  -5.513657e+04
   4.201966e+04  -3.630569e+04
   7.981727e+04   4.040365e+03
   4.690620e+04   3.261660e+04
  -2.621618e+04   3.576923e+04
  -6.057492e+04   1.949634e+04
  -1.902519e+04  -1.015912e+03
   4.453544e+04  -7.171604e+03
   4.765211e+04   1.143016e+04
  -1.947602e+04   3.844960e+04
  -8.253159e+04   3.530541e+04
