
 $NMID
 id='ANONYMOUS ', fmtdat='(2E16.6)'
 volume=1.0
 tramp=1.0
 $END
  -2.041989e+07  -5.162959e+05
  -1.126748e+07  -1.370169e+07
   4.163562e+06  -1.383865e+07
   1.058021e+07  -3.979142e+06
   5.332997e+06   3.983246e+06
  -2.100109e+06   3.837695e+06
  -3.833515e+06  -7.819150e+05
  -7.154600e+05  -3.840366e+06
   2.597119e+06  -3.240874e+06
   3.659617e+06  -2.950936e+05
   2.458005e+06   2.679300e+06
  -6.912450e+04   3.367000e+06
  -1.960766e+06   1.031285e+06
  -1.294070e+06  -1.949783e+06
   1.246186e+06  -2.145132e+06
   2.612230e+06   7.528375e+05
   1.091358e+06   3.548498e+06
  -1.800836e+06   3.599420e+06
  -3.648452e+06   1.394968e+06
  -3.629106e+06  -1.164171e+06
  -2.151432e+06  -2.943474e+06
   7.263614e+04  -3.380934e+06
   1.716769e+06  -2.187587e+06
   1.417204e+06  -3.618505e+05
  -1.859889e+05   1.410182e+05
  -5.502401e+05  -1.048461e+06
   1.385232e+06  -1.860038e+06
   3.371781e+06  -6.203704e+05
   2.828342e+06   1.549385e+06
   3.455881e+05   2.427166e+06
  -1.421862e+06   1.609176e+06
  -1.323623e+06   3.692438e+05
  -3.895602e+05  -3.703281e+05
   3.062693e+05  -4.587615e+05
   5.587103e+05   2.026783e+05
   1.955853e+05   1.218499e+06
  -8.126314e+05   1.262979e+06
  -1.488588e+06  -2.442678e+05
  -8.079554e+05  -1.638195e+06
   4.399986e+05  -1.033365e+06
   4.709817e+05   6.031892e+05
  -6.300918e+05   5.808078e+05
  -7.267082e+05  -1.319420e+06
   1.072324e+06  -2.173694e+06
   2.715219e+06  -1.741352e+05
   1.929046e+06   2.598606e+06
  -6.841713e+05   3.006455e+06
  -2.550178e+06   8.776206e+05
  -2.231487e+06  -1.336218e+06
  -4.637061e+05  -1.828120e+06
   1.197916e+06  -8.171041e+05
   1.613132e+06   5.889539e+05
   5.008883e+05   1.384927e+06
  -1.196542e+06   9.241217e+05
  -1.771395e+06  -4.619705e+05
  -6.125095e+05  -1.315301e+06
   7.641536e+05  -6.697337e+05
   5.980192e+05   4.520529e+05
  -6.273056e+05   3.377712e+05
  -8.765849e+05  -8.977760e+05
   4.718806e+05  -1.471930e+06
   1.832048e+06  -5.459339e+05
   1.744401e+06   8.053538e+05
   5.730304e+05   1.456650e+06
  -5.973883e+05   1.552796e+06
  -1.424168e+06   1.412427e+06
  -1.885194e+06   5.851930e+05
  -1.534280e+06  -9.888977e+05
  -2.721399e+05  -2.026695e+06
   8.537705e+05  -1.404407e+06
   7.482842e+05   5.192004e+04
  -1.843499e+05   5.488017e+05
  -5.653360e+05  -2.465402e+05
   8.694032e+04  -9.559209e+05
   8.938414e+05  -5.654777e+05
   9.455726e+05   3.697441e+05
   2.891591e+05   7.609498e+05
  -4.388017e+05   3.139433e+05
  -6.712796e+05  -4.736191e+05
  -1.459694e+05  -9.571367e+05
   8.740171e+05  -6.970240e+05
   1.521143e+06   2.752177e+05
   1.071041e+06   1.265714e+06
  -9.975014e+04   1.449327e+06
  -8.639528e+05   8.160065e+05
  -7.696854e+05   1.739833e+05
  -5.034959e+05   5.947968e+04
  -7.283231e+05   1.322645e+05
  -1.116937e+06  -1.368529e+05
  -9.479614e+05  -6.916651e+05
  -1.552887e+05  -1.110145e+06
   6.888936e+05  -1.151438e+06
   1.088135e+06  -7.674268e+05
   9.102876e+05  -1.279756e+04
   2.942434e+05   6.995494e+05
  -3.135907e+05   7.199962e+05
  -3.397905e+05   9.788573e+03
   2.446039e+05  -5.470842e+05
   6.979119e+05  -2.359290e+05
   4.206212e+05   4.471761e+05
  -1.710128e+05   5.148459e+05
  -2.365658e+05  -2.290833e+04
   2.395259e+05  -2.090862e+05
   4.622541e+05   3.633314e+05
   3.189721e+04   9.540212e+05
  -5.669209e+05   7.963921e+05
  -7.921274e+05   9.471506e+04
  -6.952549e+05  -4.689934e+05
  -5.038626e+05  -6.467264e+05
  -1.697775e+05  -5.946861e+05
   2.800621e+05  -3.879040e+05
   4.522782e+05  -8.196458e+04
   1.423608e+05   4.049171e+04
  -1.763014e+05  -1.982515e+05
   5.091137e+04  -4.613022e+05
   5.979912e+05  -2.842440e+05
   7.282601e+05   2.288064e+05
   2.302783e+05   5.233799e+05
  -3.209242e+05   3.538089e+05
  -3.580700e+05   2.200294e+04
   4.860881e+04  -1.231866e+05
   4.306618e+05  -3.564484e+04
   4.379297e+05   1.923020e+05
   2.974907e+04   4.499767e+05
  -5.312049e+05   4.980310e+05
  -7.726615e+05   1.313570e+05
  -3.993171e+05  -4.075242e+05
   2.774521e+05  -5.409997e+05
   5.585330e+05  -9.261245e+04
   1.606129e+05   3.941163e+05
  -4.276559e+05   3.290139e+05
  -5.530091e+05  -1.740688e+05
  -1.458143e+05  -5.058135e+05
   3.220879e+05  -3.478342e+05
   4.346106e+05   4.895755e+04
   1.741357e+05   2.751296e+05
  -1.839716e+05   1.702449e+05
  -3.021114e+05  -1.412444e+05
  -1.752693e+04  -3.764454e+05
   4.435217e+05  -2.674243e+05
   5.844294e+05   1.751190e+05
   1.794523e+05   5.662565e+05
  -3.878627e+05   5.086551e+05
  -5.445183e+05   6.269444e+04
  -2.119500e+05  -3.203220e+05
   1.704558e+05  -3.364884e+05
   2.512023e+05  -1.094794e+05
   1.130192e+05   8.177744e+04
   4.550545e+02   1.366670e+05
  -1.105326e+04   1.198723e+05
   1.957037e+04   1.055847e+05
   3.156225e+04   1.414104e+05
  -5.428391e+04   2.232721e+05
  -2.872460e+05   2.179404e+05
  -5.081843e+05  -3.567844e+04
  -4.206381e+05  -4.439214e+05
   1.027845e+04  -6.408304e+05
   4.123606e+05  -4.063215e+05
   4.414049e+05   2.618680e+04
   2.083964e+05   2.509517e+05
   6.740456e+04   1.776246e+05
   1.101000e+05   5.106078e+04
   1.232780e+05   5.943310e+04
  -2.039899e+04   1.380339e+05
  -1.961677e+05   1.485108e+05
  -2.528319e+05   5.238241e+04
  -1.695576e+05  -1.164112e+05
   3.817324e+04  -2.750022e+05
   3.360236e+05  -2.581858e+05
   5.318683e+05   4.951647e+04
   3.582479e+05   4.757453e+05
  -1.645669e+05   6.314733e+05
  -6.234835e+05   3.435963e+05
  -6.403994e+05  -1.101137e+05
  -2.973578e+05  -3.285681e+05
   1.431057e+04  -2.500968e+05
   7.540057e+04  -1.445127e+05
   6.945590e+03  -2.129224e+05
   1.885640e+04  -3.593358e+05
   1.637436e+05  -3.566596e+05
   3.362925e+05  -1.126513e+05
   3.826343e+05   2.490992e+05
   2.058569e+05   4.860212e+05
  -1.212855e+05   4.105027e+05
  -3.459389e+05   5.870691e+04
  -2.577513e+05  -2.951877e+05
   5.387455e+04  -3.697848e+05
   2.711025e+05  -1.476422e+05
   2.086385e+05   1.335347e+05
   5.649398e+03   2.556932e+05
  -8.462610e+04   2.129205e+05
  -3.249997e+03   1.298108e+05
   8.234903e+04   8.805919e+04
  -4.673749e+03   7.877778e+04
  -2.583165e+05   5.220312e+04
  -4.781208e+05  -4.071096e+04
  -4.277452e+05  -2.036755e+05
  -6.717622e+04  -3.452155e+05
   3.467898e+05  -3.289298e+05
   4.722928e+05  -1.335692e+05
   2.444655e+05   7.995534e+04
  -4.948480e+04   1.296967e+05
  -1.130314e+05   1.878601e+04
   3.158279e+04  -8.034213e+04
   1.452767e+05  -3.562340e+04
   1.106881e+05   1.066943e+05
   2.635995e+04   1.934054e+05
   3.585910e+03   1.314617e+05
   2.846657e+04  -1.861293e+04
   4.341652e+04  -9.355066e+04
   2.964210e+04   1.061478e+04
  -3.217136e+04   2.015912e+05
  -1.594837e+05   2.543317e+05
  -2.669581e+05   6.425976e+04
  -1.916019e+05  -1.974249e+05
   7.789949e+04  -2.593228e+05
   2.889799e+05  -6.866796e+04
   1.810951e+05   1.510150e+05
  -1.739214e+05   1.698740e+05
  -4.130497e+05  -7.813367e+03
  -2.812684e+05  -2.008798e+05
   9.772037e+04  -2.602057e+05
   3.741747e+05  -1.657084e+05
   3.295663e+05   6.900648e+03
   5.724529e+04   1.333742e+05
  -1.576756e+05   1.064842e+05
  -1.096760e+05  -4.784327e+04
   1.360140e+05  -1.386687e+05
   3.007624e+05   5.052490e+03
   1.725686e+05   2.991128e+05
  -1.605850e+05   4.388171e+05
  -3.944152e+05   2.221521e+05
  -3.296231e+05  -2.035486e+05
  -5.813901e+04  -4.694434e+05
   1.785112e+05  -3.520980e+05
   2.389796e+05   1.398686e+04
   1.489169e+05   2.871131e+05
   7.843601e+02   2.620420e+05
  -1.197080e+05   5.102445e+04
  -1.458123e+05  -8.024110e+04
  -7.525749e+04  -3.115666e+04
  -8.863797e+03   3.759830e+04
  -5.043246e+04  -5.291692e+04
  -1.427484e+05  -2.390819e+05
  -9.699326e+04  -2.915227e+05
   1.521678e+05  -1.224756e+05
   3.966742e+05   1.053315e+05
   3.635932e+05   2.019946e+05
   5.288351e+04   1.658931e+05
  -2.382831e+05   1.083184e+05
  -2.564029e+05   6.573253e+04
  -7.097752e+04   1.600337e+03
   5.108595e+04  -6.450463e+04
  -6.735252e+03  -6.645676e+04
  -9.014411e+04  -2.143651e+04
  -1.126077e+04  -1.965262e+04
   1.846469e+05  -5.825880e+04
   2.626933e+05  -1.128941e+04
   8.298371e+04   1.653561e+05
  -2.288702e+05   3.011017e+05
  -4.125732e+05   1.942782e+05
  -3.304821e+05  -1.143802e+05
  -7.061360e+04  -3.592567e+05
   1.679323e+05  -3.426768e+05
   2.473923e+05  -1.314697e+05
   1.682568e+05   5.320936e+04
   3.481225e+04   7.843296e+04
  -3.304517e+04   3.129222e+03
   9.760488e+03  -2.125106e+04
   9.382221e+04   7.579922e+04
   9.562224e+04   1.992403e+05
  -3.164425e+04   1.799873e+05
  -1.850636e+05  -2.668183e+04
  -1.975352e+05  -2.512291e+05
  -1.668872e+04  -2.689262e+05
   2.117844e+05  -5.042618e+04
   2.677484e+05   2.010770e+05
   8.101463e+04   2.753664e+05
  -1.794047e+05   1.583932e+05
  -2.690155e+05  -1.292933e+04
  -1.280509e+05  -1.240430e+05
   5.391101e+04  -1.484890e+05
   6.171331e+04  -1.003864e+05
  -8.665864e+04  -1.978200e+04
  -1.656623e+05   9.475968e+03
  -2.836466e+04  -7.154621e+04
   2.063728e+05  -1.865919e+05
   3.000799e+05  -1.703477e+05
   1.758768e+05   2.228515e+04
  -1.992259e+04   2.187010e+05
  -1.149176e+05   2.148396e+05
  -8.235867e+04   2.545293e+04
  -2.329331e+03  -1.314748e+05
   6.175985e+04  -9.693750e+04
   9.019310e+04   5.765749e+04
   6.569917e+04   1.456340e+05
  -1.554988e+04   9.028634e+04
  -1.018510e+05  -1.663514e+04
  -1.198578e+05  -5.412446e+04
  -6.241301e+04  -1.201227e+04
   2.192240e+03   2.061597e+04
   2.197669e+04  -2.335887e+04
   2.188340e+04  -1.049644e+05
   5.014176e+04  -1.201055e+05
   9.560356e+04  -1.985641e+04
   9.318194e+04   1.204123e+05
   6.887729e+03   1.677408e+05
  -1.118470e+05   7.148101e+04
  -1.552452e+05  -7.932296e+04
  -5.816148e+04  -1.493851e+05
   1.179375e+05  -9.301812e+04
   2.127940e+05   1.938233e+04
   1.211684e+05   9.268829e+04
  -7.237765e+04   9.265922e+04
  -1.610760e+05   4.608501e+04
  -5.088298e+04  -1.401157e+03
   1.148448e+05  -9.664994e+03
   1.202853e+05   3.648202e+04
  -5.820230e+04   9.513518e+04
  -2.223140e+05   7.798223e+04
