
 $NMID
 id='ANONYMOUS ', fmtdat='(2E16.6)'
 volume=1.0
 tramp=1.0
 $END
  -6.010979e+07   3.390897e+05
  -3.607802e+07  -3.767277e+07
   8.283138e+06  -4.091729e+07
   2.961188e+07  -1.510136e+07
   1.732731e+07   8.109404e+06
  -3.830802e+06   9.916041e+06
  -1.037694e+07  -1.737184e+06
  -2.568877e+06  -1.046969e+07
   6.841427e+06  -9.521600e+06
   1.021641e+07  -1.801544e+06
   7.327752e+06   6.487948e+06
   8.931780e+05   8.916624e+06
  -4.123735e+06   2.972282e+06
  -2.697926e+06  -5.445883e+06
   4.020460e+06  -6.614486e+06
   8.283852e+06   1.570996e+06
   4.596069e+06   1.079260e+07
  -4.060920e+06   1.243036e+07
  -1.068822e+07   6.301881e+06
  -1.152906e+07  -2.021094e+06
  -7.270617e+06  -7.905520e+06
  -9.227915e+05  -9.412908e+06
   3.270303e+06  -6.697662e+06
   2.434470e+06  -2.777331e+06
  -8.693560e+05  -1.833872e+06
  -4.307674e+05  -4.020160e+06
   5.258097e+06  -4.638339e+06
   9.857913e+06  -7.993463e+05
   7.436993e+06   4.113637e+06
   5.724914e+05   5.304654e+06
  -3.581711e+06   2.905248e+06
  -2.580207e+06   3.607578e+05
   2.512550e+05  -7.215358e+05
   1.927459e+06  -5.964572e+05
   2.197837e+06   1.118714e+06
   9.807321e+05   3.843495e+06
  -1.727531e+06   4.141426e+06
  -3.585943e+06   1.376822e+05
  -2.084767e+06  -3.828940e+06
   7.841495e+05  -2.329290e+06
   5.330188e+05   2.278787e+06
  -2.472868e+06   2.292164e+06
  -2.514888e+06  -3.416863e+06
   2.755273e+06  -6.511864e+06
   7.617309e+06  -1.040007e+06
   5.530387e+06   7.447358e+06
  -2.094794e+06   9.133445e+06
  -7.873917e+06   2.597895e+06
  -7.179145e+06  -4.657563e+06
  -1.775099e+06  -6.234984e+06
   3.624581e+06  -2.689241e+06
   5.319453e+06   1.702285e+06
   2.346728e+06   3.661776e+06
  -2.627411e+06   2.250009e+06
  -4.746283e+06  -1.040553e+06
  -1.991203e+06  -2.907492e+06
   1.828090e+06  -1.436987e+06
   1.737804e+06   1.086364e+06
  -1.531474e+06   8.547940e+05
  -2.593650e+06  -2.087321e+06
   8.839076e+05  -3.812202e+06
   5.122041e+06  -1.975675e+06
   5.635200e+06   1.592951e+06
   2.388721e+06   4.273759e+06
  -1.805614e+06   5.496479e+06
  -5.022508e+06   5.070215e+06
  -6.353703e+06   1.939802e+06
  -4.863085e+06  -3.156734e+06
  -1.079461e+06  -6.354942e+06
   1.991064e+06  -4.879393e+06
   1.914250e+06  -1.087009e+06
   6.662054e+04   4.757058e+05
  -3.172641e+05  -9.279757e+05
   1.382194e+06  -1.961280e+06
   2.785648e+06  -4.896204e+05
   2.137478e+06   1.738731e+06
   1.866581e+05   2.067533e+06
  -1.415590e+06   2.528625e+05
  -1.647067e+06  -1.971947e+06
  -7.280485e+04  -2.917672e+06
   2.753921e+06  -1.777158e+06
   4.638756e+06   1.080952e+06
   3.455631e+06   3.846392e+06
   3.929475e+04   4.477609e+06
  -2.403260e+06   2.925232e+06
  -2.404030e+06   1.187195e+06
  -1.928439e+06   6.372805e+05
  -2.990145e+06   4.286536e+05
  -4.395193e+06  -8.022991e+05
  -3.510316e+06  -2.800943e+06
  -1.304620e+05  -4.145197e+06
   3.182623e+06  -3.928224e+06
   4.134803e+06  -2.203570e+06
   2.686085e+06   3.203290e+05
   3.847557e+05   2.210192e+06
  -1.019692e+06   1.988771e+06
  -5.755556e+05   9.426806e+01
   1.058905e+06  -1.335677e+06
   1.938415e+06  -4.205911e+05
   9.776280e+05   1.222778e+06
  -4.845607e+05   1.117224e+06
  -3.727783e+05  -4.033635e+05
   1.166001e+06  -6.130880e+05
   1.877347e+06   1.503406e+06
   4.737127e+05   3.653252e+06
  -1.848424e+06   3.342286e+06
  -3.250522e+06   8.813558e+05
  -3.210123e+06  -1.597189e+06
  -2.130898e+06  -2.740541e+06
  -4.097828e+05  -2.541773e+06
   1.211961e+06  -1.460306e+06
   1.561094e+06  -2.545570e+05
   4.944502e+05   4.468474e+04
  -3.584908e+05  -7.580930e+05
   4.382982e+05  -1.376373e+06
   1.967501e+06  -5.889774e+05
   2.071547e+06   9.365121e+05
   3.648481e+05   1.462229e+06
  -1.192963e+06   5.602248e+05
  -8.550911e+05  -4.656714e+05
   8.854537e+05  -4.584039e+05
   2.138869e+06   4.060229e+05
   1.650299e+06   1.369302e+06
  -3.050619e+05   1.913052e+06
  -2.310436e+06   1.606597e+06
  -2.776135e+06   2.579018e+05
  -1.230249e+06  -1.296230e+06
   9.407261e+05  -1.551490e+06
   1.615568e+06  -2.032403e+05
   2.290207e+05   1.111949e+06
  -1.535874e+06   7.520824e+05
  -1.725762e+06  -8.104671e+05
  -2.950295e+05  -1.669981e+06
   1.138050e+06  -9.383815e+05
   1.253394e+06   3.708711e+05
   2.058680e+05   8.069838e+05
  -8.297891e+05   4.699268e+04
  -7.548235e+05  -1.068364e+06
   5.664682e+05  -1.443539e+06
   2.016818e+06  -5.654996e+05
   2.059931e+06   1.046731e+06
   3.887717e+05   2.096980e+06
  -1.467432e+06   1.656005e+06
  -1.746282e+06   1.931087e+05
  -4.860773e+05  -8.859109e+05
   6.748653e+05  -7.962272e+05
   6.111469e+05  -7.823604e+04
  -1.436776e+05   3.164493e+05
  -4.582172e+05   1.593565e+05
  -4.587963e+04  -5.542025e+04
   4.924554e+05   1.430300e+05
   4.985562e+05   7.312745e+05
  -2.473565e+05   1.204612e+06
  -1.406050e+06   8.897326e+05
  -2.095078e+06  -4.243939e+05
  -1.477406e+06  -1.957937e+06
   2.160377e+05  -2.423299e+06
   1.617214e+06  -1.383245e+06
   1.661437e+06   1.558791e+05
   8.051934e+05   8.681463e+05
   2.989800e+05   5.723020e+05
   5.211011e+05   1.677265e+05
   6.825115e+05   3.323335e+05
   9.994289e+04   8.018015e+05
  -8.977644e+05   8.956396e+05
  -1.444996e+06   2.967322e+05
  -1.014220e+06  -7.170029e+05
   2.785854e+05  -1.421842e+06
   1.725242e+06  -1.044188e+06
   2.239269e+06   4.952650e+05
   1.112165e+06   2.118823e+06
  -1.055318e+06   2.380320e+06
  -2.585575e+06   1.006805e+06
  -2.341130e+06  -7.078600e+05
  -8.972651e+05  -1.348228e+06
   2.422955e+05  -8.972056e+05
   3.544107e+05  -4.622526e+05
   9.236682e+03  -7.608243e+05
   6.763450e+04  -1.354194e+06
   6.829977e+05  -1.327034e+06
   1.320486e+06  -3.326835e+05
   1.355229e+06   1.078079e+06
   5.677853e+05   1.898490e+06
  -6.156945e+05   1.443821e+06
  -1.286406e+06  -9.908110e+03
  -8.048668e+05  -1.308921e+06
   4.245477e+05  -1.406351e+06
   1.207105e+06  -3.688570e+05
   8.211641e+05   7.611216e+05
  -1.647047e+05   1.115623e+06
  -5.923340e+05   7.794996e+05
  -1.076450e+05   3.961734e+05
   4.458353e+05   3.238219e+05
   6.765956e+04   3.795212e+05
  -1.172397e+06   2.057791e+05
  -2.099352e+06  -3.413745e+05
  -1.626362e+06  -1.057673e+06
   6.941069e+04  -1.467694e+06
   1.634206e+06  -1.160473e+06
   1.853934e+06  -2.566079e+05
   8.259733e+05   5.414032e+05
  -2.790695e+05   5.938435e+05
  -5.265521e+05   1.599177e+04
  -4.686219e+04  -4.504917e+05
   4.283449e+05  -2.692674e+05
   4.905773e+05   3.404559e+05
   2.929225e+05   7.139935e+05
   1.319824e+05   4.776960e+05
   1.339294e+05  -7.061115e+04
   2.522824e+05  -2.629371e+05
   2.702738e+05   2.366918e+05
  -1.206468e+05   9.779869e+05
  -9.006204e+05   1.080668e+06
  -1.409670e+06   2.067924e+05
  -9.031090e+05  -9.123326e+05
   4.110955e+05  -1.180864e+06
   1.286129e+06  -3.815682e+05
   7.452387e+05   5.593148e+05
  -7.125799e+05   6.456102e+05
  -1.577283e+06  -1.136201e+05
  -9.597981e+05  -8.745670e+05
   5.219830e+05  -9.615377e+05
   1.492282e+06  -4.281484e+05
   1.201572e+06   2.183226e+05
   1.150372e+05   5.060843e+05
  -6.559440e+05   2.525391e+05
  -4.002025e+05  -3.063847e+05
   5.645203e+05  -5.478173e+05
   1.192092e+06   4.160854e+04
   7.214030e+05   1.163903e+06
  -5.318346e+05   1.730364e+06
  -1.459134e+06   9.311799e+05
  -1.268634e+06  -7.322666e+05
  -2.239851e+05  -1.784244e+06
   7.316586e+05  -1.278741e+06
   9.199213e+05   1.989659e+05
   4.097584e+05   1.195227e+06
  -2.525503e+05   9.500161e+05
  -5.742439e+05   7.115322e+04
  -4.405101e+05  -3.682503e+05
  -1.325276e+05  -1.261797e+05
  -6.046383e+04   8.572223e+04
  -3.290425e+05  -3.161518e+05
  -5.353620e+05  -9.737488e+05
  -1.593396e+05  -1.071209e+06
   7.584453e+05  -3.933486e+05
   1.473999e+06   4.527660e+05
   1.250267e+06   8.278597e+05
   1.861480e+05   7.063828e+05
  -8.168526e+05   4.318490e+05
  -9.712771e+05   1.780618e+05
  -3.910526e+05  -7.080546e+04
   1.299183e+05  -2.313736e+05
   7.512747e+04  -1.848729e+05
  -2.220945e+05  -6.725503e+04
  -7.006715e+04  -1.302491e+05
   6.121048e+05  -2.632934e+05
   1.056441e+06  -1.742912e+04
   5.119203e+05   6.965115e+05
  -7.831232e+05   1.223273e+06
  -1.726164e+06   8.199677e+05
  -1.481769e+06  -3.841390e+05
  -3.179080e+05  -1.399280e+06
   7.603739e+05  -1.409525e+06
   1.046216e+06  -5.903594e+05
   6.555134e+05   1.955399e+05
   1.610891e+05   3.586254e+05
  -2.856409e+04   9.639161e+04
   9.643605e+04   1.423762e+04
   2.855180e+05   3.786923e+05
   2.426322e+05   8.078113e+05
  -1.580604e+05   6.959761e+05
  -6.772794e+05  -7.566090e+04
  -7.901723e+05  -9.091187e+05
  -1.907163e+05  -1.039561e+06
   7.222753e+05  -3.115149e+05
   1.070813e+06   6.584537e+05
   4.048674e+05   1.090090e+06
  -6.944181e+05   7.318044e+05
  -1.149498e+06  -3.738919e+04
  -5.744359e+05  -6.373114e+05
   2.776345e+05  -7.314897e+05
   4.132533e+05  -3.878553e+05
  -2.049832e+05   1.337114e+04
  -6.402092e+05   6.058119e+04
  -1.691654e+05  -3.150377e+05
   8.152863e+05  -6.931122e+05
   1.291930e+06  -5.352526e+05
   8.138477e+05   1.974790e+05
  -7.429395e+04   8.933934e+05
  -5.756844e+05   8.902827e+05
  -4.690287e+05   2.042627e+05
  -8.867326e+04  -4.618094e+05
   2.220616e+05  -4.675139e+05
   3.547916e+05   9.940220e+04
   2.751674e+05   5.727755e+05
  -3.212045e+04   4.679447e+05
  -3.958413e+05  -1.767255e+04
  -4.987926e+05  -2.995894e+05
  -2.462935e+05  -1.169264e+05
   5.868498e+04   1.823267e+05
   8.466349e+04   1.083319e+05
  -7.786102e+04  -3.285498e+05
  -4.461764e+04  -5.997863e+05
   2.891783e+05  -3.032874e+05
   5.253998e+05   3.203319e+05
   2.479157e+05   6.406635e+05
  -3.810804e+05   3.473911e+05
  -7.032125e+05  -2.359271e+05
  -2.916470e+05  -5.529663e+05
   5.135336e+05  -3.866917e+05
   9.144873e+05   3.403690e+04
   5.040789e+05   3.662179e+05
  -2.849488e+05   4.420364e+05
  -6.481008e+05   2.853060e+05
  -2.849199e+05   3.184213e+04
   2.991215e+05  -1.125910e+05
   3.929602e+05   5.027324e+03
  -1.224596e+05   2.684990e+05
  -6.762682e+05   2.946944e+05
