
 $NMID
 id='ANONYMOUS ', fmtdat='(2E16.6)'
 volume=1.0
 tramp=1.0
 $END
   4.646905e+07  -1.130675e+06
   2.921514e+07   2.700024e+07
  -4.368636e+06   3.132727e+07
  -2.209783e+07   1.388138e+07
  -1.434406e+07  -4.217207e+06
   1.927912e+06  -7.911845e+06
   8.401050e+06  -3.904718e+04
   3.294649e+06   7.949319e+06
  -4.486545e+06   8.706076e+06
  -8.085768e+06   2.514830e+06
  -6.189368e+06  -5.144137e+06
  -8.748591e+05  -7.532801e+06
   3.442579e+06  -2.300572e+06
   2.497088e+06   5.049971e+06
  -2.944243e+06   6.173886e+06
  -6.762976e+06  -6.219029e+05
  -4.227233e+06  -8.474612e+06
   2.727147e+06  -1.013679e+07
   8.320650e+06  -5.186727e+06
   8.981746e+06   1.640714e+06
   5.349997e+06   6.093234e+06
   5.575080e+05   6.785861e+06
  -1.902574e+06   4.706933e+06
  -6.704841e+05   2.510875e+06
   1.471502e+06   2.592358e+06
   2.501706e+04   4.179646e+06
  -5.205777e+06   3.846453e+06
  -8.725077e+06   2.120563e+05
  -6.068473e+06  -3.697471e+06
   1.628594e+05  -4.314501e+06
   3.647147e+06  -1.930095e+06
   2.116241e+06   5.150379e+05
  -1.193718e+06   1.248770e+06
  -2.749969e+06   3.025192e+05
  -2.076526e+06  -1.845583e+06
  -2.466409e+05  -3.819315e+06
   1.700269e+06  -3.173874e+06
   2.407337e+06   3.995004e+05
   1.074436e+06   3.007773e+06
  -6.231714e+05   1.125149e+06
  -3.341985e+04  -2.610610e+06
   2.245765e+06  -2.265637e+06
   2.300753e+06   2.556304e+06
  -1.515560e+06   5.224730e+06
  -5.350430e+06   1.165441e+06
  -4.337663e+06  -5.445449e+06
   1.200287e+06  -7.050752e+06
   6.144579e+06  -2.199438e+06
   6.303349e+06   3.646144e+06
   2.042454e+06   5.316309e+06
  -2.969930e+06   2.711099e+06
  -4.938792e+06  -1.004325e+06
  -2.543120e+06  -2.952256e+06
   1.855222e+06  -2.072245e+06
   3.934802e+06   5.317288e+05
   1.861623e+06   2.193593e+06
  -1.389844e+06   1.233708e+06
  -1.687747e+06  -8.296770e+05
   8.624769e+05  -1.050517e+06
   2.229013e+06   9.807683e+05
   4.132529e+04   2.639680e+06
  -3.429408e+06   1.851586e+06
  -4.485542e+06  -6.798746e+05
  -2.204132e+06  -3.165096e+06
   1.551012e+06  -4.617361e+06
   4.584218e+06  -4.305580e+06
   5.523452e+06  -1.476645e+06
   3.916287e+06   2.853615e+06
   8.224839e+05   5.492749e+06
  -1.408556e+06   4.400091e+06
  -1.395218e+06   1.471299e+06
  -3.748693e+05   1.592302e+05
  -4.852677e+05   9.891360e+05
  -1.870868e+06   1.405916e+06
  -2.705251e+06  -1.608394e+05
  -1.768089e+06  -2.138999e+06
   2.270374e+05  -2.183700e+06
   1.737427e+06  -1.324840e+05
   1.709360e+06   2.151633e+06
  -5.492715e+04   2.843399e+06
  -2.619768e+06   1.429496e+06
  -3.990562e+06  -1.207952e+06
  -2.759055e+06  -3.326816e+06
   3.604397e+04  -3.578859e+06
   1.851706e+06  -2.295879e+06
   1.792905e+06  -1.077609e+06
   1.579942e+06  -7.946371e+05
   2.744630e+06  -6.239803e+05
   4.131068e+06   5.621484e+05
   3.381840e+06   2.533404e+06
   2.099753e+05   3.955458e+06
  -3.062319e+06   3.784582e+06
  -4.053373e+06   1.985938e+06
  -2.515340e+06  -5.255544e+05
  -1.191689e+05  -2.188542e+06
   1.160738e+06  -1.791311e+06
   5.224735e+05   8.433992e+04
  -1.078409e+06   1.244598e+06
  -1.789151e+06   3.910415e+05
  -8.260831e+05  -1.115666e+06
   5.390135e+05  -1.083644e+06
   5.206547e+05   3.572861e+05
  -8.689543e+05   8.549879e+05
  -1.824776e+06  -8.491371e+05
  -1.002580e+06  -3.116096e+06
   1.065115e+06  -3.489601e+06
   2.877803e+06  -1.534258e+06
   3.418032e+06   1.108265e+06
   2.485237e+06   2.695870e+06
   5.434907e+05   2.645846e+06
  -1.229810e+06   1.446871e+06
  -1.555990e+06   2.033396e+05
  -4.787131e+05  -3.868978e+04
   3.619149e+05   7.203435e+05
  -3.411598e+05   1.266702e+06
  -1.763131e+06   5.870508e+05
  -1.951189e+06  -7.596929e+05
  -4.332141e+05  -1.315730e+06
   1.110108e+06  -5.943457e+05
   9.271553e+05   4.243998e+05
  -7.797316e+05   6.150332e+05
  -2.208036e+06  -1.663967e+05
  -1.858665e+06  -1.298116e+06
   1.449842e+05  -2.019692e+06
   2.237707e+06  -1.715253e+06
   2.706776e+06  -3.271014e+05
   1.193621e+06   1.176378e+06
  -8.413532e+05   1.416025e+06
  -1.444437e+06   1.960865e+05
  -1.773431e+05  -1.007875e+06
   1.447050e+06  -7.242379e+05
   1.687109e+06   7.036670e+05
   4.100997e+05   1.596677e+06
  -1.001810e+06   1.027243e+06
  -1.248695e+06  -2.138274e+05
  -3.055182e+05  -7.355702e+05
   7.382618e+05  -7.893409e+04
   7.155170e+05   1.001062e+06
  -5.540040e+05   1.378761e+06
  -1.946175e+06   5.327679e+05
  -1.979064e+06  -1.001999e+06
  -4.010972e+05  -1.999907e+06
   1.353707e+06  -1.616242e+06
   1.666568e+06  -2.516915e+05
   5.253100e+05   8.264516e+05
  -6.168880e+05   8.069911e+05
  -6.484882e+05   7.775467e+04
   8.544184e+04  -4.144811e+05
   5.273321e+05  -2.691398e+05
   2.171734e+05   8.486323e+04
  -3.916782e+05   1.987678e+04
  -5.466950e+05  -5.788757e+05
   1.340830e+05  -1.147824e+06
   1.313508e+06  -9.046543e+05
   2.029543e+06   3.636837e+05
   1.448277e+06   1.865004e+06
  -1.796309e+05   2.371608e+06
  -1.563784e+06   1.441273e+06
  -1.694379e+06  -6.793526e+04
  -9.126308e+05  -9.078599e+05
  -3.321358e+05  -7.352949e+05
  -4.088497e+05  -2.672663e+05
  -5.510728e+05  -2.675626e+05
  -9.258477e+04  -6.989044e+05
   8.199104e+05  -9.020565e+05
   1.420116e+06  -3.704475e+05
   1.078854e+06   7.035835e+05
  -1.955358e+05   1.480996e+06
  -1.670331e+06   1.107177e+06
  -2.218855e+06  -4.299293e+05
  -1.166044e+06  -2.020866e+06
   9.004329e+05  -2.317475e+06
   2.426565e+06  -1.078081e+06
   2.327622e+06   5.573721e+05
   1.025006e+06   1.293502e+06
  -1.513439e+05   9.910506e+05
  -4.216494e+05   5.584396e+05
  -1.483403e+05   7.214129e+05
  -1.201934e+05   1.220080e+06
  -6.185141e+05   1.226306e+06
  -1.228384e+06   3.170781e+05
  -1.304740e+06  -1.038630e+06
  -5.608368e+05  -1.840924e+06
   5.940670e+05  -1.408083e+06
   1.258706e+06  -2.536627e+04
   8.249206e+05   1.215942e+06
  -3.216462e+05   1.363926e+06
  -1.084458e+06   4.610901e+05
  -7.990142e+05  -5.954713e+05
   5.249777e+04  -1.012371e+06
   4.494650e+05  -7.823512e+05
   5.348604e+04  -4.338179e+05
  -4.138244e+05  -3.341669e+05
  -5.543942e+04  -3.776712e+05
   1.094648e+06  -2.299607e+05
   1.984313e+06   2.802841e+05
   1.590480e+06   9.661674e+05
   2.318982e+04   1.371904e+06
  -1.486334e+06   1.123119e+06
  -1.766294e+06   3.246255e+05
  -8.369561e+05  -4.200515e+05
   2.244097e+05  -5.354744e+05
   4.858354e+05  -6.168013e+04
   2.235568e+04   3.781921e+05
  -4.435815e+05   2.474222e+05
  -4.677579e+05  -3.272756e+05
  -2.191840e+05  -7.086440e+05
  -6.553924e+04  -4.654002e+05
  -1.387230e+05   1.189992e+05
  -2.987468e+05   3.177143e+05
  -2.788029e+05  -2.190119e+05
   1.431153e+05  -9.741166e+05
   8.592928e+05  -1.044714e+06
   1.280931e+06  -1.694314e+05
   8.013111e+05   8.773946e+05
  -3.861178e+05   1.083141e+06
  -1.194624e+06   3.143905e+05
  -7.168584e+05  -5.593994e+05
   6.675824e+05  -6.497021e+05
   1.567787e+06   5.419169e+04
   1.039649e+06   8.237531e+05
  -4.280525e+05   1.003179e+06
  -1.470005e+06   5.345350e+05
  -1.239341e+06  -1.476322e+05
  -1.546472e+05  -5.098930e+05
   6.282078e+05  -2.880544e+05
   3.697296e+05   2.705461e+05
  -5.775815e+05   5.013410e+05
  -1.151484e+06  -8.544545e+04
  -6.432279e+05  -1.153588e+06
   5.837134e+05  -1.657435e+06
   1.451603e+06  -8.647981e+05
   1.236547e+06   7.346846e+05
   2.181493e+05   1.757423e+06
  -7.096922e+05   1.293189e+06
  -9.161607e+05  -1.427503e+05
  -4.577994e+05  -1.161388e+06
   1.799672e+05  -9.686001e+05
   5.436686e+05  -1.008762e+05
   4.782966e+05   3.695389e+05
   1.799832e+05   1.406917e+05
   3.998005e+04  -1.007118e+05
   2.534215e+05   2.695873e+05
   5.035695e+05   9.331432e+05
   2.232556e+05   1.061064e+06
  -6.703957e+05   4.039834e+05
  -1.455417e+06  -4.363335e+05
  -1.286242e+06  -8.048171e+05
  -1.940181e+05  -6.780657e+05
   8.468580e+05  -4.188375e+05
   9.690748e+05  -1.980422e+05
   3.417197e+05   3.516681e+04
  -1.455402e+05   2.206330e+05
  -1.455951e+04   2.135432e+05
   2.791300e+05   1.021014e+05
   4.384660e+04   1.298276e+05
  -6.642763e+05   2.306437e+05
  -1.022328e+06  -1.292200e+03
  -4.072419e+05  -6.646850e+05
   8.228953e+05  -1.152445e+06
   1.639556e+06  -7.544653e+05
   1.365134e+06   4.083008e+05
   2.830044e+05   1.375213e+06
  -7.253855e+05   1.353759e+06
  -1.017796e+06   5.314853e+05
  -6.464461e+05  -2.273248e+05
  -1.294235e+05  -3.475915e+05
   8.052093e+04  -5.422159e+04
  -7.580311e+04   2.948848e+04
  -3.081264e+05  -3.521167e+05
  -2.606861e+05  -7.890242e+05
   1.676875e+05  -6.642822e+05
   6.703334e+05   1.182018e+05
   7.286627e+05   9.281304e+05
   1.148038e+05   1.003978e+06
  -7.391658e+05   2.404905e+05
  -1.018731e+06  -6.997739e+05
  -3.507033e+05  -1.058907e+06
   6.874250e+05  -6.653059e+05
   1.089544e+06   5.716340e+04
   5.250177e+05   5.808416e+05
  -2.667336e+05   6.574384e+05
  -3.545542e+05   3.658669e+05
   2.527271e+05   1.150075e+04
   6.380113e+05  -4.677755e+04
   1.452566e+05   2.962957e+05
  -7.977458e+05   6.797945e+05
  -1.216905e+06   5.596801e+05
  -7.403788e+05  -1.504695e+05
   8.009085e+04  -8.484440e+05
   5.163632e+05  -8.451644e+05
   4.019484e+05  -1.602872e+05
   5.422457e+04   4.713916e+05
  -2.275713e+05   4.244137e+05
  -3.458295e+05  -1.472434e+05
  -2.571911e+05  -5.610646e+05
   4.481431e+04  -4.106003e+05
   3.823726e+05   4.077623e+04
   4.689162e+05   2.597917e+05
   2.403183e+05   8.476406e+04
  -3.341229e+04  -1.384725e+05
  -8.501944e+04  -2.674862e+04
   4.447480e+03   3.486215e+05
  -5.391397e+04   5.260185e+05
  -3.100596e+05   2.027172e+05
  -4.416923e+05  -3.705552e+05
  -1.498116e+05  -6.291029e+05
   3.973415e+05  -3.101505e+05
   6.487726e+05   2.657934e+05
   2.538679e+05   5.592423e+05
  -4.877426e+05   3.664698e+05
  -8.600522e+05  -6.043351e+04
  -4.735429e+05  -3.608264e+05
   2.789085e+05  -3.914216e+05
   6.177133e+05  -2.283123e+05
   2.386026e+05  -2.291516e+04
  -3.444131e+05   6.480514e+04
  -4.012069e+05  -6.428826e+04
   1.674523e+05  -2.913489e+05
   7.338225e+05  -2.760145e+05
