
 $NMID
 id='ANONYMOUS ', fmtdat='(2E16.6)'
 volume=1.0
 tramp=1.0
 $END
  -4.801584e+07  -3.914527e+05
  -2.898008e+07  -2.909630e+07
   5.868381e+06  -3.216035e+07
   2.324392e+07  -1.320817e+07
   1.436404e+07   5.106577e+06
  -2.407558e+06   7.994095e+06
  -8.506362e+06  -4.456338e+05
  -2.907021e+06  -8.242824e+06
   4.947530e+06  -8.547515e+06
   8.311952e+06  -2.158639e+06
   6.155559e+06   5.438370e+06
   6.942748e+05   7.678174e+06
  -3.578910e+06   2.295052e+06
  -2.417222e+06  -5.103727e+06
   3.177940e+06  -6.080251e+06
   6.859625e+06   9.307668e+05
   3.998918e+06   8.812153e+06
  -3.161029e+06   1.026789e+07
  -8.723866e+06   5.059067e+06
  -9.231702e+06  -1.945149e+06
  -5.399902e+06  -6.485660e+06
  -3.645195e+05  -7.139274e+06
   2.264120e+06  -4.850914e+06
   9.704909e+05  -2.412560e+06
  -1.383503e+06  -2.438973e+06
  -4.266112e+04  -4.142662e+06
   5.260721e+06  -3.860332e+06
   8.849249e+06  -1.209630e+05
   6.143122e+06   3.881280e+06
  -1.656889e+05   4.462053e+06
  -3.685816e+06   2.014547e+06
  -2.211152e+06  -4.352933e+05
   1.027440e+06  -1.201767e+06
   2.625089e+06  -3.590981e+05
   2.097168e+06   1.754135e+06
   3.049809e+05   3.835195e+06
  -1.785600e+06   3.265126e+06
  -2.586314e+06  -4.168951e+05
  -1.126893e+06  -3.174899e+06
   7.277239e+05  -1.274646e+06
   9.468476e+04   2.568366e+06
  -2.288023e+06   2.207605e+06
  -2.227725e+06  -2.700322e+06
   1.826164e+06  -5.272302e+06
   5.641626e+06  -9.333383e+05
   4.285140e+06   5.815535e+06
  -1.533836e+06   7.223679e+06
  -6.393921e+06   2.057699e+06
  -6.268318e+06  -3.892064e+06
  -1.863511e+06  -5.411600e+06
   3.070684e+06  -2.606796e+06
   4.894657e+06   1.181340e+06
   2.411912e+06   3.048333e+06
  -1.987378e+06   2.009389e+06
  -3.980247e+06  -6.989411e+05
  -1.793469e+06  -2.308511e+06
   1.468674e+06  -1.208333e+06
   1.653704e+06   8.832822e+05
  -9.538742e+05   9.605640e+05
  -2.182860e+06  -1.183972e+06
   1.987793e+05  -2.732106e+06
   3.677310e+06  -1.708157e+06
   4.550036e+06   9.324686e+05
   2.105298e+06   3.337416e+06
  -1.683987e+06   4.670351e+06
  -4.705798e+06   4.296386e+06
  -5.641281e+06   1.413559e+06
  -3.966600e+06  -2.977279e+06
  -7.335575e+05  -5.594807e+06
   1.563909e+06  -4.377795e+06
   1.453303e+06  -1.353106e+06
   2.896600e+05  -7.887862e+04
   3.714681e+05  -1.013835e+06
   1.832858e+06  -1.481128e+06
   2.729547e+06   1.019066e+05
   1.804002e+06   2.104351e+06
  -1.837743e+05   2.168456e+06
  -1.682691e+06   1.470156e+05
  -1.668722e+06  -2.122427e+06
   7.493404e+04  -2.835020e+06
   2.653829e+06  -1.427257e+06
   4.042191e+06   1.266174e+06
   2.764253e+06   3.448627e+06
  -1.226625e+05   3.682523e+06
  -1.982099e+06   2.311644e+06
  -1.886367e+06   1.025148e+06
  -1.617101e+06   7.238155e+05
  -2.751568e+06   5.409238e+05
  -4.110799e+06  -6.590919e+05
  -3.322576e+06  -2.598853e+06
  -1.362883e+05  -3.944880e+06
   3.107165e+06  -3.726176e+06
   4.065658e+06  -1.945146e+06
   2.523185e+06   5.316072e+05
   1.289838e+05   2.189023e+06
  -1.162982e+06   1.798139e+06
  -5.292826e+05  -8.066108e+04
   1.086373e+06  -1.234305e+06
   1.800985e+06  -3.607309e+05
   8.205027e+05   1.140286e+06
  -5.411440e+05   1.075009e+06
  -4.865840e+05  -3.582856e+05
   9.006966e+05  -7.826131e+05
   1.765677e+06   9.635586e+05
   8.447031e+05   3.146970e+06
  -1.204561e+06   3.375336e+06
  -2.885612e+06   1.366162e+06
  -3.312980e+06  -1.199329e+06
  -2.374577e+06  -2.686644e+06
  -4.926813e+05  -2.604817e+06
   1.234431e+06  -1.421661e+06
   1.547993e+06  -1.897399e+05
   4.757971e+05   4.595994e+04
  -3.468532e+05  -7.235027e+05
   3.746054e+05  -1.261016e+06
   1.784256e+06  -5.477873e+05
   1.930706e+06   8.099637e+05
   3.939594e+05   1.326140e+06
  -1.117277e+06   5.648860e+05
  -9.000283e+05  -4.337631e+05
   7.865156e+05  -5.702488e+05
   2.161162e+06   2.233013e+05
   1.790615e+06   1.307029e+06
  -1.856698e+05   1.973971e+06
  -2.242364e+06   1.651589e+06
  -2.691887e+06   2.765353e+05
  -1.166322e+06  -1.199945e+06
   8.737480e+05  -1.406508e+06
   1.459048e+06  -1.672739e+05
   1.645649e+05   1.019105e+06
  -1.457356e+06   6.984171e+05
  -1.662072e+06  -7.359727e+05
  -3.652898e+05  -1.590722e+06
   1.019806e+06  -9.839978e+05
   1.225562e+06   2.506517e+05
   2.744644e+05   7.368884e+05
  -7.440585e+05   5.860924e+04
  -6.982276e+05  -1.013182e+06
   5.718380e+05  -1.368138e+06
   1.947392e+06  -5.044387e+05
   1.957818e+06   1.028658e+06
   3.651576e+05   2.000008e+06
  -1.380209e+06   1.583729e+06
  -1.662407e+06   2.155494e+05
  -5.008624e+05  -8.314922e+05
   6.289651e+05  -7.867080e+05
   6.378083e+05  -7.133470e+04
  -9.263435e+04   3.915695e+05
  -5.090843e+05   2.480155e+05
  -1.905930e+05  -7.220719e+04
   3.935284e+05   1.519248e+04
   5.184045e+05   5.999472e+05
  -1.670931e+05   1.137333e+06
  -1.325424e+06   8.725100e+05
  -2.012547e+06  -3.982155e+05
  -1.410821e+06  -1.881197e+06
   2.155201e+05  -2.353076e+06
   1.571398e+06  -1.397076e+06
   1.667781e+06   9.899317e+04
   8.797447e+05   8.982149e+05
   3.251747e+05   7.064510e+05
   4.245417e+05   2.619203e+05
   5.583351e+05   2.894707e+05
   7.810371e+04   7.094279e+05
  -8.346060e+05   8.782512e+05
  -1.411047e+06   3.373382e+05
  -1.050176e+06  -7.084991e+05
   2.205681e+05  -1.451411e+06
   1.673023e+06  -1.064004e+06
   2.192392e+06   4.641118e+05
   1.116637e+06   2.027888e+06
  -9.473643e+05   2.285062e+06
  -2.436708e+06   1.018227e+06
  -2.292251e+06  -6.038449e+05
  -9.775022e+05  -1.294485e+06
   1.698588e+05  -9.606734e+05
   4.088292e+05  -5.380087e+05
   1.376096e+05  -7.272588e+05
   1.343658e+05  -1.230440e+06
   6.434874e+05  -1.218459e+06
   1.235562e+06  -2.958389e+05
   1.285112e+06   1.053980e+06
   5.306561e+05   1.839824e+06
  -6.112321e+05   1.391823e+06
  -1.249390e+06   2.771057e+03
  -7.938045e+05  -1.227452e+06
   3.532283e+05  -1.347487e+06
   1.092721e+06  -4.224332e+05
   7.776106e+05   6.257102e+05
  -8.733187e+04   1.010933e+06
  -4.759553e+05   7.605436e+05
  -6.403804e+04   4.202732e+05
   4.113812e+05   3.365736e+05
   5.205498e+04   3.759473e+05
  -1.097528e+06   2.061860e+05
  -1.976107e+06  -3.180567e+05
  -1.563826e+06  -9.925517e+05
   1.344067e+04  -1.368179e+06
   1.510678e+06  -1.091145e+06
   1.762880e+06  -2.845934e+05
   8.150809e+05   4.437812e+05
  -2.405651e+05   5.331690e+05
  -4.854124e+05   4.592509e+04
  -1.683064e+04  -3.872563e+05
   4.415582e+05  -2.439744e+05
   4.620864e+05   3.332889e+05
   2.191996e+05   7.101021e+05
   6.839253e+04   4.677915e+05
   1.352608e+05  -1.093558e+05
   2.897179e+05  -3.058399e+05
   2.713030e+05   2.226053e+05
  -1.506123e+05   9.654839e+05
  -8.726040e+05   1.027488e+06
  -1.292744e+06   1.498937e+05
  -7.962546e+05  -8.905745e+05
   4.054977e+05  -1.081509e+06
   1.205218e+06  -3.013416e+05
   7.076914e+05   5.647246e+05
  -6.758105e+05   6.322557e+05
  -1.550534e+06  -8.221679e+04
  -1.005115e+06  -8.315740e+05
   4.477797e+05  -9.768642e+05
   1.459881e+06  -4.945245e+05
   1.216253e+06   1.696311e+05
   1.413388e+05   5.041219e+05
  -6.279145e+05   2.707359e+05
  -3.653444e+05  -2.797860e+05
   5.793239e+05  -4.973703e+05
   1.148576e+06   9.471361e+04
   6.342163e+05   1.157156e+06
  -5.953136e+05   1.649091e+06
  -1.453980e+06   8.485623e+05
  -1.221149e+06  -7.446052e+05
  -1.939474e+05  -1.748288e+06
   7.213446e+05  -1.269171e+06
   9.031483e+05   1.612234e+05
   4.301944e+05   1.158438e+06
  -1.998471e+05   9.503185e+05
  -5.426729e+05   8.699828e+04
  -4.638383e+05  -3.695161e+05
  -1.704115e+05  -1.365563e+05
  -4.296535e+04   9.580860e+04
  -2.562099e+05  -2.817571e+05
  -4.897900e+05  -9.386959e+05
  -1.981047e+05  -1.051633e+06
   6.816234e+05  -3.851233e+05
   1.438476e+06   4.536653e+05
   1.257845e+06   8.143594e+05
   1.810703e+05   6.779564e+05
  -8.405167e+05   4.084349e+05
  -9.617069e+05   1.812861e+05
  -3.433325e+05  -4.732805e+04
   1.452091e+05  -2.193710e+05
   2.428024e+04  -2.034431e+05
  -2.689600e+05  -9.593227e+04
  -4.571989e+04  -1.308598e+05
   6.552350e+05  -2.284555e+05
   1.019146e+06   1.307500e+04
   4.090252e+05   6.746801e+05
  -8.278020e+05   1.144775e+06
  -1.650593e+06   7.319884e+05
  -1.366459e+06  -4.247264e+05
  -2.673528e+05  -1.371757e+06
   7.438772e+05  -1.338655e+06
   1.022788e+06  -5.212067e+05
   6.410297e+05   2.289770e+05
   1.280153e+05   3.495729e+05
  -7.529125e+04   6.218565e+04
   7.587737e+04  -2.052489e+04
   2.960067e+05   3.552364e+05
   2.447984e+05   7.866624e+05
  -1.747775e+05   6.614191e+05
  -6.663507e+05  -1.194149e+05
  -7.209320e+05  -9.294220e+05
  -1.106205e+05  -1.006070e+06
   7.371167e+05  -2.408597e+05
   1.011102e+06   7.027976e+05
   3.407242e+05   1.061409e+06
  -6.943327e+05   6.602864e+05
  -1.088984e+06  -7.065770e+04
  -5.170167e+05  -5.933599e+05
   2.784723e+05  -6.585140e+05
   3.658667e+05  -3.578546e+05
  -2.446731e+05  -7.843001e+03
  -6.339038e+05   4.048518e+04
  -1.427306e+05  -2.996011e+05
   8.021385e+05  -6.647225e+05
   1.222239e+06  -5.314644e+05
   7.398140e+05   1.696044e+05
  -9.158716e+04   8.467138e+05
  -5.335224e+05   8.342003e+05
  -4.128921e+05   1.563724e+05
  -5.369457e+04  -4.683987e+05
   2.324710e+05  -4.245011e+05
   3.451140e+05   1.435285e+05
   2.499452e+05   5.618929e+05
  -5.102151e+04   4.155992e+05
  -3.817736e+05  -4.244952e+04
  -4.634553e+05  -2.708776e+05
  -2.360055e+05  -9.206999e+04
   3.249964e+04   1.456843e+05
   7.888116e+04   3.967186e+04
  -1.231009e+04  -3.469589e+05
   4.965903e+04  -5.375245e+05
   3.127050e+05  -2.133277e+05
   4.486447e+05   3.701627e+05
   1.546685e+05   6.328595e+05
  -3.973284e+05   3.089946e+05
  -6.495059e+05  -2.701447e+05
  -2.507206e+05  -5.585807e+05
   4.928166e+05  -3.585913e+05
   8.611353e+05   6.976918e+04
   4.690052e+05   3.659586e+05
  -2.851098e+05   3.915867e+05
  -6.228194e+05   2.253097e+05
  -2.441300e+05   1.830656e+04
   3.381991e+05  -6.987651e+04
   3.991109e+05   5.926196e+04
  -1.613749e+05   2.859587e+05
  -7.230089e+05   2.708096e+05
