
 $NMID
 id='ANONYMOUS ', fmtdat='(2E16.6)'
 volume=1.0
 tramp=1.0
 $END
   5.388209e+07  -5.369723e+05
   3.293869e+07   3.286231e+07
  -6.528997e+06   3.656567e+07
  -2.627391e+07   1.457509e+07
  -1.606683e+07  -6.336116e+06
   2.938124e+06  -9.053326e+06
   9.528465e+06   8.911038e+05
   2.942146e+06   9.356788e+06
  -5.792011e+06   9.219467e+06
  -9.295296e+06   2.147001e+06
  -6.819458e+06  -5.920797e+06
  -8.535307e+05  -8.334501e+06
   3.837170e+06  -2.661489e+06
   2.590240e+06   5.312694e+06
  -3.571862e+06   6.448546e+06
  -7.618239e+06  -1.152884e+06
  -4.410290e+06  -9.781672e+06
   3.509184e+06  -1.140676e+07
   9.657187e+06  -5.760033e+06
   1.036502e+07   1.904654e+06
   6.353911e+06   7.100977e+06
   7.320466e+05   8.194528e+06
  -2.629243e+06   5.785632e+06
  -1.609911e+06   2.712327e+06
   1.118635e+06   2.260645e+06
   1.790001e+05   4.120895e+06
  -5.298016e+06   4.226057e+06
  -9.369302e+06   4.498225e+05
  -6.802363e+06  -3.972089e+06
  -2.040035e+05  -4.845136e+06
   3.635611e+06  -2.417719e+06
   2.347438e+06   7.468576e+04
  -7.455900e+05   9.533403e+05
  -2.351572e+06   4.025507e+05
  -2.121035e+06  -1.522475e+06
  -5.777312e+05  -3.865581e+06
   1.752484e+06  -3.685252e+06
   3.024998e+06   1.289958e+05
   1.592499e+06   3.445242e+06
  -6.932653e+05   1.748186e+06
  -2.506556e+05  -2.451732e+06
   2.410569e+06  -2.276919e+06
   2.428463e+06   3.041193e+06
  -2.185491e+06   5.941126e+06
  -6.569768e+06   1.107096e+06
  -4.971274e+06  -6.530903e+06
   1.696689e+06  -8.177875e+06
   7.094274e+06  -2.391454e+06
   6.785113e+06   4.244395e+06
   1.884142e+06   5.862811e+06
  -3.361161e+06   2.710553e+06
  -5.185362e+06  -1.414035e+06
  -2.458101e+06  -3.380833e+06
   2.278206e+06  -2.191972e+06
   4.395000e+06   8.125479e+05
   1.949154e+06   2.597495e+06
  -1.628901e+06   1.350389e+06
  -1.730711e+06  -9.838272e+05
   1.221630e+06  -9.713468e+05
   2.453670e+06   1.565048e+06
  -4.235753e+05   3.283005e+06
  -4.338970e+06   1.933678e+06
  -5.129963e+06  -1.177374e+06
  -2.308342e+06  -3.783287e+06
   1.735108e+06  -5.095761e+06
   4.889992e+06  -4.687971e+06
   6.006763e+06  -1.677295e+06
   4.408953e+06   3.060919e+06
   9.177470e+05   5.991246e+06
  -1.761071e+06   4.689457e+06
  -1.707911e+06   1.289162e+06
  -2.481035e+05  -1.784082e+05
  -9.548452e+04   9.336040e+05
  -1.635402e+06   1.663268e+06
  -2.747585e+06   1.418480e+05
  -1.939583e+06  -1.961733e+06
   4.062185e+04  -2.132065e+06
   1.585330e+06  -1.724195e+05
   1.666762e+06   2.096685e+06
  -1.754681e+04   2.904284e+06
  -2.719442e+06   1.595690e+06
  -4.342217e+06  -1.185027e+06
  -3.114233e+06  -3.641386e+06
   2.032774e+04  -4.071199e+06
   2.166471e+06  -2.629421e+06
   2.135535e+06  -1.134447e+06
   1.786856e+06  -7.085204e+05
   2.905269e+06  -5.004817e+05
   4.299523e+06   7.357638e+05
   3.452330e+06   2.731751e+06
   1.282811e+05   4.090716e+06
  -3.192638e+06   3.855346e+06
  -4.149942e+06   2.068551e+06
  -2.615501e+06  -4.482478e+05
  -2.330151e+05  -2.213440e+06
   1.114339e+06  -1.895498e+06
   5.535007e+05   4.193543e+04
  -1.086483e+06   1.290063e+06
  -1.884128e+06   3.976840e+05
  -9.042933e+05  -1.184216e+06
   5.228853e+05  -1.107524e+06
   4.464598e+05   3.873414e+05
  -1.039066e+06   7.342784e+05
  -1.868118e+06  -1.208810e+06
  -7.160278e+05  -3.441184e+06
   1.518219e+06  -3.452033e+06
   3.127331e+06  -1.188803e+06
   3.342431e+06   1.415910e+06
   2.296841e+06   2.782926e+06
   4.457142e+05   2.626312e+06
  -1.250368e+06   1.451565e+06
  -1.575862e+06   2.136060e+05
  -4.921586e+05  -4.759128e+04
   3.563185e+05   7.483274e+05
  -4.033221e+05   1.330707e+06
  -1.887229e+06   5.794052e+05
  -2.025956e+06  -8.719833e+05
  -3.952978e+05  -1.405828e+06
   1.163929e+06  -5.730425e+05
   8.921440e+05   4.561282e+05
  -8.489395e+05   5.284570e+05
  -2.191298e+06  -3.198199e+05
  -1.752307e+06  -1.371441e+06
   2.541570e+05  -1.983066e+06
   2.316420e+06  -1.649751e+06
   2.772357e+06  -2.654578e+05
   1.214455e+06   1.260671e+06
  -9.108819e+05   1.491871e+06
  -1.547255e+06   1.914497e+05
  -1.987025e+05  -1.069298e+06
   1.510583e+06  -7.311753e+05
   1.716223e+06   7.808833e+05
   3.408239e+05   1.654834e+06
  -1.091240e+06   9.845183e+05
  -1.262875e+06  -3.061912e+05
  -2.538608e+05  -7.807697e+05
   7.875493e+05  -5.637774e+04
   7.275160e+05   1.048377e+06
  -5.803482e+05   1.412990e+06
  -2.002564e+06   5.299596e+05
  -2.025102e+06  -1.055297e+06
  -3.771042e+05  -2.071561e+06
   1.441343e+06  -1.638443e+06
   1.727883e+06  -2.085320e+05
   5.054053e+05   8.697526e+05
  -6.580099e+05   8.040227e+05
  -6.350929e+05   7.409456e+04
   1.208366e+05  -3.641992e+05
   4.986532e+05  -2.059505e+05
   1.272695e+05   7.506784e+04
  -4.503301e+05  -6.933691e+04
  -5.206638e+05  -6.716464e+05
   2.086201e+05  -1.186847e+06
   1.384406e+06  -8.886697e+05
   2.076504e+06   4.225245e+05
   1.453980e+06   1.946156e+06
  -2.275475e+05   2.418377e+06
  -1.623527e+06   1.408251e+06
  -1.695046e+06  -1.338838e+05
  -8.568094e+05  -9.103314e+05
  -3.080247e+05  -6.660790e+05
  -4.645004e+05  -2.241909e+05
  -6.189365e+05  -3.091445e+05
  -8.735009e+04  -7.595712e+05
   8.810624e+05  -8.969245e+05
   1.452352e+06  -3.155553e+05
   1.045496e+06   7.343178e+05
  -2.613884e+05   1.463035e+06
  -1.728859e+06   1.062920e+06
  -2.244023e+06  -4.952376e+05
  -1.125316e+06  -2.102722e+06
   1.013626e+06  -2.360084e+06
   2.542182e+06  -1.024657e+06
   2.351120e+06   6.654919e+05
   9.558369e+05   1.346385e+06
  -2.113008e+05   9.519604e+05
  -3.995772e+05   5.091275e+05
  -8.781906e+04   7.447596e+05
  -1.078036e+05   1.297549e+06
  -6.702566e+05   1.282249e+06
  -1.289777e+06   3.143272e+05
  -1.330223e+06  -1.082999e+06
  -5.483376e+05  -1.893215e+06
   6.262809e+05  -1.432223e+06
   1.284221e+06   6.316848e+03
   8.084705e+05   1.283399e+06
  -3.921676e+05   1.394745e+06
  -1.162024e+06   4.069183e+05
  -8.111913e+05  -6.938145e+05
   1.210385e+05  -1.073597e+06
   5.345210e+05  -7.832280e+05
   8.607006e+04  -4.188832e+05
  -4.295831e+05  -3.381351e+05
  -5.660234e+04  -3.834645e+05
   1.147577e+06  -2.061918e+05
   2.057330e+06   3.384383e+05
   1.611630e+06   1.040207e+06
  -3.903677e+04   1.432382e+06
  -1.587298e+06   1.134710e+06
  -1.830876e+06   2.734900e+05
  -8.347977e+05  -4.942321e+05
   2.604734e+05  -5.672579e+05
   5.119508e+05  -3.329448e+04
   2.968385e+04   4.193444e+05
  -4.446003e+05   2.559655e+05
  -4.805349e+05  -3.433789e+05
  -2.495228e+05  -7.217855e+05
  -9.395346e+04  -4.771421e+05
  -1.398783e+05   9.388200e+04
  -2.821579e+05   2.884551e+05
  -2.727926e+05  -2.345800e+05
   1.470727e+05  -9.832817e+05
   9.013044e+05  -1.060530e+06
   1.358742e+06  -1.727850e+05
   8.484461e+05   9.132139e+05
  -4.157949e+05   1.137328e+06
  -1.256081e+06   3.361062e+05
  -7.314687e+05  -5.739215e+05
   7.048652e+05  -6.462546e+05
   1.587913e+06   1.035894e+05
   9.999953e+05   8.704137e+05
  -4.919508e+05   9.873483e+05
  -1.502349e+06   4.686363e+05
  -1.230617e+06  -1.995525e+05
  -1.302393e+05  -5.147545e+05
   6.511083e+05  -2.657082e+05
   3.849528e+05   2.948979e+05
  -5.823573e+05   5.219755e+05
  -1.181463e+06  -7.818664e+04
  -6.745761e+05  -1.177622e+06
   5.835345e+05  -1.703369e+06
   1.480517e+06  -8.892909e+05
   1.256418e+06   7.558425e+05
   2.020839e+05   1.791279e+06
  -7.433780e+05   1.290294e+06
  -9.251213e+05  -1.833880e+05
  -4.240049e+05  -1.194876e+06
   2.294203e+05  -9.658365e+05
   5.648524e+05  -8.000612e+04
   4.593026e+05   3.779428e+05
   1.563125e+05   1.364072e+05
   5.157822e+04  -9.393473e+04
   2.900354e+05   2.985621e+05
   5.132361e+05   9.684436e+05
   1.813524e+05   1.078878e+06
  -7.254608e+05   3.944505e+05
  -1.473975e+06  -4.661814e+05
  -1.271426e+06  -8.396032e+05
  -1.834963e+05  -7.013371e+05
   8.456877e+05  -4.194538e+05
   9.821000e+05  -1.783266e+05
   3.691072e+05   5.773581e+04
  -1.417444e+05   2.268254e+05
  -4.736654e+04   2.013495e+05
   2.519153e+05   8.892761e+04
   5.531379e+04   1.315812e+05
  -6.476939e+05   2.410748e+05
  -1.049120e+06  -4.387214e+03
  -4.551861e+05  -6.923226e+05
   8.252028e+05  -1.189501e+06
   1.708218e+06  -7.745967e+05
   1.432016e+06   4.173643e+05
   2.864419e+05   1.404490e+06
  -7.667138e+05   1.385742e+06
  -1.048511e+06   5.532024e+05
  -6.542577e+05  -2.216204e+05
  -1.419322e+05  -3.578457e+05
   5.622148e+04  -7.479595e+04
  -8.699977e+04   6.921314e+03
  -2.953442e+05  -3.723206e+05
  -2.446932e+05  -8.087350e+05
   1.722286e+05  -6.843414e+05
   6.787663e+05   1.059924e+05
   7.555213e+05   9.364149e+05
   1.418449e+05   1.033301e+06
  -7.412548e+05   2.696805e+05
  -1.046739e+06  -6.985297e+05
  -3.683018e+05  -1.089487e+06
   7.061392e+05  -6.966617e+05
   1.129452e+06   6.141663e+04
   5.472129e+05   6.211278e+05
  -2.831244e+05   6.971206e+05
  -3.913956e+05   3.755793e+05
   2.318527e+05   2.101305e+03
   6.461131e+05  -4.621772e+04
   1.548541e+05   3.105526e+05
  -8.225545e+05   6.835863e+05
  -1.272799e+06   5.382166e+05
  -7.823055e+05  -1.845643e+05
   8.826940e+04  -8.783845e+05
   5.613788e+05  -8.695463e+05
   4.415560e+05  -1.784673e+05
   6.626800e+04   4.722660e+05
  -2.325526e+05   4.473378e+05
  -3.522920e+05  -1.292112e+05
  -2.618718e+05  -5.756769e+05
   4.420748e+04  -4.427389e+05
   3.925198e+05   3.426212e+04
   4.851598e+05   2.878593e+05
   2.445605e+05   1.045450e+05
  -4.439050e+04  -1.621054e+05
  -8.491001e+04  -6.858022e+04
   3.699524e+04   3.425576e+05
  -1.211393e+04   5.679064e+05
  -3.058104e+05   2.512424e+05
  -4.836530e+05  -3.550369e+05
  -1.924810e+05  -6.435202e+05
   3.971948e+05  -3.270534e+05
   6.792405e+05   2.617606e+05
   2.683925e+05   5.649301e+05
  -5.099506e+05   3.740807e+05
  -8.950230e+05  -5.853711e+04
  -4.890861e+05  -3.728765e+05
   2.895498e+05  -4.171617e+05
   6.420193e+05  -2.515443e+05
   2.645277e+05  -2.452496e+04
  -3.261947e+05   8.554532e+04
  -4.007354e+05  -3.999285e+04
   1.499050e+05  -2.811491e+05
   7.158274e+05  -2.797523e+05
