
 $NMID
 id='ANONYMOUS ', fmtdat='(2E16.6)'
 volume=1.0
 tramp=1.0
 $END
  -3.653224e+07  -2.090751e+06
  -2.183168e+07  -2.082241e+07
   3.692617e+06  -2.342802e+07
   1.711190e+07  -1.161871e+07
   1.164808e+07   1.757852e+06
  -8.704417e+05   6.162230e+06
  -6.818301e+06   1.158003e+06
  -3.552866e+06  -6.083819e+06
   2.967905e+06  -8.030650e+06
   6.588332e+06  -2.752568e+06
   5.127991e+06   4.672444e+06
   3.863942e+05   6.816276e+06
  -3.278269e+06   1.562693e+06
  -2.270987e+06  -5.212514e+06
   2.399667e+06  -5.947526e+06
   5.593725e+06   2.396268e+05
   3.472445e+06   7.053366e+06
  -2.393408e+06   8.301451e+06
  -7.004220e+06   3.740951e+06
  -7.019885e+06  -2.187617e+06
  -3.305360e+06  -5.319509e+06
   4.954817e+05  -4.799569e+06
   1.239651e+06  -2.772348e+06
  -8.879175e+05  -2.071992e+06
  -2.250370e+06  -3.471929e+06
   4.729214e+05  -4.752052e+06
   5.849151e+06  -3.200326e+06
   8.435091e+06   8.544911e+05
   5.007224e+06   4.062402e+06
  -1.250079e+06   3.841789e+06
  -4.283486e+06   1.022207e+06
  -1.993012e+06  -1.591563e+06
   2.167939e+06  -2.023128e+06
   3.854195e+06  -1.007781e+05
   2.183163e+06   2.811294e+06
  -6.171719e+05   4.243798e+06
  -2.108634e+06   2.387921e+06
  -1.513388e+06  -1.288766e+06
   1.054285e+05  -2.671657e+06
   7.812862e+05   3.141782e+04
  -4.808714e+05   3.247705e+06
  -2.274953e+06   2.300796e+06
  -2.023261e+06  -2.031678e+06
   8.184992e+05  -4.089527e+06
   3.542998e+06  -7.837204e+05
   2.954110e+06   4.260310e+06
  -1.019108e+06   5.341552e+06
  -5.062544e+06   1.459396e+06
  -5.633940e+06  -3.297158e+06
  -2.126843e+06  -4.844034e+06
   2.649711e+06  -2.732248e+06
   4.798062e+06   6.280828e+05
   2.701491e+06   2.543874e+06
  -1.360755e+06   1.865724e+06
  -3.345528e+06  -3.592096e+05
  -1.671094e+06  -1.766111e+06
   1.157826e+06  -1.012081e+06
   1.701661e+06   7.153553e+05
  -2.728491e+05   1.185900e+06
  -1.813836e+06  -1.061693e+05
  -6.587350e+05  -1.526662e+06
   2.106365e+06  -1.450595e+06
   3.504241e+06   1.944994e+05
   1.879910e+06   2.422380e+06
  -1.737705e+06   4.001743e+06
  -4.793237e+06   3.643711e+06
  -5.268102e+06   7.917374e+05
  -3.131324e+06  -3.087553e+06
  -2.812468e+05  -5.150267e+06
   1.187907e+06  -4.114220e+06
   9.714889e+05  -1.812581e+06
   5.892675e+05  -8.340741e+05
   1.329404e+06  -1.263476e+06
   2.651204e+06  -1.008998e+06
   2.964942e+06   9.154781e+05
   1.555370e+06   2.840549e+06
  -7.081524e+05   2.555461e+06
  -2.234173e+06   3.055466e+04
  -1.879339e+06  -2.553473e+06
   2.955717e+05  -3.027205e+06
   2.814789e+06  -1.088290e+06
   3.650317e+06   1.687569e+06
   2.073589e+06   3.299823e+06
  -4.064874e+05   2.980183e+06
  -1.644382e+06   1.680552e+06
  -1.379020e+06   8.735096e+05
  -1.350588e+06   8.953161e+05
  -2.698607e+06   7.358703e+05
  -4.129797e+06  -5.469773e+05
  -3.388727e+06  -2.600249e+06
  -1.445148e+05  -4.074107e+06
   3.332269e+06  -3.823138e+06
   4.402087e+06  -1.781015e+06
   2.573453e+06   8.891537e+05
  -2.098392e+05   2.401155e+06
  -1.497499e+06   1.728699e+06
  -5.328102e+05  -2.069751e+05
   1.244373e+06  -1.229322e+06
   1.811941e+06  -3.076260e+05
   6.879882e+05   1.161266e+06
  -6.868725e+05   1.137855e+06
  -7.002334e+05  -3.295575e+05
   6.225087e+05  -1.089095e+06
   1.771757e+06   3.256868e+05
   1.409746e+06   2.760423e+06
  -4.558292e+05   3.734547e+06
  -2.661541e+06   2.144210e+06
  -3.765374e+06  -7.829736e+05
  -2.937568e+06  -2.881882e+06
  -6.540116e+05  -2.952619e+06
   1.394894e+06  -1.509866e+06
   1.692475e+06  -1.135256e+05
   4.983801e+05   5.670995e+04
  -3.673263e+05  -7.528142e+05
   3.313423e+05  -1.234617e+06
   1.724294e+06  -5.408897e+05
   1.937854e+06   7.324072e+05
   4.701629e+05   1.285672e+06
  -1.133762e+06   6.346056e+05
  -1.062052e+06  -4.304546e+05
   7.183235e+05  -7.807397e+05
   2.400758e+06  -9.436669e+03
   2.162901e+06   1.347014e+06
  -3.824469e+04   2.253572e+06
  -2.378545e+06   1.877101e+06
  -2.853829e+06   3.205718e+05
  -1.192623e+06  -1.201212e+06
   8.844562e+05  -1.351988e+06
   1.402377e+06  -1.242480e+05
   8.989004e+04   1.005630e+06
  -1.505838e+06   6.951608e+05
  -1.745223e+06  -7.161694e+05
  -4.934234e+05  -1.648219e+06
   9.668340e+05  -1.145127e+06
   1.314899e+06   1.155857e+05
   3.977833e+05   7.209689e+05
  -7.031086e+05   8.566917e+04
  -6.953330e+05  -1.038284e+06
   6.344423e+05  -1.404898e+06
   2.050655e+06  -4.714835e+05
   2.016557e+06   1.113400e+06
   3.638047e+05   2.074327e+06
  -1.410107e+06   1.641809e+06
  -1.721392e+06   2.584674e+05
  -5.704728e+05  -8.497222e+05
   6.354092e+05  -8.576524e+05
   7.471938e+05  -7.065871e+04
  -2.213685e+04   5.363172e+05
  -6.241809e+05   4.031177e+05
  -4.122695e+05  -9.130053e+04
   2.856447e+05  -1.534034e+05
   5.876641e+05   4.762388e+05
  -7.697987e+04   1.152026e+06
  -1.347502e+06   9.310906e+05
  -2.100258e+06  -4.069691e+05
  -1.456763e+06  -1.970241e+06
   2.448244e+05  -2.495801e+06
   1.673028e+06  -1.553586e+06
   1.844517e+06   3.614743e+04
   1.068326e+06   1.033378e+06
   3.939049e+05   9.646531e+05
   3.345743e+05   4.221628e+05
   4.391515e+05   2.624151e+05
   4.963232e+04   6.497898e+05
  -8.318484e+05   9.342773e+05
  -1.499526e+06   4.225470e+05
  -1.199155e+06  -7.651674e+05
   1.634596e+05  -1.631885e+06
   1.767071e+06  -1.193227e+06
   2.346286e+06   4.718068e+05
   1.231804e+06   2.109380e+06
  -8.996139e+05   2.382369e+06
  -2.481233e+06   1.130044e+06
  -2.455825e+06  -5.280650e+05
  -1.185056e+06  -1.353335e+06
   8.670628e+04  -1.144902e+06
   5.246482e+05  -6.985870e+05
   3.324598e+05  -7.585558e+05
   2.480125e+05  -1.186561e+06
   6.612644e+05  -1.190078e+06
   1.246199e+06  -2.699352e+05
   1.316814e+06   1.133154e+06
   5.285617e+05   1.949423e+06
  -6.721158e+05   1.461927e+06
  -1.326835e+06   1.825715e+04
  -8.561909e+05  -1.241399e+06
   2.942044e+05  -1.401336e+06
   1.044793e+06  -5.358818e+05
   7.916528e+05   5.028812e+05
   7.380327e+03   9.659374e+05
  -3.634527e+05   8.088066e+05
  -1.055880e+04   4.967881e+05
   4.026419e+05   3.901664e+05
   3.347335e+04   4.080401e+05
  -1.103658e+06   2.225010e+05
  -2.001987e+06  -3.244805e+05
  -1.632715e+06  -1.006885e+06
  -6.037328e+04  -1.368090e+06
   1.495671e+06  -1.100762e+06
   1.817490e+06  -3.471416e+05
   8.815724e+05   3.547763e+05
  -2.136420e+05   5.008070e+05
  -4.762506e+05   9.027029e+04
   2.774492e+04  -3.371442e+05
   5.073417e+05  -2.297577e+05
   4.668400e+05   3.604100e+05
   1.340318e+05   7.788605e+05
  -1.621486e+04   5.032869e+05
   1.497794e+05  -1.734488e+05
   3.698141e+05  -3.978375e+05
   2.977249e+05   2.227674e+05
  -2.098941e+05   1.043190e+06
  -9.226591e+05   1.054533e+06
  -1.259210e+06   8.169964e+04
  -7.243057e+05  -9.533798e+05
   4.427874e+05  -1.050521e+06
   1.215890e+06  -2.139874e+05
   7.248933e+05   6.331099e+05
  -6.957881e+05   6.748162e+05
  -1.670383e+06  -5.260717e+04
  -1.167589e+06  -8.583391e+05
   3.922237e+05  -1.094756e+06
   1.563706e+06  -6.332479e+05
   1.359941e+06   1.213487e+05
   1.915273e+05   5.530604e+05
  -6.536578e+05   3.228632e+05
  -3.537037e+05  -2.720633e+05
   6.609016e+05  -4.766174e+05
   1.205768e+06   1.823028e+05
   5.731891e+05   1.269330e+06
  -7.524534e+05   1.702705e+06
  -1.600104e+06   8.137580e+05
  -1.276805e+06  -8.436830e+05
  -1.646338e+05  -1.877864e+06
   7.849985e+05  -1.383108e+06
   9.708249e+05   1.271740e+05
   4.996869e+05   1.225816e+06
  -1.474582e+05   1.047299e+06
  -5.530848e+05   1.173740e+05
  -5.438439e+05  -4.095888e+05
  -2.420816e+05  -1.651185e+05
  -2.326166e+04   1.198416e+05
  -1.785213e+05  -2.633484e+05
  -4.727980e+05  -9.878929e+05
  -2.701176e+05  -1.133016e+06
   6.444017e+05  -4.104534e+05
   1.534803e+06   5.067765e+05
   1.394969e+06   8.828887e+05
   1.898089e+05   7.073943e+05
  -9.618942e+05   4.142819e+05
  -1.047271e+06   2.013285e+05
  -3.102564e+05  -2.048613e+04
   1.832543e+05  -2.248248e+05
  -4.413595e+04  -2.498536e+05
  -3.629923e+05  -1.458292e+05
  -1.628440e+04  -1.447799e+05
   7.840941e+05  -2.011961e+05
   1.071326e+06   6.051253e+04
   3.031158e+05   7.152402e+05
  -9.807182e+05   1.149298e+06
  -1.716390e+06   6.765827e+05
  -1.342154e+06  -5.314740e+05
  -2.183911e+05  -1.474726e+06
   8.011495e+05  -1.372823e+06
   1.096041e+06  -4.736531e+05
   6.859341e+05   3.010750e+05
   9.383957e+04   3.728670e+05
  -1.494248e+05   2.049746e+04
   5.405862e+04  -7.145403e+04
   3.401758e+05   3.588654e+05
   2.712851e+05   8.382368e+05
  -2.183120e+05   6.808586e+05
  -7.199673e+05  -1.951397e+05
  -6.949801e+05  -1.056841e+06
  -4.996168e+03  -1.063698e+06
   8.358071e+05  -1.633022e+05
   1.028659e+06   8.419970e+05
   2.809717e+05   1.131484e+06
  -7.681914e+05   6.243014e+05
  -1.114844e+06  -1.288167e+05
  -4.866641e+05  -5.935063e+05
   3.102316e+05  -6.217220e+05
   3.371240e+05  -3.512065e+05
  -3.261102e+05  -3.983093e+04
  -6.899770e+05   1.403736e+04
  -1.185787e+05  -3.089912e+05
   8.684016e+05  -6.901849e+05
   1.250852e+06  -5.763578e+05
   7.100385e+05   1.506385e+05
  -1.288201e+05   8.675859e+05
  -5.317364e+05   8.382275e+05
  -3.763542e+05   1.024946e+05
  -7.923376e+03  -5.262994e+05
   2.727863e+05  -4.061738e+05
   3.665830e+05   2.222167e+05
   2.378987e+05   6.051498e+05
  -8.488945e+04   3.839546e+05
  -4.012810e+05  -8.335507e+04
  -4.599594e+05  -2.598530e+05
  -2.450715e+05  -6.721177e+04
  -1.952224e+03   1.089452e+05
   7.808428e+04  -5.344306e+04
   8.042705e+04  -4.094928e+05
   1.910205e+05  -5.051245e+05
   3.798889e+05  -1.066051e+05
   3.849967e+05   4.812497e+05
   3.595825e+04   6.881197e+05
  -4.624887e+05   2.850039e+05
  -6.392733e+05  -3.489436e+05
  -2.166868e+05  -6.248981e+05
   5.152444e+05  -3.537667e+05
   8.739562e+05   1.307366e+05
   4.663618e+05   4.050150e+05
  -3.164451e+05   3.594871e+05
  -6.525298e+05   1.610500e+05
  -2.115578e+05  -5.348098e+02
   4.294538e+05  -1.594695e+04
   4.495601e+05   1.437567e+05
  -2.340427e+05   3.403418e+05
  -8.650940e+05   2.629747e+05
