
 $NMID
 id='ANONYMOUS ', fmtdat='(2E16.6)'
 volume=1.0
 tramp=1.0
 $END
   1.162803e+06  -1.167935e+06
   1.778854e+06  -2.892309e+05
   1.031138e+06   9.892030e+05
  -3.118860e+05   1.365357e+06
  -8.752721e+05   5.463935e+05
  -3.212192e+05  -4.001167e+05
   4.421887e+05  -4.397673e+05
   5.511410e+05   2.386779e+05
   9.649540e+04   6.920005e+05
  -3.110442e+05   4.548139e+05
  -3.525950e+05  -8.417525e+04
  -1.408054e+05  -3.238346e+05
   9.099087e+04  -9.470110e+04
   1.554581e+05   3.046149e+05
  -3.020225e+04   4.625572e+05
  -3.209570e+05   2.149596e+05
  -4.081289e+05  -2.203895e+05
  -1.740572e+05  -4.597258e+05
   1.387443e+05  -3.550465e+05
   2.496594e+05  -1.188605e+05
   1.900162e+05  -2.492578e+03
   1.735061e+05   1.787567e+04
   2.480135e+05   1.155521e+05
   2.666818e+05   2.965513e+05
   1.300941e+05   3.897916e+05
  -1.096191e+05   3.031042e+05
  -3.315077e+05   1.207925e+05
  -4.010205e+05  -3.857700e+04
  -2.282131e+05  -1.167934e+05
   7.765631e+04  -8.098421e+04
   2.069093e+05   5.513435e+04
  -5.879047e+03   1.624964e+05
  -3.091992e+05   9.237866e+04
  -3.241235e+05  -1.203862e+05
  -5.662749e+04  -2.665951e+05
   1.311644e+05  -2.158879e+05
   5.414996e+04  -5.987728e+04
  -7.733394e+04   3.169451e+04
  -4.062693e+04  -3.953120e+03
   8.367086e+04  -1.157196e+05
   1.311172e+05  -2.076917e+05
   1.396577e+05  -1.710090e+05
   1.962688e+05   3.523423e+04
   1.874487e+05   2.676486e+05
  -2.178888e+04   2.806993e+05
  -2.624479e+05   2.438417e+04
  -2.111626e+05  -2.356794e+05
   1.340195e+05  -2.126645e+05
   3.860630e+05   5.544400e+04
   2.490947e+05   2.731212e+05
  -1.260087e+05   2.468206e+05
  -3.588408e+05   5.071821e+04
  -2.700134e+05  -1.297948e+05
   6.850547e+01  -1.817930e+05
   1.943947e+05  -9.826590e+04
   1.672854e+05   3.858287e+04
  -1.625998e+04   8.744332e+04
  -1.352059e+05  -2.293250e+04
  -2.836283e+04  -1.676324e+05
   1.965617e+05  -1.393090e+05
   2.543901e+05   7.596993e+04
   3.951670e+04   2.482608e+05
  -2.123031e+05   1.849410e+05
  -2.128974e+05  -3.952645e+04
   2.046828e+04  -2.044675e+05
   2.231868e+05  -1.989369e+05
   2.344530e+05  -7.005847e+04
   1.365420e+05   9.866493e+04
   6.040240e+04   2.410853e+05
   1.275606e+04   2.885997e+05
  -5.734394e+04   2.153779e+05
  -1.403882e+05   9.272570e+04
  -1.882588e+05   8.812948e+03
  -1.835024e+05  -4.815847e+04
  -1.278392e+05  -1.353070e+05
  -1.774164e+04  -2.070322e+05
   1.132991e+05  -1.442295e+05
   1.756517e+05   5.113774e+04
   1.086567e+05   2.081319e+05
  -3.737717e+04   1.871806e+05
  -1.493918e+05   4.173436e+04
  -1.654860e+05  -7.846015e+04
  -1.105598e+05  -1.115815e+05
  -4.327249e+04  -1.030414e+05
  -8.336824e+02  -9.985287e+04
   2.388736e+04  -1.054915e+05
   7.627137e+04  -1.084964e+05
   1.835236e+05  -8.574594e+04
   2.803856e+05   1.910166e+03
   2.383397e+05   1.517937e+05
   2.203227e+04   2.704968e+05
  -2.181305e+05   2.490652e+05
  -2.808901e+05   9.225871e+04
  -1.359362e+05  -7.524351e+04
   4.919365e+04  -1.361492e+05
   1.044392e+05  -7.914238e+04
   2.144823e+04   1.942948e+04
  -8.334739e+04   6.838026e+04
  -1.070645e+05   2.636692e+04
  -3.787385e+04  -5.587318e+04
   5.333221e+04  -6.660703e+04
   6.648969e+04   3.522751e+04
  -4.019988e+04   1.274063e+05
  -1.808421e+05   4.419937e+04
  -1.963392e+05  -1.928346e+05
  -2.225266e+04  -3.503478e+05
   2.183116e+05  -2.442983e+05
   3.287494e+05   3.741682e+04
   2.345935e+05   2.409069e+05
   3.798227e+04   2.310943e+05
  -1.026915e+05   9.635562e+04
  -1.118288e+05  -2.971870e+03
  -3.327914e+04  -3.372324e+03
   2.648552e+04   4.970092e+04
  -6.480645e+03   8.195822e+04
  -9.928687e+04   5.091965e+04
  -1.357304e+05  -2.703965e+04
  -4.927472e+04  -8.135606e+04
   7.508905e+04  -5.076322e+04
   8.272623e+04   3.679262e+04
  -5.782675e+04   7.787920e+04
  -1.975006e+05   9.298651e+03
  -1.733754e+05  -1.149314e+05
   5.156621e+03  -1.828911e+05
   1.747975e+05  -1.395530e+05
   1.981240e+05  -2.590164e+04
   8.616893e+04   7.091235e+04
  -4.194389e+04   8.570007e+04
  -7.839743e+04   1.988391e+04
  -7.320399e+03  -5.338506e+04
   9.441255e+04  -4.814011e+04
   1.243531e+05   4.085957e+04
   4.736173e+04   1.192388e+05
  -6.534929e+04   9.819052e+04
  -1.051399e+05   4.116316e+03
  -4.201339e+04  -5.325245e+04
   4.246773e+04  -1.503387e+04
   4.628366e+04   6.391080e+04
  -4.199166e+04   8.921648e+04
  -1.332758e+05   2.822760e+04
  -1.313276e+05  -7.201232e+04
  -2.837759e+04  -1.358726e+05
   8.760046e+04  -1.154854e+05
   1.172528e+05  -2.586869e+04
   4.625627e+04   5.802368e+04
  -4.186972e+04   6.341981e+04
  -5.526427e+04  -1.715157e+03
   7.742730e+03  -5.272432e+04
   6.305409e+04  -2.962426e+04
   4.287337e+04   2.838405e+04
  -2.657372e+04   3.659524e+04
  -5.941729e+04  -2.441102e+04
  -7.724054e+03  -8.520164e+04
   8.889734e+04  -7.029489e+04
   1.432437e+05   2.329967e+04
   9.975445e+04   1.293608e+05
  -1.715033e+04   1.701140e+05
  -1.215673e+05   1.127575e+05
  -1.397069e+05  -3.236974e+03
  -7.763330e+04  -9.004529e+04
  -1.129103e+04  -8.836361e+04
  -2.839741e+02  -2.972031e+04
  -2.239994e+04  -2.475121e+02
  -1.058481e+04  -3.416855e+04
   5.383650e+04  -7.041637e+04
   1.106847e+05  -3.390785e+04
   8.866813e+04   6.278386e+04
  -1.470005e+04   1.271826e+05
  -1.277167e+05   8.816893e+04
  -1.652596e+05  -3.269667e+04
  -9.264059e+04  -1.458568e+05
   4.895946e+04  -1.703299e+05
   1.664813e+05  -9.210618e+04
   1.814320e+05   2.861739e+04
   9.564172e+04   1.048851e+05
  -1.008640e+04   9.758719e+04
  -5.536599e+04   4.974441e+04
  -3.626357e+04   3.345974e+04
  -1.360714e+04   6.214345e+04
  -3.343127e+04   7.590392e+04
  -7.615280e+04   2.160480e+04
  -8.563436e+04  -7.418416e+04
  -3.435753e+04  -1.301796e+05
   4.609683e+04  -9.706887e+04
   9.241620e+04  -2.691416e+03
   6.585698e+04   8.146759e+04
  -1.072504e+04   1.016574e+05
  -7.073477e+04   5.479926e+04
  -6.700917e+04  -1.853606e+04
  -1.865873e+04  -6.734757e+04
   1.376994e+04  -6.896726e+04
   6.448376e+02  -4.347988e+04
  -2.230606e+04  -2.643136e+04
   1.680420e+02  -2.712147e+04
   7.176465e+04  -2.158736e+04
   1.318098e+05   1.224839e+04
   1.146648e+05   6.282085e+04
   1.795188e+04   9.416921e+04
  -8.876046e+04   8.137318e+04
  -1.246650e+05   3.298837e+04
  -7.269028e+04  -1.639281e+04
   5.284942e+03  -3.332549e+04
   3.367193e+04  -1.321845e+04
   1.589074e+03   1.356681e+04
  -3.531523e+04   1.055000e+04
  -3.009708e+04  -2.296267e+04
   4.000688e+02  -4.666054e+04
   8.465438e+03  -2.699431e+04
  -1.630448e+04   1.602782e+04
  -3.733406e+04   2.719165e+04
  -2.254067e+04  -1.580738e+04
   2.032318e+04  -6.913338e+04
   6.021517e+04  -7.007412e+04
   7.086109e+04  -9.754306e+03
   3.974996e+04   5.520192e+04
  -2.239277e+04   6.365322e+04
  -6.910377e+04   1.258389e+04
  -4.506790e+04  -4.365312e+04
   4.638105e+04  -4.910945e+04
   1.203642e+05   2.573555e+03
   9.096247e+04   6.628966e+04
  -2.557024e+04   8.793786e+04
  -1.187396e+05   5.129267e+04
  -1.045213e+05  -9.823310e+03
  -1.492285e+04  -4.324646e+04
   4.703504e+04  -2.626518e+04
   2.381579e+04   1.349897e+04
  -4.430776e+04   2.453028e+04
  -7.435590e+04  -1.752302e+04
  -2.812712e+04  -8.123015e+04
   5.631803e+04  -1.026580e+05
   1.063882e+05  -4.462507e+04
   8.189722e+04   6.002828e+04
   6.761101e+03   1.272939e+05
  -5.847381e+04   9.658386e+04
  -7.189314e+04  -6.221637e+03
  -3.835116e+04  -8.795238e+04
   8.500896e+03  -8.093495e+04
   3.855710e+04  -1.206809e+04
   3.984958e+04   3.418967e+04
   1.950124e+04   1.842682e+04
   1.388625e+03  -1.172199e+04
   8.258621e+03   6.764356e+03
   2.989187e+04   6.281606e+04
   2.210460e+04   8.454931e+04
  -3.815688e+04   3.576443e+04
  -1.041287e+05  -3.706651e+04
  -9.931559e+04  -6.728156e+04
  -1.418717e+04  -4.758647e+04
   6.984717e+04  -2.102046e+04
   7.496171e+04  -1.242965e+04
   1.990608e+04  -5.906005e+03
  -1.397627e+04   1.227686e+04
   5.555193e+03   2.630138e+04
   2.698198e+04   2.057673e+04
  -2.072994e+03   7.529826e+03
  -5.714835e+04   2.685164e+03
  -6.864489e+04  -6.645129e+03
  -1.089248e+04  -3.714799e+04
   6.910473e+04  -6.495084e+04
   1.060393e+05  -4.250442e+04
   7.683718e+04   3.264303e+04
   8.659584e+03   9.703895e+04
  -5.142999e+04   8.995080e+04
  -6.900133e+04   2.563473e+04
  -4.237650e+04  -2.571020e+04
  -2.967940e+03  -2.196900e+04
   1.159422e+04   8.486182e+03
  -6.191890e+03   1.120412e+04
  -2.713256e+04  -2.560551e+04
  -1.937305e+04  -5.885147e+04
   1.546644e+04  -4.212684e+04
   4.423022e+04   1.977774e+04
   3.616447e+04   7.154612e+04
  -7.687125e+03   6.257908e+04
  -5.318103e+04  -5.427732e+02
  -5.886695e+04  -6.104442e+04
  -1.296623e+04  -7.087902e+04
   4.821783e+04  -3.442196e+04
   6.872300e+04   9.080580e+03
   3.204716e+04   3.232271e+04
  -1.542398e+04   3.548596e+04
  -1.653174e+04   2.655107e+04
   2.485973e+04   1.105845e+04
   4.627479e+04   2.682117e+03
   6.525406e+03   1.759478e+04
  -5.949570e+04   4.502581e+04
  -8.341863e+04   4.521229e+04
  -4.575508e+04  -1.019057e+03
   8.205660e+03  -5.445846e+04
   2.938612e+04  -5.734648e+04
   1.534583e+04  -7.854093e+03
  -5.744953e+03   3.407426e+04
  -1.669371e+04   2.225476e+04
  -1.901722e+04  -2.065811e+04
  -1.362875e+04  -3.980482e+04
   2.936361e+03  -1.923029e+04
   2.384788e+04   8.227924e+03
   3.175876e+04   1.267554e+04
   1.926538e+04   1.678839e+03
  -1.184101e+03  -6.255628e+02
  -1.359548e+04   1.164852e+04
  -1.642826e+04   2.291466e+04
  -1.779643e+04   1.718509e+04
  -1.896189e+04  -6.194029e+03
  -1.155081e+04  -3.159094e+04
   8.770909e+03  -3.701471e+04
   3.105110e+04  -1.272266e+04
   3.458674e+04   2.415913e+04
   8.321229e+03   4.099615e+04
  -3.236058e+04   2.311707e+04
  -5.194068e+04  -9.546203e+03
  -2.825891e+04  -2.617568e+04
   1.762796e+04  -1.920231e+04
   3.707762e+04  -6.012317e+03
   9.076188e+03  -2.852515e+03
  -2.967454e+04  -9.712731e+03
  -2.562526e+04  -1.835117e+04
   2.419957e+04  -2.061607e+04
   6.480493e+04  -7.589523e+03
