
 $NMID
 id='ANONYMOUS ', fmtdat='(2E16.6)'
 volume=1.0
 tramp=1.0
 $END
  -4.445675e+07  -6.092795e+05
  -2.710273e+07  -2.625779e+07
   4.840427e+06  -2.953639e+07
   2.130154e+07  -1.304415e+07
   1.372241e+07   3.866481e+06
  -1.804965e+06   7.494947e+06
  -8.066526e+06   1.844515e+05
  -3.254203e+06  -7.598699e+06
   4.286559e+06  -8.543584e+06
   7.825458e+06  -2.463369e+06
   5.894716e+06   5.191386e+06
   6.285404e+05   7.453027e+06
  -3.479014e+06   2.075259e+06
  -2.378079e+06  -5.198028e+06
   2.945820e+06  -6.136450e+06
   6.525783e+06   6.527543e+05
   3.926595e+06   8.287135e+06
  -2.861702e+06   9.738215e+06
  -8.182964e+06   4.723088e+06
  -8.557301e+06  -1.976025e+06
  -4.765534e+06  -6.074970e+06
  -1.528729e+05  -6.360566e+06
   1.840451e+06  -4.214081e+06
   3.017920e+05  -2.410686e+06
  -1.662083e+06  -2.892067e+06
   1.820688e+05  -4.395559e+06
   5.522588e+06  -3.633286e+06
   8.771271e+06   2.286886e+05
   5.798025e+06   3.952370e+06
  -5.334305e+05   4.239579e+06
  -3.899052e+06   1.646543e+06
  -2.103722e+06  -8.489521e+05
   1.490213e+06  -1.457648e+06
   3.093124e+06  -2.113485e+05
   2.113826e+06   2.166397e+06
  -3.943495e+04   3.998413e+06
  -1.890916e+06   2.983785e+06
  -2.198802e+06  -6.867007e+05
  -7.174452e+05  -2.980733e+06
   7.010444e+05  -8.173609e+05
  -1.474399e+05   2.822293e+06
  -2.325394e+06   2.268427e+06
  -2.209684e+06  -2.488208e+06
   1.447387e+06  -4.954656e+06
   4.956936e+06  -9.704981e+05
   3.915373e+06   5.284887e+06
  -1.307508e+06   6.661347e+06
  -5.980850e+06   1.911557e+06
  -6.140347e+06  -3.719544e+06
  -1.996088e+06  -5.297267e+06
   2.968757e+06  -2.698737e+06
   4.946098e+06   1.002647e+06
   2.569675e+06   2.920852e+06
  -1.776867e+06   2.005066e+06
  -3.813512e+06  -5.625927e+05
  -1.795523e+06  -2.134828e+06
   1.364803e+06  -1.161260e+06
   1.697934e+06   8.363525e+05
  -7.292456e+05   1.078477e+06
  -2.120594e+06  -7.978607e+05
  -1.540983e+05  -2.366198e+06
   3.153501e+06  -1.697103e+06
   4.267340e+06   6.419941e+05
   2.087499e+06   3.048876e+06
  -1.708582e+06   4.492743e+06
  -4.786543e+06   4.111586e+06
  -5.563809e+06   1.214826e+06
  -3.711681e+06  -3.030404e+06
  -5.917403e+05  -5.494073e+06
   1.443522e+06  -4.358915e+06
   1.321339e+06  -1.561535e+06
   4.385070e+05  -3.441914e+05
   7.403668e+05  -1.074996e+06
   2.137447e+06  -1.286668e+06
   2.813503e+06   4.158451e+05
   1.699793e+06   2.389260e+06
  -3.953754e+05   2.310142e+06
  -1.895257e+06   7.860688e+04
  -1.741384e+06  -2.316543e+06
   1.686564e+05  -2.930426e+06
   2.733990e+06  -1.311910e+06
   3.935562e+06   1.425490e+06
   2.555380e+06   3.418011e+06
  -2.017231e+05   3.469687e+06
  -1.866029e+06   2.130030e+06
  -1.727843e+06   1.005421e+06
  -1.554768e+06   8.042038e+05
  -2.781934e+06   6.131371e+05
  -4.179657e+06  -6.403617e+05
  -3.387328e+06  -2.647276e+06
  -1.253344e+05  -4.046660e+06
   3.245876e+06  -3.794999e+06
   4.240165e+06  -1.889107e+06
   2.557380e+06   6.739075e+05
  -5.530404e+03   2.278996e+06
  -1.297099e+06   1.780468e+06
  -5.290691e+05  -1.261906e+05
   1.159366e+06  -1.237405e+06
   1.824164e+06  -3.421225e+05
   7.797342e+05   1.156428e+06
  -6.021381e+05   1.101996e+06
  -5.661365e+05  -3.625149e+05
   8.286447e+05  -9.098856e+05
   1.815542e+06   7.551592e+05
   1.067968e+06   3.078880e+06
  -9.750727e+05   3.580390e+06
  -2.882559e+06   1.667667e+06
  -3.538924e+06  -1.093101e+06
  -2.596733e+06  -2.823649e+06
  -5.363481e+05  -2.774440e+06
   1.316670e+06  -1.464361e+06
   1.618318e+06  -1.566420e+05
   4.902749e+05   5.158267e+04
  -3.546931e+05  -7.450002e+05
   3.665867e+05  -1.267726e+06
   1.786329e+06  -5.497334e+05
   1.958106e+06   7.967432e+05
   4.241463e+05   1.330032e+06
  -1.140599e+06   5.904657e+05
  -9.654260e+05  -4.484878e+05
   7.866630e+05  -6.522001e+05
   2.287253e+06   1.618666e+05
   1.942818e+06   1.361643e+06
  -1.536018e+05   2.107172e+06
  -2.336148e+06   1.743299e+06
  -2.789082e+06   2.833758e+05
  -1.188996e+06  -1.218936e+06
   8.890102e+05  -1.402531e+06
   1.455305e+06  -1.539907e+05
   1.376029e+05   1.023203e+06
  -1.495049e+06   6.997707e+05
  -1.712253e+06  -7.459892e+05
  -4.099077e+05  -1.637574e+06
   1.022191e+06  -1.053500e+06
   1.276813e+06   2.119854e+05
   3.195226e+05   7.443466e+05
  -7.402597e+05   6.522045e+04
  -7.002691e+05  -1.039987e+06
   6.104096e+05  -1.395532e+06
   2.012677e+06  -4.882675e+05
   1.999502e+06   1.081869e+06
   3.612861e+05   2.054903e+06
  -1.415543e+06   1.621597e+06
  -1.707536e+06   2.288394e+05
  -5.296006e+05  -8.508504e+05
   6.434131e+05  -8.189177e+05
   6.831678e+05  -6.573787e+04
  -7.840801e+04   4.495758e+05
  -5.653664e+05   2.980153e+05
  -2.699801e+05  -9.173014e+04
   3.702084e+05  -4.810460e+04
   5.554885e+05   5.704788e+05
  -1.417188e+05   1.163904e+06
  -1.358495e+06   9.016584e+05
  -2.071711e+06  -4.169081e+05
  -1.438591e+06  -1.946061e+06
   2.405504e+05  -2.435733e+06
   1.639040e+06  -1.464717e+06
   1.756746e+06   8.857459e+04
   9.529638e+05   9.679387e+05
   3.436657e+05   8.115505e+05
   3.926460e+05   3.205358e+05
   5.251726e+05   2.819835e+05
   6.994352e+04   6.996076e+05
  -8.515558e+05   9.105999e+05
  -1.469938e+06   3.652651e+05
  -1.116034e+06  -7.495045e+05
   2.152469e+05  -1.540102e+06
   1.740612e+06  -1.117238e+06
   2.277896e+06   4.865295e+05
   1.163962e+06   2.093978e+06
  -9.550324e+05   2.351040e+06
  -2.494486e+06   1.063443e+06
  -2.383776e+06  -5.980543e+05
  -1.058947e+06  -1.343947e+06
   1.525959e+05  -1.042109e+06
   4.633637e+05  -5.970750e+05
   2.115910e+05  -7.410514e+05
   1.778000e+05  -1.227921e+06
   6.609560e+05  -1.223499e+06
   1.256801e+06  -2.871051e+05
   1.308715e+06   1.101857e+06
   5.280526e+05   1.906163e+06
  -6.479588e+05   1.432144e+06
  -1.294749e+06   1.455747e+03
  -8.227398e+05  -1.254744e+06
   3.434948e+05  -1.386917e+06
   1.097008e+06  -4.667727e+05
   7.964863e+05   5.946903e+05
  -5.682466e+04   1.013101e+06
  -4.476295e+05   7.909320e+05
  -4.993656e+04   4.546516e+05
   4.122352e+05   3.614477e+05
   4.439428e+04   3.929416e+05
  -1.117715e+06   2.118172e+05
  -2.013943e+06  -3.321346e+05
  -1.607389e+06  -1.019597e+06
  -7.389046e+03  -1.390534e+06
   1.531385e+06  -1.106118e+06
   1.810332e+06  -3.034972e+05
   8.516251e+05   4.237638e+05
  -2.352028e+05   5.301075e+05
  -4.913003e+05   6.107720e+04
  -2.728729e+03  -3.746634e+05
   4.710842e+05  -2.401206e+05
   4.692936e+05   3.487968e+05
   1.890150e+05   7.425994e+05
   3.759325e+04   4.843946e+05
   1.451860e+05  -1.328661e+05
   3.268016e+05  -3.386173e+05
   2.844456e+05   2.290532e+05
  -1.795868e+05   1.005766e+06
  -9.083165e+05   1.047921e+06
  -1.299325e+06   1.247735e+05
  -7.782823e+05  -9.262939e+05
   4.270806e+05  -1.084533e+06
   1.225210e+06  -2.716264e+05
   7.205959e+05   5.995357e+05
  -6.959570e+05   6.541698e+05
  -1.616359e+06  -8.123763e+04
  -1.073769e+06  -8.617222e+05
   4.417708e+05  -1.033495e+06
   1.524050e+06  -5.426722e+05
   1.285609e+06   1.638603e+05
   1.577518e+05   5.307263e+05
  -6.485653e+05   2.898541e+05
  -3.656729e+05  -2.820837e+05
   6.174054e+05  -4.927850e+05
   1.182244e+06   1.322447e+05
   6.151490e+05   1.213285e+06
  -6.652910e+05   1.685377e+06
  -1.527635e+06   8.403359e+05
  -1.253472e+06  -7.952464e+05
  -1.776192e+05  -1.819040e+06
   7.616265e+05  -1.323638e+06
   9.408626e+05   1.567890e+05
   4.549137e+05   1.202846e+06
  -1.910850e+05   9.991086e+05
  -5.558522e+05   9.645015e+04
  -4.959052e+05  -3.931733e+05
  -1.961568e+05  -1.513589e+05
  -3.765194e+04   1.060024e+05
  -2.327148e+05  -2.779615e+05
  -4.866598e+05  -9.705558e+05
  -2.202058e+05  -1.098122e+06
   6.807820e+05  -3.986701e+05
   1.490236e+06   4.861068e+05
   1.319599e+06   8.583905e+05
   1.838972e+05   6.993428e+05
  -8.965890e+05   4.103930e+05
  -1.007004e+06   1.853315e+05
  -3.378545e+05  -3.874777e+04
   1.611467e+05  -2.228479e+05
   2.793272e+03  -2.247593e+05
  -3.036398e+05  -1.187881e+05
  -3.506079e+04  -1.371006e+05
   7.097238e+05  -2.162611e+05
   1.050892e+06   3.468570e+04
   3.750735e+05   6.967625e+05
  -8.966821e+05   1.156051e+06
  -1.698521e+06   7.166996e+05
  -1.373995e+06  -4.713782e+05
  -2.470621e+05  -1.427343e+06
   7.802536e+05  -1.366609e+06
   1.063885e+06  -5.069751e+05
   6.631862e+05   2.610868e+05
   1.160169e+05   3.623451e+05
  -1.010823e+05   4.603706e+04
   7.120312e+04  -3.891711e+04
   3.144365e+05   3.642623e+05
   2.532779e+05   8.178523e+05
  -1.952466e+05   6.758253e+05
  -6.919001e+05  -1.513847e+05
  -7.156173e+05  -9.887183e+05
  -7.086061e+04  -1.037882e+06
   7.804396e+05  -2.122884e+05
   1.025798e+06   7.649966e+05
   3.197996e+05   1.100742e+06
  -7.312348e+05   6.533849e+05
  -1.112328e+06  -9.608140e+04
  -5.123485e+05  -6.031646e+05
   2.947845e+05  -6.538205e+05
   3.624599e+05  -3.604249e+05
  -2.755814e+05  -2.208152e+04
  -6.622695e+05   2.825282e+04
  -1.353887e+05  -3.071042e+05
   8.398725e+05  -6.789620e+05
   1.253443e+06  -5.503000e+05
   7.406975e+05   1.668622e+05
  -1.089971e+05   8.651268e+05
  -5.435655e+05   8.465718e+05
  -4.053449e+05   1.400299e+05
  -3.551553e+04  -4.942222e+05
   2.506639e+05  -4.226664e+05
   3.549035e+05   1.745740e+05
   2.464878e+05   5.857009e+05
  -6.377390e+04   4.097154e+05
  -3.927920e+05  -5.898222e+04
  -4.686799e+05  -2.723976e+05
  -2.432133e+05  -8.582284e+04
   2.172022e+04   1.342029e+05
   8.256276e+04   8.307260e+03
   2.256230e+04  -3.708858e+05
   9.983161e+04  -5.298228e+05
   3.378886e+05  -1.766588e+05
   4.288215e+05   4.134343e+05
   1.123608e+05   6.582514e+05
  -4.260446e+05   3.021417e+05
  -6.525128e+05  -3.031409e+05
  -2.389331e+05  -5.896808e+05
   5.089946e+05  -3.601153e+05
   8.764027e+05   9.497072e+04
   4.727652e+05   3.862987e+05
  -3.003699e+05   3.844691e+05
  -6.410080e+05   2.036871e+05
  -2.360008e+05   1.247980e+04
   3.731885e+05  -4.832939e+04
   4.195874e+05   9.206103e+04
  -1.914418e+05   3.061584e+05
  -7.834345e+05   2.654987e+05
