
 $NMID
 id='ANONYMOUS ', fmtdat='(2E16.6)'
 volume=1.0
 tramp=1.0
 $END
  -4.679118e+07   4.390847e+05
  -2.934184e+07  -2.694445e+07
   4.253736e+06  -3.129759e+07
   2.221965e+07  -1.439658e+07
   1.473959e+07   3.703620e+06
  -1.682798e+06   8.019817e+06
  -8.613087e+06   4.303945e+05
  -3.685585e+06  -8.012644e+06
   4.374505e+06  -9.225242e+06
   8.272785e+06  -2.819758e+06
   6.332501e+06   5.371200e+06
   7.873404e+05   7.869654e+06
  -3.622868e+06   2.237978e+06
  -2.570187e+06  -5.492698e+06
   3.035137e+06  -6.592926e+06
   6.943478e+06   5.303581e+05
   4.345485e+06   8.681166e+06
  -2.802045e+06   1.036318e+07
  -8.517474e+06   5.164114e+06
  -9.031875e+06  -1.889006e+06
  -5.131302e+06  -6.246922e+06
  -3.404362e+05  -6.634769e+06
   1.757516e+06  -4.494862e+06
   2.196395e+05  -2.666091e+06
  -1.759434e+06  -3.139865e+06
   2.012038e+05  -4.659915e+06
   5.809301e+06  -3.861269e+06
   9.251331e+06   1.581657e+05
   6.156496e+06   4.077530e+06
  -5.181047e+05   4.426782e+06
  -4.084247e+06   1.724413e+06
  -2.168293e+06  -9.020792e+05
   1.652283e+06  -1.520923e+06
   3.306884e+06  -1.745667e+05
   2.208035e+06   2.318971e+06
  -5.395762e+04   4.207863e+06
  -1.937207e+06   3.144405e+06
  -2.259498e+06  -6.698693e+05
  -7.856435e+05  -3.071106e+06
   6.600567e+05  -8.324841e+05
  -1.862355e+05   2.986761e+06
  -2.453356e+06   2.437518e+06
  -2.407552e+06  -2.588749e+06
   1.385493e+06  -5.303259e+06
   5.183701e+06  -1.202576e+06
   4.266126e+06   5.447971e+06
  -1.193300e+06   7.063833e+06
  -6.258776e+06   2.152921e+06
  -6.578081e+06  -3.833592e+06
  -2.216748e+06  -5.606800e+06
   3.121486e+06  -2.927221e+06
   5.296107e+06   9.920135e+05
   2.800153e+06   3.079734e+06
  -1.838984e+06   2.182733e+06
  -4.058976e+06  -5.097460e+05
  -1.959437e+06  -2.226160e+06
   1.416440e+06  -1.260930e+06
   1.824680e+06   8.688189e+05
  -7.557668e+05   1.201347e+06
  -2.314670e+06  -7.704892e+05
  -2.869417e+05  -2.526653e+06
   3.269662e+06  -1.921335e+06
   4.553226e+06   5.537425e+05
   2.296921e+06   3.177181e+06
  -1.732293e+06   4.767669e+06
  -5.008943e+06   4.392059e+06
  -5.851508e+06   1.350195e+06
  -3.942606e+06  -3.136232e+06
  -6.973229e+05  -5.791768e+06
   1.462457e+06  -4.661484e+06
   1.401580e+06  -1.716115e+06
   5.177345e+05  -3.753230e+05
   8.204474e+05  -1.099513e+06
   2.254600e+06  -1.324962e+06
   2.951903e+06   4.522509e+05
   1.778922e+06   2.528884e+06
  -4.353473e+05   2.439263e+06
  -2.022766e+06   6.671438e+04
  -1.854845e+06  -2.469228e+06
   1.673146e+05  -3.108299e+06
   2.876357e+06  -1.402047e+06
   4.159338e+06   1.464242e+06
   2.737875e+06   3.560512e+06
  -1.460300e+05   3.650750e+06
  -1.913583e+06   2.283166e+06
  -1.801612e+06   1.111374e+06
  -1.646180e+06   8.912636e+05
  -2.959761e+06   6.885792e+05
  -4.454833e+06  -6.361161e+05
  -3.627971e+06  -2.782834e+06
  -1.666481e+05  -4.302985e+06
   3.423303e+06  -4.054661e+06
   4.486945e+06  -2.025177e+06
   2.704558e+06   7.038363e+05
  -5.611296e+03   2.407844e+06
  -1.366160e+06   1.883332e+06
  -5.561582e+05  -1.323184e+05
   1.223530e+06  -1.317045e+06
   1.931832e+06  -3.802459e+05
   8.352803e+05   1.213358e+06
  -6.363264e+05   1.170649e+06
  -6.133936e+05  -3.907579e+05
   8.805941e+05  -1.001009e+06
   1.974564e+06   7.646836e+05
   1.206272e+06   3.282508e+06
  -9.981743e+05   3.870090e+06
  -3.085630e+06   1.838435e+06
  -3.810394e+06  -1.140108e+06
  -2.793619e+06  -3.013840e+06
  -5.821706e+05  -2.962979e+06
   1.394593e+06  -1.562494e+06
   1.718082e+06  -1.719717e+05
   5.216682e+05   5.151635e+04
  -3.833383e+05  -7.899502e+05
   3.735367e+05  -1.352364e+06
   1.890001e+06  -6.057634e+05
   2.093561e+06   8.243360e+05
   4.693555e+05   1.411904e+06
  -1.210059e+06   6.402205e+05
  -1.035243e+06  -4.758437e+05
   8.395898e+05  -7.109800e+05
   2.452860e+06   1.562217e+05
   2.086947e+06   1.450521e+06
  -1.540370e+05   2.257763e+06
  -2.482213e+06   1.874790e+06
  -2.968381e+06   3.211745e+05
  -1.276716e+06  -1.284679e+06
   9.272721e+05  -1.497120e+06
   1.540505e+06  -1.807228e+05
   1.553368e+05   1.080782e+06
  -1.582550e+06   7.557991e+05
  -1.830673e+06  -7.794327e+05
  -4.529122e+05  -1.745168e+06
   1.083139e+06  -1.138037e+06
   1.369552e+06   2.131059e+05
   3.520608e+05   7.941608e+05
  -7.857640e+05   7.995638e+04
  -7.526056e+05  -1.098312e+06
   6.386796e+05  -1.485997e+06
   2.134693e+06  -5.317392e+05
   2.132148e+06   1.135449e+06
   4.002401e+05   2.181966e+06
  -1.492004e+06   1.737486e+06
  -1.816540e+06   2.584979e+05
  -5.727411e+05  -9.032422e+05
   6.794444e+05  -8.785371e+05
   7.284156e+05  -7.057392e+04
  -8.508829e+04   4.867230e+05
  -6.101852e+05   3.200700e+05
  -2.931856e+05  -1.083967e+05
   3.996693e+05  -6.610736e+04
   6.052919e+05   6.011391e+05
  -1.372260e+05   1.243939e+06
  -1.438676e+06   9.720620e+05
  -2.207628e+06  -4.277303e+05
  -1.544242e+06  -2.058834e+06
   2.404121e+05  -2.593290e+06
   1.739222e+06  -1.571819e+06
   1.876851e+06   8.488377e+04
   1.020385e+06   1.034340e+06
   3.603564e+05   8.710930e+05
   4.082097e+05   3.364504e+05
   5.586647e+05   2.866521e+05
   8.374594e+04   7.393030e+05
  -8.992105e+05   9.779619e+05
  -1.566163e+06   3.999645e+05
  -1.194529e+06  -7.960655e+05
   2.223962e+05  -1.647596e+06
   1.848965e+06  -1.202839e+06
   2.429540e+06   5.035529e+05
   1.256488e+06   2.222516e+06
  -9.953787e+05   2.513397e+06
  -2.647731e+06   1.155866e+06
  -2.548441e+06  -6.186963e+05
  -1.141750e+06  -1.431342e+06
   1.598731e+05  -1.119425e+06
   4.993918e+05  -6.372714e+05
   2.252843e+05  -7.790937e+05
   1.775314e+05  -1.298542e+06
   6.888888e+05  -1.304794e+06
   1.331344e+06  -3.162712e+05
   1.397988e+06   1.161946e+06
   5.737529e+05   2.023350e+06
  -6.800547e+05   1.526839e+06
  -1.378966e+06   1.053677e+04
  -8.878818e+05  -1.329002e+06
   3.523624e+05  -1.482218e+06
   1.166034e+06  -5.132904e+05
   8.598259e+05   6.209097e+05
  -4.467611e+04   1.081135e+06
  -4.669860e+05   8.528946e+05
  -5.124013e+04   4.891045e+05
   4.382549e+05   3.812093e+05
   4.858065e+04   4.170778e+05
  -1.186731e+06   2.363205e+05
  -2.143670e+06  -3.346162e+05
  -1.719392e+06  -1.071766e+06
  -2.405635e+04  -1.481614e+06
   1.616159e+06  -1.191735e+06
   1.925840e+06  -3.394315e+05
   9.163662e+05   4.427657e+05
  -2.419244e+05   5.661671e+05
  -5.237311e+05   7.169748e+04
  -8.097549e+03  -3.940335e+05
   4.995128e+05  -2.556691e+05
   5.007942e+05   3.671112e+05
   2.016098e+05   7.844957e+05
   4.009236e+04   5.105737e+05
   1.571752e+05  -1.437749e+05
   3.517085e+05  -3.611991e+05
   3.052041e+05   2.422173e+05
  -1.873287e+05   1.069482e+06
  -9.578904e+05   1.120329e+06
  -1.374310e+06   1.451815e+05
  -8.302433e+05  -9.743277e+05
   4.424059e+05  -1.153475e+06
   1.294478e+06  -2.974410e+05
   7.682725e+05   6.330343e+05
  -7.360921e+05   7.022544e+05
  -1.723833e+06  -7.620093e+04
  -1.153110e+06  -9.152060e+05
   4.642196e+05  -1.109510e+06
   1.625295e+06  -5.901693e+05
   1.374960e+06   1.680921e+05
   1.716648e+05   5.667829e+05
  -6.900149e+05   3.146114e+05
  -3.914020e+05  -2.951175e+05
   6.524538e+05  -5.243585e+05
   1.254217e+06   1.347804e+05
   6.573332e+05   1.283041e+06
  -6.981306e+05   1.790095e+06
  -1.617445e+06   8.986595e+05
  -1.335910e+06  -8.388347e+05
  -1.984909e+05  -1.933504e+06
   8.046627e+05  -1.413971e+06
   1.005368e+06   1.600648e+05
   4.936346e+05   1.279668e+06
  -1.970206e+05   1.069518e+06
  -5.916990e+05   1.083304e+05
  -5.310144e+05  -4.186788e+05
  -2.105274e+05  -1.638556e+05
  -3.969446e+04   1.149164e+05
  -2.486360e+05  -2.879752e+05
  -5.234200e+05  -1.026968e+06
  -2.425485e+05  -1.171301e+06
   7.196617e+05  -4.333331e+05
   1.588300e+06   5.088634e+05
   1.411090e+06   9.089867e+05
   2.009274e+05   7.427093e+05
  -9.527765e+05   4.382153e+05
  -1.072005e+06   2.026617e+05
  -3.598791e+05  -3.507926e+04
   1.705013e+05  -2.364081e+05
   1.239401e+03  -2.442724e+05
  -3.238707e+05  -1.301792e+05
  -3.684565e+04  -1.440514e+05
   7.544610e+05  -2.285663e+05
   1.115865e+06   3.088946e+04
   3.997993e+05   7.318056e+05
  -9.463275e+05   1.228667e+06
  -1.796531e+06   7.729282e+05
  -1.457760e+06  -4.891696e+05
  -2.692635e+05  -1.514622e+06
   8.192531e+05  -1.457631e+06
   1.124966e+06  -5.435296e+05
   7.045043e+05   2.756816e+05
   1.244336e+05   3.826026e+05
  -1.068875e+05   4.433534e+04
   7.750842e+04  -4.490865e+04
   3.388925e+05   3.865634e+05
   2.751251e+05   8.695945e+05
  -2.031877e+05   7.181239e+05
  -7.339902e+05  -1.594132e+05
  -7.620944e+05  -1.045929e+06
  -7.901725e+04  -1.097847e+06
   8.258000e+05  -2.252515e+05
   1.090165e+06   8.080256e+05
   3.448606e+05   1.165207e+06
  -7.707506e+05   6.961626e+05
  -1.180337e+06  -9.435569e+04
  -5.494030e+05  -6.340584e+05
   3.056236e+05  -6.946372e+05
   3.802329e+05  -3.879831e+05
  -2.938075e+05  -2.639786e+04
  -7.036761e+05   3.254198e+04
  -1.456086e+05  -3.238925e+05
   8.891982e+05  -7.268010e+05
   1.329843e+06  -5.969786e+05
   7.888479e+05   1.676212e+05
  -1.095641e+05   9.188591e+05
  -5.693208e+05   9.051719e+05
  -4.250791e+05   1.532104e+05
  -3.789249e+04  -5.239984e+05
   2.623728e+05  -4.487121e+05
   3.750172e+05   1.856825e+05
   2.648735e+05   6.205644e+05
  -6.294371e+04   4.330428e+05
  -4.162206e+05  -6.116383e+04
  -5.012335e+05  -2.842184e+05
  -2.609988e+05  -8.850938e+04
   2.542978e+04   1.392420e+05
   9.311966e+04   5.022780e+03
   2.678531e+04  -3.909671e+05
   1.034000e+05  -5.548440e+05
   3.532750e+05  -1.838671e+05
   4.513977e+05   4.348857e+05
   1.190304e+05   6.932579e+05
  -4.503763e+05   3.207895e+05
  -6.915081e+05  -3.175202e+05
  -2.548627e+05  -6.243343e+05
   5.376878e+05  -3.862607e+05
   9.290766e+05   9.485284e+04
   5.038605e+05   4.068351e+05
  -3.144734e+05   4.087036e+05
  -6.763321e+05   2.190945e+05
  -2.485497e+05   1.688917e+04
   3.958217e+05  -4.815194e+04
   4.435032e+05   9.917880e+04
  -2.057606e+05   3.247641e+05
  -8.338218e+05   2.815270e+05
