
 $NMID
 id='ANONYMOUS ', fmtdat='(2E16.6)'
 volume=1.0
 tramp=1.0
 $END
  -3.963431e+07   1.718554e+06
  -2.571489e+07  -2.171612e+07
   2.492999e+06  -2.653333e+07
   1.827675e+07  -1.309276e+07
   1.267110e+07   2.415878e+06
  -1.062674e+06   6.847218e+06
  -7.314572e+06   8.056054e+05
  -3.526376e+06  -6.642687e+06
   3.314097e+06  -8.119122e+06
   6.939002e+06  -2.779238e+06
   5.586399e+06   4.397917e+06
   9.104297e+05   6.742426e+06
  -3.055091e+06   1.991194e+06
  -2.406004e+06  -4.714799e+06
   2.349144e+06  -5.829200e+06
   5.938210e+06   1.675714e+05
   4.016821e+06   7.245016e+06
  -2.023704e+06   8.923072e+06
  -7.079467e+06   4.646973e+06
  -7.712709e+06  -1.375410e+06
  -4.466658e+06  -5.164322e+06
  -4.210741e+05  -5.540976e+06
   1.290053e+06  -3.760846e+06
  -8.373349e+04  -2.282425e+06
  -1.735016e+06  -2.773235e+06
   6.476428e+04  -4.132999e+06
   4.996755e+06  -3.499533e+06
   8.032938e+06  -7.206266e+04
   5.387066e+06   3.373635e+06
  -4.197572e+05   3.819036e+06
  -3.570005e+06   1.540963e+06
  -1.905142e+06  -8.325613e+05
   1.497924e+06  -1.470159e+06
   2.999115e+06  -2.462507e+05
   2.016472e+06   2.047209e+06
   6.637895e+03   3.710235e+06
  -1.616583e+06   2.717862e+06
  -1.886908e+06  -6.006658e+05
  -6.604821e+05  -2.606818e+06
   5.612132e+05  -6.182222e+05
  -1.142148e+05   2.680426e+06
  -2.052724e+06   2.216742e+06
  -2.158793e+06  -2.109498e+06
   9.379305e+05  -4.544870e+06
   4.270604e+06  -1.194176e+06
   3.759934e+06   4.460150e+06
  -7.629111e+05   6.008690e+06
  -5.254682e+06   2.020440e+06
  -5.796662e+06  -3.064526e+06
  -2.143827e+06  -4.753374e+06
   2.579508e+06  -2.664510e+06
   4.634902e+06   6.327371e+05
   2.566422e+06   2.535850e+06
  -1.470505e+06   1.941883e+06
  -3.488118e+06  -2.808086e+05
  -1.762917e+06  -1.820729e+06
   1.164533e+06  -1.122995e+06
   1.621337e+06   6.795982e+05
  -5.515768e+05   1.088931e+06
  -1.998887e+06  -4.910241e+05
  -4.096966e+05  -2.068117e+06
   2.631709e+06  -1.749068e+06
   3.877282e+06   2.620434e+05
   2.080710e+06   2.601069e+06
  -1.355578e+06   4.147159e+06
  -4.226322e+06   3.933543e+06
  -5.019213e+06   1.311791e+06
  -3.459512e+06  -2.614685e+06
  -7.556237e+05  -4.980590e+06
   1.080649e+06  -4.080607e+06
   1.110030e+06  -1.583627e+06
   4.600597e+05  -4.220513e+05
   7.701325e+05  -1.019255e+06
   2.005810e+06  -1.191006e+06
   2.617949e+06   3.739233e+05
   1.615217e+06   2.219474e+06
  -3.483131e+05   2.181931e+06
  -1.816632e+06   1.167154e+05
  -1.722410e+06  -2.131882e+06
   6.279039e+04  -2.734499e+06
   2.477568e+06  -1.285379e+06
   3.637237e+06   1.179691e+06
   2.436382e+06   2.998575e+06
  -3.576799e+04   3.117310e+06
  -1.559323e+06   1.989553e+06
  -1.481566e+06   1.011895e+06
  -1.376312e+06   8.485223e+05
  -2.549880e+06   7.201436e+05
  -3.905585e+06  -3.911790e+05
  -3.262858e+06  -2.301297e+06
  -2.927321e+05  -3.757376e+06
   2.867586e+06  -3.661285e+06
   3.875805e+06  -1.902585e+06
   2.387445e+06   5.579314e+05
   4.352548e+04   2.121944e+06
  -1.160889e+06   1.681230e+06
  -4.896506e+05  -1.106583e+05
   1.038743e+06  -1.189384e+06
   1.672550e+06  -3.897243e+05
   7.546828e+05   1.032851e+06
  -5.307591e+05   1.047404e+06
  -5.689800e+05  -3.176687e+05
   7.057161e+05  -9.314382e+05
   1.745074e+06   5.369426e+05
   1.216394e+06   2.778370e+06
  -6.628527e+05   3.437228e+06
  -2.599785e+06   1.782457e+06
  -3.400859e+06  -8.196787e+05
  -2.593066e+06  -2.546995e+06
  -6.259337e+05  -2.595723e+06
   1.177171e+06  -1.418563e+06
   1.505493e+06  -2.011114e+05
   4.581772e+05   2.813069e+04
  -3.628784e+05  -6.789032e+05
   2.765226e+05  -1.188864e+06
   1.621642e+06  -5.901810e+05
   1.852467e+06   6.414338e+05
   4.624818e+05   1.211212e+06
  -1.036132e+06   6.053892e+05
  -9.352459e+05  -3.801531e+05
   7.003095e+05  -6.702640e+05
   2.166692e+06   2.786932e+04
   1.905891e+06   1.195530e+06
  -4.152463e+04   2.000302e+06
  -2.112183e+06   1.741214e+06
  -2.591577e+06   3.853336e+05
  -1.157877e+06  -1.076564e+06
   7.595766e+05  -1.330239e+06
   1.330953e+06  -2.040334e+05
   1.635747e+05   9.363047e+05
  -1.359257e+06   7.118326e+05
  -1.629872e+06  -6.156682e+05
  -4.658666e+05  -1.510844e+06
   9.002870e+05  -1.043441e+06
   1.209023e+06   1.268464e+05
   3.447499e+05   6.791502e+05
  -6.796908e+05   9.896624e+04
  -6.943644e+05  -9.352108e+05
   5.120589e+05  -1.322219e+06
   1.853498e+06  -5.340288e+05
   1.903536e+06   9.253033e+05
   4.229612e+05   1.895572e+06
  -1.244254e+06   1.570336e+06
  -1.579469e+06   2.905742e+05
  -5.354919e+05  -7.697333e+05
   5.638395e+05  -7.953530e+05
   6.436643e+05  -8.549296e+04
  -5.046025e+04   4.424063e+05
  -5.325956e+05   3.162917e+05
  -2.821769e+05  -8.570628e+04
   3.343641e+05  -8.848619e+04
   5.548934e+05   4.899064e+05
  -6.736143e+04   1.089935e+06
  -1.222309e+06   9.027352e+05
  -1.947591e+06  -2.976109e+05
  -1.421240e+06  -1.750198e+06
   1.234765e+05  -2.282218e+06
   1.471555e+06  -1.444449e+06
   1.655243e+06   3.283319e+03
   9.428738e+05   8.787100e+05
   3.510626e+05   7.712465e+05
   3.590519e+05   2.947782e+05
   4.853423e+05   2.279980e+05
   9.609792e+04   6.352882e+05
  -7.487866e+05   8.888135e+05
  -1.359202e+06   4.119544e+05
  -1.083602e+06  -6.568723e+05
   1.303475e+05  -1.461003e+06
   1.578691e+06  -1.125313e+06
   2.150015e+06   3.556018e+05
   1.182809e+06   1.902025e+06
  -7.769015e+05   2.234387e+06
  -2.272484e+06   1.108858e+06
  -2.257929e+06  -4.446623e+05
  -1.064102e+06  -1.213854e+06
   9.263321e+04  -9.988499e+05
   4.242759e+05  -5.884319e+05
   1.885959e+05  -6.902317e+05
   1.216144e+05  -1.133678e+06
   5.577070e+05  -1.157865e+06
   1.150679e+06  -3.185691e+05
   1.261416e+06   9.726654e+05
   5.691604e+05   1.754695e+06
  -5.465356e+05   1.360961e+06
  -1.209262e+06   5.778169e+04
  -8.254808e+05  -1.129438e+06
   2.506861e+05  -1.309125e+06
   9.940716e+05  -4.981948e+05
   7.719911e+05   4.998165e+05
   7.238361e+03   9.394411e+05
  -3.669809e+05   7.640733e+05
  -2.283686e+04   4.353337e+05
   3.942618e+05   3.220378e+05
   5.515806e+04   3.647233e+05
  -1.026579e+06   2.485351e+05
  -1.882463e+06  -2.182709e+05
  -1.542233e+06  -8.765056e+05
  -7.889109e+04  -1.290882e+06
   1.366512e+06  -1.095232e+06
   1.672260e+06  -3.677089e+05
   8.202691e+05   3.461126e+05
  -1.887673e+05   4.986473e+05
  -4.530499e+05   8.483525e+04
  -1.649879e+04  -3.379695e+05
   4.324784e+05  -2.383913e+05
   4.492815e+05   3.051627e+05
   1.944849e+05   6.830814e+05
   4.429361e+04   4.469114e+05
   1.332176e+05  -1.369656e+05
   3.018470e+05  -3.361288e+05
   2.774082e+05   2.002025e+05
  -1.315723e+05   9.461095e+05
  -8.010001e+05   1.012561e+06
  -1.189864e+06   1.677626e+05
  -7.504807e+05  -8.265801e+05
   3.493720e+05  -1.017721e+06
   1.118888e+06  -2.955058e+05
   6.929127e+05   5.317575e+05
  -6.192258e+05   6.413307e+05
  -1.516339e+06  -4.318030e+03
  -1.052019e+06  -7.604627e+05
   3.609866e+05  -9.941807e+05
   1.406166e+06  -5.835579e+05
   1.218010e+06   9.461009e+04
   1.738857e+05   4.928363e+05
  -5.932632e+05   3.028776e+05
  -3.502976e+05  -2.432139e+05
   5.585586e+05  -4.775894e+05
   1.103388e+06   8.279744e+04
   6.111385e+05   1.106444e+06
  -5.620340e+05   1.589152e+06
  -1.392672e+06   8.352966e+05
  -1.198262e+06  -6.946488e+05
  -2.365383e+05  -1.690577e+06
   6.588312e+05  -1.270850e+06
   8.883039e+05   1.016803e+05
   4.809460e+05   1.104935e+06
  -1.300344e+05   9.485122e+05
  -5.131810e+05   1.178245e+05
  -4.849772e+05  -3.506331e+05
  -1.960066e+05  -1.385317e+05
  -2.885120e+04   1.037776e+05
  -2.192844e+05  -2.406247e+05
  -4.898132e+05  -8.818565e+05
  -2.583313e+05  -1.020496e+06
   6.088935e+05  -4.049010e+05
   1.410928e+06   3.941244e+05
   1.274139e+06   7.504258e+05
   2.015675e+05   6.431871e+05
  -8.268461e+05   4.150984e+05
  -9.355596e+05   2.153543e+05
  -3.117535e+05  -1.551485e+04
   1.441661e+05  -2.122801e+05
  -1.379409e+04  -2.173632e+05
  -2.958173e+05  -1.071927e+05
  -3.439983e+04  -1.256711e+05
   6.619861e+05  -2.225013e+05
   9.786693e+05  -6.898035e+03
   3.635218e+05   6.278055e+05
  -7.971640e+05   1.103648e+06
  -1.545433e+06   7.301212e+05
  -1.284894e+06  -3.862576e+05
  -2.820432e+05  -1.320568e+06
   6.692988e+05  -1.301941e+06
   9.687412e+05  -5.079870e+05
   6.278626e+05   2.229384e+05
   1.184431e+05   3.314632e+05
  -9.865541e+04   3.829222e+04
   6.400540e+04  -4.673619e+04
   3.129769e+05   3.257041e+05
   2.722141e+05   7.535845e+05
  -1.566811e+05   6.348112e+05
  -6.503683e+05  -1.210560e+05
  -6.975605e+05  -8.976461e+05
  -9.640472e+04  -9.595068e+05
   7.213107e+05  -2.171248e+05
   9.793914e+05   6.800675e+05
   3.348822e+05   1.010264e+06
  -6.547493e+05   6.297725e+05
  -1.034433e+06  -4.712033e+04
  -4.979215e+05  -5.337042e+05
   2.453804e+05  -6.125409e+05
   3.154025e+05  -3.507930e+05
  -2.645759e+05  -1.607747e+04
  -6.174800e+05   5.004902e+04
  -1.357743e+05  -2.780965e+05
   7.563739e+05  -6.663953e+05
   1.141373e+06  -5.703346e+05
   6.905102e+05   1.170750e+05
  -6.747702e+04   8.065507e+05
  -4.648732e+05   8.089352e+05
  -3.616026e+05   1.431491e+05
  -4.661132e+04  -4.608041e+05
   2.169875e+05  -3.983185e+05
   3.351300e+05   1.564317e+05
   2.510201e+05   5.358483e+05
  -4.309990e+04   3.765251e+05
  -3.666649e+05  -4.293407e+04
  -4.463427e+05  -2.294290e+05
  -2.314253e+05  -6.579423e+04
   2.376079e+04   1.169470e+05
   8.144674e+04  -7.698563e+03
   1.885554e+04  -3.474716e+05
   8.443160e+04  -4.837781e+05
   3.077545e+05  -1.620959e+05
   4.021055e+05   3.739534e+05
   1.162104e+05   6.051526e+05
  -3.876370e+05   2.927107e+05
  -6.125377e+05  -2.603822e+05
  -2.403136e+05  -5.416401e+05
   4.574572e+05  -3.547184e+05
   8.141775e+05   5.648935e+04
   4.528555e+05   3.409748e+05
  -2.629721e+05   3.639281e+05
  -5.846544e+05   2.080242e+05
  -2.128543e+05   2.152857e+04
   3.519869e+05  -5.022753e+04
   3.945978e+05   7.938907e+04
  -1.752484e+05   2.951925e+05
  -7.306172e+05   2.730278e+05
