
 $NMID
 id='ANONYMOUS ', fmtdat='(2E16.6)'
 volume=1.0
 tramp=1.0
 $END
  -3.113436e+07   1.495502e+06
  -2.071877e+07  -1.628646e+07
   1.186366e+06  -2.074266e+07
   1.414416e+07  -1.118981e+07
   1.043797e+07   1.080388e+06
  -4.094740e+05   5.517217e+06
  -5.961651e+06   1.201657e+06
  -3.324344e+06  -5.212374e+06
   2.332602e+06  -6.985730e+06
   5.585914e+06  -2.640399e+06
   4.591972e+06   3.558830e+06
   7.384567e+05   5.591991e+06
  -2.521308e+06   1.541107e+06
  -2.014254e+06  -4.102237e+06
   1.842901e+06  -5.041324e+06
   4.842274e+06  -8.564234e+04
   3.406098e+06   5.795596e+06
  -1.479771e+06   7.245564e+06
  -5.626626e+06   3.744183e+06
  -6.075598e+06  -1.165786e+06
  -3.353550e+06  -4.063288e+06
  -2.456468e+05  -4.124869e+06
   7.349697e+05  -2.757335e+06
  -5.825201e+05  -2.005377e+06
  -1.656693e+06  -2.748461e+06
   2.575910e+05  -3.711951e+06
   4.464062e+06  -2.786821e+06
   6.782204e+06   2.161131e+05
   4.331084e+06   2.920591e+06
  -6.279083e+05   3.064392e+06
  -3.188215e+06   1.013135e+06
  -1.512295e+06  -1.024029e+06
   1.659974e+06  -1.416049e+06
   2.916362e+06  -5.474613e+04
   1.704561e+06   2.077099e+06
  -2.785557e+05   3.277547e+06
  -1.449388e+06   2.099592e+06
  -1.296023e+06  -6.948920e+05
  -2.605991e+05  -2.049449e+06
   4.252228e+05  -1.764590e+05
  -3.095492e+05   2.469834e+06
  -1.794738e+06   1.936005e+06
  -1.846309e+06  -1.642534e+06
   4.928229e+05  -3.667729e+06
   3.127698e+06  -1.093866e+06
   2.960630e+06   3.382197e+06
  -4.473268e+05   4.718100e+06
  -4.167210e+06   1.634973e+06
  -4.864503e+06  -2.489497e+06
  -1.935056e+06  -3.991564e+06
   2.138584e+06  -2.353667e+06
   4.016439e+06   4.148190e+05
   2.325012e+06   2.087493e+06
  -1.094502e+06   1.672931e+06
  -2.864009e+06  -1.258092e+05
  -1.522590e+06  -1.425056e+06
   9.115366e+05  -9.306227e+05
   1.424207e+06   5.499768e+05
  -3.066321e+05   1.038710e+06
  -1.689696e+06  -1.186463e+05
  -6.489724e+05  -1.511781e+06
   1.847604e+06  -1.521649e+06
   3.120299e+06  -1.430403e+04
   1.783067e+06   2.005211e+06
  -1.175289e+06   3.406491e+06
  -3.674095e+06   3.207426e+06
  -4.222431e+06   9.635820e+05
  -2.753372e+06  -2.266100e+06
  -5.352131e+05  -4.174380e+06
   8.375775e+05  -3.485002e+06
   8.680545e+05  -1.525927e+06
   5.326476e+05  -5.545273e+05
   9.524055e+05  -8.877353e+05
   1.937873e+06  -8.389974e+05
   2.277769e+06   5.744474e+05
   1.274747e+06   2.112568e+06
  -4.749918e+05   1.958282e+06
  -1.711721e+06   2.827646e+04
  -1.510584e+06  -1.980837e+06
   1.376116e+05  -2.405017e+06
   2.174208e+06  -9.999580e+05
   3.014695e+06   1.131050e+06
   1.919686e+06   2.531021e+06
  -8.185651e+04   2.497070e+06
  -1.235561e+06   1.567786e+06
  -1.146876e+06   8.593270e+05
  -1.137734e+06   7.893428e+05
  -2.211502e+06   6.632422e+05
  -3.394276e+06  -3.347043e+05
  -2.832297e+06  -2.018297e+06
  -2.260294e+05  -3.291971e+06
   2.573228e+06  -3.167568e+06
   3.449787e+06  -1.562815e+06
   2.056526e+06   5.936705e+05
  -7.734850e+04   1.873781e+06
  -1.097686e+06   1.412789e+06
  -4.147999e+05  -1.291548e+05
   9.462971e+05  -1.011669e+06
   1.446707e+06  -3.150677e+05
   6.113764e+05   8.931420e+05
  -5.032069e+05   9.114578e+05
  -5.460988e+05  -2.805322e+05
   5.583999e+05  -8.977569e+05
   1.544020e+06   3.058832e+05
   1.211687e+06   2.343075e+06
  -4.119475e+05   3.114307e+06
  -2.247883e+06   1.752159e+06
  -3.090572e+06  -6.436732e+05
  -2.374577e+06  -2.306997e+06
  -5.507964e+05  -2.356037e+06
   1.077100e+06  -1.237930e+06
   1.340426e+06  -1.384978e+05
   4.030110e+05   3.027970e+04
  -3.132203e+05  -5.980045e+05
   2.327898e+05  -1.021224e+06
   1.388918e+06  -5.028900e+05
   1.604707e+06   5.429178e+05
   4.169638e+05   1.040578e+06
  -9.054855e+05   5.332021e+05
  -8.470053e+05  -3.422643e+05
   6.068179e+05  -6.332886e+05
   1.954234e+06  -8.342232e+03
   1.740125e+06   1.080278e+06
  -2.525796e+04   1.815509e+06
  -1.889378e+06   1.548326e+06
  -2.293012e+06   3.225150e+05
  -1.004783e+06  -9.390408e+05
   6.630926e+05  -1.132070e+06
   1.134573e+06  -1.626230e+05
   1.173311e+05   8.014547e+05
  -1.192418e+06   6.041448e+05
  -1.430426e+06  -5.408060e+05
  -4.268674e+05  -1.332052e+06
   7.780993e+05  -9.441603e+05
   1.075532e+06   8.393952e+04
   3.280404e+05   5.892278e+05
  -5.776758e+05   8.763220e+04
  -5.898526e+05  -8.219468e+05
   4.734314e+05  -1.146860e+06
   1.635452e+06  -4.343103e+05
   1.653849e+06   8.399949e+05
   3.505840e+05   1.664113e+06
  -1.097368e+06   1.367253e+06
  -1.387440e+06   2.529383e+05
  -4.779203e+05  -6.756052e+05
   4.963217e+05  -7.026463e+05
   5.844519e+05  -6.492156e+04
  -3.752912e+04   4.226823e+05
  -5.026919e+05   3.027508e+05
  -2.999820e+05  -9.482542e+04
   2.734604e+05  -1.245360e+05
   5.039939e+05   4.012870e+05
  -4.336302e+04   9.547216e+05
  -1.075822e+06   7.889276e+05
  -1.709378e+06  -2.783609e+05
  -1.228042e+06  -1.552675e+06
   1.361087e+05  -2.014022e+06
   1.318907e+06  -1.279832e+06
   1.485514e+06   4.656887e+03
   8.568176e+05   8.128898e+05
   3.060766e+05   7.433346e+05
   2.779781e+05   2.965617e+05
   3.893547e+05   1.888496e+05
   7.440692e+04   5.362588e+05
  -6.590328e+05   7.823456e+05
  -1.211903e+06   3.656131e+05
  -9.732402e+05  -6.019382e+05
   1.179586e+05  -1.318554e+06
   1.409694e+06  -9.944685e+05
   1.902557e+06   3.332707e+05
   1.038561e+06   1.683937e+06
  -6.806039e+05   1.959093e+06
  -1.993911e+06   9.735591e+05
  -2.001048e+06  -3.874149e+05
  -9.667785e+05  -1.084220e+06
   7.371826e+04  -9.179887e+05
   4.103916e+05  -5.442376e+05
   2.210730e+05  -5.957807e+05
   1.401831e+05  -9.647233e+05
   4.937215e+05  -9.917846e+05
   1.000814e+06  -2.614213e+05
   1.091476e+06   8.736272e+05
   4.759747e+05   1.553180e+06
  -5.017604e+05   1.191274e+06
  -1.069064e+06   4.239463e+04
  -7.234580e+05  -9.909571e+05
   2.128574e+05  -1.149969e+06
   8.575298e+05  -4.572736e+05
   6.752862e+05   4.069435e+05
   2.690705e+04   8.070440e+05
  -2.959952e+05   6.774767e+05
  -1.176483e+04   3.996223e+05
   3.356454e+05   2.961263e+05
   3.908677e+04   3.250969e+05
  -8.950174e+05   2.126669e+05
  -1.638006e+06  -2.055736e+05
  -1.348462e+06  -7.776190e+05
  -7.838602e+04  -1.122493e+06
   1.188708e+06  -9.430043e+05
   1.468897e+06  -3.217052e+05
   7.298505e+05   2.848997e+05
  -1.586652e+05   4.239624e+05
  -3.932890e+05   8.253225e+04
  -2.955608e+03  -2.790381e+05
   3.934465e+05  -1.983836e+05
   3.884081e+05   2.747818e+05
   1.393918e+05   6.085047e+05
   1.200423e+04   3.935440e+05
   1.235801e+05  -1.343304e+05
   2.897680e+05  -3.094342e+05
   2.461719e+05   1.783867e+05
  -1.405422e+05   8.385073e+05
  -7.172376e+05   8.770548e+05
  -1.021939e+06   1.196804e+05
  -6.234408e+05  -7.359944e+05
   3.188562e+05  -8.705613e+05
   9.718837e+05  -2.253572e+05
   5.992671e+05   4.845520e+05
  -5.483983e+05   5.626699e+05
  -1.348063e+06  -1.105251e+04
  -9.489705e+05  -6.808368e+05
   3.103822e+05  -8.935082e+05
   1.256818e+06  -5.285338e+05
   1.095341e+06   8.403121e+04
   1.584404e+05   4.434696e+05
  -5.251700e+05   2.708573e+05
  -2.988521e+05  -2.107543e+05
   5.082717e+05  -4.010291e+05
   9.672972e+05   1.049447e+05
   5.016359e+05   9.904264e+05
  -5.413672e+05   1.381867e+06
  -1.250146e+06   7.001419e+05
  -1.045233e+06  -6.385456e+05
  -1.809353e+05  -1.500587e+06
   6.014018e+05  -1.124951e+06
   7.888316e+05   8.834212e+04
   4.245878e+05   9.821363e+05
  -1.100565e+05   8.488004e+05
  -4.499070e+05   1.055976e+05
  -4.370615e+05  -3.213387e+05
  -1.861703e+05  -1.317624e+05
  -2.136218e+04   9.685191e+04
  -1.688691e+05  -2.023222e+05
  -4.121925e+05  -7.801020e+05
  -2.325183e+05  -9.105565e+05
   5.220733e+05  -3.549505e+05
   1.243872e+06   3.690913e+05
   1.132868e+06   6.829708e+05
   1.714453e+05   5.675045e+05
  -7.519199e+05   3.511599e+05
  -8.360543e+05   1.820565e+05
  -2.628831e+05  -7.390554e+03
   1.363357e+05  -1.830535e+05
  -2.660589e+04  -2.036182e+05
  -2.780977e+05  -1.121010e+05
  -2.032294e+04  -1.118279e+05
   6.083026e+05  -1.759465e+05
   8.603907e+05   1.547888e+04
   2.816779e+05   5.533737e+05
  -7.388760e+05   9.466886e+05
  -1.360312e+06   6.055105e+05
  -1.101330e+06  -3.707324e+05
  -2.186382e+05  -1.172287e+06
   6.061316e+05  -1.131185e+06
   8.611826e+05  -4.182736e+05
   5.516482e+05   2.186204e+05
   9.024401e+04   2.930630e+05
  -1.035448e+05   1.861168e+04
   5.226653e+04  -5.415884e+04
   2.803485e+05   2.874900e+05
   2.353338e+05   6.697839e+05
  -1.524374e+05   5.524050e+05
  -5.738042e+05  -1.315026e+05
  -5.866883e+05  -8.152564e+05
  -4.730099e+04  -8.434316e+05
   6.495136e+05  -1.593080e+05
   8.437956e+05   6.333731e+05
   2.651908e+05   8.944492e+05
  -5.901312e+05   5.294542e+05
  -9.013569e+05  -6.437647e+04
  -4.200419e+05  -4.654191e+05
   2.242157e+05  -5.186434e+05
   2.683481e+05  -3.010915e+05
  -2.494455e+05  -2.708459e+04
  -5.496054e+05   2.995519e+04
  -1.092298e+05  -2.437566e+05
   6.788379e+05  -5.767058e+05
   1.003056e+06  -4.972057e+05
   5.911269e+05   1.002206e+05
  -7.454063e+04   7.029958e+05
  -4.085459e+05   6.995277e+05
  -3.031615e+05   1.091038e+05
  -2.312515e+04  -4.133067e+05
   2.008153e+05  -3.377133e+05
   2.921693e+05   1.592777e+05
   2.091627e+05   4.773155e+05
  -4.757427e+04   3.167703e+05
  -3.211394e+05  -5.114078e+04
  -3.850243e+05  -1.990583e+05
  -2.036444e+05  -5.256152e+04
   1.222281e+04   9.070301e+04
   7.411620e+04  -3.029181e+04
   4.526678e+04  -3.138019e+05
   1.119507e+05  -4.050906e+05
   2.812876e+05  -1.082173e+05
   3.253556e+05   3.534343e+05
   6.365504e+04   5.354284e+05
  -3.542833e+05   2.424330e+05
  -5.237882e+05  -2.502417e+05
  -1.931737e+05  -4.874324e+05
   4.049774e+05  -3.023152e+05
   7.067232e+05   7.107373e+04
   3.881510e+05   3.089241e+05
  -2.374385e+05   3.042191e+05
  -5.136390e+05   1.585864e+05
  -1.756315e+05   1.371970e+04
   3.270110e+05  -2.352364e+04
   3.513711e+05   9.536567e+04
  -1.749491e+05   2.659527e+05
  -6.720222e+05   2.241265e+05
