
 $NMID
 id='ANONYMOUS ', fmtdat='(2E16.6)'
 volume=1.0
 tramp=1.0
 $END
  -5.256313e+07   2.355911e+06
  -3.350881e+07  -3.080864e+07
   4.900401e+06  -3.597084e+07
   2.522555e+07  -1.538917e+07
   1.615131e+07   5.477288e+06
  -2.480279e+06   9.022598e+06
  -9.493012e+06  -4.407049e+05
  -3.334270e+06  -9.132685e+06
   5.386104e+06  -9.408502e+06
   9.115802e+06  -2.505029e+06
   6.871677e+06   5.616637e+06
   1.047947e+06   8.178070e+06
  -3.682232e+06   2.672590e+06
  -2.652915e+06  -5.251583e+06
   3.360498e+06  -6.550727e+06
   7.560515e+06   8.354303e+05
   4.688031e+06   9.462769e+06
  -3.034919e+06   1.132747e+07
  -9.242788e+06   5.960658e+06
  -1.014997e+07  -1.528658e+06
  -6.381995e+06  -6.675402e+06
  -1.003119e+06  -7.872488e+06
   2.244741e+06  -5.709271e+06
   1.346250e+06  -2.848702e+06
  -1.167080e+06  -2.396510e+06
  -1.658880e+05  -4.126956e+06
   5.208130e+06  -4.214438e+06
   9.222662e+06  -5.715328e+05
   6.735540e+06   3.758574e+06
   2.357405e+05   4.679780e+06
  -3.560438e+06   2.332216e+06
  -2.228573e+06  -1.245669e+05
   8.977089e+05  -9.507360e+05
   2.429357e+06  -3.288457e+05
   2.069909e+06   1.570771e+06
   5.412113e+05   3.797740e+06
  -1.625864e+06   3.600997e+06
  -2.844151e+06  -6.065034e+04
  -1.579213e+06  -3.258438e+06
   5.595868e+05  -1.633219e+06
   1.926373e+05   2.458370e+06
  -2.363367e+06   2.331347e+06
  -2.512406e+06  -2.906623e+06
   1.881492e+06  -5.941736e+06
   6.330931e+06  -1.385360e+06
   5.090117e+06   6.175096e+06
  -1.336940e+06   8.067209e+06
  -6.864998e+06   2.578904e+06
  -6.846057e+06  -3.997485e+06
  -2.066121e+06  -5.780886e+06
   3.271290e+06  -2.811709e+06
   5.233545e+06   1.251781e+06
   2.579052e+06   3.294708e+06
  -2.164987e+06   2.256729e+06
  -4.364806e+06  -6.491518e+05
  -2.017751e+06  -2.490455e+06
   1.558598e+06  -1.379415e+06
   1.758857e+06   9.368353e+05
  -1.160148e+06   1.062501e+06
  -2.527133e+06  -1.389916e+06
   1.916668e+05  -3.241770e+06
   4.129702e+06  -2.114999e+06
   5.102055e+06   9.210742e+05
   2.430495e+06   3.624917e+06
  -1.574876e+06   5.054440e+06
  -4.734144e+06   4.712935e+06
  -5.873538e+06   1.770867e+06
  -4.375620e+06  -2.906149e+06
  -1.030335e+06  -5.877995e+06
   1.604630e+06  -4.713608e+06
   1.662622e+06  -1.397740e+06
   3.302067e+05   1.238739e+05
   1.826200e+05  -8.875022e+05
   1.641022e+06  -1.587909e+06
   2.699715e+06  -1.016806e+05
   1.891628e+06   1.968628e+06
  -8.059510e+04   2.120348e+06
  -1.620092e+06   1.449393e+05
  -1.686708e+06  -2.117070e+06
  -2.233649e+03  -2.896366e+06
   2.669050e+06  -1.600109e+06
   4.285121e+06   1.102299e+06
   3.128413e+06   3.498888e+06
   9.332400e+04   3.973043e+06
  -2.024068e+06   2.636609e+06
  -2.046209e+06   1.203622e+06
  -1.756727e+06   7.819437e+05
  -2.900578e+06   5.819393e+05
  -4.317590e+06  -6.362054e+05
  -3.507188e+06  -2.659708e+06
  -2.014019e+05  -4.092404e+06
   3.136047e+06  -3.904467e+06
   4.116046e+06  -2.106219e+06
   2.593105e+06   4.331714e+05
   2.272645e+05   2.196477e+06
  -1.098913e+06   1.877008e+06
  -5.408266e+05  -4.620992e+04
   1.075238e+06  -1.294596e+06
   1.868712e+06  -4.242496e+05
   9.086833e+05   1.155965e+06
  -5.211533e+05   1.105102e+06
  -4.742439e+05  -3.969829e+05
   1.025295e+06  -8.040801e+05
   1.943313e+06   1.113410e+06
   8.668083e+05   3.429791e+06
  -1.406220e+06   3.566233e+06
  -3.137609e+06   1.338270e+06
  -3.436690e+06  -1.340677e+06
  -2.382957e+06  -2.790501e+06
  -4.853749e+05  -2.655568e+06
   1.238297e+06  -1.469178e+06
   1.573209e+06  -2.263634e+05
   4.920409e+05   3.994199e+04
  -3.693963e+05  -7.453582e+05
   3.721054e+05  -1.337708e+06
   1.867298e+06  -6.181047e+05
   2.044438e+06   8.266334e+05
   4.281613e+05   1.398869e+06
  -1.161574e+06   5.977343e+05
  -9.155053e+05  -4.547493e+05
   8.498222e+05  -5.729755e+05
   2.237265e+06   2.718631e+05
   1.808882e+06   1.367777e+06
  -2.228458e+05   2.022661e+06
  -2.309252e+06   1.702784e+06
  -2.778357e+06   3.111028e+05
  -1.237230e+06  -1.235666e+06
   8.769851e+05  -1.499368e+06
   1.530542e+06  -2.204020e+05
   2.115223e+05   1.056603e+06
  -1.498539e+06   7.544265e+05
  -1.736741e+06  -7.514129e+05
  -3.779551e+05  -1.660053e+06
   1.079265e+06  -1.020959e+06
   1.284836e+06   2.784756e+05
   2.780985e+05   7.848062e+05
  -7.877922e+05   7.733500e+04
  -7.477077e+05  -1.036870e+06
   5.596301e+05  -1.423931e+06
   1.996653e+06  -5.600062e+05
   2.042170e+06   1.024702e+06
   4.118518e+05   2.066546e+06
  -1.412783e+06   1.665968e+06
  -1.727051e+06   2.404401e+05
  -5.233450e+05  -8.654959e+05
   6.494278e+05  -8.198461e+05
   6.423311e+05  -7.461507e+04
  -1.207946e+05   3.877679e+05
  -5.195621e+05   2.213537e+05
  -1.490621e+05  -9.378117e+04
   4.551339e+05   3.299042e+04
   5.519969e+05   6.524888e+05
  -1.746601e+05   1.198387e+06
  -1.369715e+06   9.208341e+05
  -2.089350e+06  -3.859090e+05
  -1.488995e+06  -1.923964e+06
   1.914094e+05  -2.427888e+06
   1.612868e+06  -1.443219e+06
   1.714022e+06   1.078155e+05
   8.777751e+05   9.167794e+05
   3.049828e+05   6.847198e+05
   4.473709e+05   2.191306e+05
   6.175304e+05   2.821839e+05
   1.080238e+05   7.481760e+05
  -8.627698e+05   9.201405e+05
  -1.457523e+06   3.485708e+05
  -1.069120e+06  -7.260864e+05
   2.381775e+05  -1.486865e+06
   1.721979e+06  -1.102738e+06
   2.263908e+06   4.600209e+05
   1.170707e+06   2.093117e+06
  -9.674026e+05   2.390446e+06
  -2.530261e+06   1.081441e+06
  -2.380910e+06  -6.235088e+05
  -9.940674e+05  -1.347150e+06
   2.001514e+05  -9.774823e+05
   4.117827e+05  -5.202787e+05
   9.125614e+04  -7.309743e+05
   8.640299e+04  -1.283449e+06
   6.413585e+05  -1.289562e+06
   1.279575e+06  -3.374214e+05
   1.346252e+06   1.062915e+06
   5.769399e+05   1.887757e+06
  -6.070336e+05   1.443303e+06
  -1.290480e+06   1.446368e+04
  -8.380863e+05  -1.271489e+06
   3.622801e+05  -1.410417e+06
   1.157928e+06  -4.442669e+05
   8.368668e+05   6.666435e+05
  -8.625620e+04   1.079291e+06
  -5.124798e+05   8.075934e+05
  -7.993695e+04   4.308388e+05
   4.307625e+05   3.311496e+05
   6.107933e+04   3.821550e+05
  -1.142863e+06   2.318452e+05
  -2.063149e+06  -2.959727e+05
  -1.635925e+06  -1.011793e+06
   2.794204e+03  -1.438506e+06
   1.560854e+06  -1.169003e+06
   1.832329e+06  -3.113770e+05
   8.573147e+05   4.750934e+05
  -2.426429e+05   5.717640e+05
  -5.135883e+05   4.887143e+04
  -4.031203e+04  -4.091098e+05
   4.411799e+05  -2.575518e+05
   4.844474e+05   3.344764e+05
   2.516146e+05   7.121115e+05
   9.387873e+04   4.690878e+05
   1.441804e+05  -1.009194e+05
   2.906879e+05  -2.950231e+05
   2.810758e+05   2.300447e+05
  -1.361159e+05   9.861975e+05
  -8.835233e+05   1.077253e+06
  -1.344842e+06   2.003974e+05
  -8.558659e+05  -8.918625e+05
   3.906000e+05  -1.138937e+06
   1.239394e+06  -3.549792e+05
   7.375100e+05   5.639505e+05
  -6.949962e+05   6.616498e+05
  -1.599264e+06  -7.783325e+04
  -1.027529e+06  -8.641908e+05
   4.758936e+05  -1.010622e+06
   1.510665e+06  -5.017275e+05
   1.248957e+06   1.821766e+05
   1.404904e+05   5.197292e+05
  -6.516594e+05   2.807946e+05
  -3.906316e+05  -2.850322e+05
   5.751505e+05  -5.247490e+05
   1.178036e+06   6.513474e+04
   6.834951e+05   1.164618e+06
  -5.634585e+05   1.702496e+06
  -1.466939e+06   9.029985e+05
  -1.265331e+06  -7.404169e+05
  -2.258139e+05  -1.791059e+06
   7.299523e+05  -1.307096e+06
   9.362061e+05   1.667510e+05
   4.483777e+05   1.195888e+06
  -2.134548e+05   9.823310e+05
  -5.664038e+05   9.372029e+04
  -4.695261e+05  -3.783897e+05
  -1.619840e+05  -1.422193e+05
  -5.030733e+04   9.842931e+04
  -2.917970e+05  -2.832121e+05
  -5.271217e+05  -9.583132e+05
  -2.018128e+05  -1.086544e+06
   7.154835e+05  -4.148454e+05
   1.484009e+06   4.470806e+05
   1.291641e+06   8.291829e+05
   1.964603e+05   6.993120e+05
  -8.450823e+05   4.259708e+05
  -9.852730e+05   1.927395e+05
  -3.697691e+05  -4.430495e+04
   1.401902e+05  -2.260462e+05
   4.194026e+04  -2.118775e+05
  -2.564211e+05  -9.620319e+04
  -5.477470e+04  -1.288200e+05
   6.490347e+05  -2.405650e+05
   1.047432e+06  -9.552730e+03
   4.573786e+05   6.746027e+05
  -8.107036e+05   1.191171e+06
  -1.688701e+06   7.996152e+05
  -1.426694e+06  -3.916511e+05
  -3.028244e+05  -1.399391e+06
   7.431676e+05  -1.397642e+06
   1.036290e+06  -5.647008e+05
   6.550721e+05   2.170427e+05
   1.447700e+05   3.531168e+05
  -5.639231e+04   6.575183e+04
   8.987292e+04  -1.490411e+04
   3.061920e+05   3.699757e+05
   2.588921e+05   8.091428e+05
  -1.628112e+05   6.845744e+05
  -6.772705e+05  -1.024432e+05
  -7.602967e+05  -9.264459e+05
  -1.499714e+05  -1.023055e+06
   7.345580e+05  -2.696321e+05
   1.048131e+06   6.873700e+05
   3.799413e+05   1.079507e+06
  -6.922079e+05   7.010571e+05
  -1.125626e+06  -4.378351e+04
  -5.577009e+05  -6.055915e+05
   2.665641e+05  -6.966337e+05
   3.801531e+05  -3.859018e+05
  -2.344970e+05  -7.255657e+03
  -6.459305e+05   5.288663e+04
  -1.586476e+05  -3.050548e+05
   8.141252e+05  -6.958877e+05
   1.265795e+06  -5.655499e+05
   7.845462e+05   1.630740e+05
  -7.412581e+04   8.769175e+05
  -5.419546e+05   8.808039e+05
  -4.289715e+05   1.871749e+05
  -6.732758e+04  -4.701111e+05
   2.237766e+05  -4.464445e+05
   3.486182e+05   1.294469e+05
   2.688696e+05   5.713042e+05
  -3.412569e+04   4.373245e+05
  -3.902296e+05  -3.082044e+04
  -4.913800e+05  -2.758055e+05
  -2.494796e+05  -9.801143e+04
   4.869743e+04   1.548297e+05
   9.513942e+04   5.938545e+04
  -3.113178e+04  -3.371695e+05
   7.656229e+03  -5.511719e+05
   2.947980e+05  -2.427123e+05
   4.749383e+05   3.464866e+05
   1.916441e+05   6.311982e+05
  -3.922001e+05   3.270720e+05
  -6.755576e+05  -2.517011e+05
  -2.713058e+05  -5.601406e+05
   5.023420e+05  -3.821016e+05
   8.901288e+05   4.502053e+04
   4.924460e+05   3.645437e+05
  -2.795055e+05   4.172481e+05
  -6.317085e+05   2.570818e+05
  -2.591078e+05   3.185548e+04
   3.258286e+05  -7.936266e+04
   3.966896e+05   4.280461e+04
  -1.545875e+05   2.811510e+05
  -7.189588e+05   2.804198e+05
