
 $NMID
 id='ANONYMOUS ', fmtdat='(2E16.6)'
 volume=1.0
 tramp=1.0
 $END
  -2.129968e+07  -2.898481e+06
  -1.198425e+07  -1.214010e+07
   2.488160e+06  -1.304461e+07
   9.898244e+06  -6.927172e+06
   6.884481e+06   3.820117e+05
  -2.495128e+05   3.506424e+06
  -4.018523e+06   1.124709e+06
  -2.435052e+06  -3.452263e+06
   1.503596e+06  -5.148293e+06
   3.925730e+06  -1.900305e+06
   3.072161e+06   3.021305e+06
   6.491997e+04   4.362742e+06
  -2.164047e+06   7.835901e+05
  -1.432675e+06  -3.593580e+06
   1.459748e+06  -3.927806e+06
   3.370371e+06   6.664920e+04
   2.043056e+06   4.307630e+06
  -1.560268e+06   4.979143e+06
  -4.325969e+06   1.994356e+06
  -4.078660e+06  -1.728837e+06
  -1.491882e+06  -3.382227e+06
   7.590340e+05  -2.567829e+06
   6.420511e+05  -1.176643e+06
  -1.154483e+06  -1.231304e+06
  -1.814265e+06  -2.674912e+06
   5.099483e+05  -3.441492e+06
   4.226963e+06  -1.926998e+06
   5.631323e+06   9.998422e+05
   3.001481e+06   2.914885e+06
  -1.258089e+06   2.435139e+06
  -3.142228e+06   3.531108e+05
  -1.312400e+06  -1.474702e+06
   1.813978e+06  -1.656881e+06
   3.016710e+06  -5.131689e+03
   1.539645e+06   2.254097e+06
  -7.185685e+05   3.046952e+06
  -1.590983e+06   1.349385e+06
  -7.191401e+05  -1.203013e+06
   5.076280e+05  -1.707971e+06
   6.084229e+05   4.363155e+05
  -5.105312e+05   2.441269e+06
  -1.563964e+06   1.570942e+06
  -1.256699e+06  -1.197434e+06
   3.449070e+05  -2.347982e+06
   1.767987e+06  -3.442869e+05
   1.465476e+06   2.507893e+06
  -6.879118e+05   3.007818e+06
  -3.073155e+06   6.831156e+05
  -3.565510e+06  -2.152060e+06
  -1.447501e+06  -3.126879e+06
   1.689110e+06  -1.844154e+06
   3.193283e+06   3.097943e+05
   1.877510e+06   1.576442e+06
  -7.456908e+05   1.167370e+06
  -2.044990e+06  -2.032158e+05
  -1.050304e+06  -1.042223e+06
   7.049059e+05  -5.907344e+05
   1.151420e+06   4.452347e+05
   2.774393e+04   8.323808e+05
  -1.058016e+06   2.276430e+05
  -6.364906e+05  -6.195472e+05
   9.702705e+05  -8.038095e+05
   2.018739e+06  -1.304839e+04
   1.140115e+06   1.391670e+06
  -1.271117e+06   2.502925e+06
  -3.357243e+06   2.235436e+06
  -3.506390e+06   2.744227e+05
  -1.843915e+06  -2.205608e+06
   2.133844e+04  -3.385344e+06
   7.394012e+05  -2.684238e+06
   5.011682e+05  -1.349136e+06
   4.673655e+05  -8.208819e+05
   1.211329e+06  -9.724376e+05
   2.097171e+06  -5.444741e+05
   2.117190e+06   9.026484e+05
   9.795694e+05   2.188260e+06
  -6.549265e+05   1.869062e+06
  -1.691506e+06  -1.709557e+04
  -1.330850e+06  -1.878163e+06
   2.934089e+05  -2.120436e+06
   1.988361e+06  -6.096516e+05
   2.360378e+06   1.334622e+06
   1.155077e+06   2.249863e+06
  -4.263154e+05   1.817354e+06
  -1.059560e+06   9.167264e+05
  -7.973847e+05   5.126758e+05
  -8.390082e+05   6.371328e+05
  -1.820186e+06   5.285664e+05
  -2.806609e+06  -3.825123e+05
  -2.299041e+06  -1.803260e+06
  -6.147085e+04  -2.812508e+06
   2.375667e+06  -2.605018e+06
   3.124988e+06  -1.128486e+06
   1.769326e+06   7.405732e+05
  -2.656172e+05   1.710040e+06
  -1.140235e+06   1.150896e+06
  -3.615373e+05  -1.847481e+05
   9.089109e+05  -8.238109e+05
   1.235910e+06  -1.707524e+05
   4.115309e+05   8.064021e+05
  -5.184499e+05   7.861976e+05
  -5.313406e+05  -2.145731e+05
   3.370924e+05  -8.111212e+05
   1.171901e+06   4.798777e+04
   1.084804e+06   1.746979e+06
  -1.005425e+05   2.609183e+06
  -1.727046e+06   1.660286e+06
  -2.674897e+06  -4.201478e+05
  -2.152326e+06  -2.023653e+06
  -4.797357e+05  -2.115675e+06
   1.010173e+06  -1.048372e+06
   1.199359e+06  -4.393130e+04
   3.455849e+05   4.475372e+04
  -2.470879e+05  -5.240300e+05
   2.288811e+05  -8.231590e+05
   1.158632e+06  -3.405350e+05
   1.303002e+06   4.953183e+05
   3.228401e+05   8.587693e+05
  -7.793437e+05   4.348460e+05
  -7.625374e+05  -2.995659e+05
   4.718300e+05  -5.840006e+05
   1.699061e+06  -5.967310e+04
   1.572868e+06   9.375095e+05
   6.201572e+03   1.612154e+06
  -1.670268e+06   1.325877e+06
  -1.990887e+06   2.084414e+05
  -8.047062e+05  -8.265132e+05
   6.209970e+05  -8.904828e+05
   9.362045e+05  -5.271739e+04
   2.394987e+04   6.816885e+05
  -1.046127e+06   4.545676e+05
  -1.201089e+06  -4.964629e+05
  -3.582003e+05  -1.135194e+06
   6.445609e+05  -8.117684e+05
   9.099320e+05   4.843741e+04
   2.954487e+05   4.812929e+05
  -4.669388e+05   5.146264e+04
  -4.594101e+05  -7.266373e+05
   4.692065e+05  -9.643243e+05
   1.436736e+06  -2.911273e+05
   1.381880e+06   8.046718e+05
   2.270588e+05   1.437677e+06
  -9.826010e+05   1.119533e+06
  -1.186850e+06   1.738633e+05
  -3.985202e+05  -5.829727e+05
   4.398088e+05  -5.944715e+05
   5.391910e+05  -4.277687e+04
   2.971263e+03   4.049362e+05
  -4.599403e+05   3.175647e+05
  -3.477440e+05  -6.525035e+04
   1.584127e+05  -1.491890e+05
   4.130755e+05   2.909490e+05
  -3.658768e+04   7.863770e+05
  -9.332840e+05   6.393765e+05
  -1.453902e+06  -2.993063e+05
  -9.887734e+05  -1.383065e+06
   1.952738e+05  -1.740839e+06
   1.177649e+06  -1.091408e+06
   1.305043e+06   1.576990e+04
   7.807743e+05   7.444244e+05
   2.929969e+05   7.340559e+05
   2.056367e+05   3.436958e+05
   2.607995e+05   1.822308e+05
   1.704809e+04   4.288711e+05
  -5.734144e+05   6.472857e+05
  -1.051783e+06   3.035798e+05
  -8.598590e+05  -5.449428e+05
   1.024661e+05  -1.164142e+06
   1.240834e+06  -8.386609e+05
   1.641148e+06   3.423184e+05
   8.535377e+05   1.469908e+06
  -6.212936e+05   1.639062e+06
  -1.710088e+06   7.770121e+05
  -1.710719e+06  -3.558669e+05
  -8.563417e+05  -9.411110e+05
   3.770328e+04  -8.291792e+05
   3.914428e+05  -5.239271e+05
   2.911479e+05  -5.321896e+05
   2.176235e+05  -7.977281e+05
   4.697687e+05  -7.953391e+05
   8.559975e+05  -1.627663e+05
   8.974928e+05   8.083139e+05
   3.428749e+05   1.366046e+06
  -4.886642e+05   1.011478e+06
  -9.256424e+05   5.364014e+03
  -5.879719e+05  -8.564609e+05
   1.960454e+05  -9.639861e+05
   6.978612e+05  -3.839656e+05
   5.317191e+05   3.149572e+05
   1.959635e+04   6.403209e+05
  -2.217093e+05   5.551690e+05
   7.000873e+03   3.574207e+05
   2.714906e+05   2.862468e+05
   1.548258e+04   2.895031e+05
  -7.562831e+05   1.454441e+05
  -1.370163e+06  -2.437395e+05
  -1.122574e+06  -7.054833e+05
  -4.628824e+04  -9.293892e+05
   1.027293e+06  -7.351675e+05
   1.254428e+06  -2.370302e+05
   6.108412e+05   2.223827e+05
  -1.449858e+05   3.284402e+05
  -3.208982e+05   6.895022e+04
   3.688025e+04  -2.177587e+05
   3.671356e+05  -1.515996e+05
   3.175741e+05   2.574378e+05
   6.293653e+04   5.565706e+05
  -3.878539e+04   3.573746e+05
   1.049744e+05  -1.366525e+05
   2.759757e+05  -2.981526e+05
   2.098520e+05   1.551746e+05
  -1.673590e+05   7.364996e+05
  -6.553077e+05   7.202076e+05
  -8.551209e+05   1.997716e+04
  -4.664453e+05  -6.806525e+05
   3.261507e+05  -7.049485e+05
   8.393976e+05  -1.084789e+05
   4.962407e+05   4.579904e+05
  -4.848014e+05   4.660859e+05
  -1.171140e+06  -3.848753e+04
  -8.353908e+05  -5.967946e+05
   2.566283e+05  -7.735629e+05
   1.095576e+06  -4.604591e+05
   9.648066e+05   7.620894e+04
   1.414637e+05   3.905495e+05
  -4.538068e+05   2.287233e+05
  -2.338846e+05  -1.882721e+05
   4.809349e+05  -3.158591e+05
   8.412092e+05   1.601271e+05
   3.652051e+05   9.072320e+05
  -5.735628e+05   1.176304e+06
  -1.143089e+06   5.354610e+05
  -8.825889e+05  -6.139852e+05
  -9.077525e+04  -1.320570e+06
   5.622494e+05  -9.705855e+05
   6.782634e+05   8.404849e+04
   3.506111e+05   8.571755e+05
  -9.259022e+04   7.374607e+05
  -3.803424e+05   8.279013e+04
  -3.911865e+05  -2.928663e+05
  -1.847961e+05  -1.198084e+05
  -1.009961e+04   8.701673e+04
  -9.566389e+04  -1.806960e+05
  -3.090632e+05  -6.936498e+05
  -1.962957e+05  -7.944297e+05
   4.319526e+05  -2.777798e+05
   1.071062e+06   3.721702e+05
   9.842376e+05   6.293213e+05
   1.259869e+05   4.925916e+05
  -6.945035e+05   2.804571e+05
  -7.396711e+05   1.361715e+05
  -2.007049e+05  -1.148225e+04
   1.376472e+05  -1.546667e+05
  -4.964155e+04  -1.802987e+05
  -2.754848e+05  -1.129765e+05
  -1.699680e+03  -1.049936e+05
   5.752914e+05  -1.278430e+05
   7.474027e+05   6.400960e+04
   1.709663e+05   5.084191e+05
  -7.244829e+05   7.823756e+05
  -1.199512e+06   4.303981e+05
  -9.084980e+05  -4.085842e+05
  -1.246079e+05  -1.040038e+06
   5.760554e+05  -9.405557e+05
   7.765282e+05  -3.014955e+05
   4.813169e+05   2.313254e+05
   5.122156e+04   2.641689e+05
  -1.255969e+05   4.522531e+03
   2.881477e+04  -6.142641e+04
   2.407309e+05   2.473830e+05
   1.856315e+05   5.880101e+05
  -1.680741e+05   4.694755e+05
  -5.079962e+05  -1.600297e+05
  -4.614370e+05  -7.659234e+05
   3.520073e+04  -7.472075e+05
   6.037014e+05  -8.546310e+04
   7.046580e+05   6.238120e+05
   1.661810e+05   7.977683e+05
  -5.536130e+05   4.112914e+05
  -7.695818e+05  -1.152212e+05
  -3.168299e+05  -4.121760e+05
   2.297589e+05  -4.121319e+05
   2.264235e+05  -2.321355e+05
  -2.466754e+05  -3.500407e+04
  -4.882176e+05  -2.333479e+03
  -7.131606e+04  -2.160484e+05
   6.171447e+05  -4.718986e+05
   8.650339e+05  -3.934795e+05
   4.731252e+05   1.067209e+05
  -1.067265e+05   5.980621e+05
  -3.710931e+05   5.669096e+05
  -2.504861e+05   4.871385e+04
   1.003900e+04  -3.778581e+05
   2.028685e+05  -2.711848e+05
   2.579779e+05   1.765333e+05
   1.545945e+05   4.282289e+05
  -7.336529e+04   2.538687e+05
  -2.804104e+05  -7.175943e+04
  -3.091810e+05  -1.793312e+05
  -1.676370e+05  -4.094740e+04
  -1.431457e+04   6.582762e+04
   4.856779e+04  -6.180999e+04
   8.215882e+04  -3.010120e+05
   1.774055e+05  -3.408574e+05
   2.848858e+05  -4.209840e+04
   2.453407e+05   3.671395e+05
  -1.345739e+04   4.917180e+05
  -3.382582e+05   1.861384e+05
  -4.336689e+05  -2.678018e+05
  -1.349500e+05  -4.492566e+05
   3.619828e+05  -2.355433e+05
   6.016057e+05   1.153292e+05
   3.149452e+05   2.925362e+05
  -2.303325e+05   2.342385e+05
  -4.585023e+05   8.610766e+04
  -1.360047e+05  -9.593090e+03
   3.215943e+05   4.332077e+03
   3.236074e+05   1.240817e+05
  -1.809628e+05   2.486346e+05
  -6.332900e+05   1.752106e+05
