
 $NMID
 id='ANONYMOUS ', fmtdat='(2E16.6)'
 volume=1.0
 tramp=1.0
 $END
   2.384578e+07  -3.887524e+05
   1.656389e+07   1.078852e+07
   5.811334e+05   1.529394e+07
  -1.034889e+07   1.066153e+07
  -9.145142e+06   1.362749e+06
  -7.663926e+05  -4.485466e+06
   5.102375e+06  -2.438864e+06
   3.992806e+06   3.952361e+06
  -1.085755e+06   6.999006e+06
  -4.653031e+06   3.204501e+06
  -4.000721e+06  -3.158916e+06
  -4.865467e+05  -5.176518e+06
   2.360431e+06  -1.027196e+06
   1.858429e+06   4.392047e+06
  -1.472687e+06   5.176916e+06
  -4.178797e+06   5.834497e+05
  -3.168194e+06  -4.799643e+06
   9.986524e+05  -6.155701e+06
   4.598218e+06  -2.949290e+06
   4.665400e+06   1.366473e+06
   1.941704e+06   3.289837e+06
  -2.904904e+05   2.496672e+06
   1.152985e+05   1.400845e+06
   1.990408e+06   2.037490e+06
   2.218178e+06   3.792073e+06
  -8.244633e+05   4.293041e+06
  -5.137536e+06   2.232080e+06
  -6.681950e+06  -1.117779e+06
  -3.568433e+06  -3.196386e+06
   1.494896e+06  -2.599449e+06
   3.702300e+06  -1.574335e+05
   1.271950e+06   1.960213e+06
  -2.706779e+06   1.945362e+06
  -3.957041e+06  -3.254379e+05
  -1.715484e+06  -3.020373e+06
   1.089429e+06  -3.654856e+06
   1.731687e+06  -1.485930e+06
   4.575822e+05   1.307236e+06
  -6.623886e+05   1.656127e+06
  -3.752001e+05  -8.157357e+05
   8.875663e+05  -3.036891e+06
   1.935849e+06  -2.051351e+06
   1.791990e+06   1.241515e+06
   2.384722e+05   3.013678e+06
  -1.711756e+06   1.120102e+06
  -2.125302e+06  -2.340875e+06
   6.589674e+04  -3.552172e+06
   3.359836e+06  -1.250624e+06
   4.590912e+06   2.250121e+06
   2.157546e+06   3.831187e+06
  -1.992391e+06   2.530810e+06
  -4.161713e+06  -1.205323e+05
  -2.644934e+06  -1.882353e+06
   6.882257e+05  -1.654224e+06
   2.531144e+06  -1.042486e+05
   1.510803e+06   1.096190e+06
  -7.178807e+05   8.171193e+05
  -1.521501e+06  -4.849148e+05
  -1.503688e+05  -1.295217e+06
   1.570579e+06  -6.744382e+05
   1.381727e+06   7.539778e+05
  -7.734791e+05   1.475719e+06
  -2.546620e+06   5.751986e+05
  -1.723163e+06  -1.443252e+06
   1.310920e+06  -3.038431e+06
   3.954399e+06  -2.769931e+06
   4.122242e+06  -4.591956e+05
   2.187733e+06   2.462110e+06
   1.488063e+05   4.013192e+06
  -6.591959e+05   3.464009e+06
  -6.231238e+05   1.974025e+06
  -8.693191e+05   1.123077e+06
  -1.777065e+06   1.010837e+06
  -2.634956e+06   3.880076e+05
  -2.471859e+06  -1.306715e+06
  -1.017758e+06  -2.776738e+06
   9.790068e+05  -2.273012e+06
   2.188133e+06   1.573833e+05
   1.639512e+06   2.453247e+06
  -3.929777e+05   2.632707e+06
  -2.391244e+06   7.154236e+05
  -2.793606e+06  -1.549686e+06
  -1.438281e+06  -2.531951e+06
   3.039395e+05  -2.064101e+06
   1.030796e+06  -1.169344e+06
   8.357655e+05  -8.041470e+05
   1.033210e+06  -9.483334e+05
   2.316649e+06  -7.797028e+05
   3.574641e+06   3.696488e+05
   2.961338e+06   2.204850e+06
   1.349859e+05   3.552983e+06
  -2.968218e+06   3.297053e+06
  -3.896643e+06   1.386320e+06
  -2.139029e+06  -9.506196e+05
   4.084897e+05  -2.085980e+06
   1.427828e+06  -1.365422e+06
   4.144464e+05   2.382455e+05
  -1.136263e+06   1.008237e+06
  -1.518452e+06   2.460861e+05
  -5.099132e+05  -9.504091e+05
   6.598726e+05  -9.665213e+05
   7.162120e+05   3.063120e+05
  -4.306367e+05   1.169479e+06
  -1.663671e+06   1.047577e+05
  -1.656502e+06  -2.249577e+06
  -1.077028e+04  -3.581988e+06
   2.304460e+06  -2.373286e+06
   3.598208e+06   4.871375e+05
   2.830219e+06   2.677579e+06
   6.008521e+05   2.759195e+06
  -1.291926e+06   1.321047e+06
  -1.508848e+06   4.054840e+04
  -4.376562e+05  -5.092445e+04
   3.202969e+05   6.580414e+05
  -2.408417e+05   1.041982e+06
  -1.419841e+06   4.821298e+05
  -1.668903e+06  -5.557391e+05
  -4.624904e+05  -1.069243e+06
   9.784140e+05  -5.731535e+05
   9.893887e+05   3.979691e+05
  -6.293949e+05   8.048116e+05
  -2.249482e+06   9.846659e+04
  -2.064597e+06  -1.248138e+06
  -4.153683e+03  -2.122580e+06
   2.145778e+06  -1.722657e+06
   2.534244e+06  -2.918581e+05
   1.044046e+06   1.011343e+06
  -7.275310e+05   1.121148e+06
  -1.141832e+06   1.111379e+05
  -4.254360e+04  -8.214480e+05
   1.300074e+06  -5.875751e+05
   1.542339e+06   5.994805e+05
   4.983239e+05   1.456584e+06
  -8.125454e+05   1.086560e+06
  -1.195415e+06  -2.585251e+04
  -4.144550e+05  -6.192264e+05
   5.794525e+05  -8.955077e+04
   5.837800e+05   9.031170e+05
  -5.870083e+05   1.209871e+06
  -1.804651e+06   3.698348e+05
  -1.744671e+06  -9.994182e+05
  -3.106265e+05  -1.808424e+06
   1.214698e+06  -1.440338e+06
   1.504570e+06  -2.545477e+05
   5.293981e+05   7.346308e+05
  -5.486762e+05   7.681429e+05
  -6.894111e+05   3.981482e+04
   1.796604e+04  -5.521837e+05
   6.373936e+05  -4.025947e+05
   4.724207e+05   1.456280e+05
  -2.300714e+05   2.574543e+05
  -5.823363e+05  -3.531479e+05
   8.875878e+03  -1.022757e+06
   1.176174e+06  -8.386438e+05
   1.850761e+06   3.577950e+05
   1.269223e+06   1.735942e+06
  -2.339860e+05   2.211493e+06
  -1.506237e+06   1.411358e+06
  -1.693122e+06  -1.383450e+04
  -1.006145e+06  -9.894699e+05
  -3.331701e+05  -9.831197e+05
  -2.065860e+05  -4.309027e+05
  -3.196027e+05  -1.827587e+05
  -4.765379e+04  -5.232149e+05
   7.190389e+05  -8.479508e+05
   1.360694e+06  -4.053398e+05
   1.114225e+06   7.171933e+05
  -1.353349e+05   1.522427e+06
  -1.592537e+06   1.091300e+06
  -2.101599e+06  -4.253939e+05
  -1.116496e+06  -1.867832e+06
   7.469338e+05  -2.109432e+06
   2.162033e+06  -1.039531e+06
   2.212308e+06   4.223342e+05
   1.129177e+06   1.223742e+06
  -5.759956e+04   1.101733e+06
  -5.438460e+05   6.681391e+05
  -3.946008e+05   6.270433e+05
  -2.548846e+05   9.671930e+05
  -5.576207e+05   1.003619e+06
  -1.063430e+06   2.246468e+05
  -1.136147e+06  -1.009490e+06
  -4.428165e+05  -1.723475e+06
   6.117284e+05  -1.280679e+06
   1.179711e+06  -1.699999e+04
   7.729225e+05   1.076721e+06
  -2.190582e+05   1.243635e+06
  -8.870301e+05   5.395188e+05
  -7.156903e+05  -3.598305e+05
  -7.560974e+04  -8.223266e+05
   2.536397e+05  -7.447510e+05
  -9.427768e+03  -4.776051e+05
  -3.353565e+05  -3.595017e+05
  -1.665399e+04  -3.660397e+05
   9.534080e+05  -2.088567e+05
   1.734518e+06   2.722231e+05
   1.441467e+06   8.733783e+05
   9.996694e+04   1.185948e+06
  -1.267281e+06   9.614440e+05
  -1.594746e+06   3.346290e+05
  -8.108557e+05  -2.613914e+05
   1.578183e+05  -4.194031e+05
   4.125334e+05  -1.077876e+05
  -3.226572e+04   2.552894e+05
  -4.647410e+05   1.841851e+05
  -4.025608e+05  -3.189535e+05
  -6.396441e+04  -6.874207e+05
   6.184499e+04  -4.334385e+05
  -1.492244e+05   1.836736e+05
  -3.795126e+05   3.769365e+05
  -2.741779e+05  -1.996128e+05
   2.214306e+05  -9.318727e+05
   8.207907e+05  -9.166341e+05
   1.051150e+06  -4.662106e+04
   5.773482e+05   8.338778e+05
  -3.867598e+05   8.809732e+05
  -1.030610e+06   1.446429e+05
  -6.236505e+05  -5.770379e+05
   6.097504e+05  -6.046641e+05
   1.504455e+06   3.758894e+04
   1.092563e+06   7.737331e+05
  -3.203111e+05   1.018853e+06
  -1.420430e+06   6.109509e+05
  -1.254975e+06  -9.628612e+04
  -1.858204e+05  -5.090996e+05
   5.815639e+05  -3.036326e+05
   2.987756e+05   2.246398e+05
  -6.040613e+05   3.851918e+05
  -1.048295e+06  -2.067723e+05
  -4.458932e+05  -1.132276e+06
   7.260435e+05  -1.463837e+06
   1.436482e+06  -6.643449e+05
   1.112890e+06   7.760735e+05
   1.165235e+05   1.673001e+06
  -7.184511e+05   1.241774e+06
  -8.771427e+05  -9.675838e+04
  -4.615965e+05  -1.097999e+06
   1.111322e+05  -9.611597e+05
   4.860567e+05  -1.175648e+05
   5.038087e+05   3.853027e+05
   2.402803e+05   1.692829e+05
   1.245721e+04  -1.192876e+05
   1.168373e+05   1.999278e+05
   3.939466e+05   8.660024e+05
   2.627991e+05   1.025806e+06
  -5.342625e+05   3.773508e+05
  -1.361179e+06  -4.690936e+05
  -1.263514e+06  -8.093380e+05
  -1.676790e+05  -6.236052e+05
   8.876927e+05  -3.433678e+05
   9.465885e+05  -1.750381e+05
   2.544878e+05  -5.510631e+03
  -1.757239e+05   1.895311e+05
   6.823603e+04   2.522908e+05
   3.528131e+05   1.684853e+05
  -4.461538e+03   1.269375e+05
  -7.352924e+05   1.388724e+05
  -9.380104e+05  -7.993407e+04
  -2.011773e+05  -6.124997e+05
   9.142490e+05  -9.660276e+05
   1.491294e+06  -5.516952e+05
   1.122613e+06   4.972803e+05
   1.532388e+05   1.309219e+06
  -7.147296e+05   1.191745e+06
  -9.677932e+05   3.749078e+05
  -6.007590e+05  -3.014327e+05
  -5.960672e+04  -3.256931e+05
   1.598935e+05   1.801893e+04
  -4.438994e+04   9.299420e+04
  -3.170179e+05  -3.163868e+05
  -2.419227e+05  -7.495485e+05
   2.096508e+05  -5.864216e+05
   6.321055e+05   2.135272e+05
   5.648035e+05   9.635905e+05
  -5.466303e+04   9.218261e+05
  -7.524971e+05   8.636139e+04
  -8.714093e+05  -7.911056e+05
  -2.049505e+05  -9.942790e+05
   6.866907e+05  -5.086358e+05
   9.605134e+05   1.381467e+05
   4.056607e+05   5.006988e+05
  -2.723454e+05   5.103379e+05
  -2.708194e+05   3.048351e+05
   3.174087e+05   6.324075e+04
   6.172059e+05   7.379230e+03
   8.988493e+04   2.648444e+05
  -7.795970e+05   5.995446e+05
  -1.092383e+06   5.222665e+05
  -5.982853e+05  -1.077814e+05
   1.272621e+05  -7.490033e+05
   4.495306e+05  -7.259433e+05
   2.928333e+05  -6.964009e+04
  -2.413810e+04   4.735061e+05
  -2.488763e+05   3.336096e+05
  -3.128312e+05  -2.334058e+05
  -1.942190e+05  -5.381087e+05
   8.168852e+04  -3.069981e+05
   3.472121e+05   9.373899e+04
   3.967627e+05   2.127660e+05
   2.205102e+05   4.420319e+04
   1.223949e+04  -6.750908e+04
  -8.400464e+04   9.578818e+04
  -1.268598e+05   3.670658e+05
  -2.282430e+05   3.905710e+05
  -3.399160e+05   2.535933e+04
  -2.792262e+05  -4.561802e+05
   3.694242e+04  -5.966612e+05
   4.246073e+05  -2.231332e+05
   5.310232e+05   3.343127e+05
   1.600038e+05   5.634225e+05
  -4.506559e+05   3.007539e+05
  -7.461061e+05  -1.403337e+05
  -3.942656e+05  -3.640668e+05
   2.789876e+05  -2.876863e+05
   5.615523e+05  -1.036609e+05
   1.606382e+05   1.950457e+03
  -4.056123e+05  -2.940087e+04
  -3.967081e+05  -1.739102e+05
   2.469161e+05  -3.080737e+05
   8.133766e+05  -2.007409e+05
