
 $NMID
 id='ANONYMOUS ', fmtdat='(2E16.6)'
 volume=1.0
 tramp=1.0
 $END
  -5.933449e+07  -1.822806e+06
  -3.392676e+07  -3.825183e+07
   9.690430e+06  -3.975279e+07
   2.935770e+07  -1.377017e+07
   1.643981e+07   8.385383e+06
  -4.068626e+06   9.458514e+06
  -9.921471e+06  -1.971881e+06
  -2.171912e+06  -1.016928e+07
   6.801523e+06  -9.045644e+06
   9.941257e+06  -1.488074e+06
   7.062131e+06   6.579969e+06
   7.039033e+05   8.839660e+06
  -4.198571e+06   2.846386e+06
  -2.668716e+06  -5.428543e+06
   3.984746e+06  -6.401202e+06
   8.026220e+06   1.758981e+06
   4.208356e+06   1.070849e+07
  -4.342699e+06   1.208490e+07
  -1.074209e+07   5.873134e+06
  -1.135871e+07  -2.406888e+06
  -6.897415e+06  -8.148768e+06
  -4.587854e+05  -9.370021e+06
   3.563726e+06  -6.358984e+06
   2.391549e+06  -2.407047e+06
  -1.077823e+06  -1.710310e+06
  -5.048677e+05  -4.098524e+06
   5.355216e+06  -4.659129e+06
   9.913949e+06  -6.602263e+05
   7.335876e+06   4.291403e+06
   3.989182e+05   5.412018e+06
  -3.750774e+06   2.926582e+06
  -2.745302e+06   2.629480e+05
   1.568812e+05  -9.464694e+05
   2.005580e+06  -7.908268e+05
   2.361429e+06   1.136013e+06
   9.997525e+05   3.978925e+06
  -1.878211e+06   4.115212e+06
  -3.652868e+06  -9.061701e+04
  -1.916919e+06  -3.985602e+06
   1.009514e+06  -2.259229e+06
   6.181664e+05   2.386037e+06
  -2.434208e+06   2.268643e+06
  -2.357940e+06  -3.393679e+06
   2.903566e+06  -6.218916e+06
   7.483111e+06  -6.465640e+05
   5.138533e+06   7.551280e+06
  -2.394668e+06   8.875178e+06
  -7.850491e+06   2.304787e+06
  -6.973288e+06  -4.709193e+06
  -1.661091e+06  -6.107134e+06
   3.553863e+06  -2.587540e+06
   5.163236e+06   1.688370e+06
   2.239430e+06   3.555008e+06
  -2.605709e+06   2.103414e+06
  -4.610110e+06  -1.136908e+06
  -1.863066e+06  -2.879009e+06
   1.835383e+06  -1.354592e+06
   1.689536e+06   1.063564e+06
  -1.452472e+06   7.327153e+05
  -2.360749e+06  -2.092019e+06
   1.058210e+06  -3.574134e+06
   5.055164e+06  -1.664383e+06
   5.404488e+06   1.735835e+06
   2.190732e+06   4.235173e+06
  -1.911325e+06   5.421806e+06
  -5.094347e+06   5.003167e+06
  -6.385431e+06   1.822790e+06
  -4.795241e+06  -3.280923e+06
  -9.639079e+05  -6.351919e+06
   2.007068e+06  -4.749514e+06
   1.793317e+06  -1.007925e+06
  -5.708570e+04   3.855456e+05
  -3.164955e+05  -1.099549e+06
   1.490369e+06  -2.064013e+06
   2.912179e+06  -4.865563e+05
   2.230504e+06   1.800134e+06
   2.249862e+05   2.154087e+06
  -1.445750e+06   3.369926e+05
  -1.710110e+06  -1.937750e+06
  -9.049053e+04  -2.934742e+06
   2.795096e+06  -1.768183e+06
   4.647660e+06   1.162580e+06
   3.361268e+06   3.925748e+06
  -1.002848e+05   4.452411e+06
  -2.477494e+06   2.808372e+06
  -2.385679e+06   1.078945e+06
  -1.869042e+06   5.903587e+05
  -2.926119e+06   4.202265e+05
  -4.333581e+06  -7.914256e+05
  -3.475913e+06  -2.766273e+06
  -1.463697e+05  -4.109369e+06
   3.149684e+06  -3.929696e+06
   4.139815e+06  -2.227928e+06
   2.722689e+06   3.281822e+05
   3.995129e+05   2.256925e+06
  -1.038687e+06   2.021229e+06
  -5.907431e+05  -7.156949e+03
   1.059428e+06  -1.347629e+06
   1.929734e+06  -4.111463e+05
   9.626792e+05   1.236644e+06
  -4.782286e+05   1.131309e+06
  -3.721260e+05  -3.641414e+05
   1.092752e+06  -5.702329e+05
   1.748301e+06   1.464876e+06
   4.209500e+05   3.504563e+06
  -1.741717e+06   3.191775e+06
  -3.075592e+06   8.620791e+05
  -3.122737e+06  -1.488882e+06
  -2.163404e+06  -2.626104e+06
  -4.696288e+05  -2.503912e+06
   1.192799e+06  -1.476068e+06
   1.564551e+06  -2.717255e+05
   4.918080e+05   4.127479e+04
  -3.595042e+05  -7.496240e+05
   4.399392e+05  -1.354085e+06
   1.948737e+06  -5.687263e+05
   2.036171e+06   9.276567e+05
   3.531237e+05   1.434373e+06
  -1.172955e+06   5.576203e+05
  -8.528077e+05  -4.365016e+05
   8.395069e+05  -4.515593e+05
   2.089038e+06   3.533425e+05
   1.655785e+06   1.296065e+06
  -2.503116e+05   1.880892e+06
  -2.257156e+06   1.620879e+06
  -2.748187e+06   2.810633e+05
  -1.216684e+06  -1.280814e+06
   9.443576e+05  -1.533774e+06
   1.604768e+06  -1.862256e+05
   2.185372e+05   1.114200e+06
  -1.525432e+06   7.501759e+05
  -1.707553e+06  -7.907014e+05
  -3.039163e+05  -1.634427e+06
   1.099186e+06  -9.240910e+05
   1.220798e+06   3.495916e+05
   2.034669e+05   7.785327e+05
  -8.176028e+05   3.912549e+04
  -7.515798e+05  -1.062211e+06
   5.594359e+05  -1.442977e+06
   2.009148e+06  -5.746683e+05
   2.056329e+06   1.032855e+06
   3.948093e+05   2.080660e+06
  -1.446760e+06   1.645026e+06
  -1.723774e+06   2.000157e+05
  -4.845565e+05  -8.669336e+05
   6.587172e+05  -7.908137e+05
   6.100762e+05  -9.395345e+04
  -1.158711e+05   3.084811e+05
  -4.334924e+05   1.839893e+05
  -5.883015e+04  -1.830129e+04
   4.541123e+05   1.524659e+05
   4.754623e+05   7.069933e+05
  -2.391071e+05   1.178218e+06
  -1.384180e+06   8.866376e+05
  -2.080032e+06  -4.075860e+05
  -1.478537e+06  -1.936516e+06
   1.933556e+05  -2.410235e+06
   1.580295e+06  -1.391280e+06
   1.640998e+06   1.234241e+05
   8.265521e+05   8.329860e+05
   3.422158e+05   5.647364e+05
   5.399835e+05   1.878650e+05
   6.668908e+05   3.487139e+05
   8.794426e+04   7.964648e+05
  -8.792623e+05   8.885456e+05
  -1.420224e+06   3.125061e+05
  -1.020396e+06  -6.867581e+05
   2.430745e+05  -1.405639e+06
   1.691194e+06  -1.054763e+06
   2.225224e+06   4.663330e+05
   1.118010e+06   2.083711e+06
  -1.029596e+06   2.352611e+06
  -2.544920e+06   1.006318e+06
  -2.311315e+06  -6.730665e+05
  -9.050234e+05  -1.303340e+06
   2.064403e+05  -8.813808e+05
   3.286029e+05  -4.834837e+05
   1.216313e+04  -7.879028e+05
   8.033710e+04  -1.358605e+06
   6.834187e+05  -1.315344e+06
   1.313056e+06  -3.288297e+05
   1.355831e+06   1.066988e+06
   5.787822e+05   1.885706e+06
  -6.020447e+05   1.442412e+06
  -1.274727e+06   2.286788e+03
  -8.006692e+05  -1.287528e+06
   4.106644e+05  -1.384657e+06
   1.175139e+06  -3.603170e+05
   7.925368e+05   7.476668e+05
  -1.681958e+05   1.087259e+06
  -5.752246e+05   7.545149e+05
  -9.225686e+04   3.860402e+05
   4.501542e+05   3.242032e+05
   7.179779e+04   3.801211e+05
  -1.158752e+06   2.048248e+05
  -2.081433e+06  -3.353903e+05
  -1.615234e+06  -1.038100e+06
   6.746756e+04  -1.441748e+06
   1.617875e+06  -1.145977e+06
   1.828163e+06  -2.637045e+05
   8.051013e+05   5.227980e+05
  -2.812942e+05   5.822744e+05
  -5.137274e+05   1.563000e+04
  -3.633132e+04  -4.515277e+05
   4.287366e+05  -2.767361e+05
   4.901222e+05   3.375061e+05
   2.980787e+05   7.238830e+05
   1.331548e+05   4.886182e+05
   1.222517e+05  -7.481071e+04
   2.377520e+05  -2.775234e+05
   2.692895e+05   2.298943e+05
  -1.086948e+05   9.817164e+05
  -8.902330e+05   1.079848e+06
  -1.407175e+06   1.961147e+05
  -9.020904e+05  -9.187555e+05
   4.145911e+05  -1.174693e+06
   1.289184e+06  -3.757377e+05
   7.497618e+05   5.540362e+05
  -6.997570e+05   6.437236e+05
  -1.561386e+06  -9.252069e+04
  -9.604261e+05  -8.405575e+05
   4.957646e+05  -9.469073e+05
   1.458894e+06  -4.454370e+05
   1.187234e+06   1.913369e+05
   1.235459e+05   4.947878e+05
  -6.423458e+05   2.557264e+05
  -3.945377e+05  -3.057435e+05
   5.662342e+05  -5.552457e+05
   1.197701e+06   3.584980e+04
   7.302088e+05   1.167810e+06
  -5.248864e+05   1.741663e+06
  -1.456964e+06   9.442637e+05
  -1.274413e+06  -7.204881e+05
  -2.410636e+05  -1.776877e+06
   7.089074e+05  -1.280750e+06
   9.078662e+05   1.852189e+05
   4.188019e+05   1.175170e+06
  -2.329233e+05   9.358440e+05
  -5.644169e+05   7.299683e+04
  -4.457636e+05  -3.533254e+05
  -1.385310e+05  -1.143535e+05
  -5.529772e+04   8.234083e+04
  -3.199113e+05  -3.257738e+05
  -5.370658e+05  -9.696438e+05
  -1.729458e+05  -1.052166e+06
   7.461151e+05  -3.837084e+05
   1.471927e+06   4.355132e+05
   1.254091e+06   8.005740e+05
   1.891894e+05   6.994034e+05
  -8.126896e+05   4.475731e+05
  -9.619436e+05   1.906439e+05
  -3.816771e+05  -7.490686e+04
   1.293449e+05  -2.354762e+05
   6.435589e+04  -1.731994e+05
  -2.317842e+05  -5.293163e+04
  -7.073073e+04  -1.346344e+05
   6.156938e+05  -2.809474e+05
   1.056374e+06  -2.344988e+04
   5.095865e+05   7.094218e+05
  -7.813777e+05   1.236701e+06
  -1.722039e+06   8.198965e+05
  -1.484370e+06  -3.893699e+05
  -3.293209e+05  -1.398073e+06
   7.505205e+05  -1.406548e+06
   1.047378e+06  -5.947004e+05
   6.629688e+05   1.892775e+05
   1.620629e+05   3.620317e+05
  -3.796777e+04   1.063837e+05
   8.627560e+04   1.595708e+04
   2.848025e+05   3.681735e+05
   2.492481e+05   7.979933e+05
  -1.555814e+05   6.973211e+05
  -6.854760e+05  -6.935229e+04
  -8.022566e+05  -9.101326e+05
  -1.938608e+05  -1.049499e+06
   7.320824e+05  -3.216041e+05
   1.083913e+06   6.550626e+05
   4.097827e+05   1.092481e+06
  -6.969575e+05   7.354250e+05
  -1.149278e+06  -3.558056e+04
  -5.676388e+05  -6.368336e+05
   2.827834e+05  -7.285362e+05
   4.098903e+05  -3.789874e+05
  -2.111129e+05   2.554038e+04
  -6.405926e+05   6.801407e+04
  -1.680913e+05  -3.164908e+05
   8.062360e+05  -6.978645e+05
   1.273729e+06  -5.355679e+05
   8.018044e+05   2.004896e+05
  -7.213578e+04   8.918004e+05
  -5.701629e+05   8.813090e+05
  -4.723812e+05   1.940809e+05
  -9.551991e+04  -4.671198e+05
   2.247189e+05  -4.690156e+05
   3.651742e+05   9.789009e+04
   2.789312e+05   5.710930e+05
  -3.858961e+04   4.680172e+05
  -3.995676e+05  -1.602762e+04
  -4.918998e+05  -2.973469e+05
  -2.400582e+05  -1.136036e+05
   5.069191e+04   1.851089e+05
   6.830971e+04   1.042289e+05
  -8.397439e+04  -3.431045e+05
  -3.339185e+04  -6.164523e+05
   3.067196e+05  -3.075754e+05
   5.363720e+05   3.321577e+05
   2.501111e+05   6.564261e+05
  -3.839954e+05   3.538279e+05
  -7.091548e+05  -2.386492e+05
  -2.983538e+05  -5.559618e+05
   5.105602e+05  -3.862738e+05
   9.164475e+05   3.438986e+04
   5.054515e+05   3.649690e+05
  -2.890501e+05   4.417095e+05
  -6.538993e+05   2.847464e+05
  -2.841589e+05   2.525870e+04
   3.086004e+05  -1.244678e+05
   4.050102e+05  -4.912692e+01
  -1.151125e+05   2.798372e+05
  -6.764405e+05   3.146628e+05
