
 $NMID
 id='ANONYMOUS ', fmtdat='(2E16.6)'
 volume=1.0
 tramp=1.0
 $END
   2.769430e+07  -7.258820e+05
   1.847584e+07   1.379083e+07
  -5.758989e+05   1.803240e+07
  -1.230582e+07   1.075861e+07
  -9.657728e+06   2.789731e+04
  -8.788538e+04  -4.980495e+06
   5.491885e+06  -1.773942e+06
   3.600217e+06   4.566603e+06
  -1.705743e+06   6.940503e+06
  -5.101118e+06   2.878337e+06
  -4.304588e+06  -3.396935e+06
  -6.071659e+05  -5.418729e+06
   2.492804e+06  -1.297886e+06
   1.999553e+06   4.248310e+06
  -1.621106e+06   5.096121e+06
  -4.486361e+06   3.087700e+05
  -3.251660e+06  -5.302344e+06
   1.280841e+06  -6.673084e+06
   5.150410e+06  -3.304170e+06
   5.400341e+06   1.324511e+06
   2.641090e+06   3.760504e+06
  -9.644558e+04   3.378364e+06
  -4.139084e+05   2.055719e+06
   1.247922e+06   1.907221e+06
   2.001476e+06   3.170844e+06
  -4.527363e+05   4.012620e+06
  -4.785116e+06   2.603294e+06
  -6.792007e+06  -5.961490e+05
  -4.013790e+06  -3.080155e+06
   1.049059e+06  -2.926782e+06
   3.493030e+06  -6.798465e+05
   1.479590e+06   1.469459e+06
  -2.103344e+06   1.748404e+06
  -3.422583e+06  -3.776654e+04
  -1.766268e+06  -2.509887e+06
   6.344003e+05  -3.500599e+06
   1.616720e+06  -1.820598e+06
   9.426020e+05   1.044337e+06
  -1.894360e+05   1.928145e+06
  -4.650632e+05  -2.894189e+05
   5.254625e+05  -2.770545e+06
   1.833081e+06  -2.002627e+06
   1.801535e+06   1.449539e+06
  -1.615516e+05   3.315663e+06
  -2.445952e+06   1.039037e+06
  -2.526915e+06  -2.914897e+06
   2.966145e+05  -4.137726e+06
   3.785965e+06  -1.433489e+06
   4.729237e+06   2.346771e+06
   2.053832e+06   3.876816e+06
  -2.043106e+06   2.440439e+06
  -4.064956e+06  -2.403246e+05
  -2.465129e+06  -1.963354e+06
   9.077135e+05  -1.655092e+06
   2.701154e+06   2.292962e+04
   1.502501e+06   1.275490e+06
  -8.283788e+05   8.797235e+05
  -1.471230e+06  -5.094415e+05
   7.290562e+04  -1.141165e+06
   1.589299e+06  -2.565337e+05
   9.592407e+05   1.112448e+06
  -1.329374e+06   1.446206e+06
  -2.804874e+06   2.595557e+05
  -1.724674e+06  -1.726914e+06
   1.236904e+06  -3.229929e+06
   3.797934e+06  -3.022855e+06
   4.183403e+06  -7.404155e+05
   2.502061e+06   2.370190e+06
   3.626443e+05   4.109286e+06
  -7.392919e+05   3.457708e+06
  -7.187582e+05   1.711615e+06
  -6.466430e+05   8.313822e+05
  -1.313081e+06   9.981767e+05
  -2.276068e+06   6.903602e+05
  -2.416121e+06  -8.813919e+05
  -1.213866e+06  -2.429600e+06
   6.774487e+05  -2.145695e+06
   1.951253e+06   1.268444e+04
   1.618357e+06   2.183667e+06
  -2.269846e+05   2.529689e+06
  -2.286674e+06   8.940111e+05
  -2.937591e+06  -1.321360e+06
  -1.699841e+06  -2.544310e+06
   2.021425e+05  -2.298242e+06
   1.150845e+06  -1.364032e+06
   9.914141e+05  -8.119986e+05
   1.065608e+06  -8.606328e+05
   2.238031e+06  -7.404210e+05
   3.468553e+06   3.111764e+05
   2.907832e+06   2.069469e+06
   2.247170e+05   3.408391e+06
  -2.716532e+06   3.262436e+06
  -3.650396e+06   1.527614e+06
  -2.121142e+06  -7.423327e+05
   2.048400e+05  -1.993934e+06
   1.249631e+06  -1.417884e+06
   4.290381e+05   1.798820e+05
  -1.027040e+06   1.032365e+06
  -1.486614e+06   2.991824e+05
  -5.757377e+05  -9.253249e+05
   5.717428e+05  -9.568414e+05
   6.378553e+05   2.756273e+05
  -4.691186e+05   1.026657e+06
  -1.574212e+06  -8.382111e+04
  -1.431047e+06  -2.252148e+06
   1.588209e+05  -3.303451e+06
   2.214266e+06  -2.060418e+06
   3.311943e+06   5.154395e+05
   2.619992e+06   2.430797e+06
   6.151164e+05   2.531463e+06
  -1.161236e+06   1.292270e+06
  -1.422509e+06   1.091789e+05
  -4.196495e+05  -3.698089e+04
   3.269699e+05   6.223193e+05
  -2.243901e+05   1.034113e+06
  -1.399713e+06   5.081970e+05
  -1.642432e+06  -5.317977e+05
  -4.521576e+05  -1.052201e+06
   9.326907e+05  -5.712396e+05
   9.259830e+05   3.476984e+05
  -5.916429e+05   7.214328e+05
  -2.078525e+06   9.091869e+04
  -1.908653e+06  -1.118357e+06
  -2.504318e+04  -1.953487e+06
   1.981361e+06  -1.657982e+06
   2.401509e+06  -3.386118e+05
   1.033125e+06   9.642385e+05
  -6.861080e+05   1.136019e+06
  -1.141181e+06   1.463641e+05
  -9.150714e+04  -8.163841e+05
   1.237831e+06  -6.141418e+05
   1.490591e+06   5.490863e+05
   4.791163e+05   1.383393e+06
  -7.785773e+05   1.021723e+06
  -1.132197e+06  -3.918288e+04
  -3.802814e+05  -5.982344e+05
   5.744945e+05  -1.009541e+05
   6.008648e+05   8.471599e+05
  -5.061548e+05   1.182719e+06
  -1.706744e+06   4.285597e+05
  -1.707728e+06  -8.918740e+05
  -3.531475e+05  -1.727306e+06
   1.135965e+06  -1.414293e+06
   1.440334e+06  -2.688633e+05
   5.124465e+05   7.000471e+05
  -5.114887e+05   7.442346e+05
  -6.391181e+05   6.600312e+04
   1.004466e+04  -4.843682e+05
   5.531394e+05  -3.668034e+05
   3.872840e+05   1.009718e+05
  -2.367338e+05   1.861145e+05
  -5.355731e+05  -3.644070e+05
   1.423456e+04  -9.770335e+05
   1.106663e+06  -8.224913e+05
   1.774708e+06   2.913666e+05
   1.265542e+06   1.619865e+06
  -1.555271e+05   2.107307e+06
  -1.387190e+06   1.359769e+06
  -1.580523e+06   1.359554e+04
  -9.405594e+05  -8.820954e+05
  -3.351412e+05  -8.544911e+05
  -2.495084e+05  -3.625886e+05
  -3.517410e+05  -1.837743e+05
  -6.248639e+04  -5.239183e+05
   6.730198e+05  -8.144678e+05
   1.267059e+06  -3.998431e+05
   1.043504e+06   6.360985e+05
  -1.026721e+05   1.408695e+06
  -1.473392e+06   1.057156e+06
  -1.995508e+06  -3.473695e+05
  -1.097811e+06  -1.750011e+06
   6.813703e+05  -2.032672e+06
   2.053239e+06  -1.029226e+06
   2.101049e+06   3.728286e+05
   1.060188e+06   1.130493e+06
  -4.654203e+04   1.004129e+06
  -4.623205e+05   6.135280e+05
  -2.990864e+05   6.194944e+05
  -1.883315e+05   9.683599e+05
  -5.137393e+05   1.000209e+06
  -1.026087e+06   2.542832e+05
  -1.123191e+06  -9.236817e+05
  -4.809511e+05  -1.626720e+06
   5.376253e+05  -1.240521e+06
   1.119786e+06  -4.664641e+04
   7.587373e+05   1.017838e+06
  -1.983544e+05   1.192455e+06
  -8.580016e+05   5.061676e+05
  -6.924363e+05  -3.712264e+05
  -6.025546e+04  -8.062188e+05
   2.616253e+05  -7.080008e+05
  -6.808828e+03  -4.362757e+05
  -3.375534e+05  -3.230088e+05
  -3.152168e+04  -3.431158e+05
   9.151431e+05  -2.198187e+05
   1.678700e+06   2.166971e+05
   1.398704e+06   8.017981e+05
   1.050025e+05   1.144849e+06
  -1.209144e+06   9.622558e+05
  -1.519829e+06   3.475288e+05
  -7.686565e+05  -2.593026e+05
   1.530824e+05  -4.196037e+05
   3.976152e+05  -9.938466e+04
  -1.538442e+04   2.655295e+05
  -4.269999e+05   1.950472e+05
  -3.966794e+05  -2.921014e+05
  -1.078438e+05  -6.468522e+05
   2.078822e+04  -4.149222e+05
  -1.315639e+05   1.601216e+05
  -3.253857e+05   3.492335e+05
  -2.593957e+05  -1.815621e+05
   1.677876e+05  -8.824278e+05
   7.514507e+05  -9.019601e+05
   1.028830e+06  -9.390717e+04
   6.064326e+05   7.753931e+05
  -3.414435e+05   8.748897e+05
  -9.955229e+05   1.938906e+05
  -6.158856e+05  -5.216920e+05
   5.685750e+05  -5.878418e+05
   1.419411e+06   4.547462e+03
   1.026164e+06   7.069992e+05
  -2.984670e+05   9.539117e+05
  -1.321813e+06   5.870722e+05
  -1.170356e+06  -7.056082e+04
  -1.791860e+05  -4.709812e+05
   5.459696e+05  -2.946077e+05
   3.001360e+05   2.126234e+05
  -5.497402e+05   3.999428e+05
  -1.007623e+06  -1.423340e+05
  -4.859011e+05  -1.053549e+06
   6.152957e+05  -1.427809e+06
   1.332064e+06  -6.970116e+05
   1.084811e+06   6.918000e+05
   1.687514e+05   1.579476e+06
  -6.405364e+05   1.188053e+06
  -8.293694e+05  -7.949406e+04
  -4.563395e+05  -1.027747e+06
   9.444301e+04  -9.016011e+05
   4.625935e+05  -1.181099e+05
   4.749701e+05   3.436520e+05
   2.167565e+05   1.454621e+05
   1.476530e+04  -1.078678e+05
   1.423669e+05   1.997564e+05
   4.117988e+05   8.152534e+05
   2.617714e+05   9.600334e+05
  -5.193392e+05   3.700563e+05
  -1.303640e+06  -4.000832e+05
  -1.204782e+06  -7.255387e+05
  -1.763040e+05  -5.900452e+05
   8.135278e+05  -3.578775e+05
   8.851702e+05  -1.907297e+05
   2.553791e+05  -1.787074e+03
  -1.541148e+05   1.884419e+05
   5.212047e+04   2.251646e+05
   3.186525e+05   1.335784e+05
   9.485127e+03   1.189990e+05
  -6.691379e+05   1.673862e+05
  -8.968488e+05  -3.595000e+04
  -2.456392e+05  -5.803073e+05
   8.138866e+05  -9.649095e+05
   1.413597e+06  -5.924661e+05
   1.112514e+06   4.216216e+05
   2.009164e+05   1.234664e+06
  -6.427142e+05   1.164233e+06
  -9.065613e+05   4.060251e+05
  -5.786750e+05  -2.513903e+05
  -7.846013e+04  -3.076171e+05
   1.334968e+05  -2.978666e+03
  -4.511950e+04   7.427596e+04
  -3.017160e+05  -2.951072e+05
  -2.483235e+05  -7.029475e+05
   1.732121e+05  -5.703632e+05
   6.050516e+05   1.640238e+05
   5.863130e+05   8.810498e+05
   5.930875e+03   8.820632e+05
  -7.001443e+05   1.312939e+05
  -8.651653e+05  -7.009291e+05
  -2.451180e+05  -9.392069e+05
   6.311038e+05  -5.243910e+05
   9.284192e+05   9.017428e+04
   4.154316e+05   4.755405e+05
  -2.418475e+05   5.141077e+05
  -2.633475e+05   3.038725e+05
   2.850298e+05   4.067603e+04
   5.814739e+05  -1.889242e+04
   1.014194e+05   2.523391e+05
  -7.188545e+05   5.956555e+05
  -1.034932e+06   5.210254e+05
  -5.911204e+05  -9.678241e+04
   9.217065e+04  -7.244843e+05
   4.179071e+05  -7.134848e+05
   2.955125e+05  -8.987533e+04
   4.978867e+03   4.433381e+05
  -2.209670e+05   3.366830e+05
  -3.054756e+05  -1.930656e+05
  -2.072697e+05  -5.035811e+05
   6.225720e+04  -3.108160e+05
   3.346943e+05   6.854956e+04
   3.906820e+05   1.999163e+05
   2.108700e+05   4.482250e+04
   7.917973e+02  -7.858432e+04
  -7.534141e+04   6.591392e+04
  -8.214015e+04   3.435085e+05
  -1.688685e+05   4.004585e+05
  -3.126026e+05   6.908973e+04
  -3.065918e+05  -4.033967e+05
  -1.836174e+04  -5.669863e+05
   3.865458e+05  -2.370058e+05
   5.293306e+05   2.864581e+05
   1.826341e+05   5.225166e+05
  -4.221725e+05   3.051686e+05
  -7.251219e+05  -9.754879e+04
  -3.938570e+05  -3.308527e+05
   2.548424e+05  -2.973833e+05
   5.354894e+05  -1.358776e+05
   1.668261e+05  -6.212342e+03
  -3.681201e+05   2.761418e+03
  -3.772059e+05  -1.302509e+05
   2.066211e+05  -2.913559e+05
   7.396539e+05  -2.236642e+05
