
 $NMID
 id='ANONYMOUS ', fmtdat='(2E16.6)'
 volume=1.0
 tramp=1.0
 $END
   3.650895e+07  -1.489028e+06
   2.397129e+07   1.975555e+07
  -1.972948e+06   2.447258e+07
  -1.689650e+07   1.249952e+07
  -1.204061e+07  -1.902809e+06
   7.899406e+05  -6.437623e+06
   6.933574e+06  -9.923735e+05
   3.522083e+06   6.204026e+06
  -3.022389e+06   7.829359e+06
  -6.538135e+06   2.760070e+06
  -5.222419e+06  -4.156504e+06
  -7.831672e+05  -6.375950e+06
   2.882058e+06  -1.794077e+06
   2.205649e+06   4.581168e+06
  -2.251931e+06   5.606143e+06
  -5.593763e+06  -8.773857e+04
  -3.787178e+06  -6.781329e+06
   1.878789e+06  -8.352023e+06
   6.590472e+06  -4.289334e+06
   7.093813e+06   1.349834e+06
   4.005303e+06   4.756179e+06
   3.510453e+05   4.967848e+06
  -1.023724e+06   3.392184e+06
   3.156321e+05   2.295151e+06
   1.659014e+06   2.914300e+06
  -2.590108e+05   4.025562e+06
  -4.911612e+06   3.140099e+06
  -7.609497e+06  -1.842030e+05
  -4.959951e+06  -3.287044e+06
   5.698934e+05  -3.503745e+06
   3.468514e+06  -1.241556e+06
   1.703525e+06   9.754435e+05
  -1.685138e+06   1.417093e+06
  -3.046077e+06   5.598495e+04
  -1.845797e+06  -2.167450e+06
   2.162131e+05  -3.574135e+06
   1.593314e+06  -2.451864e+06
   1.602907e+06   6.538477e+05
   4.578986e+05   2.365225e+06
  -4.650253e+05   4.009737e+05
   2.897503e+05  -2.632197e+06
   2.027545e+06  -2.110454e+06
   2.063215e+06   1.964701e+06
  -7.636864e+05   4.267185e+06
  -3.834698e+06   1.198544e+06
  -3.462144e+06  -4.055362e+06
   6.460326e+05  -5.546726e+06
   4.873280e+06  -1.856036e+06
   5.477879e+06   2.936235e+06
   2.050950e+06   4.561349e+06
  -2.484211e+06   2.567238e+06
  -4.479633e+06  -6.119040e+05
  -2.507720e+06  -2.442505e+06
   1.347509e+06  -1.871826e+06
   3.290394e+06   2.378417e+05
   1.693130e+06   1.699686e+06
  -1.079904e+06   1.056114e+06
  -1.569705e+06  -6.622024e+05
   4.683892e+05  -1.118267e+06
   1.941606e+06   3.313562e+05
   5.640474e+05   1.890462e+06
  -2.331320e+06   1.710536e+06
  -3.641156e+06  -1.493208e+05
  -1.990426e+06  -2.404890e+06
   1.349342e+06  -3.876898e+06
   4.119442e+06  -3.614380e+06
   4.769274e+06  -1.107575e+06
   3.161743e+06   2.543308e+06
   6.042134e+05   4.722723e+06
  -1.047075e+06   3.906707e+06
  -1.069095e+06   1.608540e+06
  -5.534621e+05   4.831264e+05
  -9.163996e+05   9.298887e+05
  -2.033631e+06   9.802016e+05
  -2.485913e+06  -5.409159e+05
  -1.426085e+06  -2.250481e+06
   4.741478e+05  -2.109619e+06
   1.817015e+06  -2.419771e+04
   1.617064e+06   2.158091e+06
  -1.544244e+05   2.643194e+06
  -2.408108e+06   1.134164e+06
  -3.398870e+06  -1.235750e+06
  -2.207567e+06  -2.867744e+06
   8.299394e+04  -2.888610e+06
   1.451603e+06  -1.826117e+06
   1.369662e+06  -9.623835e+05
   1.319994e+06  -8.330215e+05
   2.477893e+06  -6.732969e+05
   3.766425e+06   4.410789e+05
   3.108495e+06   2.287238e+06
   2.004996e+05   3.644057e+06
  -2.873079e+06   3.468231e+06
  -3.806324e+06   1.711874e+06
  -2.270777e+06  -6.343069e+05
   5.979644e+04  -2.049048e+06
   1.189672e+06  -1.566042e+06
   4.603181e+05   1.300902e+05
  -1.042566e+06   1.112881e+06
  -1.613858e+06   3.377441e+05
  -6.887647e+05  -1.000280e+06
   5.514207e+05  -9.976871e+05
   5.708461e+05   3.249731e+05
  -6.793254e+05   9.428846e+05
  -1.713535e+06  -4.645420e+05
  -1.222476e+06  -2.687376e+06
   6.266561e+05  -3.401794e+06
   2.564185e+06  -1.790098e+06
   3.355072e+06   8.311885e+05
   2.514673e+06   2.572070e+06
   5.502803e+05   2.573089e+06
  -1.191146e+06   1.345581e+06
  -1.469940e+06   1.451374e+05
  -4.441596e+05  -3.855230e+04
   3.367020e+05   6.653023e+05
  -2.806577e+05   1.137586e+06
  -1.562716e+06   5.406286e+05
  -1.777360e+06  -6.406453e+05
  -4.371252e+05  -1.171935e+06
   1.013074e+06  -5.702248e+05
   9.126210e+05   3.933003e+05
  -6.940835e+05   6.621041e+05
  -2.134899e+06  -5.671532e+04
  -1.859573e+06  -1.221165e+06
   7.905035e+04  -1.974266e+06
   2.103221e+06  -1.657484e+06
   2.529814e+06  -3.165934e+05
   1.099533e+06   1.060321e+06
  -7.532677e+05   1.258757e+06
  -1.274481e+06   1.707891e+05
  -1.310856e+05  -8.961129e+05
   1.327946e+06  -6.553188e+05
   1.570406e+06   6.264222e+05
   4.344240e+05   1.479988e+06
  -8.891125e+05   1.013752e+06
  -1.182303e+06  -1.311661e+05
  -3.375183e+05  -6.641082e+05
   6.501522e+05  -8.627477e+04
   6.450407e+05   9.176296e+05
  -5.323672e+05   1.262182e+06
  -1.807960e+06   4.641913e+05
  -1.817194e+06  -9.451097e+05
  -3.651570e+05  -1.844333e+06
   1.236791e+06  -1.495084e+06
   1.538477e+06  -2.530290e+05
   5.108175e+05   7.570449e+05
  -5.620075e+05   7.638915e+05
  -6.346731e+05   6.379014e+04
   5.828186e+04  -4.469600e+05
   5.447763e+05  -3.051281e+05
   2.970684e+05   1.063969e+05
  -3.224645e+05   1.073892e+05
  -5.427810e+05  -4.731361e+05
   7.692342e+04  -1.057998e+06
   1.204177e+06  -8.513942e+05
   1.882260e+06   3.337394e+05
   1.334654e+06   1.730675e+06
  -1.775589e+05   2.214865e+06
  -1.470614e+06   1.378272e+06
  -1.624113e+06  -3.840341e+04
  -9.098424e+05  -8.965941e+05
  -3.169076e+05  -7.908780e+05
  -3.179036e+05  -3.082987e+05
  -4.485009e+05  -2.193889e+05
  -7.887447e+04  -6.059367e+05
   7.449101e+05  -8.501104e+05
   1.338095e+06  -3.740546e+05
   1.048213e+06   6.749141e+05
  -1.605840e+05   1.434990e+06
  -1.567064e+06   1.063405e+06
  -2.085593e+06  -3.981111e+05
  -1.111381e+06  -1.875143e+06
   7.935078e+05  -2.153078e+06
   2.224983e+06  -1.035147e+06
   2.193980e+06   4.732641e+05
   1.026044e+06   1.211722e+06
  -1.094026e+05   9.910131e+05
  -4.467809e+05   5.732700e+05
  -2.242334e+05   6.535291e+05
  -1.524545e+05   1.077173e+06
  -5.610881e+05   1.099854e+06
  -1.115028e+06   2.797560e+05
  -1.195359e+06  -9.753897e+05
  -5.060751e+05  -1.716957e+06
   5.663893e+05  -1.306062e+06
   1.177396e+06  -2.869979e+04
   7.799596e+05   1.110565e+06
  -2.632181e+05   1.267284e+06
  -9.681738e+05   4.781961e+05
  -7.429655e+05  -4.816374e+05
  -3.329273e+03  -9.050067e+05
   3.567646e+05  -7.418042e+05
   2.773543e+04  -4.325949e+05
  -3.694944e+05  -3.258766e+05
  -4.109325e+04  -3.566803e+05
   9.970505e+05  -2.202345e+05
   1.813442e+06   2.520877e+05
   1.476720e+06   8.825108e+05
   5.929370e+04   1.249384e+06
  -1.337799e+06   1.029354e+06
  -1.629843e+06   3.258901e+05
  -7.974313e+05  -3.416953e+05
   1.867608e+05  -4.739996e+05
   4.399675e+05  -7.896094e+04
   5.853940e+03   3.176266e+05
  -4.303709e+05   2.161481e+05
  -4.266220e+05  -3.073798e+05
  -1.583663e+05  -6.675421e+05
  -2.025671e+04  -4.318634e+05
  -1.373523e+05   1.372733e+05
  -3.143957e+05   3.250535e+05
  -2.664366e+05  -2.015836e+05
   1.599415e+05  -9.170994e+05
   8.022550e+05  -9.596060e+05
   1.142143e+06  -1.286547e+05
   6.927249e+05   8.171838e+05
  -3.614414e+05   9.674317e+05
  -1.081557e+06   2.492641e+05
  -6.558081e+05  -5.372325e+05
   6.152756e+05  -6.104945e+05
   1.480001e+06   3.782859e+04
   1.019331e+06   7.677190e+05
  -3.676593e+05   9.704945e+05
  -1.389620e+06   5.467118e+05
  -1.194358e+06  -1.178788e+05
  -1.615493e+05  -4.880389e+05
   5.841458e+05  -2.852570e+05
   3.310711e+05   2.397520e+05
  -5.581669e+05   4.410982e+05
  -1.064482e+06  -1.177434e+05
  -5.517292e+05  -1.090895e+06
   5.986303e+05  -1.519029e+06
   1.377647e+06  -7.641181e+05
   1.143259e+06   7.106704e+05
   1.823813e+05   1.650758e+06
  -6.761861e+05   1.223623e+06
  -8.652525e+05  -1.155395e+05
  -4.463277e+05  -1.087974e+06
   1.433291e+05  -9.272374e+05
   5.000789e+05  -1.060856e+05
   4.686059e+05   3.578312e+05
   1.939766e+05   1.451531e+05
   2.839835e+04  -1.038153e+05
   1.967246e+05   2.297942e+05
   4.489745e+05   8.657232e+05
   2.334895e+05   1.003657e+06
  -5.914808e+05   3.831267e+05
  -1.362176e+06  -4.212696e+05
  -1.227695e+06  -7.663362e+05
  -1.805373e+05  -6.288395e+05
   8.225320e+05  -3.774949e+05
   9.190237e+05  -1.863528e+05
   2.972407e+05   1.609775e+04
  -1.485845e+05   2.004731e+05
   1.570675e+04   2.199741e+05
   2.927661e+05   1.214524e+05
   2.544272e+04   1.221685e+05
  -6.588268e+05   1.900106e+05
  -9.478980e+05  -2.295810e+04
  -3.208537e+05  -6.125415e+05
   8.120998e+05  -1.039840e+06
   1.510789e+06  -6.608740e+05
   1.221772e+06   4.121383e+05
   2.324255e+05   1.290291e+06
  -6.819777e+05   1.242699e+06
  -9.518885e+05   4.589785e+05
  -6.026357e+05  -2.402997e+05
  -1.011359e+05  -3.232513e+05
   1.037566e+05  -2.515077e+04
  -6.247200e+04   5.173211e+04
  -3.005717e+05  -3.233382e+05
  -2.474141e+05  -7.402222e+05
   1.710168e+05  -6.086689e+05
   6.273250e+05   1.432927e+05
   6.434134e+05   8.953478e+05
   5.586081e+04   9.289688e+05
  -7.089365e+05   1.787506e+05
  -9.250907e+05  -6.954983e+05
  -2.901481e+05  -9.871751e+05
   6.523858e+05  -5.847727e+05
   9.966228e+05   7.623800e+04
   4.645880e+05   5.233143e+05
  -2.518064e+05   5.785541e+05
  -3.070187e+05   3.319245e+05
   2.642582e+05   2.948352e+04
   6.025842e+05  -2.881063e+04
   1.213666e+05   2.709966e+05
  -7.531968e+05   6.266756e+05
  -1.118244e+06   5.307029e+05
  -6.602176e+05  -1.229956e+05
   8.779928e+04  -7.769552e+05
   4.648708e+05  -7.708335e+05
   3.438749e+05  -1.251201e+05
   2.617941e+04   4.506701e+05
  -2.220069e+05   3.749221e+05
  -3.186639e+05  -1.695345e+05
  -2.269628e+05  -5.270021e+05
   5.228432e+04  -3.560346e+05
   3.530289e+05   5.549867e+04
   4.256102e+05   2.286876e+05
   2.243091e+05   6.533057e+04
  -1.770468e+04  -1.064191e+05
  -8.344244e+04   1.836025e+04
  -4.116848e+04   3.381195e+05
  -1.087695e+05   4.528291e+05
  -3.035049e+05   1.320077e+05
  -3.655000e+05  -3.804641e+05
  -8.056157e+04  -5.870500e+05
   3.873437e+05  -2.674799e+05
   5.795865e+05   2.738922e+05
   2.122808e+05   5.343463e+05
  -4.511817e+05   3.305860e+05
  -7.821959e+05  -8.030065e+04
  -4.270443e+05  -3.431997e+05
   2.635273e+05  -3.393710e+05
   5.684838e+05  -1.782604e+05
   2.003246e+05  -1.561222e+04
  -3.496835e+05   2.908017e+04
  -3.810714e+05  -9.863061e+04
   1.876216e+05  -2.843880e+05
   7.286445e+05  -2.395782e+05
