
 $NMID
 id='ANONYMOUS ', fmtdat='(2E16.6)'
 volume=1.0
 tramp=1.0
 $END
  -1.011622e+07   8.799521e+05
  -6.586707e+06  -5.953422e+06
   9.627610e+05  -7.101446e+06
   4.965443e+06  -2.890506e+06
   3.101975e+06   1.350944e+06
  -6.101283e+05   1.950222e+06
  -1.937704e+06  -8.628567e+04
  -6.597278e+05  -1.840446e+06
   1.071754e+06  -1.837975e+06
   1.808885e+06  -4.532772e+05
   1.375639e+06   1.128249e+06
   1.956648e+05   1.638166e+06
  -8.058050e+05   5.909627e+05
  -6.322570e+05  -9.429704e+05
   5.784332e+05  -1.209524e+06
   1.417884e+06   1.809508e+05
   8.427818e+05   1.767906e+06
  -6.313329e+05   2.054501e+06
  -1.756970e+06   1.041760e+06
  -1.913498e+06  -3.106908e+05
  -1.253151e+06  -1.283502e+06
  -2.208153e+05  -1.592564e+06
   5.468037e+05  -1.180851e+06
   4.921320e+05  -4.610097e+05
  -9.918222e+04  -2.092068e+05
  -1.552058e+05  -6.130202e+05
   7.686971e+05  -8.749547e+05
   1.673852e+06  -3.065283e+05
   1.394561e+06   6.403257e+05
   2.085421e+05   1.020929e+06
  -6.122156e+05   6.599608e+05
  -5.020336e+05   1.364631e+05
  -7.619810e+03  -1.302294e+05
   2.804100e+05  -1.112940e+05
   3.069881e+05   1.979496e+05
   1.124570e+05   6.463637e+05
  -3.155358e+05   6.778896e+05
  -6.413437e+05   1.506673e+03
  -4.182267e+05  -6.704013e+05
   9.781240e+04  -4.312964e+05
   1.292970e+05   3.485928e+05
  -3.775616e+05   3.741305e+05
  -4.765384e+05  -5.913523e+05
   3.656921e+05  -1.167922e+06
   1.281866e+06  -2.992869e+05
   1.074638e+06   1.155905e+06
  -1.793604e+05   1.548855e+06
  -1.254823e+06   5.572301e+05
  -1.249129e+06  -6.501047e+05
  -3.611348e+05  -1.007594e+06
   5.990223e+05  -5.122609e+05
   9.320942e+05   2.316687e+05
   4.222206e+05   6.701261e+05
  -4.768008e+05   5.071517e+05
  -8.869050e+05  -1.122748e+05
  -4.049642e+05  -5.554098e+05
   3.131504e+05  -3.343316e+05
   3.373963e+05   1.899005e+05
  -2.634404e+05   2.248948e+05
  -5.179758e+05  -3.267516e+05
   6.228682e+04  -7.188565e+05
   8.365621e+05  -4.261255e+05
   9.701223e+05   2.285024e+05
   4.322306e+05   6.994933e+05
  -2.577399e+05   8.801628e+05
  -7.679835e+05   8.212610e+05
  -1.003266e+06   3.586974e+05
  -8.180837e+05  -4.710785e+05
  -2.204021e+05  -1.053686e+06
   3.377660e+05  -8.372914e+05
   3.765784e+05  -1.513566e+05
   3.182538e+04   1.727965e+05
  -1.244044e+05  -8.999528e+04
   1.292210e+05  -3.601630e+05
   4.320851e+05  -1.682626e+05
   4.018801e+05   2.421653e+05
   7.734322e+04   3.662609e+05
  -2.464855e+05   9.022516e+04
  -3.247547e+05  -3.046776e+05
  -5.502815e+04  -5.034817e+05
   4.449339e+05  -3.432186e+05
   7.823497e+05   1.293132e+05
   5.982170e+05   6.115882e+05
   3.244805e+04   7.406905e+05
  -3.809634e+05   4.848301e+05
  -3.878644e+05   1.855667e+05
  -3.009494e+05   1.014578e+05
  -4.588365e+05   9.715005e+04
  -6.896368e+05  -8.111704e+04
  -5.772997e+05  -4.129056e+05
  -7.185789e+04  -6.588335e+05
   4.500950e+05  -6.561996e+05
   6.401167e+05  -3.995186e+05
   4.624409e+05   1.671008e+04
   1.064395e+05   3.633231e+05
  -1.631748e+05   3.585444e+05
  -1.350331e+05   1.179314e+04
   1.459856e+05  -2.597832e+05
   3.436832e+05  -1.193146e+05
   2.050113e+05   2.060680e+05
  -7.687413e+04   2.376259e+05
  -1.035639e+05  -3.748774e+04
   1.581071e+05  -1.371510e+05
   3.192227e+05   1.897459e+05
   1.129546e+05   5.817223e+05
  -2.769858e+05   5.686341e+05
  -5.202064e+05   1.643472e+05
  -5.189665e+05  -2.540617e+05
  -3.529627e+05  -4.371016e+05
  -8.495932e+04  -3.997297e+05
   1.846017e+05  -2.343813e+05
   2.597096e+05  -4.627654e+04
   8.428576e+04   1.243533e+04
  -8.213222e+04  -1.144393e+05
   3.522729e+04  -2.421177e+05
   3.172034e+05  -1.450129e+05
   3.828526e+05   1.164550e+05
   1.153371e+05   2.575261e+05
  -1.772687e+05   1.524309e+05
  -1.712135e+05  -2.833950e+04
   9.376178e+04  -7.887912e+04
   3.173132e+05   2.147418e+04
   2.754152e+05   1.794383e+05
  -1.576330e+04   3.025239e+05
  -3.469071e+05   2.875106e+05
  -4.542794e+05   7.151964e+04
  -2.271627e+05  -2.117135e+05
   1.377941e+05  -2.841788e+05
   2.823037e+05  -6.009847e+04
   7.209322e+04   1.910515e+05
  -2.385878e+05   1.612544e+05
  -3.055982e+05  -1.040929e+05
  -8.225793e+04  -2.830958e+05
   1.775684e+05  -1.925787e+05
   2.340309e+05   2.880253e+04
   7.923662e+04   1.388681e+05
  -1.105690e+05   5.387470e+04
  -1.419850e+05  -1.225913e+05
   4.285928e+04  -2.190263e+05
   2.891936e+05  -1.202482e+05
   3.357872e+05   1.316654e+05
   9.128167e+04   3.319128e+05
  -2.223432e+05   2.909673e+05
  -3.011766e+05   4.878589e+04
  -1.122722e+05  -1.582402e+05
   9.511783e+04  -1.656642e+05
   1.193964e+05  -4.078693e+04
   1.636323e+04   5.032782e+04
  -4.528323e+04   4.783095e+04
  -8.680518e+03   1.723739e+04
   5.544943e+04   3.251471e+04
   6.158855e+04   1.026804e+05
  -3.196662e+04   1.708552e+05
  -2.002974e+05   1.408555e+05
  -3.214987e+05  -4.235587e+04
  -2.470211e+05  -2.870327e+05
   1.531528e+04  -3.882743e+05
   2.529412e+05  -2.418432e+05
   2.749616e+05   1.492387e+04
   1.369903e+05   1.528570e+05
   4.294843e+04   1.121162e+05
   6.623761e+04   3.182286e+04
   8.833289e+04   3.938161e+04
   4.026737e+03   1.062830e+05
  -1.343757e+05   1.240780e+05
  -2.029786e+05   4.062850e+04
  -1.394279e+05  -1.038469e+05
   3.761353e+04  -2.093454e+05
   2.470075e+05  -1.653992e+05
   3.439797e+05   5.490815e+04
   2.019636e+05   3.117543e+05
  -1.252597e+05   3.828517e+05
  -3.898591e+05   1.941582e+05
  -3.865645e+05  -8.001014e+04
  -1.717148e+05  -2.082123e+05
   2.237757e+04  -1.559432e+05
   5.915811e+04  -8.346996e+04
   8.469652e+03  -1.182294e+05
   7.315128e+03  -2.089859e+05
   9.589165e+04  -2.125044e+05
   2.020360e+05  -6.402686e+04
   2.234192e+05   1.574643e+05
   1.098768e+05   2.953015e+05
  -8.246415e+04   2.382729e+05
  -2.058770e+05   1.986722e+04
  -1.458500e+05  -1.897813e+05
   4.343475e+04  -2.258187e+05
   1.753306e+05  -8.257272e+04
   1.330669e+05   9.337412e+04
  -3.222693e+03   1.655999e+05
  -6.652288e+04   1.305431e+05
  -6.840658e+03   7.410541e+04
   6.090294e+04   5.416545e+04
   3.385880e+03   5.653479e+04
  -1.722729e+05   3.574977e+04
  -3.123648e+05  -3.583655e+04
  -2.609875e+05  -1.421990e+05
  -2.037547e+04  -2.189847e+05
   2.284530e+05  -1.942667e+05
   2.885173e+05  -6.806479e+04
   1.432586e+05   6.106858e+04
  -3.382294e+04   8.636217e+04
  -7.679627e+04   1.009356e+04
   4.434246e+03  -5.976098e+04
   7.985332e+04  -3.471012e+04
   7.501531e+04   5.837656e+04
   3.055172e+04   1.163392e+05
   1.020767e+04   7.697825e+04
   2.216774e+04  -1.410028e+04
   3.830018e+04  -4.937197e+04
   3.110424e+04   2.620540e+04
  -2.338656e+04   1.424541e+05
  -1.217718e+05   1.623860e+05
  -1.898030e+05   3.403937e+04
  -1.270888e+05  -1.316649e+05
   5.471103e+04  -1.706858e+05
   1.877723e+05  -5.112970e+04
   1.155746e+05   9.042499e+04
  -1.082280e+05   1.065094e+05
  -2.552336e+05  -6.717753e+03
  -1.692694e+05  -1.309973e+05
   6.815031e+04  -1.621905e+05
   2.357696e+05  -9.154278e+04
   2.003970e+05   1.686411e+04
   2.868810e+04   8.202223e+04
  -9.907646e+04   5.464817e+04
  -6.368237e+04  -3.658999e+04
   8.664663e+04  -8.339450e+04
   1.845791e+05   5.848993e+03
   1.082748e+05   1.826961e+05
  -9.093169e+04   2.704434e+05
  -2.358991e+05   1.428020e+05
  -2.033638e+05  -1.190041e+05
  -3.868381e+04  -2.863954e+05
   1.114820e+05  -2.127227e+05
   1.479238e+05   1.745974e+04
   8.122755e+04   1.829192e+05
  -1.741982e+04   1.571738e+05
  -8.177378e+04   2.189296e+04
  -8.088220e+04  -5.451252e+04
  -3.455761e+04  -2.015003e+04
  -6.186449e+03   1.929565e+04
  -3.917969e+04  -3.883724e+04
  -8.670164e+04  -1.482960e+05
  -4.662874e+04  -1.742242e+05
   1.032851e+05  -7.088181e+04
   2.398383e+05   6.560387e+04
   2.145555e+05   1.262402e+05
   3.235179e+04   1.070355e+05
  -1.395474e+05   6.867045e+04
  -1.566455e+05   3.626167e+04
  -5.194302e+04  -3.294135e+03
   2.555211e+04  -3.821606e+04
   1.119612e+03  -3.744821e+04
  -4.682096e+04  -1.432591e+04
  -6.970621e+03  -1.645279e+04
   1.076450e+05  -3.747788e+04
   1.633885e+05  -4.980817e+03
   6.332220e+04   1.041239e+05
  -1.322581e+05   1.883513e+05
  -2.602784e+05   1.256030e+05
  -2.166362e+05  -6.441108e+04
  -4.766768e+04  -2.214024e+05
   1.101373e+05  -2.171952e+05
   1.583900e+05  -8.593294e+04
   1.032921e+05   3.334321e+04
   2.184521e+04   5.205031e+04
  -1.423766e+04   6.414956e+03
   1.043936e+04  -7.129885e+03
   5.261324e+04   5.271676e+04
   4.961619e+04   1.244351e+05
  -2.168151e+04   1.088105e+05
  -1.095993e+05  -1.534594e+04
  -1.219819e+05  -1.486459e+05
  -1.940790e+04  -1.632882e+05
   1.222852e+05  -3.886906e+04
   1.668116e+05   1.140477e+05
   5.700151e+04   1.701350e+05
  -1.095317e+05   1.058622e+05
  -1.726008e+05  -6.479564e+03
  -8.393951e+04  -8.664252e+04
   3.799345e+04  -1.014565e+05
   4.938469e+04  -6.083661e+04
  -4.528226e+04  -5.345484e+03
  -1.024273e+05   7.798648e+03
  -2.196867e+04  -4.656392e+04
   1.270053e+05  -1.134536e+05
   1.921796e+05  -9.800004e+04
   1.171056e+05   1.947576e+04
  -1.065863e+04   1.371143e+05
  -7.796885e+04   1.367771e+05
  -6.036897e+04   2.348616e+04
  -7.277956e+03  -7.770714e+04
   3.646357e+04  -6.615191e+04
   5.602504e+04   2.693355e+04
   4.235943e+04   8.990618e+04
  -7.022934e+03   6.323962e+04
  -6.233147e+04  -6.671419e+03
  -7.618562e+04  -3.826859e+04
  -3.912770e+04  -1.150840e+04
   4.690303e+03   1.912209e+04
   1.395554e+04  -1.515080e+03
   2.690009e+03  -5.879127e+04
   1.410610e+04  -8.192920e+04
   5.245021e+04  -2.735767e+04
   6.813488e+04   6.332011e+04
   1.945786e+04   1.018894e+05
  -6.504729e+04   4.895712e+04
  -1.024139e+05  -4.345933e+04
  -4.038498e+04  -9.012453e+04
   7.612951e+04  -5.949068e+04
   1.366046e+05   8.433728e+03
   7.690989e+04   5.680017e+04
  -4.387596e+04   6.236432e+04
  -9.945243e+04   3.618412e+04
  -3.692146e+04   2.748845e+03
   5.995928e+04  -1.050720e+04
   6.824539e+04   1.280576e+04
  -2.872692e+04   5.122238e+04
  -1.236864e+05   4.763374e+04
