
 $NMID
 id='ANONYMOUS ', fmtdat='(2E16.6)'
 volume=1.0
 tramp=1.0
 $END
   1.551916e+07   7.280314e+05
   9.580779e+06   8.905547e+06
  -1.393264e+06   1.018624e+07
  -7.426857e+06   5.066144e+06
  -5.190696e+06  -7.870770e+05
   3.045165e+05  -2.640378e+06
   2.937085e+06  -4.020497e+05
   1.462090e+06   2.658060e+06
  -1.383295e+06   3.376024e+06
  -2.849097e+06   1.130475e+06
  -2.144789e+06  -1.917703e+06
  -1.802720e+05  -2.796559e+06
   1.261364e+06  -6.622924e+05
   7.948105e+05   2.130312e+06
  -1.138720e+06   2.455993e+06
  -2.432423e+06  -1.401974e+05
  -1.491159e+06  -3.058933e+06
   1.025043e+06  -3.626993e+06
   2.995138e+06  -1.693020e+06
   3.019711e+06   8.316918e+05
   1.498506e+06   2.174838e+06
  -5.773174e+04   2.034164e+06
  -4.189323e+05   1.315217e+06
   3.184049e+05   1.086438e+06
   7.599302e+05   1.573480e+06
  -3.491804e+05   1.920719e+06
  -2.442818e+06   1.165070e+06
  -3.406884e+06  -4.700577e+05
  -1.999860e+06  -1.648159e+06
   4.859356e+05  -1.432655e+06
   1.637217e+06  -2.849418e+05
   6.686220e+05   6.341659e+05
  -9.699671e+05   6.595210e+05
  -1.551575e+06  -1.185701e+05
  -8.214369e+05  -1.173014e+06
   2.718548e+05  -1.688285e+06
   8.161420e+05  -1.011416e+06
   5.868620e+05   3.992057e+05
   8.837632e+02   1.006652e+06
  -2.195445e+05   9.955204e+03
   3.036293e+05  -1.278058e+06
   1.017741e+06  -9.265067e+05
   8.665616e+05   8.720888e+05
  -3.807046e+05   1.785761e+06
  -1.558309e+06   4.026043e+05
  -1.280303e+06  -1.804523e+06
   4.541767e+05  -2.313506e+06
   2.164878e+06  -6.056306e+05
   2.342998e+06   1.494617e+06
   8.172586e+05   2.116835e+06
  -1.168548e+06   1.105536e+06
  -2.020996e+06  -3.659459e+05
  -1.129591e+06  -1.116883e+06
   5.587826e+05  -7.671892e+05
   1.395196e+06   1.656179e+05
   7.131898e+05   7.243642e+05
  -4.678538e+05   3.981316e+05
  -6.942922e+05  -3.179982e+05
   1.578804e+05  -4.980887e+05
   8.199289e+05   8.270832e+04
   2.904032e+05   7.186464e+05
  -9.498769e+05   6.707500e+05
  -1.562886e+06  -9.213243e+04
  -8.250682e+05  -1.072020e+06
   7.599772e+05  -1.697845e+06
   2.049995e+06  -1.487602e+06
   2.213631e+06  -2.909929e+05
   1.290649e+06   1.291902e+06
   8.707721e+04   2.146638e+06
  -5.433390e+05   1.749122e+06
  -4.763205e+05   7.982012e+05
  -3.236590e+05   3.329581e+05
  -6.031707e+05   4.319954e+05
  -1.088632e+06   2.963560e+05
  -1.144000e+06  -4.572989e+05
  -5.277584e+05  -1.166360e+06
   3.550198e+05  -9.738022e+05
   8.796646e+05   8.062216e+04
   6.731904e+05   1.091393e+06
  -1.876384e+05   1.217603e+06
  -1.154467e+06   3.946742e+05
  -1.477698e+06  -7.278468e+05
  -8.566727e+05  -1.374929e+06
   1.522221e+05  -1.257501e+06
   6.909720e+05  -7.431190e+05
   6.174801e+05  -4.026223e+05
   6.218035e+05  -3.676968e+05
   1.177941e+06  -2.407032e+05
   1.745144e+06   3.353929e+05
   1.373954e+06   1.176684e+06
  -4.281727e+04   1.711161e+06
  -1.492303e+06   1.513087e+06
  -1.860007e+06   6.374298e+05
  -1.018114e+06  -4.089708e+05
   1.446971e+05  -9.566178e+05
   6.245436e+05  -6.654601e+05
   1.856389e+05   8.220857e+04
  -5.362318e+05   4.576342e+05
  -7.350559e+05   8.630544e+04
  -2.569392e+05  -4.714131e+05
   2.882070e+05  -4.243941e+05
   2.492799e+05   1.713328e+05
  -3.268175e+05   4.263819e+05
  -7.724736e+05  -2.275709e+05
  -5.304333e+05  -1.253473e+06
   3.272206e+05  -1.592334e+06
   1.232944e+06  -8.259049e+05
   1.588344e+06   4.529769e+05
   1.144107e+06   1.300136e+06
   1.804044e+05   1.253114e+06
  -6.179613e+05   5.972362e+05
  -6.980502e+05   1.447194e+04
  -2.071712e+05  -2.867366e+04
   1.249187e+05   3.213979e+05
  -1.729097e+05   5.014934e+05
  -7.268492e+05   1.808649e+05
  -7.788323e+05  -3.493098e+05
  -1.541401e+05  -5.317656e+05
   4.842396e+05  -2.077428e+05
   4.017448e+05   2.273595e+05
  -3.626502e+05   2.951849e+05
  -1.023570e+06  -9.855892e+04
  -8.525675e+05  -6.514988e+05
   1.023824e+05  -9.426004e+05
   1.052133e+06  -7.109763e+05
   1.195323e+06  -6.191778e+04
   4.703974e+05   5.191927e+05
  -3.876879e+05   5.390362e+05
  -5.759363e+05   3.008216e+04
  -1.272362e+04  -4.052045e+05
   6.383637e+05  -2.432517e+05
   7.022370e+05   3.443768e+05
   1.567407e+05   6.949673e+05
  -4.343148e+05   4.408314e+05
  -5.343404e+05  -9.172107e+04
  -1.290604e+05  -3.039561e+05
   3.024873e+05   4.881706e+03
   2.508027e+05   4.696428e+05
  -3.200430e+05   5.709921e+05
  -8.779429e+05   1.352011e+05
  -8.136934e+05  -5.214389e+05
  -9.892734e+04  -8.746410e+05
   6.261320e+05  -6.507625e+05
   7.173413e+05  -7.203365e+04
   2.092777e+05   3.548034e+05
  -2.839616e+05   3.245126e+05
  -2.912470e+05   6.211765e+02
   5.527293e+04  -2.123890e+05
   2.851942e+05  -1.218848e+05
   1.498042e+05   7.572929e+04
  -1.594367e+05   5.715716e+04
  -2.531790e+05  -2.378190e+05
   6.828184e+04  -5.036653e+05
   6.037921e+05  -3.619102e+05
   8.786089e+05   2.303848e+05
   5.635110e+05   8.684490e+05
  -1.632794e+05   1.038192e+06
  -7.379532e+05   6.023135e+05
  -7.685667e+05  -6.524101e+04
  -4.144361e+05  -4.523827e+05
  -1.357361e+05  -3.957186e+05
  -1.386888e+05  -1.698382e+05
  -1.988716e+05  -1.240965e+05
  -1.721346e+04  -2.934488e+05
   3.833124e+05  -3.878076e+05
   6.619120e+05  -1.384999e+05
   4.922580e+05   3.650248e+05
  -1.224523e+05   6.913141e+05
  -7.897141e+05   4.551782e+05
  -9.787216e+05  -2.667195e+05
  -4.546534e+05  -9.265239e+05
   4.531889e+05  -9.805940e+05
   1.080149e+06  -4.049233e+05
   1.013554e+06   2.951122e+05
   4.466328e+05   6.018134e+05
  -7.997920e+04   4.683299e+05
  -2.353754e+05   2.646119e+05
  -1.409321e+05   3.030462e+05
  -1.176899e+05   4.962979e+05
  -3.032420e+05   4.908281e+05
  -5.321731e+05   8.699830e+04
  -5.245679e+05  -5.055708e+05
  -1.719937e+05  -8.276671e+05
   3.167557e+05  -5.918801e+05
   5.534291e+05   3.199061e+04
   3.236791e+05   5.500563e+05
  -1.679621e+05   5.837597e+05
  -4.665233e+05   1.897504e+05
  -3.276433e+05  -2.494571e+05
   3.069109e+04  -4.204957e+05
   1.913495e+05  -3.319956e+05
   2.416516e+04  -2.013778e+05
  -1.672981e+05  -1.698318e+05
  -9.078482e+03  -1.747555e+05
   4.803082e+05  -6.937668e+04
   8.495365e+05   1.882718e+05
   6.631219e+05   4.721938e+05
  -2.230394e+04   5.866484e+05
  -6.691445e+05   4.295971e+05
  -7.748086e+05   9.334449e+04
  -3.579548e+05  -1.857954e+05
   1.060846e+05  -2.147586e+05
   2.094613e+05  -2.249335e+04
  -7.570856e+03   1.523940e+05
  -2.101716e+05   9.301589e+04
  -1.930300e+05  -1.579894e+05
  -5.372934e+04  -3.253732e+05
   6.433864e+03  -2.073355e+05
  -6.935006e+04   6.485797e+04
  -1.646746e+05   1.463301e+05
  -1.242664e+05  -1.113509e+05
   1.102113e+05  -4.387165e+05
   4.226178e+05  -4.262662e+05
   5.513364e+05  -1.039231e+04
   2.968112e+05   4.194026e+05
  -2.112137e+05   4.443079e+05
  -5.244598e+05   7.606512e+04
  -2.933589e+05  -2.779420e+05
   3.103322e+05  -2.677233e+05
   6.981551e+05   6.551894e+04
   4.586937e+05   3.943057e+05
  -2.024723e+05   4.465611e+05
  -6.731787e+05   2.138268e+05
  -5.605088e+05  -9.485157e+04
  -6.028271e+04  -2.351385e+05
   2.840374e+05  -1.119593e+05
   1.436019e+05   1.274191e+05
  -2.846207e+05   1.877347e+05
  -5.013856e+05  -9.794638e+04
  -2.207302e+05  -5.400387e+05
   3.396996e+05  -7.000480e+05
   6.807401e+05  -3.145442e+05
   5.175273e+05   3.755354e+05
   3.030978e+04   7.879419e+05
  -3.608690e+05   5.564290e+05
  -4.039008e+05  -8.440766e+04
  -1.720439e+05  -5.294089e+05
   1.010401e+05  -4.307230e+05
   2.407096e+05  -2.964770e+04
   2.092555e+05   1.856754e+05
   8.619846e+04   7.393082e+04
   1.511682e+04  -4.654204e+04
   8.160759e+04   1.198630e+05
   1.793165e+05   4.261033e+05
   7.519164e+04   4.780596e+05
  -2.916850e+05   1.557396e+05
  -6.289869e+05  -2.463263e+05
  -5.544535e+05  -4.025928e+05
  -6.328763e+04  -3.045970e+05
   4.031569e+05  -1.533911e+05
   4.410208e+05  -5.695062e+04
   1.388803e+05   2.011907e+04
  -7.649237e+04   8.991186e+04
   3.321043e+03   1.018739e+05
   1.369330e+05   6.682423e+04
   6.277548e+03   6.212850e+04
  -3.220098e+05   6.972717e+04
  -4.491029e+05  -4.678430e+04
  -1.284313e+05  -3.068748e+05
   4.238240e+05  -4.657744e+05
   7.409411e+05  -2.563829e+05
   5.660803e+05   2.428141e+05
   6.508589e+04   6.213963e+05
  -3.696889e+05   5.643282e+05
  -4.717747e+05   1.826296e+05
  -2.792803e+05  -1.371819e+05
  -3.467539e+04  -1.596164e+05
   5.331604e+04  -1.070131e+04
  -2.938570e+04   2.151607e+04
  -1.295878e+05  -1.631957e+05
  -8.882636e+04  -3.583751e+05
   1.050233e+05  -2.811077e+05
   2.933968e+05   9.174572e+04
   2.729551e+05   4.492233e+05
  -7.749705e+03   4.444694e+05
  -3.446704e+05   6.087095e+04
  -4.160498e+05  -3.631364e+05
  -1.023182e+05  -4.802025e+05
   3.326952e+05  -2.546883e+05
   4.711273e+05   7.393423e+04
   1.987249e+05   2.678185e+05
  -1.447427e+05   2.651631e+05
  -1.592777e+05   1.420803e+05
   1.257048e+05   1.884931e+04
   2.880656e+05   6.814266e+03
   4.777436e+04   1.341057e+05
  -3.785467e+05   2.698931e+05
  -5.459935e+05   2.087449e+05
  -3.057768e+05  -8.441225e+04
   7.019106e+04  -3.646884e+05
   2.487074e+05  -3.460723e+05
   1.699573e+05  -4.436673e+04
  -1.920713e+03   2.162707e+05
  -1.203389e+05   1.709166e+05
  -1.481371e+05  -9.126252e+04
  -8.904349e+04  -2.584128e+05
   3.994508e+04  -1.676885e+05
   1.662004e+05   3.899992e+04
   1.912659e+05   1.242635e+05
   1.023848e+05   3.863091e+04
  -2.043262e+03  -5.253534e+04
  -3.564611e+04   5.727636e+03
  -2.988585e+04   1.624064e+05
  -7.049624e+04   2.159478e+05
  -1.532172e+05   5.369036e+04
  -1.629996e+05  -1.966516e+05
  -1.796984e+04  -2.860762e+05
   1.946495e+05  -1.146876e+05
   2.672691e+05   1.524862e+05
   8.273223e+04   2.628276e+05
  -2.264850e+05   1.399680e+05
  -3.693133e+05  -6.788985e+04
  -1.900356e+05  -1.787497e+05
   1.389168e+05  -1.510263e+05
   2.776308e+05  -6.343930e+04
   9.565504e+04   1.123499e+03
  -1.682866e+05   3.640721e+03
  -1.793306e+05  -5.888562e+04
   9.720488e+04  -1.298352e+05
   3.534458e+05  -9.137543e+04
