
 $NMID
 id='ANONYMOUS ', fmtdat='(2E16.6)'
 volume=1.0
 tramp=1.0
 $END
   4.491980e+07  -1.381915e+06
   2.851641e+07   2.570222e+07
  -3.830345e+06   3.025073e+07
  -2.119077e+07   1.379651e+07
  -1.399879e+07  -3.736615e+06
   1.693879e+06  -7.673946e+06
   8.162258e+06  -2.493546e+05
   3.383990e+06   7.646414e+06
  -4.194247e+06   8.604378e+06
  -7.825043e+06   2.609978e+06
  -6.068807e+06  -4.960433e+06
  -9.014578e+05  -7.356167e+06
   3.346829e+06  -2.233846e+06
   2.483884e+06   4.983197e+06
  -2.800185e+06   6.119737e+06
  -6.586945e+06  -4.944025e+05
  -4.212725e+06  -8.191662e+06
   2.535166e+06  -9.882919e+06
   8.027416e+06  -5.095298e+06
   8.699781e+06   1.556020e+06
   5.161729e+06   5.865421e+06
   5.449563e+05   6.490974e+06
  -1.734877e+06   4.491309e+06
  -4.689568e+05   2.476101e+06
   1.547159e+06   2.659768e+06
   3.754870e+02   4.188550e+06
  -5.174064e+06   3.775364e+06
  -8.582941e+06   1.832468e+05
  -5.919620e+06  -3.619713e+06
   2.262419e+05  -4.195749e+06
   3.636863e+06  -1.832366e+06
   2.063034e+06   5.994351e+05
  -1.283985e+06   1.307078e+06
  -2.828437e+06   2.856467e+05
  -2.070600e+06  -1.904076e+06
  -1.910136e+05  -3.804238e+06
   1.676309e+06  -3.072793e+06
   2.278051e+06   4.430999e+05
   9.763829e+05   2.909085e+06
  -6.027029e+05   9.981491e+05
   6.816756e+03  -2.640057e+06
   2.206118e+06  -2.268104e+06
   2.280361e+06   2.448224e+06
  -1.363984e+06   5.079458e+06
  -5.095042e+06   1.192610e+06
  -4.219727e+06  -5.208327e+06
   1.080228e+06  -6.820389e+06
   5.941606e+06  -2.174898e+06
   6.210434e+06   3.507484e+06
   2.086810e+06   5.197744e+06
  -2.881192e+06   2.716372e+06
  -4.887718e+06  -9.082627e+05
  -2.567487e+06  -2.854768e+06
   1.759749e+06  -2.048933e+06
   3.837412e+06   4.633332e+05
   1.848105e+06   2.101672e+06
  -1.335496e+06   1.210568e+06
  -1.678968e+06  -7.926412e+05
   7.859951e+05  -1.067099e+06
   2.184411e+06   8.548123e+05
   1.435040e+05   2.506264e+06
  -3.237093e+06   1.843899e+06
  -4.354604e+06  -5.645130e+05
  -2.191527e+06  -3.031307e+06
   1.499816e+06  -4.522571e+06
   4.508065e+06  -4.238166e+06
   5.417790e+06  -1.449783e+06
   3.820903e+06   2.798413e+06
   8.177013e+05   5.384446e+06
  -1.322856e+06   4.342628e+06
  -1.326277e+06   1.513859e+06
  -4.018274e+05   2.312097e+05
  -5.647850e+05   1.000219e+06
  -1.915392e+06   1.353873e+06
  -2.693518e+06  -2.184398e+05
  -1.734087e+06  -2.169103e+06
   2.610529e+05  -2.190643e+06
   1.765503e+06  -1.259762e+05
   1.719572e+06   2.157517e+06
  -5.646321e+04   2.827672e+06
  -2.592996e+06   1.399938e+06
  -3.918147e+06  -1.201297e+06
  -2.693974e+06  -3.252174e+06
   2.825118e+04  -3.476128e+06
   1.779351e+06  -2.232885e+06
   1.719508e+06  -1.072122e+06
   1.536035e+06  -8.166575e+05
   2.710267e+06  -6.550815e+05
   4.097156e+06   5.174154e+05
   3.372162e+06   2.484286e+06
   2.349630e+05   3.925556e+06
  -3.026442e+06   3.774885e+06
  -4.026546e+06   1.976688e+06
  -2.492983e+06  -5.351503e+05
  -1.000123e+05  -2.180563e+06
   1.164139e+06  -1.770267e+06
   5.141917e+05   9.153121e+04
  -1.073356e+06   1.235510e+06
  -1.766310e+06   3.927484e+05
  -8.112232e+05  -1.097937e+06
   5.387794e+05  -1.077240e+06
   5.346119e+05   3.508606e+05
  -8.334613e+05   8.804182e+05
  -1.818152e+06  -7.729224e+05
  -1.068128e+06  -3.047662e+06
   9.650350e+05  -3.499111e+06
   2.823832e+06  -1.610880e+06
   3.435655e+06   1.037538e+06
   2.528513e+06   2.671707e+06
   5.685256e+05   2.647608e+06
  -1.221693e+06   1.448101e+06
  -1.550088e+06   2.049322e+05
  -4.757067e+05  -3.538743e+04
   3.638106e+05   7.134873e+05
  -3.260286e+05   1.253182e+06
  -1.735170e+06   5.914741e+05
  -1.935348e+06  -7.321829e+05
  -4.424686e+05  -1.294654e+06
   1.097310e+06  -5.989547e+05
   9.333395e+05   4.171277e+05
  -7.660094e+05   6.339639e+05
  -2.212055e+06  -1.317456e+05
  -1.881991e+06  -1.279993e+06
   1.193447e+05  -2.026815e+06
   2.217291e+06  -1.732153e+06
   2.690907e+06  -3.453474e+05
   1.191010e+06   1.155229e+06
  -8.230931e+05   1.400931e+06
  -1.421284e+06   2.002193e+05
  -1.745531e+05  -9.935727e+05
   1.431513e+06  -7.247852e+05
   1.681158e+06   6.840696e+05
   4.269462e+05   1.582568e+06
  -9.807583e+05   1.036682e+06
  -1.244738e+06  -1.927742e+05
  -3.162299e+05  -7.248886e+05
   7.282940e+05  -8.370710e+04
   7.142933e+05   9.906975e+05
  -5.465965e+05   1.372642e+06
  -1.933351e+06   5.368010e+05
  -1.970881e+06  -9.867767e+05
  -4.099461e+05  -1.983329e+06
   1.331376e+06  -1.613599e+06
   1.651912e+06  -2.642090e+05
   5.301593e+05   8.152050e+05
  -6.064600e+05   8.073845e+05
  -6.496601e+05   7.906925e+04
   7.896565e+04  -4.245638e+05
   5.334111e+05  -2.818611e+05
   2.351385e+05   8.775123e+04
  -3.809993e+05   3.940423e+04
  -5.541750e+05  -5.592469e+05
   1.163212e+05  -1.140779e+06
   1.297191e+06  -9.108733e+05
   2.020413e+06   3.473537e+05
   1.450746e+06   1.844800e+06
  -1.644563e+05   2.361321e+06
  -1.547526e+06   1.450488e+06
  -1.693402e+06  -5.072087e+04
  -9.254048e+05  -9.043643e+05
  -3.385086e+05  -7.474692e+05
  -3.984073e+05  -2.744143e+05
  -5.385987e+05  -2.578851e+05
  -9.594935e+04  -6.869150e+05
   8.053576e+05  -9.055701e+05
   1.413259e+06  -3.850459e+05
   1.087620e+06   6.950720e+05
  -1.789757e+05   1.485238e+06
  -1.656139e+06   1.119765e+06
  -2.214249e+06  -4.118820e+05
  -1.177957e+06  -2.001344e+06
   8.726690e+05  -2.309999e+06
   2.400082e+06  -1.093502e+06
   2.322841e+06   5.304831e+05
   1.040783e+06   1.280037e+06
  -1.374614e+05   9.985331e+05
  -4.246408e+05   5.686427e+05
  -1.583513e+05   7.164351e+05
  -1.193553e+05   1.204168e+06
  -6.048369e+05   1.215994e+06
  -1.214747e+06   3.203630e+05
  -1.301277e+06  -1.026203e+06
  -5.670941e+05  -1.828141e+06
   5.841493e+05  -1.403637e+06
   1.252780e+06  -3.420491e+04
   8.303790e+05   1.200265e+06
  -3.045662e+05   1.357901e+06
  -1.067823e+06   4.739067e+05
  -7.978733e+05  -5.742344e+05
   3.669713e+04  -1.000248e+06
   4.310763e+05  -7.829171e+05
   4.620272e+04  -4.364455e+05
  -4.116300e+05  -3.320449e+05
  -5.637200e+04  -3.763369e+05
   1.083419e+06  -2.374171e+05
   1.970140e+06   2.639156e+05
   1.587855e+06   9.475908e+05
   3.821819e+04   1.359545e+06
  -1.463370e+06   1.123812e+06
  -1.751816e+06   3.384375e+05
  -8.377911e+05  -4.036292e+05
   2.159386e+05  -5.297393e+05
   4.805088e+05  -6.840159e+04
   2.238556e+04   3.700802e+05
  -4.421000e+05   2.470214e+05
  -4.659480e+05  -3.224864e+05
  -2.153415e+05  -7.048818e+05
  -6.136640e+04  -4.624721e+05
  -1.382225e+05   1.242550e+05
  -3.013492e+05   3.237891e+05
  -2.808445e+05  -2.155987e+05
   1.397417e+05  -9.725980e+05
   8.485267e+05  -1.043481e+06
   1.265302e+06  -1.719749e+05
   7.942041e+05   8.680290e+05
  -3.774419e+05   1.073256e+06
  -1.181315e+06   3.133441e+05
  -7.150738e+05  -5.542817e+05
   6.582707e+05  -6.517136e+05
   1.563035e+06   4.061828e+04
   1.048709e+06   8.117487e+05
  -4.130283e+05   1.006807e+06
  -1.461637e+06   5.504669e+05
  -1.240622e+06  -1.346757e+05
  -1.603973e+05  -5.082684e+05
   6.227529e+05  -2.935149e+05
   3.671686e+05   2.649223e+05
  -5.750855e+05   4.984419e+05
  -1.145123e+06  -8.393796e+04
  -6.397097e+05  -1.146459e+06
   5.789045e+05  -1.648863e+06
   1.442586e+06  -8.632978e+05
   1.233718e+06   7.267584e+05
   2.256700e+05   1.749045e+06
  -6.994656e+05   1.294610e+06
  -9.142745e+05  -1.326762e+05
  -4.667719e+05  -1.153209e+06
   1.683156e+05  -9.689763e+05
   5.392395e+05  -1.060397e+05
   4.823964e+05   3.666561e+05
   1.844918e+05   1.410878e+05
   3.749552e+04  -1.019626e+05
   2.471143e+05   2.632489e+05
   5.037209e+05   9.244294e+05
   2.335436e+05   1.056292e+06
  -6.585403e+05   4.072290e+05
  -1.451855e+06  -4.265927e+05
  -1.290078e+06  -7.943801e+05
  -1.976933e+05  -6.727485e+05
   8.452440e+05  -4.206026e+05
   9.654026e+05  -2.040824e+05
   3.365352e+05   2.994815e+04
  -1.454623e+05   2.195718e+05
  -7.814377e+03   2.157542e+05
   2.842481e+05   1.039794e+05
   4.195475e+04   1.294083e+05
  -6.662845e+05   2.301567e+05
  -1.016517e+06   1.876444e+03
  -3.997272e+05  -6.578110e+05
   8.186952e+05  -1.146610e+06
   1.623353e+06  -7.544651e+05
   1.352621e+06   4.025167e+05
   2.857791e+05   1.367877e+06
  -7.135745e+05   1.348736e+06
  -1.009938e+06   5.297017e+05
  -6.450755e+05  -2.266515e+05
  -1.278361e+05  -3.451410e+05
   8.483725e+04  -5.047431e+04
  -7.367688e+04   3.390885e+04
  -3.112035e+05  -3.473871e+05
  -2.653852e+05  -7.841319e+05
   1.650737e+05  -6.603376e+05
   6.684220e+05   1.187838e+05
   7.253022e+05   9.238744e+05
   1.122847e+05   9.971960e+05
  -7.373694e+05   2.367120e+05
  -1.014390e+06  -6.966638e+05
  -3.499647e+05  -1.051341e+06
   6.815515e+05  -6.607637e+05
   1.081410e+06   5.342442e+04
   5.220680e+05   5.715481e+05
  -2.617555e+05   6.503009e+05
  -3.465614e+05   3.647055e+05
   2.563638e+05   1.254442e+04
   6.358965e+05  -4.854026e+04
   1.442002e+05   2.929994e+05
  -7.906799e+05   6.806070e+05
  -1.204090e+06   5.664488e+05
  -7.324324e+05  -1.419558e+05
   7.621961e+04  -8.423364e+05
   5.052973e+05  -8.413777e+05
   3.937988e+05  -1.579739e+05
   5.319318e+04   4.706372e+05
  -2.252781e+05   4.204353e+05
  -3.446706e+05  -1.495197e+05
  -2.576007e+05  -5.571950e+05
   4.372306e+04  -4.044021e+05
   3.802170e+05   4.093954e+04
   4.662246e+05   2.530961e+05
   2.396057e+05   8.036629e+04
  -3.175729e+04  -1.338632e+05
  -8.516589e+04  -1.875370e+04
  -7.245553e+02   3.493087e+05
  -6.011394e+04   5.177738e+05
  -3.098643e+05   1.943335e+05
  -4.344222e+05  -3.718073e+05
  -1.434544e+05  -6.253506e+05
   3.961713e+05  -3.077889e+05
   6.432602e+05   2.645413e+05
   2.524222e+05   5.570344e+05
  -4.822578e+05   3.660854e+05
  -8.529823e+05  -5.842469e+04
  -4.711983e+05  -3.570154e+05
   2.755987e+05  -3.870247e+05
   6.119533e+05  -2.254532e+05
   2.334862e+05  -2.334260e+04
  -3.472173e+05   6.166184e+04
  -4.009599e+05  -6.770931e+04
   1.698600e+05  -2.933017e+05
   7.357589e+05  -2.768676e+05
