
 $NMID
 id='ANONYMOUS ', fmtdat='(2E16.6)'
 volume=1.0
 tramp=1.0
 $END
  -5.873776e+07   1.442709e+05
  -3.526984e+07  -3.660303e+07
   7.944744e+06  -3.985722e+07
   2.884961e+07  -1.500407e+07
   1.704763e+07   7.617564e+06
  -3.598377e+06   9.704483e+06
  -1.018917e+07  -1.485724e+06
  -2.701809e+06  -1.020423e+07
   6.570966e+06  -9.517830e+06
   1.001903e+07  -1.920840e+06
   7.226675e+06   6.403137e+06
   8.633425e+05   8.842040e+06
  -4.097258e+06   2.883907e+06
  -2.694081e+06  -5.497103e+06
   3.924453e+06  -6.645186e+06
   8.149748e+06   1.464950e+06
   4.560607e+06   1.059285e+07
  -3.956194e+06   1.222230e+07
  -1.049080e+07   6.157580e+06
  -1.126985e+07  -2.058016e+06
  -7.005887e+06  -7.768746e+06
  -8.101624e+05  -9.110939e+06
   3.119256e+06  -6.427538e+06
   2.155595e+06  -2.757065e+06
  -1.007741e+06  -2.017172e+06
  -3.492968e+05  -4.143702e+06
   5.385494e+06  -4.565584e+06
   9.858552e+06  -6.562636e+05
   7.311864e+06   4.161419e+06
   4.126485e+05   5.236069e+06
  -3.692173e+06   2.766532e+06
  -2.556423e+06   1.840726e+05
   4.366480e+05  -8.495538e+05
   2.134441e+06  -5.548900e+05
   2.226013e+06   1.293109e+06
   8.457342e+05   3.933104e+06
  -1.784229e+06   4.036001e+06
  -3.440097e+06   1.067766e+04
  -1.910704e+06  -3.769766e+06
   7.911120e+05  -2.140397e+06
   4.432873e+05   2.399863e+06
  -2.489823e+06   2.325423e+06
  -2.506069e+06  -3.333572e+06
   2.609490e+06  -6.377881e+06
   7.341650e+06  -1.035543e+06
   5.369301e+06   7.249655e+06
  -2.019900e+06   8.907011e+06
  -7.719650e+06   2.530107e+06
  -7.135831e+06  -4.594754e+06
  -1.834003e+06  -6.193061e+06
   3.583769e+06  -2.731753e+06
   5.346071e+06   1.625092e+06
   2.415169e+06   3.607952e+06
  -2.542996e+06   2.246211e+06
  -4.681010e+06  -9.889000e+05
  -1.990983e+06  -2.839069e+06
   1.789118e+06  -1.417189e+06
   1.758875e+06   1.066095e+06
  -1.434713e+06   8.985585e+05
  -2.558839e+06  -1.929490e+06
   7.487725e+05  -3.652312e+06
   4.910538e+06  -1.957605e+06
   5.516785e+06   1.481300e+06
   2.377241e+06   4.159848e+06
  -1.823287e+06   5.434544e+06
  -5.070876e+06   5.008528e+06
  -6.340422e+06   1.860580e+06
  -4.769249e+06  -3.192643e+06
  -1.021551e+06  -6.330228e+06
   1.942209e+06  -4.877721e+06
   1.853625e+06  -1.172977e+06
   1.193421e+05   3.589671e+05
  -1.653167e+05  -9.699893e+05
   1.519974e+06  -1.896149e+06
   2.838883e+06  -3.631855e+05
   2.110190e+06   1.865419e+06
   1.044993e+05   2.139912e+06
  -1.510896e+06   2.337613e+05
  -1.690031e+06  -2.054141e+06
  -3.887906e+04  -2.967626e+06
   2.796901e+06  -1.736908e+06
   4.610083e+06   1.151836e+06
   3.375498e+06   3.847410e+06
   2.623286e+02   4.399859e+06
  -2.364483e+06   2.851266e+06
  -2.341954e+06   1.176398e+06
  -1.902406e+06   6.712091e+05
  -3.005862e+06   4.630809e+05
  -4.432860e+06  -7.905466e+05
  -3.548352e+06  -2.822322e+06
  -1.326826e+05  -4.196919e+06
   3.242460e+06  -3.972668e+06
   4.217726e+06  -2.193771e+06
   2.711837e+06   3.781218e+05
   3.336447e+05   2.257793e+06
  -1.077980e+06   1.991266e+06
  -5.785370e+05  -1.885548e+04
   1.090972e+06  -1.343313e+06
   1.952746e+06  -4.156963e+05
   9.638213e+05   1.233185e+06
  -5.096788e+05   1.133693e+06
  -4.076906e+05  -4.026185e+05
   1.132528e+06  -6.660764e+05
   1.894989e+06   1.415222e+06
   5.685425e+05   3.622792e+06
  -1.745156e+06   3.427765e+06
  -3.243391e+06   1.012333e+06
  -3.308762e+06  -1.544730e+06
  -2.236044e+06  -2.793912e+06
  -4.372851e+05  -2.616565e+06
   1.246560e+06  -1.485235e+06
   1.595110e+06  -2.447703e+05
   5.018059e+05   4.631016e+04
  -3.638871e+05  -7.681983e+05
   4.346649e+05  -1.382021e+06
   1.971988e+06  -5.923418e+05
   2.087486e+06   9.305111e+05
   3.794437e+05   1.465557e+06
  -1.203944e+06   5.739533e+05
  -8.854503e+05  -4.696922e+05
   8.836823e+05  -4.945673e+05
   2.194249e+06   3.745060e+05
   1.720951e+06   1.388069e+06
  -2.856660e+05   1.972113e+06
  -2.350115e+06   1.653722e+06
  -2.822404e+06   2.668277e+05
  -1.243868e+06  -1.305293e+06
   9.483300e+05  -1.554182e+06
   1.617731e+06  -1.988670e+05
   2.189713e+05   1.116928e+06
  -1.554428e+06   7.566633e+05
  -1.751403e+06  -8.133162e+05
  -3.173543e+05  -1.691285e+06
   1.138111e+06  -9.704960e+05
   1.276386e+06   3.525084e+05
   2.261798e+05   8.099622e+05
  -8.295859e+05   5.037492e+04
  -7.590221e+05  -1.081217e+06
   5.818242e+05  -1.459908e+06
   2.048704e+06  -5.636947e+05
   2.084452e+06   1.068368e+06
   3.913909e+05   2.124330e+06
  -1.482842e+06   1.677658e+06
  -1.768288e+06   2.019203e+05
  -5.005293e+05  -8.945461e+05
   6.806185e+05  -8.125111e+05
   6.318091e+05  -7.820523e+04
  -1.353875e+05   3.411806e+05
  -4.808170e+05   1.833880e+05
  -8.035735e+04  -6.056354e+04
   4.811074e+05   1.171876e+05
   5.144708e+05   7.184671e+05
  -2.353176e+05   1.217352e+06
  -1.421096e+06   9.059977e+05
  -2.125259e+06  -4.294855e+05
  -1.495874e+06  -1.987242e+06
   2.223128e+05  -2.464211e+06
   1.645566e+06  -1.418263e+06
   1.702063e+06   1.472997e+05
   8.409842e+05   8.960275e+05
   3.118139e+05   6.169799e+05
   5.110251e+05   1.937509e+05
   6.697434e+05   3.306661e+05
   9.679282e+04   7.994431e+05
  -9.048604e+05   9.122619e+05
  -1.471406e+06   3.123275e+05
  -1.046068e+06  -7.324991e+05
   2.725147e+05  -1.462073e+06
   1.754458e+06  -1.072491e+06
   2.281050e+06   5.009519e+05
   1.138341e+06   2.148436e+06
  -1.056563e+06   2.413960e+06
  -2.612781e+06   1.031844e+06
  -2.384754e+06  -7.017855e+05
  -9.362893e+05  -1.368116e+06
   2.317353e+05  -9.329237e+05
   3.755813e+05  -4.905024e+05
   3.952479e+04  -7.710686e+05
   8.539429e+04  -1.357576e+06
   6.907287e+05  -1.332933e+06
   1.332244e+06  -3.313186e+05
   1.370475e+06   1.098705e+06
   5.716155e+05   1.930092e+06
  -6.299743e+05   1.465597e+06
  -1.308237e+06  -7.885907e+03
  -8.206243e+05  -1.321437e+06
   4.188443e+05  -1.425734e+06
   1.209366e+06  -3.892963e+05
   8.300642e+05   7.482463e+05
  -1.513231e+05   1.117676e+06
  -5.798383e+05   7.931958e+05
  -1.003105e+05   4.110417e+05
   4.482280e+05   3.346669e+05
   6.544098e+04   3.876967e+05
  -1.182894e+06   2.100908e+05
  -2.120265e+06  -3.451866e+05
  -1.649757e+06  -1.068473e+06
   5.889795e+04  -1.479312e+06
   1.644882e+06  -1.170980e+06
   1.876821e+06  -2.681499e+05
   8.426680e+05   5.320618e+05
  -2.770902e+05   5.936901e+05
  -5.294820e+05   2.299889e+04
  -4.076210e+04  -4.465487e+05
   4.416796e+05  -2.695518e+05
   4.953987e+05   3.471179e+05
   2.824143e+05   7.301399e+05
   1.201439e+05   4.867808e+05
   1.374297e+05  -8.115873e+04
   2.670145e+05  -2.789391e+05
   2.767507e+05   2.391611e+05
  -1.309492e+05   9.981286e+05
  -9.159910e+05   1.093412e+06
  -1.416049e+06   1.977534e+05
  -8.992512e+05  -9.293533e+05
   4.201583e+05  -1.185571e+06
   1.298029e+06  -3.713335e+05
   7.538701e+05   5.741863e+05
  -7.212635e+05   6.573905e+05
  -1.608300e+06  -1.098889e+05
  -9.924764e+05  -8.857892e+05
   5.176696e+05  -9.875030e+05
   1.520260e+06  -4.528119e+05
   1.233227e+06   2.128528e+05
   1.235698e+05   5.176421e+05
  -6.650891e+05   2.623659e+05
  -4.014349e+05  -3.076876e+05
   5.815761e+05  -5.488045e+05
   1.210187e+06   5.550344e+04
   7.176767e+05   1.190243e+06
  -5.600113e+05   1.752195e+06
  -1.492935e+06   9.333082e+05
  -1.287249e+06  -7.531073e+05
  -2.213791e+05  -1.818218e+06
   7.472403e+05  -1.306354e+06
   9.376634e+05   1.954292e+05
   4.235271e+05   1.215169e+06
  -2.468258e+05   9.723850e+05
  -5.805398e+05   7.619021e+04
  -4.561191e+05  -3.774659e+05
  -1.443581e+05  -1.316176e+05
  -5.789004e+04   9.004641e+04
  -3.198013e+05  -3.158579e+05
  -5.369557e+05  -9.889453e+05
  -1.715033e+05  -1.092071e+06
   7.588115e+05  -4.003249e+05
   1.500378e+06   4.644586e+05
   1.281123e+06   8.449576e+05
   1.889904e+05   7.165985e+05
  -8.418616e+05   4.362119e+05
  -9.921071e+05   1.824999e+05
  -3.892133e+05  -6.726831e+04
   1.366510e+05  -2.340035e+05
   6.524061e+04  -1.934848e+05
  -2.381488e+05  -7.557739e+04
  -6.602478e+04  -1.335054e+05
   6.366863e+05  -2.611458e+05
   1.072794e+06  -1.022404e+04
   4.998503e+05   7.082151e+05
  -8.126237e+05   1.233626e+06
  -1.749931e+06   8.180701e+05
  -1.489924e+06  -4.034128e+05
  -3.129832e+05  -1.426159e+06
   7.752850e+05  -1.426034e+06
   1.065843e+06  -5.877591e+05
   6.675555e+05   2.082379e+05
   1.570574e+05   3.650948e+05
  -4.010196e+04   9.075519e+04
   9.394372e+04   6.591690e+03
   2.944845e+05   3.823617e+05
   2.484393e+05   8.221331e+05
  -1.660316e+05   7.043529e+05
  -6.907268e+05  -8.792162e+04
  -7.923617e+05  -9.357276e+05
  -1.761464e+05  -1.056503e+06
   7.429578e+05  -3.021612e+05
   1.081973e+06   6.848475e+05
   3.990185e+05   1.109446e+06
  -7.112106e+05   7.321904e+05
  -1.162652e+06  -4.658672e+04
  -5.743833e+05  -6.425202e+05
   2.847891e+05  -7.317495e+05
   4.122672e+05  -3.898541e+05
  -2.190192e+05   8.679624e+03
  -6.539142e+05   5.702489e+04
  -1.668781e+05  -3.190077e+05
   8.318832e+05  -7.024927e+05
   1.306624e+06  -5.463274e+05
   8.158472e+05   1.961468e+05
  -8.053114e+04   9.036755e+05
  -5.800207e+05   8.980363e+05
  -4.672486e+05   1.977516e+05
  -8.243649e+04  -4.743015e+05
   2.299737e+05  -4.684981e+05
   3.608953e+05   1.121463e+05
   2.755316e+05   5.839445e+05
  -3.751043e+04   4.668841e+05
  -4.019392e+05  -2.403194e+04
  -5.022426e+05  -3.003003e+05
  -2.496664e+05  -1.140740e+05
   5.391135e+04   1.781978e+05
   8.525272e+04   9.505902e+04
  -6.437307e+04  -3.406286e+05
  -2.353709e+04  -5.996079e+05
   3.016358e+05  -2.895029e+05
   5.199081e+05   3.397223e+05
   2.318689e+05   6.541517e+05
  -3.940356e+05   3.465227e+05
  -7.072920e+05  -2.497995e+05
  -2.887831e+05  -5.674941e+05
   5.210873e+05  -3.890540e+05
   9.237484e+05   4.359956e+04
   5.076862e+05   3.750857e+05
  -2.919648e+05   4.406653e+05
  -6.577354e+05   2.778257e+05
  -2.822408e+05   2.930264e+04
   3.152978e+05  -1.052276e+05
   4.036813e+05   1.789376e+04
  -1.344893e+05   2.788283e+05
  -7.032200e+05   2.957911e+05
