
 $NMID
 id='ANONYMOUS ', fmtdat='(2E16.6)'
 volume=1.0
 tramp=1.0
 $END
   4.202337e+07  -2.734582e+06
   2.814803e+07   2.214153e+07
  -1.633289e+06   2.826375e+07
  -1.913605e+07   1.481777e+07
  -1.389900e+07  -1.910757e+06
   7.605687e+05  -7.430223e+06
   7.951351e+06  -1.295031e+06
   4.193130e+06   7.055130e+06
  -3.288034e+06   9.065729e+06
  -7.449953e+06   3.330464e+06
  -6.116551e+06  -4.636042e+06
  -1.075851e+06  -7.301300e+06
   3.260003e+06  -2.145556e+06
   2.655011e+06   5.191699e+06
  -2.442831e+06   6.491450e+06
  -6.437557e+06   4.046829e+04
  -4.537552e+06  -7.700951e+06
   1.936194e+06  -9.660861e+06
   7.465920e+06  -5.122386e+06
   8.207878e+06   1.347170e+06
   4.759273e+06   5.362780e+06
   5.533076e+05   5.726660e+06
  -1.098952e+06   3.951948e+06
   3.939511e+05   2.626073e+06
   1.969865e+06   3.276713e+06
  -1.761715e+05   4.613351e+06
  -5.536224e+06   3.748008e+06
  -8.738198e+06   1.389569e+04
  -5.795495e+06  -3.631213e+06
   5.414914e+05  -4.043814e+06
   3.934673e+06  -1.534332e+06
   1.984448e+06   1.053190e+06
  -1.873221e+06   1.657816e+06
  -3.469466e+06   1.538328e+05
  -2.174822e+06  -2.413735e+06
   1.324444e+05  -4.094881e+06
   1.752501e+06  -2.869457e+06
   1.873331e+06   6.908032e+05
   6.102716e+05   2.708534e+06
  -5.224161e+05   4.953920e+05
   2.489922e+05  -3.014677e+06
   2.266137e+06  -2.474441e+06
   2.421808e+06   2.207559e+06
  -7.776001e+05   4.933934e+06
  -4.401325e+06   1.480734e+06
  -4.103831e+06  -4.583914e+06
   5.985288e+05  -6.411718e+06
   5.561068e+06  -2.272470e+06
   6.373360e+06   3.226930e+06
   2.472502e+06   5.183274e+06
  -2.785183e+06   3.008718e+06
  -5.154014e+06  -5.885146e+05
  -2.935512e+06  -2.739107e+06
   1.505977e+06  -2.183169e+06
   3.789495e+06   1.901279e+05
   1.987694e+06   1.911624e+06
  -1.215892e+06   1.242692e+06
  -1.816113e+06  -7.194060e+05
   5.193249e+05  -1.289777e+06
   2.240579e+06   3.468032e+05
   6.812486e+05   2.173037e+06
  -2.654440e+06   2.028858e+06
  -4.196384e+06  -8.435872e+04
  -2.351825e+06  -2.718323e+06
   1.438311e+06  -4.494205e+06
   4.620807e+06  -4.270076e+06
   5.444119e+06  -1.413078e+06
   3.710170e+06   2.826764e+06
   8.307785e+05   5.405484e+06
  -1.099106e+06   4.511302e+06
  -1.188061e+06   1.864527e+06
  -6.136401e+05   5.566025e+05
  -1.007489e+06   1.089191e+06
  -2.291565e+06   1.189871e+06
  -2.862629e+06  -5.373379e+05
  -1.701878e+06  -2.528881e+06
   4.768825e+05  -2.425395e+06
   2.073437e+06  -7.940889e+04
   1.909696e+06   2.422770e+06
  -1.007987e+05   3.031490e+06
  -2.727321e+06   1.372413e+06
  -3.938041e+06  -1.315903e+06
  -2.622182e+06  -3.229572e+06
   1.051867e+04  -3.326259e+06
   1.619502e+06  -2.144742e+06
   1.552092e+06  -1.144013e+06
   1.494745e+06  -9.888537e+05
   2.823543e+06  -8.375007e+05
   4.330740e+06   4.029867e+05
   3.626520e+06   2.536152e+06
   3.306793e+05   4.170653e+06
  -3.194307e+06   4.055025e+06
  -4.311072e+06   2.071175e+06
  -2.620260e+06  -6.587133e+05
   6.262499e+03  -2.347704e+06
   1.315174e+06  -1.829150e+06
   5.310395e+05   1.350990e+05
  -1.162596e+06   1.304861e+06
  -1.841178e+06   4.318073e+05
  -8.190180e+05  -1.128016e+06
   6.030098e+05  -1.157359e+06
   6.597979e+05   3.583261e+05
  -7.584705e+05   1.094616e+06
  -1.978011e+06  -4.969048e+05
  -1.466003e+06  -3.054247e+06
   6.376805e+05  -3.910910e+06
   2.894084e+06  -2.109630e+06
   3.861349e+06   8.668862e+05
   2.944370e+06   2.875404e+06
   6.995426e+05   2.928771e+06
  -1.325347e+06   1.574311e+06
  -1.678528e+06   2.083617e+05
  -5.096864e+05  -3.169546e+04
   4.040225e+05   7.533671e+05
  -2.916340e+05   1.312840e+06
  -1.778444e+06   6.627990e+05
  -2.055352e+06  -6.876853e+05
  -5.313251e+05  -1.332914e+06
   1.146604e+06  -6.802853e+05
   1.054885e+06   4.267016e+05
  -7.790535e+05   7.755614e+05
  -2.445905e+06  -9.624340e+03
  -2.159908e+06  -1.348099e+06
   3.853097e+04  -2.261249e+06
   2.363405e+06  -1.954813e+06
   2.888954e+06  -4.320486e+05
   1.289115e+06   1.185458e+06
  -8.291536e+05   1.464797e+06
  -1.457566e+06   2.312461e+05
  -1.758863e+05  -1.024436e+06
   1.504124e+06  -7.879693e+05
   1.816451e+06   6.756098e+05
   5.362728e+05   1.684057e+06
  -9.928673e+05   1.183711e+06
  -1.357712e+06  -1.208154e+05
  -4.025700e+05  -7.530320e+05
   7.447928e+05  -1.164928e+05
   7.657967e+05   1.034476e+06
  -5.743189e+05   1.462181e+06
  -2.058803e+06   5.833917e+05
  -2.109100e+06  -1.031881e+06
  -4.697271e+05  -2.103440e+06
   1.376336e+06  -1.747299e+06
   1.755719e+06  -3.315055e+05
   6.047450e+05   8.538412e+05
  -6.238001e+05   8.899621e+05
  -7.242249e+05   9.006997e+04
   5.601215e+04  -5.122697e+05
   6.147540e+05  -3.625681e+05
   3.401457e+05   1.136732e+05
  -3.686133e+05   1.297084e+05
  -6.346641e+05  -5.292273e+05
   5.994976e+04  -1.215119e+06
   1.356572e+06  -1.009011e+06
   2.166169e+06   3.300380e+05
   1.577782e+06   1.945770e+06
  -1.416060e+05   2.541872e+06
  -1.646203e+06   1.618097e+06
  -1.859914e+06  -2.149712e+02
  -1.064297e+06  -1.000164e+06
  -3.837290e+05  -8.929901e+05
  -3.746590e+05  -3.413722e+05
  -5.228314e+05  -2.392080e+05
  -1.083514e+05  -6.934581e+05
   8.300369e+05  -9.946759e+05
   1.522145e+06  -4.651923e+05
   1.218268e+06   7.431898e+05
  -1.448599e+05   1.646666e+06
  -1.765458e+06   1.261005e+06
  -2.399878e+06  -3.981687e+05
  -1.324521e+06  -2.118013e+06
   8.510556e+05  -2.489457e+06
   2.521972e+06  -1.246764e+06
   2.525962e+06   4.833876e+05
   1.206174e+06   1.360143e+06
  -9.971362e+04   1.136091e+06
  -4.943652e+05   6.666514e+05
  -2.353148e+05   7.547650e+05
  -1.426810e+05   1.239991e+06
  -6.124311e+05   1.277214e+06
  -1.270570e+06   3.522631e+05
  -1.397143e+06  -1.083788e+06
  -6.279394e+05  -1.952730e+06
   6.121890e+05  -1.512008e+06
   1.348005e+06  -6.517288e+04
   9.241555e+05   1.251711e+06
  -2.677769e+05   1.459642e+06
  -1.098073e+06   5.732663e+05
  -8.654289e+05  -5.339308e+05
  -2.737055e+04  -1.038766e+06
   3.907159e+05  -8.599772e+05
   2.101659e+04  -4.954457e+05
  -4.328569e+05  -3.621174e+05
  -5.752050e+04  -4.070736e+05
   1.136963e+06  -2.802132e+05
   2.086052e+06   2.381212e+05
   1.716754e+06   9.706267e+05
   1.014477e+05   1.431403e+06
  -1.505735e+06   1.217659e+06
  -1.859001e+06   4.177390e+05
  -9.228982e+05  -3.715610e+05
   2.013111e+05  -5.494495e+05
   5.025567e+05  -1.020603e+05
   1.670442e+04   3.647148e+05
  -4.859091e+05   2.598675e+05
  -4.974928e+05  -3.399109e+05
  -2.017385e+05  -7.592829e+05
  -3.682164e+04  -4.936599e+05
  -1.534324e+05   1.600229e+05
  -3.501365e+05   3.797347e+05
  -3.109432e+05  -2.235470e+05
   1.564673e+05  -1.054484e+06
   8.921140e+05  -1.122472e+06
   1.306706e+06  -1.811784e+05
   8.185846e+05   9.162072e+05
  -3.865115e+05   1.120043e+06
  -1.232719e+06   3.178430e+05
  -7.664637e+05  -5.963331e+05
   6.881159e+05  -7.163124e+05
   1.695780e+06   2.872442e+03
   1.187068e+06   8.516630e+05
  -3.957641e+05   1.120937e+06
  -1.576480e+06   6.627994e+05
  -1.370220e+06  -1.030915e+05
  -1.977705e+05  -5.543169e+05
   6.616048e+05  -3.423250e+05
   3.866593e+05   2.658854e+05
  -6.261112e+05   5.216729e+05
  -1.222639e+06  -1.037046e+05
  -6.640536e+05  -1.233137e+06
   6.410350e+05  -1.757028e+06
   1.555312e+06  -9.149196e+05
   1.329353e+06   7.811263e+05
   2.554798e+05   1.885076e+06
  -7.402126e+05   1.419572e+06
  -9.942109e+05  -1.091303e+05
  -5.407229e+05  -1.234020e+06
   1.397626e+05  -1.065658e+06
   5.704561e+05  -1.350944e+05
   5.457332e+05   3.967204e+05
   2.250159e+05   1.607724e+05
   3.015960e+04  -1.193935e+05
   2.336497e+05   2.581220e+05
   5.392195e+05   9.791768e+05
   2.940597e+05   1.143035e+06
  -6.683890e+05   4.555056e+05
  -1.571685e+06  -4.442426e+05
  -1.426290e+06  -8.434952e+05
  -2.244038e+05  -7.154542e+05
   9.301927e+05  -4.553591e+05
   1.046998e+06  -2.387477e+05
   3.420459e+05   1.051826e+04
  -1.640621e+05   2.337455e+05
   2.265825e+04   2.510626e+05
   3.371620e+05   1.304019e+05
   3.321357e+04   1.390571e+05
  -7.475188e+05   2.364826e+05
  -1.086465e+06   9.824700e+02
  -3.870548e+05  -6.922540e+05
   8.991271e+05  -1.214490e+06
   1.712422e+06  -8.009967e+05
   1.412641e+06   4.361458e+05
   3.032919e+05   1.470834e+06
  -7.461595e+05   1.443287e+06
  -1.077076e+06   5.537490e+05
  -6.967158e+05  -2.573859e+05
  -1.256805e+05  -3.673166e+05
   1.166632e+05  -3.234454e+04
  -7.080073e+04   6.015589e+04
  -3.528786e+05  -3.624575e+05
  -3.037490e+05  -8.410455e+05
   1.783326e+05  -7.022741e+05
   7.221132e+05   1.454750e+05
   7.629372e+05   1.006136e+06
   9.191362e+04   1.062179e+06
  -8.057054e+05   2.259757e+05
  -1.079408e+06  -7.689327e+05
  -3.613002e+05  -1.122248e+06
   7.300938e+05  -6.892950e+05
   1.144268e+06   5.840882e+04
   5.480750e+05   5.869733e+05
  -2.717553e+05   6.711759e+05
  -3.433686e+05   3.895191e+05
   3.020513e+05   2.606170e+04
   6.889600e+05  -5.027902e+04
   1.472252e+05   3.070551e+05
  -8.449260e+05   7.389573e+05
  -1.267047e+06   6.388812e+05
  -7.611753e+05  -1.228144e+05
   7.827048e+04  -8.928368e+05
   5.115213e+05  -8.968685e+05
   3.913275e+05  -1.543389e+05
   4.334729e+04   5.147107e+05
  -2.431762e+05   4.363664e+05
  -3.694307e+05  -1.839747e+05
  -2.751113e+05  -5.970474e+05
   4.918019e+04  -4.102355e+05
   4.058349e+05   5.302146e+04
   4.945635e+05   2.505337e+05
   2.589488e+05   6.915371e+04
  -2.411310e+04  -1.221531e+05
  -9.553762e+04   2.153796e+04
  -3.613248e+04   3.872873e+05
  -1.091098e+05   5.224134e+05
  -3.425837e+05   1.617349e+05
  -4.306164e+05  -4.235869e+05
  -1.109878e+05  -6.693596e+05
   4.352765e+05  -3.178139e+05
   6.722063e+05   2.962080e+05
   2.588479e+05   6.053430e+05
  -5.076402e+05   3.917595e+05
  -8.987310e+05  -6.899105e+04
  -4.992204e+05  -3.808066e+05
   2.919531e+05  -3.970591e+05
   6.460599e+05  -2.214800e+05
   2.298221e+05  -2.400251e+04
  -3.981810e+05   4.384258e+04
  -4.384091e+05  -1.009688e+05
   2.059709e+05  -3.300109e+05
   8.259888e+05  -2.947385e+05
