
 $NMID
 id='ANONYMOUS ', fmtdat='(2E16.6)'
 volume=1.0
 tramp=1.0
 $END
  -1.588511e+07  -6.717478e+05
  -1.030734e+07  -7.575644e+06
   2.222107e+05  -9.876533e+06
   6.900624e+06  -6.669673e+06
   5.809810e+06  -8.213974e+05
   4.265716e+05   2.844925e+06
  -3.252282e+06   1.572194e+06
  -2.548717e+06  -2.536095e+06
   6.931978e+05  -4.548257e+06
   3.029735e+06  -2.052772e+06
   2.616924e+06   2.182706e+06
   2.641294e+05   3.493944e+06
  -1.642905e+06   6.554510e+05
  -1.274185e+06  -2.973156e+06
   9.648311e+05  -3.429683e+06
   2.722772e+06  -3.218051e+05
   1.989753e+06   3.220966e+06
  -7.978835e+05   4.034179e+06
  -3.154160e+06   1.820124e+06
  -3.106817e+06  -1.101336e+06
  -1.159774e+06  -2.354769e+06
   4.096196e+05  -1.687562e+06
   6.081435e+04  -7.979547e+05
  -1.375559e+06  -1.204806e+06
  -1.619001e+06  -2.511189e+06
   5.084018e+05  -2.960071e+06
   3.532070e+06  -1.550770e+06
   4.581241e+06   7.970370e+05
   2.400227e+06   2.245652e+06
  -1.083227e+06   1.831368e+06
  -2.597789e+06   1.393009e+05
  -9.543947e+05  -1.370760e+06
   1.786272e+06  -1.440540e+06
   2.729862e+06   1.135053e+05
   1.257217e+06   2.059173e+06
  -7.188143e+05   2.560331e+06
  -1.248249e+06   1.008955e+06
  -3.542280e+05  -9.967846e+05
   5.202819e+05  -1.207468e+06
   3.657170e+05   5.841021e+05
  -5.507001e+05   2.120228e+06
  -1.292381e+06   1.391446e+06
  -1.151946e+06  -8.295863e+05
  -1.027123e+05  -1.913614e+06
   1.100610e+06  -5.822846e+05
   1.271897e+06   1.636225e+06
  -1.743475e+05   2.296813e+06
  -2.272527e+06   7.250883e+05
  -3.035678e+06  -1.539050e+06
  -1.428050e+06  -2.539792e+06
   1.313743e+06  -1.683191e+06
   2.760246e+06   5.987172e+04
   1.758231e+06   1.223989e+06
  -4.519814e+05   1.063724e+06
  -1.661149e+06   3.642122e+04
  -9.754964e+05  -7.295527e+05
   4.883571e+05  -5.228536e+05
   1.016428e+06   3.134672e+05
   1.453449e+05   8.245806e+05
  -9.576217e+05   4.623575e+05
  -8.614859e+05  -3.970070e+05
   4.910967e+05  -8.599429e+05
   1.624159e+06  -3.308451e+05
   1.084144e+06   9.602247e+05
  -9.337458e+05   2.038328e+06
  -2.718162e+06   1.867782e+06
  -2.821151e+06   2.716278e+05
  -1.467468e+06  -1.728269e+06
  -6.153876e+04  -2.732587e+06
   4.456530e+05  -2.301108e+06
   3.630417e+05  -1.308042e+06
   5.306398e+05  -8.075097e+05
   1.204412e+06  -7.735738e+05
   1.840083e+06  -3.230298e+05
   1.746108e+06   8.790609e+05
   7.491021e+05   1.913251e+06
  -6.368787e+05   1.592328e+06
  -1.503304e+06  -5.662998e+04
  -1.156397e+06  -1.645718e+06
   2.475761e+05  -1.802171e+06
   1.644591e+06  -4.934466e+05
   1.913233e+06   1.082844e+06
   9.448679e+05   1.757797e+06
  -2.663552e+05   1.396549e+06
  -7.350132e+05   7.448400e+05
  -5.593643e+05   4.978940e+05
  -6.722099e+05   6.256261e+05
  -1.542906e+06   5.341672e+05
  -2.404104e+06  -2.342658e+05
  -2.006652e+06  -1.473842e+06
  -1.125292e+05  -2.400189e+06
   1.991891e+06  -2.254901e+06
   2.649246e+06  -9.699830e+05
   1.477786e+06   6.414887e+05
  -2.617463e+05   1.443422e+06
  -9.753457e+05   9.519227e+05
  -2.914152e+05  -1.625364e+05
   7.684951e+05  -6.969639e+05
   1.028706e+06  -1.705645e+05
   3.451963e+05   6.513442e+05
  -4.411194e+05   6.689118e+05
  -4.884322e+05  -1.851559e+05
   2.525399e+05  -7.764949e+05
   1.068834e+06  -9.582577e+04
   1.109214e+06   1.454178e+06
   7.050026e+04   2.365698e+06
  -1.476455e+06   1.613082e+06
  -2.408615e+06  -2.682305e+05
  -1.951070e+06  -1.757826e+06
  -4.473437e+05  -1.857238e+06
   8.656269e+05  -9.112063e+05
   1.029044e+06  -4.154251e+04
   2.972270e+05   3.158596e+04
  -2.212635e+05  -4.420455e+05
   1.599434e+05  -6.993308e+05
   9.551574e+05  -3.246698e+05
   1.121800e+06   3.665647e+05
   3.149008e+05   7.123576e+05
  -6.525378e+05   3.935529e+05
  -6.733094e+05  -2.512636e+05
   4.022626e+05  -5.450565e+05
   1.504878e+06  -9.998774e+04
   1.411146e+06   8.060903e+05
   3.690155e+04   1.428209e+06
  -1.428055e+06   1.186895e+06
  -1.710564e+06   2.193567e+05
  -7.087302e+05  -6.772175e+05
   4.922684e+05  -7.582009e+05
   7.721828e+05  -7.269270e+04
   2.814197e+04   5.598880e+05
  -8.770078e+05   4.044975e+05
  -1.043490e+06  -3.921415e+05
  -3.496162e+05  -9.724534e+05
   5.297394e+05  -7.364178e+05
   7.982562e+05   1.849244e+03
   2.844396e+05   4.055234e+05
  -3.865520e+05   5.966854e+04
  -3.981926e+05  -6.081482e+05
   3.912627e+05  -8.238714e+05
   1.222150e+06  -2.622078e+05
   1.188820e+06   6.668712e+05
   2.211221e+05   1.221668e+06
  -8.114352e+05   9.798790e+05
  -1.012974e+06   1.826549e+05
  -3.635329e+05  -4.888424e+05
   3.618458e+05  -5.229036e+05
   4.684522e+05  -3.849703e+04
   4.098831e+03   3.707203e+05
  -4.189700e+05   2.877368e+05
  -3.272496e+05  -7.865561e+04
   1.370258e+05  -1.700538e+05
   3.853535e+05   2.272507e+05
   6.171500e+02   6.828633e+05
  -7.870087e+05   5.725909e+05
  -1.253048e+06  -2.291509e+05
  -8.700997e+05  -1.166541e+06
   1.404968e+05  -1.499785e+06
   1.002323e+06  -9.701317e+05
   1.142808e+06  -1.228767e+04
   6.990907e+05   6.533434e+05
   2.515101e+05   6.649108e+05
   1.512269e+05   3.028918e+05
   2.099609e+05   1.317426e+05
   2.736037e+04   3.534895e+05
  -4.782904e+05   5.754334e+05
  -9.125361e+05   2.869291e+05
  -7.628755e+05  -4.703251e+05
   7.039869e+04  -1.028271e+06
   1.063521e+06  -7.523839e+05
   1.424447e+06   2.685157e+05
   7.689732e+05   1.249775e+06
  -4.881861e+05   1.424216e+06
  -1.447650e+06   7.147766e+05
  -1.492628e+06  -2.624113e+05
  -7.769121e+05  -8.067595e+05
   1.753795e+04  -7.422692e+05
   3.551412e+05  -4.671420e+05
   2.679585e+05  -4.416367e+05
   1.765135e+05  -6.615766e+05
   3.763460e+05  -6.793921e+05
   7.193824e+05  -1.546826e+05
   7.771029e+05   6.776749e+05
   3.128777e+05   1.165159e+06
  -4.050226e+05   8.731701e+05
  -7.969560e+05   2.193689e+04
  -5.276519e+05  -7.193408e+05
   1.378331e+05  -8.363612e+05
   5.857529e+05  -3.660370e+05
   4.738365e+05   2.356675e+05
   5.248767e+04   5.450851e+05
  -1.613095e+05   4.951020e+05
   1.595557e+04   3.201372e+05
   2.314825e+05   2.442058e+05
   1.425562e+04   2.495716e+05
  -6.415176e+05   1.444588e+05
  -1.172267e+06  -1.770240e+05
  -9.782718e+05  -5.798260e+05
  -7.312734e+04  -7.934137e+05
   8.509412e+05  -6.511477e+05
   1.071404e+06  -2.369292e+05
   5.423495e+05   1.655053e+05
  -1.072420e+05   2.800467e+05
  -2.739646e+05   7.445351e+04
   2.689356e+04  -1.746246e+05
   3.165535e+05  -1.307289e+05
   2.750075e+05   2.146582e+05
   4.812087e+04   4.732139e+05
  -4.022721e+04   3.010129e+05
   9.524215e+04  -1.275691e+05
   2.496881e+05  -2.650049e+05
   1.861442e+05   1.317675e+05
  -1.423463e+05   6.367699e+05
  -5.505565e+05   6.255712e+05
  -7.136298e+05   2.909672e+04
  -3.947177e+05  -5.691868e+05
   2.624142e+05  -5.975278e+05
   7.027559e+05  -9.841724e+04
   4.287419e+05   3.884040e+05
  -4.067939e+05   4.127172e+05
  -1.016526e+06  -1.010002e+04
  -7.467515e+05  -5.060829e+05
   2.015349e+05  -6.873410e+05
   9.481835e+05  -4.293872e+05
   8.474406e+05   4.770933e+04
   1.325675e+05   3.402461e+05
  -3.878445e+05   2.103568e+05
  -2.011248e+05  -1.514013e+05
   4.108420e+05  -2.677770e+05
   7.170912e+05   1.345614e+05
   3.115301e+05   7.715173e+05
  -4.863542e+05   1.004790e+06
  -9.751063e+05   4.635299e+05
  -7.632824e+05  -5.190463e+05
  -9.330329e+04  -1.135173e+06
   4.736691e+05  -8.488925e+05
   5.912976e+05   5.600741e+04
   3.224037e+05   7.357181e+05
  -6.231877e+04   6.473353e+05
  -3.252593e+05   8.247836e+04
  -3.469363e+05  -2.529827e+05
  -1.673426e+05  -1.082799e+05
  -5.363801e+03   7.963615e+04
  -7.523834e+04  -1.406061e+05
  -2.718197e+05  -5.862128e+05
  -1.894713e+05  -6.878112e+05
   3.560061e+05  -2.536779e+05
   9.273172e+05   3.062354e+05
   8.649879e+05   5.330708e+05
   1.175878e+05   4.204824e+05
  -6.014475e+05   2.446632e+05
  -6.392138e+05   1.286396e+05
  -1.682858e+05   2.420835e+03
   1.188039e+05  -1.318309e+05
  -5.292022e+04  -1.657059e+05
  -2.457758e+05  -1.062605e+05
   2.476972e+03  -8.857718e+04
   5.022167e+05  -1.058159e+05
   6.387753e+05   4.844872e+04
   1.373958e+05   4.230824e+05
  -6.187713e+05   6.674943e+05
  -1.011511e+06   3.800822e+05
  -7.670915e+05  -3.380509e+05
  -1.141465e+05  -8.904248e+05
   4.779240e+05  -8.119269e+05
   6.583518e+05  -2.602269e+05
   4.137121e+05   2.002299e+05
   4.195014e+04   2.232117e+05
  -1.139101e+05  -6.740949e+03
   2.460704e+04  -6.263621e+04
   2.164588e+05   2.088970e+05
   1.705411e+05   5.043745e+05
  -1.395486e+05   4.005403e+05
  -4.352371e+05  -1.401718e+05
  -3.937638e+05  -6.548961e+05
   3.284949e+04  -6.330124e+05
   5.173258e+05  -6.627037e+04
   6.025868e+05   5.343985e+05
   1.450203e+05   6.776684e+05
  -4.674186e+05   3.501626e+05
  -6.541996e+05  -9.030295e+04
  -2.740072e+05  -3.392896e+05
   1.865578e+05  -3.465042e+05
   1.814627e+05  -2.036694e+05
  -2.197654e+05  -3.587176e+04
  -4.205206e+05   6.138804e+02
  -6.135754e+04  -1.808290e+05
   5.243057e+05  -4.131202e+05
   7.326257e+05  -3.592327e+05
   4.013225e+05   7.303680e+04
  -8.324647e+04   5.095492e+05
  -3.009118e+05   4.909460e+05
  -2.008145e+05   4.284991e+04
   1.153405e+04  -3.253570e+05
   1.699148e+05  -2.285970e+05
   2.191542e+05   1.573663e+05
   1.357999e+05   3.649618e+05
  -5.811727e+04   2.092097e+05
  -2.386562e+05  -6.195658e+04
  -2.671911e+05  -1.424015e+05
  -1.470507e+05  -2.763832e+04
  -1.236418e+04   4.732580e+04
   4.837906e+04  -6.783346e+04
   8.224719e+04  -2.580049e+05
   1.603434e+05  -2.752174e+05
   2.406433e+05  -2.031663e+04
   1.970881e+05   3.161232e+05
  -2.245303e+04   4.146605e+05
  -2.900607e+05   1.564925e+05
  -3.655860e+05  -2.275821e+05
  -1.140386e+05  -3.847724e+05
   3.043703e+05  -2.058732e+05
   5.093857e+05   9.355941e+04
   2.702429e+05   2.460510e+05
  -1.912173e+05   1.964888e+05
  -3.850714e+05   7.191942e+04
  -1.089559e+05  -4.300039e+03
   2.813360e+05   1.263102e+04
   2.770394e+05   1.146619e+05
  -1.634289e+05   2.165440e+05
  -5.535185e+05   1.496073e+05
