
 $NMID
 id='ANONYMOUS ', fmtdat='(2E16.6)'
 volume=1.0
 tramp=1.0
 $END
  -4.994585e+07   7.924054e+05
  -3.087842e+07  -2.989210e+07
   5.515259e+06  -3.380362e+07
   2.411221e+07  -1.405694e+07
   1.508784e+07   5.348451e+06
  -2.479584e+06   8.424516e+06
  -8.911132e+06  -5.010502e+05
  -3.035457e+06  -8.627432e+06
   5.165704e+06  -8.855875e+06
   8.644262e+06  -2.260838e+06
   6.440070e+06   5.501622e+06
   8.428376e+05   7.858743e+06
  -3.607694e+06   2.458665e+06
  -2.501283e+06  -5.123829e+06
   3.258634e+06  -6.232656e+06
   7.142091e+06   9.115157e+05
   4.268895e+06   9.078266e+06
  -3.116144e+06   1.069620e+07
  -8.935270e+06   5.436467e+06
  -9.619480e+06  -1.753355e+06
  -5.837449e+06  -6.559200e+06
  -6.532456e+05  -7.472922e+06
   2.278900e+06  -5.242293e+06
   1.186910e+06  -2.584327e+06
  -1.252429e+06  -2.364119e+06
  -1.121341e+05  -4.082738e+06
   5.178581e+06  -4.001162e+06
   8.952424e+06  -3.398241e+05
   6.382203e+06   3.797311e+06
   3.896135e+04   4.542638e+06
  -3.586601e+06   2.166874e+06
  -2.210993e+06  -2.624590e+05
   9.242292e+05  -1.060127e+06
   2.479757e+06  -3.536216e+05
   2.066354e+06   1.627096e+06
   4.321703e+05   3.776013e+06
  -1.695976e+06   3.409837e+06
  -2.712372e+06  -2.370568e+05
  -1.348656e+06  -3.205040e+06
   6.520063e+05  -1.460443e+06
   1.554516e+05   2.479104e+06
  -2.302246e+06   2.237863e+06
  -2.334692e+06  -2.790196e+06
   1.873318e+06  -5.550968e+06
   5.959861e+06  -1.116199e+06
   4.631765e+06   5.977741e+06
  -1.461342e+06   7.584861e+06
  -6.588594e+06   2.277395e+06
  -6.481318e+06  -3.928586e+06
  -1.922196e+06  -5.543457e+06
   3.146108e+06  -2.666295e+06
   5.000475e+06   1.222578e+06
   2.450668e+06   3.146046e+06
  -2.069847e+06   2.101207e+06
  -4.132140e+06  -6.868644e+05
  -1.875918e+06  -2.387123e+06
   1.506851e+06  -1.276929e+06
   1.682695e+06   9.054635e+05
  -1.056966e+06   9.870823e+05
  -2.321362e+06  -1.299995e+06
   2.266068e+05  -2.965647e+06
   3.893630e+06  -1.871146e+06
   4.780479e+06   9.490970e+05
   2.230339e+06   3.464355e+06
  -1.625258e+06   4.816707e+06
  -4.679133e+06   4.457868e+06
  -5.707878e+06   1.571461e+06
  -4.134791e+06  -2.922329e+06
  -8.652848e+05  -5.685526e+06
   1.583894e+06  -4.491824e+06
   1.546352e+06  -1.343224e+06
   2.925004e+05   3.350983e+04
   2.551824e+05  -9.452894e+05
   1.710101e+06  -1.531814e+06
   2.688537e+06  -1.263342e+04
   1.835896e+06   2.006120e+06
  -1.209066e+05   2.118750e+06
  -1.624521e+06   1.494968e+05
  -1.656015e+06  -2.088776e+06
   3.492799e+04  -2.832181e+06
   2.634719e+06  -1.499756e+06
   4.125912e+06   1.174604e+06
   2.917603e+06   3.449400e+06
  -2.356408e+04   3.799810e+06
  -1.997296e+06   2.450142e+06
  -1.956398e+06   1.095524e+06
  -1.671832e+06   7.355082e+05
  -2.793700e+06   5.463149e+05
  -4.163603e+06  -6.490620e+05
  -3.370419e+06  -2.604350e+06
  -1.614326e+05  -3.970886e+06
   3.087400e+06  -3.767445e+06
   4.043529e+06  -2.002294e+06
   2.531309e+06   4.744230e+05
   1.807279e+05   2.168113e+06
  -1.116183e+06   1.819583e+06
  -5.303343e+05  -6.153247e+04
   1.068036e+06  -1.250208e+06
   1.815334e+06  -3.859134e+05
   8.554418e+05   1.137838e+06
  -5.240046e+05   1.077334e+06
  -4.704603e+05  -3.725217e+05
   9.551626e+05  -7.744816e+05
   1.824946e+06   1.041049e+06
   8.262575e+05   3.253342e+06
  -1.306095e+06   3.414706e+06
  -2.975353e+06   1.315391e+06
  -3.321602e+06  -1.263929e+06
  -2.338962e+06  -2.701950e+06
  -4.798509e+05  -2.593138e+06
   1.220894e+06  -1.426967e+06
   1.541430e+06  -2.058538e+05
   4.780176e+05   4.290792e+04
  -3.528413e+05  -7.260247e+05
   3.723754e+05  -1.284150e+06
   1.807348e+06  -5.727924e+05
   1.962864e+06   8.138397e+05
   4.023011e+05   1.347947e+06
  -1.126663e+06   5.719361e+05
  -8.940778e+05  -4.390960e+05
   8.086348e+05  -5.594693e+05
   2.167049e+06   2.498459e+05
   1.770923e+06   1.320457e+06
  -2.048749e+05   1.968739e+06
  -2.247943e+06   1.651767e+06
  -2.701219e+06   2.867468e+05
  -1.185577e+06  -1.205838e+06
   8.684081e+05  -1.436114e+06
   1.479755e+06  -1.891806e+05
   1.853511e+05   1.027596e+06
  -1.461679e+06   7.163369e+05
  -1.677258e+06  -7.376575e+05
  -3.629434e+05  -1.605311e+06
   1.038710e+06  -9.859532e+05
   1.237653e+06   2.652319e+05
   2.695569e+05   7.518845e+05
  -7.579057e+05   6.524269e+04
  -7.135998e+05  -1.014085e+06
   5.599302e+05  -1.379339e+06
   1.948959e+06  -5.247231e+05
   1.975448e+06   1.016161e+06
   3.815044e+05   2.009548e+06
  -1.382282e+06   1.603322e+06
  -1.674423e+06   2.222803e+05
  -5.037776e+05  -8.388598e+05
   6.325668e+05  -7.920079e+05
   6.311688e+05  -7.220150e+04
  -1.057373e+05   3.819109e+05
  -5.051639e+05   2.298106e+05
  -1.641400e+05  -7.954642e+04
   4.194314e+05   2.861349e+04
   5.254645e+05   6.213029e+05
  -1.722404e+05   1.152962e+06
  -1.332602e+06   8.834253e+05
  -2.025459e+06  -3.898574e+05
  -1.430376e+06  -1.881225e+06
   2.031458e+05  -2.360692e+06
   1.572996e+06  -1.399577e+06
   1.667667e+06   1.043843e+05
   8.651880e+05   8.943126e+05
   3.116808e+05   6.828878e+05
   4.337876e+05   2.365543e+05
   5.825609e+05   2.851660e+05
   9.069355e+04   7.218594e+05
  -8.398537e+05   8.864131e+05
  -1.415863e+06   3.361187e+05
  -1.044230e+06  -7.081588e+05
   2.282520e+05  -1.448101e+06
   1.676803e+06  -1.066919e+06
   2.199314e+06   4.586807e+05
   1.126105e+06   2.036281e+06
  -9.501400e+05   2.307394e+06
  -2.455025e+06   1.032290e+06
  -2.305324e+06  -6.102425e+05
  -9.693134e+05  -1.304286e+06
   1.840867e+05  -9.536464e+05
   4.028101e+05  -5.207831e+05
   1.105772e+05  -7.220593e+05
   1.096746e+05  -1.244380e+06
   6.371817e+05  -1.239346e+06
   1.243858e+06  -3.115109e+05
   1.299211e+06   1.046852e+06
   5.455812e+05   1.841590e+06
  -6.027627e+05   1.399830e+06
  -1.254010e+06   6.958096e+03
  -8.036743e+05  -1.235708e+06
   3.564369e+05  -1.361126e+06
   1.112922e+06  -4.241062e+05
   7.955018e+05   6.421333e+05
  -8.961952e+04   1.032893e+06
  -4.913441e+05   7.723716e+05
  -7.205668e+04   4.187288e+05
   4.163636e+05   3.298612e+05
   5.593812e+04   3.743881e+05
  -1.107451e+06   2.144515e+05
  -1.995649e+06  -3.063997e+05
  -1.578944e+06  -9.923945e+05
   1.156102e+04  -1.386623e+06
   1.520259e+06  -1.114396e+06
   1.776055e+06  -2.910919e+05
   8.238950e+05   4.564756e+05
  -2.405350e+05   5.460561e+05
  -4.935795e+05   4.517492e+04
  -2.784386e+04  -3.949436e+05
   4.357312e+05  -2.480020e+05
   4.674555e+05   3.303435e+05
   2.336761e+05   7.029885e+05
   8.124800e+04   4.634395e+05
   1.373802e+05  -1.027132e+05
   2.850263e+05  -2.957499e+05
   2.721944e+05   2.238223e+05
  -1.414585e+05   9.636184e+05
  -8.685254e+05   1.038970e+06
  -1.305230e+06   1.719293e+05
  -8.170564e+05  -8.819603e+05
   3.949399e+05  -1.097798e+06
   1.209529e+06  -3.240404e+05
   7.137773e+05   5.577142e+05
  -6.778728e+05   6.378773e+05
  -1.554386e+06  -8.104722e+04
  -1.000742e+06  -8.377876e+05
   4.579951e+05  -9.790111e+05
   1.465943e+06  -4.886081e+05
   1.215267e+06   1.753248e+05
   1.380807e+05   5.049702e+05
  -6.319929e+05   2.709401e+05
  -3.733744e+05  -2.800491e+05
   5.702521e+05  -5.054719e+05
   1.149774e+06   7.880546e+04
   6.516077e+05   1.147357e+06
  -5.722631e+05   1.656315e+06
  -1.443021e+06   8.654036e+05
  -1.227812e+06  -7.338160e+05
  -2.063455e+05  -1.747835e+06
   7.172490e+05  -1.270872e+06
   9.073970e+05   1.635355e+05
   4.318198e+05   1.162582e+06
  -2.057999e+05   9.527823e+05
  -5.478692e+05   8.803340e+04
  -4.597675e+05  -3.689562e+05
  -1.631329e+05  -1.368795e+05
  -4.638368e+04   9.532887e+04
  -2.715915e+05  -2.807713e+05
  -5.018854e+05  -9.378256e+05
  -1.954766e+05  -1.055122e+06
   6.916334e+05  -3.934886e+05
   1.442671e+06   4.457659e+05
   1.257134e+06   8.119484e+05
   1.856224e+05   6.804655e+05
  -8.316902e+05   4.121257e+05
  -9.609957e+05   1.837759e+05
  -3.527075e+05  -4.665252e+04
   1.407394e+05  -2.202053e+05
   3.381871e+04  -2.037600e+05
  -2.583996e+05  -9.360305e+04
  -5.013192e+04  -1.284700e+05
   6.430892e+05  -2.324996e+05
   1.021047e+06   2.079157e+03
   4.293859e+05   6.679588e+05
  -8.091127e+05   1.154704e+06
  -1.651220e+06   7.559334e+05
  -1.381401e+06  -4.041849e+05
  -2.814192e+05  -1.368893e+06
   7.359110e+05  -1.351270e+06
   1.017833e+06  -5.366255e+05
   6.402139e+05   2.198113e+05
   1.351023e+05   3.474742e+05
  -6.430760e+04   6.457455e+04
   8.183784e+04  -1.628868e+04
   2.963529e+05   3.584551e+05
   2.477361e+05   7.880586e+05
  -1.670142e+05   6.651450e+05
  -6.637821e+05  -1.089140e+05
  -7.323437e+05  -9.165984e+05
  -1.295359e+05  -1.003223e+06
   7.269010e+05  -2.534232e+05
   1.017764e+06   6.862514e+05
   3.561813e+05   1.058178e+06
  -6.855215e+05   6.730992e+05
  -1.094671e+06  -5.710080e+04
  -5.307845e+05  -5.937752e+05
   2.702900e+05  -6.703374e+05
   3.699059e+05  -3.668853e+05
  -2.357271e+05  -6.530618e+03
  -6.319578e+05   4.611377e+04
  -1.489804e+05  -2.991821e+05
   7.986180e+05  -6.714211e+05
   1.229774e+06  -5.397250e+05
   7.535331e+05   1.662930e+05
  -8.247116e+04   8.518370e+05
  -5.329791e+05   8.467442e+05
  -4.175426e+05   1.697042e+05
  -6.040046e+04  -4.634292e+05
   2.257001e+05  -4.308256e+05
   3.430620e+05   1.339282e+05
   2.561476e+05   5.599132e+05
  -4.249872e+04   4.223901e+05
  -3.815923e+05  -3.595161e+04
  -4.714764e+05  -2.712206e+05
  -2.394165e+05  -9.469241e+04
   4.013627e+04   1.495718e+05
   8.505530e+04   5.071719e+04
  -2.311740e+04  -3.380073e+05
   2.709127e+04  -5.400003e+05
   3.005211e+05  -2.274033e+05
   4.580966e+05   3.536799e+05
   1.727279e+05   6.252748e+05
  -3.898738e+05   3.147972e+05
  -6.554689e+05  -2.577518e+05
  -2.583510e+05  -5.525711e+05
   4.921489e+05  -3.656077e+05
   8.658996e+05   5.698069e+04
   4.750643e+05   3.612107e+05
  -2.795107e+05   4.001970e+05
  -6.206017e+05   2.388122e+05
  -2.495257e+05   2.438833e+04
   3.272989e+05  -7.503848e+04
   3.932218e+05   4.916187e+04
  -1.548654e+05   2.798281e+05
  -7.108277e+05   2.727974e+05
