
 $NMID
 id='ANONYMOUS ', fmtdat='(2E16.6)'
 volume=1.0
 tramp=1.0
 $END
   9.854101e+06   9.025064e+05
   6.447299e+06   4.629610e+06
  -3.986703e+04   6.076480e+06
  -4.412069e+06   4.427999e+06
  -3.927487e+06   7.763622e+05
  -4.024460e+05  -1.866311e+06
   2.215748e+06  -1.186853e+06
   1.816171e+06   1.675313e+06
  -4.478822e+05   3.163265e+06
  -2.043146e+06   1.431036e+06
  -1.661575e+06  -1.517479e+06
  -4.214669e+04  -2.353346e+06
   1.118089e+06  -3.264318e+05
   7.512787e+05   2.136260e+06
  -7.289647e+05   2.371498e+06
  -1.810630e+06   2.285936e+05
  -1.267829e+06  -2.135157e+06
   5.744594e+05  -2.615127e+06
   2.058678e+06  -1.071054e+06
   1.895237e+06   8.445095e+05
   5.422342e+05   1.504140e+06
  -3.639335e+05   8.958840e+05
   1.001139e+05   3.766643e+05
   1.116959e+06   9.246864e+05
   1.087499e+06   1.956746e+06
  -5.475155e+05   2.096223e+06
  -2.571988e+06   8.557475e+05
  -3.097404e+06  -8.281654e+05
  -1.464921e+06  -1.647552e+06
   9.226499e+05  -1.136098e+06
   1.850463e+06   1.302328e+05
   5.509493e+05   1.108934e+06
  -1.451522e+06   9.821245e+05
  -2.022348e+06  -2.555933e+05
  -7.716878e+05  -1.600611e+06
   7.115565e+05  -1.772594e+06
   9.161058e+05  -5.557011e+05
   6.841852e+04   7.640152e+05
  -5.221243e+05   7.306919e+05
  -1.948420e+05  -5.588855e+05
   5.515868e+05  -1.511713e+06
   9.615035e+05  -9.320400e+05
   7.732611e+05   5.506141e+05
   1.366802e+05   1.254426e+06
  -5.736821e+05   4.166405e+05
  -7.385938e+05  -9.932085e+05
   1.002470e+05  -1.424606e+06
   1.463449e+06  -3.986004e+05
   2.016737e+06   1.117175e+06
   9.428778e+05   1.784659e+06
  -9.472004e+05   1.150939e+06
  -1.936266e+06  -9.277867e+04
  -1.226888e+06  -8.831975e+05
   2.893269e+05  -7.300508e+05
   1.108427e+06  -1.417718e+04
   6.575386e+05   4.885359e+05
  -3.241548e+05   3.350659e+05
  -7.081462e+05  -2.440869e+05
  -1.307510e+05  -6.269889e+05
   6.852920e+05  -4.071983e+05
   7.131674e+05   2.164571e+05
  -2.090963e+05   6.068661e+05
  -1.066642e+06   2.766979e+05
  -7.273057e+05  -6.139108e+05
   7.176350e+05  -1.319134e+06
   1.963323e+06  -1.129352e+06
   1.925905e+06  -2.652398e+04
   8.687023e+05   1.251165e+06
  -9.743441e+04   1.853205e+06
  -3.558055e+05   1.576964e+06
  -2.710264e+05   9.638515e+05
  -4.585298e+05   6.122605e+05
  -9.803174e+05   4.878175e+05
  -1.369312e+06   7.687745e+04
  -1.183832e+06  -7.765398e+05
  -3.971663e+05  -1.435681e+06
   5.761127e+05  -1.110071e+06
   1.101567e+06   1.306012e+05
   7.496713e+05   1.248632e+06
  -2.745211e+05   1.262669e+06
  -1.175263e+06   2.390040e+05
  -1.240905e+06  -8.640947e+05
  -5.251763e+05  -1.229074e+06
   2.475640e+05  -8.850416e+05
   4.882504e+05  -4.387277e+05
   3.542341e+05  -3.278158e+05
   4.738531e+05  -4.374861e+05
   1.102208e+06  -3.337062e+05
   1.678715e+06   2.492597e+05
   1.351918e+06   1.113747e+06
  -2.087370e+04   1.697332e+06
  -1.510293e+06   1.500526e+06
  -1.921179e+06   5.447121e+05
  -1.001066e+06  -5.462389e+05
   2.828389e+05  -1.009634e+06
   7.520125e+05  -6.082540e+05
   1.928586e+05   1.386087e+05
  -5.817789e+05   4.505875e+05
  -7.254051e+05   7.173954e+04
  -2.005991e+05  -4.670542e+05
   3.523316e+05  -4.509848e+05
   3.564547e+05   1.537867e+05
  -1.900781e+05   5.732474e+05
  -7.735097e+05   8.848725e+04
  -7.882579e+05  -1.041178e+06
  -1.919141e+04  -1.719135e+06
   1.100384e+06  -1.156332e+06
   1.734438e+06   2.560967e+05
   1.345795e+06   1.346108e+06
   2.436862e+05   1.358122e+06
  -6.612281e+05   6.067323e+05
  -7.335759e+05  -2.452962e+04
  -2.085208e+05  -3.567872e+04
   1.379636e+05   3.219121e+05
  -1.350121e+05   4.814286e+05
  -6.749103e+05   1.896941e+05
  -7.728633e+05  -2.940442e+05
  -2.001283e+05  -5.091119e+05
   4.766062e+05  -2.549831e+05
   4.772818e+05   2.085097e+05
  -3.040081e+05   3.891710e+05
  -1.089589e+06   2.523770e+04
  -9.917769e+05  -6.372464e+05
   2.579290e+04  -1.034260e+06
   1.068119e+06  -7.916408e+05
   1.223334e+06  -8.407300e+04
   4.710684e+05   5.029571e+05
  -3.740749e+05   5.044330e+05
  -5.355832e+05   1.719236e+04
   1.032163e+04  -3.888341e+05
   6.346995e+05  -2.455618e+05
   7.231996e+05   3.170645e+05
   2.164777e+05   7.042312e+05
  -4.000816e+05   5.116815e+05
  -5.715829e+05  -2.284608e+04
  -1.951942e+05  -2.975208e+05
   2.700705e+05  -2.984421e+04
   2.531168e+05   4.446021e+05
  -3.147921e+05   5.628565e+05
  -8.754947e+05   1.277271e+05
  -8.083867e+05  -5.249508e+05
  -1.031031e+05  -8.711423e+05
   6.118668e+05  -6.578419e+05
   7.230792e+05  -8.959725e+04
   2.407733e+05   3.604676e+05
  -2.772916e+05   3.578816e+05
  -3.401169e+05   4.045105e+03
   1.018848e+04  -2.767798e+05
   3.220205e+05  -1.963268e+05
   2.478316e+05   7.785943e+04
  -9.765048e+04   1.345796e+05
  -2.721463e+05  -1.641811e+05
   1.803322e+04  -4.826762e+05
   5.779416e+05  -3.746872e+05
   8.764969e+05   2.142639e+05
   5.640244e+05   8.617347e+05
  -1.659237e+05   1.057286e+06
  -7.555154e+05   6.511283e+05
  -8.199993e+05  -3.650189e+04
  -4.776330e+05  -5.047359e+05
  -1.478902e+05  -5.034110e+05
  -7.948738e+04  -2.310584e+05
  -1.308248e+05  -9.388907e+04
  -4.495255e+03  -2.416779e+05
   3.591406e+05  -3.897444e+05
   6.621246e+05  -1.704358e+05
   5.287304e+05   3.702032e+05
  -9.036767e+04   7.372185e+05
  -7.883062e+05   4.942892e+05
  -1.001629e+06  -2.507030e+05
  -4.970601e+05  -9.175762e+05
   3.972001e+05  -9.886468e+05
   1.049955e+06  -4.520315e+05
   1.052959e+06   2.412004e+05
   5.302317e+05   6.084457e+05
  -3.977280e+04   5.400131e+05
  -2.841915e+05   3.250123e+05
  -2.257655e+05   2.949994e+05
  -1.598768e+05   4.476793e+05
  -2.913337e+05   4.569213e+05
  -5.098224e+05   7.652200e+04
  -5.172750e+05  -5.143477e+05
  -1.684593e+05  -8.388643e+05
   3.268611e+05  -5.998241e+05
   5.669062e+05   1.766730e+04
   3.462680e+05   5.280987e+05
  -1.258300e+05   5.871929e+05
  -4.236338e+05   2.456737e+05
  -3.277789e+05  -1.721162e+05
  -2.591093e+04  -3.823240e+05
   1.231549e+05  -3.486764e+05
  -1.120153e+03  -2.340538e+05
  -1.497250e+05  -1.851230e+05
   2.765940e+03  -1.778538e+05
   4.559772e+05  -7.706611e+04
   8.159705e+05   1.721249e+05
   6.680053e+05   4.487016e+05
   2.672624e+04   5.608235e+05
  -6.205349e+05   4.232295e+05
  -7.668552e+05   1.273484e+05
  -3.825332e+05  -1.309462e+05
   8.245869e+04  -1.894558e+05
   1.953300e+05  -4.594156e+04
  -2.835787e+04   1.146582e+05
  -2.326545e+05   7.533264e+04
  -1.834920e+05  -1.639347e+05
  -4.159085e+03  -3.370167e+05
   4.972321e+04  -2.097136e+05
  -7.532775e+04   9.145906e+04
  -1.965146e+05   1.820504e+05
  -1.279262e+05  -1.006294e+05
   1.333940e+05  -4.459754e+05
   4.163404e+05  -4.171238e+05
   4.952974e+05   1.367478e+04
   2.444520e+05   4.180222e+05
  -2.101750e+05   4.035470e+05
  -4.939664e+05   3.193274e+04
  -2.840422e+05  -2.962599e+05
   3.045475e+05  -2.762230e+05
   7.239592e+05   4.862609e+04
   5.177637e+05   3.920898e+05
  -1.668649e+05   4.866603e+05
  -6.957663e+05   2.730344e+05
  -6.071667e+05  -6.725563e+04
  -8.253212e+04  -2.499905e+05
   2.842089e+05  -1.360010e+05
   1.338217e+05   1.129295e+05
  -3.057107e+05   1.662561e+05
  -4.993207e+05  -1.334376e+05
  -1.774669e+05  -5.615245e+05
   3.978231e+05  -6.839095e+05
   7.142331e+05  -2.772182e+05
   5.157161e+05   4.053540e+05
   1.282640e+04   8.100784e+05
  -3.755090e+05   5.844363e+05
  -4.195276e+05  -6.170003e+04
  -2.009359e+05  -5.368995e+05
   6.761615e+04  -4.620398e+05
   2.331127e+05  -4.739799e+04
   2.393209e+05   1.976400e+05
   1.188935e+05   8.776295e+04
   5.792101e+03  -5.853135e+04
   4.002699e+04   9.701252e+04
   1.635226e+05   4.254707e+05
   1.094930e+05   4.994535e+05
  -2.565186e+05   1.671085e+05
  -6.445809e+05  -2.598245e+05
  -5.954333e+05  -4.190151e+05
  -6.545471e+04  -3.022379e+05
   4.428957e+05  -1.437840e+05
   4.616971e+05  -6.365662e+04
   1.155676e+05   1.234000e+03
  -9.233130e+04   8.675267e+04
   3.564562e+04   1.249657e+05
   1.754275e+05   9.232172e+04
  -8.629440e+03   6.235595e+04
  -3.675824e+05   4.702742e+04
  -4.487854e+05  -6.585089e+04
  -6.751213e+04  -3.020658e+05
   4.749716e+05  -4.378351e+05
   7.278211e+05  -2.180524e+05
   5.175027e+05   2.768797e+05
   3.612775e+04   6.363437e+05
  -3.737253e+05   5.507895e+05
  -4.768928e+05   1.487908e+05
  -2.836541e+05  -1.653159e+05
  -1.630835e+04  -1.591217e+05
   8.538084e+04   1.586236e+04
  -1.930810e+04   4.862721e+04
  -1.474340e+05  -1.567464e+05
  -1.000935e+05  -3.658920e+05
   1.186646e+05  -2.752501e+05
   3.018108e+05   1.248064e+05
   2.426176e+05   4.858312e+05
  -6.060774e+04   4.438798e+05
  -3.718448e+05   1.476870e+04
  -3.975103e+05  -4.123909e+05
  -6.626090e+04  -4.850242e+05
   3.472030e+05  -2.204644e+05
   4.549582e+05   9.588610e+04
   1.753195e+05   2.474621e+05
  -1.463171e+05   2.304755e+05
  -1.321567e+05   1.356544e+05
   1.593100e+05   3.973610e+04
   2.990364e+05   2.080937e+04
   3.307112e+04   1.291329e+05
  -3.908732e+05   2.685446e+05
  -5.315126e+05   2.256995e+05
  -2.757323e+05  -6.424533e+04
   8.295698e+04  -3.541516e+05
   2.301710e+05  -3.321380e+05
   1.368671e+05  -1.795353e+04
  -2.749129e+04   2.314325e+05
  -1.313891e+05   1.501001e+05
  -1.465877e+05  -1.273435e+05
  -7.787247e+04  -2.647412e+05
   5.127487e+04  -1.398802e+05
   1.651190e+05   5.757245e+04
   1.813845e+05   1.091354e+05
   1.035698e+05   2.306328e+04
   1.268810e+04  -2.786711e+04
  -3.964971e+04   5.473389e+04
  -7.910104e+04   1.803292e+05
  -1.360065e+05   1.782799e+05
  -1.722360e+05  -8.139241e+03
  -1.153374e+05  -2.378998e+05
   4.577916e+04  -2.907795e+05
   2.148769e+05  -9.342979e+04
   2.431859e+05   1.812780e+05
   5.891089e+04   2.792738e+05
  -2.233225e+05   1.307640e+05
  -3.520588e+05  -9.222861e+04
  -1.777820e+05  -1.867689e+05
   1.436849e+05  -1.256954e+05
   2.731519e+05  -2.765889e+04
   7.223864e+04   8.086266e+03
  -2.035752e+05  -2.848433e+04
  -1.914307e+05  -1.013368e+05
   1.320387e+05  -1.479334e+05
   4.071340e+05  -7.705601e+04
