
 $NMID
 id='ANONYMOUS ', fmtdat='(2E16.6)'
 volume=1.0
 tramp=1.0
 $END
   2.188047e+07   1.584899e+06
   1.333874e+07   1.135386e+07
  -1.377013e+06   1.352161e+07
  -9.770137e+06   8.100532e+06
  -7.412116e+06   2.728015e+05
  -4.841226e+04  -3.782614e+06
   4.333328e+06  -1.608919e+06
   2.972984e+06   3.545856e+06
  -1.268788e+06   5.741670e+06
  -4.089459e+06   2.352281e+06
  -3.364254e+06  -3.048336e+06
  -2.030076e+05  -4.617815e+06
   2.272418e+06  -8.459927e+05
   1.664076e+06   3.867869e+06
  -1.359258e+06   4.350652e+06
  -3.566996e+06   2.053600e+05
  -2.424030e+06  -4.347411e+06
   1.280794e+06  -5.243585e+06
   4.292369e+06  -2.262893e+06
   4.184124e+06   1.581470e+06
   1.595194e+06   3.309073e+06
  -6.398643e+05   2.500742e+06
  -4.176590e+05   1.161606e+06
   1.461240e+06   1.356644e+06
   2.052229e+06   2.933668e+06
  -4.957141e+05   3.732390e+06
  -4.476970e+06   2.144547e+06
  -6.007357e+06  -9.254783e+05
  -3.233364e+06  -2.997701e+06
   1.344401e+06  -2.577911e+06
   3.398193e+06  -3.776547e+05
   1.388225e+06   1.638625e+06
  -2.054304e+06   1.847573e+06
  -3.326754e+06  -1.498603e+03
  -1.629172e+06  -2.465225e+06
   8.153301e+05  -3.245766e+06
   1.636006e+06  -1.369799e+06
   6.420267e+05   1.295823e+06
  -5.682705e+05   1.734677e+06
  -5.790835e+05  -5.621043e+05
   5.580951e+05  -2.659223e+06
   1.619420e+06  -1.747901e+06
   1.419944e+06   1.184539e+06
  -1.074230e+05   2.529021e+06
  -1.700105e+06   5.918716e+05
  -1.692874e+06  -2.407181e+06
   4.152495e+05  -3.145799e+06
   3.111413e+06  -9.138881e+05
   3.914250e+06   2.067909e+06
   1.741116e+06   3.275080e+06
  -1.735857e+06   2.089241e+06
  -3.486962e+06  -1.693714e+05
  -2.115483e+06  -1.626896e+06
   7.390882e+05  -1.330441e+06
   2.201916e+06   8.524289e+04
   1.183673e+06   1.062218e+06
  -7.213478e+05   6.817819e+05
  -1.274662e+06  -4.445480e+05
  -8.117288e+04  -9.838074e+05
   1.197370e+06  -3.925794e+05
   8.742056e+05   6.331464e+05
  -8.603951e+05   1.010679e+06
  -2.128351e+06   2.272861e+05
  -1.320055e+06  -1.352737e+06
   1.218547e+06  -2.649371e+06
   3.460774e+06  -2.437061e+06
   3.657343e+06  -3.917074e+05
   1.967623e+06   2.242178e+06
   8.039962e+04   3.557934e+06
  -6.613947e+05   2.902224e+06
  -4.878359e+05   1.515336e+06
  -5.386230e+05   9.144919e+05
  -1.342103e+06   1.036436e+06
  -2.257546e+06   5.797333e+05
  -2.275493e+06  -9.661079e+05
  -1.064776e+06  -2.368808e+06
   7.177491e+05  -2.042290e+06
   1.875986e+06   7.144528e+03
   1.494181e+06   2.036580e+06
  -2.779647e+05   2.300296e+06
  -2.111696e+06   6.855097e+05
  -2.515568e+06  -1.358945e+06
  -1.261550e+06  -2.306635e+06
   3.697583e+05  -1.873351e+06
   1.020315e+06  -9.794125e+05
   7.685459e+05  -5.946623e+05
   8.568815e+05  -7.489100e+05
   1.937305e+06  -6.641208e+05
   3.029451e+06   2.858823e+05
   2.536681e+06   1.847278e+06
   1.673092e+05   3.028286e+06
  -2.470578e+06   2.879202e+06
  -3.328550e+06   1.286684e+06
  -1.911322e+06  -7.721541e+05
   2.677850e+05  -1.846897e+06
   1.220339e+06  -1.245832e+06
   3.988419e+05   2.077698e+05
  -9.655176e+05   9.176826e+05
  -1.335705e+06   2.227699e+05
  -4.619723e+05  -8.563425e+05
   5.642065e+05  -8.695789e+05
   6.198792e+05   2.294296e+05
  -3.297607e+05   9.505283e+05
  -1.322373e+06   6.432149e+04
  -1.317623e+06  -1.840931e+06
  -2.753083e+04  -2.899277e+06
   1.830543e+06  -1.936489e+06
   2.951258e+06   3.503622e+05
   2.414146e+06   2.154720e+06
   5.813957e+05   2.295123e+06
  -1.064339e+06   1.153126e+06
  -1.292836e+06   6.685409e+04
  -3.719610e+05  -4.206897e+04
   2.905363e+05   5.610094e+05
  -2.063043e+05   9.035425e+05
  -1.234109e+06   4.204399e+05
  -1.439074e+06  -4.826027e+05
  -3.943756e+05  -9.309666e+05
   8.387931e+05  -5.187876e+05
   8.649635e+05   3.027797e+05
  -4.806094e+05   6.823267e+05
  -1.860326e+06   1.470159e+05
  -1.761745e+06  -9.723899e+05
  -6.568089e+04  -1.770220e+06
   1.772376e+06  -1.500499e+06
   2.150588e+06  -2.875951e+05
   8.971061e+05   8.675403e+05
  -6.367516e+05   9.791261e+05
  -1.003392e+06   8.863180e+04
  -4.813175e+04  -7.339756e+05
   1.116234e+06  -5.304066e+05
   1.325254e+06   4.950295e+05
   4.352648e+05   1.230554e+06
  -6.785980e+05   9.230099e+05
  -1.011444e+06  -1.456372e+04
  -3.564641e+05  -5.279648e+05
   5.015528e+05  -9.660716e+04
   5.329360e+05   7.548043e+05
  -4.604911e+05   1.054793e+06
  -1.531302e+06   3.661736e+05
  -1.514256e+06  -8.173742e+05
  -2.944326e+05  -1.542332e+06
   1.022893e+06  -1.243246e+06
   1.282245e+06  -2.243903e+05
   4.562334e+05   6.310708e+05
  -4.630513e+05   6.713125e+05
  -6.002135e+05   5.729587e+04
  -2.472099e+04  -4.642443e+05
   5.026780e+05  -3.767385e+05
   4.033685e+05   6.970456e+04
  -1.559837e+05   1.946317e+05
  -4.664024e+05  -2.794749e+05
  -4.366406e+03  -8.450063e+05
   9.740110e+05  -7.251967e+05
   1.574219e+06   2.668267e+05
   1.110860e+06   1.451614e+06
  -1.584887e+05   1.883595e+06
  -1.247486e+06   1.221150e+06
  -1.422765e+06   2.041967e+04
  -8.664207e+05  -8.035828e+05
  -3.175694e+05  -8.108527e+05
  -2.028936e+05  -3.664875e+05
  -2.719751e+05  -1.637024e+05
  -3.710370e+04  -4.388955e+05
   5.860687e+05  -7.135110e+05
   1.118251e+06  -3.679143e+05
   9.441676e+05   5.603760e+05
  -7.069187e+04   1.266375e+06
  -1.307309e+06   9.514603e+05
  -1.782099e+06  -3.115765e+05
  -9.814880e+05  -1.556970e+06
   5.984363e+05  -1.797886e+06
   1.815429e+06  -9.119777e+05
   1.874487e+06   3.207042e+05
   9.736256e+05   1.003992e+06
  -1.651596e+04   9.206458e+05
  -4.282530e+05   5.826291e+05
  -3.168930e+05   5.632797e+05
  -2.108818e+05   8.443996e+05
  -4.706217e+05   8.644619e+05
  -9.079484e+05   2.048349e+05
  -9.888911e+05  -8.410619e+05
  -4.113779e+05  -1.461290e+06
   4.968934e+05  -1.105775e+06
   1.003620e+06  -3.879772e+04
   6.727069e+05   9.000426e+05
  -1.678633e+05   1.053267e+06
  -7.373882e+05   4.610575e+05
  -5.978701e+05  -2.986806e+05
  -6.638393e+04  -6.883939e+05
   2.033038e+05  -6.237534e+05
  -1.918512e+04  -3.996428e+05
  -2.907088e+05  -2.990862e+05
  -2.090169e+04  -3.071140e+05
   8.007364e+05  -1.872372e+05
   1.471774e+06   2.044577e+05
   1.236405e+06   7.145242e+05
   1.022535e+05   1.000811e+06
  -1.064007e+06   8.336630e+05
  -1.347254e+06   3.078783e+05
  -6.840894e+05  -2.083493e+05
   1.327439e+05  -3.547803e+05
   3.427053e+05  -9.414563e+04
  -3.280919e+04   2.179426e+05
  -3.935504e+05   1.619133e+05
  -3.439577e+05  -2.674999e+05
  -6.628938e+04  -5.886508e+05
   4.437077e+04  -3.770762e+05
  -1.149342e+05   1.556677e+05
  -3.016054e+05   3.338890e+05
  -2.318857e+05  -1.536964e+05
   1.631964e+05  -7.902684e+05
   6.731340e+05  -7.933651e+05
   8.933240e+05  -5.614663e+04
   5.075454e+05   7.028304e+05
  -3.175004e+05   7.553216e+05
  -8.787605e+05   1.363546e+05
  -5.404078e+05  -4.799795e+05
   5.064924e+05  -5.194567e+05
   1.270634e+06   5.245944e+03
   9.341672e+05   6.262412e+05
  -2.490599e+05   8.580459e+05
  -1.181508e+06   5.426881e+05
  -1.059039e+06  -5.191765e+04
  -1.683964e+05  -4.244804e+05
   4.859154e+05  -2.688279e+05
   2.588997e+05   1.876977e+05
  -5.075131e+05   3.447721e+05
  -9.012002e+05  -1.542455e+05
  -4.043084e+05  -9.602978e+05
   5.932712e+05  -1.265123e+06
   1.213969e+06  -5.927069e+05
   9.607254e+05   6.411455e+05
   1.288695e+05   1.419255e+06
  -5.837669e+05   1.066206e+06
  -7.410579e+05  -6.452790e+04
  -4.122885e+05  -9.178582e+05
   7.074407e+04  -8.128404e+05
   4.067922e+05  -1.095897e+05
   4.371545e+05   3.115908e+05
   2.105903e+05   1.340643e+05
   8.225291e+03  -9.991983e+04
   1.009116e+05   1.744543e+05
   3.502006e+05   7.321266e+05
   2.429765e+05   8.625766e+05
  -4.468535e+05   3.241692e+05
  -1.165192e+06  -3.734421e+05
  -1.087157e+06  -6.588761e+05
  -1.522249e+05  -5.244098e+05
   7.476996e+05  -3.113857e+05
   7.982482e+05  -1.677157e+05
   2.124569e+05  -5.291121e+03
  -1.479150e+05   1.663686e+05
   6.361062e+04   2.064081e+05
   3.062509e+05   1.281294e+05
   1.218518e+03   1.087328e+05
  -6.228426e+05   1.389084e+05
  -8.009185e+05  -4.991543e+04
  -1.820503e+05  -5.256475e+05
   7.634792e+05  -8.441945e+05
   1.262512e+06  -4.919340e+05
   9.660618e+05   4.099434e+05
   1.547465e+05   1.111572e+06
  -5.862150e+05   1.023620e+06
  -8.178321e+05   3.374941e+05
  -5.197724e+05  -2.419456e+05
  -5.858595e+04  -2.774386e+05
   1.387558e+05   6.459410e+03
  -3.157588e+04   7.778391e+04
  -2.740097e+05  -2.594862e+05
  -2.213436e+05  -6.307025e+05
   1.679299e+05  -5.058746e+05
   5.469773e+05   1.671545e+05
   5.036553e+05   8.132438e+05
  -3.035817e+04   7.927482e+05
  -6.448536e+05   9.064672e+04
  -7.605914e+05  -6.595080e+05
  -1.915477e+05  -8.453836e+05
   5.784926e+05  -4.454322e+05
   8.202816e+05   1.020885e+05
   3.510233e+05   4.202711e+05
  -2.255446e+05   4.387205e+05
  -2.251399e+05   2.614502e+05
   2.721194e+05   4.449831e+04
   5.246169e+05  -6.295847e+03
   7.976570e+04   2.247833e+05
  -6.516498e+05   5.238948e+05
  -9.160607e+05   4.595319e+05
  -5.066954e+05  -8.639027e+04
   9.729567e+04  -6.400664e+05
   3.714465e+05  -6.207151e+05
   2.508361e+05  -5.913356e+04
  -1.039636e+04   4.054291e+05
  -2.080578e+05   2.885153e+05
  -2.741578e+05  -1.927276e+05
  -1.748781e+05  -4.546099e+05
   6.809778e+04  -2.636172e+05
   2.992836e+05   7.381475e+04
   3.383332e+05   1.757470e+05
   1.852129e+05   3.396758e+04
   1.233403e+04  -5.994592e+04
  -6.242025e+04   8.287860e+04
  -9.838422e+04   3.210142e+05
  -1.924681e+05   3.453362e+05
  -2.972747e+05   3.015084e+04
  -2.508879e+05  -3.894203e+05
   2.029516e+04  -5.160705e+05
   3.591473e+05  -1.994533e+05
   4.602554e+05   2.775638e+05
   1.481988e+05   4.781138e+05
  -3.780609e+05   2.624679e+05
  -6.391131e+05  -1.083450e+05
  -3.422238e+05  -3.040138e+05
   2.359311e+05  -2.500866e+05
   4.808062e+05  -9.676656e+04
   1.374275e+05   3.323553e+03
  -3.503085e+05  -1.219563e+04
  -3.465696e+05  -1.394208e+05
   2.017247e+05  -2.714428e+05
   6.892269e+05  -1.922752e+05
