
 $NMID
 id='ANONYMOUS ', fmtdat='(2E16.6)'
 volume=1.0
 tramp=1.0
 $END
   5.355883e+07   3.415356e+05
   3.201554e+07   3.330576e+07
  -7.258303e+06   3.617141e+07
  -2.628315e+07   1.382523e+07
  -1.564300e+07  -6.686244e+06
   3.165179e+06  -8.850503e+06
   9.341221e+06   1.168539e+06
   2.628673e+06   9.290554e+06
  -5.912228e+06   8.885896e+06
  -9.186325e+06   1.882351e+06
  -6.632456e+06  -5.941870e+06
  -7.349782e+05  -8.208090e+06
   3.822840e+06  -2.587286e+06
   2.492074e+06   5.219061e+06
  -3.607050e+06   6.241947e+06
  -7.486609e+06  -1.296212e+06
  -4.186755e+06  -9.732467e+06
   3.650485e+06  -1.121125e+07
   9.645374e+06  -5.566762e+06
   1.027058e+07   2.018917e+06
   6.243909e+06   7.162257e+06
   5.980981e+05   8.214050e+06
  -2.787012e+06   5.718825e+06
  -1.732053e+06   2.555652e+06
   1.080935e+06   2.095226e+06
   2.170903e+05   4.016632e+06
  -5.205209e+06   4.171182e+06
  -9.239399e+06   4.121908e+05
  -6.695116e+06  -3.984595e+06
  -1.896485e+05  -4.831393e+06
   3.589900e+06  -2.422470e+06
   2.367632e+06   3.025187e+04
  -6.152963e+05   9.289232e+05
  -2.225333e+06   4.614898e+05
  -2.107496e+06  -1.410829e+06
  -6.267744e+05  -3.784033e+06
   1.750790e+06  -3.658852e+06
   3.064242e+06   1.411197e+05
   1.585209e+06   3.475054e+06
  -7.563478e+05   1.797968e+06
  -3.049551e+05  -2.380127e+06
   2.363318e+06  -2.202568e+06
   2.323710e+06   3.045874e+06
  -2.317342e+06   5.821281e+06
  -6.587326e+06   9.337402e+05
  -4.824993e+06  -6.604096e+06
   1.852412e+06  -8.093557e+06
   7.078898e+06  -2.262231e+06
   6.618414e+06   4.272307e+06
   1.752364e+06   5.767989e+06
  -3.328120e+06   2.588581e+06
  -5.031346e+06  -1.466176e+06
  -2.320116e+06  -3.335349e+06
   2.302579e+06  -2.089138e+06
   4.311585e+06   8.929084e+05
   1.852418e+06   2.595935e+06
  -1.640999e+06   1.298161e+06
  -1.665800e+06  -9.859547e+05
   1.245125e+06  -8.833568e+05
   2.352998e+06   1.649889e+06
  -5.715678e+05   3.248218e+06
  -4.382777e+06   1.793995e+06
  -5.036341e+06  -1.292779e+06
  -2.196700e+06  -3.786637e+06
   1.753129e+06  -5.016738e+06
   4.827413e+06  -4.601519e+06
   5.935000e+06  -1.627389e+06
   4.351822e+06   3.052250e+06
   8.643605e+05   5.909168e+06
  -1.790894e+06   4.560120e+06
  -1.678404e+06   1.183893e+06
  -1.686706e+05  -2.115615e+05
  -1.452612e+04   9.528801e+05
  -1.581373e+06   1.696888e+06
  -2.717433e+06   1.890796e+05
  -1.936690e+06  -1.894511e+06
   2.331847e+03  -2.082302e+06
   1.519258e+06  -1.894189e+05
   1.618454e+06   2.022374e+06
  -1.549161e+04   2.834211e+06
  -2.674991e+06   1.569746e+06
  -4.282228e+06  -1.177837e+06
  -3.057889e+06  -3.621544e+06
   6.203568e+04  -4.038516e+06
   2.186600e+06  -2.581235e+06
   2.133231e+06  -1.080390e+06
   1.758483e+06  -6.567224e+05
   2.836543e+06  -4.560827e+05
   4.190940e+06   7.504506e+05
   3.351976e+06   2.685744e+06
   1.053264e+05   3.989272e+06
  -3.123151e+06   3.753795e+06
  -4.052274e+06   2.023203e+06
  -2.566059e+06  -4.303113e+05
  -2.456768e+05  -2.167784e+06
   1.082650e+06  -1.862337e+06
   5.447618e+05   4.098474e+04
  -1.063613e+06   1.261012e+06
  -1.847100e+06   3.743432e+05
  -8.819398e+05  -1.171207e+06
   5.104241e+05  -1.076974e+06
   4.175139e+05   3.791242e+05
  -1.029388e+06   6.761185e+05
  -1.789202e+06  -1.240848e+06
  -6.176969e+05  -3.366286e+06
   1.542126e+06  -3.297211e+06
   3.038606e+06  -1.074049e+06
   3.200179e+06   1.408621e+06
   2.194207e+06   2.688140e+06
   4.254473e+05   2.535108e+06
  -1.213048e+06   1.412051e+06
  -1.532387e+06   2.105284e+05
  -4.778863e+05  -4.767257e+04
   3.428083e+05   7.326284e+05
  -4.103452e+05   1.298995e+06
  -1.855650e+06   5.488350e+05
  -1.968661e+06  -8.760124e+05
  -3.638852e+05  -1.378883e+06
   1.143074e+06  -5.463357e+05
   8.599454e+05   4.494462e+05
  -8.293572e+05   4.981242e+05
  -2.114647e+06  -3.286988e+05
  -1.681713e+06  -1.330592e+06
   2.574385e+05  -1.910601e+06
   2.253863e+06  -1.588284e+06
   2.696060e+06  -2.451049e+05
   1.173670e+06   1.239152e+06
  -9.044847e+05   1.454412e+06
  -1.519058e+06   1.736434e+05
  -1.887131e+05  -1.052853e+06
   1.480383e+06  -7.059734e+05
   1.664709e+06   7.742206e+05
   3.127496e+05   1.609639e+06
  -1.071792e+06   9.383253e+05
  -1.219275e+06  -3.172257e+05
  -2.296539e+05  -7.635731e+05
   7.775579e+05  -4.661618e+04
   7.102369e+05   1.030998e+06
  -5.693193e+05   1.382670e+06
  -1.957009e+06   5.157025e+05
  -1.974164e+06  -1.035119e+06
  -3.587215e+05  -2.022090e+06
   1.414676e+06  -1.587878e+06
   1.681758e+06  -1.897117e+05
   4.799826e+05   8.501406e+05
  -6.482411e+05   7.753684e+05
  -6.145958e+05   6.973844e+04
   1.201586e+05  -3.458299e+05
   4.763070e+05  -1.949489e+05
   1.120658e+05   6.334648e+04
  -4.385557e+05  -8.408367e+04
  -4.960461e+05  -6.622761e+05
   2.136831e+05  -1.153632e+06
   1.352658e+06  -8.593917e+05
   2.021954e+06   4.188504e+05
   1.411502e+06   1.901446e+06
  -2.277698e+05   2.352066e+06
  -1.580031e+06   1.358239e+06
  -1.638125e+06  -1.377260e+05
  -8.218170e+05  -8.742722e+05
  -3.023529e+05  -6.279254e+05
  -4.667424e+05  -2.119031e+05
  -6.123595e+05  -3.111773e+05
  -8.351781e+04  -7.471232e+05
   8.603062e+05  -8.683588e+05
   1.409174e+06  -3.019527e+05
   1.010872e+06   7.087385e+05
  -2.565878e+05   1.412286e+06
  -1.681329e+06   1.026540e+06
  -2.180090e+06  -4.873950e+05
  -1.083923e+06  -2.051219e+06
   1.003859e+06  -2.293163e+06
   2.483202e+06  -9.806479e+05
   2.278347e+06   6.634854e+05
   9.123517e+05   1.308650e+06
  -2.109351e+05   9.116962e+05
  -3.775739e+05   4.878826e+05
  -7.354490e+04   7.329396e+05
  -1.058128e+05   1.275142e+06
  -6.622168e+05   1.251947e+06
  -1.262714e+06   3.023044e+05
  -1.294988e+06  -1.058755e+06
  -5.298304e+05  -1.845571e+06
   6.132462e+05  -1.393531e+06
   1.249436e+06   1.199651e+04
   7.792835e+05   1.256092e+06
  -3.936759e+05   1.354964e+06
  -1.137997e+06   3.808156e+05
  -7.839884e+05  -6.915873e+05
   1.329427e+05  -1.049097e+06
   5.340798e+05  -7.553999e+05
   8.836854e+04  -4.007793e+05
  -4.208573e+05  -3.274990e+05
  -5.695627e+04  -3.724154e+05
   1.120934e+06  -1.955997e+05
   2.007763e+06   3.382779e+05
   1.565803e+06   1.021374e+06
  -5.136708e+04   1.398699e+06
  -1.558883e+06   1.100433e+06
  -1.784908e+06   2.541285e+05
  -8.051489e+05  -4.929822e+05
   2.604505e+05  -5.548945e+05
   4.995788e+05  -2.645266e+04
   2.957209e+04   4.143630e+05
  -4.295207e+05   2.505859e+05
  -4.676518e+05  -3.349179e+05
  -2.496002e+05  -7.027962e+05
  -9.737316e+04  -4.663380e+05
  -1.331106e+05   8.668351e+04
  -2.677017e+05   2.770703e+05
  -2.651702e+05  -2.282737e+05
   1.389545e+05  -9.562971e+05
   8.805268e+05  -1.033706e+06
   1.334805e+06  -1.685910e+05
   8.338139e+05   8.935881e+05
  -4.093655e+05   1.113947e+06
  -1.230903e+06   3.304993e+05
  -7.127352e+05  -5.578724e+05
   6.886387e+05  -6.250711e+05
   1.540040e+06   1.072947e+05
   9.606973e+05   8.475146e+05
  -4.857169e+05   9.508657e+05
  -1.457347e+06   4.429785e+05
  -1.188756e+06  -2.001265e+05
  -1.222501e+05  -4.982536e+05
   6.345476e+05  -2.530117e+05
   3.759910e+05   2.917545e+05
  -5.660566e+05   5.122667e+05
  -1.153080e+06  -7.314310e+04
  -6.623493e+05  -1.147176e+06
   5.639545e+05  -1.662342e+06
   1.439972e+06  -8.691333e+05
   1.222331e+06   7.347073e+05
   1.952754e+05   1.741453e+06
  -7.238093e+05   1.250006e+06
  -8.968860e+05  -1.842140e+05
  -4.054351e+05  -1.162506e+06
   2.302986e+05  -9.341718e+05
   5.512892e+05  -7.385961e+04
   4.422158e+05   3.661224e+05
   1.472387e+05   1.300800e+05
   5.199377e+04  -8.877424e+04
   2.882530e+05   2.971287e+05
   4.998459e+05   9.457595e+05
   1.680993e+05   1.046846e+06
  -7.135937e+05   3.789285e+05
  -1.431944e+06  -4.555573e+05
  -1.229329e+06  -8.169423e+05
  -1.765127e+05  -6.835065e+05
   8.179851e+05  -4.089935e+05
   9.530775e+05  -1.706245e+05
   3.625181e+05   6.112143e+04
  -1.364624e+05   2.213406e+05
  -5.160398e+04   1.903925e+05
   2.399158e+05   8.117970e+04
   5.683405e+04   1.288913e+05
  -6.243039e+05   2.389479e+05
  -1.022878e+06  -3.654915e+03
  -4.518571e+05  -6.785364e+05
   7.993984e+05  -1.162791e+06
   1.669447e+06  -7.557132e+05
   1.402798e+06   4.061441e+05
   2.806571e+05   1.366841e+06
  -7.498022e+05   1.350138e+06
  -1.022782e+06   5.425336e+05
  -6.373267e+05  -2.122370e+05
  -1.409750e+05  -3.498173e+05
   5.032080e+04  -7.863754e+04
  -8.545650e+04   1.602123e+03
  -2.836723e+05  -3.638615e+05
  -2.348023e+05  -7.871534e+05
   1.677393e+05  -6.681417e+05
   6.611323e+05   9.914828e+04
   7.399289e+05   9.093885e+05
   1.440221e+05   1.008924e+06
  -7.197876e+05   2.691919e+05
  -1.022206e+06  -6.755830e+05
  -3.619584e+05  -1.062360e+06
   6.881230e+05  -6.828737e+05
   1.103354e+06   5.941251e+04
   5.350213e+05   6.105617e+05
  -2.781650e+05   6.845631e+05
  -3.872631e+05   3.654968e+05
   2.202764e+05  -1.830891e+03
   6.277590e+05  -4.622583e+04
   1.523260e+05   3.040054e+05
  -8.009956e+05   6.640917e+05
  -1.243134e+06   5.172591e+05
  -7.657956e+05  -1.864155e+05
   8.673661e+04  -8.574333e+05
   5.527414e+05  -8.470286e+05
   4.368560e+05  -1.760938e+05
   6.806386e+04   4.582052e+05
  -2.263148e+05   4.388802e+05
  -3.440257e+05  -1.206195e+05
  -2.555868e+05  -5.605884e+05
   4.319969e+04  -4.361511e+05
   3.830086e+05   3.140076e+04
   4.729062e+05   2.847061e+05
   2.370836e+05   1.051196e+05
  -4.459553e+04  -1.627691e+05
  -8.026625e+04  -7.528353e+04
   4.401598e+04   3.322863e+05
  -3.471283e+03   5.615381e+05
  -2.972437e+05   2.548716e+05
  -4.793993e+05  -3.416249e+05
  -1.966945e+05  -6.284054e+05
   3.848528e+05  -3.216993e+05
   6.658020e+05   2.525013e+05
   2.645744e+05   5.487914e+05
  -4.983921e+05   3.644836e+05
  -8.752882e+05  -5.577512e+04
  -4.776877e+05  -3.635690e+05
   2.832795e+05  -4.099724e+05
   6.279834e+05  -2.489848e+05
   2.617372e+05  -2.340479e+04
  -3.132313e+05   8.892440e+04
  -3.895229e+05  -3.270370e+04
   1.404623e+05  -2.715375e+05
   6.893976e+05  -2.745272e+05
