
 $NMID
 id='ANONYMOUS ', fmtdat='(2E16.6)'
 volume=1.0
 tramp=1.0
 $END
   2.439429e+07  -1.684013e+05
   1.686991e+07   1.035138e+07
   9.893085e+05   1.519138e+07
  -1.010382e+07   1.146742e+07
  -9.388038e+06   2.240426e+06
  -1.162278e+06  -4.517581e+06
   5.166327e+06  -3.053196e+06
   4.533122e+06   3.816304e+06
  -6.507722e+05   7.569150e+06
  -4.700778e+06   3.698979e+06
  -4.296964e+06  -3.294082e+06
  -5.948968e+05  -5.579166e+06
   2.570474e+06  -1.062722e+06
   2.176331e+06   4.830501e+06
  -1.333730e+06   5.705330e+06
  -4.335590e+06   8.254485e+05
  -3.454246e+06  -4.927350e+06
   8.953671e+05  -6.442597e+06
   4.768542e+06  -3.063949e+06
   4.821356e+06   1.547285e+06
   1.800368e+06   3.497743e+06
  -5.422146e+05   2.400056e+06
   2.317595e+05   1.108059e+06
   2.583598e+06   2.020981e+06
   2.792278e+06   4.265396e+06
  -8.367767e+05   4.919529e+06
  -5.763996e+06   2.545617e+06
  -7.414673e+06  -1.230859e+06
  -3.855501e+06  -3.527102e+06
   1.805648e+06  -2.876729e+06
   4.260082e+06  -1.470086e+05
   1.499089e+06   2.352354e+06
  -3.093336e+06   2.456087e+06
  -4.630461e+06  -2.100545e+05
  -2.073713e+06  -3.479415e+06
   1.235359e+06  -4.212824e+06
   1.984053e+06  -1.560331e+06
   4.065050e+05   1.656299e+06
  -9.354025e+05   1.836967e+06
  -5.291876e+05  -1.126048e+06
   9.519554e+05  -3.547952e+06
   2.071847e+06  -2.347071e+06
   1.945812e+06   1.208976e+06
   4.708541e+05   3.051808e+06
  -1.485994e+06   1.139160e+06
  -2.088432e+06  -2.321113e+06
  -1.744371e+04  -3.558684e+06
   3.473354e+06  -1.298728e+06
   4.999635e+06   2.277853e+06
   2.521061e+06   4.054648e+06
  -2.042028e+06   2.861746e+06
  -4.559987e+06   9.177671e+04
  -3.010717e+06  -1.892525e+06
   6.028635e+05  -1.790424e+06
   2.662749e+06  -2.195539e+05
   1.653729e+06   1.074588e+06
  -7.229734e+05   8.732217e+05
  -1.698824e+06  -4.552063e+05
  -3.460366e+05  -1.429524e+06
   1.585353e+06  -9.708970e+05
   1.637924e+06   5.192077e+05
  -5.388423e+05   1.515594e+06
  -2.566508e+06   7.871440e+05
  -1.856112e+06  -1.391410e+06
   1.408383e+06  -3.286121e+06
   4.348764e+06  -3.075406e+06
   4.519671e+06  -4.998780e+05
   2.353023e+06   2.729013e+06
   1.803647e+05   4.385392e+06
  -5.695760e+05   3.785845e+06
  -5.140759e+05   2.260496e+06
  -9.382478e+05   1.426100e+06
  -2.096224e+06   1.276488e+06
  -3.081936e+06   4.737065e+05
  -2.868160e+06  -1.503791e+06
  -1.212324e+06  -3.190783e+06
   1.084289e+06  -2.648834e+06
   2.534149e+06   9.322822e+04
   1.956083e+06   2.729791e+06
  -3.810272e+05   2.975057e+06
  -2.674513e+06   8.147832e+05
  -3.095189e+06  -1.729184e+06
  -1.536372e+06  -2.773576e+06
   3.668192e+05  -2.184353e+06
   1.082296e+06  -1.191266e+06
   8.178535e+05  -8.575952e+05
   1.055794e+06  -1.096644e+06
   2.518820e+06  -9.668311e+05
   3.965102e+06   2.773907e+05
   3.358654e+06   2.345614e+06
   2.688545e+05   3.951900e+06
  -3.218893e+06   3.772847e+06
  -4.342018e+06   1.646103e+06
  -2.428438e+06  -1.047501e+06
   4.359543e+05  -2.380855e+06
   1.602996e+06  -1.564215e+06
   4.746334e+05   2.727052e+05
  -1.254897e+06   1.160049e+06
  -1.678040e+06   3.114637e+05
  -5.716939e+05  -1.047547e+06
   7.220954e+05  -1.111288e+06
   8.391974e+05   2.975700e+05
  -3.703014e+05   1.346433e+06
  -1.799820e+06   2.843699e+05
  -1.982829e+06  -2.333988e+06
  -2.816009e+05  -3.985067e+06
   2.389374e+06  -2.826916e+06
   4.056020e+06   3.246431e+05
   3.331014e+06   2.878070e+06
   8.012216e+05   3.089543e+06
  -1.413422e+06   1.528419e+06
  -1.700379e+06   8.680921e+04
  -4.911076e+05  -4.333929e+04
   3.804930e+05   7.222325e+05
  -2.275781e+05   1.153105e+06
  -1.545699e+06   5.731151e+05
  -1.861206e+06  -5.479395e+05
  -5.573442e+05  -1.156484e+06
   1.062917e+06  -6.785809e+05
   1.136222e+06   3.985346e+05
  -6.463803e+05   9.436248e+05
  -2.515968e+06   2.352081e+05
  -2.393990e+06  -1.302217e+06
  -1.142426e+05  -2.391216e+06
   2.332904e+06  -2.022813e+06
   2.823273e+06  -4.198247e+05
   1.192448e+06   1.085559e+06
  -7.753762e+05   1.254589e+06
  -1.252772e+06   1.477282e+05
  -5.857188e+04  -9.096868e+05
   1.429478e+06  -6.932342e+05
   1.739839e+06   6.066478e+05
   6.241649e+05   1.599356e+06
  -8.456538e+05   1.254406e+06
  -1.331907e+06   3.925914e+04
  -4.999495e+05  -6.613968e+05
   6.286012e+05  -1.191930e+05
   6.743587e+05   9.860125e+05
  -6.217680e+05   1.367229e+06
  -2.006836e+06   4.650338e+05
  -1.977883e+06  -1.064229e+06
  -4.042288e+05  -2.005806e+06
   1.301756e+06  -1.644683e+06
   1.665951e+06  -3.403661e+05
   6.232282e+05   7.954414e+05
  -5.796979e+05   8.807168e+05
  -7.815474e+05   7.262258e+04
  -1.906201e+04  -6.330698e+05
   7.040911e+05  -5.002245e+05
   5.684849e+05   1.363455e+05
  -2.169466e+05   3.156195e+05
  -6.603105e+05  -3.466596e+05
  -3.859329e+04  -1.129640e+06
   1.276805e+06  -9.764222e+05
   2.076261e+06   3.353866e+05
   1.472350e+06   1.896001e+06
  -1.872039e+05   2.483353e+06
  -1.632622e+06   1.644019e+06
  -1.903319e+06   5.953830e+04
  -1.187627e+06  -1.077420e+06
  -4.281026e+05  -1.121236e+06
  -2.355989e+05  -5.058217e+05
  -3.358127e+05  -1.953092e+05
  -5.953790e+04  -5.689678e+05
   7.664483e+05  -9.708740e+05
   1.505050e+06  -5.111307e+05
   1.286154e+06   7.613370e+05
  -8.172484e+04   1.719027e+06
  -1.738762e+06   1.286217e+06
  -2.368093e+06  -3.982490e+05
  -1.319467e+06  -2.040828e+06
   7.469891e+05  -2.372655e+06
   2.362280e+06  -1.240576e+06
   2.487145e+06   3.750346e+05
   1.329471e+06   1.317438e+06
  -2.942461e+03   1.249802e+06
  -5.925365e+05   7.930450e+05
  -4.511678e+05   7.243308e+05
  -2.758537e+05   1.077757e+06
  -5.913525e+05   1.124187e+06
  -1.173845e+06   2.774072e+05
  -1.299586e+06  -1.094930e+06
  -5.498526e+05  -1.914316e+06
   6.443119e+05  -1.453171e+06
   1.318420e+06  -6.296006e+04
   9.009731e+05   1.166601e+06
  -1.899624e+05   1.389472e+06
  -9.492467e+05   6.422099e+05
  -7.979811e+05  -3.529693e+05
  -1.234015e+05  -8.936531e+05
   2.341645e+05  -8.337557e+05
  -3.991295e+04  -5.390026e+05
  -3.841620e+05  -3.982432e+05
  -2.821587e+04  -4.119289e+05
   1.049242e+06  -2.637394e+05
   1.933625e+06   2.478566e+05
   1.635936e+06   9.207818e+05
   1.605456e+05   1.304784e+06
  -1.369893e+06   1.103901e+06
  -1.760973e+06   4.344913e+05
  -9.120376e+05  -2.437481e+05
   1.590341e+05  -4.614647e+05
   4.488762e+05  -1.394657e+05
  -3.935791e+04   2.775270e+05
  -5.219973e+05   2.199876e+05
  -4.582203e+05  -3.454771e+05
  -8.078772e+04  -7.773245e+05
   6.832219e+04  -4.937643e+05
  -1.582024e+05   2.205650e+05
  -4.173170e+05   4.507431e+05
  -3.142552e+05  -2.111862e+05
   2.227336e+05  -1.056506e+06
   8.881115e+05  -1.047797e+06
   1.160413e+06  -6.884622e+04
   6.554492e+05   9.216837e+05
  -4.100821e+05   9.837859e+05
  -1.144184e+06   1.763371e+05
  -7.157409e+05  -6.311486e+05
   6.574145e+05  -6.972423e+05
   1.686781e+06  -1.773432e+04
   1.264765e+06   8.174833e+05
  -3.055961e+05   1.155791e+06
  -1.563789e+06   7.520427e+05
  -1.415401e+06  -4.996070e+04
  -2.336957e+05  -5.635719e+05
   6.357138e+05  -3.651794e+05
   3.349065e+05   2.387729e+05
  -6.731609e+05   4.463328e+05
  -1.182910e+06  -2.091054e+05
  -5.244222e+05  -1.264287e+06
   7.841584e+05  -1.662866e+06
   1.598954e+06  -7.827095e+05
   1.272549e+06   8.395522e+05
   1.833978e+05   1.874227e+06
  -7.615323e+05   1.421765e+06
  -9.841461e+05  -6.960320e+04
  -5.617195e+05  -1.209144e+06
   7.764655e+04  -1.081647e+06
   5.343217e+05  -1.511829e+05
   5.867334e+05   4.131902e+05
   2.861408e+05   1.805065e+05
   4.906530e+03  -1.355786e+05
   1.199722e+05   2.194497e+05
   4.627545e+05   9.566875e+05
   3.409564e+05   1.137667e+06
  -5.713465e+05   4.363002e+05
  -1.542383e+06  -4.809788e+05
  -1.453178e+06  -8.608135e+05
  -2.082176e+05  -6.900706e+05
   9.940954e+05  -4.163682e+05
   1.056909e+06  -2.320402e+05
   2.737332e+05  -1.660913e+04
  -1.952994e+05   2.187442e+05
   9.887171e+04   2.812772e+05
   4.161716e+05   1.787134e+05
  -5.631875e+03   1.451107e+05
  -8.351535e+05   1.796603e+05
  -1.053463e+06  -6.505694e+04
  -2.246834e+05  -6.862787e+05
   1.010221e+06  -1.108290e+06
   1.649694e+06  -6.505706e+05
   1.260563e+06   5.373260e+05
   2.074993e+05   1.466763e+06
  -7.630442e+05   1.351149e+06
  -1.076450e+06   4.406614e+05
  -6.871736e+05  -3.256046e+05
  -7.114864e+04  -3.651990e+05
   1.938946e+05   1.785607e+04
  -3.894710e+04   1.121923e+05
  -3.689201e+05  -3.382924e+05
  -2.989733e+05  -8.299858e+05
   2.207843e+05  -6.619455e+05
   7.210145e+05   2.273620e+05
   6.583573e+05   1.074411e+06
  -4.781895e+04   1.039642e+06
  -8.535651e+05   1.109530e+05
  -1.001292e+06  -8.734365e+05
  -2.509826e+05  -1.111209e+06
   7.605455e+05  -5.823489e+05
   1.076089e+06   1.325293e+05
   4.587727e+05   5.438934e+05
  -2.941564e+05   5.685641e+05
  -2.855933e+05   3.425567e+05
   3.704216e+05   6.078038e+04
   6.955273e+05  -9.531914e+03
   1.037909e+05   2.937762e+05
  -8.551342e+05   6.966093e+05
  -1.195562e+06   6.217172e+05
  -6.589051e+05  -9.948152e+04
   1.233833e+05  -8.393399e+05
   4.748265e+05  -8.180124e+05
   3.189151e+05  -7.374802e+04
  -1.680279e+04   5.385767e+05
  -2.739289e+05   3.762275e+05
  -3.625994e+05  -2.618375e+05
  -2.321117e+05  -5.984845e+05
   8.934076e+04  -3.387846e+05
   3.935110e+05   9.934524e+04
   4.443662e+05   2.215846e+05
   2.454952e+05   3.702940e+04
   2.023650e+04  -7.063044e+04
  -8.376634e+04   1.256372e+05
  -1.420728e+05   4.278151e+05
  -2.687698e+05   4.427517e+05
  -3.948889e+05   2.335656e+04
  -3.187448e+05  -5.210258e+05
   4.075814e+04  -6.796267e+05
   4.767646e+05  -2.599048e+05
   6.014041e+05   3.689856e+05
   1.924829e+05   6.332352e+05
  -4.941208e+05   3.473081e+05
  -8.366078e+05  -1.428640e+05
  -4.496873e+05  -3.982891e+05
   3.078856e+05  -3.231932e+05
   6.281543e+05  -1.221442e+05
   1.731872e+05   2.829666e+03
  -4.701760e+05  -2.397577e+04
  -4.593142e+05  -1.925052e+05
   2.736140e+05  -3.633611e+05
   9.208271e+05  -2.550804e+05
