
 $NMID
 id='ANONYMOUS ', fmtdat='(2E16.6)'
 volume=1.0
 tramp=1.0
 $END
  -1.467450e+07   1.358043e+06
  -9.889934e+06  -7.861905e+06
   6.380077e+05  -1.001782e+07
   6.706296e+06  -4.954122e+06
   4.703148e+06   9.683840e+05
  -4.053219e+05   2.572902e+06
  -2.697966e+06   2.384563e+05
  -1.264996e+06  -2.463779e+06
   1.229943e+06  -2.917605e+06
   2.533713e+06  -1.006426e+06
   2.082649e+06   1.513137e+06
   4.279380e+05   2.393478e+06
  -1.051038e+06   7.943031e+05
  -8.945345e+05  -1.586907e+06
   8.166786e+05  -2.059615e+06
   2.176953e+06   3.873405e+04
   1.536668e+06   2.609550e+06
  -6.459330e+05   3.289992e+06
  -2.531252e+06   1.822799e+06
  -2.873403e+06  -3.376322e+05
  -1.805552e+06  -1.808331e+06
  -3.203728e+05  -2.108820e+06
   4.676726e+05  -1.520221e+06
   1.170953e+05  -8.481116e+05
  -5.270747e+05  -8.544415e+05
  -5.926676e+04  -1.358133e+06
   1.617711e+06  -1.310293e+06
   2.789860e+06  -2.085207e+05
   1.997309e+06   1.070112e+06
   9.344566e+03   1.363206e+06
  -1.141905e+06   6.549061e+05
  -6.679979e+05  -1.539987e+05
   4.072841e+05  -4.274380e+05
   9.121318e+05  -1.196194e+05
   6.898342e+05   5.897344e+05
   1.177435e+05   1.227352e+06
  -4.867207e+05   1.029616e+06
  -7.436777e+05  -9.004737e+04
  -3.787075e+05  -9.189486e+05
   1.600684e+05  -3.397240e+05
   3.111466e+04   8.517285e+05
  -6.869782e+05   7.759427e+05
  -7.970221e+05  -7.637872e+05
   3.481658e+05  -1.702794e+06
   1.650812e+06  -5.057140e+05
   1.492409e+06   1.618027e+06
  -2.149286e+05   2.260121e+06
  -1.901606e+06   8.289919e+05
  -2.097344e+06  -1.038519e+06
  -7.732645e+05  -1.671885e+06
   9.021353e+05  -9.414444e+05
   1.622445e+06   2.187354e+05
   8.933148e+05   9.005948e+05
  -5.422027e+05   7.116647e+05
  -1.271236e+06  -7.982877e+04
  -6.490962e+05  -6.589462e+05
   4.146565e+05  -4.247206e+05
   5.654425e+05   2.336940e+05
  -2.448469e+05   3.731989e+05
  -7.473307e+05  -2.412585e+05
  -1.052823e+05  -8.351350e+05
   1.029190e+06  -6.808087e+05
   1.448221e+06   1.013368e+05
   7.798503e+05   9.559476e+05
  -4.089200e+05   1.503020e+06
  -1.397005e+06   1.456527e+06
  -1.739725e+06   5.669754e+05
  -1.294312e+06  -8.411747e+05
  -3.610980e+05  -1.742627e+06
   3.615413e+05  -1.448813e+06
   4.204303e+05  -5.222609e+05
   1.403326e+05  -7.323729e+04
   1.692842e+05  -3.181941e+05
   5.928908e+05  -4.612675e+05
   8.695479e+05   2.874744e+04
   5.913293e+05   6.746373e+05
  -5.388935e+04   7.114902e+05
  -5.717260e+05   6.218986e+04
  -5.901059e+05  -6.794718e+05
  -2.494191e+04  -9.218700e+05
   8.197221e+05  -4.982295e+05
   1.295065e+06   3.229525e+05
   9.369508e+05   1.010697e+06
   5.740949e+04   1.135101e+06
  -5.381427e+05   7.652217e+05
  -5.449063e+05   3.854871e+05
  -4.927724e+05   2.944272e+05
  -8.782989e+05   2.570956e+05
  -1.348515e+06  -1.050232e+05
  -1.141116e+06  -7.597477e+05
  -1.372030e+05  -1.278928e+06
   9.298399e+05  -1.277709e+06
   1.281245e+06  -7.053632e+05
   8.182701e+05   1.345402e+05
   6.568024e+04   7.053184e+05
  -3.504436e+05   5.931440e+05
  -1.684720e+05  -2.066647e+04
   3.299509e+05  -4.191091e+05
   5.706337e+05  -1.576966e+05
   2.837643e+05   3.438220e+05
  -1.589972e+05   3.596498e+05
  -1.807195e+05  -1.084125e+05
   2.630077e+05  -3.047027e+05
   6.159148e+05   2.248734e+05
   4.018636e+05   9.890144e+05
  -2.676554e+05   1.170110e+06
  -9.103844e+05   5.725107e+05
  -1.144794e+06  -2.936405e+05
  -8.642144e+05  -8.419935e+05
  -2.218281e+05  -8.579221e+05
   3.775711e+05  -4.898015e+05
   5.022842e+05  -8.951055e+04
   1.560899e+05   4.506131e+03
  -1.300682e+05  -2.273340e+05
   8.565036e+04  -4.156019e+05
   5.575519e+05  -2.226298e+05
   6.461472e+05   2.080189e+05
   1.669641e+05   4.174163e+05
  -3.492248e+05   2.137812e+05
  -3.113947e+05  -1.227117e+05
   2.427963e+05  -2.190798e+05
   7.270182e+05   1.225346e+04
   6.333810e+05   3.936485e+05
  -1.135989e+04   6.654968e+05
  -7.000984e+05   5.986734e+05
  -8.745558e+05   1.531861e+05
  -4.081755e+05  -3.592328e+05
   2.456121e+05  -4.716028e+05
   4.613051e+05  -8.963195e+04
   7.402418e+04   3.208634e+05
  -4.558417e+05   2.594618e+05
  -5.607890e+05  -1.977502e+05
  -1.641199e+05  -5.124719e+05
   3.063907e+05  -3.555613e+05
   4.121515e+05   4.414581e+04
   1.158270e+05   2.335464e+05
  -2.361607e+05   4.000920e+04
  -2.484177e+05  -3.112707e+05
   1.567866e+05  -4.553401e+05
   6.218358e+05  -2.044088e+05
   6.580467e+05   2.916699e+05
   1.644940e+05   6.414246e+05
  -4.103198e+05   5.482343e+05
  -5.367932e+05   1.118998e+05
  -1.866634e+05  -2.591708e+05
   1.858986e+05  -2.738761e+05
   2.109574e+05  -3.532522e+04
  -2.068689e+04   1.401073e+05
  -1.710584e+05   9.839037e+04
  -7.696202e+04  -2.770091e+04
   1.264489e+05  -1.939014e+04
   1.909773e+05   1.755935e+05
  -2.088876e+04   3.755659e+05
  -4.102708e+05   3.171877e+05
  -6.650327e+05  -8.299691e+04
  -5.015583e+05  -5.803199e+05
   1.856858e+04  -7.736203e+05
   4.850683e+05  -4.968694e+05
   5.550611e+05  -7.342988e+03
   3.145424e+05   2.839694e+05
   1.184538e+05   2.399996e+05
   1.320819e+05   8.207766e+04
   1.802127e+05   7.420805e+04
   4.246061e+04   2.225525e+05
  -2.501779e+05   3.079906e+05
  -4.566388e+05   1.457825e+05
  -3.645268e+05  -2.125254e+05
   3.837549e+04  -4.883046e+05
   5.251566e+05  -3.897332e+05
   7.292562e+05   1.021171e+05
   4.150014e+05   6.366076e+05
  -2.499166e+05   7.688406e+05
  -7.683163e+05   3.944341e+05
  -7.683255e+05  -1.389858e+05
  -3.593668e+05  -4.047249e+05
   3.183533e+04  -3.294425e+05
   1.320005e+05  -1.906206e+05
   4.073389e+04  -2.337447e+05
   1.929263e+04  -3.938223e+05
   1.780318e+05  -4.066981e+05
   3.914446e+05  -1.237344e+05
   4.401799e+05   3.150908e+05
   2.126244e+05   5.881523e+05
  -1.695344e+05   4.669241e+05
  -4.088301e+05   3.000800e+04
  -2.899729e+05  -3.797421e+05
   7.882382e+04  -4.491883e+05
   3.428861e+05  -1.723010e+05
   2.712962e+05   1.752237e+05
   4.345680e+03   3.285805e+05
  -1.290695e+05   2.640154e+05
  -9.208706e+03   1.441229e+05
   1.387983e+05   1.020916e+05
   2.363596e+04   1.218327e+05
  -3.504252e+05   9.422881e+04
  -6.473814e+05  -5.587429e+04
  -5.332240e+05  -2.854745e+05
  -3.397820e+04  -4.442656e+05
   4.603108e+05  -3.902236e+05
   5.677820e+05  -1.374940e+05
   2.812876e+05   1.194270e+05
  -6.182326e+04   1.767366e+05
  -1.564771e+05   2.993382e+04
  -1.351414e+04  -1.200421e+05
   1.407073e+05  -8.670174e+04
   1.569587e+05   9.832859e+04
   8.027532e+04   2.259619e+05
   2.674485e+04   1.490770e+05
   4.416494e+04  -4.246056e+04
   9.449603e+04  -1.092445e+05
   9.466420e+04   6.643929e+04
  -3.184190e+04   3.188522e+05
  -2.611156e+05   3.530495e+05
  -4.093161e+05   7.615266e+04
  -2.718930e+05  -2.701385e+05
   1.061369e+05  -3.557936e+05
   3.798061e+05  -1.204798e+05
   2.413326e+05   1.702468e+05
  -2.055038e+05   2.229498e+05
  -5.117658e+05   9.507648e+03
  -3.549598e+05  -2.510314e+05
   1.208239e+05  -3.361429e+05
   4.707707e+05  -2.013265e+05
   4.080323e+05   2.646020e+04
   5.974943e+04   1.641951e+05
  -1.994324e+05   1.053979e+05
  -1.241545e+05  -8.047064e+04
   1.797186e+05  -1.706403e+05
   3.741391e+05   1.027528e+04
   2.253384e+05   3.637147e+05
  -1.641838e+05   5.456459e+05
  -4.574882e+05   3.025990e+05
  -4.131608e+05  -2.190120e+05
  -9.928380e+04  -5.676083e+05
   2.098302e+05  -4.330806e+05
   3.011692e+05   2.990479e+04
   1.696452e+05   3.702625e+05
  -4.093481e+04   3.197767e+05
  -1.747207e+05   4.293081e+04
  -1.628069e+05  -1.132113e+05
  -6.220224e+04  -4.405618e+04
  -1.092541e+04   3.423284e+04
  -8.492769e+04  -8.104506e+04
  -1.783587e+05  -2.938586e+05
  -9.194252e+04  -3.423786e+05
   2.089527e+05  -1.438396e+05
   4.803420e+05   1.179415e+05
   4.330766e+05   2.411635e+05
   7.463954e+04   2.167861e+05
  -2.697984e+05   1.490013e+05
  -3.124858e+05   8.064343e+04
  -1.106523e+05  -4.098592e+03
   4.420846e+04  -7.358240e+04
  -2.831610e+02  -7.159319e+04
  -9.386535e+04  -3.075700e+04
  -1.544735e+04  -4.114212e+04
   2.138081e+05  -8.382857e+04
   3.313568e+05  -1.578110e+04
   1.401280e+05   2.072772e+05
  -2.497439e+05   3.853414e+05
  -5.177861e+05   2.708353e+05
  -4.466363e+05  -1.102381e+05
  -1.132623e+05  -4.418158e+05
   2.125264e+05  -4.508557e+05
   3.209962e+05  -1.876682e+05
   2.132605e+05   6.460013e+04
   4.676171e+04   1.102256e+05
  -2.647316e+04   1.676798e+04
   2.413825e+04  -1.256214e+04
   1.070446e+05   1.091165e+05
   9.833586e+04   2.522598e+05
  -4.380575e+04   2.176877e+05
  -2.192163e+05  -2.906662e+04
  -2.496905e+05  -2.901911e+05
  -5.140282e+04  -3.226849e+05
   2.363062e+05  -8.749061e+04
   3.404623e+05   2.121331e+05
   1.297101e+05   3.372623e+05
  -2.119509e+05   2.254146e+05
  -3.532643e+05  -1.011442e+03
  -1.793059e+05  -1.780708e+05
   7.489720e+04  -2.159089e+05
   1.072565e+05  -1.248396e+05
  -8.371601e+04  -1.224883e+03
  -2.066590e+05   2.497626e+04
  -5.147681e+04  -9.316352e+04
   2.480250e+05  -2.338338e+05
   3.849934e+05  -2.035206e+05
   2.416158e+05   3.452256e+04
  -1.205567e+04   2.758703e+05
  -1.519430e+05   2.826939e+05
  -1.254069e+05   5.807282e+04
  -2.389092e+04  -1.524117e+05
   6.687267e+04  -1.402606e+05
   1.139452e+05   4.388371e+04
   9.224612e+04   1.778727e+05
  -7.635984e+03   1.322672e+05
  -1.243368e+05  -7.738682e+03
  -1.563561e+05  -7.530547e+04
  -7.984172e+04  -2.259040e+04
   1.286544e+04   4.270460e+04
   2.927438e+04   4.618591e+03
  -4.278217e+03  -1.130344e+05
   1.139100e+04  -1.682149e+05
   9.695937e+04  -6.728036e+04
   1.461828e+05   1.140516e+05
   5.569578e+04   2.006035e+05
  -1.243990e+05   1.058245e+05
  -2.131749e+05  -7.638100e+04
  -9.021002e+04  -1.776509e+05
   1.517556e+05  -1.267654e+05
   2.787130e+05   6.037262e+03
   1.589614e+05   1.092637e+05
  -8.360129e+04   1.302614e+05
  -1.955920e+05   8.272426e+04
  -7.563447e+04   1.163515e+04
   1.119003e+05  -2.436764e+04
   1.310617e+05   1.660251e+04
  -5.166972e+04   9.763942e+04
  -2.361097e+05   1.001389e+05
