
 $NMID
 id='ANONYMOUS ', fmtdat='(2E16.6)'
 volume=1.0
 tramp=1.0
 $END
   3.434362e+05  -1.261027e+06
   6.891533e+05  -2.290920e+05
   4.155484e+05   4.074406e+05
   1.103317e+05   2.570768e+05
   4.132977e+04  -7.620856e+04
   2.975584e+04  -1.051635e+05
  -2.007345e+04  -1.516919e+03
   1.223942e+04  -2.711025e+04
   1.081755e+05  -6.734276e+04
   6.517157e+04   4.054520e+04
  -1.265045e+05   1.482670e+05
  -2.044408e+05   5.181953e+04
  -3.480079e+04  -1.512729e+05
   1.775035e+05  -2.106648e+05
   1.922838e+05  -7.667692e+04
   3.146837e+04   8.371593e+04
  -1.309441e+05   1.176335e+05
  -1.863417e+05   1.133345e+03
  -1.025126e+05  -1.744023e+05
   9.808008e+04  -2.357394e+05
   2.638575e+05  -7.162866e+04
   1.954556e+05   1.678850e+05
  -7.039701e+04   1.695324e+05
  -2.175967e+05  -1.252227e+05
  -3.784625e+04  -3.611715e+05
   2.720640e+05  -2.001211e+05
   3.556566e+05   2.166780e+05
   1.325902e+05   4.392774e+05
  -1.634482e+05   2.637690e+05
  -2.885679e+05  -8.775840e+04
  -1.769159e+05  -2.973923e+05
   8.483867e+04  -2.550706e+05
   3.018031e+05  -4.078005e+04
   2.643323e+05   1.911791e+05
  -1.947315e+04   2.701925e+05
  -2.403477e+05   1.256692e+05
  -1.300797e+05  -9.025280e+04
   1.572880e+05  -1.313078e+05
   2.275142e+05   3.706915e+04
  -6.518036e+03   1.893782e+05
  -2.175342e+05   1.508269e+05
  -1.554396e+05   1.540149e+04
   1.870411e+04  -3.000682e+04
   2.749672e+04   3.118833e+04
  -1.155871e+05   7.363266e+04
  -1.938865e+05   2.724662e+04
  -1.347236e+05  -7.448639e+04
  -4.862690e+04  -1.780835e+05
   1.225520e+03  -2.302971e+05
   5.774379e+04  -1.693536e+05
   1.199030e+05  -8.003400e+03
   1.172948e+05   1.166541e+05
   4.849848e+04   8.776810e+04
  -1.483004e+01  -2.797868e+04
   7.597700e+03  -7.015004e+04
   2.073400e+04  -7.185021e+03
   1.579169e+04   5.193163e+04
   2.363007e+04   4.966234e+04
   3.128085e+04   4.445141e+04
  -1.456852e+04   7.079496e+04
  -8.237762e+04   7.424584e+04
  -7.226673e+04   3.071678e+04
  -8.425783e+02   5.210361e+03
  -2.079695e+04   2.551216e+04
  -1.747967e+05   8.816929e+03
  -2.728869e+05  -9.919737e+04
  -1.441311e+05  -2.052140e+05
   9.715684e+04  -1.932444e+05
   1.954661e+05  -1.026489e+05
   1.047165e+05  -6.691150e+04
   2.565864e+04  -1.104632e+05
   9.997140e+04  -1.201092e+05
   2.260998e+05  -1.507814e+04
   2.247290e+05   1.483708e+05
   6.950241e+04   2.518616e+05
  -1.115023e+05   2.231972e+05
  -1.871689e+05   7.033581e+04
  -1.194758e+05  -1.171229e+05
   3.201519e+04  -1.968336e+05
   1.469744e+05  -8.865102e+04
   1.281722e+05   1.132239e+05
  -2.139446e+03   2.135953e+05
  -1.155939e+05   1.336568e+05
  -1.184308e+05  -6.473835e+03
  -4.945385e+04  -5.437041e+04
  -1.343345e+04  -8.334397e+03
  -5.391385e+04   1.661821e+04
  -1.212450e+05  -4.707173e+04
  -1.321165e+05  -1.522832e+05
  -3.471527e+04  -2.064359e+05
   1.429296e+05  -1.551133e+05
   2.780110e+05  -1.644822e+04
   2.386414e+05   1.220801e+05
   3.778839e+04   1.594378e+05
  -1.404492e+05   7.893001e+04
  -1.333625e+05  -2.212409e+04
   1.046261e+04  -3.883282e+04
   1.026425e+05   2.216461e+04
   5.326833e+04   6.959420e+04
  -4.568375e+04   5.063889e+04
  -7.201727e+04  -4.765177e+03
  -1.771873e+04  -4.525942e+04
   4.480525e+04  -4.240862e+04
   6.243617e+04   1.738557e+04
   2.189775e+04   1.141897e+05
  -6.781016e+04   1.617173e+05
  -1.571514e+05   7.231179e+04
  -1.637289e+05  -1.126144e+05
  -5.983161e+04  -2.264355e+05
   7.055650e+04  -1.637049e+05
   1.165886e+05  -1.184359e+04
   6.892273e+04   6.203452e+04
   1.536443e+04   1.643885e+04
   1.968888e+04  -4.176405e+04
   5.604792e+04  -1.958358e+04
   6.429372e+04   5.300926e+04
   2.404952e+04   8.612078e+04
  -3.539552e+04   4.323911e+04
  -6.366845e+04  -3.244186e+04
  -2.339522e+04  -6.884291e+04
   6.735304e+04  -2.421383e+04
   1.225829e+05   7.532336e+04
   6.337770e+04   1.437200e+05
  -7.735158e+04   1.092724e+05
  -1.670202e+05  -3.076179e+03
  -1.190577e+05  -8.816207e+04
   5.302871e+03  -7.426300e+04
   7.315300e+04   2.440689e+03
   3.248343e+04   5.059411e+04
  -4.843807e+04   2.534278e+04
  -7.755500e+04  -4.111075e+04
  -3.339833e+04  -8.655657e+04
   3.501669e+04  -7.273944e+04
   6.679566e+04  -1.077394e+04
   3.971080e+04   4.309630e+04
  -1.313447e+04   3.240683e+04
  -2.942832e+04  -3.429216e+04
   2.046322e+04  -7.724431e+04
   9.201692e+04  -3.221573e+04
   1.053865e+05   6.715678e+04
   3.329062e+04   1.238810e+05
  -6.517258e+04   8.882421e+04
  -1.061290e+05   6.736834e+03
  -6.389974e+04  -4.684594e+04
   1.280062e+04  -4.163275e+04
   5.362884e+04  -7.143644e+02
   2.845759e+04   3.436373e+04
  -3.068638e+04   3.301905e+04
  -6.099336e+04  -3.661967e+03
  -3.178442e+04  -3.587669e+04
   1.894839e+04  -2.063267e+04
   2.371301e+04   3.020984e+04
  -3.283527e+04   4.989183e+04
  -8.831775e+04  -4.598740e+03
  -7.189751e+04  -9.246028e+04
   1.431842e+04  -1.318347e+05
   9.959854e+04  -8.980473e+04
   1.209543e+05  -6.272083e+03
   7.786246e+04   6.007925e+04
   1.755695e+04   8.190657e+04
  -1.439578e+04   6.601592e+04
  -9.177770e+03   3.707594e+04
   3.089947e+03   2.200234e+04
  -1.525377e+04   2.593577e+04
  -6.297900e+04   1.982078e+04
  -8.777199e+04  -2.396163e+04
  -3.989463e+04  -7.907946e+04
   5.903545e+04  -7.832525e+04
   1.222751e+05   3.663483e+03
   8.557947e+04   1.038273e+05
  -2.412920e+04   1.310134e+05
  -1.185301e+05   6.208465e+04
  -1.346110e+05  -4.137414e+04
  -8.026595e+04  -1.027221e+05
  -7.089416e+03  -9.651944e+04
   4.119396e+04  -5.242607e+04
   5.510760e+04  -1.691369e+04
   5.310596e+04  -1.398385e+04
   5.654929e+04  -2.706692e+04
   6.470022e+04  -1.588764e+04
   5.374240e+04   3.654951e+04
   7.386476e+03   9.336667e+04
  -5.330261e+04   9.581833e+04
  -8.192452e+04   3.057193e+04
  -5.292233e+04  -4.930634e+04
   1.054203e+04  -7.860790e+04
   5.794252e+04  -4.456084e+04
   5.641780e+04   1.046969e+04
   1.505454e+04   4.004221e+04
  -2.760681e+04   3.545219e+04
  -3.781234e+04   2.140247e+04
  -1.603548e+04   2.144156e+04
   3.461911e+03   3.035770e+04
  -1.147197e+04   1.970424e+04
  -5.142036e+04  -2.634996e+04
  -6.904475e+04  -8.210074e+04
  -2.975452e+04  -9.835405e+04
   4.530828e+04  -5.538957e+04
   9.568315e+04   1.178733e+04
   8.173789e+04   4.998751e+04
   2.322610e+04   4.141606e+04
  -2.333648e+04   1.095650e+04
  -2.205455e+04  -9.860624e+03
   9.904958e+03  -9.485425e+03
   2.641329e+04   7.257907e+03
   6.127497e+03   2.794094e+04
  -2.355753e+04   3.478386e+04
  -2.140063e+04   1.775109e+04
   1.361337e+04  -6.480059e+03
   3.659986e+04  -6.079027e+03
   1.041021e+04   2.295168e+04
  -4.672036e+04   4.106830e+04
  -7.906016e+04   1.194941e+04
  -5.377373e+04  -4.374077e+04
   7.739632e+03  -6.513356e+04
   5.516139e+04  -2.446962e+04
   5.366768e+04   3.603552e+04
   6.403860e+03   5.097316e+04
  -4.972570e+04   3.969596e+03
  -6.680026e+04  -5.783789e+04
  -2.283775e+04  -7.558116e+04
   5.043368e+04  -3.527165e+04
   8.775532e+04   2.441723e+04
   5.482361e+04   5.204797e+04
  -1.079256e+04   3.039605e+04
  -3.800052e+04  -1.038839e+04
  -2.231045e+03  -2.378565e+04
   4.639364e+04   7.323271e+03
   4.076847e+04   5.449944e+04
  -2.654575e+04   7.184435e+04
  -9.331855e+04   3.806699e+04
  -9.231131e+04  -2.686461e+04
  -2.011224e+04  -7.874680e+04
   5.987404e+04  -8.065806e+04
   8.086381e+04  -2.925631e+04
   3.621765e+04   3.825371e+04
  -2.203599e+04   6.862640e+04
  -4.360731e+04   3.960481e+04
  -2.795824e+04  -1.478380e+04
  -8.558270e+03  -3.851064e+04
  -4.293613e+03  -1.765311e+04
  -4.277405e+03   4.089606e+03
   4.613396e+03  -1.525090e+04
   1.819480e+04  -5.534041e+04
   2.882080e+04  -5.523501e+04
   3.812497e+04   5.896729e+03
   4.293167e+04   7.505027e+04
   2.632139e+04   8.574870e+04
  -1.644794e+04   3.539813e+04
  -5.448044e+04  -1.796038e+04
  -5.030219e+04  -2.880345e+04
  -1.122660e+04  -9.991498e+03
   1.517578e+04  -1.114030e+03
   4.477634e+03  -1.321800e+04
  -1.163301e+04  -2.232363e+04
   5.925227e+03  -7.871731e+03
   4.154413e+04   2.177384e+04
   4.047726e+04   4.245068e+04
  -1.672241e+04   3.802823e+04
  -8.177226e+04   7.862644e+03
  -9.040294e+04  -3.569634e+04
  -3.165939e+04  -6.891579e+04
   4.473722e+04  -6.688005e+04
   8.102701e+04  -2.663354e+04
   6.166110e+04   2.166405e+04
   1.711713e+04   3.932428e+04
  -1.119640e+04   1.913004e+04
  -8.594138e+03  -6.548771e+03
   4.966555e+03  -2.769968e+03
   1.911095e+03   2.717423e+04
  -1.984012e+04   4.428371e+04
  -3.484525e+04   1.782725e+04
  -2.117521e+04  -3.680131e+04
   1.355865e+04  -6.825143e+04
   4.072414e+04  -4.045013e+04
   3.881216e+04   2.644502e+04
   8.750510e+03   7.156494e+04
  -3.046591e+04   5.430681e+04
  -5.269423e+04  -3.924109e+03
  -3.922200e+04  -4.551936e+04
   2.273420e+03  -4.049334e+04
   3.488130e+04  -1.270747e+04
   2.568781e+04  -1.544520e+03
  -1.262454e+04  -1.362513e+04
  -2.888565e+04  -2.433539e+04
   6.325672e+03  -1.606159e+04
   5.938793e+04   3.733410e+03
   6.958751e+04   2.043788e+04
   2.168923e+04   2.923717e+04
  -3.606112e+04   2.870741e+04
  -4.940119e+04   1.431434e+04
  -1.665598e+04  -9.382947e+03
   1.942144e+04  -2.140222e+04
   2.523405e+04  -5.773950e+03
   6.160272e+03   2.316398e+04
  -1.241974e+04   3.262504e+04
  -1.683903e+04   1.079643e+04
  -1.233361e+04  -1.841770e+04
  -8.668100e+03  -2.557954e+04
  -7.789204e+03  -1.034258e+04
  -4.361238e+03   2.946198e+03
   6.164598e+03  -1.592000e+03
   2.047957e+04  -1.311883e+04
   2.760023e+04  -9.971004e+03
   1.813421e+04   1.242368e+04
  -4.856456e+03   3.339008e+04
  -2.576116e+04   2.749260e+04
  -2.901396e+04  -6.170427e+03
  -1.174821e+04  -3.731804e+04
   1.477085e+04  -3.319387e+04
   3.293932e+04   4.249817e+03
   2.902236e+04   3.703571e+04
   3.347537e+03   3.277741e+04
  -2.494370e+04   1.466856e+03
  -3.013863e+04  -1.843135e+04
  -6.746279e+03  -6.799117e+03
   1.823647e+04   1.752004e+04
   1.174536e+04   2.388252e+04
  -2.353927e+04   4.795793e+03
  -4.556640e+04  -2.230885e+04
