
 $NMID
 id='ANONYMOUS ', fmtdat='(2E16.6)'
 volume=1.0
 tramp=1.0
 $END
   5.646926e+07  -7.838288e+05
   3.450996e+07   3.476577e+07
  -7.065150e+06   3.850891e+07
  -2.769667e+07   1.491308e+07
  -1.669326e+07  -7.093127e+06
   3.314461e+06  -9.465289e+06
   9.952898e+06   1.266808e+06
   2.797794e+06   9.882649e+06
  -6.285042e+06   9.369948e+06
  -9.717039e+06   2.001996e+06
  -7.024230e+06  -6.134693e+06
  -8.674600e+05  -8.541349e+06
   3.924793e+06  -2.784052e+06
   2.592330e+06   5.348625e+06
  -3.788251e+06   6.507329e+06
  -7.917385e+06  -1.317792e+06
  -4.517180e+06  -1.019392e+07
   3.696065e+06  -1.184448e+07
   1.004080e+07  -6.029915e+06
   1.083481e+07   1.875583e+06
   6.784736e+06   7.361540e+06
   9.020200e+05   8.689876e+06
  -2.845349e+06   6.225556e+06
  -1.992775e+06   2.802287e+06
   9.352569e+05   2.078566e+06
   2.582394e+05   4.019848e+06
  -5.226980e+06   4.351028e+06
  -9.497586e+06   5.988786e+05
  -7.035652e+06  -3.989170e+06
  -3.852009e+05  -4.983913e+06
   3.551017e+06  -2.590823e+06
   2.389285e+06  -1.356489e+05
  -5.426149e+05   7.763045e+05
  -2.114981e+06   4.277090e+05
  -2.084196e+06  -1.320438e+06
  -7.366646e+05  -3.777095e+06
   1.695360e+06  -3.855213e+06
   3.230151e+06  -4.187310e+04
   1.829857e+06   3.554821e+06
  -6.776784e+05   2.015119e+06
  -3.459913e+05  -2.322932e+06
   2.434635e+06  -2.260177e+06
   2.470709e+06   3.202978e+06
  -2.417414e+06   6.219185e+06
  -7.034710e+06   1.141681e+06
  -5.260839e+06  -6.891221e+06
   1.819829e+06  -8.609752e+06
   7.407323e+06  -2.514569e+06
   6.944481e+06   4.411626e+06
   1.822964e+06   6.022460e+06
  -3.483447e+06   2.686012e+06
  -5.233961e+06  -1.561850e+06
  -2.391846e+06  -3.515616e+06
   2.439803e+06  -2.220747e+06
   4.547926e+06   9.096851e+05
   1.965582e+06   2.733222e+06
  -1.714620e+06   1.389295e+06
  -1.723620e+06  -1.037772e+06
   1.383388e+06  -9.336548e+05
   2.549803e+06   1.805002e+06
  -6.051151e+05   3.560642e+06
  -4.688598e+06   1.999622e+06
  -5.370066e+06  -1.341470e+06
  -2.360538e+06  -3.992910e+06
   1.739877e+06  -5.245363e+06
   4.900193e+06  -4.820040e+06
   6.107079e+06  -1.791736e+06
   4.582718e+06   3.059655e+06
   9.892015e+05   6.105017e+06
  -1.865287e+06   4.756048e+06
  -1.819817e+06   1.193918e+06
  -1.873702e+05  -3.382057e+05
   9.488657e+04   8.814255e+05
  -1.484699e+06   1.755631e+06
  -2.710658e+06   2.902166e+05
  -1.979907e+06  -1.835193e+06
  -4.215056e+04  -2.059986e+06
   1.487216e+06  -1.761341e+05
   1.615594e+06   2.038717e+06
   5.023805e+03   2.879034e+06
  -2.706848e+06   1.654064e+06
  -4.430603e+06  -1.122514e+06
  -3.251937e+06  -3.691863e+06
  -2.859754e+04  -4.225266e+06
   2.243802e+06  -2.763130e+06
   2.246016e+06  -1.169257e+06
   1.852874e+06  -6.758272e+05
   2.937114e+06  -4.553371e+05
   4.318589e+06   7.772011e+05
   3.446409e+06   2.759891e+06
   1.082496e+05   4.089027e+06
  -3.182235e+06   3.842339e+06
  -4.111426e+06   2.088935e+06
  -2.611931e+06  -3.955191e+05
  -2.866307e+05  -2.181005e+06
   1.064365e+06  -1.905437e+06
   5.536575e+05   2.587944e+04
  -1.071539e+06   1.291666e+06
  -1.897241e+06   3.962044e+05
  -9.267963e+05  -1.193033e+06
   5.103894e+05  -1.093760e+06
   4.080332e+05   4.072993e+05
  -1.113425e+06   6.806353e+05
  -1.888300e+06  -1.351889e+06
  -5.991286e+05  -3.550362e+06
   1.699316e+06  -3.403505e+06
   3.206552e+06  -1.029239e+06
   3.266974e+06   1.526991e+06
   2.178518e+06   2.776006e+06
   3.990641e+05   2.574730e+06
  -1.230830e+06   1.432930e+06
  -1.553230e+06   2.190397e+05
  -4.882699e+05  -4.874554e+04
   3.507534e+05   7.510071e+05
  -4.221741e+05   1.345239e+06
  -1.916303e+06   5.754369e+05
  -2.034563e+06  -9.073566e+05
  -3.723306e+05  -1.430614e+06
   1.178403e+06  -5.575619e+05
   8.680108e+05   4.709347e+05
  -8.732410e+05   4.935103e+05
  -2.161763e+06  -3.774904e+05
  -1.684326e+06  -1.384830e+06
   2.975547e+05  -1.941589e+06
   2.313805e+06  -1.602271e+06
   2.756973e+06  -2.415959e+05
   1.207674e+06   1.275170e+06
  -9.228833e+05   1.506034e+06
  -1.568337e+06   1.915694e+05
  -2.078251e+05  -1.080726e+06
   1.515887e+06  -7.281805e+05
   1.706896e+06   8.010855e+05
   3.059454e+05   1.658521e+06
  -1.119412e+06   9.528178e+05
  -1.255308e+06  -3.465388e+05
  -2.252701e+05  -7.971219e+05
   8.067932e+05  -5.153062e+04
   7.332556e+05   1.054117e+06
  -5.752599e+05   1.414987e+06
  -1.996109e+06   5.332898e+05
  -2.020668e+06  -1.053080e+06
  -3.692569e+05  -2.070607e+06
   1.452675e+06  -1.628293e+06
   1.726770e+06  -1.891620e+05
   4.866366e+05   8.777801e+05
  -6.697703e+05   7.916147e+05
  -6.199944e+05   6.628780e+04
   1.399529e+05  -3.434998e+05
   4.850252e+05  -1.756417e+05
   8.682526e+04   7.665930e+04
  -4.752202e+05  -9.940903e+04
  -5.108004e+05  -6.996845e+05
   2.292279e+05  -1.190696e+06
   1.390039e+06  -8.781529e+05
   2.069129e+06   4.306272e+05
   1.444729e+06   1.944490e+06
  -2.352786e+05   2.400596e+06
  -1.621192e+06   1.374598e+06
  -1.668264e+06  -1.585310e+05
  -8.140740e+05  -8.948019e+05
  -2.850133e+05  -6.185877e+05
  -4.798559e+05  -1.906297e+05
  -6.466993e+05  -3.130483e+05
  -9.489386e+04  -7.726710e+05
   8.868178e+05  -8.873245e+05
   1.442402e+06  -2.966599e+05
   1.017714e+06   7.294252e+05
  -2.803182e+05   1.433895e+06
  -1.723474e+06   1.036931e+06
  -2.223630e+06  -5.056099e+05
  -1.100483e+06  -2.105149e+06
   1.039207e+06  -2.353062e+06
   2.554527e+06  -9.983699e+05
   2.331055e+06   6.978962e+05
   9.123308e+05   1.351818e+06
  -2.380119e+05   9.218321e+05
  -3.843990e+05   4.748005e+05
  -5.222935e+04   7.364217e+05
  -8.885166e+04   1.309378e+06
  -6.741285e+05   1.291810e+06
  -1.295137e+06   3.165580e+05
  -1.325354e+06  -1.078484e+06
  -5.422371e+05  -1.883755e+06
   6.249029e+05  -1.422405e+06
   1.277191e+06   1.632192e+04
   7.964360e+05   1.292775e+06
  -4.125014e+05   1.392535e+06
  -1.183558e+06   3.844191e+05
  -8.152301e+05  -7.251319e+05
   1.422517e+05  -1.091605e+06
   5.643112e+05  -7.807081e+05
   1.019270e+05  -4.072838e+05
  -4.304002e+05  -3.286886e+05
  -5.912611e+04  -3.773363e+05
   1.152495e+06  -2.012706e+05
   2.061702e+06   3.438941e+05
   1.603676e+06   1.049556e+06
  -5.769830e+04   1.444057e+06
  -1.602849e+06   1.135899e+06
  -1.833431e+06   2.545421e+05
  -8.280911e+05  -5.204894e+05
   2.673638e+05  -5.770822e+05
   5.179225e+05  -2.370861e+04
   3.994587e+04   4.285951e+05
  -4.325219e+05   2.551692e+05
  -4.789899e+05  -3.407245e+05
  -2.631926e+05  -7.077605e+05
  -1.086788e+05  -4.690456e+05
  -1.394830e+05   8.047207e+04
  -2.712379e+05   2.688137e+05
  -2.695461e+05  -2.353338e+05
   1.390087e+05  -9.694147e+05
   8.982256e+05  -1.058163e+06
   1.370685e+06  -1.876049e+05
   8.636109e+05   9.038165e+05
  -4.113346e+05   1.147415e+06
  -1.257233e+06   3.524232e+05
  -7.271664e+05  -5.651648e+05
   7.075213e+05  -6.378557e+05
   1.571889e+06   1.190824e+05
   9.685421e+05   8.779100e+05
  -5.125274e+05   9.688513e+05
  -1.495340e+06   4.349337e+05
  -1.209362e+06  -2.190209e+05
  -1.174542e+05  -5.099485e+05
   6.527268e+05  -2.539283e+05
   3.895913e+05   2.990158e+05
  -5.694310e+05   5.248810e+05
  -1.172847e+06  -6.589784e+04
  -6.831528e+05  -1.160300e+06
   5.612116e+05  -1.693139e+06
   1.458991e+06  -8.906906e+05
   1.244959e+06   7.450821e+05
   1.989260e+05   1.772962e+06
  -7.421164e+05   1.269062e+06
  -9.172080e+05  -1.961555e+05
  -4.067604e+05  -1.191467e+06
   2.475111e+05  -9.536333e+05
   5.675409e+05  -7.317897e+04
   4.433669e+05   3.763471e+05
   1.413658e+05   1.352026e+05
   5.742021e+04  -9.010722e+04
   3.077395e+05   3.012305e+05
   5.149038e+05   9.643421e+05
   1.611231e+05   1.071984e+06
  -7.391587e+05   3.912978e+05
  -1.458515e+06  -4.657738e+05
  -1.245029e+06  -8.390642e+05
  -1.799601e+05  -6.995100e+05
   8.263157e+05  -4.129130e+05
   9.710279e+05  -1.691873e+05
   3.787357e+05   6.268635e+04
  -1.358289e+05   2.245941e+05
  -6.420077e+04   1.954725e+05
   2.321519e+05   8.371775e+04
   6.133572e+04   1.284034e+05
  -6.240940e+05   2.410467e+05
  -1.042234e+06   7.012468e+02
  -4.758768e+05  -6.840413e+05
   8.015121e+05  -1.186049e+06
   1.703081e+06  -7.830025e+05
   1.438514e+06   3.998447e+05
   2.901711e+05   1.389111e+06
  -7.633159e+05   1.381933e+06
  -1.038082e+06   5.607117e+05
  -6.452895e+05  -2.112738e+05
  -1.482850e+05  -3.539838e+05
   3.968591e+04  -8.046451e+04
  -9.414168e+04  -2.531004e+03
  -2.871956e+05  -3.761756e+05
  -2.367245e+05  -8.047087e+05
   1.669778e+05  -6.821654e+05
   6.683367e+05   9.515342e+04
   7.570460e+05   9.164217e+05
   1.588451e+05   1.022737e+06
  -7.223043e+05   2.805094e+05
  -1.040602e+06  -6.771660e+05
  -3.767034e+05  -1.078930e+06
   6.945641e+05  -7.026865e+05
   1.127365e+06   5.335046e+04
   5.552842e+05   6.241122e+05
  -2.777233e+05   7.065815e+05
  -4.000537e+05   3.798470e+05
   2.145918e+05  -4.690624e+01
   6.368054e+05  -4.806326e+04
   1.594903e+05   3.093226e+05
  -8.161316e+05   6.770719e+05
  -1.277013e+06   5.276992e+05
  -7.928507e+05  -1.898316e+05
   8.423435e+04  -8.767985e+05
   5.667854e+05  -8.720536e+05
   4.490609e+05  -1.911382e+05
   7.219832e+04   4.608444e+05
  -2.255383e+05   4.509975e+05
  -3.457238e+05  -1.155605e+05
  -2.624460e+05  -5.698489e+05
   3.703269e+04  -4.498113e+05
   3.886675e+05   2.796912e+04
   4.882667e+05   2.926286e+05
   2.448165e+05   1.111094e+05
  -5.304252e+04  -1.690211e+05
  -8.968133e+04  -8.805986e+04
   5.236637e+04   3.274544e+05
   1.676089e+04   5.708569e+05
  -2.893327e+05   2.703706e+05
  -4.931075e+05  -3.324327e+05
  -2.136532e+05  -6.304896e+05
   3.855291e+05  -3.297605e+05
   6.806407e+05   2.479800e+05
   2.725457e+05   5.533379e+05
  -5.085611e+05   3.749518e+05
  -8.942026e+05  -4.892621e+04
  -4.895828e+05  -3.678869e+05
   2.842500e+05  -4.237878e+05
   6.369976e+05  -2.629611e+05
   2.715480e+05  -2.925505e+04
  -3.072891e+05   9.190460e+04
  -3.885953e+05  -2.648587e+04
   1.392441e+05  -2.679385e+05
   6.910646e+05  -2.745329e+05
