
 $NMID
 id='ANONYMOUS ', fmtdat='(2E16.6)'
 volume=1.0
 tramp=1.0
 $END
  -4.278005e+07  -6.127753e+04
  -2.649469e+07  -2.463365e+07
   4.052960e+06  -2.836671e+07
   2.019746e+07  -1.311495e+07
   1.336278e+07   3.210663e+06
  -1.480108e+06   7.248202e+06
  -7.796468e+06   5.057465e+05
  -3.429950e+06  -7.227562e+06
   3.874743e+06  -8.483765e+06
   7.517932e+06  -2.645338e+06
   5.816765e+06   4.958123e+06
   7.175973e+05   7.281118e+06
  -3.377621e+06   2.034325e+06
  -2.428671e+06  -5.125640e+06
   2.727927e+06  -6.120019e+06
   6.337728e+06   4.574939e+05
   3.974633e+06   7.952234e+06
  -2.586157e+06   9.484417e+06
  -7.841673e+06   4.673777e+06
  -8.269580e+06  -1.843945e+06
  -4.588703e+06  -5.812743e+06
  -1.590799e+05  -6.036990e+06
   1.635114e+06  -3.970839e+06
   4.108587e+04  -2.358885e+06
  -1.799071e+06  -2.963809e+06
   1.677178e+05  -4.435597e+06
   5.486978e+06  -3.619658e+06
   8.656514e+06   1.929610e+05
   5.685592e+06   3.842107e+06
  -5.823432e+05   4.139556e+06
  -3.906785e+06   1.582459e+06
  -2.074304e+06  -9.406845e+05
   1.586409e+06  -1.566532e+06
   3.209031e+06  -2.324485e+05
   2.147006e+06   2.236826e+06
  -7.570603e+04   4.017206e+06
  -1.862665e+06   2.892916e+06
  -2.069408e+06  -7.437856e+05
  -6.191931e+05  -2.885805e+06
   6.884196e+05  -6.702851e+05
  -1.657376e+05   2.882133e+06
  -2.268101e+06   2.301306e+06
  -2.210606e+06  -2.352272e+06
   1.235735e+06  -4.800380e+06
   4.656683e+06  -1.027093e+06
   3.815990e+06   4.996839e+06
  -1.127976e+06   6.410706e+06
  -5.747363e+06   1.925615e+06
  -6.079785e+06  -3.519071e+06
  -2.099823e+06  -5.156123e+06
   2.849769e+06  -2.741793e+06
   4.911949e+06   8.463695e+05
   2.633945e+06   2.793820e+06
  -1.652802e+06   2.000961e+06
  -3.716881e+06  -4.533163e+05
  -1.803719e+06  -2.021798e+06
   1.296435e+06  -1.150867e+06
   1.703839e+06   7.801700e+05
  -6.243423e+05   1.106718e+06
  -2.072374e+06  -6.295278e+05
  -2.918940e+05  -2.201793e+06
   2.916978e+06  -1.705044e+06
   4.122845e+06   4.791502e+05
   2.096291e+06   2.883532e+06
  -1.626686e+06   4.410367e+06
  -4.691950e+06   4.086027e+06
  -5.458167e+06   1.226946e+06
  -3.637429e+06  -2.957860e+06
  -6.279026e+05  -5.390020e+06
   1.313620e+06  -4.319254e+06
   1.227654e+06  -1.627122e+06
   4.649499e+05  -4.393149e+05
   8.300366e+05  -1.108974e+06
   2.195740e+06  -1.256462e+06
   2.825832e+06   4.611389e+05
   1.697375e+06   2.427393e+06
  -4.138664e+05   2.342907e+06
  -1.942119e+06   9.641269e+04
  -1.790784e+06  -2.318304e+06
   1.431693e+05  -2.932028e+06
   2.708771e+06  -1.308272e+06
   3.883577e+06   1.397027e+06
   2.513396e+06   3.331391e+06
  -1.745396e+05   3.365087e+06
  -1.776934e+06   2.072240e+06
  -1.639270e+06   1.009637e+06
  -1.498724e+06   8.441833e+05
  -2.744350e+06   6.773616e+05
  -4.160832e+06  -5.528228e+05
  -3.413671e+06  -2.570456e+06
  -1.930461e+05  -4.028309e+06
   3.183809e+06  -3.831434e+06
   4.214886e+06  -1.926901e+06
   2.554327e+06   6.667903e+05
  -6.582919e+03   2.285681e+06
  -1.294997e+06   1.780490e+06
  -5.264998e+05  -1.302563e+05
   1.147533e+06  -1.245866e+06
   1.804170e+06  -3.639364e+05
   7.773509e+05   1.135800e+06
  -5.945130e+05   1.109967e+06
  -5.911751e+05  -3.464640e+05
   7.744873e+05  -9.509494e+05
   1.813653e+06   6.456792e+05
   1.176552e+06   2.991951e+06
  -8.197842e+05   3.610101e+06
  -2.805736e+06   1.793547e+06
  -3.582970e+06  -9.761646e+05
  -2.690321e+06  -2.780326e+06
  -5.978676e+05  -2.784458e+06
   1.300596e+06  -1.485941e+06
   1.619967e+06  -1.743820e+05
   4.900918e+05   4.384683e+04
  -3.663901e+05  -7.364347e+05
   3.376644e+05  -1.260196e+06
   1.755618e+06  -5.740515e+05
   1.955929e+06   7.482352e+05
   4.515308e+05   1.306440e+06
  -1.122944e+06   6.117844e+05
  -9.828359e+05  -4.286131e+05
   7.626839e+05  -6.839201e+05
   2.300186e+06   9.617573e+04
   1.993491e+06   1.323477e+06
  -1.001993e+05   2.125694e+06
  -2.304533e+06   1.795038e+06
  -2.781265e+06   3.334363e+05
  -1.203278e+06  -1.189000e+06
   8.593387e+05  -1.399787e+06
   1.434167e+06  -1.724346e+05
   1.447790e+05   1.010682e+06
  -1.476918e+06   7.185421e+05
  -1.720551e+06  -7.089290e+05
  -4.490702e+05  -1.623840e+06
   9.896384e+05  -1.080531e+06
   1.279715e+06   1.730373e+05
   3.431540e+05   7.302613e+05
  -7.284626e+05   7.889382e+04
  -7.109545e+05  -1.023919e+06
   5.906727e+05  -1.399115e+06
   2.001483e+06  -5.137720e+05
   2.008967e+06   1.050221e+06
   3.927097e+05   2.041493e+06
  -1.380545e+06   1.639454e+06
  -1.696796e+06   2.612208e+05
  -5.477050e+05  -8.364521e+05
   6.248958e+05  -8.307954e+05
   6.885099e+05  -7.663712e+04
  -6.286148e+04   4.634571e+05
  -5.694891e+05   3.223304e+05
  -2.946098e+05  -8.910185e+04
   3.547878e+05  -7.322987e+04
   5.691231e+05   5.431150e+05
  -1.110323e+05   1.159628e+06
  -1.336122e+06   9.243834e+05
  -2.073291e+06  -3.803505e+05
  -1.465574e+06  -1.917698e+06
   2.010150e+05  -2.437752e+06
   1.613224e+06  -1.499243e+06
   1.765103e+06   5.066944e+04
   9.843050e+05   9.594860e+05
   3.635630e+05   8.290511e+05
   3.853825e+05   3.302655e+05
   5.124729e+05   2.686309e+05
   7.784595e+04   6.870767e+05
  -8.299377e+05   9.250440e+05
  -1.463717e+06   3.970731e+05
  -1.138045e+06  -7.320705e+05
   1.812209e+05  -1.553380e+06
   1.720094e+06  -1.152991e+06
   2.286811e+06   4.457576e+05
   1.203175e+06   2.068024e+06
  -9.032718e+05   2.360034e+06
  -2.462716e+06   1.109670e+06
  -2.394060e+06  -5.446729e+05
  -1.097137e+06  -1.322154e+06
   1.241154e+05  -1.057543e+06
   4.627692e+05  -6.189692e+05
   2.198013e+05  -7.430885e+05
   1.689666e+05  -1.216889e+06
   6.375712e+05  -1.222071e+06
   1.243771e+06  -3.029326e+05
   1.320961e+06   1.080696e+06
   5.557760e+05   1.895421e+06
  -6.259577e+05   1.440128e+06
  -1.293563e+06   2.482624e+04
  -8.443821e+05  -1.233055e+06
   3.110169e+05  -1.388081e+06
   1.075198e+06  -4.941339e+05
   8.015950e+05   5.631152e+05
  -2.903620e+04   1.001077e+06
  -4.183320e+05   7.974457e+05
  -3.561930e+04   4.604530e+05
   4.146305e+05   3.580826e+05
   4.871951e+04   3.932214e+05
  -1.106763e+06   2.307841e+05
  -2.007731e+06  -2.970019e+05
  -1.620156e+06  -9.868452e+05
  -3.848110e+04  -1.379705e+06
   1.499979e+06  -1.124167e+06
   1.797561e+06  -3.385210e+05
   8.593305e+05   3.961457e+05
  -2.217580e+05   5.263812e+05
  -4.855270e+05   7.377944e+04
  -3.938087e+03  -3.665859e+05
   4.709898e+05  -2.451747e+05
   4.724557e+05   3.413088e+05
   1.908773e+05   7.421159e+05
   3.607313e+04   4.845011e+05
   1.434012e+05  -1.417136e+05
   3.276956e+05  -3.521265e+05
   2.893299e+05   2.230204e+05
  -1.681050e+05   1.010748e+06
  -8.901961e+05   1.058521e+06
  -1.284491e+06   1.373210e+05
  -7.800911e+05  -9.141180e+05
   4.103822e+05  -1.080357e+06
   1.213349e+06  -2.802432e+05
   7.275616e+05   5.907317e+05
  -6.819721e+05   6.658753e+05
  -1.619205e+06  -4.981800e+04
  -1.098671e+06  -8.398831e+05
   4.145676e+05  -1.046383e+06
   1.514943e+06  -5.800702e+05
   1.294818e+06   1.353322e+05
   1.712225e+05   5.294682e+05
  -6.415793e+05   3.043203e+05
  -3.661523e+05  -2.731663e+05
   6.140189e+05  -4.972990e+05
   1.182464e+06   1.213556e+05
   6.243318e+05   1.206981e+06
  -6.497421e+05   1.690686e+06
  -1.518895e+06   8.563405e+05
  -1.264177e+06  -7.793261e+05
  -2.039161e+05  -1.817346e+06
   7.406495e+05  -1.339628e+06
   9.439990e+05   1.359411e+05
   4.795379e+05   1.193739e+06
  -1.669650e+05   1.005491e+06
  -5.512697e+05   1.082613e+05
  -5.078361e+05  -3.862671e+05
  -2.052556e+05  -1.498754e+05
  -3.324248e+04   1.084146e+05
  -2.267998e+05  -2.703943e+05
  -4.974442e+05  -9.608736e+05
  -2.451947e+05  -1.095038e+06
   6.648565e+05  -4.096371e+05
   1.498320e+06   4.632566e+05
   1.339786e+06   8.371945e+05
   1.952809e+05   6.944747e+05
  -8.967291e+05   4.235389e+05
  -1.006018e+06   2.033092e+05
  -3.322396e+05  -3.002773e+04
   1.604056e+05  -2.246501e+05
  -8.894436e+03  -2.280424e+05
  -3.141018e+05  -1.181252e+05
  -3.375223e+04  -1.372973e+05
   7.155171e+05  -2.239701e+05
   1.049785e+06   2.214612e+04
   3.722134e+05   6.904759e+05
  -8.879551e+05   1.163623e+06
  -1.681760e+06   7.337207e+05
  -1.369563e+06  -4.571565e+05
  -2.639561e+05  -1.424533e+06
   7.581920e+05  -1.373641e+06
   1.056189e+06  -5.158767e+05
   6.679957e+05   2.561317e+05
   1.173710e+05   3.605835e+05
  -1.080926e+05   4.305178e+04
   6.738197e+04  -4.538882e+04
   3.230766e+05   3.566246e+05
   2.680560e+05   8.132717e+05
  -1.874363e+05   6.763652e+05
  -6.955932e+05  -1.470888e+05
  -7.243612e+05  -9.839072e+05
  -7.603474e+04  -1.035948e+06
   7.825155e+05  -2.154867e+05
   1.033565e+06   7.577787e+05
   3.293919e+05   1.095471e+06
  -7.234707e+05   6.570792e+05
  -1.108961e+06  -8.334394e+04
  -5.151645e+05  -5.904946e+05
   2.856098e+05  -6.499641e+05
   3.507177e+05  -3.628099e+05
  -2.831885e+05  -2.043963e+04
  -6.633789e+05   3.634375e+04
  -1.368648e+05  -3.037995e+05
   8.297101e+05  -6.910494e+05
   1.238082e+06  -5.721575e+05
   7.346184e+05   1.513803e+05
  -9.788748e+04   8.630710e+05
  -5.253287e+05   8.498186e+05
  -3.962765e+05   1.395571e+05
  -3.865363e+04  -4.966973e+05
   2.464182e+05  -4.219092e+05
   3.579979e+05   1.760621e+05
   2.532608e+05   5.822114e+05
  -6.044560e+04   4.044184e+05
  -3.932452e+05  -5.649781e+04
  -4.692975e+05  -2.614114e+05
  -2.437515e+05  -7.833671e+04
   1.974584e+04   1.289387e+05
   8.154565e+04  -3.485940e+03
   2.627337e+04  -3.759463e+05
   1.062050e+05  -5.246720e+05
   3.404718e+05  -1.694258e+05
   4.259937e+05   4.159613e+05
   1.095105e+05   6.583077e+05
  -4.253018e+05   3.046481e+05
  -6.520237e+05  -2.989485e+05
  -2.434811e+05  -5.889829e+05
   5.018468e+05  -3.654849e+05
   8.732856e+05   8.650103e+04
   4.755845e+05   3.799968e+05
  -2.954313e+05   3.831855e+05
  -6.365186e+05   2.058112e+05
  -2.305248e+05   1.408738e+04
   3.800264e+05  -4.856998e+04
   4.240220e+05   9.357042e+04
  -1.927805e+05   3.134536e+05
  -7.891147e+05   2.763437e+05
