
 $NMID
 id='ANONYMOUS ', fmtdat='(2E16.6)'
 volume=1.0
 tramp=1.0
 $END
   4.854054e+07  -3.572822e+05
   2.938372e+07   2.913149e+07
  -5.745260e+06   3.246656e+07
  -2.313663e+07   1.331031e+07
  -1.418818e+07  -5.140167e+06
   2.449946e+06  -7.948927e+06
   8.370548e+06   4.989051e+05
   2.837825e+06   8.146857e+06
  -4.819632e+06   8.396534e+06
  -8.192468e+06   2.161614e+06
  -6.253948e+06  -5.298203e+06
  -8.965706e+05  -7.617661e+06
   3.533641e+06  -2.417882e+06
   2.578797e+06   4.922152e+06
  -2.993291e+06   6.006929e+06
  -6.821531e+06  -8.703854e+05
  -4.116850e+06  -8.733387e+06
   3.002414e+06  -1.030939e+07
   8.679969e+06  -5.245167e+06
   9.383527e+06   1.765490e+06
   5.640140e+06   6.503015e+06
   4.672432e+05   7.332167e+06
  -2.376144e+06   4.953178e+06
  -1.100737e+06   2.228288e+06
   1.469802e+06   2.124158e+06
   3.243946e+05   4.048501e+06
  -5.019188e+06   4.120564e+06
  -8.821167e+06   5.102042e+05
  -6.305041e+06  -3.682943e+06
  -4.607824e+04  -4.565515e+06
   3.585962e+06  -2.280268e+06
   2.334016e+06   2.448788e+05
  -7.463554e+05   1.249798e+06
  -2.447782e+06   6.148986e+05
  -2.222999e+06  -1.504462e+06
  -5.910222e+05  -3.790447e+06
   1.680531e+06  -3.393361e+06
   2.757460e+06   3.315365e+05
   1.301795e+06   3.258659e+06
  -8.030438e+05   1.428502e+06
  -3.288206e+05  -2.500119e+06
   2.147283e+06  -2.238224e+06
   2.229715e+06   2.659714e+06
  -1.837346e+06   5.258685e+06
  -5.747246e+06   9.134370e+05
  -4.398597e+06  -5.861843e+06
   1.494526e+06  -7.296551e+06
   6.404979e+06  -2.181022e+06
   6.298098e+06   3.714471e+06
   1.938803e+06   5.267146e+06
  -2.945920e+06   2.606636e+06
  -4.789412e+06  -1.048730e+06
  -2.382799e+06  -2.918620e+06
   1.965243e+06  -1.983543e+06
   3.959052e+06   6.498411e+05
   1.789633e+06   2.269962e+06
  -1.455666e+06   1.223448e+06
  -1.626347e+06  -8.195686e+05
   9.562020e+05  -8.749347e+05
   2.106082e+06   1.244461e+06
  -3.262300e+05   2.729266e+06
  -3.746430e+06   1.669597e+06
  -4.528032e+06  -9.392346e+05
  -2.113448e+06  -3.316367e+06
   1.535315e+06  -4.719256e+06
   4.502828e+06  -4.471258e+06
   5.580267e+06  -1.629848e+06
   4.104116e+06   2.843252e+06
   9.314467e+05   5.549468e+06
  -1.437481e+06   4.331159e+06
  -1.371560e+06   1.271509e+06
  -1.570281e+05   3.632880e+04
  -1.873021e+05   1.089141e+06
  -1.702368e+06   1.667579e+06
  -2.744606e+06   1.203808e+05
  -1.954949e+06  -1.940825e+06
   7.545256e+02  -2.145699e+06
   1.596022e+06  -2.776367e+05
   1.736897e+06   1.948205e+06
   7.650892e+04   2.782831e+06
  -2.566111e+06   1.552265e+06
  -4.096938e+06  -1.083492e+06
  -2.898654e+06  -3.364031e+06
   2.486810e+04  -3.719840e+06
   1.958229e+06  -2.373096e+06
   1.879537e+06  -1.038300e+06
   1.566602e+06  -7.235079e+05
   2.660472e+06  -6.086666e+05
   4.039273e+06   4.976995e+05
   3.347371e+06   2.411123e+06
   2.969629e+05   3.845229e+06
  -2.866454e+06   3.784259e+06
  -3.889304e+06   2.115167e+06
  -2.525004e+06  -3.817595e+05
  -2.690079e+05  -2.153909e+06
   1.042829e+06  -1.847273e+06
   5.342967e+05   4.819299e+04
  -1.003418e+06   1.268282e+06
  -1.757187e+06   4.251387e+05
  -8.618743e+05  -1.100480e+06
   4.705701e+05  -1.080202e+06
   4.643744e+05   3.168718e+05
  -8.539906e+05   7.380905e+05
  -1.700280e+06  -9.489384e+05
  -8.423526e+05  -3.033886e+06
   1.098176e+06  -3.230457e+06
   2.715763e+06  -1.336343e+06
   3.193539e+06   1.045336e+06
   2.385097e+06   2.457428e+06
   6.015891e+05   2.476320e+06
  -1.126536e+06   1.447018e+06
  -1.500111e+06   2.681449e+05
  -4.655001e+05  -2.342481e+04
   3.681378e+05   6.917183e+05
  -3.286777e+05   1.249535e+06
  -1.737254e+06   5.976039e+05
  -1.913468e+06  -7.319052e+05
  -4.202140e+05  -1.283724e+06
   1.068454e+06  -5.894683e+05
   8.823650e+05   3.771701e+05
  -7.346618e+05   5.615998e+05
  -2.076595e+06  -1.348063e+05
  -1.768668e+06  -1.168159e+06
   9.296794e+04  -1.895154e+06
   2.095224e+06  -1.693284e+06
   2.603756e+06  -3.848293e+05
   1.183740e+06   1.129324e+06
  -8.093270e+05   1.417735e+06
  -1.434491e+06   2.157316e+05
  -2.051102e+05  -1.003492e+06
   1.398335e+06  -7.447711e+05
   1.645204e+06   6.530702e+05
   4.081931e+05   1.525515e+06
  -9.529247e+05   9.779612e+05
  -1.186626e+06  -2.075179e+05
  -2.794608e+05  -7.031566e+05
   7.323414e+05  -7.937880e+04
   7.291025e+05   9.654109e+05
  -4.963150e+05   1.368174e+06
  -1.882115e+06   5.855126e+05
  -1.961304e+06  -9.172878e+05
  -4.419419e+05  -1.938042e+06
   1.283148e+06  -1.600310e+06
   1.608727e+06  -2.739697e+05
   5.140417e+05   7.877837e+05
  -5.807889e+05   7.871423e+05
  -6.113526e+05   1.035123e+05
   6.893848e+04  -3.665601e+05
   4.619179e+05  -2.592138e+05
   1.688349e+05   3.822625e+04
  -3.794908e+05  -2.788412e+04
  -5.111485e+05  -5.724763e+05
   1.266335e+05  -1.109524e+06
   1.255515e+06  -9.029216e+05
   1.978852e+06   3.015135e+05
   1.459587e+06   1.773798e+06
  -1.025384e+05   2.300286e+06
  -1.458237e+06   1.421167e+06
  -1.610359e+06  -2.200849e+04
  -8.875089e+05  -8.104461e+05
  -3.636575e+05  -6.417961e+05
  -4.527889e+05  -2.301252e+05
  -5.697670e+05  -2.761633e+05
  -1.027221e+05  -7.005695e+05
   7.760060e+05  -8.863816e+05
   1.349201e+06  -3.869632e+05
   1.046006e+06   6.290865e+05
  -1.457832e+05   1.403826e+06
  -1.572857e+06   1.103890e+06
  -2.149798e+06  -3.520566e+05
  -1.168490e+06  -1.923314e+06
   8.356665e+05  -2.260769e+06
   2.332454e+06  -1.083764e+06
   2.243042e+06   4.958359e+05
   9.895346e+05   1.203347e+06
  -1.204343e+05   9.184467e+05
  -3.501230e+05   5.362790e+05
  -8.112839e+04   7.339408e+05
  -7.565063e+04   1.227070e+06
  -5.844338e+05   1.223580e+06
  -1.200750e+06   3.416047e+05
  -1.304422e+06  -9.709593e+05
  -6.023089e+05  -1.770260e+06
   5.315260e+05  -1.385686e+06
   1.214349e+06  -5.672941e+04
   8.199383e+05   1.164670e+06
  -2.954892e+05   1.322265e+06
  -1.049044e+06   4.386139e+05
  -7.728899e+05  -5.956478e+05
   6.149027e+04  -9.900895e+05
   4.452682e+05  -7.475974e+05
   4.553041e+04  -4.001886e+05
  -4.223359e+05  -3.075951e+05
  -7.145136e+04  -3.638125e+05
   1.064510e+06  -2.440736e+05
   1.946414e+06   2.303055e+05
   1.564960e+06   9.031795e+05
   3.175961e+04   1.334941e+06
  -1.438930e+06   1.126039e+06
  -1.704327e+06   3.451676e+05
  -7.998535e+05  -4.075035e+05
   2.209603e+05  -5.329996e+05
   4.704729e+05  -5.812525e+04
   3.234223e+04   3.880148e+05
  -4.159705e+05   2.635878e+05
  -4.671911e+05  -3.045292e+05
  -2.589155e+05  -6.865506e+05
  -9.838689e+04  -4.593498e+05
  -1.199346e+05   1.064787e+05
  -2.537079e+05   3.087648e+05
  -2.724781e+05  -2.038225e+05
   9.404936e+04  -9.484099e+05
   8.057425e+05  -1.043758e+06
   1.271557e+06  -2.035354e+05
   8.300195e+05   8.405826e+05
  -3.531605e+05   1.083013e+06
  -1.175790e+06   3.539781e+05
  -7.197651e+05  -5.157273e+05
   6.308247e+05  -6.426039e+05
   1.505159e+06   1.194225e+04
   1.000820e+06   7.565470e+05
  -3.954696e+05   9.553515e+05
  -1.385557e+06   5.353968e+05
  -1.177117e+06  -1.105003e+05
  -1.569826e+05  -4.780332e+05
   5.971353e+05  -2.862053e+05
   3.699215e+05   2.621987e+05
  -5.407385e+05   5.205492e+05
  -1.131043e+06  -3.214784e+04
  -6.845198e+05  -1.101686e+06
   4.953254e+05  -1.647428e+06
   1.377317e+06  -9.058660e+05
   1.228043e+06   6.648591e+05
   2.739718e+05   1.692618e+06
  -6.388346e+05   1.264309e+06
  -8.802131e+05  -1.200962e+05
  -4.653492e+05  -1.103946e+06
   1.556024e+05  -9.232784e+05
   5.245733e+05  -1.043488e+05
   4.636651e+05   3.318399e+05
   1.667610e+05   1.174272e+05
   3.858389e+04  -9.080142e+04
   2.696790e+05   2.754099e+05
   5.232529e+05   8.965594e+05
   2.341824e+05   1.006698e+06
  -6.549633e+05   3.977146e+05
  -1.420795e+06  -3.730635e+05
  -1.254624e+06  -7.278630e+05
  -2.059041e+05  -6.527608e+05
   7.925418e+05  -4.436145e+05
   9.232789e+05  -2.209920e+05
   3.396590e+05   3.893820e+04
  -1.288548e+05   2.233061e+05
  -1.959769e+04   1.883157e+05
   2.611712e+05   6.882942e+04
   5.504941e+04   1.276518e+05
  -6.204152e+05   2.648703e+05
  -9.975957e+05   3.767992e+04
  -4.435434e+05  -6.499923e+05
   7.478647e+05  -1.167704e+06
   1.585923e+06  -7.946284e+05
   1.368158e+06   3.520209e+05
   3.311568e+05   1.325884e+06
  -6.661630e+05   1.342347e+06
  -9.774303e+05   5.635901e+05
  -6.387734e+05  -1.864370e+05
  -1.456076e+05  -3.380734e+05
   6.644469e+04  -7.572133e+04
  -7.141991e+04   1.518335e+04
  -2.993439e+05  -3.319997e+05
  -2.725381e+05  -7.530355e+05
   1.385789e+05  -6.569646e+05
   6.585911e+05   7.710984e+04
   7.576992e+05   8.700699e+05
   1.654328e+05   9.844288e+05
  -7.083577e+05   2.829700e+05
  -1.028917e+06  -6.309956e+05
  -3.890086e+05  -1.023777e+06
   6.488794e+05  -6.852843e+05
   1.072154e+06   1.705113e+04
   5.337924e+05   5.638141e+05
  -2.464383e+05   6.636968e+05
  -3.485847e+05   3.634882e+05
   2.331335e+05  -1.309310e+04
   6.152900e+05  -7.297770e+04
   1.553775e+05   2.889405e+05
  -7.497625e+05   6.859108e+05
  -1.169334e+06   5.661517e+05
  -7.333194e+05  -1.420390e+05
   5.024274e+04  -8.341667e+05
   4.897767e+05  -8.377345e+05
   4.075239e+05  -1.725458e+05
   8.169158e+04   4.541181e+05
  -2.079013e+05   4.309145e+05
  -3.483686e+05  -1.157965e+05
  -2.723926e+05  -5.367175e+05
   3.250416e+04  -4.160212e+05
   3.771851e+05   2.004156e+04
   4.641773e+05   2.488537e+05
   2.315014e+05   8.301322e+04
  -3.832790e+04  -1.489711e+05
  -7.050771e+04  -4.679505e+04
   4.225859e+04   3.405677e+05
  -1.386309e+04   5.452467e+05
  -2.997670e+05   2.399072e+05
  -4.716724e+05  -3.377665e+05
  -1.954296e+05  -6.182475e+05
   3.716265e+05  -3.271565e+05
   6.554192e+05   2.307194e+05
   2.777650e+05   5.327302e+05
  -4.665323e+05   3.734401e+05
  -8.506069e+05  -2.609501e+04
  -4.778340e+05  -3.358092e+05
   2.632560e+05  -4.015269e+05
   6.037744e+05  -2.554206e+05
   2.439106e+05  -2.673642e+04
  -3.229489e+05   9.629666e+04
  -3.951303e+05  -2.800888e+04
   1.335273e+05  -2.867776e+05
   6.818808e+05  -3.075367e+05
