
 $NMID
 id='ANONYMOUS ', fmtdat='(2E16.6)'
 volume=1.0
 tramp=1.0
 $END
   3.082026e+03   1.956496e+02
   1.794587e+03   1.532498e+03
  -1.692295e+02   1.620818e+03
  -1.340573e+03   8.222945e+02
  -7.604556e+02  -1.453353e+02
   1.783737e+02  -3.597420e+02
   5.960528e+02   2.188447e+02
   9.905509e+00   6.348888e+02
  -4.541357e+02   5.652889e+02
  -6.505694e+02   6.094993e+01
  -4.562311e+02  -5.792261e+02
   1.603034e+02  -6.610283e+02
   4.129217e+02  -1.804652e+02
   3.014608e+02   4.214035e+02
  -1.142244e+02   5.488360e+02
  -4.220208e+02   4.774998e+01
  -2.601062e+02  -4.475922e+02
   2.054414e+02  -5.363685e+02
   3.836236e+02  -7.094456e+01
   3.680862e+02   2.673491e+02
   6.144210e+01   3.671923e+02
  -1.449601e+02   2.334348e+02
  -1.359684e+02   7.282401e+01
   1.108639e+02   2.026834e+01
   2.816158e+02   1.185215e+02
   9.528325e+01   3.328131e+02
  -3.390299e+02   2.867259e+02
  -6.037854e+02  -1.486531e+02
  -3.206969e+02  -3.414262e+02
   2.548250e+02  -2.602774e+02
   4.821455e+02   4.642713e+01
   1.920882e+02   3.187934e+02
  -1.474652e+02   3.155081e+02
  -4.085015e+02   1.186380e+02
  -2.938653e+02  -1.349421e+02
  -6.566932e+01  -3.566339e+02
   1.229301e+02  -2.435910e+02
   4.706924e+01   1.044850e+02
  -1.817565e+02   2.510477e+02
  -3.154772e+02  -7.878224e+01
  -1.238248e+02  -4.723244e+02
   2.579914e+02  -4.474015e+02
   4.240716e+02  -5.211763e+01
   1.764433e+02   3.366555e+02
  -1.387624e+02   2.243031e+02
  -2.098568e+02  -2.304334e+02
   7.020494e+01  -3.568549e+02
   3.483147e+02  -1.015017e+02
   4.274200e+02   2.559053e+02
   1.416677e+02   3.942781e+02
  -2.485692e+02   2.374888e+02
  -3.950043e+02  -9.330915e-03
  -2.690576e+02  -2.792536e+02
   7.642160e+01  -2.829878e+02
   2.781588e+02  -6.496090e+01
   2.060044e+02   9.808518e+01
  -3.787893e+01   7.993914e+01
  -5.332155e+01  -6.194861e+01
   1.043501e+02  -7.725573e+01
   2.123862e+02   1.294637e+01
   1.143007e+02   1.610231e+02
  -1.195454e+02   1.775440e+02
  -2.958273e+02   1.107646e+02
  -2.098787e+02  -5.309235e+01
   5.359656e+00  -2.007295e+02
   1.770411e+02  -2.533475e+02
   2.948273e+02  -1.303247e+02
   2.349670e+02   8.946789e+01
   4.422560e+01   3.192385e+02
  -4.104746e+01   2.738693e+02
  -7.125148e+01   1.248297e+02
  -4.241249e+01   4.887739e+01
  -9.373392e+01   3.756557e+01
  -1.329178e+02   5.877496e+01
  -1.912340e+02  -2.145066e+01
  -9.079736e+01  -1.718622e+02
   4.165365e+01  -1.717565e+02
   1.358083e+02   1.105876e+01
   9.743270e+01   1.484350e+02
  -6.877824e+00   1.878925e+02
  -1.617690e+02   8.437770e+01
  -2.097131e+02  -1.637939e+02
  -1.444048e+02  -2.862510e+02
   5.705514e+01  -1.957863e+02
   1.814893e+02  -9.946013e+01
   1.236976e+02  -4.267815e+01
   1.169854e+02  -2.686724e+01
   1.726115e+02   2.459128e+01
   2.719480e+02   1.044525e+02
   2.080680e+02   2.107831e+02
  -2.611261e+01   3.027215e+02
  -2.657353e+02   2.719056e+02
  -3.526540e+02   1.320058e+02
  -2.426124e+02  -4.383124e+01
  -1.348422e+01  -1.769268e+02
   6.950265e+01  -2.024243e+02
   6.924342e+01  -4.402292e+01
  -8.937128e+01   6.006019e+01
  -8.509761e+01  -1.301448e+01
  -3.837946e+01  -1.396723e+02
   1.117502e+02  -1.297239e+02
   1.058950e+02   2.875949e+01
  -3.805727e+01   1.096968e+02
  -1.090791e+02   1.987031e+01
  -1.046861e+02  -1.547313e+02
   9.079984e+00  -2.699984e+02
   2.111517e+02  -1.707353e+02
   2.877558e+02   6.687867e+01
   2.252339e+02   2.091256e+02
   2.470072e+01   1.814188e+02
  -9.261279e+01   1.231256e+02
  -1.365118e+02   1.164977e+00
  -4.793203e+01  -2.357279e+01
   3.730816e+01   3.028604e+01
   9.521042e+00   8.089261e+01
  -9.301956e+01   4.597580e+01
  -1.405671e+02  -6.862008e+01
  -4.619312e+01  -4.935727e+01
   6.227772e+01  -8.587540e+00
   5.281747e+01   3.306306e+01
  -7.458928e+01   5.155829e+01
  -1.960914e+02  -4.312983e+01
  -1.580037e+02  -9.880311e+01
  -3.641021e+00  -1.728164e+02
   1.428041e+02  -1.707640e+02
   1.943383e+02  -5.999204e+01
   9.739897e+01   7.524498e+01
  -1.326838e+01   6.876684e+01
  -6.985333e+01  -1.904946e+01
   5.656733e+01  -3.922730e+01
   1.534618e+02  -2.357645e+01
   1.617617e+02   7.956116e+01
   3.098176e+01   1.679495e+02
  -9.360112e+01   1.077815e+02
  -1.088648e+02   2.882050e+01
  -8.351445e+01  -3.528377e+01
  -6.489464e+00  -1.006691e+01
  -1.842516e+01   9.642984e+01
  -7.178101e+01   8.149483e+01
  -1.437476e+02   1.791585e+01
  -1.087388e+02  -1.101486e+02
   1.725595e+01  -1.660366e+02
   1.032124e+02  -8.844545e+01
   1.283423e+02  -1.600525e+01
   3.490638e+01   7.140878e+01
  -2.011354e+01   7.109072e+01
  -3.244530e+01   4.074453e+01
  -5.447340e+00  -5.273034e+01
   3.130543e+01  -4.971016e+00
  -1.006617e+01   3.438154e+00
  -5.972899e+01  -5.499897e+00
  -7.070266e+01  -7.750062e+01
   1.401522e+01  -1.465902e+02
   1.397300e+02  -1.040182e+02
   1.598968e+02  -1.280691e+01
   1.196743e+02   1.187601e+02
   1.008404e+01   1.683809e+02
  -6.820446e+01   1.220818e+02
  -1.136250e+02   4.187325e+01
  -9.464721e+01  -4.081793e+01
  -4.819071e+01  -1.522578e+01
  -5.409183e+01  -2.470524e+01
  -2.152066e+01  -2.124845e+01
  -2.900633e+01  -3.810213e+01
   2.976355e+01  -3.852495e+01
   4.920165e+01  -4.042161e+01
   8.026516e+01   2.877088e+01
  -2.688098e+01   7.320873e+01
  -9.506849e+01   7.227095e+01
  -1.552366e+02  -2.166524e+01
  -7.091132e+01  -1.557488e+02
   8.868285e+01  -1.325810e+02
   2.290860e+02  -6.947903e+01
   2.070522e+02   9.234287e+01
   4.923044e+01   1.331199e+02
  -2.704012e+01   8.342042e+01
  -9.080583e+01   5.828302e+01
  -4.738677e+01   4.813546e+01
  -3.630592e+01   3.705236e+01
  -4.356403e+01   1.017427e+02
  -9.480693e+01  -2.249625e+01
  -9.406509e+01  -9.163795e+01
  -5.660230e+00  -1.931536e+02
   8.244959e+01  -1.595039e+02
   1.332707e+02   7.642118e+00
   1.052341e+02   9.807472e+01
   2.737658e+01   1.144092e+02
  -8.585238e+01   4.255342e+01
  -4.870901e+01  -1.571311e+01
   2.359353e+01  -1.320633e+01
  -1.360356e+01  -1.560650e+01
   8.980536e+00  -1.468616e+01
  -5.348110e+01  -1.630265e+01
  -2.072197e+01  -4.922075e+01
   3.837808e+01  -1.288525e+01
   1.291846e+02   1.129887e+01
   1.046527e+02   3.730516e+01
   5.897734e+00   7.378067e+01
  -8.715459e+01   3.974311e+01
  -1.194037e+02   1.811703e+01
  -2.537704e+01  -2.131943e+01
   1.968237e+01  -9.350110e+00
   5.602735e+01   2.875430e+01
   9.919130e+00   5.385389e+01
  -6.834940e+01   1.912505e+01
  -2.893352e+01  -9.319370e+00
  -4.127981e+01  -5.194616e+01
  -4.266088e+01  -5.651299e+01
  -8.796371e+01   8.184370e+00
  -4.615959e+01  -2.545156e+01
  -4.496001e+01  -6.575018e+01
   4.790740e+01  -9.566275e+01
   1.150948e+02  -1.006177e+02
   1.210218e+02  -1.482297e+01
   1.239352e+02   6.816690e+01
   3.299234e+01   1.054187e+02
  -4.579149e+01   4.725821e+01
  -3.233243e+01  -2.624901e+01
   3.851230e+01  -3.779006e+01
   7.758297e+01   2.789956e+01
   6.957593e+01   6.194406e+01
  -5.015796e+01   8.854172e+01
  -1.545741e+02   7.835399e+00
  -1.396876e+02  -4.461501e+01
  -2.081689e+00  -3.831430e+01
   3.684944e+01  -6.548841e+01
   4.592269e+01  -1.728169e+01
  -1.804349e+01  -1.229018e+00
  -6.169987e+01  -2.026167e+01
  -6.143336e+00  -8.583235e+01
   6.848881e+01  -1.165324e+02
   9.886920e+01  -1.970873e+01
   9.563042e+01   8.066999e+01
   3.670826e+01   1.284914e+02
  -5.161635e+01   1.291384e+02
  -6.130106e+01  -8.218534e+00
  -4.087389e+01  -7.994357e+01
  -2.132813e+01  -9.574848e+01
   6.464786e+01  -3.879803e+01
   3.669696e+01   5.713264e+01
   2.283759e+01  -2.608074e+01
   4.250333e+00  -1.444777e+01
   1.329519e+01   2.016483e+01
   4.271533e+01   5.608111e+01
   4.774622e+01   8.965512e+01
  -2.658993e+01   3.767352e+01
  -1.083003e+02   2.409459e+01
  -1.300038e+02  -3.704195e+01
  -2.245620e+01  -5.562238e+01
   6.963518e+01  -2.192349e+01
   6.223779e+01  -1.839986e+01
   1.594031e+01   1.476760e+01
  -5.054607e+01   3.846233e+01
   1.727158e+00  -1.177886e+01
   3.581451e+00  -1.637025e+01
  -3.105871e+00  -1.129121e+01
  -2.487379e+01  -1.723300e+01
  -8.372527e+01  -1.370389e+01
  -2.217507e+01  -6.631552e+01
   5.628381e+01  -1.014665e+02
   1.500703e+02  -5.071634e+01
   9.591494e+01   5.708794e+01
   2.868863e+01   1.064848e+02
  -7.113128e+01   1.173231e+02
  -9.219125e+01   4.707785e+01
  -3.406476e+01  -2.647530e+01
   2.074431e+01  -3.406948e+01
   5.423424e+00   2.802627e+00
  -2.434666e+01   3.712623e+00
  -3.290977e+01  -3.142311e+01
  -1.253388e+01  -7.832258e+01
   2.379154e+01  -7.958064e+01
   6.339103e+01   4.405318e+00
   3.544063e+01   1.023699e+02
   2.857794e+01   7.858366e+01
  -9.279107e+01   1.205544e+01
  -7.668261e+01  -4.774794e+01
  -2.061713e+01  -9.373484e+01
   3.226531e+01  -3.362667e+01
   9.114161e+01   3.304654e+01
   4.776719e+01   5.223838e+01
  -7.668015e+00   5.775994e+01
  -1.112043e+01   3.371382e+01
  -6.736627e+00  -1.187086e+01
   4.417904e+01  -8.305895e+00
   1.769771e+01   4.664154e+01
  -6.546772e+01   6.227743e+01
  -7.843132e+01   2.374827e+01
  -7.275749e+01  -2.501417e+01
   3.952448e+01  -5.877637e+01
   6.425911e+01  -7.693648e+01
   2.346669e+01   1.907980e+00
  -2.784609e-02   2.476876e+01
  -1.140275e+01   5.238158e+01
  -1.264924e+01   8.168598e+00
  -4.827214e+01  -5.155337e+01
   2.256554e+01  -4.359557e+01
   2.853050e+01   1.446948e+01
   3.794254e+01   8.369097e+00
   8.508065e+00  -1.091741e+01
  -2.623274e+01  -3.396056e+01
  -7.083774e+00  -2.409654e+01
  -2.126303e+01   4.064626e+01
   3.377631e+01   8.400083e+01
  -3.831387e+01   1.533873e+01
  -5.589823e+01  -5.248796e+01
   8.943262e+00  -5.278064e+01
   2.876361e+01  -1.444871e+01
   5.818807e+01   4.091685e+01
   2.993687e+00   3.935294e+01
  -6.012212e+01  -6.708728e-01
  -6.484793e+01   5.919352e+00
  -3.553426e+01  -4.592848e+01
   1.741902e+01  -5.945455e+01
   4.325319e+01  -2.470123e+01
   2.108269e+01  -1.042515e+01
  -1.100142e+01   1.648624e+01
  -9.120813e+00  -1.786058e+01
   1.293628e+00   1.324458e+00
   6.334845e+01  -1.303761e+01
