
 $NMID
 id='ANONYMOUS ', fmtdat='(2E16.6)'
 volume=1.0
 tramp=1.0
 $END
   2.829186e+03   1.980574e+02
   1.965239e+03   1.310873e+03
   2.186289e+02   1.733121e+03
  -6.764804e+02   1.100175e+03
  -8.199113e+02   4.538912e+02
  -1.193222e+02   4.587034e+01
   1.845772e+02   4.445175e+01
  -4.193552e+01   3.676826e+02
  -3.193280e+02   4.823713e+02
  -5.452275e+02   1.063797e+02
  -3.800420e+02  -4.222941e+02
  -3.552473e+01  -6.127511e+02
   2.709622e+02  -1.621199e+02
   2.433020e+02   3.674667e+02
  -1.101882e+02   4.868160e+02
  -3.303294e+02   1.057042e+02
  -2.821471e+02  -4.543043e+02
   2.415513e+01  -6.132765e+02
   3.713664e+02  -2.709419e+02
   4.342226e+02   1.300066e+02
   1.617955e+02   2.901090e+02
  -9.512114e+01   2.116683e+02
  -4.735063e+01   5.266061e+01
   1.996100e+02   1.501657e+02
   2.498541e+02   2.796220e+02
  -4.062231e+01   3.886031e+02
  -5.014208e+02   1.236791e+02
  -5.647270e+02  -2.647486e+02
  -1.660687e+02  -4.003338e+02
   3.059423e+02  -1.491409e+02
   4.170134e+02   1.500370e+02
   1.858729e+02   3.443948e+02
  -2.783809e+02   3.160914e+02
  -4.462000e+02   8.151484e+01
  -2.793057e+02  -1.664989e+02
  -3.423263e+01  -2.819886e+02
   1.902474e+01  -1.610072e+02
  -7.164750e+01   8.476519e+01
  -2.067395e+02   9.888987e+01
  -1.824285e+02  -2.151457e+02
   4.370542e+01  -5.129115e+02
   3.541512e+02  -4.357898e+02
   3.381746e+02   3.050252e+01
   6.642290e+01   3.133107e+02
  -1.388083e+02   1.023475e+02
  -1.193032e+02  -2.530154e+02
   1.457756e+02  -3.131923e+02
   3.921850e+02   1.237125e+00
   4.379235e+02   3.547814e+02
   9.132977e+01   4.498927e+02
  -2.719023e+02   2.607351e+02
  -4.321662e+02   1.029193e+01
  -3.321963e+02  -2.160539e+02
   1.973766e+01  -1.949271e+02
   1.690271e+02  -7.280920e+01
   1.889338e+02   4.791699e-01
   2.047339e+01  -1.666373e+01
  -6.898630e+00  -4.576995e+01
   8.082085e+01  -4.670414e+01
   1.974907e+02   8.581249e+01
   7.965111e+01   1.374693e+02
  -1.106416e+02   1.848356e+02
  -3.106121e+02   1.231738e+02
  -2.347795e+02  -5.372180e+01
  -3.624494e+00  -3.357448e+02
   2.753197e+02  -3.750362e+02
   3.219452e+02  -1.933507e+02
   2.148411e+02   1.544367e+02
   6.352903e+01   3.360399e+02
  -2.425500e+01   2.797405e+02
   3.275713e+01   1.389574e+02
  -1.753406e+01   1.076475e+02
  -1.229275e+02   1.001502e+02
  -2.435822e+02   6.734352e+01
  -2.151147e+02  -1.650946e+02
  -3.858849e+01  -2.130094e+02
   7.086044e+01  -1.496627e+02
   1.727287e+02   3.961702e+01
   1.347163e+02   2.398316e+02
  -3.055803e+01   2.384264e+02
  -2.230002e+02   9.066079e+01
  -3.060334e+02  -1.438536e+02
  -1.981953e+02  -2.383003e+02
   6.261353e+01  -2.772021e+02
   1.543610e+02  -1.653073e+02
   1.640157e+02  -4.391434e+01
   1.434068e+02  -7.143142e+01
   2.758906e+02  -1.985549e+01
   4.086859e+02   1.244373e+02
   3.455552e+02   2.871914e+02
  -2.773013e+01   4.186182e+02
  -3.905671e+02   3.867913e+02
  -4.710188e+02   1.733513e+02
  -2.779972e+02  -1.204098e+02
   1.947020e+00  -2.510432e+02
   1.053732e+02  -1.824323e+02
  -1.878630e+01  -3.951291e+01
  -1.266888e+02   4.370361e+01
  -1.082331e+02  -3.632256e+01
  -6.213762e+00  -1.480815e+02
   1.371442e+02  -8.196336e+01
   1.012901e+02   6.151839e+01
  -3.619485e+01   8.049774e+01
  -1.771251e+02  -6.619848e+01
  -1.424232e+02  -2.259370e+02
   3.932488e+01  -3.564619e+02
   2.341652e+02  -2.335887e+02
   3.602835e+02   5.506560e+01
   2.800673e+02   2.923732e+02
   6.723894e+01   2.920363e+02
  -1.171383e+02   1.419804e+02
  -1.238517e+02  -7.610202e-01
  -4.673388e+01  -1.251474e+01
   4.862826e+01   7.814316e+01
  -9.865535e+00   1.257320e+02
  -1.464321e+02   5.246269e+01
  -1.276428e+02  -4.072674e+01
  -8.887168e+00  -4.530046e+01
   9.080443e+01   2.513430e+01
   3.410117e+01   8.238358e+01
  -1.416784e+02   8.113983e+01
  -2.849602e+02  -2.199883e+01
  -2.723462e+02  -1.777010e+02
  -3.180290e+01  -2.459468e+02
   1.637722e+02  -2.253192e+02
   2.617503e+02  -7.298414e+01
   1.107755e+02   5.105490e+01
  -3.258236e+01   4.482348e+01
  -4.370974e+01   2.879880e+00
   6.828029e+01  -7.386259e+01
   1.787113e+02  -2.976572e+01
   1.898813e+02   1.328799e+02
   6.584484e-01   1.802877e+02
  -9.603160e+01   1.351785e+02
  -1.126234e+02  -2.056560e-01
  -5.062959e+01  -3.312675e+01
   5.205565e+01   2.831148e+01
   3.139976e+01   1.001493e+02
  -1.053424e+02   1.259359e+02
  -2.013613e+02   3.901298e+00
  -1.704162e+02  -1.513432e+02
  -7.315328e+00  -2.076436e+02
   1.523536e+02  -1.047038e+02
   1.508850e+02  -1.000751e+01
   4.667843e+01   7.998911e+01
  -8.076741e+01   7.766046e+01
  -7.162436e+01   6.343953e+00
   9.784136e+00  -1.406510e+01
   3.521315e+01  -1.343853e+00
  -1.305319e+01   1.992277e+01
  -1.253311e+02   1.483640e+01
  -1.133791e+02  -8.899289e+01
  -3.232071e+01  -1.689320e+02
   1.165246e+02  -1.816085e+02
   2.476284e+02   1.725270e+00
   2.131150e+02   1.518668e+02
   5.947028e+01   2.203744e+02
  -1.127366e+02   1.867832e+02
  -1.244502e+02   4.128726e+01
  -6.664776e+01  -5.114277e+01
  -3.277714e+01  -4.741757e+01
  -5.762906e+01   6.776171e+00
  -7.131348e+01  -5.045023e+00
  -5.188054e+01  -5.083953e+01
   3.633388e+01  -1.120278e+02
   1.291030e+02  -9.511861e+01
   1.244157e+02   5.235195e+01
   1.072263e+01   1.233225e+02
  -1.631330e+02   9.075031e+01
  -2.095749e+02  -3.971881e+01
  -7.340850e+01  -2.305154e+02
   1.457578e+02  -2.505766e+02
   2.695141e+02  -6.976764e+01
   2.537133e+02   1.118789e+02
   8.613766e+01   1.591825e+02
  -5.216614e+01   1.353582e+02
  -8.541380e+01   6.171602e+01
  -3.635510e+01   5.747974e+01
  -1.523901e+01   1.223418e+02
  -9.205371e+01   1.008489e+02
  -1.279027e+02  -1.925451e+01
  -1.172648e+02  -1.516024e+02
  -3.093985e+01  -2.097007e+02
   8.398674e+01  -1.587074e+02
   2.084121e+02  -1.392348e+01
   1.350669e+02   1.651739e+02
   1.759578e+01   1.331931e+02
  -7.335909e+01   6.835881e+01
  -7.134803e+01  -2.775224e+01
   2.314261e+01  -4.561837e+01
   1.330339e+01  -5.459905e+01
  -2.493904e+01  -1.143535e+01
  -1.026653e+02   9.926871e+00
  -6.594117e+01  -4.825853e+01
   5.092751e+01  -4.400756e+01
   1.740845e+02   4.300739e+00
   1.396235e+02   5.586226e+01
   9.620376e+00   8.827620e+01
  -1.333775e+02   7.767769e+01
  -1.320960e+02   6.262551e+00
  -2.622468e+01  -3.195258e+01
   4.262160e+01  -3.116249e+01
   8.978517e+01   2.145947e+01
   2.301944e+01   6.700188e+01
  -4.131096e+01   5.137010e+01
  -8.228305e+01  -5.830964e-01
  -8.787936e+01  -5.768651e+01
  -5.036942e+01  -7.955615e+01
  -5.295415e+01  -4.283434e+01
  -3.996684e+01  -1.573646e-01
  -4.414052e+01  -4.599291e+01
  -1.109407e+01  -1.383346e+02
   7.897906e+01  -1.221453e+02
   1.712322e+02  -3.426079e+01
   1.149721e+02   6.474424e+01
   4.209501e+01   1.408666e+02
  -6.161877e+01   7.662434e+01
  -6.255315e+01   1.685601e+01
   3.712554e+01  -3.472649e+01
   1.287042e+02   1.400581e+01
   6.561001e+01   1.117996e+02
  -8.366989e+01   1.119124e+02
  -1.597686e+02   7.825383e+01
  -1.442530e+02  -8.564611e+01
  -3.990692e+01  -7.793175e+01
   5.730694e+01  -1.167006e+02
   6.064617e+01  -1.210790e+01
  -1.819003e+01   3.527760e+01
  -7.197428e+01  -2.745931e+00
  -6.051922e+01  -8.740149e+01
   8.510548e+01  -1.302190e+02
   1.764955e+02  -7.998289e+01
   1.284427e+02   7.511811e+01
   3.016664e+01   1.608301e+02
  -6.624586e+01   1.394019e+02
  -1.055862e+02   5.531037e+00
  -9.161508e+01  -1.128241e+02
  -4.463689e+00  -1.155742e+02
   4.101423e+01  -5.621959e+00
   4.857963e+01   4.425780e+01
   4.016560e+00   2.525659e+01
   1.642005e+01   2.395909e+00
   4.084272e+01   3.436373e+01
   8.359295e+01   4.710037e+01
   1.783889e+01   1.112732e+02
  -4.211512e+01   6.433043e+01
  -1.453205e+02  -1.953288e+01
  -1.141300e+02  -9.453934e+01
  -1.932384e+01  -3.813589e+01
   7.795712e+01  -1.980402e+01
   8.834396e+01   1.749383e+01
  -6.229153e-01  -3.937652e+00
  -2.145384e+01   2.807651e+01
  -2.416095e+01   1.209324e+01
   1.680981e+01  -3.701447e+01
   1.226259e+01   2.144956e+00
  -6.515524e+01  -1.056841e+01
  -6.848484e+01  -4.494261e+00
  -4.750613e+01  -7.836774e+01
   9.651186e+01  -1.388098e+02
   1.808010e+02  -9.548861e+01
   1.327708e+02   4.988573e+01
   5.481210e+01   1.556873e+02
  -8.261317e+01   1.362277e+02
  -1.159923e+02   1.099249e+02
  -9.677984e+01  -3.697431e+01
  -5.055823e+01  -5.899107e+00
  -2.093077e+00  -1.458656e+00
   1.154511e-01  -2.224569e+01
  -2.252465e+01  -4.569118e+01
  -2.439094e+01  -7.104295e+01
   8.804150e+00  -5.218850e+01
   7.045160e+01  -1.304978e+01
   6.986591e+01   7.546039e+01
   4.062890e+01   1.139740e+02
  -9.272366e+01   3.362381e+01
  -7.636245e+01  -5.537691e+01
  -6.843367e+01  -9.080434e+01
   2.937809e+01  -8.410554e+01
   1.073067e+02  -6.732347e+00
   3.377947e+01   9.790980e+00
  -3.525369e+01   5.676475e+01
  -5.474981e+01   5.959361e+01
   2.616859e+01   6.469084e+00
   8.333294e+01  -2.182905e+01
   3.369433e+01   3.653099e+01
  -1.113381e+02   6.109312e+01
  -1.275156e+02   4.560861e+01
  -7.606462e+01  -1.929240e+01
   4.605219e+01  -9.189043e+01
   5.360145e+01  -8.280829e+01
   3.618885e+01  -4.825541e+01
  -9.994656e+00   5.481259e+01
  -3.321739e+01   4.583483e+01
  -1.749471e+01  -2.387672e+01
  -3.738805e+01  -6.118878e+01
  -8.649743e+00  -1.532337e+01
   5.678067e+01  -5.829634e+00
   4.983237e+01   2.687051e+01
   2.840129e+01  -3.237574e+00
   1.268723e+01  -3.286363e+01
   8.894118e-01  -3.158518e+01
   2.863570e+00   3.953581e+01
   2.574202e+01   8.230826e+01
  -6.434294e+00   1.737457e+01
  -5.254064e+01  -5.226874e+01
  -3.319917e+01  -7.624122e+01
   2.683056e+01  -2.736463e+01
   5.512365e+01  -8.522120e+00
   2.395685e+01   6.968881e+01
  -3.066388e+01   4.326886e+01
  -1.071376e+02   4.956824e+01
  -4.213469e+01  -3.649342e+01
   5.583469e+01  -7.185530e+01
   8.075800e+01  -2.278578e+01
   4.354694e+01  -1.401585e+00
  -4.963010e+01   1.793069e+00
  -4.325718e+01   3.588432e+00
  -5.956337e+00  -5.358436e+01
   7.725736e+01  -4.000270e+01
