
 $NMID
 id='ANONYMOUS ', fmtdat='(2E16.6)'
 volume=1.0
 tramp=1.0
 $END
  -2.532136e+03  -4.370031e+01
  -1.509804e+03  -1.169826e+03
  -5.394631e+01  -1.434607e+03
   9.072315e+02  -6.801832e+02
   6.858215e+02  -2.860733e+01
  -1.129792e+01   2.886061e+02
  -3.470613e+02  -1.190139e+02
  -1.084469e+02  -3.569406e+02
   2.900403e+02  -4.214514e+02
   4.692362e+02  -9.933166e+01
   3.218347e+02   3.557873e+02
  -1.171035e+00   4.976776e+02
  -2.018332e+02   1.575601e+02
  -2.506000e+02  -2.502417e+02
   5.074122e+00  -3.611592e+02
   2.740604e+02  -8.136642e+01
   2.154920e+02   2.488452e+02
  -1.234064e+02   3.942155e+02
  -2.918272e+02   1.284226e+02
  -2.800125e+02  -1.469324e+02
  -6.569068e+01  -2.634676e+02
   6.226434e+01  -1.836326e+02
   9.819088e+01  -8.925148e+01
  -6.553161e+01  -2.218090e+01
  -1.583741e+02  -8.102372e+01
  -5.513383e+01  -1.856202e+02
   2.170041e+02  -7.825834e+01
   3.500929e+02   5.992978e+01
   2.357393e+02   2.275005e+02
  -1.393593e+02   1.687174e+02
  -2.922020e+02  -6.827532e+01
  -1.180897e+02  -1.890661e+02
   1.597023e+02  -2.238571e+02
   2.672398e+02  -1.055091e+02
   2.127388e+02   9.479454e+01
   1.068664e+02   2.235185e+02
  -3.465641e+01   1.972196e+02
  -1.917693e+01  -2.485827e+01
   8.169796e+01  -1.255171e+02
   1.492818e+02   3.625088e+01
   5.490325e+01   3.299804e+02
  -1.886146e+02   3.461541e+02
  -2.961205e+02   5.299818e+01
  -1.760553e+02  -1.880539e+02
   4.599149e+01  -1.120062e+02
   1.154814e+02   1.508501e+02
  -9.003205e+01   2.280058e+02
  -2.394069e+02   3.302982e+01
  -3.223765e+02  -2.088503e+02
  -1.059907e+02  -2.988163e+02
   1.467041e+02  -1.716863e+02
   2.917736e+02   3.356339e+01
   2.089834e+02   1.657686e+02
  -1.867168e+01   1.574298e+02
  -1.931178e+02   3.050587e+00
  -1.389274e+02  -2.063843e+01
  -4.423762e+00  -4.363278e+01
   2.300834e+01   4.104466e+01
  -4.591156e+01   4.482569e+01
  -1.665020e+02  -1.330450e+01
  -5.418827e+01  -1.442534e+02
   1.144341e+02  -1.543004e+02
   1.932791e+02  -5.986522e+01
   1.586778e+02   4.388617e+01
  -2.642379e+01   1.243836e+02
  -1.493612e+02   1.689958e+02
  -2.246715e+02   1.007542e+02
  -1.689155e+02  -6.183068e+01
  -2.685247e+01  -2.266845e+02
   1.137904e+01  -1.924625e+02
   2.876692e+01  -1.003915e+02
   3.895375e+01  -2.138474e+01
   4.417020e+01  -3.609171e+01
   1.403928e+02  -2.160533e+01
   1.112588e+02   6.704789e+01
   7.746019e+01   1.492445e+02
  -1.413123e+01   9.255513e+01
  -1.150601e+02   1.114988e+01
  -9.899109e+01  -1.128926e+02
   5.472347e+01  -1.534234e+02
   1.672270e+02  -3.968848e+01
   1.588450e+02   1.115606e+02
   9.921274e+01   2.122865e+02
  -1.875864e+01   1.697846e+02
  -1.645978e+02   9.181285e+01
  -9.971189e+01   2.814124e+01
  -1.152184e+02   2.970597e+00
  -1.559114e+02  -4.334233e+01
  -2.308218e+02  -9.413268e+01
  -1.317298e+02  -1.855140e+02
   3.296983e+01  -2.354358e+02
   2.140345e+02  -1.800441e+02
   3.060348e+02  -1.294346e+02
   1.859583e+02   6.943347e+01
   1.972057e+01   1.703265e+02
  -4.986848e+01   1.624651e+02
  -1.889968e+00   7.180610e+01
   6.540658e+01   2.363757e+00
   1.019186e+02   4.583974e+01
  -5.692458e+00   8.993370e+01
  -7.412822e+01   5.498765e+01
  -6.649433e+01  -2.514836e+01
   1.361946e+01  -4.861783e+01
   9.284630e+01  -8.132119e+00
   1.217608e+02   1.365837e+02
  -3.573772e+01   1.856402e+02
  -1.373005e+02   9.424739e+01
  -1.799262e+02  -4.126513e+01
  -1.453481e+02  -1.522121e+02
  -6.286928e+01  -1.623128e+02
   8.296794e+01  -9.107879e+01
   1.214603e+02  -2.401239e+01
   3.156216e+01  -5.019312e+00
  -1.117674e+01  -1.300281e+01
  -2.117445e+01  -4.109778e+01
   7.550787e+01  -2.268980e+01
   1.150594e+02   3.903039e+01
   1.811722e+01   3.834598e+01
  -2.253527e+01   1.207078e+01
  -4.754046e+01  -4.664016e+01
   8.305515e+01  -2.264658e+01
   1.525142e+02   2.746539e+01
   1.396397e+02   7.513619e+01
   2.041845e+01   1.738599e+02
  -9.682508e+01   1.075910e+02
  -1.400543e+02   7.982372e+01
  -9.288015e+01   1.902445e+00
   1.650512e+01  -3.005331e+01
   6.829047e+01   8.392713e+00
  -4.656958e+01   4.518859e+01
  -1.005973e+02   3.088683e+01
  -1.111020e+02  -9.906555e+01
  -2.081643e+01  -1.268959e+02
   8.674505e+01  -7.805393e+01
   8.557135e+01   3.366001e+00
   2.734754e+01   3.850351e+00
  -1.151466e+01  -5.659499e+00
  -2.885317e+00  -4.738878e+01
   6.988977e+01  -6.321348e+01
   1.067647e+02   2.097693e+00
   8.827541e+01   2.761098e+01
   1.191669e+00   1.296108e+02
  -8.072877e+01   6.046543e+01
  -8.445103e+01   7.987314e+00
  -2.227925e+01  -6.094138e+01
   4.511711e+01  -6.481141e+01
   4.211218e+01  -2.826279e+01
   1.628606e+01   1.887402e+01
  -3.254704e+01   5.390287e+00
   2.276885e+01  -3.402054e+01
   3.265988e+01   1.353151e+01
   6.919257e+01   5.891267e+01
  -1.641276e+01   1.214552e+02
  -1.054387e+02   8.392811e+01
  -1.395963e+02  -1.124196e+01
  -9.362976e+01  -1.008521e+02
  -3.636875e+01  -1.494106e+02
   5.955834e+01  -1.145567e+02
   8.823707e+01  -1.174330e+01
   4.580449e+01   3.153791e+01
   1.908500e+01   2.071684e+01
   2.862704e+01  -7.830907e+00
   5.161681e+01   7.395859e+00
   3.181774e+01   3.712670e+01
  -2.529163e+01   6.212697e+01
  -5.570506e+01   9.534337e+00
  -4.482561e+01  -5.587367e+01
  -5.268280e+00  -9.037287e+01
   5.721332e+01  -5.756141e+01
   1.245879e+02   3.123908e+01
   7.185496e+01   9.519228e+01
  -1.063576e+02   1.054843e+02
  -1.598597e+02   6.047165e+01
  -1.449079e+02  -6.555801e+01
  -4.844264e+01  -8.715339e+01
   1.873326e+01  -7.173367e+01
   3.635108e+01  -5.429020e+01
   1.360459e+01  -7.315781e+00
   5.376508e+01  -7.677350e+01
   7.406083e+01  -3.062252e+01
   9.375225e+01   2.078982e+01
   5.759042e+01   9.432790e+01
   2.378726e+01   1.470925e+02
  -6.341468e+01   6.748536e+01
  -8.528829e+01  -1.282521e+01
  -4.365476e+01  -7.908820e+01
   1.596798e+01  -6.763496e+01
   8.640203e+00  -1.257812e+01
   4.136002e+01   8.391564e+00
   5.054654e+00   3.116975e+01
  -6.825011e+01   2.759775e+01
   2.540942e+01   1.005264e+00
   5.411258e+01   2.319953e+01
   1.771574e+01   5.018721e+01
  -4.659051e+01  -4.844843e+00
  -1.009737e+02  -2.243370e+01
  -8.681188e+01  -4.366139e+01
  -2.882860e+01  -6.255966e+01
   9.041243e+01  -4.106919e+01
   9.342637e+01   7.314944e+00
   4.032935e+01   3.162335e+01
  -2.227235e+01   1.726390e+01
  -2.837580e+01  -1.237323e+00
  -1.908829e+01  -5.875852e+01
   3.313558e+01  -2.984613e+01
   3.441338e+01  -6.699974e+00
   1.724015e+01   4.459942e+01
   2.102983e+00   3.790705e+01
   4.645813e+01   3.163033e+01
   5.837892e+01  -1.186947e+00
   3.354364e+01   4.626015e+01
  -5.849035e+00   5.736731e+01
  -6.553931e+01   8.851698e+01
  -1.064822e+02   1.615243e+01
  -8.910051e+01  -5.557439e+01
  -2.577939e+01  -6.907082e+01
   4.074457e+01  -3.386564e+01
   3.021877e+01   3.270654e+01
  -5.354718e+01   4.643405e+00
  -8.348716e+01  -2.461005e+01
  -3.718937e+01  -8.382648e+01
   3.129896e+01  -8.882442e+01
   1.242038e+02  -3.228061e+01
   1.124780e+02  -3.349068e+00
   1.944694e+01   4.553831e+01
  -2.589705e+01   6.188610e+01
  -1.516569e+01   4.350805e+00
   4.524261e+01  -1.970194e+01
   3.227459e+01   2.023062e+01
   3.375431e+01   7.577985e+01
  -6.263189e+01   8.715743e+01
  -1.047389e+02   7.220839e+01
  -5.447238e+01  -4.829271e+01
  -1.264172e+01  -1.044040e+02
   1.950316e+01  -8.306437e+01
   2.844804e+01   1.625864e+01
  -2.801022e+00   6.072520e+01
   4.773044e+00   5.955492e+01
  -4.365178e+01  -7.857946e+00
  -2.382420e+01  -5.802703e+00
   6.638143e+00  -5.171737e+00
  -2.699187e+01   2.026563e+01
  -4.199591e+01  -1.044796e+01
  -3.109497e+01  -6.861467e+01
  -1.568357e+01  -5.659988e+01
   2.491468e+00  -4.590502e+01
   9.514090e+01  -2.949149e+01
   1.092634e+02   4.186560e+01
   1.612426e+01   1.638562e+01
  -3.018013e+01   2.746692e+01
  -6.517461e+01  -1.063952e+01
   2.552355e+01   6.743130e+00
   3.608513e+01  -6.203051e+00
   2.629375e+01   2.450773e+01
  -2.470172e+01  -2.165612e+00
   8.850385e+00   2.680172e+01
   3.619214e+01  -1.305630e+01
   5.216615e+01   2.219679e+01
   3.871350e+00   7.058217e+01
  -8.471932e+01   8.956593e+01
  -1.178255e+02   3.631326e+01
  -1.127875e+02  -3.181115e+01
  -2.995674e+01  -1.082846e+02
   5.521360e+01  -7.557780e+01
   5.621444e+01  -3.781889e+01
   5.033143e+01   2.066704e+01
  -4.529900e+00   4.692089e+01
  -9.793000e-01   2.151988e+01
   3.833578e+01   6.569613e+00
   2.427574e+01   3.760807e+01
   2.337404e+01   6.957560e+01
  -2.384746e+01   5.695714e+01
  -4.052671e+01  -1.748543e+01
  -6.295275e+01  -6.495520e+01
  -3.129104e+00  -7.117639e+01
   5.814995e+01  -2.153070e+00
   7.137869e+01   8.952423e+00
   3.378867e+01   5.614208e+01
  -7.611482e+01   4.406976e+01
  -6.987482e+01   1.924277e+00
  -5.547826e+01  -4.369162e+01
  -1.795883e+00  -4.347538e+01
   2.937680e+01  -2.861264e+01
  -3.126461e+01   2.141171e+01
  -3.628519e+01   9.393835e+00
  -1.064392e+01  -7.621451e+00
   4.827025e+01  -3.343561e+01
   9.868665e+01  -3.687742e+01
   2.674749e+01   7.160516e+00
  -1.930860e+01   5.302990e+01
  -5.094303e+01   4.657834e+01
  -3.461437e+01   1.734443e+01
  -2.466403e+00  -4.298378e+01
  -1.565092e+01  -3.583029e+01
   3.581849e+01  -1.006959e+01
   1.860229e+01   3.483826e+01
   1.767914e+00   1.895690e+01
  -1.650936e+01  -1.166715e+01
  -2.787473e+01  -8.326761e+00
   1.095850e+01   6.946465e-01
   1.528290e+01   1.931738e+01
   2.709083e+00   3.187663e+01
  -7.866962e+00  -3.282993e+01
  -6.120631e+00  -4.059242e+01
   2.819396e+01  -5.745636e+00
   3.650797e+01   8.702597e+00
  -9.704729e+00   4.257879e+01
  -2.088537e+01  -7.915048e+00
  -2.447070e+01  -9.871401e+00
  -1.362619e+01  -5.596787e+01
   4.429138e+01  -1.095470e+01
   4.846260e+01   7.942251e+00
   3.015996e+01   2.622207e+01
  -1.024749e+01   3.947172e+00
  -4.025002e+01   1.983510e+01
  -1.365073e+01  -1.972783e+00
   1.522031e+01  -1.679343e+01
   3.920600e+00   3.616268e+01
  -2.325025e+01   1.293629e+01
  -6.574050e+01   1.422734e+01
