
 $NMID
 id='ANONYMOUS ', fmtdat='(2E16.6)'
 volume=1.0
 tramp=1.0
 $END
  -3.368227e+03  -3.537570e+02
  -1.859170e+03  -1.798482e+03
  -4.526345e+01  -1.865348e+03
   1.408166e+03  -8.401019e+02
   8.004889e+02   1.317832e+02
  -2.842504e+02   3.244183e+02
  -5.877277e+02  -1.783319e+02
   9.017885e-01  -6.407730e+02
   5.371174e+02  -6.478434e+02
   6.506191e+02  -9.596689e+01
   3.985733e+02   5.832893e+02
  -1.087840e+02   6.416390e+02
  -3.623521e+02   1.568155e+02
  -2.373568e+02  -3.826963e+02
   1.010178e+02  -5.702923e+02
   4.237389e+02  -4.707685e+01
   2.022019e+02   4.565369e+02
  -1.187900e+02   5.364185e+02
  -4.224550e+02   1.490981e+02
  -3.929575e+02  -2.343412e+02
  -1.225028e+02  -3.609504e+02
   1.313251e+02  -2.582636e+02
   1.558661e+02  -1.154138e+02
  -9.847014e+01  -1.687419e+01
  -3.259703e+02  -1.383435e+02
  -1.116796e+02  -3.611373e+02
   4.242072e+02  -2.341867e+02
   6.363249e+02   1.247531e+02
   2.598222e+02   3.767031e+02
  -2.973357e+02   2.914768e+02
  -5.042459e+02  -6.424190e+01
  -1.894766e+02  -3.241298e+02
   2.105901e+02  -3.556719e+02
   4.388317e+02  -1.534845e+02
   2.971477e+02   1.617876e+02
   5.426766e+01   2.958414e+02
  -1.015119e+02   2.193618e+02
  -1.502540e+01  -1.136223e+02
   1.781697e+02  -2.612145e+02
   2.906650e+02   7.641656e+01
   5.850608e+01   5.247714e+02
  -2.759174e+02   3.592321e+02
  -4.025394e+02  -1.780265e+01
  -1.291308e+02  -3.803665e+02
   1.783841e+02  -2.334609e+02
   2.440761e+02   2.630226e+02
  -5.295277e+01   4.069262e+02
  -3.757520e+02   5.490457e+01
  -4.283219e+02  -2.753824e+02
  -1.884546e+02  -4.489647e+02
   2.743368e+02  -2.444137e+02
   4.534898e+02   3.789340e+01
   3.103658e+02   2.749407e+02
  -3.014402e+01   2.505527e+02
  -2.939671e+02   5.044485e+01
  -1.717928e+02  -5.240871e+01
   1.824549e+01  -6.848612e+01
   8.980026e+01   1.228665e+02
  -6.791898e+01   1.030715e+02
  -2.326089e+02  -4.623813e+01
  -1.412148e+02  -2.050280e+02
   1.667446e+02  -2.257921e+02
   2.960627e+02  -1.279823e+02
   2.313977e+02   8.362212e+01
  -1.005804e+01   2.555258e+02
  -1.704323e+02   3.009904e+02
  -3.177295e+02   1.851842e+02
  -2.401239e+02  -1.211645e+02
  -5.353634e+01  -3.397378e+02
   2.719589e+01  -2.933657e+02
   2.572109e+01  -1.019436e+02
   5.902482e+01  -7.008162e+01
   1.045841e+02  -1.134372e+02
   1.572919e+02  -9.171691e+01
   2.069863e+02   7.910504e+01
   1.175102e+02   2.071411e+02
  -2.960157e+01   1.689526e+02
  -1.466861e+02  -8.130942e+00
  -1.272133e+02  -1.800211e+02
   3.605752e+01  -1.760949e+02
   1.943681e+02  -7.178620e+01
   2.394253e+02   1.731938e+02
   1.956835e+02   2.705349e+02
  -6.489632e+01   2.367788e+02
  -1.851078e+02   1.244198e+02
  -1.534650e+02   2.599335e+01
  -1.199236e+02   3.684405e+01
  -2.462599e+02   2.059636e+01
  -3.074132e+02  -9.304413e+01
  -2.800913e+02  -2.932372e+02
   3.265765e+01  -3.435621e+02
   3.162885e+02  -3.247322e+02
   3.994689e+02  -1.286716e+02
   2.605331e+02   4.202220e+01
   1.811498e+01   2.114634e+02
  -4.559228e+01   2.165960e+02
  -3.418144e+01   5.134904e+01
   8.357403e+01  -4.905872e+01
   1.261887e+02   3.053521e+01
   1.847742e+01   1.075395e+02
  -1.067871e+02   9.772081e+01
  -8.499538e+01  -5.833609e+01
   2.246579e+01  -1.241324e+02
   1.425093e+02  -1.156273e+01
   1.122711e+02   1.730735e+02
  -4.002566e+01   2.874992e+02
  -2.216828e+02   1.690090e+02
  -2.669096e+02  -6.411664e+01
  -2.415179e+02  -2.392801e+02
  -9.121010e+01  -2.144028e+02
   9.206016e+01  -1.665977e+02
   1.564313e+02  -2.785225e+01
   4.972304e+01   8.684787e+00
  -5.748770e+01  -1.550801e+01
   9.785873e+00  -9.990591e+01
   9.020573e+01  -4.507687e+01
   1.035282e+02   4.714521e+01
   6.496781e+01   5.286030e+01
  -6.247764e+01  -1.477759e+00
  -5.154714e+01  -6.384682e+01
   8.663595e+01  -5.132550e+01
   2.058925e+02   1.135842e+01
   2.212871e+02   1.219066e+02
   2.991022e+01   2.248195e+02
  -1.589937e+02   1.891473e+02
  -2.602824e+02   1.021803e+02
  -1.284183e+02  -5.920693e+01
  -1.472331e+00  -1.031766e+02
   5.408493e+01   1.161450e+01
  -7.497987e+01   4.825017e+01
  -1.405470e+02   3.957158e+01
  -1.650987e+02  -1.071390e+02
  -4.759149e+01  -1.735340e+02
   6.927805e+01  -1.022808e+02
   1.020661e+02   1.461721e+00
   3.497883e+01   2.168803e+01
  -4.369568e+01   1.492463e+01
  -1.460652e+01  -8.590872e+01
   9.190932e+01  -9.479710e+01
   1.991344e+02  -1.204320e+01
   1.578953e+02   1.113742e+02
   8.969835e+00   1.841101e+02
  -1.229215e+02   1.335575e+02
  -1.547320e+02   1.631092e+01
  -5.175222e+01  -9.312707e+01
   7.689999e+01  -7.385716e+01
   5.342909e+01  -6.664638e+01
   5.623078e+00   5.879053e+00
  -3.453883e+01   6.722308e+00
  -8.213070e+00  -1.937520e+01
   8.186286e+01  -3.293460e+01
   8.827793e+01   7.652982e+01
   1.015508e+01   1.794585e+02
  -1.316954e+02   1.077807e+02
  -1.851243e+02   4.474296e+01
  -1.841557e+02  -1.421800e+02
  -4.504829e+01  -1.915289e+02
   1.004099e+02  -1.427441e+02
   1.370909e+02  -4.681219e+01
   7.479365e+01   2.923510e+01
   5.045433e+01   2.052575e+01
   3.121354e+01  -4.609321e-01
   5.899745e+01  -3.934271e+01
   3.599587e+01   3.463334e+01
  -4.014813e+01   7.513396e+01
  -9.100940e+01   6.601518e+01
  -1.005962e+02  -1.126600e+01
   3.449570e+01  -1.299765e+02
   1.567336e+02  -6.615115e+01
   2.033735e+02   4.627069e+01
   8.423954e+01   1.954325e+02
  -9.338235e+01   1.816776e+02
  -2.364780e+02   7.395780e+01
  -2.273843e+02  -6.192640e+01
  -7.725217e+01  -1.438167e+02
   1.937438e+01  -1.449134e+02
   7.799044e+01  -5.505003e+01
   3.967589e+01  -5.780727e+01
   2.707052e+01  -4.033967e+01
   7.369227e+01  -1.003476e+02
   1.179663e+02   4.017457e+00
   1.108810e+02   8.170350e+01
   4.523492e+01   1.896879e+02
  -7.541912e+01   1.693128e+02
  -1.734728e+02   1.983447e+01
  -1.023097e+02  -6.535018e+01
  -8.343716e+00  -1.324576e+02
   2.819271e+01  -7.746737e+01
   7.623165e+01  -2.231041e-01
  -1.723408e+01   4.755056e+01
  -9.250781e+00   3.086118e+01
   2.483357e+01   1.317835e+01
   6.022143e+01   5.232942e+00
   1.527974e+01   8.106845e+01
  -2.659516e+01   1.681686e+01
  -1.474109e+02  -4.710619e+00
  -1.137621e+02  -4.297970e+01
   5.531095e+00  -7.955061e+01
   1.160614e+02  -3.518284e+01
   1.127072e+02  -1.314643e+01
   3.673591e+01   4.856500e+01
  -5.377184e+01   3.034527e+01
  -5.660625e+01  -5.061998e+01
  -2.581348e+01  -7.904004e+01
   2.839652e+01  -3.381255e+01
   7.034441e+01  -1.942784e+00
   3.939198e+01   3.721397e+01
   3.342589e+01   3.407518e+01
   3.909258e+01  -3.946293e+00
   4.222223e+01   8.238663e+00
   5.092408e+01   7.551215e+01
  -4.674781e+00   1.265297e+02
  -6.803831e+01   1.441687e+02
  -1.202390e+02   4.840203e+01
  -1.414521e+02  -5.393083e+01
  -3.006391e+01  -9.853235e+01
   5.868200e+01  -8.113350e+01
   3.967304e+01  -7.528600e+00
  -5.001313e+01   4.114144e+01
  -1.080415e+02  -5.607913e+00
  -5.723305e+01  -6.442162e+01
   2.668515e+01  -6.665152e+01
   1.336190e+02  -5.469134e+01
   1.372870e+02   2.098331e+01
   1.870834e+01   4.767512e+01
  -4.133763e+01   3.768739e+01
  -3.645347e+01   9.236295e+00
   5.165374e+01  -1.624890e+01
   6.442729e+01   1.068085e+01
   4.665961e+01   8.628347e+01
  -7.175118e+01   1.319280e+02
  -1.084400e+02   5.634713e+01
  -1.158676e+02  -7.310896e+01
  -1.113191e+01  -1.729326e+02
   6.629283e+01  -1.137066e+02
   6.890603e+01  -2.367844e+01
   4.917792e+01   7.464953e+01
   1.803927e+01   8.740336e+01
  -3.472592e+01   3.661761e+00
  -2.242056e+01   3.119010e+00
   5.358419e+00  -5.389153e+00
   6.351256e-01   3.570037e+01
  -3.297853e+01  -6.615162e+00
  -6.503465e+01  -1.218427e+02
  -4.562036e+01  -8.164266e+01
   3.376030e+01  -3.505024e+01
   1.345649e+02   1.748128e+01
   1.268134e+02   5.434943e+01
   4.250303e+01   2.801848e+01
  -5.501607e+01   5.361619e+01
  -5.871239e+01  -1.913516e+01
  -6.080698e+00  -8.784037e+00
   1.203035e+01  -4.380064e+01
   9.289711e+00   5.690547e+00
   5.738328e+00   4.554552e+00
  -4.702447e+00  -6.566925e+00
   4.374037e+01  -6.066014e+00
   5.884251e+01   3.873104e+01
   1.757207e+01   1.060861e+02
  -1.025260e+02   1.152660e+02
  -1.419421e+02   4.916719e+01
  -1.322391e+02  -5.728121e+01
  -1.664475e+01  -1.267437e+02
   5.198202e+01  -1.583110e+02
   9.938602e+01  -5.591735e+01
   7.882232e+01   3.005076e+01
   1.208926e+01   3.139995e+01
  -1.855912e+01   8.241503e+00
  -2.135582e+00  -9.585490e+00
  -2.835966e+00   3.155577e+01
   1.806289e+01   8.129501e+01
  -1.473138e+01   5.533079e+01
  -1.131759e+02  -4.301299e+00
  -5.949955e+01  -9.650222e+01
  -1.123997e+01  -1.065977e+02
   8.716963e+01  -1.796465e+01
   9.202539e+01   5.065608e+01
   2.907151e+01   7.000581e+01
  -3.378684e+01   8.797350e+00
  -8.409015e+01  -8.241705e+00
  -3.695656e+01  -2.908380e+01
   3.557903e+01  -1.278675e+01
   4.720539e+00  -5.955164e+01
  -2.639790e+01  -6.388903e+00
  -5.667005e+01   6.251371e+00
  -1.827884e+01  -1.330625e+01
   9.307660e+01  -2.767041e+01
   9.189584e+01  -3.322052e+01
   5.169126e+01   2.348812e+01
  -1.661793e+01   9.251305e+01
  -3.567594e+01   6.487134e+01
  -3.785497e+01   4.109122e+01
   1.319191e+00  -2.836053e+01
  -3.452866e+00  -4.712902e+01
   3.226467e+01  -9.129565e+00
   3.273715e+01   4.072443e+01
   1.283917e+00   3.402140e+01
  -4.103773e+01  -1.406227e+01
  -2.970082e+01  -2.983289e+01
  -1.239668e+01  -2.100358e+01
   2.765024e+01   5.216837e-01
   2.521924e+01  -4.432353e+00
  -2.461992e+00  -1.313816e+01
   3.123008e+00  -3.563732e+01
   8.564256e+00  -9.046614e+00
   2.915212e+01   4.830246e+01
   1.472162e+01   7.109645e+01
  -2.713081e+01   2.518892e+01
  -5.808708e+01  -3.349368e+01
  -1.585610e+01  -3.477706e+01
   5.754591e+01  -2.636181e+01
   7.175281e+01   3.832102e+01
   2.660874e+01   2.037122e+01
  -3.676885e+01   7.662511e+01
  -7.667926e+01   3.519158e+01
  -2.231915e+01   1.834555e+01
   2.019490e+01  -8.370982e+00
   1.968622e+01   2.378605e+01
  -2.017505e+01   1.999717e+01
  -9.562308e+01   1.774256e+01
