
 $NMID
 id='ANONYMOUS ', fmtdat='(2E16.6)'
 volume=1.0
 tramp=1.0
 $END
   1.082006e+03  -2.649492e+02
   8.317531e+02   1.175306e+02
   1.516627e+02   6.349148e+02
  -2.927572e+02   4.446534e+02
  -4.904460e+02   1.873995e+02
  -1.581261e+02  -9.991308e+01
   1.680443e+02  -5.100997e+01
   1.800259e+02   6.496363e+01
  -6.930621e+01   1.642763e+02
  -2.154610e+02   1.466610e+02
  -2.124646e+02  -8.678088e+01
  -8.975857e+01  -2.734677e+02
   4.899577e+01  -1.861271e+02
   1.237254e+02   3.081829e+00
   8.384899e+01   1.732175e+02
  -8.109690e+01   8.687207e+01
  -1.412427e+02  -6.759634e+01
  -5.672648e+01  -1.744430e+02
   1.444971e+02  -1.430948e+02
   1.742709e+02  -1.527998e+01
   1.259393e+02   8.467966e+01
  -7.014211e+00   1.299728e+02
  -2.133349e+01   9.818599e+01
  -2.832095e+00   1.076162e+00
   8.048065e+01   8.996217e-01
   1.142305e+02   3.514890e+01
  -6.068658e+01   1.121443e+02
  -1.459208e+02  -7.998699e+00
  -1.373718e+02  -3.442806e+01
   4.524223e+01  -1.336425e+02
   8.349832e+01  -4.541128e+01
   9.236061e+01   1.968681e+01
   1.407235e+01   1.184233e+02
  -1.126590e+02   1.211023e+02
  -1.508994e+02   2.258397e+01
  -7.974874e+01  -8.074223e+01
  -2.655770e+01  -6.207757e+01
   2.879006e+01  -1.087099e+01
   3.490619e+01   1.263955e+02
  -7.088147e+01   4.310503e+01
  -7.116036e+01  -7.089346e+01
   4.072732e+01  -2.378029e+02
   1.118935e+02  -5.768415e+01
   1.298756e+02   2.413643e+01
  -2.205707e+01   9.415935e+01
  -5.141173e+01   1.258242e+01
  -2.166624e+01  -6.904244e+01
   4.091290e+01  -2.735366e+01
   1.316695e+02   5.013938e+01
   8.164266e+01   1.470568e+02
  -1.124450e+01   1.157908e+02
  -1.350878e+02   5.607277e+01
  -1.419606e+02  -5.620496e+01
  -3.008112e+01  -9.884663e+01
   5.641051e+01  -7.982585e+01
   9.394084e+01  -4.072129e+01
   8.162335e+00   3.190518e+01
  -1.685864e+01  -1.216138e+01
   2.491461e+01  -1.782123e+00
   3.868471e+01  -2.886064e+01
   3.647997e+01   3.208158e+01
  -1.765930e+01   3.666092e+01
  -6.831468e+01   2.900884e+01
  -4.797403e+01   1.740728e+01
  -2.362605e+01  -7.908917e+01
   3.465384e+01  -1.098343e+02
   9.920145e+01  -8.139386e+01
   6.426446e+01   1.902878e+01
   1.309405e+01   1.271722e+02
   1.316195e+01   8.562482e+01
  -3.516481e+01   2.875897e+01
  -2.687322e+01   2.503276e+01
  -3.079243e+01   4.140330e+01
  -2.096791e+01  -1.268394e+01
  -3.752522e+01   4.067560e-02
  -3.047854e+01  -3.008593e+01
  -5.500940e+01  -3.355442e+01
   6.852781e+00  -2.375839e+01
   1.737031e+01   8.393672e+00
   9.028662e+00   5.959534e+01
  -1.614446e+01   2.695727e+01
  -8.757064e+01  -1.602585e+01
  -4.029901e+01  -1.249352e+02
   4.380087e+01  -7.009180e+01
   5.158124e+01  -5.619111e+01
   5.785963e+01  -5.383004e+01
   4.813633e+01  -9.731907e-01
   6.424584e+01   1.889370e+01
   6.607960e+01   1.514236e+01
   7.468993e+01   4.151374e+01
   1.668034e+01   1.093779e+02
  -5.979726e+01   1.332980e+02
  -5.876170e+01   1.036424e+02
  -8.799859e+01   9.967672e+00
  -3.793955e+01  -6.553726e+01
   2.722174e+01  -4.883968e+01
  -1.241240e+01  -5.760316e+01
  -1.850989e+01  -2.344269e+01
  -2.748613e+01   1.154140e+01
  -2.412422e+01  -1.428509e+01
   3.407587e+01  -3.872036e+01
   3.204061e+01  -2.031755e+01
   4.039897e+01   3.246377e+01
  -3.820369e+01   1.702072e+01
  -4.936823e+01  -4.561530e+01
  -1.831667e+01  -8.466453e+01
   1.752099e+01  -6.311495e+01
   8.132310e+01  -1.035130e+01
   8.551073e+01   5.352902e+01
  -2.012044e+01   7.087918e+01
  -1.190489e+01   5.664287e+01
  -2.983444e+01   2.045563e+01
  -2.473265e+01  -2.098473e+01
   2.137861e+00   7.163348e-01
  -5.067444e+00   4.055589e+00
  -5.689710e+00   3.231080e+01
  -3.749466e+01  -1.916034e+01
  -3.464480e+01   1.965910e+01
   8.294808e+00  -2.364157e+01
   3.724564e+01   3.105638e+01
  -1.351288e+01   1.546335e+01
  -7.882168e+01  -5.482513e+00
  -4.758523e+01  -2.956219e+01
  -4.196615e+01  -3.280848e+01
   2.291102e+01  -7.683353e+01
   8.001696e+01  -6.305330e+01
   6.392385e+01  -5.480464e-01
   1.949065e+01   1.353605e+01
  -1.917306e+01  -2.590342e+00
  -7.062771e+00  -1.792197e+01
   4.005569e+01  -2.594532e+01
   4.243440e+01   3.305439e+01
   1.952067e+01   3.204681e+01
  -8.260787e+00   6.830005e+01
  -3.481021e+01   5.214704e+01
  -1.952847e+01   4.437132e+00
  -1.263512e+01  -1.092678e+01
   1.284189e+01   2.711482e+00
   2.137777e+01   1.524013e+01
  -3.505863e+01   1.046927e+01
  -5.162310e+01   9.098271e-01
  -1.959098e+00  -3.696686e+00
  -1.055555e+00  -4.756894e+01
   2.893341e+01  -4.775905e+01
   2.194155e+01   1.636866e+01
   3.264870e+00   4.487843e+01
  -3.968612e+01   3.293233e+01
  -3.908684e+01   3.443672e+00
  -5.102920e+00  -1.363841e+01
   6.587451e+00   1.733236e+01
  -8.501473e+00  -1.461968e+01
  -2.522789e+01  -1.501958e+01
   4.237170e+00  -1.722244e+01
   1.993358e+01   5.019556e+00
   5.054763e+01  -3.260374e+01
   4.471213e+01   3.631538e+01
   7.231587e+01   3.162643e+01
  -3.274997e+01   6.603792e+01
  -4.152482e+01   6.596265e+00
  -3.601257e+01   1.618569e+01
  -2.162656e+01  -1.610062e+01
  -3.319017e+01   9.078182e+00
  -1.292700e+01  -5.507409e+00
   2.316347e-01  -1.103387e+01
   3.016917e+01   2.405417e+01
   4.216106e+00   1.088170e+01
   1.528371e+01  -9.297292e-01
   5.068125e+01   3.811062e+01
  -2.788550e+01   2.484130e+01
  -4.914640e+01   1.318819e+01
  -3.123963e+01  -2.077139e+01
  -4.703692e+01  -5.040022e+01
   5.707709e+01  -5.180123e+01
   8.504488e+01   1.119302e+01
   3.267305e+01   2.809544e+01
  -1.971758e+01   5.842803e+01
  -1.824031e+01   5.916843e+01
  -2.385432e+01   1.790536e+01
  -1.065979e+01   2.354257e+01
   1.227336e+01   3.968406e+00
  -2.270009e+01   4.157195e+00
   7.709816e+00  -1.694092e+01
  -3.043797e+01  -4.186153e+01
   2.968970e+00  -4.863960e+01
   1.966345e+01  -1.304071e+01
   5.794648e+01   1.002403e+01
   5.226959e+01   2.466452e+01
   2.097026e+01   4.108741e+01
  -3.308804e+00  -1.490192e+01
  -2.929989e+01  -1.389525e+01
   1.605426e+01  -1.023730e+01
   3.894412e+00  -3.768682e+00
  -6.249963e+00  -2.475811e+01
  -3.257009e+00  -1.980536e+01
  -1.461727e+01   4.482960e+00
   5.172495e+01   9.646445e+00
   2.853251e+01  -1.945735e-01
   1.024327e+01   3.687126e+01
  -2.988151e+01   5.353839e+01
  -4.587491e+01   1.039523e+01
  -6.058178e+00  -8.144937e+00
  -8.207220e+00  -1.881111e+01
   2.724254e+00   3.012503e+01
   8.605599e+00   2.871825e+01
   5.924583e+00   4.164540e+00
  -2.699654e+01  -8.422066e+00
  -1.357409e+01  -2.276758e+01
  -3.991162e+01   5.013148e+00
   1.133338e+00  -9.250773e+00
  -1.892720e+01  -6.662270e+00
  -4.071783e+00   3.097829e+00
   1.508514e+01  -4.142678e+01
   3.520680e+01  -5.067049e+01
   4.701721e+01  -2.167543e+01
   6.733242e+01  -4.404648e-01
  -6.580604e-01   5.871650e+00
  -2.161123e+01   3.056217e+01
  -3.818312e+01  -1.286870e+01
  -1.528510e+01   2.295492e+01
   2.199070e+01  -2.051806e+00
   1.103371e+01   1.595699e+01
  -2.821932e+01   2.527726e+01
  -5.961421e+01   2.466385e+01
  -2.737698e+01   3.300982e+01
  -7.231039e+00   8.006038e+00
  -1.944565e+00  -5.225538e+01
   3.908933e+01  -4.841495e+00
  -2.493749e+01   2.343880e+01
  -2.447632e+01   1.009539e+01
  -8.852467e+00  -2.099549e+01
   1.747299e+00  -3.240662e+01
   1.826759e+01  -4.396402e+01
   4.073844e+01  -2.022146e+01
   3.080964e+01   3.730373e+01
   1.165196e+01   4.840858e+01
  -3.228585e+01   1.565918e+01
  -2.481160e+01  -7.088292e+00
   1.704005e+00  -2.804563e+01
  -1.310420e+01  -2.208099e+01
   1.154799e+01  -5.291100e+00
   2.179364e+01   1.518450e+01
  -1.952896e+01   1.511025e+01
   2.538498e+00   6.075585e+00
   2.467845e+01  -3.214437e+00
   6.396368e-01   1.160812e+01
   7.891859e+00   6.673400e+00
  -1.422413e+01   4.301161e+01
  -4.066307e+01  -2.376261e+01
  -2.856898e+01  -1.787974e+01
   2.537587e+01  -3.020123e+01
  -7.295871e+00   3.022069e+00
  -3.242369e+01   3.045398e+00
  -1.536500e+01   1.692670e+01
  -1.782979e+01  -7.917793e+00
  -1.617745e+01   7.963564e-01
  -5.760947e+00  -1.711896e+01
  -5.049631e+01   6.199397e+00
  -2.300618e+01  -6.718999e+00
  -3.543245e+01  -1.339402e+01
   9.102305e+00  -7.323142e+01
   2.444583e+01  -4.166048e+01
   6.804228e+01  -1.899917e+01
   5.182983e+00  -4.159524e+00
   3.080596e-01   3.196877e+01
  -5.965372e-01   4.173558e+01
  -2.983890e+00   1.940243e+01
  -1.579448e+01  -3.934249e-01
  -2.264036e+01   2.081740e+01
   2.088676e+01   1.141278e+01
   6.718467e+00  -5.128244e+00
   1.342152e+01  -3.073660e+01
  -2.339260e+01  -7.828187e+00
   1.162251e+01  -5.897841e+00
   2.741999e+01   9.111512e+00
   3.420808e+01   3.494191e+01
  -7.926012e+00   1.910815e+01
  -1.072061e+01  -9.788286e+00
  -3.322088e+01  -2.626781e+01
  -1.716020e+01  -4.142286e+01
   2.996879e+01  -3.457071e+00
   1.280493e+01  -1.848632e+01
   7.234448e-01   3.416973e+01
  -3.294879e+00   2.390397e+01
  -1.427001e+01   2.949043e+01
   4.133887e+01  -2.411200e+01
  -7.465548e+00   1.157164e+01
   1.345918e+01   7.473970e+00
  -3.092375e+01   3.450464e+01
  -2.543668e+01   1.355817e+01
  -8.308002e+00  -7.057310e+01
   8.488577e+00  -3.884179e+01
   2.240254e+01  -1.568079e+01
  -6.259260e+00  -1.637018e+01
   1.418736e+00   3.078358e+01
  -1.101180e+01   6.780535e+00
  -1.666934e+01  -3.491067e+01
  -1.547119e+01  -1.333622e+01
   6.460037e+00  -6.864854e+00
   2.389990e+01  -1.877090e+01
  -8.816935e-02   3.922193e+00
  -1.579648e+01  -2.632060e+01
  -9.885468e+00   5.142265e-01
   4.376806e+01   1.964820e+01
   3.086436e+01   4.875131e+01
  -2.997895e+01   2.253383e+01
  -2.423643e+01  -5.227841e+00
   8.365089e+00  -2.151655e+01
   1.635088e+01   1.874113e+00
   1.082899e+01   1.734986e+01
   3.131760e+01  -1.615838e+01
   1.843133e+01   7.407725e+00
  -1.366583e+01   2.608741e+01
  -1.030542e+01  -1.426314e+01
   2.637643e+00  -1.335374e+01
   1.636503e+00  -1.644584e+01
  -2.417186e+00   1.565462e+01
  -2.495130e+01   4.654077e+00
  -2.679065e+01   2.552626e+00
  -7.821733e-01  -1.122839e+01
   2.652019e+01  -2.616821e+01
