
 $NMID
 id='ANONYMOUS ', fmtdat='(2E16.6)'
 volume=1.0
 tramp=1.0
 $END
  -6.592264e+02  -7.693111e+01
  -6.982977e+02   2.556424e+01
  -2.209798e+02  -3.397184e+02
   7.923809e+01  -4.479512e+02
   3.550481e+02  -2.680150e+02
   1.294322e+02  -1.743555e+01
  -8.253582e+00   5.080195e+01
  -1.318723e+02   5.224809e+00
  -9.479478e+00  -1.083588e+02
   1.442090e+02  -1.553802e+02
   1.574309e+02  -1.829053e+01
   1.433078e+02   1.312661e+02
  -2.114872e+01   1.635016e+02
  -1.119501e+02   3.378356e+01
  -6.803590e+01  -1.436958e+02
   4.904907e+01  -7.506022e+01
   1.098489e+02   5.147963e+01
   7.410357e+01   1.118277e+02
  -5.776904e+01   1.396814e+02
  -1.026430e+02   6.768093e+01
  -7.312746e+01  -9.434944e+01
  -1.694164e+01  -6.641234e+01
   2.994559e+01  -5.634116e+01
   1.409215e+01   5.292278e-01
  -2.405492e+01  -3.373532e+01
  -4.379031e+01  -3.231484e+01
   3.628222e+01  -9.724405e+01
   8.113347e+01   2.293789e+01
   1.673813e+02  -4.614748e+00
   2.522921e+01   2.778303e+01
  -6.131824e+01   2.088781e+01
  -7.760123e+01  -2.627183e+01
  -9.165884e+00  -4.805763e+01
   3.524486e+01  -7.749927e+01
   7.617987e+01  -2.863461e+01
   8.718353e+01   1.304529e+01
   1.701950e+01   6.221131e+01
   2.445858e+01   2.398242e+01
  -2.799295e+01  -1.440284e+01
  -2.173714e+01  -2.409039e+00
   1.186646e+01   2.919927e+01
  -3.537632e+01   1.485404e+02
  -3.940808e+01   4.791696e+01
  -2.812148e+01  -3.453366e+00
  -4.134464e+01  -1.496787e+01
  -4.006411e+01   3.345661e+01
   2.599817e+01   1.317966e+01
  -2.191353e+01   1.463798e+01
  -8.713916e+01  -3.464496e+01
  -6.419441e+01  -3.861540e+01
   5.525137e+00  -3.889837e+01
   6.420849e+01  -1.437718e+01
   8.754954e+01   7.781935e+00
   4.202156e+01   5.569600e+00
  -2.922037e+01   6.618801e+01
  -5.851023e+01   4.799011e+01
  -5.653970e+01  -1.871803e+00
  -3.643483e+01   9.569664e+00
   4.455229e+00  -1.441443e+01
  -1.761655e+01   1.803125e+01
   3.914112e+00  -2.500480e+01
  -1.188441e+01   1.991460e+00
   3.391063e+01  -4.308520e+01
   1.259453e+01  -1.324211e+01
   2.624046e+00   7.772042e+01
  -6.759297e+01   6.051668e+01
  -6.966781e+01   2.421348e+01
  -4.052592e+01  -3.310706e+01
   2.068899e+01  -5.071229e+01
   2.613750e+01  -7.045114e+01
   7.330636e+00  -2.429427e+01
   9.181930e+00  -3.388934e+01
  -3.679312e+00  -2.448337e+01
   5.835810e+01   2.312475e+00
   6.219357e+01   8.483677e+00
   3.100460e+01   4.609894e+00
   4.906575e+01   3.189427e+01
   1.396680e+01   1.447667e+01
  -1.369256e+01  -1.998114e+01
   3.426961e+00  -3.517389e+01
   9.743173e+00  -5.459927e+00
   4.779329e+01  -9.412817e+00
   2.667351e+01   7.303514e+01
  -1.814322e+01   4.954434e+01
  -4.508419e+01   5.565714e+01
  -5.308164e+01  -7.480736e+00
  -2.050860e+01   2.467664e+01
  -4.709790e+01  -1.059385e+01
  -4.747640e+01   8.831068e+00
  -5.763069e+01  -5.424064e+01
   2.857727e+01  -6.349123e+01
   7.479339e+01  -7.965237e+01
   6.163343e+01  -5.674151e+01
   5.630012e+01  -3.821391e+01
   1.992585e+01   3.757942e+01
  -3.555180e+01   2.417044e+01
   1.730007e+01   5.148270e+01
   3.259778e+01  -3.302556e+00
   2.602780e+01  -1.869222e+01
   1.454842e+01  -1.453705e+00
   1.630158e+01   4.650827e+00
  -1.382099e+01   2.093777e+01
  -7.816834e-01  -2.495545e+01
   1.555714e+01   6.679174e+00
   2.733686e+01   3.308734e+01
   4.150089e+00   5.361972e+01
  -3.162353e+01   3.791187e+01
  -9.210076e+01  -8.133263e+00
  -7.923659e+01  -4.170376e+01
  -4.157330e+00  -3.680907e+01
  -2.132681e+01  -6.569710e+01
   1.985980e+01  -2.832730e+01
   1.760097e+01  -1.863956e+00
   3.930985e+01   7.839021e+00
   2.478777e+01   7.435636e+00
   9.230503e-01  -4.696438e+00
   2.488968e+01  -6.942478e+00
   2.754042e+01  -2.940585e+01
  -1.705006e+01  -1.202136e-01
  -2.289007e+01  -6.316812e+01
   2.965887e+01  -2.828575e+01
   5.125301e+01   1.459459e+01
   4.698291e+01   1.996219e+01
   2.610036e+01   6.289787e+01
  -4.354934e+01   1.579846e+01
  -2.035810e+01   6.398990e+01
  -3.860075e+01  -1.598539e+01
   2.622415e+01  -7.696302e+00
  -1.898603e+00  -1.593468e+01
   1.974666e+00   2.151121e+01
  -4.645815e+01   2.997447e+00
  -3.706349e+01  -5.405873e+00
  -1.989699e+01  -2.533980e+01
   1.045327e+01  -3.755143e+01
   3.503605e+01   1.488877e+01
   3.534695e+00   2.417140e+01
  -1.399146e+01  -5.687820e+00
  -7.226435e+00   1.160061e+01
   8.994062e+00   1.359423e+01
   2.339285e+01   3.990923e+00
   1.688056e+01   3.001324e+01
   1.209583e+01   3.100585e+00
  -1.715384e+01   2.245290e+01
  -5.135919e+00   6.464513e+01
   1.035860e+01  -3.463811e+01
  -2.567987e+00  -2.618399e+01
   4.702890e+01  -1.836414e+01
  -3.156965e+00   4.466535e+00
  -2.424694e+01   2.421909e+00
  -8.670534e+00  -2.992387e+01
   3.317937e+00   1.504352e+01
   2.526423e+01   1.825995e+01
   8.678467e-01   1.457349e+01
  -1.142292e+01   2.928844e+01
  -4.297565e+01   3.795243e+01
  -2.307547e+01   6.391979e+00
   5.111129e+00  -8.628008e+00
   2.824158e+01  -1.755884e+01
   8.733675e+00   1.289948e+01
  -7.725674e+00  -9.462196e+00
  -5.838895e+00   1.536018e+01
   1.711057e+01  -7.641601e+00
   2.020032e+01   3.995290e+00
  -8.333313e-01   8.554299e+00
  -6.117650e+00  -2.135427e+01
  -1.048380e+01   1.105954e+01
  -2.059270e+01   1.067262e+01
  -2.440601e+01   1.130699e+01
   2.760508e+01  -1.437504e+01
   1.270666e+01  -2.981108e+01
  -3.142652e+00   4.350481e+01
   1.262447e+01   2.251236e+01
  -6.845204e+01   3.161891e+00
  -4.810360e+00  -3.998775e+00
  -2.588350e+01  -2.903547e+01
  -1.079207e+01  -3.359277e+01
   9.937185e+00  -1.174414e+01
   2.075763e+01  -2.102514e+01
   1.187685e+01  -3.075174e+01
   1.004628e+01   3.434384e+01
   2.829437e+01  -1.124085e+01
   1.100120e+01   3.600392e+01
   4.775759e+01   4.421864e+01
   6.545326e+00   2.244025e+01
  -1.219168e+01  -4.786007e+00
  -3.799027e+01  -2.118945e+01
  -2.465940e+01  -4.406614e+00
  -5.368052e+00   1.320866e+01
   1.914965e+01   8.413532e+00
  -1.307934e+01   3.316513e+01
   2.624317e+00   1.687540e+01
   1.939134e+01  -9.269773e+00
  -1.895380e+01  -1.911750e+01
   4.291849e+01   1.631463e+01
   3.964641e+00   1.856089e+01
  -4.553070e+01  -5.088949e+00
  -5.006699e+01  -1.402402e+00
   5.741080e+00  -3.431308e+01
  -1.087388e+01  -3.210175e+01
   3.256569e+01  -3.086897e+00
   1.960172e+01  -2.655244e+00
   2.254427e+01   9.821865e+00
  -6.927690e+00  -2.864305e+01
   1.138156e-01  -1.950452e+01
  -3.675786e+01  -2.126076e+01
   4.107733e+00  -1.785238e+01
   1.648578e+01   1.139746e+01
   2.164795e+01   1.240362e+01
  -7.388815e+00  -3.709658e+00
   2.578245e+00   3.786830e+00
  -6.211681e+00   1.887078e+01
  -4.150560e+01   2.430705e+01
  -6.220160e+01   3.912663e+01
  -5.919790e+01   8.809611e+00
  -3.117600e+01   7.441705e+00
  -6.759926e+00  -5.460288e+01
   3.939964e+01  -1.137455e+01
   1.002585e+01   1.763378e+01
  -1.634465e+01  -1.401984e+01
  -2.161431e+01  -2.545736e+01
  -3.766506e+01  -2.241082e+01
   3.469400e+01  -3.120715e+01
   3.642382e+01  -3.654081e+00
  -7.671558e-01  -3.411794e+00
   1.254690e+01   2.027387e+01
  -1.371718e+01   3.662637e+01
  -5.060922e+00  -4.608768e+01
  -1.102152e+01  -2.496005e+01
   1.404151e+01  -1.639568e+01
   1.361401e+01   1.868447e+01
  -7.748043e+00   4.230598e+01
  -3.658575e+01   6.014961e+01
  -2.960325e+01  -2.683077e+01
  -2.925426e+01  -8.196248e+00
  -1.462175e+01  -2.640616e+01
   2.136118e+01  -2.843025e+01
   3.574297e+01   1.229172e+01
   3.540016e+00   4.137815e+01
   2.006265e+01   1.885407e+01
   3.243837e+00  -5.873666e+00
  -3.111259e+01  -9.925156e+00
   1.343630e+01   7.444338e+00
   2.261628e+01   2.010037e+01
  -1.094664e+01  -5.468172e+00
  -1.167969e+01  -2.438590e+01
   3.213681e+01  -4.076732e+01
   2.442588e+01  -1.330933e+00
   2.919821e+01   1.280253e+01
  -2.087407e+01  -3.135510e+00
  -1.599522e+01   1.381358e+01
  -1.480137e+01  -3.708437e+00
   2.700011e+01   5.047088e-01
   1.335882e+01  -7.936457e+00
   1.304102e+01   1.005820e+01
  -1.140209e+01   2.159532e+01
   1.214926e-02  -1.177019e+01
  -1.235902e+00  -2.528914e+01
   4.521756e+01   1.278529e+01
   2.156292e+01   1.305879e+01
  -9.268955e+00   2.068831e+01
  -2.391939e+01   3.214488e+01
  -4.126651e+01  -2.265900e+00
  -3.024840e+01  -1.221781e+01
  -2.059079e+01  -3.817208e+01
   8.272891e+00  -3.221301e+01
   2.314773e+01  -1.332391e+01
   1.247494e+01  -1.086166e+01
  -1.593176e+01   1.941282e+01
   1.945680e+01   8.367184e+00
   1.547691e+00  -4.246627e+00
   1.108528e+01  -6.580486e+00
   8.220542e+00   2.996969e+01
  -1.318658e+01  -2.174305e+01
  -7.846332e-01  -2.045019e+01
   3.001559e+00  -4.629559e+01
   4.186576e+01  -7.113596e+00
   8.259122e+00   2.307241e+01
   9.298109e+00   4.272931e+01
  -1.643464e+01   3.125852e+01
  -2.201128e+01   6.976327e+00
  -3.419466e+00  -8.936341e+00
   1.583991e+00  -7.896086e+00
  -1.228566e+01   1.235583e+01
  -3.104256e+01  -8.465962e-02
  -1.624460e+01   1.423835e+01
  -1.141693e+01  -1.353500e+01
  -1.957947e+00  -2.538165e+01
   2.675872e+01  -2.774696e+01
   1.508115e+01   1.817132e+01
   1.487458e+01   2.208918e+01
  -6.417128e+00   2.493915e+01
  -2.043975e+01  -9.684547e+00
  -1.080803e+01  -1.305723e+01
   4.554248e-01  -3.375783e+00
   8.981844e+00  -2.000430e+01
  -9.033151e+00   1.031149e+01
  -6.044569e+00   3.632338e+00
   2.813482e+01  -9.091512e+00
  -1.583037e+01  -1.513600e-01
   4.756206e+00   1.903949e+01
  -6.092494e+00   1.844543e+01
  -1.495760e+00  -4.335252e+00
  -1.034623e+01  -1.812842e+01
  -2.827635e+01  -3.728413e+01
  -3.797794e+00  -5.165446e+00
   2.415417e+01   1.687201e+01
   1.095734e+01   3.350473e+01
   1.650085e+01   1.728883e+01
  -2.199706e+01  -4.691403e+00
  -1.025875e+01  -8.191045e-01
   9.373842e+00  -8.906500e+00
   3.615075e+01  -1.042983e+01
   2.113962e+01   1.215278e+00
  -1.962568e+00   1.238567e+01
  -3.044647e+01   7.558864e+00
  -3.108867e+01  -2.001099e+01
   2.410084e+01   4.524557e+00
   2.334439e+00  -7.484708e+00
   1.646104e+01   1.386549e+01
  -1.421041e+01   4.163495e+01
