
 $NMID
 id='ANONYMOUS ', fmtdat='(2E16.6)'
 volume=1.0
 tramp=1.0
 $END
   4.545056e+02   1.643916e+02
   7.389056e+02   1.226866e+02
   2.660715e+02   2.111075e+02
  -8.385599e+01   5.190274e+02
  -3.276399e+02   1.942901e+02
  -1.535532e+02   2.314364e+01
   2.707165e+01  -1.539550e+02
   2.010659e+02  -6.369869e+00
   8.839511e+01   1.964122e+02
  -1.041142e+02   1.677803e+02
  -1.958966e+02   7.234158e+01
  -1.561658e+02  -1.116487e+02
  -2.986104e+01  -1.526015e+02
   5.838360e+01  -3.070546e+01
   7.653308e+01   7.804657e+01
   9.136373e+00   1.002388e+02
  -6.840190e+01   3.127084e+01
  -1.167965e+02  -1.278817e+02
   5.515230e+00  -1.159347e+02
   9.754635e+01  -3.821350e+01
   1.030298e+02   7.361318e+01
   2.226941e+01   7.613963e+01
  -2.437925e+01   4.494514e+01
  -1.816986e+01   3.305800e+01
   2.492327e+01   9.690125e+00
   1.236759e+01  -2.471431e+01
  -1.677831e+01   1.094118e+01
  -1.098491e+02  -1.258430e+01
  -1.221645e+02  -3.915479e+00
  -5.806080e+01  -3.249227e+01
   3.828395e+01  -6.963534e+00
   4.551809e+01   3.311340e+01
  -2.187654e+00  -7.787263e+00
   1.382103e+01   9.733247e+01
  -4.766622e+01   2.623953e+01
  -3.133944e+01   2.395933e+01
  -6.311086e+01  -6.923634e+01
  -9.671752e+00  -4.365089e+01
   2.319916e+01  -3.363959e+01
   9.431916e+00  -1.767540e+01
  -2.815402e+01   7.039174e+00
  -3.166004e+01  -5.129633e+01
  -1.641641e+01  -5.457347e+01
   1.926410e+01  -8.896449e+00
   7.013443e+01  -1.432333e+00
   2.850949e+01  -2.636684e+01
   7.721462e+00   3.244434e+00
   2.570294e+01   1.056941e+01
   4.649607e+00  -1.853226e+01
   6.030072e+01   8.185331e+00
   3.800591e+01   5.180186e+01
   1.178303e+00   5.184157e+00
  -7.844497e+01   5.403230e+00
  -2.462988e+01  -1.035362e+01
  -9.217454e-01  -7.479298e+01
   7.494345e+01  -8.336577e+01
   7.612517e+01  -2.399405e+00
   2.989172e+00   1.730443e+01
  -1.771450e+01   3.651154e+01
  -3.481469e+00  -1.446394e+01
   2.277117e+01  -1.241534e+01
  -4.600193e+00   1.082840e+01
  -2.001742e+01   3.290326e+01
  -3.006946e+01   3.048094e+01
  -3.943250e+01  -2.687785e+01
   2.966252e+01  -9.039419e+01
   6.780054e+01  -5.819878e+01
   5.578903e+01   3.226172e+01
  -2.820087e+01   3.147121e+01
  -1.071218e+01   3.859422e+01
   3.615877e-01   1.394986e+01
  -2.162450e+01   5.150712e+01
  -5.990327e+00  -1.601030e+01
  -3.311248e+01  -2.475255e+01
  -4.546057e+00  -3.281343e+01
  -6.418783e+00   5.073045e-01
  -4.813297e+01  -4.200958e+00
  -5.490284e-01   1.896595e+01
  -2.278231e+00  -7.681655e+00
   4.530211e+00   6.785971e+00
   7.671103e+00  -1.289771e+01
  -2.286763e+01  -1.460070e+01
  -5.356279e+01  -4.878072e+01
   1.362381e+01  -2.531806e+01
   2.672181e+01  -4.675727e+01
   6.436267e+01   1.004719e+01
   2.840124e+01  -8.559966e+00
   4.436454e+01   2.407411e+01
   2.907369e+01   2.931748e+01
   2.559683e+01   6.956407e+00
   1.862111e+01   9.615900e+00
  -3.975447e+01   4.751477e+01
  -4.601161e+01   6.980557e+01
  -9.467954e+00   4.588448e+01
  -1.254521e+01   2.369354e+01
  -2.239233e+01   4.091951e+00
  -3.436366e+01  -2.757349e+01
  -1.408534e+01  -1.911577e+01
  -3.202476e+01  -4.862247e+00
  -1.709915e+01   2.476974e+01
  -2.440866e+01  -8.248964e+00
   3.587549e+00  -5.439715e+01
  -4.583521e-01   2.362530e+01
   5.517159e+00  -5.854006e+00
  -8.642586e-01  -3.644555e+01
   4.474708e+01  -6.391104e+01
  -4.907335e+00  -4.503570e+01
   4.972496e+01   1.604813e+01
   3.970982e+01  -8.500931e+00
   2.237517e+01  -6.472611e+00
   1.956402e+01   4.325191e+01
  -2.835740e+01   5.404112e+00
  -3.974328e+01   4.121782e+00
  -9.187339e+00   1.233718e+01
  -8.252557e+00  -1.958557e+01
  -1.464068e+01  -3.359000e+00
  -1.990413e+01  -3.197684e+01
   2.712955e-02   4.201898e+00
   3.786200e+00   9.552068e+00
  -3.571286e+00   3.228905e+01
  -2.304166e+01   1.683464e+01
  -2.530197e+01  -3.672844e+00
  -1.336718e+01  -2.362094e+01
  -1.738499e+01  -4.123718e+01
  -4.829203e+00  -2.987237e+01
   1.541648e+01  -5.499576e+01
   1.396961e+01  -2.136256e+00
   2.737840e+01   4.779917e-01
   3.948988e+00   1.435321e+01
  -6.389085e+00  -1.935896e+01
   1.836515e+01  -6.547337e+00
   8.358981e+00  -5.204987e+00
   2.092153e+01   1.057630e+01
   4.384850e+00   3.167939e+01
   8.465112e+00  -1.299247e+01
   4.089767e-01  -3.566582e+00
   1.679028e+01   2.508823e+01
   1.518278e+01  -3.134922e+01
  -1.748106e+01   1.062302e+01
  -1.368802e+01  -2.428188e+00
  -3.052792e+01   3.161025e+00
   1.953226e+01   1.378119e+01
   2.150251e+00  -2.175742e+01
   8.725544e+00  -3.855135e+01
   8.545375e+00  -7.167886e+00
   1.960432e+01  -1.440974e+01
  -9.656372e+00   2.128688e+01
   1.648946e+01  -1.013781e+00
   4.701977e+00  -2.400065e+01
  -5.213379e+00   5.189301e+00
   3.023389e+01  -2.634382e+01
  -1.972711e+01  -5.522998e+00
   1.858580e+01  -4.903599e+00
   1.811532e+01   1.052479e+01
  -1.165961e+01  -9.089838e+00
   2.047039e+01  -1.855598e+01
   1.775481e+01  -1.497811e+01
   4.531607e+00   1.946348e+01
  -2.799612e+01   2.334716e+00
  -2.321020e+01   7.268038e+00
  -3.416845e+01   1.576243e+01
  -1.959124e+00   3.690478e+01
  -9.651071e+00  -3.535630e+01
  -1.102713e+01   1.889258e+01
   8.815036e+00   4.014817e+01
   1.825738e+01   3.060139e-02
   7.388593e+00  -4.401826e+00
  -1.711410e+01   5.107653e+00
   1.652960e+00   1.237227e+00
  -3.783156e+01  -7.004988e+00
   5.998322e+00   4.837962e+00
  -1.873192e+01  -1.002058e+01
   3.197195e+01   3.981033e+00
   2.331705e+00   8.392317e+00
   8.357393e+00   4.335112e+00
   2.108550e+01   3.299648e+01
   3.370085e+01   2.535295e+01
   1.207302e+01   2.490297e+01
  -4.368899e+00   1.519696e+01
  -3.810301e+01  -1.127915e+01
  -2.586938e+01  -1.743211e+01
  -1.732550e+01  -1.564782e+01
  -1.629231e+00  -3.049765e+01
  -1.395700e+01  -4.385026e+01
   4.166558e+01   8.066871e-01
   5.688009e+01  -8.468105e+00
   3.568608e+01  -1.434815e+00
   2.807470e+01  -4.479714e+00
  -3.292505e-01   3.256818e+01
  -7.792810e+00   3.984326e+00
   2.308261e+01  -2.172396e+01
  -6.071108e+00   3.140872e+01
   6.870528e+00   2.781230e+01
  -8.251583e+00   2.814674e-01
  -2.898657e+00  -5.001754e+00
   4.738208e+00   7.946502e+00
   5.753053e+00   4.858667e+00
   1.267879e+01   1.053541e+01
   2.047457e+01  -1.826398e+01
  -2.549664e+01   8.221077e+00
  -2.947503e+01  -1.015496e+00
  -2.242340e+01  -1.563443e+00
  -2.736123e+01   1.128580e+01
   1.702457e+01  -1.587338e-01
   1.671396e+01   1.731320e+01
   8.571943e+00   1.450990e+01
  -1.531875e+01  -1.788524e+01
   4.370218e+00  -1.912706e+01
  -1.186651e+01  -1.511047e+01
   5.130012e+01  -8.076287e+00
   2.643312e+01  -5.524982e+00
  -2.938060e+01   8.414389e+00
  -7.410222e+00  -4.376679e+01
   2.745046e+01  -2.019677e+01
   1.746893e+01   4.009661e+00
  -1.895074e+01   1.284116e+01
  -3.931015e+01   3.467323e+01
  -1.350292e+00   2.575987e+00
  -2.659400e+00   2.724154e+01
  -1.130834e+01   1.072449e+01
   2.059657e+01  -1.817057e+01
   1.088225e+01   7.390925e-01
  -4.113938e+01  -6.650720e+00
  -1.559806e+01  -8.003541e+00
  -6.093030e+00  -1.456664e+01
  -4.127099e+01  -1.629305e+01
   3.136387e+01  -2.219009e+01
  -1.336832e+01  -6.210720e+00
   1.397430e+01   7.810602e+00
   2.942237e+01  -2.066312e+01
  -6.560462e+00  -1.551915e+01
   5.596834e+01  -3.250091e+00
   1.078430e+00   1.973772e+01
   1.657392e+01   2.917230e+01
   2.571801e+01   4.156697e+01
   1.712507e+01   2.549164e+01
  -7.761707e+00  -3.651918e+01
  -3.789212e+01  -1.000611e+01
   1.944870e+01  -1.199427e+01
   1.756692e+01   1.433429e+01
   3.849390e+01  -1.106817e+01
  -1.879137e+01  -1.635420e+01
  -2.658877e+01   1.700322e+01
   2.883049e+01   1.013948e+01
   6.655951e+00  -4.490281e+00
   8.517716e-01   9.467289e+00
  -1.946467e+01  -2.678741e+01
  -1.264397e+01  -1.740877e+01
   7.997251e+00  -2.529040e+01
   3.419799e+00   1.686242e+01
  -3.488486e+00   9.725727e+00
  -9.875237e+00   3.839010e+00
   1.401021e+01  -3.150149e+01
   7.012370e+00   5.241885e+00
  -1.243221e+01  -1.501335e+00
   1.958225e+01   7.019171e+00
  -1.444674e+01  -1.188474e+01
  -2.194951e+01  -1.085502e+01
  -6.863860e+00  -1.910139e+01
   2.553828e+01  -1.645892e+01
   3.727511e+01  -5.008543e+01
   1.713688e+01  -1.253937e+01
   6.337482e+00  -9.269064e+00
   3.083824e+01   2.262371e+01
  -7.228987e+00   2.243881e+01
  -4.119023e+01   8.790715e+00
  -1.950081e+01   3.818526e+01
   1.139702e+01   1.398874e+01
   1.332845e+01  -9.472286e+00
   2.078297e+01  -3.212607e+01
   2.726370e+01  -6.339649e+00
  -2.638569e+01  -1.558718e+01
   1.606111e+01   4.379109e+00
   8.408976e+00   2.186742e+01
   2.384350e+01   2.216632e+01
   2.433697e+01  -4.169944e+00
  -1.609953e+01  -4.485990e+00
   6.655535e-01  -9.568293e+00
  -1.473035e+01   3.231460e-01
  -1.617501e+00   1.345972e+01
  -3.352284e+00   6.262814e+00
  -9.727822e+00   6.005050e+00
  -5.699405e+00   1.835277e+01
   4.172817e+01   2.854320e+00
  -7.067310e+00   7.351427e+00
   2.695114e+00   2.733010e+01
   4.317501e+00  -5.241514e+00
  -1.355195e+01  -7.180711e+00
  -2.076835e+01   2.209552e+01
  -1.234948e+01  -1.730563e+01
  -1.761458e+01  -9.606702e+00
  -9.789372e-01   3.455081e+01
  -7.654497e+00   2.316919e+00
   2.580174e+01  -1.532250e+01
   9.996101e+00   5.922585e+01
   3.679928e+00  -3.961132e+01
  -1.947788e+01   1.671447e+01
  -2.067893e+00   1.409858e+01
   6.604694e+00  -1.272481e+01
   1.698096e+01   2.418692e+01
   1.885253e+01   1.133023e+01
   7.449954e+00   1.178790e+01
   2.402584e+01   2.196752e+01
   2.165104e+01  -1.094676e+01
  -4.161751e+00   1.439457e+00
  -2.834302e+01   1.230199e+01
   5.276457e+00  -8.512309e+00
  -7.308806e+00  -4.704478e-01
   7.428221e+00   2.720726e+00
   2.072359e+01  -2.164892e+00
  -1.494066e+00   1.275865e+01
  -3.917190e+01   1.945909e+01
   8.915204e+00  -1.825426e+01
   1.794115e+01  -1.297371e+01
   1.095801e+01  -1.472533e+01
   4.187747e+01   2.000340e+01
  -1.150757e+00   8.046923e+00
  -2.314032e+01   5.238700e+00
  -3.104050e+00  -7.432958e+00
  -1.717683e+01  -2.176647e+01
