
 $NMID
 id='ANONYMOUS ', fmtdat='(2E16.6)'
 volume=1.0
 tramp=1.0
 $END
  -2.781912e+03  -1.895844e+02
  -1.822247e+03  -1.110993e+03
  -2.894993e+02  -1.639735e+03
   7.659372e+02  -1.069833e+03
   8.110338e+02  -4.162258e+02
   2.297068e+02  -5.922237e+01
  -1.021128e+02  -1.145620e+01
   7.465077e+00  -3.004420e+02
   2.604447e+02  -4.578301e+02
   5.186174e+02  -8.300361e+01
   3.259005e+02   3.996310e+02
   9.319284e+01   5.532989e+02
  -1.977695e+02   2.187285e+02
  -2.094149e+02  -2.968120e+02
   6.419356e+01  -4.705646e+02
   3.139605e+02  -1.089958e+02
   2.738349e+02   3.892545e+02
  -6.411072e+01   5.346814e+02
  -3.864718e+02   2.591048e+02
  -3.973408e+02  -9.108829e+01
  -1.648281e+02  -3.363369e+02
   1.265630e+02  -2.025454e+02
   5.365754e+01  -4.599784e+01
  -2.331373e+02  -1.201016e+02
  -2.810060e+02  -3.103529e+02
   9.052234e+01  -3.848908e+02
   5.031663e+02  -7.232512e+01
   5.270421e+02   2.471902e+02
   1.529070e+02   3.669013e+02
  -2.964286e+02   1.363198e+02
  -4.079060e+02  -2.685278e+02
  -1.097517e+02  -3.204764e+02
   2.728472e+02  -2.772216e+02
   4.173464e+02  -7.661086e+01
   2.539278e+02   1.218458e+02
   3.985458e+01   2.527261e+02
  -3.252802e+01   1.251257e+02
   9.615127e+01  -5.736216e+01
   2.178587e+02  -6.787634e+01
   1.636645e+02   2.398465e+02
  -9.700622e+01   4.612959e+02
  -2.958461e+02   4.031479e+02
  -3.113868e+02  -1.363831e+01
  -5.173497e+01  -2.553756e+02
   1.360420e+02  -6.235627e+01
   1.065131e+02   2.762608e+02
  -1.534160e+02   2.734516e+02
  -3.647363e+02  -2.644673e+01
  -4.306713e+02  -3.431163e+02
  -1.096572e+02  -4.565584e+02
   2.527118e+02  -2.285395e+02
   4.078257e+02   3.019146e+01
   2.553688e+02   2.175034e+02
  -3.392902e+01   1.488942e+02
  -1.608610e+02   7.541196e+01
  -1.629698e+02   2.879770e+01
  -3.163079e+01   1.011947e+01
   1.612734e+01   3.763710e+01
  -7.672325e+01   3.685099e+01
  -1.612535e+02  -3.037355e+01
  -1.097612e+02  -1.610856e+02
   1.157723e+02  -1.975298e+02
   3.227849e+02  -1.113174e+02
   2.788914e+02   7.117577e+01
  -2.226246e+01   3.283864e+02
  -2.867935e+02   3.466718e+02
  -3.612273e+02   2.033438e+02
  -2.054330e+02  -1.790808e+02
  -2.014818e+01  -3.182869e+02
   1.751122e+01  -2.788712e+02
   1.415750e+01  -1.908807e+02
   1.262643e+01  -1.099557e+02
   1.644696e+02  -1.301528e+02
   2.473320e+02  -7.281215e+01
   2.372654e+02   1.138614e+02
   6.014863e+01   2.403975e+02
  -1.023420e+02   1.575296e+02
  -1.859595e+02  -4.477555e+01
  -8.916092e+01  -2.201371e+02
   4.361958e+01  -1.842380e+02
   2.054298e+02   2.534178e+00
   2.917856e+02   1.414854e+02
   1.205755e+02   2.562218e+02
  -4.910663e+01   2.259660e+02
  -1.393787e+02   1.399663e+02
  -1.652211e+02   6.024024e+01
  -1.409590e+02   9.066908e+01
  -2.731864e+02   8.980570e+00
  -3.686345e+02  -7.995276e+01
  -3.024396e+02  -2.808216e+02
   1.338516e+01  -4.347715e+02
   3.476747e+02  -3.251271e+02
   4.301144e+02  -1.597870e+02
   2.571054e+02   1.165740e+02
  -2.169854e+01   2.127686e+02
  -8.924122e+01   1.229690e+02
   3.845852e+01   5.785960e+00
   1.252407e+02  -1.610297e+01
   7.605696e+01   7.758635e+01
  -5.646886e+01   1.127974e+02
  -1.223330e+02   3.988680e+01
  -7.826517e+01  -5.593507e+01
   3.800382e+01  -9.816244e+01
   1.668394e+02   2.367172e+01
   1.233524e+02   2.160280e+02
  -3.903676e+01   3.169839e+02
  -1.983197e+02   2.140943e+02
  -3.269739e+02  -5.226396e+01
  -2.448880e+02  -2.565582e+02
  -5.290835e+00  -2.503726e+02
   1.194515e+02  -1.276138e+02
   1.197129e+02  -8.385013e+00
   3.218481e+01   2.924429e+01
  -4.432986e+01  -7.316290e+01
   2.616308e+01  -1.370068e+02
   1.210028e+02  -5.155014e+01
   1.085398e+02   2.713582e+01
   3.953525e+01   4.096298e+01
  -1.036593e+02  -1.010982e+01
  -3.088201e+01  -9.770026e+01
   1.390720e+02  -6.560456e+01
   2.643479e+02   2.288796e+01
   2.231665e+02   1.689918e+02
   3.926505e+01   2.640840e+02
  -2.184504e+02   2.589626e+02
  -2.893325e+02   4.179240e+01
  -1.050140e+02  -4.397774e+01
   4.327137e+01  -5.773235e+01
   4.919436e+01   3.353026e+01
  -6.239055e+01   7.284029e+01
  -1.618737e+02   6.042133e+01
  -1.506581e+02  -1.232689e+02
  -6.708918e+01  -2.135026e+02
   1.045146e+02  -1.372734e+02
   1.230971e+02  -2.422222e+00
   3.093577e+01   2.282667e+01
  -5.402133e+01  -4.408267e+01
  -3.820258e+01  -9.853263e+01
   9.654196e+01  -1.193831e+02
   2.143184e+02  -3.152117e+01
   1.560265e+02   1.034925e+02
   2.257136e+01   1.826247e+02
  -1.646108e+02   1.316654e+02
  -1.365841e+02  -5.042156e+00
  -5.606186e+01  -6.314151e+01
   5.094191e+01  -8.773991e+01
   2.149898e+01   1.957279e+01
  -1.268807e+01   3.040283e+01
  -3.212412e+01   1.865808e+00
  -1.867823e+01  -2.003018e+01
   1.034462e+02  -2.080259e+01
   1.201457e+02   9.279044e+01
  -1.459827e+01   1.640759e+02
  -1.433882e+02   1.417156e+02
  -2.309016e+02  -9.175866e+00
  -1.557324e+02  -1.248840e+02
  -5.460686e+01  -2.100699e+02
   1.055958e+02  -1.378372e+02
   1.366430e+02  -4.995339e+01
   8.415777e+01   4.390873e+01
   6.379477e+01   5.364926e+01
   4.406080e+01   1.073787e+01
   9.040358e+01   2.667950e+00
   3.815605e+01   6.939740e+01
  -1.521798e+01   9.800653e+01
  -1.111791e+02   9.292126e+01
  -9.697349e+01  -2.864934e+01
   8.710563e+00  -1.373124e+02
   1.565691e+02  -7.978516e+01
   1.760263e+02   7.796641e+01
   6.942488e+01   2.177401e+02
  -1.540486e+02   2.120485e+02
  -2.298699e+02   8.989622e+01
  -2.507001e+02  -1.061584e+02
  -8.150179e+01  -1.542880e+02
   5.222692e+01  -1.506338e+02
   8.655083e+01  -7.642204e+01
   3.607389e+01  -7.249277e+01
   4.415089e+01  -9.600049e+01
   9.041801e+01  -6.033126e+01
   9.159539e+01   2.263677e+01
   1.218509e+02   1.469612e+02
   4.445735e+01   2.084614e+02
  -1.139855e+02   1.534312e+02
  -1.668345e+02  -2.333842e+00
  -1.150840e+02  -1.405688e+02
   3.712884e+00  -1.145269e+02
   8.511364e+01  -7.885456e+01
   9.405321e+01   4.396464e+01
   4.178205e+00   3.876106e+01
  -3.334649e+01   4.435827e+01
   7.315444e+01   1.888753e+01
   6.707680e+01   2.192861e+01
   1.750606e+01   1.620727e+01
  -3.680859e+01   5.750003e+01
  -1.586894e+02   3.896637e+00
  -1.264391e+02  -6.847039e+01
   2.178921e+01  -8.588198e+01
   1.193680e+02  -7.153634e+01
   1.123338e+02   9.877007e+00
   5.946650e+01   5.924157e+01
  -5.406192e+01   5.134643e+01
  -4.327088e+01  -9.486150e+00
  -2.664075e+01  -5.017235e+01
   5.482082e+01  -3.667781e+01
   8.097476e+01  -4.154873e+00
   5.944855e+01   4.819218e+01
   6.243358e+01   4.585490e+01
   1.989565e+01   4.188198e+01
   3.297711e+01  -5.311591e+01
   4.540795e+01   2.516456e+01
  -4.687686e+01   1.501290e+02
  -8.762259e+01   1.271774e+02
  -1.960386e+02   3.208321e+01
  -1.521631e+02  -1.042797e+02
   1.739166e+00  -1.335604e+02
   8.920886e+01  -7.157121e+01
   6.005135e+01   7.843455e+00
  -4.499914e+01   1.317335e+01
  -1.244118e+02  -2.837116e+01
  -5.940458e+01  -9.756367e+01
   7.788893e+01  -9.247748e+01
   1.597696e+02  -6.002682e+01
   1.245276e+02   3.871615e+01
   1.065152e+01   9.460946e+01
  -8.275759e+01   6.382010e+01
  -4.950432e+01  -4.774720e+00
   4.995497e+01  -1.842082e+01
   6.005041e+01   5.160996e+01
   3.996654e+01   9.200518e+01
  -7.660487e+01   1.282717e+02
  -1.399272e+02   7.728459e+01
  -1.303354e+02  -9.612202e+01
  -2.170751e+01  -1.708447e+02
   4.116694e+01  -1.058542e+02
   8.328411e+01   1.955320e+01
   4.287755e+01   1.182085e+02
  -4.536284e+01   9.926020e+01
  -5.563300e+01   1.587494e+01
  -3.000828e+01  -4.741055e+01
  -1.212757e+01  -3.300066e+01
  -7.374090e+00   3.042304e+01
  -4.832717e+01   3.536629e-02
  -7.479278e+01  -9.429692e+01
  -2.770689e+01  -1.050790e+02
   7.015013e+01  -1.368811e+01
   1.382449e+02   2.769206e+01
   7.116799e+01   1.067373e+02
   3.202824e+01   5.131374e+01
  -8.835851e+01   1.026321e+01
  -5.102617e+01  -1.889798e+01
   2.545851e-01  -2.176111e+01
   1.940453e+01   1.081014e+01
   2.145875e+01   5.321385e+00
  -1.862746e+01   1.636635e+01
   7.045947e+00  -7.238980e+00
   8.173972e+01   1.977115e+01
   8.987794e+01   1.762479e+01
   1.018699e+00   7.900453e+01
  -8.983543e+01   1.220254e+02
  -1.714089e+02   9.004443e+01
  -1.479367e+02  -4.256155e+01
  -2.638430e+01  -1.353243e+02
   9.466417e+01  -1.317257e+02
   1.103784e+02  -9.912637e+01
   1.002225e+02   1.973995e+01
   2.776401e+01   3.253247e+01
   2.197562e+01   1.591230e+01
  -8.464004e+00   5.351641e+00
   1.215431e+01   4.647416e+01
   1.352364e+01   9.313536e+01
  -2.646769e+01   6.122697e+01
  -6.204146e+01  -8.649918e+00
  -1.000958e+02  -7.293681e+01
  -4.802403e+01  -1.068263e+02
   6.794799e+01  -3.272930e+01
   7.377769e+01   4.873553e+01
   2.341839e+01   1.078053e+02
  -6.085754e+01   7.117572e+01
  -1.180997e+02  -1.951206e+01
  -4.319944e+01  -4.778070e+01
   1.511612e+01  -8.225213e+01
   5.025957e+01  -4.111437e+01
  -2.112616e+01   2.057427e+01
  -6.957547e+01   1.612018e+00
  -1.764851e+01  -3.060623e+01
   1.175409e+02  -7.593862e+01
   1.189800e+02  -5.357162e+01
   7.494907e+01   5.772269e+00
  -3.875178e+01   4.167222e+01
  -5.294028e+01   9.988580e+01
  -2.992561e+01   2.775944e+01
  -1.701471e+01  -5.700149e+01
   4.455205e+01  -2.532072e+01
   1.989352e+00   1.088186e+01
   1.210270e+01   4.875172e+01
  -9.922529e-01   4.436914e+01
  -2.775688e+01  -1.818398e+01
  -6.234802e+01  -2.287475e+01
   9.802288e+00   1.042221e+01
  -1.723629e+01   5.457820e+01
   2.590889e+01   2.235291e+01
  -2.835950e+01  -1.631163e+01
  -1.081504e+01  -6.701677e+01
   2.190023e+01  -2.251332e+01
   1.834426e+01   3.189615e+01
   9.010532e+00   6.101127e+01
  -2.747304e+01   2.661927e+01
  -7.067347e+01  -1.726906e+01
  -3.152229e+01  -4.317103e+01
   5.418580e+01  -2.581997e+01
   8.816024e+01  -6.240440e+00
   5.446968e+01   9.479671e+00
  -3.393017e+01   4.509003e+01
  -5.894898e+01   2.769223e+01
  -2.480810e+01  -7.695735e+00
   1.730099e+01   3.101400e+00
   2.913149e+01   7.197636e+00
  -1.703369e+01   1.376646e+01
  -6.022530e+01   1.222289e+01
