
 $NMID
 id='ANONYMOUS ', fmtdat='(2E16.6)'
 volume=1.0
 tramp=1.0
 $END
  -3.828925e+03  -2.376694e+02
  -2.238137e+03  -2.390882e+03
   3.837649e+02  -2.457926e+03
   1.765761e+03  -8.530588e+02
   8.949441e+02   4.424995e+02
  -5.376262e+02   5.542234e+02
  -8.131301e+02  -3.222005e+02
   4.201120e+01  -9.731633e+02
   7.510828e+02  -8.005555e+02
   9.014751e+02   7.236237e+01
   5.080016e+02   8.627841e+02
  -2.604788e+02   8.325753e+02
  -6.733405e+02   1.319956e+02
  -3.607207e+02  -6.408137e+02
   2.891576e+02  -7.441894e+02
   5.681801e+02  -1.001611e+01
   2.515614e+02   5.758491e+02
  -3.209305e+02   5.921388e+02
  -5.596500e+02   7.269071e+01
  -4.090551e+02  -3.263122e+02
   1.224445e+01  -4.014284e+02
   2.782979e+02  -2.471029e+02
   2.261612e+02  -2.369196e+01
  -8.237500e+01   4.367798e+01
  -3.707401e+02  -1.215474e+02
  -1.579738e+02  -4.302632e+02
   4.327510e+02  -3.761002e+02
   7.450044e+02   1.414410e+02
   4.016407e+02   5.042875e+02
  -2.977224e+02   4.302558e+02
  -6.947899e+02  -1.579449e+01
  -2.961325e+02  -4.441503e+02
   2.407746e+02  -4.752772e+02
   5.559387e+02  -1.384056e+02
   3.938959e+02   2.435959e+02
   5.906095e+01   4.478445e+02
  -2.269556e+02   2.740993e+02
  -1.562225e+02  -1.660489e+02
   1.817342e+02  -4.040757e+02
   3.985814e+02   9.046972e+01
   2.385780e+02   6.371624e+02
  -3.144508e+02   5.758750e+02
  -5.519397e+02  -2.945218e+01
  -2.612477e+02  -4.935980e+02
   2.196016e+02  -2.819179e+02
   3.786947e+02   2.791980e+02
  -4.953063e+01   4.635113e+02
  -4.618958e+02   1.553337e+02
  -5.350154e+02  -3.213580e+02
  -1.386094e+02  -5.530389e+02
   3.479992e+02  -3.214857e+02
   6.020393e+02   6.893096e+01
   3.733357e+02   3.621881e+02
  -1.485463e+02   3.435531e+02
  -3.859237e+02   6.062440e+01
  -2.322365e+02  -1.582810e+02
   1.145753e+02  -6.164870e+01
   1.200107e+02   1.057698e+02
  -1.396140e+02   1.233912e+02
  -3.306895e+02  -6.432765e+01
  -1.199593e+02  -2.302017e+02
   2.152840e+02  -2.287326e+02
   3.427480e+02  -1.302389e+02
   2.717919e+02   1.104276e+02
  -2.745850e+01   2.545853e+02
  -2.129031e+02   3.442245e+02
  -3.730444e+02   1.528078e+02
  -2.939083e+02  -1.600499e+02
  -3.679614e+00  -3.896687e+02
   7.656245e+01  -3.457546e+02
   8.729877e+01  -8.518144e+01
   5.394131e+01   1.688930e+01
   7.487056e+01  -4.940286e+01
   2.209457e+02  -1.095444e+02
   2.688562e+02   3.410123e+01
   1.410442e+02   2.518840e+02
  -4.942900e+01   2.118607e+02
  -1.911741e+02   4.148721e+01
  -1.861449e+02  -1.840009e+02
   5.469542e+00  -2.743482e+02
   2.387825e+02  -1.090621e+02
   2.809200e+02   1.888958e+02
   1.229726e+02   3.249713e+02
  -1.130562e+02   2.239039e+02
  -2.453329e+02   9.174814e+01
  -1.387355e+02   3.306490e-01
  -9.329239e+01   5.059089e+00
  -1.887530e+02   3.381638e+01
  -3.498813e+02  -6.196941e+01
  -3.056532e+02  -2.999062e+02
   4.485761e+01  -4.122302e+02
   3.237236e+02  -3.476527e+02
   4.526825e+02  -1.716730e+02
   3.032759e+02   1.105372e+02
   4.359447e+01   2.719972e+02
  -1.140993e+02   2.443869e+02
  -4.747451e+01   1.005332e+01
   1.078608e+02  -5.761143e+01
   1.626439e+02   1.153895e+01
   7.384777e+01   1.667972e+02
  -1.165698e+02   1.241630e+02
  -1.092204e+02  -6.546579e+01
   2.827204e+01  -1.363489e+02
   1.646170e+02  -2.731091e+01
   1.443749e+02   2.223063e+02
  -1.682165e+01   3.402701e+02
  -2.092738e+02   1.974724e+02
  -3.265413e+02  -5.613084e+01
  -2.638298e+02  -2.313105e+02
  -1.020690e+02  -2.719933e+02
   1.395697e+02  -1.465278e+02
   1.714199e+02  -1.117292e+01
   2.458189e+01   9.272740e+00
  -6.937050e+01  -3.808939e+01
  -1.859110e+01  -1.261201e+02
   1.018783e+02  -8.559651e+01
   1.718504e+02   3.674969e+01
   6.352808e+01   5.859474e+01
  -6.696289e+01  -9.533878e+00
  -4.861009e+01  -5.863052e+01
   9.574832e+01  -7.724526e+01
   2.353402e+02   2.135402e+01
   2.331717e+02   1.286617e+02
   6.144883e+01   2.236956e+02
  -1.493136e+02   2.280040e+02
  -2.670494e+02   1.246427e+02
  -1.766122e+02  -8.201691e+01
  -7.537140e+00  -1.331690e+02
   1.056396e+02   9.212670e+00
  -3.107814e+01   7.332202e+01
  -1.831646e+02   5.018518e+01
  -1.561684e+02  -1.088865e+02
  -7.828257e+01  -1.911173e+02
   7.760880e+01  -1.379440e+02
   1.713371e+02  -2.199030e+01
   6.009657e+01   4.740284e+01
  -2.151065e+01  -5.059087e+00
  -4.897098e+01  -5.701679e+01
   7.301436e+01  -1.099563e+02
   1.677155e+02   5.606093e-01
   1.834266e+02   1.167982e+02
  -1.483032e+01   2.023897e+02
  -1.406355e+02   1.274342e+02
  -1.683062e+02   4.136058e+00
  -5.512081e+01  -1.185276e+02
   3.415247e+01  -8.870920e+01
   5.253155e+01  -6.644401e+00
   2.947569e+01   4.658310e+01
  -1.284367e+01   1.395187e+01
   2.800741e+01  -1.140247e+01
   5.741760e+01   1.043809e+01
   8.438913e+01   6.899673e+01
   4.348196e+00   1.725905e+02
  -1.278440e+02   1.157531e+02
  -2.399336e+02   4.272182e+01
  -1.631084e+02  -1.534381e+02
  -6.269090e+01  -2.303869e+02
   1.203116e+02  -1.542947e+02
   1.385895e+02  -1.081611e+01
   9.462516e+01   7.186600e+01
   3.969119e+01   5.047834e+01
   3.865348e+01  -1.359207e+01
   6.841636e+01  -8.571032e+00
   1.335875e+01   4.242801e+01
  -3.411487e+01   8.337428e+01
  -6.850504e+01   6.359460e+01
  -4.007099e+01  -5.332345e+00
   8.166461e+00  -7.683566e+01
   1.535857e+02  -7.521314e+01
   1.858390e+02   5.080256e+01
   7.156609e+01   2.250553e+02
  -1.099121e+02   1.787479e+02
  -2.708786e+02   6.617031e+01
  -2.265285e+02  -1.203263e+02
  -1.048988e+02  -1.463980e+02
   3.654863e+01  -1.261040e+02
   8.463385e+01  -7.531720e+01
   7.069730e+01  -6.604762e+01
   8.693532e+01  -7.935510e+01
   9.150780e+01  -7.358674e+01
   1.522867e+02   3.579826e+00
   8.238944e+01   1.298357e+02
   3.424360e+01   2.101997e+02
  -9.526720e+01   1.395825e+02
  -1.699983e+02   2.912906e+01
  -1.273649e+02  -9.359035e+01
  -6.130203e+00  -1.663787e+02
   6.846142e+01  -6.784897e+01
   8.498967e+01  -2.712280e+01
  -4.503892e+00   4.778525e+01
  -8.301852e+00   4.365701e+01
   1.160379e+01   1.773596e+00
   6.659183e+01   2.171443e+01
   5.896932e+01   2.967050e+01
  -8.301575e+01   2.056192e+01
  -1.475553e+02   2.480208e+00
  -1.641773e+02  -5.243213e+01
  -2.830765e+01  -8.964604e+01
   1.127636e+02  -6.374816e+01
   1.036903e+02  -1.620039e+01
   4.251470e+01   3.532405e+01
  -2.780613e+01   4.314875e+01
  -8.394821e+01   9.295001e+00
  -3.106673e+01  -6.630542e+01
   4.474955e+01  -6.006007e+01
   6.206636e+01  -1.207931e+01
   6.559402e+01   5.665748e+01
   6.865570e+01   4.767694e+01
   5.356279e+01   2.068177e+01
   3.902367e+01  -3.187133e+01
   3.282281e+00   7.722117e+01
  -2.033161e+01   1.395591e+02
  -1.215903e+02   1.401344e+02
  -1.752180e+02   4.173529e+01
  -1.280743e+02  -7.853711e+01
  -3.187219e+01  -1.266034e+02
   1.188255e+02  -7.144872e+01
   9.999409e+01   3.666159e+01
  -6.530306e+01   2.229476e+01
  -1.038745e+02  -1.959737e+01
  -8.245214e+01  -8.669306e+01
   5.447793e+01  -1.054265e+02
   1.827931e+02  -5.951841e+01
   1.688298e+02   3.840401e+01
   2.082192e+01   5.655882e+01
  -6.246889e+01   4.793192e+01
  -4.133586e+01  -4.145586e+00
   5.371842e+01  -2.891070e+01
   1.135206e+02   5.326225e+01
   2.541289e+01   9.681859e+01
  -8.321675e+01   1.038390e+02
  -1.448830e+02   8.492623e+01
  -1.056108e+02  -7.135391e+01
  -2.446755e+01  -1.596015e+02
   9.418684e+01  -1.179617e+02
   1.060093e+02   2.704192e+01
   1.518412e+01   1.032452e+02
  -8.846983e-01   9.097644e+01
  -4.433498e+01  -9.086266e+00
  -3.550639e+01  -3.797322e+01
  -2.173780e+01  -3.118007e+00
  -1.403334e+01   4.616918e+00
  -4.046802e+01  -1.816799e+01
  -4.148102e+01  -8.214719e+01
  -1.950130e+01  -1.142297e+02
   5.979194e+01  -6.176279e+01
   1.548138e+02   4.174728e+01
   1.318433e+02   6.828716e+01
   1.883977e+01   5.848101e+01
  -8.004137e+01   1.572621e+01
  -9.973781e+01   1.471191e+01
   1.139014e+01   1.295162e+01
   5.043238e+01  -3.135845e+01
   2.611143e+01  -2.733513e+00
  -7.137342e+00  -6.274924e+00
  -1.511365e+01   3.258974e+00
   3.154970e+01   2.352754e+01
   8.485991e+01   2.372908e+01
   4.066125e+01   6.999255e+01
  -1.065680e+02   1.210167e+02
  -1.666976e+02   4.899797e+01
  -1.409696e+02  -6.483138e+01
  -3.888114e+01  -1.402474e+02
   6.228586e+01  -1.042296e+02
   9.312986e+01  -3.857977e+01
   5.328919e+01   2.461913e+01
   2.586224e+01   2.711445e+01
  -1.998629e+01   2.230780e+01
   3.433353e+01   2.674807e+01
   2.321860e+01   4.077419e+01
   1.884653e+01   8.177932e+01
  -1.620782e+01   9.392425e+01
  -8.999632e+01   2.213586e+00
  -9.134310e+01  -8.793261e+01
  -8.273665e+00  -1.056919e+02
   7.831062e+01  -3.435511e+01
   8.925114e+01   5.156832e+01
   2.763668e+01   9.680245e+01
  -5.447136e+01   4.754203e+01
  -1.202410e+02  -1.257298e+01
  -5.732631e+01  -5.970148e+01
   4.684416e+01  -6.119277e+01
   7.984552e+00  -4.353473e+01
  -5.625456e+01   1.189283e+01
  -5.117406e+01   2.666984e+01
  -9.134319e+00  -3.399282e+01
   7.029049e+01  -5.969591e+01
   1.125440e+02  -2.022714e+01
   6.237907e+01   3.329181e+01
  -3.464337e+01   1.115480e+02
  -5.723524e+01   5.499225e+01
  -3.183209e+01   3.260343e+00
   2.056830e+01  -4.422983e+01
   2.674409e+01  -3.433396e+01
   2.687711e+01  -7.189470e-01
   2.292543e+01   3.501099e+01
  -2.915492e+01   4.285190e+01
  -4.443473e+01  -1.486002e+01
  -3.214054e+01  -2.728473e+01
   1.402432e+01  -3.958409e+00
  -4.795697e+00   3.545409e+01
  -2.105111e+01  -1.222527e+01
  -2.261356e+01  -2.005981e+01
  -6.122708e-01  -7.013344e+01
   3.614438e+01  -1.509419e+01
   4.731861e+01   2.090624e+01
   2.981394e+01   6.114250e+01
  -5.741811e+00   4.499453e+01
  -5.587462e+01  -1.803471e+01
  -1.929542e+01  -8.007246e+01
   4.597969e+01  -2.999365e+01
   9.466865e+01   1.502468e+01
   4.509811e+01   5.529115e+01
  -5.521776e+01   5.179555e+01
  -8.910305e+01   2.115059e+01
  -1.858727e+01   1.828584e+01
   1.905588e+01  -2.480399e+01
   2.785554e+01  -2.023094e+01
  -1.282183e+01   9.804175e+00
  -1.307376e+02   4.986703e+01
