
 $NMID
 id='ANONYMOUS ', fmtdat='(2E16.6)'
 volume=1.0
 tramp=1.0
 $END
   4.087749e+03   2.706339e+02
   2.156938e+03   2.231489e+03
  -4.897355e+02   2.458991e+03
  -1.736641e+03   8.051007e+02
  -8.098086e+02  -4.407306e+02
   4.701238e+02  -3.226628e+02
   7.177979e+02   4.464535e+02
  -1.609600e+01   9.673045e+02
  -7.258281e+02   6.816087e+02
  -7.651369e+02  -5.321429e+01
  -4.037540e+02  -7.433143e+02
   2.461947e+02  -8.054251e+02
   5.205459e+02  -9.053189e+01
   3.521103e+02   6.467742e+02
  -2.424423e+02   7.379134e+02
  -5.332208e+02   1.631414e+01
  -2.886528e+02  -6.127337e+02
   1.943228e+02  -6.740059e+02
   4.961019e+02  -1.631064e+02
   4.087264e+02   2.790972e+02
   7.017254e+01   3.948563e+02
  -2.527376e+02   2.446241e+02
  -1.757574e+02   3.251292e+01
   1.070820e+02  -2.470039e+01
   4.296846e+02   1.402383e+02
   1.842663e+02   4.486015e+02
  -4.463971e+02   3.297224e+02
  -8.336263e+02  -1.617772e+02
  -3.765220e+02  -5.264068e+02
   3.831507e+02  -4.461492e+02
   6.514272e+02   7.568759e+01
   3.645286e+02   4.590962e+02
  -2.501635e+02   4.761556e+02
  -4.950000e+02   2.110823e+02
  -3.423079e+02  -1.930593e+02
  -4.649733e+01  -4.332797e+02
   1.849004e+02  -2.693240e+02
   8.212222e+01   2.034926e+02
  -1.754973e+02   3.635215e+02
  -3.590917e+02  -5.744933e+01
  -1.114391e+02  -6.574092e+02
   3.753923e+02  -5.921342e+02
   5.512488e+02   7.000045e+01
   1.897907e+02   5.460080e+02
  -2.713462e+02   2.583167e+02
  -3.197643e+02  -3.178443e+02
   7.765538e+01  -4.937769e+02
   4.694064e+02  -1.455414e+02
   5.775396e+02   3.667596e+02
   1.782000e+02   5.306641e+02
  -3.255534e+02   2.973648e+02
  -5.896016e+02  -1.597763e+01
  -3.765714e+02  -3.335051e+02
   1.415762e+02  -3.005956e+02
   3.801891e+02  -3.256025e+01
   2.086295e+02   1.031162e+02
  -8.363750e+01   1.021931e+02
  -1.195820e+02  -1.502875e+02
   1.271846e+02  -1.581024e+02
   3.468458e+02   7.792586e+01
   1.123660e+02   2.538029e+02
  -1.761104e+02   2.444317e+02
  -3.144483e+02   1.208285e+02
  -2.426214e+02  -7.987684e+01
  -2.439257e+01  -3.035691e+02
   2.009898e+02  -3.496500e+02
   4.054295e+02  -1.653321e+02
   2.754220e+02   1.913700e+02
  -1.464339e+01   4.269335e+02
  -1.307893e+02   3.363039e+02
  -1.013327e+02   1.128653e+02
  -1.571618e+01   3.404082e+01
  -8.037954e+00   1.015288e+02
  -1.863868e+02   1.193637e+02
  -3.171263e+02  -7.065454e+01
  -1.479008e+02  -2.932547e+02
   8.608691e+01  -2.554342e+02
   2.316334e+02  -4.873641e+00
   2.002804e+02   2.211300e+02
  -4.315781e+01   2.694633e+02
  -2.981803e+02   1.152455e+02
  -3.295843e+02  -1.706031e+02
  -1.805205e+02  -3.479124e+02
   1.412075e+02  -2.697991e+02
   2.170379e+02  -1.205413e+02
   1.809745e+02  -2.900307e+01
   9.326652e+01  -2.352900e+01
   2.110334e+02  -3.593887e+01
   3.744276e+02   8.753703e+01
   3.389829e+02   2.893351e+02
  -5.599538e+01   4.726487e+02
  -3.643020e+02   3.784832e+02
  -4.866625e+02   2.131559e+02
  -3.117397e+02  -9.783344e+01
  -2.970388e+01  -2.478347e+02
   1.063068e+02  -2.195471e+02
   2.284191e+01  -4.387606e+00
  -1.382536e+02   8.401505e+01
  -2.057153e+02  -4.863022e+01
  -2.240373e+01  -1.811927e+02
   1.465913e+02  -1.591110e+02
   1.602989e+02   6.466160e+01
  -2.461501e+01   1.606624e+02
  -1.576866e+02  -6.702483e+00
  -1.308054e+02  -2.376941e+02
   5.456947e+01  -3.190797e+02
   1.958450e+02  -2.066681e+02
   3.218321e+02   3.643379e+01
   3.191237e+02   2.747964e+02
   4.483955e+01   2.795804e+02
  -1.423976e+02   1.227398e+02
  -1.917765e+02   1.252821e+01
  -7.322374e+01  -6.273880e+01
   9.067086e+01   6.393010e+01
   1.562421e+01   1.547899e+02
  -1.099163e+02   9.328425e+01
  -1.958994e+02  -2.713226e+01
  -9.072812e+01  -8.622010e+01
   1.087427e+02  -2.713209e+01
   4.102800e+01   9.691669e+01
  -1.157867e+02   7.879532e+01
  -2.697373e+02   1.407344e+01
  -2.695810e+02  -1.155422e+02
  -7.246334e+01  -2.848146e+02
   1.998121e+02  -2.730565e+02
   3.106563e+02  -1.310604e+02
   1.543076e+02   8.083202e+01
  -2.529253e+01   8.222794e+01
  -1.025007e+02  -6.673447e+00
   7.519565e+01  -1.127163e+02
   1.893752e+02  -3.752797e+01
   2.133187e+02   1.294470e+02
   2.914728e+01   2.060525e+02
  -9.024735e+01   1.604227e+02
  -1.538950e+02   1.053563e+01
  -6.421009e+01  -3.140535e+01
   3.302898e+01  -4.618997e+00
   3.468204e+01   7.432361e+01
  -9.859056e+01   1.368203e+02
  -1.951271e+02   2.258626e+01
  -1.921544e+02  -1.160700e+02
  -3.443012e+01  -2.467922e+02
   1.451137e+02  -1.634543e+02
   1.898811e+02   1.942893e+01
   6.860803e+01   1.264537e+02
  -5.563993e+01   1.199740e+02
  -1.364415e+02   4.035123e+01
  -2.750469e+01  -4.198660e+01
   3.413343e+01  -2.895571e+01
   1.130361e+01   2.278835e+01
  -6.709628e+01   2.637037e+01
  -1.169333e+02  -7.153140e+01
  -4.709158e+01  -1.866043e+02
   1.219031e+02  -1.168451e+02
   2.288318e+02  -3.734898e+01
   1.850078e+02   1.478862e+02
   5.185715e+01   2.023879e+02
  -9.889386e+01   1.813294e+02
  -1.350731e+02   3.699700e+00
  -8.343520e+01  -8.295416e+01
  -1.168042e+01  -5.839476e+01
  -6.199328e+01   1.431695e+01
  -9.056710e+01   2.183349e+01
  -4.133052e+01  -5.180104e+01
   2.544197e+01  -1.198612e+02
   9.958412e+01  -8.373758e+01
   7.897557e+01   2.544126e+01
   6.646586e+00   1.071216e+02
  -1.470446e+02   9.813195e+01
  -1.927823e+02  -5.420493e+01
  -6.484091e+01  -1.968934e+02
   1.007255e+02  -2.524581e+02
   2.396262e+02  -7.565229e+01
   2.247597e+02   9.348666e+01
   1.204904e+02   1.791462e+02
  -4.486844e+01   1.443521e+02
  -1.035380e+02   7.654578e+01
  -5.668820e+01   7.803445e+01
  -7.947853e+01   9.078010e+01
  -6.807354e+01   7.895079e+01
  -1.381407e+02  -1.504381e+01
  -9.452484e+01  -1.531372e+02
  -6.164353e+01  -2.139906e+02
   1.010941e+02  -1.787109e+02
   1.700456e+02  -4.150381e+01
   1.634133e+02   1.241451e+02
   2.821433e+01   1.550621e+02
  -5.785370e+01   8.634051e+01
  -6.510684e+01  -2.657002e+01
   3.556972e+00  -3.211017e+01
   2.998978e+01  -5.162433e+01
  -1.145230e+01  -2.193190e+01
  -9.222682e+01  -5.584359e+00
  -2.715900e+01  -2.926799e+01
   4.301458e+01  -2.783203e+01
   1.825394e+02   9.427436e-01
   1.478355e+02   5.135658e+01
   1.100073e+01   8.914634e+01
  -1.054747e+02   8.252686e+01
  -1.296565e+02   4.802034e+00
  -4.619154e+01  -4.414858e+01
   5.363861e+01  -5.031349e+01
   6.474323e+01   1.699502e+01
   1.831601e+01   7.344041e+01
  -2.298072e+01   5.835763e+01
  -9.089036e+01   2.584216e+00
  -7.905252e+01  -2.099953e+01
  -3.203847e+01  -6.220988e+01
  -2.253930e+01   6.891595e-02
  -7.022271e+01   3.607587e+00
  -3.615847e+01  -6.161418e+01
   2.176966e-01  -1.535540e+02
   8.427972e+01  -1.786836e+02
   1.663544e+02  -5.354126e+01
   1.140770e+02   6.700535e+01
   1.817122e+00   1.456768e+02
  -1.017385e+02   8.442329e+01
  -4.277014e+01   7.575721e+00
   4.683560e+01   4.735811e+00
   1.322849e+02  -2.699410e-01
   6.420200e+01   1.014970e+02
  -8.091361e+01   1.420649e+02
  -2.162297e+02   2.790407e+01
  -1.661456e+02  -4.522671e+01
  -1.736717e+01  -8.032203e+01
   4.511541e+01  -3.063588e+01
   2.591949e+01  -3.450357e+01
  -1.717732e+01   6.148380e+01
  -7.882026e+01  -3.346306e+01
  -2.799903e+01  -7.598466e+01
   1.240499e+02  -1.531269e+02
   1.816126e+02  -8.339010e+01
   1.434062e+02   9.397270e+01
   1.960324e+01   1.848079e+02
  -9.358842e+01   1.408813e+02
  -1.028201e+02   1.627609e+01
  -7.559329e+01  -1.096489e+02
  -3.588653e+01  -1.205071e+02
   8.166120e+01  -2.159846e+01
   5.774890e+01   5.525429e+01
   2.367959e+01   2.306394e+01
  -5.043548e+00  -3.123301e+01
   1.963190e+01  -1.786446e+01
   7.354873e+01   8.319911e+01
   7.187610e+00   1.370036e+02
  -3.001658e+01   4.716788e+01
  -1.509275e+02  -6.735380e+00
  -1.162721e+02  -6.329937e+01
  -2.134330e+01  -5.777513e+01
   7.876409e+01  -6.060960e+01
   9.064268e+01  -8.598845e-01
   1.283511e+00   1.122512e+01
  -6.209561e+01   4.327906e+01
  -2.215228e+01   1.600618e+01
   2.980808e+01  -1.953317e+01
   1.158398e+00  -1.503912e+00
  -5.400285e+01  -7.165301e+00
  -1.051564e+02  -4.563178e+00
  -1.555048e+01  -8.206530e+01
   9.228938e+01  -1.392869e+02
   1.719318e+02  -4.745966e+01
   1.329935e+02   6.438127e+01
   3.331312e+01   1.469628e+02
  -6.297932e+01   1.344844e+02
  -9.826864e+01   5.567559e+01
  -8.713838e+01   2.142843e+00
  -4.203515e+01  -3.486131e+01
   3.717609e+00   1.370450e+01
  -3.164135e+01  -1.629942e+01
  -3.836174e+01  -5.175974e+01
  -4.750297e+00  -8.428483e+01
   3.624017e+01  -5.512227e+01
   6.094805e+01   4.068952e+00
   6.341622e+01   1.315506e+02
   2.732014e+01   7.444302e+01
  -6.522679e+01   2.779293e+01
  -1.154560e+02  -7.202606e+01
  -2.794682e+01  -1.037672e+02
   3.760998e+01  -6.326230e+01
   9.619392e+01  -8.754583e-01
   3.518998e+01   3.505809e+01
  -4.667129e+00   4.621227e+01
  -4.967765e+01   3.858785e+01
   4.481397e+01  -3.655323e-01
   5.296606e+01  -1.709947e+01
   8.175148e+00   3.593958e+01
  -8.639907e+01   5.854666e+01
  -8.730210e+01   6.812594e+01
  -7.977069e+01  -3.259336e+01
   3.817579e+01  -6.820245e+01
   5.085085e+01  -5.160120e+01
   5.855937e+01   4.683372e+01
  -1.981852e+00   4.883700e+01
  -4.705357e+01   4.085168e+01
  -1.890780e+01  -2.940694e+01
  -1.234327e+01  -3.915110e+01
  -2.038808e+01  -1.024500e+01
   3.706620e+01   2.878991e+01
   3.660167e+01   4.435954e+00
   1.119626e+01  -2.936864e+01
   1.123143e+01  -9.192697e+00
  -6.027072e+00  -1.393875e+00
  -1.131708e+01   2.337294e+01
   1.434619e+01   4.491786e+01
  -1.552131e+01  -2.754067e+01
  -4.894009e+01  -7.282549e+01
  -1.653801e+01  -8.168872e+01
   4.843812e+01  -3.338266e+01
   8.017394e+01   3.995464e+01
   2.812531e+01   3.421112e+01
  -4.548958e+01   1.998169e+01
  -1.020552e+02  -2.112309e+00
  -5.467858e+01  -3.409708e+01
   4.787564e+01  -5.276540e+01
   6.529989e+01  -3.632360e+01
   2.965742e+01  -2.912415e+00
  -2.603492e+01   1.072197e+01
  -1.226983e+01  -3.579889e+01
   1.114192e+01  -2.328140e+01
   9.232579e+01  -3.483287e+01
