
 $NMID
 id='ANONYMOUS ', fmtdat='(2E16.6)'
 volume=1.0
 tramp=1.0
 $END
  -3.821821e+03  -2.717486e+02
  -2.276267e+03  -2.041415e+03
   4.489701e+02  -2.483119e+03
   1.475446e+03  -1.080778e+03
   7.615119e+02   1.352272e+02
  -3.713262e+02   1.666765e+02
  -5.601368e+02  -3.192955e+02
   7.134918e+01  -7.560263e+02
   6.036610e+02  -6.188908e+02
   7.139365e+02  -3.207672e+01
   3.766753e+02   6.532282e+02
  -8.889618e+01   7.173915e+02
  -4.487759e+02   9.229601e+01
  -2.855458e+02  -5.820093e+02
   1.901149e+02  -6.569688e+02
   4.800351e+02  -4.281473e+00
   2.964239e+02   5.295342e+02
  -1.469823e+02   6.701144e+02
  -4.741737e+02   1.875193e+02
  -4.236952e+02  -2.403930e+02
  -6.263155e+01  -3.452046e+02
   1.953980e+02  -2.084715e+02
   1.078650e+02  -2.473803e+01
  -1.723227e+02  -3.059353e+01
  -3.243252e+02  -2.200457e+02
  -9.183926e+01  -4.705846e+02
   4.680370e+02  -2.330571e+02
   7.220408e+02   2.009950e+02
   2.648665e+02   5.346118e+02
  -3.344075e+02   3.493902e+02
  -6.192297e+02  -1.238757e+02
  -2.584212e+02  -4.518124e+02
   2.796061e+02  -4.506248e+02
   4.506258e+02  -1.339522e+02
   3.484191e+02   1.784116e+02
   6.742175e+01   4.025184e+02
  -1.391684e+02   2.023054e+02
  -1.504712e+01  -1.786442e+02
   1.878452e+02  -2.617410e+02
   3.304978e+02   1.519773e+02
  -9.242176e-01   6.105472e+02
  -4.059940e+02   5.067209e+02
  -4.555516e+02  -1.120560e+02
  -1.339472e+02  -4.755755e+02
   2.378855e+02  -1.758117e+02
   2.563382e+02   3.271327e+02
  -1.225027e+02   4.116734e+02
  -4.678006e+02   6.531632e+01
  -5.388579e+02  -4.003249e+02
  -1.923411e+02  -5.348096e+02
   3.332327e+02  -2.873578e+02
   5.478502e+02   2.561383e+01
   3.558127e+02   3.085034e+02
  -1.026882e+02   2.837102e+02
  -3.458733e+02   6.580172e+01
  -2.126976e+02  -1.100710e+02
   6.783257e+01   1.652722e+01
   7.293454e+01   1.102300e+02
  -1.456686e+02   9.269805e+01
  -2.898453e+02  -7.403069e+01
  -1.603664e+02  -2.403476e+02
   1.860242e+02  -2.315724e+02
   2.797899e+02  -7.397445e+01
   2.414913e+02   7.192066e+01
   2.056182e+01   3.137665e+02
  -2.301574e+02   3.730401e+02
  -3.704286e+02   1.948229e+02
  -2.412234e+02  -1.952517e+02
  -5.012033e+01  -4.028272e+02
   6.110351e+01  -2.965798e+02
   3.376196e+01  -1.498557e+02
   4.091747e+00  -7.434133e+01
   2.956699e+01  -9.845297e+01
   2.013856e+02  -1.311110e+02
   2.763370e+02   6.252864e+01
   1.389307e+02   2.532223e+02
  -9.963798e+01   2.350019e+02
  -2.189621e+02  -4.744836e+01
  -1.715191e+02  -2.381470e+02
   3.042068e+01  -2.747988e+02
   2.786405e+02  -7.469135e+01
   2.948715e+02   1.896403e+02
   1.604266e+02   3.268377e+02
  -9.234244e+01   2.864234e+02
  -1.968275e+02   1.327541e+02
  -1.617907e+02   1.803541e+01
  -8.911282e+01   5.198969e+01
  -2.401118e+02   3.852016e+01
  -3.826302e+02  -9.880903e+01
  -3.268004e+02  -3.002448e+02
  -6.559258e+00  -4.522153e+02
   3.134402e+02  -4.091410e+02
   4.686064e+02  -2.064491e+02
   2.976297e+02   6.864660e+01
   2.838105e+01   2.705363e+02
  -1.400217e+02   1.778083e+02
   3.703100e+00   7.299133e+00
   1.372507e+02  -5.044161e+01
   1.807887e+02   7.167917e+01
   8.529222e+00   1.831833e+02
  -1.556162e+02   9.204999e+01
  -1.354347e+02  -6.818592e+01
   3.560465e+01  -1.128575e+02
   1.995260e+02   5.308827e+00
   1.282851e+02   2.438154e+02
  -6.520990e+01   3.358318e+02
  -1.931970e+02   1.880535e+02
  -3.254863e+02  -5.335901e+01
  -3.321842e+02  -2.571973e+02
  -6.563150e+01  -2.829117e+02
   1.103295e+02  -1.630138e+02
   1.650241e+02  -1.003154e+01
   7.144987e+01   5.566682e+01
  -3.257299e+01  -8.449162e+01
  -3.101106e+01  -1.437672e+02
   1.307317e+02  -9.323926e+01
   1.518452e+02   2.803452e+01
   7.815379e+01   2.359127e+01
  -8.826925e+01   1.418902e+01
  -3.544332e+01  -7.175398e+01
   1.196387e+02  -9.507751e+01
   2.801791e+02   1.059875e+01
   2.523243e+02   1.151021e+02
   3.095504e+01   2.213295e+02
  -1.892010e+02   2.434639e+02
  -3.184939e+02   1.036636e+02
  -1.311164e+02  -7.069421e+01
   9.281117e+00  -1.034337e+02
   1.046315e+02   1.599311e+01
  -6.566994e+01   6.208285e+01
  -1.962266e+02   2.110922e+01
  -1.867215e+02  -1.443507e+02
  -3.652837e+01  -2.179947e+02
   7.303767e+01  -1.637109e+02
   1.223503e+02  -3.475276e+01
   4.899247e+01   2.704831e+01
  -4.932894e+01   1.360806e+01
  -5.590258e+01  -9.083679e+01
   8.581484e+01  -1.196539e+02
   1.864546e+02  -4.825777e+01
   1.717134e+02   1.273851e+02
   2.896324e+01   2.000160e+02
  -1.283249e+02   1.523295e+02
  -1.616627e+02   9.295077e+00
  -4.246265e+01  -8.272315e+01
   5.271002e+01  -1.041747e+02
   9.777170e+01  -2.349902e+01
   4.609971e+00   6.824590e+01
  -8.122016e+00   1.930599e+01
  -1.086391e+01   2.276458e+00
   8.914513e+01  -3.042803e+01
   1.189005e+02   8.031045e+01
   1.034634e-01   1.527680e+02
  -1.166560e+02   1.493212e+02
  -2.103274e+02   1.236383e+01
  -2.225411e+02  -1.360128e+02
  -5.686732e+01  -2.238205e+02
   8.724299e+01  -1.894830e+02
   1.401959e+02  -2.515162e+01
   9.415111e+01   4.435459e+01
   2.500012e+01   7.222951e+01
   2.333858e+01  -1.013432e+01
   8.500899e+01  -2.228954e+01
   6.006181e+01   4.462362e+01
  -2.753182e+01   1.120347e+02
  -8.088053e+01   8.656286e+01
  -9.839628e+01  -3.395185e+01
  -9.148484e+00  -1.428743e+02
   1.582196e+02  -1.058111e+02
   2.153309e+02   8.182780e+01
   9.590465e+01   2.534689e+02
  -1.450361e+02   2.316185e+02
  -2.401833e+02   7.480281e+01
  -2.475359e+02  -1.005932e+02
  -1.143687e+02  -1.827204e+02
   2.956805e+01  -1.480356e+02
   1.122891e+02  -7.150679e+01
   8.627570e+01  -4.977226e+01
   4.008285e+01  -1.200712e+02
   9.408855e+01  -1.313345e+02
   1.276379e+02   1.601839e+01
   1.325153e+02   1.277112e+02
   1.631634e+00   2.020193e+02
  -9.225951e+01   1.454197e+02
  -1.554477e+02  -1.918661e+00
  -1.573169e+02  -1.312900e+02
  -2.835028e+01  -1.522508e+02
   5.928947e+01  -9.224867e+01
   9.367707e+01   1.198458e+01
  -7.279448e-01   4.646849e+01
  -1.194265e+01   5.836521e+01
   2.363747e+01  -1.829756e+01
   1.118696e+02   9.319619e+00
   4.608029e+01   4.882591e+01
  -4.581862e+01   6.842180e+01
  -1.668213e+02   1.341209e+01
  -1.591474e+02  -5.288956e+01
  -1.151785e+01  -8.360237e+01
   1.152051e+02  -4.183979e+01
   1.412086e+02   1.042904e+01
   5.643241e+01   2.753702e+01
  -4.188453e+01   4.291295e+01
  -5.443815e+01  -3.085279e+01
  -1.622731e+01  -1.064015e+02
   2.944328e+01  -6.790745e+01
   9.538224e+01  -2.872475e-01
   6.425027e+01   4.692070e+01
   3.754022e+01   3.782511e+01
   3.132681e+01   2.250556e+01
   6.610145e+01  -4.980411e+00
   3.918706e+01   3.804677e+01
  -5.774026e+00   1.516788e+02
  -9.386249e+01   1.383566e+02
  -1.854151e+02   1.755123e+01
  -1.385670e+02  -5.590535e+01
  -2.397278e+01  -1.115738e+02
   8.073758e+01  -6.369468e+01
   8.308170e+01   8.520022e+00
  -7.358833e+01   5.028470e+00
  -1.484484e+02  -4.629840e+01
  -1.040762e+02  -1.178689e+02
   9.211249e+01  -1.308016e+02
   1.832458e+02  -4.930977e+01
   1.765744e+02   3.682295e+01
   4.976606e+01   8.613277e+01
  -3.791650e+01   7.998573e+01
  -3.451986e+01   2.131437e+01
   2.809303e+01  -1.751050e+01
   7.038163e+01   2.631293e+01
   5.305800e+01   1.097515e+02
  -8.312106e+01   1.389669e+02
  -1.584379e+02   8.223571e+01
  -9.162324e+01  -9.604738e+01
  -6.345921e-01  -1.901652e+02
   6.146855e+01  -1.504194e+02
   1.130956e+02   3.268362e+00
   4.623276e+01   1.197370e+02
  -1.633329e+01   1.031117e+02
  -6.503255e+01   3.626300e+00
  -5.142026e+01  -1.057644e+01
  -3.284546e+01  -4.737431e+01
  -4.332597e+00   4.405164e+01
  -1.741091e+00   2.379200e+00
  -1.813067e+01  -7.522021e+01
  -2.845099e+01  -1.316803e+02
   2.907977e+01  -3.517170e+01
   1.581028e+02   3.259638e+01
   1.241089e+02   9.863777e+01
   2.412412e+01   6.403920e+01
  -7.411874e+01   5.430877e+01
  -1.031644e+02  -1.657899e+01
   1.067509e+01  -1.248006e+01
   4.280560e+01  -2.356875e+01
   2.808511e+01   3.377740e+00
  -5.207683e+00   9.659870e+00
   1.998821e+01   1.681385e+00
   6.368520e+01   1.553162e+01
   9.920384e+01   3.467394e+01
   1.897292e+01   7.550175e+01
  -1.235392e+02   1.320299e+02
  -1.516946e+02   8.716501e+01
  -1.361937e+02  -3.473679e+01
  -3.831368e+01  -1.661780e+02
   7.126268e+01  -1.316187e+02
   1.037906e+02  -6.734640e+01
   6.962868e+01  -1.194552e+01
   1.463552e+01  -1.767551e+00
   1.856737e+01   3.233762e+00
   1.675631e+00   3.111875e+01
   2.543012e+01   1.520662e+01
   1.541347e+01   9.049995e+01
  -2.423785e+01   4.728867e+01
  -1.022589e+02  -2.403864e+01
  -2.587202e+01  -1.006756e+02
  -4.578359e+01  -1.253543e+02
   4.313809e+01  -4.460747e+01
   9.183733e+01   5.581808e+01
   4.695846e+01   8.912644e+01
  -1.921761e+01   6.892056e+01
  -8.113919e+01   1.932585e+01
  -3.348552e+01  -5.561467e+01
   2.199861e+01  -7.303044e+01
   4.278822e+01  -6.616914e+01
   8.540983e+00  -4.006786e+00
  -5.568425e+01  -1.011428e+01
   1.234035e+01  -4.395839e+01
   1.122096e+02  -7.646421e+01
   1.333405e+02  -5.838952e+01
   6.450535e+01   1.332303e+01
  -3.009665e+01   1.165976e+02
  -6.023972e+01   7.347704e+01
  -2.768467e+01  -1.201603e+01
  -2.155948e+01  -3.635990e+01
   1.391634e+01  -4.547264e+01
  -4.423105e+00   3.507534e+01
  -6.005938e+00   7.275904e+01
  -3.902735e+00   1.251192e+01
  -1.648289e+01  -2.133720e+01
  -5.148121e+01  -3.311285e+01
   6.009300e+00   1.475094e+01
  -5.414944e+00   6.033907e+00
   2.024013e+01   3.194509e+01
  -1.752322e+01  -4.961986e+01
  -4.446074e+00  -6.221764e+01
   4.321405e+01  -1.632445e+01
   3.108894e+01   3.592471e+01
   2.321137e+01   7.235288e+01
  -5.002994e+01   6.504952e+01
  -6.871296e+01  -2.091007e+01
  -4.046320e+01  -7.883987e+01
   2.668113e+01  -6.310420e+01
   6.700400e+01  -1.667558e+01
   4.254312e+01   1.638608e+01
  -3.727042e+01   5.496589e+01
  -6.622833e+01   1.730803e+01
  -1.638621e+01  -8.317285e+00
   5.740452e+01  -1.974896e+01
   4.003777e+01   1.542865e+01
  -2.839559e+01   4.067405e+01
  -8.226869e+01   4.627169e+01
