
 $NMID
 id='ANONYMOUS ', fmtdat='(2E16.6)'
 volume=1.0
 tramp=1.0
 $END
   1.194299e+03   1.288726e+02
   7.859652e+02   6.044907e+02
   2.099018e+02   9.184942e+02
  -3.606231e+02   7.918796e+02
  -5.074658e+02   4.171769e+02
  -2.884649e+02   5.021403e+01
   5.376749e+01  -1.345402e+02
   5.321026e+01   1.398087e+02
   8.461465e+00   2.153380e+02
  -2.318178e+02   1.769298e+02
  -2.472097e+02  -1.128717e+02
  -7.699138e+01  -2.979278e+02
   9.940830e+01  -1.969958e+02
   1.367122e+02   7.548741e+01
  -2.666731e+01   2.298574e+02
  -1.970256e+02   9.623735e+01
  -1.975153e+02  -1.871820e+02
  -4.489922e+01  -2.944082e+02
   2.599653e+02  -2.318697e+02
   2.114711e+02  -2.712402e+01
   1.402459e+02   1.773348e+02
  -2.928963e+01   1.748258e+02
  -4.092203e+01   4.834375e+01
   4.717980e+01   8.969239e+01
   7.789444e+01   1.269685e+02
  -1.512801e+00   1.434298e+02
  -2.202640e+02   2.766741e+01
  -2.245853e+02  -5.256613e+01
  -9.089012e+01  -1.207470e+02
   1.017816e+02  -8.622989e+01
   1.575627e+02   9.291091e+01
   7.356413e+01   1.573649e+02
  -1.124231e+02   5.431978e+01
  -1.406271e+02   4.105428e+01
  -1.173033e+02  -3.922808e+01
  -7.613071e+01  -1.206843e+02
  -3.094032e+01  -5.724151e+01
  -6.150434e+01  -4.313636e+00
  -1.278107e+02  -9.820732e+00
  -2.040997e+01  -9.864432e+01
   1.005473e+02  -1.516745e+02
   1.305304e+02  -1.239991e+02
   1.196530e+02  -1.908977e+01
   6.269182e+01   8.186366e+01
   8.162637e+00   4.439102e+01
  -2.006494e+01  -2.805661e+01
   7.549759e+01  -8.316327e+01
   1.906408e+02   4.009750e+01
   1.894163e+02   1.094843e+02
   6.551545e+01   2.526695e+02
  -1.176008e+02   1.282158e+02
  -2.195364e+02  -4.110522e+01
  -1.453092e+02  -1.040720e+02
  -2.440673e+01  -1.210546e+02
   1.176858e+02  -5.720953e+01
   1.037881e+02  -2.303037e+01
   5.416069e+01  -2.028262e+01
   5.612437e+01   4.501325e+00
   2.481536e+01   1.621402e+01
   8.480618e+01   7.401963e+00
   3.554043e+01   4.622450e+01
  -4.044544e+01   1.432852e+02
  -2.231780e+02   1.412716e+02
  -1.531422e+02  -6.923624e+01
   1.441270e+01  -1.957168e+02
   1.333539e+02  -1.934712e+02
   2.025919e+02  -7.707374e+01
   5.892127e+01   7.562612e+01
   1.294731e+01   1.401641e+02
  -1.353459e+01   1.023918e+02
  -1.628146e+01   1.072193e+02
  -4.194689e-01   7.511446e+01
  -1.064077e+02   9.297134e+01
  -1.243246e+02  -1.237137e+01
  -9.130574e+01  -8.879064e+01
  -5.352824e+01  -7.998238e+01
   4.188716e+01  -8.196474e+01
   6.626610e+01   5.779804e+00
   7.863066e+01   1.095600e+02
  -1.546405e+01   8.594508e+01
  -9.948395e+01  -3.707933e+00
  -1.660558e+02  -7.863046e+01
  -7.267158e+01  -1.365247e+02
   2.033626e+01  -1.038394e+02
   5.542096e+01  -7.272747e+01
   6.267944e+01  -3.827219e+01
   6.869610e+01  -2.656600e+01
   1.558338e+02  -1.608334e+00
   1.982117e+02   8.444184e+01
   1.575562e+02   1.579928e+02
  -7.069070e+01   2.149011e+02
  -2.250328e+02   1.465846e+02
  -2.617587e+02   5.792911e+01
  -1.655045e+02  -4.312304e+01
  -1.066184e+01  -1.335329e+02
   2.563255e+01  -7.418672e+01
  -1.760029e+00  -6.281856e+01
  -7.349031e+01  -8.452986e+00
  -3.489791e+01  -2.633923e+01
  -2.452352e+00  -6.425209e+01
   4.562861e+01  -1.823464e+01
   3.617717e+01  -1.736165e+01
  -5.089604e+00   5.774367e+01
  -7.668587e+01  -6.673214e+00
  -8.795815e+01  -1.041310e+02
   4.391603e+01  -1.438053e+02
   1.077584e+02  -1.068388e+02
   1.959291e+02   4.381839e+01
   1.321428e+02   1.293332e+02
   4.025137e+01   1.242993e+02
  -3.839185e+01   1.108039e+02
  -6.227138e+01  -1.686522e+01
  -2.286260e+01  -1.386406e+01
  -2.598557e+00   3.109340e+01
  -3.135151e+01   3.755312e+01
  -4.778535e+01   4.838192e+01
  -5.961975e+01  -1.765946e+01
  -3.027298e+01   8.964244e+00
   1.882405e+01   2.686904e+01
  -6.136037e+00   7.070173e+01
  -5.924442e+01   4.079244e+01
  -1.462822e+02  -1.315466e+01
  -1.269779e+02  -1.138126e+02
   1.207050e+01  -1.396153e+02
   1.122632e+02  -1.031103e+02
   1.647739e+02  -5.393946e+01
   3.683506e+01   5.074844e+00
  -5.051869e+00   5.597859e+01
  -4.032341e+00  -6.394328e+00
  -1.866101e+01  -5.318186e+01
   7.608876e+01   8.818619e+00
   9.381213e+01   5.681081e+01
   2.449768e+01   6.459398e+01
  -5.414471e+01   6.973730e+01
  -5.711249e+01  -3.602117e+00
  -2.981630e+01  -2.852902e+01
   1.253662e+01   9.020544e+00
   1.579941e+01   6.569432e+01
  -3.997698e+01   7.453989e+01
  -1.112296e+02  -3.441660e+01
  -7.536622e+01  -1.142969e+02
   2.388483e+01  -8.358299e+01
   9.346678e+01  -8.311787e+01
   5.288366e+01   1.443275e+01
  -1.313273e+00   5.104211e+01
  -7.916413e+00   2.835719e+01
  -3.164710e+01   1.431804e+01
   9.230101e+00   3.569072e+00
   1.661599e+00  -1.196871e+01
   3.917476e+00   5.104179e+01
  -8.744557e+01   1.586406e+01
  -7.296466e+01  -3.368128e+01
   1.579493e+01  -1.101741e+02
   8.690655e+01  -8.076230e+01
   1.204239e+02   2.407089e+00
   8.205109e+01   7.615102e+01
   1.928663e+01   9.036784e+01
  -4.792261e+01   7.709741e+01
  -6.640190e+01  -9.514020e+00
  -2.729193e+01  -4.945763e+00
  -2.717820e+01  -1.877164e+00
  -7.749398e+00   1.985698e+01
  -2.763342e+01   6.229218e+00
  -4.536903e+01  -9.878974e+00
   1.335487e+01  -7.679959e+01
   4.810006e+01  -5.114006e+01
   6.051562e+01   2.489709e+01
   7.591349e+00   3.087701e+01
  -7.960628e+01   2.739091e+01
  -6.959074e+01  -5.860333e+00
  -3.505713e+01  -1.141137e+02
   5.446481e+01  -8.995495e+01
   1.369128e+02  -5.787690e+01
   1.138962e+02   4.153380e+01
   5.613388e+01   1.059618e+02
  -9.343515e+00   5.106814e+01
  -4.285435e+01   5.408326e+01
  -3.188469e+01   3.368834e+01
  -3.189399e+01   4.890096e+01
  -3.172608e+01   1.019954e+01
  -6.620945e+01   5.124184e+00
  -7.349904e+01  -8.105351e+01
  -3.144708e+01  -1.348128e+02
   8.993690e+01  -1.270102e+02
   5.339543e+01   2.216300e+01
   5.669120e+01   5.906963e+01
   8.301138e+00   9.011993e+01
  -5.042794e+01   1.862353e+01
  -6.076528e+01  -3.278173e+01
  -1.389027e+01  -4.395746e+01
   4.801758e+01  -2.233470e+01
  -9.908096e+00  -1.387217e+01
  -1.963743e+00   9.839290e+00
  -2.700893e+01  -3.442622e+01
   2.313998e+01   4.714949e+00
   8.155272e+01   2.101869e+01
   7.968145e+01   2.564980e+01
   1.417022e+01   4.368388e+01
  -4.320685e+01   2.396449e+01
  -8.872661e+01   2.368891e+01
  -2.573583e+00  -2.232477e+01
  -9.740586e-01  -3.062632e+01
   3.456925e+01   4.094407e+01
   2.508561e+01   3.360776e+01
   1.734762e+01   4.027059e+01
  -2.213861e+01   2.143824e+01
  -4.552403e+01  -1.643442e+01
  -2.427684e+01  -4.844225e+00
  -1.222389e+01  -1.535990e+00
  -1.757691e+01   1.886968e+00
   1.348273e+01  -3.983544e+01
   1.265074e+01  -9.873746e+01
   6.739805e+01  -6.359786e+01
   1.010645e+02  -3.528367e+01
   5.231963e+01   3.606489e+01
  -2.699248e+01   5.346790e+01
  -5.118328e+01   4.207891e+01
  -4.479389e+01  -7.788619e+00
  -4.896129e+00  -4.179749e+00
   2.695693e+01   1.172271e+01
   2.727118e+01   2.874567e+01
  -4.615490e+01   1.864045e+01
  -8.550082e+01   1.772791e+01
  -7.393764e+01  -1.751870e+01
  -5.435630e-01  -4.770301e+01
   5.140409e+00  -1.436701e+01
   1.739973e+01   9.088597e-01
  -1.895246e+01   2.992737e+01
  -5.282828e+01  -1.925249e+01
   2.273550e+00  -4.619942e+01
   6.256898e+00  -6.594848e+01
   3.779271e+01  -5.333401e+01
   4.967241e+01   2.342687e+01
   1.310237e+01   1.061247e+02
  -3.608854e+01   4.502777e+01
  -4.607402e+01   1.313217e+01
  -4.655620e+01  -4.686918e+01
   2.461885e+01  -5.022445e+01
   1.785778e+01  -2.510768e+01
   4.111486e+01   2.223511e+01
   3.801012e+01   1.162938e+01
  -1.163196e+01   5.356912e+00
   1.204980e+01  -9.850860e-01
   3.424740e+01   3.071029e+01
   2.065959e+01   3.041319e+01
  -6.576425e+01   2.810076e+01
  -7.251501e+01  -1.047648e+01
  -5.060121e+01  -3.548342e+01
  -1.400547e+01  -2.742251e+01
   2.739955e+01   8.606844e+00
   5.872030e+01  -1.581843e+01
   2.822109e+00   4.153832e+01
  -6.351210e+00   2.143845e+01
  -3.176516e+01   3.346225e+01
  -4.182555e+01  -1.101315e+01
  -2.275013e+01  -8.617729e+00
  -3.779805e+01  -1.388747e+01
  -2.811048e+01  -2.229723e+01
  -1.801486e+01  -2.275166e+01
   5.811178e+01  -5.441463e+01
   9.447129e+01  -5.385753e+01
   8.817491e+01   8.571963e+00
   3.444152e+01   7.815864e+01
  -3.005199e+01   6.420797e+01
  -3.254926e+01   5.808641e+01
  -5.829502e+01   7.434967e+00
  -1.122194e+01  -3.558070e+00
   2.065059e+01  -2.085550e+01
   1.464400e+01   2.938874e+01
   9.190874e+00  -2.016911e+01
   3.596634e+00  -4.211410e+01
   6.516888e+01  -2.477550e+01
   5.477646e+01  -1.773419e+01
   4.758492e+01   4.748762e+01
   2.238258e+01   8.035162e+01
  -4.947965e+01   1.352371e+01
  -7.891914e+01  -3.753559e+01
  -7.922281e+00  -9.386388e+01
   3.639674e+01  -2.561883e+01
   5.215837e+01   1.547437e+00
   1.944501e+01   4.538048e+01
   4.481757e+00   2.811352e+01
  -8.812797e+00   1.219620e+01
   8.336495e+00   1.796802e+01
   2.419054e+01  -1.831979e+01
   3.209084e+01   7.728006e+00
  -1.671478e+01   4.869971e+01
  -6.230678e+01   1.108867e+01
  -2.549836e+01  -2.045071e+01
  -5.471688e+00  -3.114418e+01
   3.214184e+01  -4.165898e+01
   6.192399e+01  -1.938507e+01
  -6.903908e+00   2.478787e+01
  -2.866858e+01   3.447038e+01
  -4.704180e+01   8.692339e+00
  -1.353461e+01  -3.936572e+01
  -1.033200e+01  -4.221258e+01
   1.221003e+01   9.460323e+00
   2.748342e+01   7.178149e+00
   2.858689e+01   1.053836e+01
   5.709904e+00   8.919810e+00
  -7.221497e+00  -1.833954e+01
   4.791822e+00   1.120818e+01
   3.141552e+01   3.334589e+01
  -3.584768e+01   1.977523e+01
  -1.859881e+01  -1.011870e+01
  -6.875760e+00  -3.944056e+01
   1.383202e+01   7.864687e+00
   3.998276e+01  -1.851804e+01
   2.463480e+01   1.025022e+01
  -5.441203e+00   4.376655e+01
  -4.700906e+01   2.333476e+01
  -5.858022e+00  -2.608132e+01
   1.213057e+01   1.413782e+00
   2.076556e+01  -3.090546e+01
   2.738223e+01   2.031226e+00
  -2.454352e+01  -1.511536e+01
  -9.726978e+00  -1.616259e+01
  -1.735571e+00   2.869517e+00
   1.836213e+01  -1.683064e+01
