
 $NMID
 id='ANONYMOUS ', fmtdat='(2E16.6)'
 volume=1.0
 tramp=1.0
 $END
  -8.634395e+02  -2.689872e+02
  -8.192044e+02  -7.393981e+02
  -7.043789e+01  -7.425602e+02
   4.160452e+02  -5.969867e+02
   4.346490e+02  -2.375391e+02
   2.180963e+02  -4.899696e+00
  -1.921140e+01   1.531707e+02
  -2.748253e+01  -9.694574e+01
   7.289065e+01  -1.618669e+02
   1.931261e+02  -9.761095e+01
   1.788608e+02   6.225019e+01
  -2.295942e+00   1.947116e+02
  -8.816909e+01   1.248163e+02
  -7.575982e+01  -7.308678e+01
   4.437777e+01  -1.710622e+02
   1.304497e+02  -2.760322e+01
   1.434277e+02   1.265786e+02
   3.144787e+01   2.378903e+02
  -1.607364e+02   1.400986e+02
  -1.849717e+02   3.007371e+01
  -1.075050e+02  -1.666055e+02
   2.730553e+01  -1.059216e+02
   1.464200e+01  -3.052674e+01
  -7.933105e+01  -6.250808e+01
  -8.353348e+01  -1.194651e+02
   2.318300e+01  -1.210953e+02
   1.544238e+02  -3.043405e+01
   1.183144e+02   1.337726e+02
   4.984096e+01   1.577012e+02
  -8.071905e+01   6.657102e+01
  -1.090811e+02  -1.208568e+02
  -6.637811e+01  -1.273649e+02
   1.003137e+02  -9.779629e+01
   1.446315e+02  -4.488225e+01
   1.211500e+02   6.639977e-01
   4.894276e+01   7.719689e+01
   6.499725e+01   5.858871e+01
   7.263164e+01   4.902216e+01
   8.075370e+01  -3.549550e+01
   1.639104e+01   9.398629e+01
  -5.509374e+01   1.271155e+02
  -1.257094e+02   1.481390e+02
  -7.995119e+01  -9.410122e+00
  -1.029337e+02  -8.863406e+01
  -2.811034e+01  -3.044967e+01
   2.873939e+01   4.014124e+01
  -6.872396e+01   7.771065e+01
  -1.314376e+02  -2.875572e+01
  -1.652356e+02  -9.284348e+01
  -1.160813e+01  -1.817215e+02
   1.022789e+02  -1.006312e+02
   1.833194e+02   2.884920e+01
   1.442087e+02   8.749580e+01
   1.997821e+01   6.816213e+01
  -5.523090e+01   9.710292e+01
  -1.093469e+02   5.818305e+01
  -3.268426e+01   1.467074e+01
  -4.790978e+01  -9.767825e+00
  -3.289160e+01  -1.385270e+01
  -5.534323e+01  -3.047083e+01
  -1.829350e+01  -3.312990e+01
   2.360407e+01  -6.875942e+01
   1.496904e+02  -7.622737e+01
   1.064822e+02   2.667691e+01
  -1.386857e+01   1.565358e+02
  -1.226940e+02   1.303389e+02
  -1.606931e+02   5.334283e+01
  -6.604619e+01  -5.977271e+01
  -3.217422e+01  -1.332581e+02
   2.490374e+00  -8.385232e+01
  -1.047040e+01  -7.546763e+01
   1.607449e+01  -9.433745e+01
   7.743875e+01  -9.846401e+00
   9.711717e+01   4.575047e+01
   7.846954e+01   5.459583e+01
   6.513373e+01   6.405290e+01
  -1.904222e+01   3.566756e+01
  -4.757946e+01  -3.389996e+01
  -6.157718e+01  -1.251777e+02
   2.508466e+00  -1.059097e+02
   1.025016e+02  -2.474993e+01
   1.201650e+02   7.353690e+01
   6.829182e+01   1.096116e+02
  -6.118820e+01   1.231529e+02
  -6.750908e+01   7.409376e+01
  -5.151029e+01   4.635898e+01
  -8.663089e+01   8.938948e+00
  -1.165207e+02  -1.069307e+01
  -1.554103e+02  -7.219391e+01
  -1.023971e+02  -1.236695e+02
   5.151566e+01  -1.314090e+02
   1.628648e+02  -1.220457e+02
   2.509754e+02  -7.327701e+01
   1.326099e+02   3.172666e+01
   8.861614e+00   9.196511e+01
  -2.708114e+01   6.404566e+01
   2.137988e+01   2.110305e+01
   3.959865e+01  -6.139548e-01
   5.174455e+01   4.739246e+01
   1.555381e+01   3.220660e+01
  -2.935870e+01   2.711651e+01
  -1.468616e+00  -1.558653e+01
   1.531565e+01  -3.004417e+01
   6.008263e+01   7.420562e-01
   5.008382e+01   1.006394e+02
  -5.043624e+01   1.344463e+02
  -7.547646e+01   6.683937e+01
  -1.500133e+02  -5.014274e+01
  -9.291683e+01  -1.284754e+02
  -1.186599e+01  -7.890725e+01
   2.705967e+01  -4.534808e+01
   4.859053e+01  -6.052935e+00
   4.695110e+01  -3.263632e+00
  -3.000264e+01  -4.710142e+01
   3.086862e+01  -2.484882e+00
   5.347213e+01  -3.054942e+01
   1.398256e+01   8.561914e+00
   4.116361e+01   5.029933e+00
  -6.056993e+01  -1.559992e+00
   1.365651e+01  -4.181704e+01
   8.313257e+01  -2.568205e+01
   1.405573e+02   2.553760e+01
   6.802274e+01   1.043612e+02
   2.045280e+00   1.224188e+02
  -1.042687e+02   9.419429e+01
  -9.486216e+01   1.715553e+00
  -4.341025e+01  -4.848509e+01
   5.872021e-01  -3.067835e+01
  -3.244147e+01   2.170585e+01
  -3.610378e+00   1.976805e+00
  -8.960757e+01  -1.282656e+01
  -7.500989e+01  -3.963268e+01
  -3.155475e+01  -6.083623e+01
   3.602232e+01  -7.443513e+01
   4.243598e+01   5.048899e+00
   2.746157e+00   2.106397e+01
  -1.783954e+01   7.638059e+00
   2.559961e+01  -7.082488e+01
   1.968224e+01  -4.087792e+01
   8.045696e+01   7.514751e+00
   6.038376e+01   7.311995e+01
  -2.404392e+01   6.678005e+01
  -8.227410e+01   4.411465e+01
  -7.447688e+01  -2.976772e+00
  -3.421353e+01  -4.460389e+01
   5.260014e+01  -1.258633e+01
   5.487462e+01  -2.210171e+01
  -1.637282e+01   3.048390e+01
  -3.610343e+01   2.101187e+01
   1.135676e+01  -5.349101e+01
   3.136479e+01  -8.482212e+00
   5.684141e+01   3.588863e+01
  -1.111956e+01   8.446999e+01
  -8.895047e+01   5.964203e+01
  -9.626470e+01   1.074263e-01
  -6.993624e+01  -4.381437e+01
  -4.112056e+00  -8.726357e+01
   4.087349e+01  -7.612823e+01
   7.385902e+01  -3.679005e+01
   2.341837e+01   1.502430e+01
   1.623389e+01   6.180620e+00
   2.724988e-01  -2.498007e+01
   6.623161e+01  -2.483096e+01
   2.078434e+01   2.005443e+01
  -1.861829e+01   3.493960e+01
  -7.683375e+01   4.574575e+01
  -3.648474e+01  -6.115415e+01
  -1.292888e+00  -3.394569e+01
   5.849074e+01  -7.741453e+00
   8.124860e+01   1.257152e+01
   9.365589e+00   8.063359e+01
  -3.151778e+01   6.757891e+01
  -8.121500e+01   2.727666e+01
  -5.774262e+01  -5.085346e+01
  -6.347311e+01  -4.935102e+01
   4.373116e+01  -5.980622e+01
   2.817746e+01  -6.170605e+01
   6.198982e+00   3.064045e+00
   1.396769e+00  -1.867959e+01
   7.342259e+00  -2.359251e+01
   3.659459e+01  -3.260025e+00
   5.704951e+01   6.357417e+01
   4.142302e+01   7.291086e+01
  -3.225028e+01   9.175603e+01
  -5.217945e+01  -2.116969e+00
  -5.652355e+01  -5.448686e+01
   4.824892e+00  -7.400938e+01
   4.946470e+01  -3.282263e+01
   3.001881e+01  -3.180698e+00
   2.787303e+01   5.791497e+00
  -3.011938e+01  -7.458291e+00
   3.966702e+01  -1.146831e+01
   2.483808e+01   7.692631e+00
   2.456215e+01   1.825593e+01
  -6.390476e+00   1.523619e+01
  -8.495066e+01  -8.135175e+00
  -6.529966e+01  -3.004231e+01
   6.029798e+00  -2.757486e+01
   4.013181e+00   1.736170e+01
   8.138610e+01  -5.263521e+00
   2.360139e+01   2.640716e+01
  -1.531920e+01   1.663931e+01
  -3.555437e+01  -4.385611e+01
  -1.599933e+01  -2.054224e+01
   6.196395e+00  -3.063526e+01
   3.517083e+01  -1.351749e+01
   6.607535e+00   1.972735e+01
   2.214120e+01   3.529937e+01
   3.921917e-01   2.030571e+01
  -1.338849e+00  -1.711542e+01
  -6.880168e+00   4.379898e+01
  -1.090263e+01   6.046508e+01
  -3.142422e+01   6.619027e+01
  -5.237449e+01   2.592017e+01
  -5.560566e+01  -3.439876e+01
   4.581480e+01  -8.316574e+01
   3.369667e+01  -3.929800e+01
   3.293046e+01   2.879129e+01
  -1.862908e+01  -5.428444e-01
  -7.889022e+01   9.437780e+00
  -2.886747e+01  -3.640683e+01
   8.426181e+00  -5.788958e+01
   9.530658e+01  -2.257363e+01
   8.925594e+01   2.106077e+01
   1.100375e+01   1.720791e+01
  -2.864410e+00   4.579123e+01
  -1.881815e+01   1.457177e+01
   2.576217e+01  -8.494461e+00
   2.759855e+01   1.754374e+01
  -2.411869e+01   4.831620e+01
  -4.200500e+01   3.824934e+01
  -6.803486e+01   1.649310e+01
  -6.172322e+01  -3.427646e+01
  -1.206281e+01  -7.714559e+01
   2.033387e+01  -5.468903e+01
   3.058606e+01  -1.092474e+01
   4.296978e+01   3.290627e+01
  -9.839584e+00   3.244938e+01
  -1.575143e+01   3.101535e+01
  -1.551839e+01  -2.385358e+01
  -2.198358e+01  -3.729235e+01
   1.961827e+01   2.436165e+01
   2.111633e+01  -1.768263e+01
  -3.254320e+01  -3.116830e+01
   1.123260e+01  -3.965806e+01
   1.715462e+01  -2.419107e+01
   3.459619e+01   6.756672e+00
   5.605627e+01   4.982493e+01
   4.471586e+01   3.649213e+01
  -3.430861e+00  -2.866561e+00
  -2.139453e+01   2.653220e+01
  -1.498966e+01   6.455076e+00
   9.152240e+00   4.640274e+00
   2.764955e+01   1.406679e+01
   7.134701e+00  -2.904673e+01
  -2.134233e+01   4.928395e+00
   3.635391e+01   3.459231e+00
   2.978042e+01   1.058319e+01
  -1.003641e+00   3.656234e+01
  -4.476275e+01   4.576009e+01
  -8.940888e+01   2.502356e+01
  -1.013599e+02  -1.969714e+01
  -3.781917e+01  -3.296797e+01
   3.591644e+00  -7.241363e+01
   5.655591e+01  -3.193495e+01
   2.417327e+01  -1.482589e+01
   1.656942e+01  -2.223348e+01
   9.161094e+00   2.785214e+01
   1.998985e+01   4.006353e+00
  -1.852338e+01   3.674607e+01
  -2.964038e+01   3.387730e+01
  -3.009219e+01   6.827233e+00
  -3.673459e+01  -1.814515e+01
   8.824789e+00  -4.827914e+01
  -2.002888e+01  -5.629943e+01
   3.351116e+01   1.437402e+01
   5.179680e+01   5.886615e+01
   7.944219e+00   2.867289e+01
  -3.858859e+01   3.761879e+00
  -5.245141e+01  -1.776088e+01
  -1.926643e+01  -4.233368e+01
   1.571242e+01  -4.532426e+01
   3.433189e+01   9.898542e+00
  -2.148220e+01  -7.316123e+00
  -3.506423e+01  -1.558741e+01
  -8.432313e+00  -9.669429e+00
   4.516048e+01  -4.910945e+00
   7.017593e+01   1.120687e+01
   3.521220e+01   1.498213e+01
  -1.764758e+01   2.405147e+01
  -3.020745e+01   2.869375e+01
  -2.043785e+01   1.547100e+01
   2.911681e-01  -7.911169e+00
   2.470370e+01   3.985368e+00
  -1.561741e+01   6.772875e-01
  -6.594644e+00   4.766981e+01
   3.808641e+00   1.872246e+01
  -2.521066e+00   2.384758e+00
   4.674476e-01  -2.261083e+01
  -3.138214e+01  -1.375704e+01
  -5.657528e+00   1.954424e+01
   1.022425e+00   1.031420e+01
   1.412946e+00  -1.292782e+01
  -3.240386e+00  -1.850620e+01
  -5.157934e+00   1.189117e+01
   2.812629e+01   2.307555e+01
   1.052652e+01   1.647860e+01
  -1.476028e+01   1.515005e+01
  -4.207909e+01  -2.784788e+01
   3.004672e+00  -1.805140e+01
   1.635923e+01  -3.795281e+01
   8.355866e+01  -1.078273e+01
   4.233715e+01   4.588891e+01
   6.984107e+00   3.208759e+01
  -1.912848e+00   1.743119e+01
  -2.339475e+01   4.104142e+00
  -3.955405e+00   1.074466e+01
   3.493200e+01  -2.802945e+01
   2.401089e+01   1.803022e+01
  -2.093697e+01   2.466002e+01
