
 $NMID
 id='ANONYMOUS ', fmtdat='(2E16.6)'
 volume=1.0
 tramp=1.0
 $END
   1.452965e+03   2.720509e+02
   1.203059e+03   1.025697e+03
   2.255383e+02   9.624582e+02
  -3.502628e+02   7.471778e+02
  -5.400153e+02   2.506606e+02
  -2.099004e+02  -2.421648e+01
   6.331315e+01  -6.734349e+01
  -2.912160e+01   1.356217e+02
  -1.467524e+02   2.529194e+02
  -2.328423e+02  -1.007229e+00
  -2.100566e+02  -2.050911e+02
  -1.464301e+01  -3.172986e+02
   1.104059e+02  -1.181009e+02
   1.131187e+02   1.615141e+02
  -4.251939e+01   2.262310e+02
  -1.988611e+02   4.066728e+01
  -1.850024e+02  -2.330194e+02
   2.238316e+01  -4.132160e+02
   2.174687e+02  -1.944442e+02
   2.770857e+02   2.103226e+01
   1.171928e+02   1.375129e+02
  -2.177643e+01   1.268725e+02
  -1.150773e+01   4.226865e+01
   1.236907e+02   1.047891e+02
   1.505101e+02   1.816654e+02
  -9.052011e+01   2.031137e+02
  -2.809457e+02  -2.886864e+01
  -2.445406e+02  -1.877411e+02
  -8.480312e+01  -1.856406e+02
   1.323798e+02  -8.793839e+01
   2.076777e+02   1.264821e+02
   5.535966e+01   1.664642e+02
  -1.368011e+02   9.374058e+01
  -2.304586e+02   4.630767e+01
  -1.332117e+02  -6.377838e+01
  -7.147414e+01  -1.424651e+02
  -3.850180e+01  -8.272128e+01
  -8.631461e+00   1.554674e+01
  -8.091225e+01  -7.119227e+00
  -5.492255e+01  -1.285768e+02
   7.877724e+01  -2.740892e+02
   2.079974e+02  -1.917134e+02
   1.099084e+02   4.857868e+01
   7.182691e+01   1.260158e+02
  -7.786501e+01   4.611316e+01
  -3.629088e+01  -1.185851e+02
   6.763863e+01  -1.348992e+02
   2.192945e+02   3.465794e+01
   1.897158e+02   1.943076e+02
   5.580511e+01   2.360232e+02
  -1.228340e+02   8.990228e+01
  -2.435948e+02  -1.704416e+01
  -1.630282e+02  -8.781940e+01
  -1.678207e+01  -8.822019e+01
   7.752250e+01  -1.087932e+02
   1.050571e+02  -2.730601e+01
   4.043143e-01  -1.999164e+01
   8.035418e-01  -1.227385e+01
   7.503957e+01   5.970654e+00
   1.078438e+02   4.561088e+01
   5.038170e+01   8.743626e+01
  -3.852632e+01   1.300622e+02
  -1.947622e+02   5.936629e+01
  -1.525604e+02  -4.508326e+01
  -1.305071e-01  -1.701572e+02
   1.512675e+02  -2.145429e+02
   2.331323e+02  -9.053515e+01
   1.195509e+02   1.238137e+02
   2.491594e+01   1.650713e+02
  -2.875440e+01   1.258640e+02
  -3.787939e+01   9.472833e+01
   3.897397e+00   8.228959e+01
  -4.903435e+01   6.549824e+01
  -1.613260e+02   1.159026e+01
  -1.469150e+02  -9.907667e+01
  -6.602908e+01  -1.527781e+02
   5.780334e+01  -9.385456e+01
   8.486654e+01   2.546486e+01
   5.828005e+01   1.215286e+02
  -2.193060e+01   1.460024e+02
  -1.367512e+02   1.132591e+01
  -1.323219e+02  -9.082047e+01
  -6.840270e+01  -1.689658e+02
   6.389053e+01  -1.076075e+02
   8.783823e+01  -9.155904e+01
   5.052732e+01  -4.555165e+00
   8.595899e+01  -2.918605e+01
   1.490203e+02  -7.168411e+00
   1.987246e+02   1.063935e+02
   1.608610e+02   1.172579e+02
  -4.310268e+01   2.271921e+02
  -1.935550e+02   1.326772e+02
  -2.537894e+02   6.431772e+01
  -1.211685e+02  -3.269529e+01
  -4.897129e+00  -1.110059e+02
   3.118666e+01  -6.332927e+01
   3.403213e+00  -3.943040e+01
  -5.884166e+01  -2.470554e+01
  -7.995915e+01  -2.113898e+01
  -4.706530e+00  -6.493801e+01
   8.295834e+01  -8.906115e+00
   2.588632e+01   2.183608e+01
  -1.384535e+01   6.053194e+01
  -8.150183e+01  -2.201434e+01
  -6.142627e+01  -1.349286e+02
   3.754750e+01  -1.970321e+02
   9.146480e+01  -7.643360e+01
   1.671794e+02   5.343048e+01
   1.429337e+02   1.223972e+02
   2.918502e+01   1.131759e+02
  -3.249389e+01   7.830601e+01
  -6.906679e+01   1.229632e+01
  -2.879581e+00  -6.928508e+00
   7.556890e+00   2.937268e+01
  -3.275465e+01   3.937660e+01
  -6.370254e+01   3.561685e+01
  -5.630929e+01  -3.628627e+01
  -2.073861e+01  -1.586353e+01
   3.186439e+01   2.639875e+01
   4.094589e+01   4.337759e+01
  -4.344506e+01   2.886853e+01
  -1.533045e+02  -3.128098e+00
  -1.270227e+02  -6.858456e+01
   3.085971e+01  -1.515754e+02
   1.155079e+02  -1.202270e+02
   1.000135e+02  -4.282363e+01
   4.949618e+01   1.304100e+01
   2.254060e+01   5.533520e+01
  -5.926438e+00  -2.086449e+01
   8.799126e+00  -2.754768e+01
   8.237900e+01   3.586859e+01
   8.749435e+01   6.723673e+01
   2.619428e+01   8.560741e+01
  -5.043009e+01   7.143221e+01
  -7.004982e+01  -3.195169e+01
  -3.679897e+01  -2.988756e+01
   2.122707e+01   2.206820e+01
  -1.223489e+01   7.106512e+01
  -3.837093e+01   6.552259e+01
  -1.179971e+02  -3.526731e+01
  -5.543354e+01  -6.133826e+01
  -2.084353e+00  -8.721226e+01
   1.030110e+02  -3.952531e+01
   7.737796e+01  -1.041219e+01
   1.048980e+01   7.270107e+01
  -2.754719e+01   2.222959e+01
  -4.109138e+01   2.929716e+01
   1.125423e+01  -3.010226e+01
   1.379092e+01  -2.443382e+01
   2.123514e+01  -1.014817e+01
  -3.716443e+01   6.945199e+00
  -4.790141e+01  -5.381556e+01
   1.006247e+01  -9.873107e+01
   1.108690e+02  -9.258961e+01
   1.109912e+02   2.617119e+01
   8.561324e+01   9.136788e+01
   1.244392e+00   1.443184e+02
  -4.861255e+01   8.002210e+01
  -6.335496e+01   1.053272e+01
  -4.152253e+01  -1.299346e+01
  -2.867373e+01  -5.577211e+00
  -1.330793e+00  -1.929819e+01
  -3.107474e+01  -5.154384e+00
  -2.883423e+01  -1.142094e+01
   4.378608e+01  -7.509572e+01
   8.403193e+01  -5.593684e+01
   7.486793e+01   1.037542e+01
  -1.464186e+01   8.329273e+01
  -7.356558e+01   2.450666e+01
  -7.686021e+01  -3.813757e+01
  -7.635111e+00  -1.209075e+02
   4.111840e+01  -7.736339e+01
   1.605736e+02   6.448759e-01
   1.222277e+02   4.133686e+01
   4.093503e+01   8.795846e+01
  -3.700164e+01   8.389618e+01
  -6.131732e+01   6.109465e+01
  -1.909975e+01   6.996847e+01
  -3.131720e+01   4.567578e+01
  -3.420870e+01   2.349567e+01
  -7.334112e+01  -3.320468e+01
  -8.062335e+01  -7.071034e+01
  -3.812701e+01  -1.482428e+02
   6.669044e+01  -9.830423e+01
   8.517744e+01   1.406382e+01
   8.522882e+01   5.584741e+01
  -2.934411e+00   6.433163e+01
  -3.849901e+01   5.985723e+01
  -3.686645e+01  -2.308776e+01
  -1.839343e+01  -1.816972e+01
   2.336350e+01  -9.810525e-01
  -1.168390e+01  -6.836530e+00
  -1.423585e+01   2.253518e+00
  -5.600004e+01  -2.755383e+01
   1.557324e+01  -2.214774e+01
   1.121191e+02  -3.837544e+00
   8.899119e+01   5.386431e+01
  -1.216299e+01   7.655302e+01
  -6.364671e+01   7.188571e+01
  -8.751137e+01   2.606215e+01
  -1.959141e+01  -4.162712e+01
   3.529920e+01  -1.534811e+01
   5.577832e+01   4.053346e+01
   3.402252e+01   7.300006e+01
  -2.334422e+01   9.010065e+00
  -2.565385e+01   2.560862e+01
  -3.265550e+01  -7.614999e+01
  -2.173658e+01  -1.828274e+01
  -1.974770e+01  -1.149827e+01
   2.895011e+00   1.716662e+01
  -3.609002e+01  -1.058097e+01
   2.872427e+00  -4.257767e+01
   4.733231e+01  -8.361722e+01
   9.673913e+01  -3.124271e+01
   6.380396e+01   4.086176e+01
   1.277399e+01   6.679775e+01
  -4.023124e+01   2.660034e+01
  -1.979698e+01  -1.426929e+01
   4.983722e+00  -1.999312e+01
   7.985891e+01   4.366826e+01
   2.239753e+01   2.968010e+01
  -5.556930e+01   3.041302e+01
  -9.434507e+01   1.286082e+01
  -1.132234e+02   4.061069e-01
  -2.112152e+01  -2.942563e+01
   4.383769e+01  -2.273410e+01
   3.447828e+01  -7.126594e+00
  -3.947183e+01  -6.146284e-01
  -7.818946e+01  -2.254291e+01
  -1.885908e+01  -4.684797e+01
   2.486646e+01  -7.918428e+01
   8.045310e+01  -1.021585e+01
   9.995927e+01   3.949241e+01
   1.571770e+01   1.354583e+02
  -3.107595e+01   1.185753e+02
  -5.066551e+01   5.112203e+00
  -4.004794e+01  -5.926929e+01
   6.363936e+00  -4.477800e+01
   2.933247e+01  -4.735020e+01
   1.233670e+01   7.309056e+01
   2.576782e+01   1.920437e+01
  -1.371176e+00  -1.950465e+01
  -1.175255e+01   1.704234e+01
   3.294264e+01   5.583995e+01
  -1.889970e+01   4.063140e+01
  -3.616277e+01   2.600208e+01
  -5.593852e+01  -1.970920e+01
  -9.037048e+01  -4.526817e+01
  -2.079887e+01  -5.310925e+01
   4.183316e+01  -3.195882e+01
   5.819372e+01   2.020705e+01
   2.356617e+01  -2.547383e+00
  -2.916257e+01   3.165253e+01
  -1.459805e+01   8.007154e+00
  -1.762846e+01  -7.940689e+00
   1.942769e+01   1.103134e+01
  -4.431571e+01   9.121492e+00
  -5.202264e+01  -6.200737e+00
  -1.203585e+01  -2.770476e+01
   6.740001e+01  -6.051590e+01
   1.001202e+02  -3.389434e+01
   7.623495e+01   2.094877e+01
   6.201995e+00   6.030483e+01
  -3.191524e+01   8.034072e+01
  -5.041013e+01   2.798195e+01
  -2.382061e+01   4.830978e+00
  -3.850578e+01  -1.517569e+00
   3.344986e+01  -4.292884e+00
  -1.851190e+01  -3.403362e+01
   2.764605e+01  -2.556903e+01
   2.054069e+01  -4.775513e+01
   3.398617e+01  -3.150632e+01
   4.165023e+01   2.025423e+01
  -1.361081e+01   7.773576e+01
   1.243962e+01   6.172126e+01
  -2.967245e+01   4.937542e+00
  -3.968428e+01  -2.067131e+01
  -4.002658e+00  -4.908049e+01
   4.538842e+01  -2.542256e+01
   6.502995e+01   1.139465e+01
  -4.055135e+00   3.734948e+01
  -3.032330e+01   3.390760e+01
  -3.557599e+01   9.113947e+00
   1.989996e+01  -1.136409e+00
   2.949201e+01   2.836866e+00
  -1.429148e+01   1.398655e+01
  -4.430229e+01   3.852766e+01
  -1.036677e+02   1.436171e+00
  -2.221801e+01  -2.058117e+01
   9.668666e+00  -2.679318e+01
   2.488879e+01  -5.131768e+01
   1.856269e+01  -1.654955e+01
  -1.144285e+01   2.365302e+01
  -8.374302e+00   2.482893e+01
  -5.537722e+01   4.722825e+00
  -9.927128e+00  -3.604744e+01
  -3.899298e+00  -1.838884e+01
   2.970091e+01   1.993995e+00
   1.042834e+00   9.131078e+00
   6.062295e+00   3.413610e+00
   2.711498e+01  -4.263956e+01
   8.388350e+00   7.436585e+00
   2.113311e+01  -2.578607e+01
   1.101355e+01   4.320912e+01
   3.682684e+00   1.570990e+01
  -4.894926e+01  -2.600898e+01
  -1.256424e+01  -3.111532e+01
   2.155956e+01  -3.040928e+01
   6.662596e+00  -1.617480e+01
   1.403842e+01   2.809167e+01
  -9.366509e+00   3.235395e+01
  -7.080186e+01  -1.649658e+01
  -2.117403e+01  -4.565996e+01
   3.097311e+01  -3.763971e+01
   3.122786e+01  -2.668234e+00
   2.081259e+01   1.504310e+00
  -1.525292e+01   3.176843e+01
  -3.954199e+01   8.945652e+00
   9.629313e+00  -2.998714e+01
   3.131201e+01  -3.155843e+01
