
 $NMID
 id='ANONYMOUS ', fmtdat='(2E16.6)'
 volume=1.0
 tramp=1.0
 $END
  -3.028206e+03  -2.400013e+02
  -2.127684e+03  -1.676996e+03
  -3.669831e+01  -1.949388e+03
   1.059977e+03  -1.165830e+03
   7.584492e+02  -2.480851e+02
   1.727157e+02   6.175397e+01
  -2.344748e+02  -1.036198e+02
  -4.424206e+00  -4.722729e+02
   4.426289e+02  -5.949537e+02
   5.489638e+02  -1.370357e+02
   3.180746e+02   4.139153e+02
   4.822095e+01   5.473156e+02
  -2.464039e+02   2.080329e+02
  -2.395803e+02  -2.999226e+02
   1.189243e+02  -5.033082e+02
   3.727012e+02  -9.244953e+01
   3.314063e+02   3.487375e+02
  -5.130502e+00   5.925136e+02
  -4.023605e+02   3.382849e+02
  -5.013292e+02  -1.353097e+02
  -1.588742e+02  -3.241834e+02
   1.480130e+02  -2.608660e+02
   9.176667e+01  -6.452157e+01
  -1.510687e+02  -5.979162e+01
  -2.513977e+02  -2.471807e+02
  -7.251405e+00  -3.812970e+02
   3.993402e+02  -1.243541e+02
   5.621377e+02   2.630242e+02
   1.226094e+02   3.635711e+02
  -3.465716e+02   2.445282e+02
  -4.765027e+02  -1.584867e+02
  -1.970129e+02  -3.050931e+02
   2.379992e+02  -3.024347e+02
   4.154280e+02  -1.296601e+02
   2.339542e+02   1.515151e+02
   3.472719e+01   3.089146e+02
  -6.081607e+01   1.253495e+02
   6.143562e+01  -9.660059e+01
   1.743932e+02  -1.723793e+02
   1.674585e+02   1.708964e+02
  -9.855136e+01   4.461590e+02
  -2.359161e+02   3.514710e+02
  -2.486809e+02  -5.018555e+01
  -1.086112e+02  -2.845553e+02
   1.472815e+02  -1.033375e+02
   9.206656e+01   3.061856e+02
  -1.554595e+02   3.655323e+02
  -3.970858e+02   1.358558e+01
  -4.103624e+02  -2.891968e+02
  -1.245744e+02  -4.698736e+02
   2.540985e+02  -2.150666e+02
   5.117805e+02   6.698159e+01
   3.459203e+02   2.070803e+02
  -1.765144e+01   2.052753e+02
  -2.548281e+02   1.080074e+02
  -1.807979e+02  -6.517365e+00
  -1.904759e+01   1.425778e+01
   2.526189e+01   7.933431e+01
  -1.155064e+02   4.917805e+01
  -2.312343e+02  -7.594960e+01
  -1.073958e+02  -1.771189e+02
   1.306986e+02  -2.050313e+02
   3.200414e+02  -1.097689e+02
   2.563892e+02   8.144017e+01
   2.010469e+01   3.098065e+02
  -2.965007e+02   3.645949e+02
  -3.495355e+02   1.203505e+02
  -2.389293e+02  -1.940820e+02
  -5.761190e+01  -3.304062e+02
   7.631968e+01  -2.964574e+02
   6.728200e+00  -1.507020e+02
   3.138474e+01  -1.125319e+02
   1.231782e+02  -1.058463e+02
   2.699156e+02  -3.807939e+01
   2.732947e+02   1.610197e+02
   5.724344e+01   2.504273e+02
  -1.396565e+02   1.715296e+02
  -1.861543e+02  -1.765238e+01
  -9.618736e+01  -2.412474e+02
   2.272043e+01  -2.455003e+02
   2.623377e+02  -7.194246e+01
   2.496967e+02   1.430675e+02
   1.430971e+02   2.917158e+02
  -7.338574e+01   2.383230e+02
  -1.585650e+02   1.488961e+02
  -1.436494e+02   5.797647e+01
  -1.160592e+02   7.925462e+01
  -2.409670e+02   1.746882e+01
  -3.650645e+02  -1.665859e+02
  -2.670960e+02  -2.936631e+02
   4.863038e+01  -3.560345e+02
   4.215881e+02  -3.619700e+02
   4.058266e+02  -1.471295e+02
   2.596930e+02   1.252327e+02
  -7.209330e+00   2.390559e+02
  -1.301837e+02   1.436246e+02
  -1.181483e+01   1.422872e+00
   1.229118e+02  -2.251120e+01
   1.452675e+02   5.126568e+01
   1.344075e+01   1.209025e+02
  -1.036960e+02   6.577003e+01
  -7.322648e+01  -8.455222e+01
   3.258356e+01  -1.078336e+02
   1.389187e+02  -4.108059e+00
   1.372204e+02   2.257134e+02
  -4.408429e+01   2.809731e+02
  -1.931356e+02   1.986951e+02
  -3.025092e+02  -7.156019e+01
  -2.707268e+02  -2.601536e+02
  -3.251923e+01  -2.657164e+02
   1.618864e+02  -1.276412e+02
   1.544614e+02   1.562910e+01
   5.140530e+01   3.115806e+01
  -2.021372e+01  -5.254386e+01
  -7.059301e+00  -1.194207e+02
   1.403023e+02  -7.905519e+01
   1.208743e+02   3.041636e+01
   3.974821e+01   6.203121e+01
  -9.214312e+01   9.197863e+00
  -5.056789e+01  -8.801675e+01
   1.044180e+02  -1.037157e+02
   2.871995e+02  -6.269812e+00
   2.484579e+02   1.391747e+02
   1.847071e+01   2.282266e+02
  -2.187243e+02   2.324771e+02
  -2.740985e+02   7.736140e+01
  -1.301402e+02  -8.502630e+01
   3.796179e+01  -6.656239e+01
   6.034775e+01  -1.007250e+01
  -5.332908e+01   7.273791e+01
  -1.732679e+02   4.629566e+01
  -1.639150e+02  -1.106092e+02
  -3.304304e+01  -1.619167e+02
   6.687569e+01  -1.425214e+02
   1.348969e+02   2.637125e+01
   3.862425e+01   3.272371e+01
  -4.870918e+01  -2.576348e+01
  -1.714760e+01  -1.149144e+02
   8.441625e+01  -1.298561e+02
   1.919584e+02  -3.198414e+01
   1.399328e+02   1.579594e+02
   2.205298e+01   2.264702e+02
  -1.468872e+02   1.337882e+02
  -1.629782e+02   7.993692e+00
  -5.873235e+01  -8.098243e+01
   7.605924e+01  -1.066511e+02
   8.106544e+01  -1.893906e+01
  -2.136564e+01   5.097581e+01
  -4.373435e+01   1.845426e+01
  -7.529514e+00  -3.984100e+01
   4.547945e+01  -3.885724e+01
   9.949098e+01   7.420331e+01
   1.198253e+01   1.556566e+02
  -1.167155e+02   1.495379e+02
  -2.594817e+02  -1.307601e+01
  -1.760602e+02  -1.704180e+02
  -5.973615e+01  -2.162911e+02
   9.837689e+01  -1.421713e+02
   1.114537e+02  -1.874505e+01
   8.700987e+01   9.290565e+01
   3.689990e+01   6.181307e+01
   5.808090e+01  -4.537251e+00
   7.106646e+01  -2.783153e+01
   5.145929e+01   3.910583e+01
  -3.542710e+01   1.115920e+02
  -1.112893e+02   5.847837e+01
  -1.221310e+02  -2.735976e+01
   1.223573e+01  -1.135446e+02
   1.316181e+02  -1.034992e+02
   2.046339e+02   6.485718e+01
   4.944371e+01   1.865852e+02
  -1.371656e+02   2.126023e+02
  -2.288327e+02   7.159641e+01
  -2.161854e+02  -8.426693e+01
  -7.593722e+01  -1.322806e+02
   2.577421e+01  -9.834545e+01
   6.817108e+01  -5.370425e+01
   5.339177e+01  -7.221121e+01
   6.420315e+01  -7.127815e+01
   7.402636e+01  -7.221053e+01
   9.365326e+01   2.314751e+01
   1.038885e+02   1.586847e+02
   5.615881e+01   2.182316e+02
  -7.964853e+01   1.450724e+02
  -1.655102e+02  -5.243275e+00
  -1.012016e+02  -1.172020e+02
  -2.224123e+01  -1.482364e+02
   6.079342e+01  -7.045092e+01
   9.095121e+01  -9.136667e+00
   1.210701e+00   3.463033e+01
  -2.638936e+01   6.719684e+01
   6.662867e+01  -8.664139e+00
   6.540921e+01   6.206722e+01
   2.306576e+01   4.210113e+01
  -7.155329e+01   5.039515e+01
  -1.990528e+02  -3.458772e+00
  -1.498711e+02  -4.836722e+01
   3.116447e+00  -1.059578e+02
   1.310645e+02  -7.096590e+01
   1.353234e+02   7.764755e+00
   4.340031e+01   3.464202e+01
  -6.379970e+01   2.153119e+01
  -7.375321e+01  -2.425491e+01
  -1.153407e+00  -6.789246e+01
   5.033977e+01  -2.894929e+01
   9.406850e+01   1.420415e+01
   5.279180e+01   5.645083e+01
   3.767803e+01   3.806389e+01
   4.240303e+01   3.142493e+01
   4.491608e+01  -3.988273e+00
   5.371805e+01   8.396736e+01
  -3.823980e+01   1.482794e+02
  -1.270776e+02   1.535359e+02
  -1.884650e+02   3.708662e-01
  -9.953114e+01  -9.480525e+01
   2.451394e+00  -1.633260e+02
   9.745392e+01  -2.813345e+01
   7.550435e+01   3.242613e+01
  -8.067245e+01   1.923466e+01
  -1.432582e+02  -2.213088e+01
  -7.207459e+01  -1.155335e+02
   8.148554e+01  -1.226415e+02
   1.920449e+02  -7.607871e+01
   1.597352e+02   3.816762e+01
  -2.651938e+01   7.967839e+01
  -7.111356e+01   4.491586e+01
  -5.714133e+01  -5.070544e+00
   4.686672e+01  -5.695153e+01
   9.496306e+01   1.171444e+01
   5.298821e+01   1.125415e+02
  -8.449610e+01   1.262790e+02
  -1.356867e+02   4.849873e+01
  -1.151031e+02  -7.903006e+01
  -2.340154e+01  -1.426016e+02
   8.035488e+01  -1.214066e+02
   1.027430e+02   7.907230e+00
   6.722944e+01   1.193237e+02
  -4.200968e+01   1.022202e+02
  -3.280793e+01   3.299991e+00
  -5.032635e+01  -3.912866e+01
   3.620929e+00  -2.974913e+01
  -4.117006e-01   7.106093e+00
  -1.098588e+01  -1.601398e+01
  -7.316463e+01  -6.505246e+01
  -5.357124e+01  -1.105121e+02
   7.392656e+01  -2.409482e+01
   1.350950e+02   4.443383e+01
   1.250351e+02   9.979064e+01
   6.968066e+00   8.019872e+01
  -9.837312e+01   8.812866e+00
  -8.063398e+01  -2.909251e+01
  -2.117421e+01  -2.756465e+01
   4.764932e+01  -5.269358e+01
   3.913351e+01  -9.869417e+00
   2.051610e+01   2.151678e+00
  -2.017148e+01   1.211843e+01
   5.789650e+01   7.932831e+00
   8.992801e+01   2.511391e+01
   9.887541e+00   6.412595e+01
  -5.738400e+01   1.106094e+02
  -1.578764e+02   9.766833e+01
  -1.318002e+02  -4.825806e+01
  -5.262668e+01  -1.355629e+02
   6.790261e+01  -1.544639e+02
   8.930134e+01  -4.616432e+01
   1.042348e+02   2.763964e+01
   4.308410e+01   4.745098e+01
  -3.339268e+01   2.350768e+01
   1.731620e+00  -6.116950e+00
   6.559069e+00   2.314139e+01
   1.625897e+01   1.008919e+02
  -1.414854e+01   7.943986e+01
  -9.094142e+01   1.180778e+01
  -8.893699e+01  -9.990817e+01
   1.659395e+01  -1.045266e+02
   5.684560e+01  -2.509889e+01
   1.010126e+02   4.990422e+01
   4.947921e+01   8.806289e+01
  -7.653488e+01   1.019749e+02
  -1.096811e+02   7.705518e+00
  -4.955326e+01  -4.279923e+01
   9.481081e+00  -7.754319e+01
   3.876675e+01  -7.223017e+00
   8.000670e+00   1.987456e+01
  -4.043798e+01   7.005487e+00
  -2.073561e+01  -1.760533e+01
   7.588159e+01  -5.695148e+01
   1.188256e+02  -3.660018e+01
   7.583273e+01   1.549611e+01
   5.219774e+00   5.768744e+01
  -5.531422e+01   7.041649e+01
  -3.352514e+01   2.113557e+00
  -3.342833e+01  -4.433899e+01
   3.385474e+01  -4.742165e+01
   1.165217e+01   1.495418e+01
  -5.214101e-01   5.337513e+01
  -6.130806e+00   4.232282e+01
  -2.003385e+01  -3.130086e+01
  -4.710425e+01   1.787816e+00
  -2.311083e+00  -1.237549e+01
   8.632416e+00   2.375290e+01
  -1.266487e+00   1.972021e+01
  -2.923262e+01  -4.279764e+01
   2.613859e+01  -5.773128e+01
   5.274804e+00  -3.519951e+01
   6.160948e+01   2.869052e+01
   5.510223e+00   4.549928e+01
  -1.910196e+01   8.543163e+00
  -8.599344e+01  -2.090699e+01
  -2.199510e+01  -7.588873e+01
   4.951230e+01  -5.543866e+01
   7.600003e+01   1.677200e+01
   4.560768e+01   6.900253e+00
  -4.387766e+01   5.743237e+01
  -5.566568e+01   8.902513e+00
  -1.598420e+01   9.105707e-01
   2.651807e+01  -1.267333e+01
   3.062312e+01   7.283908e+00
  -2.490055e+01   3.662682e+01
  -6.058622e+01   4.074978e+01
