
 $NMID
 id='ANONYMOUS ', fmtdat='(2E16.6)'
 volume=1.0
 tramp=1.0
 $END
  -4.666327e+03  -2.090500e+02
  -2.684752e+03  -2.809286e+03
   7.724827e+02  -3.037436e+03
   2.239127e+03  -9.143800e+02
   9.610813e+02   7.930398e+02
  -7.053839e+02   5.821106e+02
  -1.066696e+03  -4.917015e+02
  -9.808612e-01  -1.099513e+03
   8.749122e+02  -8.203420e+02
   9.758847e+02   1.491150e+01
   4.603736e+02   8.471655e+02
  -2.693401e+02   9.289364e+02
  -6.391423e+02   1.279893e+02
  -4.116823e+02  -7.583479e+02
   2.666598e+02  -8.265305e+02
   6.446491e+02  -5.020244e+01
   3.113807e+02   6.742924e+02
  -2.776161e+02   6.870449e+02
  -5.624798e+02   9.877580e+01
  -4.078885e+02  -3.467814e+02
  -3.027838e+01  -4.035279e+02
   2.726929e+02  -2.790574e+02
   2.097699e+02  -6.751754e+00
  -8.177795e+01   1.530742e+02
  -4.262104e+02  -9.897241e+01
  -2.632948e+02  -4.448858e+02
   4.613155e+02  -4.427262e+02
   9.008045e+02   6.950897e+01
   4.839476e+02   5.491054e+02
  -4.032417e+02   5.625942e+02
  -7.533396e+02  -5.325362e+01
  -3.937597e+02  -4.901160e+02
   2.999673e+02  -5.470185e+02
   5.524818e+02  -2.077075e+02
   4.271220e+02   2.445299e+02
   6.851276e+01   4.907226e+02
  -2.493821e+02   2.919822e+02
  -1.976096e+02  -2.527296e+02
   1.955978e+02  -4.608098e+02
   4.698969e+02   3.060489e+01
   2.034504e+02   6.916075e+02
  -3.462730e+02   6.807880e+02
  -6.056800e+02  -7.431151e+01
  -2.499894e+02  -6.537263e+02
   3.018986e+02  -3.600128e+02
   3.873497e+02   3.214300e+02
  -5.257390e+01   5.252949e+02
  -5.343427e+02   1.789172e+02
  -6.365662e+02  -3.762183e+02
  -1.923185e+02  -6.020218e+02
   4.031095e+02  -3.454955e+02
   6.450980e+02   6.103225e+01
   3.784291e+02   4.180482e+02
  -1.385802e+02   3.773682e+02
  -5.071853e+02   4.888791e+01
  -2.767472e+02  -2.098932e+02
   1.614423e+02  -1.246456e+02
   1.381816e+02   1.718847e+02
  -1.716348e+02   1.289409e+02
  -3.832737e+02  -8.787529e+01
  -1.404928e+02  -2.876782e+02
   1.816725e+02  -2.652013e+02
   3.087697e+02  -8.529409e+01
   1.926637e+02   8.043319e+01
   7.221858e+00   2.657343e+02
  -2.576249e+02   3.632319e+02
  -3.621779e+02   2.188323e+02
  -3.155141e+02  -1.434711e+02
  -5.417889e+01  -4.472777e+02
   1.160637e+02  -4.009140e+02
   1.065089e+02  -1.395074e+02
   3.544349e+01   3.202796e+01
   3.375279e+01  -6.668282e+01
   2.221786e+02  -1.260159e+02
   3.199103e+02   4.613401e+01
   1.671992e+02   2.622451e+02
  -9.293160e+01   3.156566e+02
  -2.336610e+02   5.124413e+01
  -2.257709e+02  -2.451634e+02
   1.156442e+01  -3.180888e+02
   2.451995e+02  -1.001807e+02
   3.482873e+02   1.561737e+02
   1.786250e+02   3.658237e+02
  -1.459498e+02   2.945399e+02
  -2.350800e+02   6.873894e+01
  -1.311392e+02  -8.281314e+00
  -1.010895e+02   3.110303e+01
  -1.980008e+02   7.236278e+01
  -3.629949e+02  -3.029976e+01
  -3.776286e+02  -2.895094e+02
   4.699187e+01  -4.533104e+02
   3.723931e+02  -4.227715e+02
   5.489245e+02  -1.990947e+02
   3.380780e+02   7.999697e+01
   8.901570e+01   2.882680e+02
  -9.867692e+01   2.496038e+02
  -8.697428e+01   4.044602e+01
   1.229817e+02  -1.007278e+02
   2.095357e+02   3.860366e+01
   6.595767e+01   1.884552e+02
  -1.534304e+02   1.977968e+02
  -1.812045e+02  -5.050768e+01
  -1.169381e+01  -1.748202e+02
   1.918386e+02  -3.535505e+01
   1.634586e+02   2.421275e+02
  -9.157819e+00   2.902382e+02
  -2.149732e+02   1.544023e+02
  -3.315605e+02  -3.512854e+01
  -2.323989e+02  -2.165962e+02
  -1.287169e+02  -2.274384e+02
   1.148350e+02  -1.456742e+02
   2.000933e+02  -3.081732e+01
   5.784411e+01   6.661467e+01
  -6.308913e+01  -3.494219e+01
  -4.454067e+01  -1.121692e+02
   1.120899e+02  -8.952473e+01
   1.905011e+02   2.623540e+01
   8.840048e+01   7.303092e+01
  -9.583455e+01   1.627949e+01
  -6.999523e+01  -1.021748e+02
   1.152508e+02  -1.020868e+02
   3.097112e+02  -4.200699e+00
   2.869053e+02   1.225647e+02
   7.920880e+01   2.568005e+02
  -2.138304e+02   3.229359e+02
  -3.044861e+02   1.310458e+02
  -1.734745e+02  -6.790133e+01
   5.163757e+01  -1.259982e+02
   7.567989e+01  -1.588120e+01
  -4.327868e+01   1.276453e+02
  -2.095079e+02   7.547819e+01
  -2.462202e+02  -1.067117e+02
  -2.695976e+01  -2.431342e+02
   7.383957e+01  -1.511327e+02
   1.451341e+02  -2.751827e+01
   6.429958e+01   2.932486e+01
  -1.966188e+00  -1.749320e+00
  -1.187670e+01  -7.605626e+01
   6.012504e+01  -9.605416e+01
   1.625022e+02  -1.179924e+01
   1.905832e+02   1.161197e+02
   7.596304e-01   2.274258e+02
  -1.759213e+02   1.611312e+02
  -1.968680e+02   2.118248e+00
  -8.105302e+01  -1.187575e+02
   5.185625e+01  -1.291276e+02
   8.663460e+01  -4.540179e+01
   2.599927e+01   1.433348e+01
  -4.197293e+01   1.730394e+01
   1.554246e+01  -6.642539e-01
   5.961131e+01   8.429020e+00
   1.055570e+02   7.137236e+01
   1.932828e+01   1.625592e+02
  -1.239466e+02   1.675682e+02
  -2.289127e+02   3.552332e+01
  -1.972269e+02  -1.572919e+02
  -4.110281e+01  -2.488986e+02
   1.035171e+02  -1.983397e+02
   1.406909e+02  -3.195289e+01
   8.740670e+01   6.561855e+01
   1.625991e+01   3.312908e+01
   4.335677e+01   7.798158e-01
   7.596715e+01   2.357507e+00
   4.689095e+01   3.769033e+01
  -3.342938e+01   9.641528e+01
  -9.458879e+01   7.432258e+01
  -1.053744e+02  -1.166127e+01
  -2.337834e+00  -1.060217e+02
   1.505337e+02  -9.480661e+01
   1.939228e+02   1.910378e+01
   1.055034e+02   1.995874e+02
  -1.338587e+02   2.435954e+02
  -2.632685e+02   1.038510e+02
  -2.640984e+02  -7.393378e+01
  -9.785708e+01  -1.735401e+02
   3.143341e+01  -1.632848e+02
   9.669891e+01  -7.603663e+01
   7.432452e+01  -7.809773e+01
   6.253681e+01  -7.803333e+01
   1.037338e+02  -7.398069e+01
   1.336124e+02  -3.070154e+01
   1.299616e+02   1.400200e+02
   4.027753e+01   2.725640e+02
  -1.252864e+02   1.630555e+02
  -1.893242e+02   2.506037e+01
  -1.517932e+02  -1.342150e+02
  -3.828933e+01  -1.614426e+02
   5.943759e+01  -8.555573e+01
   4.752696e+01   1.236613e+01
  -5.190957e+00   8.738218e+00
  -1.759455e+01   4.121412e+01
   2.514029e+01   2.101050e+01
   7.220586e+01  -8.151505e+00
   5.757725e+01   3.921281e+01
  -3.553713e+01   5.362600e+01
  -1.699898e+02   2.060953e+01
  -1.512685e+02  -6.532097e+01
  -1.668986e+01  -7.211334e+01
   8.731948e+01  -6.696214e+01
   1.793368e+02  -4.715161e+01
   4.428909e+01   5.737789e+01
  -6.400718e+01   1.880133e+01
  -6.207596e+01  -2.944430e+01
  -2.625914e+01  -6.061313e+01
   6.961883e+01  -5.801833e+01
   7.934150e+01  -6.263182e+00
   5.263122e+01   6.357084e+01
   2.630075e+01   3.067570e+01
   2.849043e+01  -1.661535e+01
   6.792641e+01  -3.548970e+01
   4.065753e+01   6.049073e+01
  -1.988323e+01   1.318029e+02
  -9.948067e+01   1.258965e+02
  -1.677718e+02   3.974232e+01
  -1.080052e+02  -8.724526e+01
  -1.679982e+01  -1.297575e+02
   1.006658e+02  -5.662667e+01
   2.448350e+01  -2.763087e+00
  -4.389121e+01   2.583867e+01
  -1.029738e+02  -2.102270e+01
  -9.422412e+01  -1.067975e+02
   6.239181e+01  -1.071262e+02
   1.992229e+02  -6.521390e+01
   1.720963e+02   5.523076e+01
   1.680637e+01   8.001054e+01
  -5.620613e+01   8.376802e+01
  -2.526581e+01   1.969982e+01
   5.558719e+01  -3.338877e+01
   1.121224e+02   2.744828e+01
   4.091209e+01   1.108622e+02
  -1.138048e+02   1.515156e+02
  -1.921693e+02   5.986902e+01
  -1.177670e+02  -1.282061e+02
   1.318497e+00  -1.985727e+02
   1.144306e+02  -1.598741e+02
   1.138730e+02   2.131330e+01
   7.497582e+01   1.158845e+02
   2.536421e+01   1.082586e+02
  -7.654157e+01   6.305216e+00
  -7.671897e+01  -4.321103e+01
  -3.601156e+01  -2.376375e+01
   1.849316e+01   4.180926e+01
  -3.027622e+01  -3.142332e+01
  -6.578595e+01  -9.872663e+01
  -5.529032e+01  -1.190115e+02
   3.262164e+01  -3.869047e+01
   1.539915e+02   3.407443e+01
   1.142756e+02   9.607654e+01
  -4.661233e+00   4.770677e+01
  -9.302873e+01   1.308775e+01
  -1.087540e+02  -4.186958e+00
  -3.299845e-01  -8.064977e+00
   3.251380e+01   4.760646e+00
   6.862950e+00  -1.614873e+01
  -2.520313e+01   4.917115e+00
   8.190773e+00  -3.299930e+01
   7.903658e+01   1.229270e+01
   1.039611e+02   1.951358e+01
   1.358161e+01   9.399587e+01
  -1.105954e+02   1.114627e+02
  -1.955164e+02   4.070826e+01
  -1.487700e+02  -7.252227e+01
  -1.985777e+01  -1.621649e+02
   5.872536e+01  -1.558516e+02
   1.140214e+02  -7.180335e+01
   4.757131e+01   5.360802e-01
   3.867021e+01   1.676497e+01
  -8.738867e-01   1.431626e+01
   2.286249e+01   1.596653e+01
   3.380142e+01   5.773573e+01
   3.469570e+01   9.551494e+01
  -3.529600e+01   7.758791e+01
  -7.266565e+01   2.519480e+00
  -9.187093e+01  -1.020470e+02
  -2.812779e+00  -1.086532e+02
   6.415785e+01  -3.851671e+01
   1.192681e+02   8.632755e+01
   8.105137e+01   7.878029e+01
  -2.770504e+01   3.612240e+01
  -1.042005e+02  -1.810834e+01
  -2.618513e+01  -3.982625e+01
   3.200338e+01  -4.402098e+01
   5.212579e+00  -2.497318e+01
  -4.409695e+01  -2.138373e+01
  -9.478168e+01   1.504932e+01
  -7.517416e+00  -7.611304e+00
   7.569484e+01  -5.539846e+01
   7.390362e+01  -4.067012e+01
   7.071264e+01   2.166010e+01
  -5.957150e+00   9.560312e+01
  -4.434874e+01   6.811026e+01
  -4.597122e+01  -1.347609e+01
  -8.399028e+00  -3.939952e+01
   1.377177e+01  -9.235969e+01
   7.793480e-01   3.563142e+01
   1.228504e+01   4.456293e+01
  -4.119038e+00  -1.493431e+00
  -2.359708e+01  -1.951163e-01
  -4.904511e+01  -5.820233e+01
  -2.422102e+01   1.863499e+01
  -3.059738e+01   2.999520e+01
   2.930134e+01  -2.616959e+01
   1.540984e+01  -6.992409e+01
   4.958458e+01  -2.496962e+01
   6.290954e+01   1.299163e+01
   2.078208e+01   5.572997e+01
  -8.651230e+00   6.330928e+01
  -3.188239e+01   1.960573e+01
  -8.404336e+01  -4.155411e+01
   6.857488e+00  -6.787258e+01
   3.235146e+01  -3.368678e+01
   9.530682e+01  -1.169740e+01
   3.070550e+01   1.260102e+01
  -5.493927e+01   9.059664e-01
  -4.081068e+01   1.372024e+01
  -1.584473e+01   4.580608e+00
   2.117015e+01   1.176188e+01
   1.027668e+00   4.467172e+01
  -3.330819e+01   3.564333e+01
  -8.819306e+01   2.268900e+01
