
 $NMID
 id='ANONYMOUS ', fmtdat='(2E16.6)'
 volume=1.0
 tramp=1.0
 $END
   2.899075e+03  -2.159506e+02
   1.988060e+03   2.098512e+03
  -5.623237e+02   2.147337e+03
  -1.770451e+03   7.361316e+02
  -8.518076e+02  -4.498424e+02
   3.613518e+02  -3.437547e+02
   6.063714e+02   2.672896e+02
  -5.082008e+01   7.639797e+02
  -7.044642e+02   6.088583e+02
  -8.009824e+02  -6.755377e+01
  -3.010815e+02  -7.546606e+02
   2.537095e+02  -7.056186e+02
   5.189784e+02  -5.418320e+01
   2.700674e+02   6.050304e+02
  -2.590386e+02   6.042327e+02
  -5.155746e+02  -3.155606e+01
  -2.577367e+02  -6.054863e+02
   2.796671e+02  -6.097556e+02
   5.027117e+02  -1.100881e+02
   3.349691e+02   2.727755e+02
  -8.265796e+00   3.646722e+02
  -2.494948e+02   2.030245e+02
  -1.550918e+02  -1.535843e+00
   1.926792e+02  -6.964070e+01
   3.521750e+02   2.211482e+02
   9.388579e+01   4.100248e+02
  -5.292887e+02   2.889442e+02
  -6.477046e+02  -1.679374e+02
  -2.652707e+02  -4.377291e+02
   3.600290e+02  -3.557375e+02
   5.601238e+02   8.521042e+01
   2.195186e+02   4.040688e+02
  -2.497756e+02   3.889452e+02
  -4.942962e+02   1.244713e+02
  -3.290713e+02  -1.983729e+02
   7.167720e+00  -3.222286e+02
   1.568684e+02  -1.665646e+02
   3.536717e+01   1.846384e+02
  -1.914066e+02   2.460923e+02
  -3.091105e+02  -1.522553e+02
  -7.975779e+01  -5.655861e+02
   3.223000e+02  -4.468594e+02
   4.363963e+02   4.753569e+01
   1.426343e+02   3.938572e+02
  -2.088232e+02   2.402541e+02
  -2.820364e+02  -2.467177e+02
   6.074342e+01  -4.211043e+02
   4.017688e+02  -8.989085e+01
   4.757468e+02   3.189050e+02
   1.726739e+02   4.851206e+02
  -2.978187e+02   2.657291e+02
  -4.592508e+02  -6.419936e+01
  -2.722620e+02  -3.022114e+02
   1.415277e+02  -2.376473e+02
   3.118438e+02  -7.014479e+01
   1.955732e+02   1.269949e+02
  -7.081604e+01   7.742811e+01
  -8.841354e+01  -6.552917e+01
   9.580593e+01  -1.361057e+02
   2.482761e+02   5.357382e+01
   1.525548e+02   2.294573e+02
  -1.243925e+02   2.188952e+02
  -3.349121e+02   1.084147e+02
  -2.171752e+02  -1.033915e+02
   1.774933e+00  -3.121893e+02
   2.570782e+02  -3.500580e+02
   3.396600e+02  -1.334803e+02
   2.223846e+02   1.645875e+02
   2.726047e+01   3.250148e+02
  -6.457505e+01   2.845831e+02
  -7.355631e+01   9.290841e+01
  -1.802465e+01   4.336265e+01
  -8.794926e+01   1.185476e+02
  -2.238797e+02   7.785307e+01
  -2.285017e+02  -9.337321e+01
  -1.272936e+02  -2.503111e+02
   1.041193e+02  -2.065679e+02
   1.927310e+02  -1.888393e+01
   1.843931e+02   2.511091e+02
  -3.101737e+01   2.584969e+02
  -2.544962e+02   9.129690e+01
  -2.789569e+02  -1.771750e+02
  -1.286018e+02  -2.817666e+02
   7.650337e+01  -2.376617e+02
   1.323087e+02  -1.091005e+02
   1.193154e+02  -2.666372e+01
   6.634276e+01  -6.095955e+01
   2.061901e+02  -2.690291e+01
   3.374794e+02   4.750165e+01
   3.191444e+02   2.536468e+02
   2.881638e+01   3.699605e+02
  -3.836595e+02   3.564410e+02
  -4.641886e+02   1.418568e+02
  -2.869452e+02  -1.245673e+02
  -3.646028e+01  -2.567939e+02
   1.328718e+02  -1.707137e+02
   5.511255e+01  -1.272746e+01
  -1.020569e+02   8.171252e+01
  -1.468736e+02  -5.657070e+00
  -3.358634e+01  -1.599870e+02
   1.566409e+02  -1.096218e+02
   1.556574e+02   3.639025e+01
  -7.324025e+00   1.310446e+02
  -1.457398e+02   2.220858e+01
  -1.218935e+02  -2.112478e+02
   1.159860e+01  -3.265150e+02
   1.985710e+02  -1.819341e+02
   2.816836e+02   5.646517e+01
   2.448488e+02   2.444038e+02
   3.866750e+01   2.842697e+02
  -1.206777e+02   1.670093e+02
  -1.548176e+02  -7.227850e-01
  -4.072698e+01  -3.051011e+01
   3.964827e+01   3.238102e+01
   1.811617e+01   8.909809e+01
  -1.080076e+02   8.692349e+01
  -1.842964e+02  -5.425134e+01
  -2.940786e+01  -5.724046e+01
   6.482361e+01  -6.696022e+00
   3.333066e+01   6.169328e+01
  -1.142470e+02   7.328662e+01
  -2.600145e+02  -7.016427e+00
  -2.050412e+02  -7.540809e+01
  -3.586547e+01  -2.259444e+02
   1.996406e+02  -2.059170e+02
   2.424216e+02  -1.033723e+02
   1.707820e+02   6.861516e+01
  -6.776345e+01   1.136565e+02
  -8.472323e+01  -2.131929e+01
   3.293465e+01  -6.732961e+01
   1.566934e+02  -2.748568e+01
   1.531479e+02   7.779411e+01
   3.663708e+01   1.528899e+02
  -1.040744e+02   1.399096e+02
  -1.238689e+02   2.914125e+01
  -8.912190e+01  -3.610709e+01
   4.263284e+01   1.762282e+01
   1.070120e+01   1.003981e+02
  -8.325548e+01   8.722642e+01
  -1.812631e+02   2.659520e+01
  -1.665111e+02  -1.027240e+02
  -3.019789e+01  -1.923990e+02
   1.458057e+02  -1.374897e+02
   1.639377e+02  -3.340424e+01
   6.165832e+01   9.012768e+01
  -6.289561e+01   1.109403e+02
  -7.730338e+01   1.559673e+01
   4.758633e-01  -1.387825e+01
   2.396219e+00  -1.296658e+00
  -8.528086e+00  -6.304905e+00
  -5.768999e+01  -4.073607e+01
  -7.441323e+01  -8.194108e+01
  -1.309258e+01  -1.287886e+02
   1.250167e+02  -1.531111e+02
   1.901598e+02  -4.403539e+01
   1.974591e+02   1.394711e+02
   3.567985e+01   2.258615e+02
  -1.170022e+02   1.195510e+02
  -1.077352e+02   1.829588e+01
  -6.519883e+01  -5.440438e+01
  -3.539383e+01  -2.824829e+01
  -3.451071e+01   1.869825e+01
  -6.246789e+01   1.440429e+01
  -4.221780e+01  -4.783114e+01
   2.758245e+01  -7.996289e+01
   9.116304e+01  -1.472925e+01
   7.942386e+01   2.983323e+01
   9.010860e-01   8.936570e+01
  -1.142431e+02   8.744244e+01
  -1.826590e+02  -6.443315e+01
  -9.440447e+01  -1.709153e+02
   1.155403e+02  -1.710358e+02
   2.346820e+02  -7.592611e+01
   1.967488e+02   8.303008e+01
   7.929744e+01   1.388077e+02
  -4.844215e+01   1.046377e+02
  -6.937777e+01   7.211648e+01
  -4.697101e+01   9.849362e+01
  -7.996862e+01   9.032228e+01
  -9.414339e+01   6.378314e+01
  -1.299609e+02  -2.057620e+01
  -5.595988e+01  -1.712920e+02
  -3.994815e+01  -1.915549e+02
   8.795339e+01  -1.362165e+02
   1.295194e+02  -2.832573e+01
   1.214353e+02   7.683747e+01
   4.990758e+00   1.537282e+02
  -4.441749e+01   7.613675e+01
  -8.925447e+01  -5.160659e+00
  -9.996705e+00  -2.858688e+01
   3.324459e+01  -3.600264e+01
  -3.708119e+01  -3.477080e+01
  -6.051708e+01  -2.227842e+01
  -4.643799e+01  -4.023403e+01
   4.411126e+01  -2.354378e+01
   1.512157e+02  -7.741709e+00
   8.248075e+01   3.976131e+01
   5.853748e+00   7.166332e+01
  -1.348656e+02   9.469146e+01
  -1.152220e+02   3.506075e+00
  -2.458967e+01  -6.545198e+01
   5.790097e+01  -4.328028e+01
   4.367780e+01   9.706850e+00
   1.514882e+01   4.362570e+01
  -3.277583e+01   6.598665e+01
  -3.405568e+01  -7.023690e+00
  -4.762210e+01  -6.509523e+01
  -7.087525e+01  -3.695567e+01
  -4.025943e+01  -1.321574e+01
  -6.795952e+01  -1.563460e+01
  -5.748082e+01  -6.898413e+01
   2.990929e+01  -1.225495e+02
   1.065918e+02  -1.435685e+02
   1.912676e+02  -8.380814e+00
   1.036130e+02   1.054482e+02
   6.325912e+00   1.206214e+02
  -9.642565e+01   6.122944e+01
  -6.492402e+01  -4.117737e+01
   4.251775e+01  -2.121220e+00
   1.060047e+02   3.023360e+01
   4.457802e+01   1.112452e+02
  -7.091396e+01   8.511144e+01
  -1.727518e+02   4.033025e+01
  -1.384454e+02  -6.899631e+01
  -2.718771e+01  -7.779374e+01
   7.473552e+01  -5.886743e+01
   5.780045e+01   1.491070e+01
  -3.829625e+01   1.747756e+01
  -7.691611e+01  -2.448437e+01
  -4.660988e+01  -1.122700e+02
   1.031801e+02  -1.281614e+02
   1.255678e+02  -3.569708e+01
   1.175151e+02   9.321338e+01
  -1.034845e+01   1.638008e+02
  -8.979437e+01   1.093829e+02
  -7.199580e+01  -3.118341e+01
  -4.362093e+01  -1.003186e+02
   5.827391e+01  -9.177625e+01
   4.952914e+01   3.255925e-01
   5.815413e+01   6.044998e+01
  -4.914366e+00   1.182503e+01
   2.539454e+01  -1.997603e+01
   2.821860e+01   3.997653e+01
   5.581355e+01   9.175192e+01
   4.342676e+01   1.126600e+02
  -4.631526e+01   5.227108e+01
  -1.229116e+02  -2.264620e+01
  -8.730464e+01  -7.253596e+01
  -2.685605e+00  -6.977412e+01
   7.257217e+01  -1.910640e+01
   6.412785e+01  -4.381480e+00
  -2.030734e-01   1.335868e+01
  -1.910291e+01   2.850595e+01
  -2.019983e+01   2.324856e+01
   1.035209e+01  -3.702265e+01
   2.915222e+01  -7.907204e+00
  -3.211159e+01   4.721952e+00
  -7.721054e+01  -3.672663e+01
   7.397910e-01  -3.737697e+01
   7.683674e+01  -1.084617e+02
   1.754702e+02  -4.550667e+01
   1.292044e+02   5.807818e+01
   2.929096e+01   1.454855e+02
  -5.777989e+01   1.161071e+02
  -8.619928e+01   5.423206e+01
  -7.362910e+01  -2.970577e+01
  -2.764225e+01  -7.073999e+01
   2.330512e+01  -4.486627e+00
  -1.073157e+01  -9.363882e+00
  -3.448391e+01  -4.915878e+01
  -3.678101e+01  -7.043353e+01
   2.060211e+01  -7.082249e+01
   6.679277e+01  -1.143374e+01
   1.166087e+02   8.652996e+01
   8.686525e+00   7.801986e+01
  -7.854208e+01   3.796212e+01
  -9.287518e+01  -5.980638e+01
  -3.641778e+01  -1.129174e+02
   6.896868e+01  -5.239884e+01
   1.120172e+02   3.287868e+01
   2.256017e+01   4.906821e+01
  -4.802468e+01   4.511740e+01
  -5.725582e+01   9.280556e-02
   2.346093e+01   1.535406e+01
   5.448479e+01  -2.007395e+01
  -2.005944e+00   3.868458e+01
  -9.591148e+01   3.125061e+01
  -1.153951e+02   1.680534e+01
  -3.606390e+01  -2.729979e+01
   3.880575e+01  -7.411900e+01
   3.241218e+01  -6.508190e+01
   2.284492e+01  -6.429155e+00
   2.112398e+01   3.848045e+01
  -1.945719e+01   5.010884e+01
   1.197632e+01   3.550933e+01
  -1.995559e+01  -3.316310e+01
  -1.357561e+01  -4.060224e+01
   3.739349e+01  -1.474530e+00
   1.930011e+01   3.242666e+01
   1.017253e+01   1.852308e+01
   1.618133e+01  -4.417387e+01
   1.851852e+01  -4.690896e+00
   9.378477e+00   4.408865e+01
  -1.290171e+01   6.508122e+01
  -1.890935e+01   8.415305e+00
  -2.873040e+01  -3.669512e+01
   4.185532e+01  -5.746458e+01
   1.698076e+01  -1.334889e+01
   7.466740e+01   5.379191e+01
  -1.312038e+01   7.428951e+01
  -7.796721e+01   1.791286e+01
  -3.814122e+01  -3.725339e+01
  -4.906443e+01  -6.264727e+01
   6.237943e+00  -4.371485e+01
   6.457170e+01  -1.412080e+01
   1.167380e+01  -1.662802e+00
  -4.924979e+01  -1.202987e+01
  -4.845421e+01   5.568067e+00
   2.804393e+01  -1.109024e+01
   9.707058e+01  -4.309763e+01
