
 $NMID
 id='ANONYMOUS ', fmtdat='(2E16.6)'
 volume=1.0
 tramp=1.0
 $END
  -2.424890e+03  -4.065600e+02
  -1.252526e+03  -1.567651e+03
  -3.044104e+01  -1.679462e+03
   1.077704e+03  -7.792061e+02
   6.614715e+02  -6.670365e+01
   3.194534e+01   1.805299e+02
  -3.034016e+02  -2.778585e+01
  -2.502987e+01  -5.205687e+02
   4.051389e+02  -5.244094e+02
   6.064581e+02  -4.459851e+01
   3.102727e+02   5.075817e+02
  -1.024417e+02   5.662782e+02
  -3.512069e+02   8.050957e+01
  -2.120940e+02  -3.680053e+02
   2.132088e+02  -4.583277e+02
   3.858755e+02   4.545541e+00
   2.148467e+02   4.242908e+02
  -1.464077e+02   5.161906e+02
  -4.549660e+02   1.803035e+02
  -3.466832e+02  -1.988745e+02
  -5.726369e+01  -3.507560e+02
   1.402080e+02  -1.643897e+02
   9.004821e+01   2.508573e+00
  -2.016898e+02  -1.913356e+01
  -2.234083e+02  -2.742545e+02
   2.570499e+01  -3.903166e+02
   4.849388e+02  -1.071397e+02
   4.640012e+02   2.307945e+02
   1.172907e+02   4.048799e+02
  -3.094554e+02   1.533583e+02
  -3.845364e+02  -1.086751e+02
  -1.126684e+02  -3.403711e+02
   2.851589e+02  -2.787942e+02
   4.218442e+02  -6.252601e+01
   2.522799e+02   1.763462e+02
   4.529923e+01   2.411132e+02
  -7.605087e+01   5.714051e+01
   4.189034e+01  -1.129650e+02
   1.752617e+02  -1.237592e+02
   1.299657e+02   1.639864e+02
  -9.218019e+01   3.951339e+02
  -3.160635e+02   3.217830e+02
  -2.699293e+02  -5.676761e+01
  -4.030785e+01  -3.665378e+02
   2.062682e+02  -1.464462e+02
   1.528310e+02   1.737278e+02
  -1.192859e+02   2.912836e+02
  -3.517162e+02   4.160280e+01
  -4.248034e+02  -3.485158e+02
  -8.310159e+01  -4.329308e+02
   2.345411e+02  -2.207116e+02
   4.045021e+02   9.530720e+01
   2.874406e+02   2.713611e+02
  -5.378890e+01   2.385799e+02
  -2.703813e+02   7.561783e+01
  -1.634451e+02  -9.916030e+01
   1.842183e+01  -2.234079e+01
   3.721853e+01   3.485655e+01
  -9.307974e+01   5.032888e+01
  -2.210285e+02  -4.718925e+01
  -9.787658e+01  -2.308042e+02
   9.903660e+01  -2.442104e+02
   3.043278e+02  -1.008787e+02
   2.338733e+02   1.216363e+02
  -5.153277e+01   2.941656e+02
  -2.478943e+02   2.534200e+02
  -3.152750e+02   7.897764e+01
  -1.597930e+02  -2.006377e+02
  -1.610405e+01  -2.927317e+02
   1.070643e+02  -2.112372e+02
   3.658949e+01  -1.254060e+02
   8.165731e+00  -6.110652e+01
   1.414365e+02  -7.392200e+01
   1.831869e+02  -2.136176e+01
   2.348617e+02   1.318440e+02
   9.399975e+01   2.379063e+02
  -1.262615e+02   1.707914e+02
  -1.371156e+02  -2.854465e+01
  -1.244687e+02  -2.045164e+02
   1.748346e+01  -2.333396e+02
   2.333284e+02  -2.411582e+01
   2.387045e+02   1.876323e+02
   1.308104e+02   2.159300e+02
  -5.514974e+01   2.292587e+02
  -1.239694e+02   6.384999e+01
  -9.103820e+01   3.952526e+01
  -1.092532e+02   6.241477e+01
  -2.207135e+02   4.959353e+01
  -3.031087e+02  -1.169074e+02
  -2.678878e+02  -2.510313e+02
   5.400046e+01  -3.591544e+02
   3.657901e+02  -2.549527e+02
   4.867719e+02  -7.018460e+01
   2.323205e+02   1.292360e+02
   2.315022e+01   2.448191e+02
  -1.026581e+02   1.311451e+02
  -2.617500e+01   4.801063e+01
   4.376641e+01  -3.497237e+01
   1.210842e+02   2.462908e+01
   1.285963e+01   9.359252e+01
  -1.045223e+02   5.561295e+01
  -7.027105e+01  -2.301418e+01
   3.259722e+01  -9.158124e+01
   1.217290e+02  -1.462567e+01
   1.163977e+02   2.187231e+02
  -9.413579e+01   2.694429e+02
  -2.016029e+02   1.780109e+02
  -2.934042e+02  -8.769394e+01
  -2.251583e+02  -2.415068e+02
   4.312852e+00  -2.443413e+02
   1.260660e+02  -1.466040e+02
   1.507926e+02  -1.398148e+01
   1.773798e+01   5.980083e+01
  -5.938116e+01  -5.774751e+01
  -2.170570e+01  -9.586202e+01
   7.793100e+01  -7.215799e+01
   1.195866e+02   1.454349e+01
   4.005640e+01   3.523354e+01
  -5.466490e+01   5.420550e+00
  -7.487415e+01  -1.068503e+02
   1.131822e+02  -7.991747e+01
   2.299115e+02   2.195514e+00
   1.945897e+02   1.730635e+02
  -3.048922e+00   2.245034e+02
  -1.814919e+02   2.051488e+02
  -2.199622e+02   3.025961e+01
  -8.923111e+01  -5.983640e+01
   4.061484e+01  -5.646598e+01
   5.881820e+01   3.790809e+01
  -1.519156e+01   7.430274e+01
  -1.512636e+02   3.300467e+00
  -1.465279e+02  -8.779872e+01
  -2.347454e+01  -1.566326e+02
   9.038903e+01  -1.038699e+02
   1.246874e+02  -2.142003e+01
   4.199998e+01   3.482254e+01
  -3.858030e+01  -6.950908e+00
  -1.181707e+01  -1.163264e+02
   8.647238e+01  -8.471004e+01
   1.488639e+02   2.419589e-01
   1.512793e+02   1.308882e+02
  -1.182806e+01   1.858582e+02
  -1.640401e+02   1.035595e+02
  -1.336338e+02   1.202813e+01
  -3.056105e+01  -8.323139e+01
   5.579378e+01  -7.343430e+01
   8.277106e+01  -2.107354e+01
   1.092280e+01   3.421430e+01
  -5.673055e+01  -2.868672e+00
  -1.971105e+01  -1.357054e+01
   7.639194e+01  -2.715273e+01
   6.489885e+01   5.919981e+01
   2.931165e+01   1.232954e+02
  -1.565695e+02   1.046765e+02
  -1.902798e+02  -6.496770e+00
  -1.290264e+02  -1.538370e+02
  -1.929204e+01  -1.851271e+02
   9.692364e+01  -1.309079e+02
   1.263283e+02  -1.362775e+00
   5.778787e+01   4.852613e+01
   5.278179e+01   3.172075e+01
   5.929529e+01   4.312062e+00
   6.971644e+01  -2.427651e+01
   5.882421e+01   2.226469e+01
  -2.772341e+01   9.291076e+01
  -1.302927e+02   6.208681e+01
  -1.003997e+02  -5.828532e+01
   5.735551e+00  -1.022401e+02
   1.448344e+02  -5.689548e+01
   1.812626e+02   5.660779e+01
   5.801165e+01   1.821892e+02
  -1.090228e+02   2.137082e+02
  -2.311914e+02   7.255301e+01
  -1.550755e+02  -8.460354e+01
  -7.190274e+01  -1.555682e+02
   4.546535e+01  -1.280121e+02
   1.203803e+02  -8.573487e+01
   6.595645e+01  -4.984250e+01
   1.803617e+01  -5.221093e+01
   5.989450e+01  -4.124012e+01
   1.139437e+02   4.037298e+01
   5.639835e+01   1.311234e+02
  -1.021592e+01   1.761384e+02
  -1.121550e+02   1.356664e+02
  -1.345819e+02  -1.605736e+01
  -8.602061e+01  -1.050821e+02
   1.574326e+01  -1.287356e+02
   9.588269e+01  -5.084482e+01
   3.190462e+01   3.582663e+00
  -2.149999e+01   2.293534e+01
  -4.311358e+01   1.611299e+01
  -9.238659e+00   9.291608e+00
   3.709158e+01  -1.912246e+01
   2.750046e+01   1.808592e+01
  -4.241256e+01   4.456920e+01
  -1.117214e+02  -6.593388e+00
  -1.032583e+02  -6.739657e+01
  -2.022816e+01  -9.669618e+01
   1.111456e+02  -4.991763e+01
   1.182965e+02   1.041071e+01
   1.187824e+01   5.634452e+01
  -4.001888e+01   4.747011e+01
  -7.481728e+01  -3.095493e+01
  -3.460007e+01  -7.171402e+01
  -1.912717e+00  -5.706153e+01
   7.116375e+01  -8.018153e+00
   3.339803e+01   4.119853e+01
   1.658358e+01   3.396108e+01
   3.569150e+01  -8.126861e+00
   4.334845e+01  -1.208425e+01
   3.137489e+01   4.374222e+01
  -2.952078e+01   1.082650e+02
  -6.999571e+01   1.335829e+02
  -1.618986e+02   3.316471e+01
  -9.395987e+01  -8.295112e+01
   1.581476e+01  -1.075193e+02
   1.019228e+02  -3.626935e+01
   2.213111e+01   2.750459e+00
  -3.803303e+01   2.801654e+01
  -9.337021e+01   2.427963e+00
  -2.818170e+01  -5.756042e+01
   7.573014e+01  -8.745204e+01
   1.591665e+02  -4.245673e+00
   1.211978e+02   5.889086e+01
   2.898279e+01   7.120608e+01
  -9.912658e+01   2.012671e+01
  -5.360041e+01  -1.402614e+01
   2.150497e+01  -5.930107e+01
   6.463380e+01   2.236939e+01
   2.011981e+01   9.858790e+01
  -4.500705e+01   1.622930e+02
  -1.074141e+02   8.370131e+01
  -1.135830e+02  -1.015815e+02
   2.119983e+01  -1.824688e+02
   8.782371e+01  -7.720282e+01
   1.003988e+02   1.579345e+01
   3.685168e+01   1.034526e+02
  -6.250280e+00   5.758599e+01
  -1.681643e+01   3.598539e+01
  -3.370183e+01  -2.260798e+01
  -4.117886e+01  -2.699622e+01
  -1.483322e+01   1.309376e+01
  -2.493954e+01  -4.710526e+00
  -2.890212e+01  -7.300258e+01
  -1.738252e+00  -1.037670e+02
   9.554715e+01  -3.167193e+01
   9.480153e+01   4.266902e+01
   7.167234e+01   9.155241e+01
   2.543621e+00   4.277814e+01
  -7.451490e+01   2.458049e+01
  -9.167543e+01  -5.222639e+00
  -2.611619e+01  -4.288721e+00
   2.780276e+01  -1.187477e+01
   1.908172e+01  -2.016161e+01
  -1.020370e+01  -5.429334e+00
  -2.881665e+01  -1.308432e+00
   4.605202e+01   1.761195e+00
   5.429770e+01   4.486548e+01
   7.210152e+00   4.672780e+01
  -8.680231e+01   8.334836e+01
  -1.713016e+02   4.739554e+01
  -1.420391e+02  -6.673234e+01
  -4.443745e+01  -1.534323e+02
   9.927376e+01  -1.230051e+02
   1.171019e+02  -6.090867e+01
   5.991432e+01  -4.472856e-01
   1.905192e+01   2.720696e+01
  -6.035277e+00   7.728798e+00
  -1.037978e+01  -1.175939e+00
  -1.038993e+01   3.561760e+01
  -2.687182e+01   9.802706e+01
  -3.499790e+01   3.392669e+01
  -4.854315e+01  -1.854105e+01
  -4.103367e+01  -7.107768e+01
  -2.727186e+01  -1.028030e+02
   7.369805e+01  -7.604201e+00
   1.019870e+02   5.274797e+01
   2.115350e+01   9.225381e+01
  -6.314116e+01   4.771024e+01
  -8.047307e+01   2.464668e+01
  -4.843514e+01  -7.891816e+01
   3.582024e+01  -7.805644e+01
   3.792638e+01  -3.155273e+01
  -1.604593e+01   1.739009e+01
  -5.628571e+01   7.609777e+00
  -1.893188e+01  -1.137067e+01
   3.261912e+01  -7.013817e+01
   1.121811e+02  -3.781200e+01
   4.228071e+01   2.356248e+00
  -2.080183e+01   5.247288e+01
  -4.434320e+01   5.990419e+01
  -6.875629e+01   2.118777e+01
   5.288932e+00  -3.735203e+01
   2.165037e+01  -3.756998e+01
   5.804096e+01   6.979495e+00
   1.942475e+00   4.232833e+01
  -1.409538e+01   3.487881e+01
  -3.131602e+01  -2.987203e+01
  -3.907077e+01  -2.404931e+01
  -3.502497e+01  -1.836612e+01
  -6.418887e+00   2.693845e+01
   1.260528e+01   1.478261e+00
   1.127401e+01  -4.100315e+01
  -2.742402e+00  -6.197539e+01
   6.733004e+00   1.250692e+01
   3.405892e+01   5.513179e+01
  -7.050559e+00   5.529730e+01
  -2.822814e+01   5.669879e+00
  -4.481844e+01  -4.612777e+01
  -4.163719e+01  -3.762594e+01
   3.045451e+01  -5.104918e+01
   9.428536e+01  -1.623017e+01
   4.348735e+01   1.352333e+01
  -3.016599e+01   6.183969e+01
  -3.697196e+01   2.327278e+01
  -1.911869e+01  -2.099865e+01
   1.990653e+01   2.568330e+01
   1.783772e+01   1.363329e+00
  -1.946075e+01  -1.586071e+01
  -5.185985e+01  -3.250263e+01
