
 $NMID
 id='ANONYMOUS ', fmtdat='(2E16.6)'
 volume=1.0
 tramp=1.0
 $END
  -2.357292e+03  -5.475003e+02
  -1.299448e+03  -1.366767e+03
   2.459357e+02  -1.599512e+03
   1.064794e+03  -8.215168e+02
   8.911950e+02  -2.298210e+02
   2.014976e+02   1.379941e+02
  -3.032905e+02   6.343637e+00
  -7.453908e+01  -3.763504e+02
   3.550011e+02  -4.791545e+02
   6.028258e+02  -1.158946e+02
   3.846402e+02   4.464471e+02
  -2.929772e+01   4.928869e+02
  -2.577542e+02   1.842517e+02
  -2.084764e+02  -3.023190e+02
   1.182490e+02  -4.137987e+02
   3.680379e+02  -1.177406e+01
   2.868560e+02   4.320742e+02
  -1.241599e+02   5.735062e+02
  -4.680491e+02   2.071694e+02
  -4.093386e+02  -2.200075e+02
  -7.502191e+01  -3.427014e+02
   1.182147e+02  -2.023177e+02
   5.895939e+01  -5.781909e+01
  -1.709488e+02  -1.074065e+02
  -2.316401e+02  -2.117937e+02
   9.082386e+01  -2.894117e+02
   3.594387e+02  -5.576266e+01
   4.270426e+02   2.096064e+02
   1.637609e+02   2.977043e+02
  -2.915047e+02   1.312141e+02
  -3.415079e+02  -1.296307e+02
  -8.663654e+01  -2.555424e+02
   1.737257e+02  -2.589370e+02
   3.804206e+02  -4.171283e+01
   2.267202e+02   1.444724e+02
   5.435696e+01   2.445800e+02
  -5.660021e+01   1.454737e+02
   2.652510e+01  -9.051444e+01
   1.987824e+02  -1.109122e+02
   9.532414e+01   1.300989e+02
  -7.412888e+00   3.604317e+02
  -2.528321e+02   2.784508e+02
  -2.416485e+02   6.074675e-01
  -8.543434e+01  -2.364931e+02
   1.110005e+02  -9.126911e+01
   9.210450e+01   1.776569e+02
  -9.257670e+01   2.950142e+02
  -3.111686e+02   6.966548e+01
  -3.830053e+02  -3.375960e+02
  -8.687655e+01  -3.801465e+02
   2.168916e+02  -2.305461e+02
   4.113573e+02   4.214169e+01
   2.326850e+02   2.369565e+02
  -6.853589e+01   2.197129e+02
  -2.140647e+02   6.525470e+01
  -1.554465e+02  -3.522717e+01
  -6.028644e+00  -1.019556e+01
   2.391535e+00   3.648247e+01
  -1.041620e+02   5.526732e+01
  -1.835397e+02  -7.031123e+01
  -1.173802e+02  -1.814550e+02
   1.471075e+02  -2.098388e+02
   2.713210e+02  -1.057866e+02
   2.189657e+02   1.327625e+02
  -3.922746e+01   2.604745e+02
  -2.354567e+02   2.794578e+02
  -2.608387e+02   3.173623e+01
  -1.812857e+02  -1.400223e+02
  -3.327642e+00  -2.718770e+02
   6.005086e+01  -2.071791e+02
  -7.597427e-01  -1.250509e+02
   1.905746e+01  -8.215384e+01
   1.073315e+02  -1.157578e+02
   2.116841e+02  -4.050436e+01
   2.097754e+02   1.192689e+02
   6.362165e+01   2.131390e+02
  -7.454813e+01   1.351374e+02
  -1.684645e+02  -3.416386e+01
  -9.203845e+01  -1.929793e+02
   2.361000e+01  -1.992299e+02
   2.196356e+02  -3.560235e+01
   2.262816e+02   1.441905e+02
   8.046572e+01   1.785666e+02
  -6.145903e+01   1.659797e+02
  -1.187494e+02   1.009799e+02
  -1.124685e+02   6.988459e+01
  -1.179450e+02   4.632135e+01
  -1.804779e+02   3.439930e+01
  -2.771074e+02  -9.616213e+01
  -2.325605e+02  -2.509500e+02
   3.121122e+01  -3.268994e+02
   3.168544e+02  -2.750247e+02
   3.819617e+02  -7.625691e+01
   2.504466e+02   9.676153e+01
   4.080416e+01   2.168315e+02
  -8.115423e+01   1.728649e+02
  -1.782488e+01   3.545050e+01
   9.507434e+01  -1.818786e+01
   1.249298e+02   7.823375e+01
  -1.715425e+01   9.451845e+01
  -1.142942e+02   5.325233e+01
  -5.192757e+01  -3.733747e+01
   3.862340e+01  -1.073712e+02
   1.367456e+02  -1.017288e+01
   8.882642e+01   2.037416e+02
  -3.393523e+01   2.736020e+02
  -1.748692e+02   1.541512e+02
  -2.687165e+02  -4.337182e+01
  -1.797281e+02  -2.237380e+02
   8.808906e+00  -2.151056e+02
   8.603961e+01  -1.340954e+02
   1.141600e+02   1.111860e+01
   2.106355e+01   5.960876e+00
  -7.368950e+01  -1.275719e+01
   1.913048e+01  -7.738489e+01
   8.762028e+01  -7.134119e+01
   1.008455e+02   4.890418e+01
   2.730751e+01   1.928802e+01
  -8.676998e+01  -1.515713e+01
  -6.534654e+01  -7.881525e+01
   1.237424e+02  -6.714917e+01
   2.495201e+02   4.104723e+01
   1.838261e+02   1.626240e+02
  -7.090671e+00   2.024623e+02
  -1.702015e+02   1.940189e+02
  -2.234996e+02   1.108753e+01
  -1.161721e+02  -8.483785e+01
   1.858279e+01  -4.764933e+01
   3.566011e+01   3.508138e+01
  -4.299188e+01   4.546606e+01
  -1.354319e+02   9.582673e+00
  -1.196279e+02  -9.665523e+01
  -2.566254e+01  -1.353717e+02
   6.101767e+01  -1.165839e+02
   9.861077e+01   2.434876e+01
   2.187316e+01   2.893801e+01
  -4.392680e+01  -2.199788e+01
  -2.181406e+01  -1.213757e+02
   1.058739e+02  -8.974030e+01
   1.518066e+02   3.648381e+00
   1.488056e+02   1.243561e+02
  -1.206662e+01   1.463445e+02
  -1.010845e+02   9.926821e+01
  -1.248841e+02   3.149372e+01
  -3.353480e+01  -1.000902e+02
   2.060053e+01  -5.896759e+01
   4.785719e+01  -3.516421e+01
  -9.879085e+00   2.714807e+01
  -4.209419e+01   3.749208e+01
  -2.567695e+01  -2.197532e+01
   3.476383e+01  -1.354260e+01
   8.138890e+01   6.912748e+01
   1.176827e+01   1.696806e+02
  -1.373970e+02   1.082930e+02
  -2.101953e+02  -2.182787e+01
  -1.308078e+02  -1.685120e+02
  -5.341615e+01  -1.918605e+02
   1.065137e+02  -1.290641e+02
   1.133853e+02  -1.410737e+01
   4.578801e+01   5.273668e+01
   3.739428e+01   3.969756e+00
   3.579539e+01  -2.723419e+01
   6.603644e+01   8.729083e+00
   4.551102e+01   4.038164e+01
  -4.249390e+01   1.083659e+02
  -1.010498e+02   5.463563e+01
  -9.152271e+01  -5.350398e+01
   1.986668e+01  -1.130625e+02
   1.374029e+02  -2.444958e+01
   1.712215e+02   7.236289e+01
   8.333384e+01   1.875961e+02
  -6.511512e+01   1.551318e+02
  -2.140179e+02   8.282201e+01
  -1.616027e+02  -8.492135e+01
  -7.764796e+01  -1.044585e+02
   6.275222e+01  -8.923251e+01
   8.200242e+01  -8.913165e+01
   3.057678e+01  -2.847597e+01
   3.962552e+01  -6.479865e+01
   7.902622e+01  -3.864011e+01
   1.113070e+02   4.106192e+01
   8.260371e+01   1.249240e+02
   2.092474e+01   2.021433e+02
  -1.057823e+02   1.397569e+02
  -1.351711e+02   2.387593e+01
  -1.009497e+02  -1.056570e+02
   6.733317e+00  -9.848102e+01
   6.461039e+01  -7.080607e+01
   4.759762e+01   1.063784e+01
   1.843987e+01   4.272167e+01
  -2.873636e+01   4.720475e-01
   2.365228e+01  -3.670632e+01
   5.604628e+01   1.652298e+01
   4.058730e+01   5.417124e+01
  -5.723229e+01   4.344718e+01
  -1.244687e+02  -6.249023e+00
  -1.028335e+02  -6.187716e+01
   1.017118e+01  -9.841515e+01
   9.753656e+01  -5.716123e+01
   1.207741e+02  -8.383388e+00
   3.048054e+01   5.688220e+01
  -4.556451e+01   2.348037e+01
  -6.379074e+01  -2.398854e+01
   8.923639e+00  -5.754724e+01
   3.866058e+01  -3.029650e+01
   7.706224e+01  -1.674713e+01
   3.509538e+01   5.681122e+01
   4.211050e+01   4.596049e+01
   4.117649e+01   9.425450e+00
   7.835801e+00  -2.207416e+01
   4.046680e+01   3.577105e+01
  -4.193842e-01   1.083068e+02
  -9.233284e+01   1.197792e+02
  -1.894380e+02   1.133968e+01
  -9.088298e+01  -9.278429e+01
   2.256616e+00  -1.157390e+02
   9.865632e+01  -4.811874e+01
   4.836743e+01   1.743560e+01
  -6.747053e+01   3.053040e+01
  -8.755122e+01  -4.256438e+01
  -5.780608e+01  -8.629617e+01
   7.290524e+01  -6.510585e+01
   1.518188e+02  -5.357708e+01
   1.442942e+02   3.078910e+01
   3.374227e+01   6.209557e+01
  -7.415444e+01   4.910989e+01
  -4.693973e+01  -8.300172e-01
   9.395443e+00  -2.118388e+01
   9.284313e+01  -2.039631e+01
   5.201463e+01   7.613598e+01
  -4.545901e+01   1.495990e+02
  -1.145081e+02   6.626517e+01
  -1.145677e+02  -6.431767e+01
   6.929099e+00  -1.810851e+02
   7.635089e+01  -1.444577e+02
   1.056766e+02   1.334223e+00
   3.899171e+01   1.316792e+02
  -2.554163e+01   1.024670e+02
  -3.593444e+01  -3.412296e+00
  -2.482727e+01  -2.117749e+01
  -4.360999e+01  -1.838340e+01
   9.514545e+00   9.558545e+00
  -1.564304e+01  -5.324204e+01
  -4.011750e+01  -8.002921e+01
  -5.916949e+00  -9.711329e+01
   4.964383e+01  -6.251171e+01
   1.434577e+02   8.609472e+00
   6.822220e+01   7.881613e+01
   1.019262e+01   6.007063e+01
  -6.096730e+01   4.126816e+01
  -7.138267e+01   7.189296e+00
  -3.588096e+01  -2.573620e+00
   3.380240e+01  -2.905855e+01
   4.540138e+01  -3.474444e+01
  -6.873925e+00  -1.376678e+00
  -1.242460e+01  -8.715868e-02
   6.703770e+01   1.343724e+00
   7.121416e+01   3.099694e+01
   2.674941e+01   5.830443e+01
  -7.917082e+01   7.455165e+01
  -1.793547e+02   6.174353e+01
  -1.182207e+02  -2.782083e+01
  -2.049944e+01  -1.219637e+02
   6.846447e+01  -1.250369e+02
   7.964500e+01  -5.253041e+01
   3.232556e+01   1.232402e+01
   1.357019e+01   3.670393e+01
  -3.427245e+01   6.036943e+00
  -1.176719e+01   9.884363e-01
   2.840127e+01   2.980671e+01
  -7.111003e+00   6.180097e+01
  -2.523484e+01   5.148878e+01
  -8.134068e+01  -1.720948e+01
  -9.410289e+01  -9.150435e+01
  -1.221748e+01  -8.032466e+01
   8.072254e+01  -2.768736e+01
   9.686489e+01   4.944074e+01
   3.651885e+01   9.613932e+01
  -4.859076e+01   4.155586e+01
  -9.002162e+01  -3.489729e+01
  -3.611460e+01  -6.179356e+01
   4.466918e+01  -4.314501e+01
   6.081583e+01  -3.306061e+01
  -7.898524e+00   4.098980e+01
  -3.879893e+01   2.988515e+01
  -1.370274e+01  -3.145891e+01
   3.266099e+01  -5.178329e+01
   1.064973e+02  -4.677891e+01
   6.480148e+01   3.951181e+01
  -7.780548e+00   4.207782e+01
  -2.891363e+01   5.143457e+01
  -2.311731e+01  -8.021205e+00
   1.231004e+01  -3.897207e+01
   1.470063e+01  -2.139937e+01
   3.073661e+01   8.099169e+00
   2.262968e+01   3.607878e+01
   7.056500e+00   3.389308e+01
   1.194776e+00  -2.335448e+01
  -3.036675e+01  -2.995919e+01
   2.306953e+01   2.626059e+00
   1.034535e+01   2.593243e+01
   4.660207e+00  -6.090750e+00
  -2.087676e+01  -9.747212e+00
  -1.849262e+01  -5.436567e+01
   1.797661e+01  -5.789176e+00
   2.625671e+01   4.007857e+01
   1.348190e+01   3.028872e+01
  -1.396329e+01   1.103505e+01
  -6.510711e+00  -3.133089e+01
  -1.420380e+01  -2.094447e+01
   1.928736e+01  -3.735787e+01
   9.563494e+01   1.486453e+01
   5.277322e+01   3.062393e+01
  -2.272486e+01   8.295311e+01
  -4.245263e+01   8.567404e+00
  -4.831735e+01  -2.458924e-01
   3.394490e+01   9.247583e+00
   2.221798e+01   2.513894e+01
   2.193405e+00   7.468339e+00
  -6.015833e+01   1.123481e+01
