
 $NMID
 id='ANONYMOUS ', fmtdat='(2E16.6)'
 volume=1.0
 tramp=1.0
 $END
   2.800651e+03   4.839390e+02
   1.571028e+03   1.562193e+03
  -3.061643e+02   1.723732e+03
  -1.403468e+03   8.456236e+02
  -9.690816e+02  -6.485872e+01
  -1.064200e+02  -2.268166e+02
   4.289152e+02   5.673080e+01
   7.637877e+01   5.483340e+02
  -4.164872e+02   5.532634e+02
  -6.404118e+02   5.176837e+01
  -3.896850e+02  -4.908805e+02
   3.736251e+01  -5.960543e+02
   3.285979e+02  -1.855410e+02
   2.047188e+02   3.946646e+02
  -1.365240e+02   4.737658e+02
  -4.216263e+02   4.483397e+01
  -2.570079e+02  -5.184763e+02
   2.157415e+02  -6.055455e+02
   4.875081e+02  -1.784337e+02
   4.087941e+02   2.364783e+02
   1.204904e+02   3.736952e+02
  -1.172917e+02   1.901634e+02
  -6.204662e+01   6.499355e+01
   1.657059e+02   5.938955e+01
   2.581805e+02   2.616321e+02
  -8.360376e+01   3.635499e+02
  -4.607373e+02   9.167028e+01
  -5.178621e+02  -2.451960e+02
  -1.904264e+02  -3.782161e+02
   3.680833e+02  -2.060313e+02
   4.902035e+02   1.203509e+02
   1.248635e+02   3.391024e+02
  -2.602613e+02   2.910904e+02
  -3.974851e+02   4.631357e+01
  -2.277016e+02  -1.376752e+02
  -6.635080e+01  -2.829274e+02
   5.355944e+01  -1.366273e+02
  -6.229169e+01   9.599233e+01
  -2.375053e+02   1.190280e+02
  -1.821115e+02  -1.558604e+02
   2.411713e+00  -4.271294e+02
   3.249288e+02  -3.202628e+02
   3.325505e+02   4.477808e+01
   8.472606e+01   3.644948e+02
  -1.317318e+02   1.612090e+02
  -1.687756e+02  -2.411001e+02
   9.987954e+01  -3.305965e+02
   3.770216e+02  -6.929297e+00
   4.328448e+02   3.213796e+02
   1.551320e+02   3.960713e+02
  -2.835649e+02   2.404627e+02
  -4.780061e+02  -1.154935e+02
  -2.737483e+02  -2.749450e+02
   7.211042e+01  -2.063058e+02
   2.762877e+02  -1.058378e+02
   2.019767e+02   4.696882e+01
  -1.240070e+01   1.466002e+01
  -4.759424e+01  -4.530498e+01
   1.070637e+02  -3.193827e+01
   2.437138e+02   9.046778e+01
   1.382456e+02   1.838845e+02
  -1.441048e+02   2.293365e+02
  -3.039428e+02   1.142476e+02
  -2.844743e+02  -8.759879e+01
   4.193601e+01  -2.963928e+02
   2.951908e+02  -2.881686e+02
   3.252582e+02  -4.466760e+01
   1.839487e+02   1.484351e+02
   7.006218e+00   2.858211e+02
  -6.804375e+01   2.958944e+02
  -4.056798e+01   1.331935e+02
  -5.911369e+01   8.429967e+01
  -1.277455e+02   1.299077e+02
  -2.240706e+02   6.687114e+01
  -2.384704e+02  -1.205328e+02
  -1.003988e+02  -2.592123e+02
   8.285276e+01  -1.591537e+02
   1.820739e+02   4.408375e+01
   9.218967e+01   2.354675e+02
  -7.212828e+00   2.154060e+02
  -2.142745e+02   7.209435e+01
  -2.814876e+02  -1.413251e+02
  -1.305122e+02  -2.804148e+02
   8.412802e+01  -2.094409e+02
   1.375667e+02  -1.174159e+02
   1.025199e+02  -4.540525e+01
   1.168644e+02  -5.841455e+01
   2.165600e+02  -3.303155e+01
   3.732789e+02   1.156917e+02
   3.138381e+02   3.093847e+02
  -4.055510e+01   4.184649e+02
  -3.073912e+02   3.310358e+02
  -4.387456e+02   1.496600e+02
  -3.051169e+02  -8.870367e+01
   6.193536e+00  -2.403908e+02
   1.020059e+02  -2.031604e+02
   4.297201e+01  -4.564264e+01
  -1.279748e+02   4.271340e+01
  -1.523115e+02  -6.954629e+01
   1.830098e+00  -1.363412e+02
   1.163344e+02  -6.750614e+01
   7.796440e+01   4.819929e+01
  -3.233771e+01   8.432316e+01
  -1.576818e+02   4.965070e+00
  -1.177392e+02  -2.375986e+02
   5.356341e+01  -2.927206e+02
   2.139865e+02  -1.438873e+02
   3.306122e+02   9.242041e+01
   2.228397e+02   2.516268e+02
   4.370070e+01   2.153171e+02
  -1.090674e+02   1.244665e+02
  -1.164175e+02   1.087329e+01
  -2.976139e+01  -1.699418e+01
   4.639217e+01   5.166149e+01
   8.109763e+00   1.088585e+02
  -1.555876e+02   5.516084e+01
  -1.222458e+02  -4.779336e+01
  -3.301808e+01  -6.114417e+01
   9.007185e+01  -2.290031e+01
   2.206925e+01   1.130552e+02
  -1.525692e+02   5.936701e+01
  -2.881089e+02  -3.867847e+01
  -2.260794e+02  -1.376776e+02
  -2.229737e+00  -2.520388e+02
   1.874322e+02  -2.290765e+02
   2.553381e+02  -5.077269e+01
   1.189262e+02   7.710485e+01
  -2.182007e+01   4.511308e+01
  -3.747621e+01  -5.343807e+01
   2.706794e+01  -5.315249e+01
   1.402479e+02  -1.130765e+01
   1.446308e+02   9.394294e+01
   4.391112e+01   1.492230e+02
  -9.840103e+01   1.037865e+02
  -9.032271e+01  -4.369014e+00
  -2.572471e+01  -5.685677e+01
   7.545765e+01   4.078079e+01
   4.030399e+01   1.027593e+02
  -1.098375e+02   1.196022e+02
  -1.780192e+02  -1.295283e+01
  -1.588522e+02  -1.377019e+02
   5.799761e+00  -1.807071e+02
   1.274435e+02  -7.889103e+01
   1.443962e+02  -1.196775e+01
   3.789451e+01   7.536028e+01
  -6.545328e+01   6.935660e+01
  -7.780650e+01   1.361853e+00
  -6.462454e+00  -2.336755e+01
   3.069443e+01   8.091859e+00
   3.590980e-01  -1.472540e+00
  -5.443540e+01   1.445236e+01
  -7.449183e+01  -9.224367e+01
  -1.714838e+01  -1.825542e+02
   1.400583e+02  -1.171266e+02
   2.455713e+02   4.045631e+01
   1.176263e+02   1.992513e+02
  -1.882192e+01   1.952929e+02
  -1.097631e+02   1.182279e+02
  -1.227095e+02  -9.555592e+00
  -5.046021e+01  -4.892502e+01
  -2.084361e+01  -3.095986e+01
  -6.171981e+01   2.891790e+00
  -6.702329e+01   1.781536e+01
  -3.654093e+01  -5.734968e+01
   4.472840e+01  -1.089816e+02
   1.392101e+02  -9.391835e+01
   1.064070e+02   6.771518e+01
  -3.621827e+00   1.287059e+02
  -1.732050e+02   3.990131e+01
  -1.685802e+02  -8.015704e+01
  -7.197867e+01  -2.152140e+02
   1.096516e+02  -2.149230e+02
   2.008194e+02  -7.833103e+01
   2.138337e+02   6.546427e+01
   7.626850e+01   1.448967e+02
  -4.640623e+01   1.256453e+02
  -1.134544e+02   8.895632e+01
  -5.160804e+01   5.172295e+01
  -5.569896e+01   6.296417e+01
  -1.016190e+02   5.120822e+01
  -9.436731e+01  -2.583989e+01
  -1.042838e+02  -1.526368e+02
  -1.380162e+01  -1.903672e+02
   9.968365e+01  -1.463389e+02
   1.431908e+02   1.945710e+01
   8.773357e+01   7.993882e+01
  -2.444058e+01   1.486494e+02
  -8.802094e+01   6.082655e+01
  -7.025839e+01  -1.995974e+01
  -1.059487e+01  -6.689388e+01
   3.183583e+01  -3.162557e+00
  -4.473424e+01   8.125562e+00
  -1.087539e+02  -4.589809e+01
  -3.986601e+01  -4.576484e+01
   6.872496e+01  -4.450139e+01
   1.436802e+02  -1.227727e+01
   1.507899e+02   8.297536e+01
  -4.010646e+00   1.061017e+02
  -1.304385e+02   8.844294e+01
  -1.252604e+02   8.127839e-01
  -3.015189e+01  -6.135517e+01
   5.335665e+01  -2.725029e+01
   1.149922e+02   1.521280e+01
  -1.029323e+01   7.199514e+01
  -4.896165e+01   3.004079e+01
  -5.818059e+01  -3.275328e+00
  -5.178159e+01  -7.479409e+01
  -1.290013e+01  -2.151377e+01
  -3.178399e+01   2.115762e+01
  -4.069679e+01   5.262703e+00
  -5.516163e+01  -4.952673e+01
   3.221526e+01  -1.118590e+02
   1.020031e+02  -1.481109e+02
   1.713176e+02  -3.433718e+01
   8.186481e+01   6.919120e+01
  -5.226035e+00   1.203633e+02
  -6.450463e+01   1.781073e+01
  -7.166808e+01  -2.702178e+01
   4.373559e+01  -5.337396e+00
   1.186899e+02   4.533919e+01
   4.478100e+01   8.280702e+01
  -9.663413e+01   9.283399e+01
  -1.585594e+02   6.241410e+01
  -1.810336e+02  -4.645906e+01
  -1.300336e+01  -7.638746e+01
   8.545885e+01   2.061725e-01
   4.052598e+01  -2.196012e+01
  -3.731743e+01   6.622503e+01
  -7.796708e+01   1.398753e+01
  -4.740216e+01  -1.242421e+02
   7.248418e+01  -1.545235e+02
   1.412919e+02  -5.744811e+01
   1.067827e+02   8.524048e+01
   6.396711e+00   1.869056e+02
  -9.531153e+01   9.947974e+01
  -9.636095e+01  -3.803581e+01
  -2.835248e+01  -8.855641e+01
   3.352533e+01  -1.099065e+02
   4.633164e+01  -3.750477e+01
   2.409466e+01   3.996389e+01
   3.854400e+01  -2.332222e+01
  -1.594200e+00  -1.508080e+01
   3.885329e+01   2.126562e+01
   7.561924e+01   1.028705e+02
  -1.128097e+01   1.026754e+02
  -5.735022e+01   4.915374e+01
  -1.228891e+02  -3.896576e+01
  -9.023487e+01  -8.076836e+01
  -3.775959e+01  -3.288933e+01
   6.415963e+01  -2.404862e+00
   8.065502e+01   1.175837e+01
   3.834576e+01   9.581809e+00
  -5.498913e+01   2.136522e+01
  -3.153083e+01   1.407518e+01
   4.361019e+01   4.968932e+00
   2.017690e+01   2.242027e-01
  -4.295110e+01   2.013504e+01
  -9.839545e+01  -2.790251e+01
  -5.551219e+00  -6.891584e+01
   9.909750e+01  -4.844161e+01
   1.918952e+02  -7.722285e+01
   1.400859e+02   3.540989e+01
  -1.250623e+01   1.430422e+02
  -4.771683e+01   1.475730e+02
  -1.280700e+02   7.002297e+01
  -4.895918e+01  -3.496321e+01
  -2.740098e+01  -3.928374e+01
   3.710757e+00  -2.794002e+01
   2.509525e+01  -1.019632e+01
  -1.794183e+01  -2.415640e+01
   5.985247e+00  -7.034529e+01
   5.002523e+01  -6.861555e+01
   5.096968e+01   2.618725e+01
   8.424665e+01   1.036003e+02
  -1.913968e+01   1.279141e+02
  -9.398801e+01   4.306068e+01
  -1.247432e+02  -7.241853e+01
  -5.529990e+01  -7.781556e+01
   2.784309e+01  -4.986389e+01
   7.775827e+01  -1.935100e+00
   5.597189e+01   4.843617e+01
  -3.378615e+01   4.624605e+01
  -6.337845e+00   2.441233e+01
   3.661033e+01  -1.278519e+01
   2.712359e+01  -2.166986e+01
   3.007529e+01   3.687153e+00
  -7.405541e+01   5.587053e+01
  -1.092447e+02   2.227102e+01
  -8.860211e+01  -1.267953e+01
   3.456395e+01  -4.444140e+01
   7.874283e+01  -4.550551e+01
   3.372709e+01  -1.267518e+01
  -1.286316e+01   5.283748e+01
  -6.399588e+01   4.213114e+01
  -3.095538e+01  -2.916785e+00
  -2.636869e+01  -4.823909e+01
   1.795613e+01  -3.936861e+01
   3.615225e+01   6.447575e+00
   3.500367e+01   4.319249e+01
   1.234888e+01  -3.125743e+00
  -1.248666e+00  -2.100159e+01
  -4.131757e+00  -1.358758e+01
   1.671432e+01   9.234891e+00
   1.106416e+00   5.345688e+01
  -4.945129e+01   3.486179e+01
  -3.194668e+01  -3.180452e+01
  -1.195724e+01  -3.901897e+01
   8.362597e+01  -2.981083e+01
   5.052066e+01   3.988644e+01
   1.118196e+01   7.500573e+01
  -3.490782e+01   6.004240e+01
  -7.868061e+01   3.009789e-01
  -4.408711e+01  -4.183062e+01
   1.191645e+01  -3.976714e+01
   3.248681e+01   6.726954e+00
   1.213634e+01  -4.893182e+00
  -2.048355e+01  -4.933643e+00
  -4.553264e+01   6.534264e-01
   2.603324e+01  -3.886605e+01
   6.878162e+01  -5.950756e+00
