
 $NMID
 id='ANONYMOUS ', fmtdat='(2E16.6)'
 volume=1.0
 tramp=1.0
 $END
   3.403427e+03   2.884126e+02
   1.991780e+03   1.946270e+03
  -2.336234e+02   2.498572e+03
  -1.483772e+03   1.044628e+03
  -8.755774e+02  -1.820507e+02
   2.547456e+02  -7.463119e+01
   5.223382e+02   3.193223e+02
  -3.660284e+01   6.408498e+02
  -5.564449e+02   5.940426e+02
  -7.278021e+02  -7.111654e+01
  -2.936191e+02  -6.160932e+02
   1.628148e+02  -6.692115e+02
   3.877917e+02  -6.575502e+01
   2.256239e+02   5.879913e+02
  -1.753717e+02   5.718997e+02
  -4.661277e+02   3.521872e+01
  -2.212412e+02  -5.767754e+02
   2.100201e+02  -5.441362e+02
   4.869247e+02  -1.416901e+02
   3.972074e+02   2.157527e+02
   7.546468e+01   3.339609e+02
  -1.396953e+02   2.402167e+02
  -8.443684e+01   8.094086e+01
   2.093984e+02   1.184347e+01
   3.099443e+02   2.973071e+02
   3.164352e+01   4.323622e+02
  -4.659637e+02   2.158899e+02
  -6.849783e+02  -1.762948e+02
  -2.499144e+02  -4.600163e+02
   3.971331e+02  -3.132779e+02
   5.664051e+02   9.594026e+01
   1.878184e+02   4.315021e+02
  -2.949753e+02   3.902851e+02
  -4.701089e+02   1.266271e+02
  -3.393453e+02  -2.184811e+02
  -6.088465e+01  -3.683420e+02
   1.078466e+02  -1.534999e+02
   3.429099e+01   1.546544e+02
  -2.022038e+02   2.139201e+02
  -2.942937e+02  -1.166906e+02
  -4.825477e+01  -5.455890e+02
   3.309590e+02  -4.937722e+02
   4.374377e+02   5.940066e+01
   9.695924e+01   4.228932e+02
  -2.165047e+02   1.676707e+02
  -2.579278e+02  -3.307094e+02
   1.493540e+02  -4.667273e+02
   5.043212e+02  -6.564932e+01
   5.062748e+02   4.450747e+02
   1.198946e+02   4.972063e+02
  -3.897024e+02   2.500016e+02
  -5.794318e+02  -1.117991e+02
  -2.729816e+02  -3.391924e+02
   7.146118e+01  -2.725720e+02
   3.357540e+02  -3.219999e+01
   2.189951e+02   1.158389e+02
  -4.535882e+01   2.620041e+01
  -6.290949e+01  -9.045206e+01
   1.384417e+02  -1.192757e+02
   3.102008e+02   8.002740e+01
   1.454627e+02   2.516171e+02
  -1.998371e+02   2.536717e+02
  -3.209739e+02   8.404210e+01
  -2.006820e+02  -1.584691e+02
   4.774501e+01  -2.387938e+02
   2.669377e+02  -3.348110e+02
   3.079684e+02  -1.442586e+02
   2.444310e+02   1.701455e+02
   7.763333e+01   3.714467e+02
  -5.997464e+01   2.855705e+02
  -2.452718e+01   1.342741e+02
  -3.942680e+01   7.615508e+01
  -1.308681e+02   1.103373e+02
  -2.606081e+02   8.926272e+01
  -2.586711e+02  -1.112175e+02
  -1.288487e+02  -3.070876e+02
   9.478602e+01  -2.305962e+02
   2.139172e+02   1.584883e+01
   1.537184e+02   2.369626e+02
  -5.158647e+01   3.013221e+02
  -2.526705e+02   8.181984e+01
  -3.292315e+02  -1.797367e+02
  -1.503455e+02  -3.434171e+02
   9.494874e+01  -2.521987e+02
   1.780733e+02  -1.361249e+02
   1.243037e+02  -4.420162e+01
   7.978681e+01  -9.998225e+01
   2.267700e+02  -9.284017e+01
   3.845184e+02   5.561842e+01
   3.594790e+02   2.993161e+02
   2.800189e+00   4.199989e+02
  -3.567801e+02   4.439793e+02
  -4.792763e+02   1.524420e+02
  -3.306833e+02  -1.179890e+02
  -2.903811e+01  -2.790730e+02
   1.414146e+02  -1.974948e+02
   4.936690e+01  -7.033935e+01
  -1.493534e+02   5.970845e+01
  -1.318803e+02  -4.441805e+01
  -3.037767e+01  -1.894248e+02
   1.690238e+02  -1.443420e+02
   1.581340e+02   9.207396e+01
  -3.198574e+01   1.674892e+02
  -1.665546e+02   8.714621e+00
  -1.508336e+02  -2.443367e+02
   6.202376e+01  -3.669479e+02
   2.478257e+02  -1.915931e+02
   2.997619e+02   2.976130e+01
   2.670531e+02   2.720049e+02
   5.037414e+01   2.850423e+02
  -1.403442e+02   1.314969e+02
  -1.628251e+02  -2.897788e+00
  -4.670031e+01  -2.803512e+01
   4.030977e+01   5.090907e+01
  -9.539652e-01   1.128830e+02
  -1.602798e+02   1.052005e+02
  -2.286493e+02  -4.700097e+01
  -2.971111e+01  -7.624568e+01
   8.115938e+01  -1.563221e+00
   3.267330e+01   8.033229e+01
  -1.217490e+02   9.476233e+01
  -3.026072e+02   1.612248e+01
  -2.675776e+02  -1.746714e+02
  -4.644372e+01  -2.583803e+02
   1.992889e+02  -2.303688e+02
   3.130396e+02  -1.214911e+02
   1.747607e+02   7.472544e+01
  -4.988102e+01   7.486844e+01
  -8.593115e+01  -9.298270e-02
   5.392525e+01  -8.237037e+01
   1.562629e+02  -4.478709e+01
   1.921623e+02   1.112735e+02
   5.766171e+01   1.861725e+02
  -1.107343e+02   1.332621e+02
  -1.317077e+02   8.019642e+00
  -7.323391e+01  -5.623665e+01
   4.360415e+01   1.845895e+00
   2.215217e+01   9.763097e+01
  -1.032500e+02   1.222510e+02
  -2.377776e+02   2.701635e+01
  -1.778178e+02  -1.437436e+02
   6.423275e+00  -2.136665e+02
   1.621423e+02  -1.390646e+02
   1.996327e+02  -2.838928e+01
   2.492847e+01   1.089115e+02
  -8.401690e+01   7.756571e+01
  -8.105043e+01   3.268335e+01
  -6.867024e+00   1.368460e+00
   4.492074e+01  -1.106145e+01
  -1.630898e+01   4.085444e+01
  -1.243805e+02  -2.771968e+01
  -1.058104e+02  -9.886807e+01
  -1.385291e+01  -1.918041e+02
   1.442229e+02  -1.513717e+02
   2.552529e+02   1.377946e+01
   1.837891e+02   2.091723e+02
   2.952394e+01   2.184631e+02
  -1.460523e+02   1.317301e+02
  -1.441338e+02  -1.520817e+00
  -7.635467e+01  -4.779810e+01
  -7.923819e+00  -1.568769e+01
  -4.958235e+01   2.895638e+01
  -9.371314e+01   1.397871e+01
  -4.380444e+01  -6.591602e+01
   3.392402e+01  -8.321977e+01
   1.351807e+02  -8.112501e+01
   1.196544e+02   7.916827e+01
  -3.972403e+01   1.379398e+02
  -1.616453e+02   6.735350e+01
  -2.324476e+02  -1.012267e+02
  -1.220763e+02  -2.071024e+02
   1.252569e+02  -2.196765e+02
   2.718506e+02  -5.851344e+01
   2.798630e+02   1.075839e+02
   7.928539e+01   1.748821e+02
  -5.041656e+01   1.443584e+02
  -7.140499e+01   9.138595e+01
  -6.410481e+01   7.781551e+01
  -6.247830e+01   9.033074e+01
  -1.121616e+02   1.037129e+02
  -1.512781e+02  -6.502671e+01
  -8.917373e+01  -1.781611e+02
   6.107789e+00  -2.369190e+02
   1.137652e+02  -1.619337e+02
   1.504055e+02   3.649763e+01
   1.081205e+02   1.382656e+02
  -2.624784e+01   1.657684e+02
  -6.680000e+01   5.818320e+01
  -5.177963e+01  -8.034573e+00
  -7.254227e+00  -5.920134e+01
   4.001287e+01  -4.226247e+01
  -3.026224e+01   1.987355e-01
  -6.956360e+01   5.739173e+00
  -2.947247e+01  -6.738940e+01
   7.876694e+01  -5.563708e+01
   1.692739e+02   1.329060e+01
   1.125797e+02   6.611584e+01
  -1.411392e+01   9.855999e+01
  -1.110812e+02   5.496750e+01
  -1.362521e+02   4.653831e+00
  -5.837821e+01  -4.648773e+01
   6.301249e+01  -7.072237e+01
   7.008919e+01  -5.721552e+00
   2.085638e+01   4.372311e+01
  -4.278343e+01   4.092051e+01
  -5.352137e+01  -5.795884e+00
  -6.787687e+01  -6.454333e+01
  -2.529253e+01  -4.262328e+01
  -3.446891e+01  -8.509126e+00
  -8.247743e+01  -1.686917e+01
  -4.805767e+01  -9.200548e+01
   3.036588e+01  -1.412324e+02
   1.273392e+02  -1.741422e+02
   1.691617e+02  -2.653584e+01
   1.216687e+02   7.965888e+01
  -1.400608e+00   1.578801e+02
  -1.067243e+02   7.096853e+01
  -6.910720e+01  -2.799791e+01
   4.970050e+01  -1.596601e+01
   1.393750e+02   2.386911e+01
   7.484296e+01   9.125551e+01
  -7.906279e+01   1.270242e+02
  -1.815069e+02   2.229771e+01
  -1.498830e+02  -2.083553e+01
  -1.157240e+00  -1.065336e+02
   6.254641e+01  -8.067120e+01
   4.823271e+01   1.583596e+01
  -3.061651e+01   5.159641e+01
  -8.716739e+01  -3.859846e+01
  -3.330677e+01  -1.227093e+02
   8.837326e+01  -1.862321e+02
   1.572133e+02  -9.844447e+01
   1.081350e+02   8.673244e+01
   1.205721e+01   1.926128e+02
  -1.296701e+02   1.433888e+02
  -1.084808e+02  -4.189687e+01
  -5.476444e+01  -1.095208e+02
   2.000745e+01  -1.037963e+02
   5.516896e+01   2.322285e+00
   2.984933e+01   1.953211e+01
   3.004504e+01  -1.018733e+01
   1.157154e+01   5.611218e+00
   4.244292e+01   2.387846e+01
   5.449862e+01   1.073566e+02
   2.621476e+01   1.066595e+02
  -6.070176e+01   6.992924e+01
  -1.096997e+02  -5.068651e+01
  -9.241456e+01  -1.085837e+02
   6.437458e-01  -4.261477e+01
   7.863128e+01  -3.083982e+01
   1.033465e+02  -2.798524e+01
   2.805442e+01  -1.292103e+01
  -2.790220e+01   3.480329e+01
  -6.739605e+00   4.453364e+00
  -2.973331e+00  -9.396607e+00
  -4.163079e+00  -1.038655e+01
  -5.034441e+01  -9.474145e+00
  -7.757091e+01  -4.176103e+01
  -7.626298e+00  -6.908658e+01
   1.522615e+02  -1.092711e+02
   1.900773e+02  -8.133072e+01
   1.590412e+02   5.449801e+01
   3.869366e+01   1.560843e+02
  -6.569361e+01   1.497409e+02
  -8.625095e+01   8.963565e+01
  -6.807315e+01  -2.278867e+00
  -1.733606e+01  -6.251662e+01
   3.965459e+00  -8.154397e+00
   1.683279e+01   1.676062e+00
  -1.917719e+01  -5.310189e+01
  -2.641595e+01  -7.411730e+01
   3.185085e+01  -5.765544e+01
   9.727325e+01   2.614587e+01
   1.341371e+02   7.318501e+01
   1.693316e+01   1.080465e+02
  -7.588045e+01   2.865363e+01
  -1.041681e+02  -6.713911e+01
  -4.168477e+01  -9.224872e+01
   9.061784e+01  -5.096675e+01
   1.238085e+02   1.002980e+01
   2.993745e+01   5.294166e+01
  -2.932359e+01   8.130504e+01
  -3.079494e+01   2.041713e+01
   3.758223e+01   1.860452e+01
   5.209348e+01  -1.365936e+01
   1.411895e+01   2.172157e+01
  -7.915847e+01   8.586830e+01
  -1.332397e+02   5.377119e+01
  -6.672431e+01   2.035946e+01
   1.615429e+01  -7.736624e+01
   6.252120e+01  -9.678938e+01
   3.099417e+01   1.260263e+01
  -2.637662e+00   6.252598e+01
  -4.239166e+01   3.091507e+01
  -2.209145e+01  -1.535235e+00
  -2.150644e+01  -6.115154e+01
  -8.393621e+00  -1.702781e+01
  -3.127551e+00   2.852974e+01
   2.837071e+01   2.330269e+01
   1.891207e+01   2.421940e+00
  -1.916274e+01  -8.370052e+00
   7.244621e+00  -2.597310e+01
  -2.529943e+01   3.211581e+01
  -1.958222e+01   4.899458e+01
  -1.021707e+01   1.566957e+01
  -3.174768e+01  -5.047085e+01
   8.637258e+00  -6.315524e+01
   3.331220e+01  -3.030487e+01
   2.976530e+01   4.725537e+01
   3.858948e+01   6.709206e+01
  -4.075707e+01   3.203132e+01
  -1.020524e+02  -1.638568e+01
  -5.286502e+01  -5.715267e+01
   1.323621e-01  -3.341711e+01
   4.900417e+01  -4.019414e+01
   2.437925e+01  -1.111365e+01
  -1.770533e+01  -9.091821e+00
  -1.143575e+01   5.838310e+00
   1.393173e+01  -6.430215e+00
   8.157673e+01  -4.752061e+01
