
 $NMID
 id='ANONYMOUS ', fmtdat='(2E16.6)'
 volume=1.0
 tramp=1.0
 $END
  -3.218288e+03   9.562558e+01
  -1.776795e+03  -1.665721e+03
   2.245582e+02  -2.148696e+03
   1.423434e+03  -1.085661e+03
   9.657015e+02   4.492120e+01
  -1.031997e+02   1.021824e+02
  -4.429028e+02  -2.275704e+02
   3.774770e+01  -5.700883e+02
   5.253180e+02  -6.072985e+02
   6.770502e+02   8.244576e+01
   3.148383e+02   6.025146e+02
  -1.244995e+02   6.142244e+02
  -3.328469e+02   7.337205e+01
  -2.132810e+02  -4.787959e+02
   1.904323e+02  -5.236708e+02
   4.341580e+02  -2.647892e+01
   1.960353e+02   5.006081e+02
  -1.779997e+02   5.571659e+02
  -4.454752e+02   1.957730e+02
  -4.144996e+02  -1.905954e+02
  -1.230613e+02  -3.690502e+02
   1.603244e+02  -2.138207e+02
   5.275016e+01  -9.998905e+01
  -2.094002e+02  -5.773613e+01
  -2.723966e+02  -3.048805e+02
   1.678918e+01  -3.727530e+02
   4.986951e+02  -1.576243e+02
   5.927408e+02   1.982628e+02
   2.085117e+02   4.335516e+02
  -3.355969e+02   2.721871e+02
  -5.253936e+02  -1.241990e+02
  -1.475429e+02  -4.153019e+02
   2.441385e+02  -3.875097e+02
   4.526615e+02  -7.763985e+01
   3.121213e+02   1.528424e+02
   6.310870e+01   3.179054e+02
  -6.050777e+01   1.321391e+02
   4.678558e+01  -1.025632e+02
   1.602919e+02  -1.515832e+02
   2.243557e+02   1.685139e+02
  -4.576982e+01   5.087699e+02
  -3.208624e+02   4.107055e+02
  -3.132240e+02  -7.021248e+01
  -4.370532e+01  -3.150990e+02
   1.845379e+02  -1.000896e+02
   1.881071e+02   2.647609e+02
  -1.512184e+02   4.303646e+02
  -4.229624e+02   7.563670e+00
  -4.392300e+02  -3.840515e+02
  -1.268657e+02  -4.792449e+02
   3.122241e+02  -2.533078e+02
   5.076165e+02   7.856252e+01
   2.941313e+02   2.568669e+02
  -7.553184e+01   2.139392e+02
  -2.915009e+02   6.722222e+01
  -1.576234e+02  -4.405045e+01
  -1.814726e-01  -2.046850e+01
   6.534041e+01   5.097893e+01
  -8.692511e+01   7.806105e+01
  -2.429065e+02  -8.750998e+01
  -1.198980e+02  -2.558688e+02
   1.402462e+02  -2.372138e+02
   3.574965e+02  -1.119388e+02
   1.934692e+02   1.208778e+02
  -5.835989e+01   3.112906e+02
  -3.212085e+02   2.912174e+02
  -3.328846e+02   1.365973e+02
  -2.214281e+02  -1.668743e+02
  -4.850340e+01  -3.250179e+02
   4.056868e+01  -3.252921e+02
   4.577285e+01  -1.942925e+02
   6.145209e+01  -1.251136e+02
   1.525046e+02  -1.060699e+02
   2.419398e+02  -3.259345e+01
   2.427409e+02   1.765812e+02
   8.388874e+01   2.781675e+02
  -1.205661e+02   2.000468e+02
  -2.073348e+02  -4.695215e+01
  -1.138875e+02  -2.690524e+02
   7.306107e+01  -2.565561e+02
   2.375707e+02  -5.622891e+01
   2.907918e+02   1.686744e+02
   1.688317e+02   2.893820e+02
  -5.968192e+01   2.570107e+02
  -1.368511e+02   1.395240e+02
  -1.471912e+02   5.212329e+01
  -9.724559e+01   8.137336e+01
  -2.542349e+02   5.690983e+01
  -4.087726e+02  -4.254259e+01
  -3.103613e+02  -3.172289e+02
  -1.262025e+01  -4.139441e+02
   3.855903e+02  -3.687074e+02
   4.442363e+02  -1.350084e+02
   2.717349e+02   1.531412e+02
   6.417648e+01   2.394218e+02
  -1.337794e+02   1.820067e+02
  -2.077638e+01   7.665142e+01
   1.262393e+02  -5.556890e+01
   1.181046e+02   6.847554e+01
   1.822541e+01   1.625975e+02
  -1.398056e+02   1.004848e+02
  -1.295522e+02  -5.006327e+01
   4.496552e+00  -1.327995e+02
   1.776674e+02  -1.408907e+01
   1.267225e+02   2.587320e+02
  -4.812248e+01   3.094452e+02
  -2.289644e+02   1.678167e+02
  -3.167318e+02  -7.563829e+01
  -2.393968e+02  -2.397600e+02
  -5.932386e+01  -2.744791e+02
   1.354049e+02  -1.111498e+02
   1.297664e+02   4.514667e+00
   2.620425e+01   4.691817e+01
  -2.355726e+01  -5.442479e+01
   1.440393e+01  -1.002873e+02
   1.275150e+02  -9.886461e+01
   1.789723e+02   1.262163e+01
   1.260319e+01   6.878090e+01
  -8.566377e+01  -5.396143e+00
  -5.681790e+01  -1.203418e+02
   1.493696e+02  -8.048358e+01
   3.111312e+02  -5.205489e+00
   2.420627e+02   1.646955e+02
   5.460396e+01   2.464514e+02
  -2.237536e+02   2.390018e+02
  -2.947809e+02   5.454394e+01
  -1.826795e+02  -5.574169e+01
   3.641450e+01  -6.383095e+01
   7.424949e+01   1.319136e+01
  -5.414667e+01   8.097379e+01
  -1.730381e+02   9.273267e+00
  -1.561498e+02  -1.153829e+02
  -2.497634e+01  -1.896485e+02
   1.003521e+02  -1.385579e+02
   1.240266e+02  -2.761713e+01
   5.486268e+01   1.727856e+01
  -5.438205e+01  -3.369830e+00
  -3.117959e+01  -8.709704e+01
   9.566543e+01  -1.005423e+02
   1.937144e+02   6.309780e+00
   1.535998e+02   1.464432e+02
  -3.664036e+00   2.260842e+02
  -1.833402e+02   1.085263e+02
  -1.702469e+02   1.681565e+01
  -2.715968e+01  -1.013431e+02
   8.454185e+01  -8.757820e+01
   8.781614e+01  -2.036793e+01
   2.646984e+01   2.958708e+01
  -3.008291e+01   1.466285e+01
   1.122670e+01  -1.278132e+01
   7.537346e+01   1.477682e+01
   9.086732e+01   1.205183e+02
   2.055472e+01   1.938558e+02
  -1.498051e+02   1.505800e+02
  -1.949834e+02   3.122552e+01
  -2.080885e+02  -1.940800e+02
  -4.831958e+01  -2.219050e+02
   1.244367e+02  -1.192670e+02
   1.274787e+02   1.039072e+00
   5.786860e+01   3.693760e+01
   5.297152e+00  -2.018582e+01
   5.728503e+01  -6.864526e+01
   1.083060e+02   4.037178e+00
   3.278274e+01   4.757422e+01
  -5.484310e+01   1.137498e+02
  -1.240244e+02   5.917129e+01
  -1.180136e+02  -7.665114e+01
   3.766822e+01  -1.410002e+02
   1.563648e+02  -6.128411e+01
   2.275504e+02   5.752552e+01
   8.160105e+01   2.073156e+02
  -9.189164e+01   2.117478e+02
  -2.479668e+02   7.180179e+01
  -2.145203e+02  -9.232010e+01
  -1.115060e+02  -1.919988e+02
   3.539420e+01  -1.322278e+02
   9.792357e+01  -6.740692e+01
   6.819317e+01  -1.109150e+02
   8.306830e+01  -1.051626e+02
   6.684404e+01  -7.692889e+01
   1.486545e+02   4.005681e+01
   1.269532e+02   1.585477e+02
  -1.138467e+01   2.258760e+02
  -1.213545e+02   1.565189e+02
  -1.422006e+02  -1.699718e+01
  -9.628294e+01  -1.335728e+02
   6.453358e+00  -1.489601e+02
   4.659122e+01  -3.609098e+01
   5.356799e+01   1.222250e+01
  -1.424449e+01   4.140081e+01
  -3.466424e+01   3.579950e+01
   3.219304e+01   5.335882e+00
   8.556885e+01   3.809180e+01
   2.879838e+01   8.953217e+01
  -9.895969e+01   3.650012e+01
  -1.810072e+02  -2.695777e+01
  -8.164058e+01  -5.773435e+01
  -6.568475e+00  -1.054933e+02
   1.080093e+02  -1.030863e+02
   1.155136e+02   8.445121e+00
   3.161348e+01   4.975371e+01
  -4.491961e+01   3.339163e+01
  -2.820287e+01  -4.968007e+01
  -2.313653e+01  -4.135702e+01
   6.293461e+01  -6.582457e+01
   5.488362e+01  -1.568889e+00
   4.457227e+01   7.680683e+01
   2.763778e+01   3.662369e+01
   4.778975e+01   1.267197e+01
   5.787624e+01   1.095226e+01
   3.345176e+01   1.151939e+02
  -1.802865e+01   1.337011e+02
  -1.415010e+02   1.704944e+02
  -1.818314e+02   9.451902e+00
  -1.591160e+02  -1.098900e+02
   3.690109e+01  -1.090902e+02
   8.950283e+01  -6.440208e+01
   7.758089e+01   1.224839e+01
  -3.032042e+01  -6.642105e+00
  -1.206552e+02  -1.998838e+01
  -2.595847e+01  -9.162280e+01
   1.281540e+02  -1.006588e+02
   1.585017e+02  -4.428906e+01
   1.519928e+02   4.097244e+01
   1.587094e+01   9.374362e+01
  -9.131900e+01   6.622306e+01
  -4.491635e+01  -3.130328e+01
   2.375570e+01  -6.262615e+01
   7.861650e+01   2.238357e+01
   4.350147e+01   1.380165e+02
  -8.318186e+01   1.735619e+02
  -1.449382e+02   7.331385e+01
  -1.350371e+02  -9.238644e+01
  -1.148243e+00  -1.708598e+02
   1.043007e+02  -1.106144e+02
   9.923848e+01   3.985129e+01
  -1.347199e+00   1.183378e+02
  -2.709090e+01   9.359998e+01
  -3.139549e+01   5.400302e+00
  -1.565299e+01  -4.293737e+01
  -7.965563e+00  -2.510687e+00
   3.751286e+00   1.445670e+01
  -4.494105e+01  -2.561374e+01
  -8.422244e+01  -1.029768e+02
  -2.513658e+01  -1.047391e+02
   4.984648e+01  -4.059946e+01
   1.351344e+02   1.840017e+01
   8.446349e+01   1.069983e+02
   1.422313e+01   7.717890e+01
  -6.871730e+01   1.974286e+01
  -7.370657e+01   1.739053e+01
  -9.918209e-01  -6.510824e+00
   2.737033e+01  -3.479272e+01
   1.595349e+01  -3.424904e-01
  -3.188973e+01   6.204552e+00
  -3.598137e+00  -3.083781e+01
   4.469265e+01  -2.577948e+01
   1.096251e+02   2.171137e+01
   1.805510e+01   6.051531e+01
  -1.291447e+02   9.534155e+01
  -1.944787e+02   5.161229e+01
  -1.593086e+02  -7.472205e+01
  -2.306550e+01  -1.780355e+02
   6.571776e+01  -1.310550e+02
   1.199843e+02  -2.318149e+01
   1.009996e+02   1.704153e+01
   4.848442e+01   3.217855e+01
   1.370641e+01   1.358933e+01
  -2.163079e+00   2.846739e+01
   1.969301e+01   6.096217e+01
   2.330583e+00   8.071179e+01
  -2.833553e+01   7.676950e+01
  -8.280952e+01  -3.522112e+01
  -9.747815e+01  -7.122105e+01
  -2.865268e+01  -1.041625e+02
   6.150075e+01  -2.520079e+01
   1.037462e+02   4.901717e+01
   3.495370e+01   1.161038e+02
  -4.525301e+01   2.156087e+01
  -7.993583e+01  -2.874619e+01
  -3.715099e+01  -8.252146e+01
   5.737312e+01  -4.588469e+01
   6.149736e+01   1.717609e+00
  -2.789030e+01   1.920964e+01
  -7.307081e+01   2.610534e+01
  -1.933611e+01  -5.352803e+01
   9.394043e+01  -3.938033e+01
   1.233978e+02  -6.896583e+01
   3.123448e+01   3.968051e+00
  -1.078253e+01   9.974766e+01
  -5.834224e+01   1.054217e+02
  -3.643019e+01  -3.939229e+00
  -1.044144e+01  -5.302609e+01
   4.200484e+01  -5.477028e+01
  -1.449095e+01   1.720370e+01
   7.122955e+00   5.167411e+01
  -1.868856e+01   5.197058e+01
  -3.720871e+01  -2.242116e+01
  -6.374534e+00  -3.323910e+00
  -1.026011e+01  -2.378682e+01
   8.992605e+00   1.386674e+01
  -3.320425e+00  -5.735798e+00
  -1.706882e+01  -1.127638e+01
   3.391222e+01  -5.739934e+01
   5.806126e+01  -4.179764e+01
   5.824162e+01   5.036259e+01
   1.338568e+01   5.995559e+01
  -4.997394e+01   2.808631e+01
  -3.431843e+01  -3.130228e+01
  -6.146148e+00  -8.568035e+01
   7.420064e+01  -3.190952e+01
   9.061723e+01   2.817810e+01
   6.346056e+01   4.315364e+01
   1.634420e+01   8.795366e+01
  -6.295466e+01   4.531571e+01
  -5.647629e+01   1.421033e+01
   2.023686e+01   1.787538e+00
   1.150272e+01  -2.479539e+00
  -2.414868e+01   1.097348e+01
  -4.877408e+01   5.680370e+00
