
 $NMID
 id='ANONYMOUS ', fmtdat='(2E16.6)'
 volume=1.0
 tramp=1.0
 $END
  -3.081378e+03  -1.054779e+02
  -1.718288e+03  -1.649157e+03
   1.240585e+02  -2.018089e+03
   1.274745e+03  -9.369904e+02
   9.627429e+02   3.382260e+01
  -7.641989e+01   3.020606e+02
  -4.676402e+02  -1.555025e+02
   2.588918e+00  -5.402896e+02
   5.733836e+02  -5.458403e+02
   6.407606e+02   3.553623e+01
   3.204802e+02   5.887384e+02
  -1.082561e+02   6.226406e+02
  -3.296005e+02   9.497330e+01
  -2.050828e+02  -4.442563e+02
   1.656633e+02  -4.984694e+02
   3.593488e+02   2.093777e+00
   2.089721e+02   4.727860e+02
  -1.635274e+02   4.774263e+02
  -4.972062e+02   2.182776e+02
  -3.731118e+02  -2.495614e+02
  -6.000998e+01  -3.392479e+02
   1.391871e+02  -2.389295e+02
   9.697782e+01  -7.175622e+01
  -1.670316e+02  -5.847474e+01
  -2.231514e+02  -2.949249e+02
   3.292849e+01  -3.255792e+02
   4.196452e+02  -1.847931e+02
   5.584393e+02   2.366298e+02
   1.370714e+02   3.704826e+02
  -3.339430e+02   2.188328e+02
  -4.467988e+02  -1.782664e+02
  -1.512977e+02  -3.679704e+02
   2.755495e+02  -3.451220e+02
   4.010438e+02  -8.755879e+01
   2.800577e+02   1.640798e+02
   3.915071e+01   2.756637e+02
  -3.719515e+01   1.501910e+02
   2.634875e+01  -1.268359e+02
   1.856315e+02  -1.356733e+02
   2.167145e+02   1.161975e+02
   1.868319e+01   4.360712e+02
  -2.248359e+02   3.900433e+02
  -3.011590e+02  -1.402716e+01
  -7.987322e+01  -3.101801e+02
   1.963474e+02  -1.318508e+02
   2.211663e+02   2.629472e+02
  -1.137645e+02   3.913377e+02
  -3.775755e+02   6.106271e+01
  -4.266834e+02  -3.690620e+02
  -1.011108e+02  -4.599717e+02
   3.039794e+02  -2.843863e+02
   4.783134e+02   8.225438e+01
   2.922057e+02   2.676926e+02
  -1.150671e+02   2.510228e+02
  -2.473654e+02   7.083130e+01
  -1.495134e+02  -7.464195e+01
  -1.313119e+00  -5.000382e+01
   3.693614e+01   3.434047e+01
  -1.203596e+02   6.264320e+01
  -2.191379e+02  -8.243824e+01
  -6.294611e+01  -2.083122e+02
   1.779559e+02  -2.204821e+02
   3.267699e+02  -8.733628e+01
   2.750253e+02   1.387009e+02
  -2.340648e+01   2.780973e+02
  -2.812302e+02   3.203033e+02
  -3.364584e+02   1.108203e+02
  -2.192306e+02  -1.617581e+02
  -5.448806e+01  -3.092850e+02
   4.909548e+01  -2.615189e+02
   3.540691e+00  -1.395841e+02
   2.975558e+01  -8.740042e+01
   1.360111e+02  -1.216226e+02
   2.160673e+02  -2.938793e+01
   2.098667e+02   1.213674e+02
   9.305743e+01   2.360150e+02
  -1.454922e+02   1.644447e+02
  -1.807392e+02  -5.732393e+01
  -1.109237e+02  -2.318546e+02
   4.639191e+01  -2.261449e+02
   2.201009e+02  -5.608448e+01
   2.539015e+02   1.748914e+02
   1.402839e+02   2.389811e+02
  -3.928401e+01   2.258453e+02
  -1.165194e+02   7.294208e+01
  -1.238473e+02   6.441261e+01
  -1.211036e+02   7.638758e+01
  -2.456616e+02   4.326920e+01
  -3.855251e+02  -8.623317e+01
  -2.631707e+02  -2.938315e+02
   8.769095e+00  -3.756173e+02
   3.687171e+02  -3.438854e+02
   4.358731e+02  -1.034578e+02
   2.378835e+02   1.423768e+02
  -3.350475e+01   2.069494e+02
  -1.131344e+02   1.667606e+02
  -6.520452e+01   1.499594e+01
   7.821521e+01  -5.579233e+01
   1.193651e+02   6.056665e+01
   7.696387e+00   1.297524e+02
  -9.204879e+01   8.520928e+01
  -1.018096e+02  -5.119319e+01
   3.186366e+01  -1.097377e+02
   1.418530e+02  -1.997989e-01
   1.065277e+02   2.052077e+02
  -9.461764e+00   2.839225e+02
  -2.264604e+02   2.018089e+02
  -3.185909e+02  -7.767831e+01
  -2.221169e+02  -2.519088e+02
  -6.794930e+01  -2.505457e+02
   1.399956e+02  -1.168424e+02
   1.458329e+02  -2.680482e+00
   3.752501e+01   3.737482e+01
  -4.013433e+01  -4.188153e+01
   7.312608e+00  -6.147654e+01
   9.326892e+01  -3.863731e+01
   1.026999e+02   3.662460e+00
   3.419623e+01   2.980807e+01
  -6.011675e+01  -6.304995e+00
  -2.704150e+01  -9.244916e+01
   1.514715e+02  -8.729951e+01
   2.584652e+02   2.935213e+01
   2.106469e+02   1.854721e+02
  -1.769844e+01   2.510567e+02
  -2.078888e+02   2.100502e+02
  -2.470898e+02   5.089433e+01
  -1.209789e+02  -3.731814e+01
   3.124381e+01  -6.315587e+01
   5.282238e+01  -6.843120e+00
  -2.314134e+01   4.355549e+01
  -1.483548e+02   2.296450e+01
  -1.598486e+02  -7.477963e+01
  -3.186402e+01  -1.656035e+02
   6.558336e+01  -1.083520e+02
   1.104389e+02  -5.593207e-01
  -6.501644e+00   1.657780e+01
  -2.616626e+01  -3.798622e+01
   1.657926e+01  -9.783679e+01
   1.045244e+02  -9.799961e+01
   2.131514e+02   2.218659e+00
   1.192887e+02   1.311232e+02
  -3.339350e+01   2.124763e+02
  -1.562572e+02   1.072533e+02
  -1.867701e+02  -2.418117e+01
  -3.662828e+01  -1.040939e+02
   6.324747e+01  -9.056687e+01
   2.771370e+01  -2.744607e+01
  -1.135388e+01   3.409422e+01
  -5.340561e+01   3.471997e+01
   2.156173e+00  -6.749765e+00
   9.880902e+01   4.581363e+00
   6.976831e+01   6.495308e+01
   9.659434e+00   1.422568e+02
  -1.444854e+02   1.326445e+02
  -2.021350e+02  -3.341632e+01
  -1.620074e+02  -1.386923e+02
   4.561629e+00  -2.168586e+02
   1.171941e+02  -1.209027e+02
   1.414502e+02  -1.840556e+01
   5.764024e+01   7.478021e+00
   3.206463e+01   2.027178e+01
   6.011228e+01  -8.276582e+00
   6.576865e+01   1.360328e+01
   6.315396e+01   3.063503e+01
  -3.431067e+01   9.185981e+01
  -1.221646e+02   7.182147e+01
  -9.982469e+01   6.919907e+00
   2.962997e+01  -9.509136e+01
   1.214332e+02  -6.758075e+01
   1.734721e+02   6.255488e+01
   1.067319e+02   1.437047e+02
  -1.083624e+02   2.102148e+02
  -2.294854e+02   9.036557e+01
  -2.241393e+02  -9.138675e+01
  -8.758168e+01  -1.697836e+02
   6.864633e+01  -1.532030e+02
   9.231898e+01  -7.709318e+01
   6.511072e+01  -3.512628e+01
   2.826884e+01  -6.294144e+01
   5.194454e+01  -5.813883e+01
   9.784248e+01   5.213554e+01
   8.474699e+01   1.523188e+02
  -1.382668e+01   2.126275e+02
  -1.066896e+02   1.370559e+02
  -1.437032e+02   1.788006e+01
  -1.397897e+02  -1.096321e+02
  -1.283677e+00  -1.048783e+02
   9.992038e+01  -6.102641e+01
   1.359080e+01   1.868099e+01
  -1.635975e+01   9.368952e+01
  -2.284510e+01   8.976460e-01
   1.375932e+01   2.286396e+01
   6.754072e+01   1.652085e+01
   4.990391e+01   3.620502e+01
  -4.059395e+01   5.053032e+01
  -1.621448e+02  -3.492068e+01
  -1.022073e+02  -7.731353e+01
   1.275254e+01  -8.219152e+01
   1.132376e+02  -6.467153e+01
   1.894115e+02   2.617614e+01
   1.084989e+01   3.978213e+01
  -2.369162e+01   3.452401e+01
  -5.804540e+01  -3.343925e+01
  -5.001856e+00  -7.707997e+01
   5.545913e+01  -2.964741e+01
   3.755995e+01  -6.266031e+00
   5.090245e+01   4.705998e+01
   2.846007e+01   3.028449e+01
   4.644858e+01   5.965484e+00
   5.532034e+01  -3.311188e+01
   3.724114e+01   9.803183e+01
  -1.875960e+01   1.532370e+02
  -1.286705e+02   1.371022e+02
  -1.923301e+02   1.267349e+01
  -1.430743e+02  -1.153748e+02
   2.369782e+01  -1.290091e+02
   7.700501e+01  -5.279147e+01
   5.231883e+01   3.409547e+01
  -4.032355e+01  -9.910758e+00
  -1.275842e+02  -2.978054e+01
  -3.543255e+01  -1.052073e+02
   5.253709e+01  -8.181037e+01
   1.566459e+02  -2.046766e+01
   1.565589e+02   4.908340e+01
   2.304042e+01   7.663389e+01
  -1.036166e+02   4.303854e+01
  -3.292351e+01  -3.486064e+00
   4.338574e+01  -6.005077e+01
   7.411466e+01   4.562487e+01
   3.329463e+01   1.078685e+02
  -7.019870e+01   1.318093e+02
  -1.304967e+02   4.840065e+01
  -1.171571e+02  -1.009848e+02
  -4.154327e-02  -1.989193e+02
   9.480863e+01  -1.295293e+02
   8.056034e+01   4.045310e+00
   4.446373e+01   1.074661e+02
   9.996168e+00   9.378194e+01
  -4.953610e+01  -2.096023e+01
  -5.760040e+01  -7.295720e+00
  -8.042656e+00  -2.901968e+00
  -7.899084e+00  -9.858181e+00
  -1.866723e+01  -2.728674e+01
  -4.756834e+01  -9.870693e+01
  -1.034532e+01  -7.073267e+01
   6.235814e+01  -3.428445e+01
   1.107073e+02   4.946211e+01
   1.017391e+02   6.785039e+01
   1.181679e+01   7.858130e+01
  -1.022568e+02   1.944930e+01
  -8.619986e+01  -8.381435e+00
  -3.206244e+01   3.906172e-01
   1.354537e+01  -3.999883e+01
   5.476710e+01  -6.954666e+00
   6.968741e+00   5.571160e-01
  -3.571386e+01   2.954728e+01
   6.009780e+01  -5.329157e+00
   6.676043e+01   4.956734e+01
   2.773056e+01   9.501048e+01
  -1.105456e+02   8.620803e+01
  -1.966333e+02   4.976588e+01
  -1.556689e+02  -5.429186e+01
  -3.726727e+01  -1.276426e+02
   6.823299e+01  -1.804869e+02
   9.846231e+01  -6.734906e+01
   7.107867e+01   2.083267e+01
   4.262051e+01   1.305870e+01
  -3.986447e+00  -1.716680e+00
   3.002361e+00  -1.045873e+01
  -1.618482e+01   2.049056e+01
  -6.044596e+00   5.937410e+01
  -2.490636e+01   6.016128e+01
  -8.675070e+01  -8.908755e+00
  -7.023926e+01  -1.111293e+02
  -4.199540e+01  -8.776439e+01
   6.940792e+01  -2.932390e+01
   1.076789e+02   9.060750e+01
   8.993367e+00   9.989445e+01
  -6.424025e+01   4.294649e+01
  -9.550487e+01  -1.784965e+01
  -4.389865e+01  -5.197951e+01
   3.543413e+01  -5.107257e+01
   3.488818e+01  -1.985142e+01
  -1.393447e+01   2.300097e+00
  -5.053504e+01   3.869724e+01
  -1.050300e+01   2.518810e+00
   6.066345e+01  -3.625360e+01
   1.037174e+02  -3.652231e+01
   5.418095e+01   3.442422e+01
  -1.811197e+01   6.865150e+01
  -5.787400e+01   7.869949e+01
  -5.586912e+01   4.104065e+00
   1.021518e+01  -4.437708e+01
   1.225443e+00  -2.527357e+01
   6.830543e+01   2.251591e+01
   9.609097e+00   2.039130e+01
  -2.886928e+01   7.447703e+01
  -3.146884e+01  -1.155514e+01
  -3.421665e+01  -1.440654e+01
  -3.578454e+01  -3.419695e+00
   3.410382e+00  -1.110213e+00
   5.446102e+00  -1.610208e+01
   5.385060e+00  -1.829563e+01
   2.676770e+01  -6.395368e+01
  -1.595282e+01  -2.651130e+01
   4.018817e+01   3.816587e+01
   6.741048e-01   5.284244e+01
  -4.604901e+01   3.148520e+01
  -3.586009e+01  -1.896685e+01
  -3.112688e+01  -8.160355e+01
   5.643822e+01  -4.076078e+01
   9.990026e+01  -3.447343e+00
   5.414911e+01   4.578489e+01
   3.921754e+00   6.519568e+01
  -2.076024e+01   5.055703e+00
  -3.614615e+01  -7.189293e+00
   2.515424e+01   2.681383e+01
   5.365379e+01  -8.658872e+00
  -2.874879e+01   2.835903e+01
  -3.346805e+01  -1.614506e+01
