
 $NMID
 id='ANONYMOUS ', fmtdat='(2E16.6)'
 volume=1.0
 tramp=1.0
 $END
  -3.669959e+03  -3.998952e+02
  -2.259120e+03  -2.360846e+03
   6.564263e+02  -2.267975e+03
   1.860827e+03  -1.202383e+03
   1.149667e+03   4.222266e+02
  -4.178889e+02   6.372462e+02
  -7.842086e+02  -2.829971e+02
  -9.964882e+01  -9.479794e+02
   7.607942e+02  -7.790787e+02
   9.739430e+02   2.036909e+01
   5.766414e+02   8.355163e+02
  -2.054123e+02   8.642423e+02
  -6.075957e+02   1.079461e+02
  -3.632034e+02  -6.930770e+02
   2.787088e+02  -7.435496e+02
   5.874815e+02  -2.553832e+00
   3.208856e+02   7.108849e+02
  -3.200172e+02   6.736477e+02
  -7.112041e+02   5.575458e+01
  -4.365756e+02  -4.159487e+02
  -3.278695e+01  -4.761334e+02
   2.225563e+02  -2.791882e+02
   1.704649e+02  -2.423415e+01
  -1.679057e+02   5.942832e+01
  -4.026135e+02  -1.938442e+02
  -6.502431e+01  -4.417093e+02
   4.927009e+02  -2.728127e+02
   7.727883e+02   1.271153e+02
   3.294866e+02   5.078191e+02
  -4.564708e+02   3.906021e+02
  -6.447306e+02  -1.139714e+02
  -2.512317e+02  -4.731019e+02
   2.935664e+02  -5.170288e+02
   5.607101e+02  -1.618835e+02
   4.146399e+02   2.808286e+02
   5.898506e+01   4.483891e+02
  -1.676438e+02   2.473211e+02
  -1.253231e+02  -2.061650e+02
   1.772332e+02  -3.266829e+02
   3.391777e+02   7.324686e+01
   1.771088e+02   5.909903e+02
  -2.748226e+02   5.895374e+02
  -5.452769e+02   1.860607e+01
  -2.030163e+02  -4.944523e+02
   2.668793e+02  -2.986982e+02
   3.642023e+02   3.086787e+02
  -7.087971e+01   5.340638e+02
  -5.048860e+02   1.626931e+02
  -6.197027e+02  -3.969974e+02
  -1.526004e+02  -5.627506e+02
   3.675479e+02  -3.357327e+02
   6.735504e+02   1.212232e+02
   3.658338e+02   3.983756e+02
  -1.758755e+02   3.630345e+02
  -4.328699e+02   6.276534e+01
  -2.267460e+02  -1.924453e+02
   1.136626e+02  -8.986026e+01
   1.320373e+02   1.098016e+02
  -1.262197e+02   1.574492e+02
  -3.432758e+02  -6.630589e+01
  -1.243227e+02  -2.846665e+02
   2.386215e+02  -2.603705e+02
   3.857324e+02  -8.889818e+01
   2.585016e+02   1.189771e+02
  -4.958008e+01   2.985665e+02
  -3.004626e+02   2.682360e+02
  -3.608928e+02   1.215908e+02
  -2.391222e+02  -1.629483e+02
  -2.714377e+01  -4.062841e+02
   1.014779e+02  -3.216310e+02
   8.956726e+01  -9.724743e+01
   4.891528e+01  -2.140635e+00
   9.298900e+01  -1.098535e+02
   2.226286e+02  -9.426797e+01
   2.678422e+02   5.657358e+01
   1.428686e+02   2.959690e+02
  -1.037642e+02   2.225811e+02
  -2.019447e+02   1.494260e+01
  -1.976527e+02  -2.370554e+02
   1.845944e+01  -3.088348e+02
   2.555508e+02  -1.032292e+02
   3.339748e+02   2.043359e+02
   1.337764e+02   3.309660e+02
  -8.797939e+01   2.973440e+02
  -1.998352e+02   1.063556e+02
  -1.473200e+02   3.423078e+01
  -1.203941e+02   4.399988e+01
  -1.745239e+02   7.403734e+01
  -3.862412e+02  -7.992895e+01
  -3.321618e+02  -2.944433e+02
   1.887019e+01  -4.134310e+02
   3.619063e+02  -3.968219e+02
   4.833036e+02  -1.451556e+02
   3.329182e+02   1.157070e+02
   1.945033e+01   2.989742e+02
  -1.088966e+02   2.397490e+02
  -7.462843e+01   2.621135e+01
   1.189667e+02  -9.196757e+01
   1.797026e+02   5.268124e+01
   2.888099e+01   1.967450e+02
  -1.412034e+02   1.590060e+02
  -1.212782e+02  -1.690521e+01
   7.140041e+00  -1.623155e+02
   1.786349e+02  -2.239430e+01
   1.629343e+02   2.332312e+02
  -2.434198e+01   3.533323e+02
  -2.541150e+02   2.057221e+02
  -3.605757e+02  -6.232917e+01
  -2.791266e+02  -2.663527e+02
  -5.206772e+01  -2.684025e+02
   1.331386e+02  -1.282463e+02
   1.291555e+02   2.829532e+00
   4.757295e+01   3.935148e+01
  -7.904344e+01  -3.844129e+01
  -3.482485e+01  -1.612850e+02
   1.377863e+02  -8.795789e+01
   1.821764e+02   2.709726e+01
   2.940692e+01   5.990034e+01
  -6.782561e+01   2.650815e+01
  -5.895029e+01  -7.316020e+01
   1.231657e+02  -1.085710e+02
   3.141438e+02   3.475877e+00
   2.440691e+02   1.292737e+02
   3.623859e+01   2.704247e+02
  -1.944624e+02   2.627412e+02
  -2.689587e+02   7.596361e+01
  -1.489842e+02  -5.595160e+01
   2.787698e+01  -9.304753e+01
   1.066146e+02   6.933812e+00
  -4.713502e+01   7.220188e+01
  -1.845022e+02   3.359353e+01
  -2.100857e+02  -7.915958e+01
  -6.670528e+01  -1.850776e+02
   9.839231e+01  -1.501075e+02
   1.271684e+02  -1.440647e+01
   3.175022e+01   4.148440e+01
  -2.777373e+01   1.131769e+01
  -3.150602e+01  -9.661737e+01
   7.621272e+01  -7.514986e+01
   1.979172e+02  -1.013310e+01
   1.757158e+02   1.159034e+02
  -8.752578e-02   2.032511e+02
  -1.536520e+02   1.353930e+02
  -2.046024e+02   4.609528e+00
  -8.591813e+01  -1.074526e+02
   8.946770e+01  -1.176525e+02
   8.146344e+01  -2.013373e+01
   4.060092e+01   3.359143e+01
  -1.426027e+01   7.244714e+00
   3.162962e+01  -8.501802e-01
   7.896615e+01  -1.312385e+01
   7.577855e+01   1.012752e+02
  -2.249123e+00   1.549719e+02
  -1.510850e+02   1.312002e+02
  -2.703023e+02   1.304955e+01
  -1.336581e+02  -1.803454e+02
  -4.675359e+00  -2.338943e+02
   1.114011e+02  -1.646942e+02
   1.297261e+02  -9.517514e+00
   5.446429e+01   4.866518e+01
   1.856140e+01   4.353180e+01
   3.000647e+01  -1.130815e+00
   6.821250e+01  -6.087234e+00
   3.825278e+01   5.309444e+01
  -4.086784e+01   9.539715e+01
  -1.091446e+02   5.176564e+01
  -1.040522e+02  -5.690705e+01
   1.760537e+01  -1.277623e+02
   1.627325e+02  -7.233384e+01
   2.156596e+02   6.869318e+01
   1.028684e+02   1.956868e+02
  -1.189594e+02   2.002982e+02
  -2.503264e+02   1.054864e+02
  -2.506174e+02  -1.014347e+02
  -1.024824e+02  -1.840545e+02
   5.060843e+01  -1.672511e+02
   1.027132e+02  -7.812632e+01
   8.840978e+01  -2.856662e+01
   4.261103e+01  -7.901099e+01
   8.968496e+01  -9.107041e+01
   1.209512e+02   2.739528e+01
   9.656950e+01   1.323562e+02
   2.326272e+01   2.352909e+02
  -7.263192e+01   1.671560e+02
  -1.713515e+02   9.551572e+00
  -1.277445e+02  -1.068261e+02
   1.077118e+01  -1.452906e+02
   8.914752e+01  -1.208972e+02
   4.099980e+01  -2.172840e+00
   1.514108e+01   5.196440e+01
  -4.278392e+01   5.240422e+01
   4.027806e+01   2.615466e+01
   1.020490e+02   4.158311e+01
   4.750038e+01   3.047621e+01
  -7.819345e+01   6.965931e+01
  -1.625577e+02  -2.657290e+01
  -1.478827e+02  -7.667315e+01
  -1.523307e+01  -1.005291e+02
   1.679642e+02  -7.371870e+01
   1.653575e+02  -3.162032e+00
   3.989161e+01   5.169793e+01
  -5.529915e+01   4.732926e+01
  -9.762575e+01  -6.388558e+00
  -1.941990e+01  -5.248442e+01
   4.039111e+01  -2.312562e+01
   4.787603e+01   1.498681e+01
   4.160732e+01   3.564408e+01
   1.957782e+01   1.737349e+01
   4.226682e+01  -3.990840e+01
   7.469421e+01  -2.215759e+01
   7.119324e+01   1.087883e+02
  -7.583223e+01   1.827450e+02
  -1.575411e+02   1.556115e+02
  -1.829281e+02   1.348100e+01
  -1.342173e+02  -1.042009e+02
  -1.228509e+01  -1.387443e+02
   9.461392e+01  -3.548252e+01
   5.024865e+01   3.961077e+01
  -8.222064e+01  -5.836857e+00
  -1.493783e+02  -6.398101e+01
  -8.321322e+01  -8.493332e+01
   9.471902e+01  -1.166304e+02
   1.552909e+02  -3.895347e+01
   1.489908e+02   6.682774e+01
   2.539969e+01   9.440574e+01
  -7.702372e+01   7.062175e+01
  -3.398984e+01   2.811217e+01
   4.191690e+01  -3.019225e+01
   9.252326e+01   4.179384e+01
   3.673392e+01   1.053418e+02
  -6.769617e+01   1.548515e+02
  -1.206177e+02   5.035625e+01
  -1.038181e+02  -1.070967e+02
  -1.295956e+01  -2.059552e+02
   7.209481e+01  -1.371836e+02
   1.018921e+02  -9.645057e+00
   5.982144e+01   1.028509e+02
  -3.022445e+01   1.113550e+02
  -4.466980e+01   1.944666e+01
  -3.312164e+01  -2.706319e+01
  -4.223562e+01   1.502150e+01
  -3.700285e+00   5.841914e+00
  -2.576793e-01  -5.539904e+00
  -6.224278e+01  -9.748238e+01
  -8.465183e+00  -1.102834e+02
   5.255214e+01  -1.458811e+01
   1.396567e+02   5.708553e+01
   1.038666e+02   1.173270e+02
   9.555710e+00   4.968150e+01
  -6.817681e+01   1.709503e+01
  -1.073717e+02   5.330372e+00
  -3.462746e+01  -1.454877e+01
   5.384000e+01  -1.476639e+01
   1.662861e+01  -2.244449e+01
  -1.897899e+01   1.145645e+01
   6.266962e+00   3.890362e+01
   5.456716e+01   1.249175e+01
   7.821277e+01   1.480492e+01
   4.168969e+01   7.445117e+01
  -9.880026e+01   9.393207e+01
  -1.924375e+02   8.019882e+01
  -1.679323e+02  -7.820566e+01
  -2.023736e+01  -1.585778e+02
   6.209736e+01  -1.723068e+02
   1.186793e+02  -4.611275e+01
   6.893390e+01   3.135977e+01
   8.946794e-01   4.557176e+00
  -1.209258e+01   1.780216e+01
  -6.554319e+00   3.107263e+00
   3.473991e+00   2.935529e+01
   2.058768e+01   1.029996e+02
  -2.566700e+01   6.215877e+01
  -3.597194e+01   3.908528e+00
  -8.152717e+01  -1.332909e+02
   2.097139e+01  -1.110874e+02
   8.920137e+01  -4.977471e+01
   1.173031e+02   1.122095e+02
   2.171247e+01   7.192754e+01
  -8.501862e+01   4.535220e+01
  -8.820626e+01  -2.314181e+01
  -3.743787e+01  -6.842575e+01
   1.913766e+01  -3.898428e+01
   1.561441e+01   4.301133e-01
  -1.678253e+01  -1.426394e+01
  -3.267450e+01   9.105708e+00
  -6.668072e+00  -6.120366e+00
   9.087826e+01  -4.813742e+01
   1.090284e+02  -4.911085e+01
   6.300787e+01   1.104270e+00
  -3.530059e+01   4.410431e+01
  -6.083377e+01   4.940714e+01
  -4.550831e+01   2.286532e+00
   2.143411e+01  -4.845347e+01
   1.674510e+01  -1.889226e+01
   4.055745e+01   1.584614e+01
   1.906414e+01   3.259673e+01
   2.082352e+01   5.918129e+01
  -3.050013e+01   2.905420e+01
  -4.484476e+01  -1.579777e+01
   4.007316e-01  -2.777309e+01
   1.092314e+00   2.722635e+01
   4.268368e+00  -2.815438e-02
  -1.594690e+01  -7.214113e+00
  -1.807776e+01  -6.006734e+01
   3.979163e+00  -3.433605e+01
   4.012059e+01   7.132914e+01
  -6.202552e-01   7.158277e+01
  -6.654495e+01   4.765105e+00
  -3.262323e+01  -6.607565e+01
   1.641750e+01  -8.167079e+01
   5.930611e+01  -3.397303e+01
   1.165601e+02   1.866496e+01
   2.285129e+01   5.646445e+01
  -4.515709e+01   1.766507e+01
  -4.503349e+01   1.715755e+01
  -3.967868e+00   1.250063e+01
   2.555060e+01  -8.573300e+00
   1.882149e+01   1.497375e+00
  -6.290407e+01   2.735019e+01
  -9.006484e+01   3.210567e+01
