
 $NMID
 id='ANONYMOUS ', fmtdat='(2E16.6)'
 volume=1.0
 tramp=1.0
 $END
   4.718049e+03   2.696291e+01
   2.508637e+03   3.024018e+03
  -7.104794e+02   3.142467e+03
  -2.295195e+03   7.225669e+02
  -1.236443e+03  -8.306351e+02
   7.242040e+02  -7.729385e+02
   1.050390e+03   3.883478e+02
   3.310038e+01   1.221166e+03
  -9.036413e+02   8.694265e+02
  -1.095719e+03  -6.586372e+01
  -5.544720e+02  -9.370439e+02
   3.238928e+02  -1.051348e+03
   7.538053e+02  -8.975196e+01
   4.149922e+02   8.378865e+02
  -3.126481e+02   7.961850e+02
  -7.161242e+02  -4.234236e+01
  -2.843857e+02  -8.006142e+02
   4.406214e+02  -7.310178e+02
   6.899837e+02  -1.346513e+02
   4.641558e+02   4.197565e+02
   4.411919e+01   4.746843e+02
  -2.684054e+02   2.799440e+02
  -2.313374e+02  -1.558495e+01
   1.431448e+02  -1.063321e+02
   4.072924e+02   9.798597e+01
   2.160476e+02   5.103322e+02
  -4.512912e+02   4.568571e+02
  -8.849236e+02  -9.703913e+01
  -4.165555e+02  -5.570505e+02
   4.300355e+02  -4.834736e+02
   7.689191e+02   3.004510e+01
   4.061633e+02   5.442239e+02
  -2.627568e+02   5.706187e+02
  -6.235165e+02   2.326501e+02
  -4.643232e+02  -2.305942e+02
  -1.034292e+02  -5.417799e+02
   2.614212e+02  -3.418342e+02
   2.081444e+02   2.450968e+02
  -1.927836e+02   4.916716e+02
  -4.686095e+02   9.270822e+00
  -2.967623e+02  -6.870415e+02
   2.903046e+02  -7.439012e+02
   6.014140e+02  -5.360897e+01
   2.812919e+02   5.827774e+02
  -3.437828e+02   3.584191e+02
  -4.580067e+02  -3.347575e+02
   4.223676e+01  -6.050309e+02
   5.886537e+02  -1.729671e+02
   6.730188e+02   3.771823e+02
   1.666794e+02   5.765027e+02
  -3.843251e+02   4.054933e+02
  -6.805622e+02  -6.203100e+01
  -4.118680e+02  -3.880683e+02
   1.329953e+02  -4.407197e+02
   4.399363e+02  -2.416546e+01
   2.539632e+02   1.953022e+02
  -1.005818e+02   1.561688e+02
  -1.690375e+02  -1.754991e+02
   1.465233e+02  -1.779388e+02
   3.590206e+02   7.640095e+01
   1.568704e+02   3.238410e+02
  -2.462091e+02   2.732048e+02
  -3.274068e+02   6.867397e+01
  -2.345102e+02  -1.002684e+02
   1.539597e+01  -2.156616e+02
   2.191191e+02  -3.170974e+02
   3.049860e+02  -2.409416e+02
   2.728255e+02   1.359875e+02
   9.197082e+01   4.515671e+02
  -1.379668e+02   3.880587e+02
  -1.674395e+02   1.127299e+02
  -1.969356e+01  -5.789513e+01
  -2.257763e+01   7.688148e+01
  -1.728736e+02   1.149460e+02
  -2.815161e+02  -5.610976e+01
  -1.782620e+02  -2.639907e+02
   8.919645e+01  -2.715296e+02
   2.419340e+02  -1.033491e+01
   2.021519e+02   2.340118e+02
  -1.894134e+01   2.976988e+02
  -2.673915e+02   1.303339e+02
  -3.735012e+02  -1.469461e+02
  -1.743989e+02  -3.269701e+02
   1.193075e+02  -3.036710e+02
   2.092784e+02  -1.051922e+02
   1.124686e+02  -1.074816e+01
   8.327512e+01  -8.256226e+01
   2.359251e+02  -7.832607e+01
   4.083291e+02   4.076477e+01
   3.378898e+02   2.689928e+02
   1.060715e+01   4.683343e+02
  -3.334631e+02   4.263287e+02
  -5.265918e+02   1.836290e+02
  -3.362002e+02  -9.928964e+01
  -8.692055e+01  -3.002966e+02
   1.023809e+02  -2.935357e+02
   9.117499e+01  -5.123687e+01
  -1.028645e+02   1.296894e+02
  -1.717433e+02  -3.115034e+01
  -5.203989e+01  -2.189912e+02
   1.351441e+02  -1.961943e+02
   2.060731e+02   5.695674e+01
   8.355518e+00   2.211298e+02
  -2.011287e+02   5.804787e+01
  -1.583117e+02  -2.501801e+02
   3.877458e+01  -3.478144e+02
   2.365681e+02  -1.863770e+02
   2.948674e+02   5.586370e+01
   2.371771e+02   2.238673e+02
   9.713326e+01   2.455747e+02
  -1.046976e+02   1.534146e+02
  -1.427394e+02   3.540583e+01
  -1.355282e+01  -2.020658e+01
   6.757135e+01   3.938620e+01
   5.238583e+01   1.301178e+02
  -1.393056e+02   1.267328e+02
  -2.142051e+02  -3.693837e+00
  -4.829735e+01  -1.011022e+02
   9.218375e+01  -2.751046e+00
   8.218924e+01   9.392568e+01
  -1.344839e+02   1.018743e+02
  -2.716279e+02   2.824422e+01
  -2.756452e+02  -1.168624e+02
  -7.237178e+01  -2.328640e+02
   1.827683e+02  -2.782230e+02
   2.765069e+02  -7.843482e+01
   1.979613e+02   8.247529e+01
  -2.239502e+01   1.130867e+02
  -1.203638e+02  -9.203134e+00
   1.062073e+01  -1.494793e+02
   1.931627e+02  -4.350471e+01
   2.537121e+02   1.073505e+02
   8.707147e+01   2.209430e+02
  -8.145659e+01   1.738611e+02
  -1.230334e+02   4.059716e+01
  -7.363279e+01  -3.944505e+01
   2.585191e+01  -2.368988e+01
   4.592143e+01   7.677318e+01
  -7.162159e+01   9.183856e+01
  -2.086137e+02   4.449475e+01
  -1.953341e+02  -1.226196e+02
  -4.883144e+01  -1.779905e+02
   1.751158e+02  -1.560005e+02
   1.820576e+02   7.944710e+00
   5.612095e+01   1.303595e+02
  -5.766304e+01   1.303100e+02
  -4.821823e+01   3.032468e+01
  -1.737733e+01  -3.590836e+01
  -8.989277e+00  -1.567646e+01
  -3.667556e+01  -2.910336e+01
  -7.401147e+01   3.536016e+00
  -7.050963e+01  -1.139889e+02
  -4.387731e+01  -1.263114e+02
   1.293607e+02  -1.482524e+02
   2.449310e+02  -7.082798e+01
   1.982918e+02   1.297171e+02
   4.313266e+01   2.483035e+02
  -1.139842e+02   1.782347e+02
  -1.477818e+02   2.471727e+01
  -8.747874e+01  -5.806138e+01
  -1.265479e+01  -7.069928e+01
  -6.541985e+01  -8.189861e+00
  -8.358841e+01   1.146420e+01
  -3.959887e+01  -6.006708e+01
   3.354181e+01  -8.473037e+01
   9.295939e+01  -7.487028e+01
   7.418142e+01   2.682482e+01
   1.058507e+01   9.232621e+01
  -1.496311e+02   1.029594e+02
  -1.716934e+02  -4.186914e+01
  -1.201686e+02  -1.871902e+02
   9.865362e+01  -2.329431e+02
   2.328722e+02  -1.212787e+02
   2.331730e+02   4.943155e+01
   1.016928e+02   1.708069e+02
  -5.245537e+00   1.520987e+02
  -9.532345e+01   9.811806e+01
  -9.176143e+01   7.437991e+01
  -7.116247e+01   9.721395e+01
  -1.061510e+02   5.557424e+01
  -1.180407e+02   6.962247e+00
  -1.334593e+02  -1.544517e+02
  -5.430684e+01  -2.715145e+02
   6.683925e+01  -1.911111e+02
   1.535657e+02  -4.241259e+01
   1.599588e+02   1.039043e+02
   3.718753e+01   1.762628e+02
  -6.404680e+01   7.774304e+01
  -6.969693e+01   2.194071e+01
  -2.726257e+01  -1.030260e+01
  -2.070593e+01  -3.135036e+01
  -5.319764e+01  -2.323043e+01
  -9.244662e+01  -3.376508e+01
  -5.910121e+01  -4.495860e+01
   8.704541e+01  -1.575638e+01
   1.426751e+02  -1.333041e+01
   1.645046e+02   5.419401e+01
  -1.272200e-01   1.072428e+02
  -1.112839e+02   9.186506e+01
  -1.665098e+02   2.978351e+01
  -6.920559e+01  -4.084514e+01
   6.968750e+01  -3.038621e+01
   9.333420e+01   2.261359e+01
   8.515775e+00   8.285479e+01
  -4.147205e+01   3.293313e+01
  -4.760746e+01  -3.219284e+01
  -5.682840e+01  -4.383230e+01
  -5.702520e+01  -3.312284e+01
  -6.449452e+01   3.152364e+01
  -7.550202e+01   1.154151e+01
  -4.554938e+01  -9.397784e+01
   4.737946e+00  -1.439478e+02
   8.993435e+01  -1.387203e+02
   1.510844e+02  -4.552661e+01
   1.312284e+02   8.379153e+01
   2.704864e+01   1.341350e+02
  -7.743005e+01   4.740805e+01
  -5.682187e+01   1.141260e+00
   3.463684e+01  -1.600501e+01
   1.550062e+02   2.548395e+01
   8.942403e+01   1.292697e+02
  -9.247010e+01   7.722211e+01
  -1.876681e+02   6.204904e+01
  -1.654647e+02  -3.473741e+01
  -1.954365e+01  -7.681643e+01
   6.566768e+01  -8.035213e+01
   7.399171e+01  -2.814032e+00
  -4.222251e+01  -2.335683e+00
  -9.007575e+01  -1.939593e+01
  -1.669044e+01  -1.382540e+02
   7.145295e+01  -1.524469e+02
   1.575866e+02  -7.948826e+01
   1.324124e+02   8.296216e+01
  -1.047858e+01   2.128691e+02
  -1.082911e+02   1.522294e+02
  -1.561543e+02  -2.073417e+01
  -2.448260e+01  -1.074623e+02
  -7.509020e+00  -9.569500e+01
   5.474677e+01   6.808660e+00
   6.151438e+01   5.481298e+01
   2.067068e+01  -1.517674e+01
  -6.152487e+00  -3.289934e+01
   1.160105e+01   9.020210e+00
   6.170594e+01   8.531707e+01
   6.889171e+01   1.323207e+02
  -5.787086e+01   2.265967e+01
  -1.259602e+02  -3.656597e+01
  -1.287857e+02  -6.987746e+01
  -2.162367e+01  -4.305888e+01
   8.476804e+01  -3.307223e+01
   1.018737e+02   1.295198e+01
  -6.564906e+00   7.593888e+00
  -2.390863e+01   2.429723e+01
   1.207117e+00   3.532712e+01
  -7.661332e+00  -4.678909e+01
  -1.560672e+01  -7.927941e+00
  -4.492527e+01   2.899331e+01
  -9.651487e+01  -2.202254e+01
  -3.690634e+01  -5.642249e+01
   7.185456e+01  -1.167271e+02
   1.857312e+02  -5.878365e+01
   1.495774e+02   6.018206e+01
   4.405558e+01   1.472231e+02
  -7.169081e+01   1.604788e+02
  -1.161476e+02   7.916620e+01
  -7.921673e+01  -2.936949e+01
  -1.094726e+01  -2.683693e+01
   2.232922e+01   2.343772e+00
  -1.424198e+01   1.906671e+01
  -3.210922e+01  -1.710689e+01
  -1.397879e+01  -6.690402e+01
   2.769342e+01  -1.077666e+02
   4.391961e+01   5.930446e+00
   7.158944e+01   1.093513e+02
   9.419033e+00   1.352816e+02
  -9.155109e+01  -4.771911e+00
  -9.946842e+01  -1.029141e+02
  -3.175696e+01  -7.851872e+01
   7.362492e+01  -7.395849e+01
   9.966214e+01  -8.722708e+00
   2.626392e+01   6.593036e+01
  -1.439704e+01   7.064473e+01
  -2.931644e+01   6.601677e+01
   2.282314e+01   2.363937e+01
   3.551277e+01  -2.468153e+01
   4.348705e+01   1.921275e+01
  -5.391130e+01   1.133032e+02
  -9.392882e+01   8.341705e+01
  -6.031744e+01  -1.302125e+01
   5.017743e+00  -8.502828e+01
   4.476793e+01  -6.147828e+01
   4.395950e+01   4.942060e+00
  -1.467657e+01   6.051994e+01
  -2.630188e+01   4.669654e+01
  -1.930881e+01  -2.293738e+01
   1.976090e+01  -6.153147e+01
   1.402273e+01  -1.929494e+01
   5.010201e+01  -4.500064e-01
   5.899430e+01   2.546913e+01
   2.024534e+01  -6.203281e+00
  -8.908518e+00   1.814783e+01
  -4.503659e+00   8.654153e+00
   1.015323e+01   7.248481e+01
  -4.596720e+01   3.728700e+01
  -5.571806e+01   1.351303e+00
  -1.621476e+01  -5.247451e+01
   1.013861e+01  -6.520283e+01
   7.531449e+01   5.044488e+00
   9.880661e+01   4.002036e+01
   9.413221e+00   8.530863e+01
  -7.556834e+01   2.743196e+01
  -8.535199e+01  -2.135143e+01
  -7.225315e+01  -1.371566e+01
   1.806138e+01  -3.541195e+01
   5.955307e+01  -4.543191e+01
   1.262692e+01  -2.376219e+01
  -5.481897e+01  -1.389903e+01
  -2.863048e+01  -1.775841e+01
   3.845553e+01  -4.200253e+01
   6.729634e+01   1.278208e+01
