
 $NMID
 id='ANONYMOUS ', fmtdat='(2E16.6)'
 volume=1.0
 tramp=1.0
 $END
  -4.445208e+03   1.897807e+02
  -2.485601e+03  -2.804281e+03
   1.289529e+03  -3.034463e+03
   2.269973e+03  -8.781593e+02
   1.161799e+03   8.128402e+02
  -5.924546e+02   7.312993e+02
  -9.529442e+02  -4.075045e+02
  -1.915795e+02  -1.119518e+03
   8.333607e+02  -8.280144e+02
   1.065467e+03   1.005486e+02
   6.037849e+02   9.536199e+02
  -2.318397e+02   9.482007e+02
  -6.951350e+02   1.483239e+02
  -4.594708e+02  -7.532303e+02
   3.385804e+02  -8.200947e+02
   6.893006e+02   1.046057e+01
   3.548332e+02   7.948382e+02
  -4.094053e+02   6.664313e+02
  -7.174343e+02   1.304573e+02
  -4.573473e+02  -4.189533e+02
  -5.050840e+01  -5.314853e+02
   2.890429e+02  -3.085690e+02
   2.492738e+02  -2.225651e+01
  -6.851220e+01   1.165372e+02
  -4.018233e+02  -8.967995e+01
  -2.593807e+02  -4.275873e+02
   4.457218e+02  -4.177907e+02
   8.381415e+02   7.302313e+01
   4.018626e+02   5.724275e+02
  -3.595058e+02   4.869196e+02
  -8.009527e+02   7.127442e+00
  -4.024571e+02  -5.041390e+02
   2.566509e+02  -5.634959e+02
   6.265918e+02  -2.199568e+02
   4.580151e+02   2.497692e+02
   9.506904e+01   5.653193e+02
  -2.209268e+02   3.553640e+02
  -1.900757e+02  -1.683182e+02
   8.355975e+01  -4.673615e+02
   4.673119e+02  -2.020877e+01
   2.557017e+02   6.350214e+02
  -2.567696e+02   7.110753e+02
  -5.765413e+02   8.481246e+01
  -2.651535e+02  -4.747950e+02
   2.537432e+02  -3.411685e+02
   4.295288e+02   2.970670e+02
  -4.635121e+01   5.397457e+02
  -5.643867e+02   1.300296e+02
  -6.254884e+02  -4.096512e+02
  -1.579005e+02  -6.307874e+02
   4.320984e+02  -3.726714e+02
   6.229221e+02   6.590875e+01
   3.978402e+02   3.732149e+02
  -1.544298e+02   4.092309e+02
  -4.786808e+02   9.022742e+01
  -2.846137e+02  -1.958952e+02
   8.704084e+01  -1.222486e+02
   1.590233e+02   1.631132e+02
  -1.483066e+02   1.909245e+02
  -3.324014e+02  -3.735322e+01
  -1.503163e+02  -2.987379e+02
   2.055695e+02  -2.789711e+02
   3.705564e+02  -4.397574e+01
   1.582348e+02   1.411789e+02
  -4.995160e+01   2.238504e+02
  -2.354428e+02   2.951560e+02
  -3.070096e+02   1.926600e+02
  -2.961408e+02  -1.315615e+02
  -1.220100e+02  -4.307313e+02
   1.532316e+02  -4.329517e+02
   1.462707e+02  -1.029043e+02
   6.370683e+01   5.399620e+01
   5.535257e+01  -4.091471e+01
   1.723547e+02  -1.008813e+02
   2.704822e+02   3.765734e+01
   1.461505e+02   2.645224e+02
  -8.024606e+01   2.668167e+02
  -2.058688e+02   8.021984e+00
  -1.942205e+02  -2.522333e+02
   1.964696e+01  -3.269268e+02
   2.910823e+02  -1.547330e+02
   3.867645e+02   1.527926e+02
   1.767544e+02   3.765702e+02
  -8.554416e+01   3.236844e+02
  -2.544423e+02   1.136597e+02
  -1.643687e+02  -1.900120e+01
  -1.146295e+02   2.297582e+01
  -2.622748e+02   5.373771e+01
  -4.347959e+02  -6.182639e+01
  -3.102807e+02  -3.103756e+02
  -2.074421e+01  -4.113954e+02
   3.607558e+02  -4.443365e+02
   5.212870e+02  -1.990599e+02
   3.174159e+02   1.038670e+02
   4.759133e+01   2.903962e+02
  -1.076215e+02   2.737006e+02
  -1.163602e+02   2.058120e+01
   7.474739e+01  -1.157423e+02
   1.880055e+02   1.076409e+01
   6.241387e+01   1.746378e+02
  -1.503298e+02   1.813439e+02
  -1.694142e+02  -4.663436e+01
   3.460842e+00  -2.424407e+02
   1.603817e+02  -5.666229e+01
   1.772764e+02   1.954247e+02
  -7.080651e+01   3.517686e+02
  -2.269405e+02   1.827909e+02
  -3.391806e+02  -1.066850e+02
  -2.948745e+02  -2.200736e+02
  -8.371354e+01  -2.636844e+02
   1.279424e+02  -1.679377e+02
   1.856537e+02  -3.113660e+01
   4.650668e+01   4.870800e+01
  -5.368882e+01  -3.936538e+01
  -4.889566e+01  -1.051000e+02
   1.086674e+02  -1.062867e+02
   2.152904e+02   3.120774e+00
   6.371301e+01   4.608052e+01
  -6.435973e+01  -4.102198e+00
  -6.541312e+01  -6.630926e+01
   1.595234e+02  -9.810684e+01
   2.783981e+02   3.076441e+01
   2.592431e+02   1.647934e+02
   3.320529e+01   2.503772e+02
  -2.100217e+02   2.841445e+02
  -2.919622e+02   1.215128e+02
  -1.402251e+02  -5.783516e+01
   4.257769e+00  -1.300466e+02
   1.068015e+02   1.527480e+01
   1.481257e+00   8.940447e+01
  -2.052226e+02   7.024134e+01
  -2.366566e+02  -1.207195e+02
  -5.260769e+01  -2.363362e+02
   7.683702e+01  -1.570414e+02
   1.397991e+02  -5.212810e+01
   6.881009e+01   3.153186e+01
  -1.416585e+01   3.036393e+01
  -5.401296e+01  -6.849437e+01
   5.501513e+01  -7.354732e+01
   1.982211e+02  -2.405867e+01
   1.949830e+02   1.360775e+02
   2.662792e+01   2.354391e+02
  -1.785159e+02   1.705996e+02
  -1.941868e+02   1.448024e-01
  -5.870838e+01  -1.293273e+02
   8.895645e+01  -1.056558e+02
   1.039127e+02  -5.493162e+01
   2.956938e+01   5.382793e+01
  -2.209901e+01   3.336563e+01
   2.608438e+01  -1.225063e+01
   2.474565e+01  -1.469710e+01
   1.000204e+02   6.524173e+01
   1.738793e+01   1.298755e+02
  -1.239690e+02   1.423568e+02
  -2.256622e+02   3.054429e+01
  -1.832338e+02  -1.709588e+02
  -6.347356e+01  -2.535607e+02
   1.439387e+02  -1.666463e+02
   1.620128e+02  -2.840964e+01
   6.413788e+01   7.525827e+01
  -2.893161e+00   4.175375e+01
   6.524665e+01  -1.299862e+01
   9.201315e+01   8.865254e+00
   5.529096e+01   5.888271e+01
  -4.636093e+01   7.412657e+01
  -1.238949e+02   3.656672e+01
  -8.210005e+01  -4.226343e+01
   1.294570e+01  -1.164370e+02
   1.233558e+02  -8.975110e+01
   1.817259e+02   6.737618e+01
   1.263685e+02   1.901905e+02
  -7.822736e+01   2.313181e+02
  -2.702118e+02   1.205380e+02
  -2.863035e+02  -8.507093e+01
  -1.245311e+02  -2.001213e+02
   3.949752e+01  -1.851609e+02
   1.013795e+02  -1.154417e+02
   1.230100e+02  -7.094684e+01
   9.153308e+01  -7.062355e+01
   7.709340e+01  -2.514792e+01
   1.121850e+02   3.402329e+01
   1.051093e+02   1.495963e+02
  -1.525974e+01   2.344232e+02
  -9.949398e+01   1.531499e+02
  -1.702078e+02   2.909500e+01
  -1.567017e+02  -1.546963e+02
  -5.064374e+01  -1.682937e+02
   7.949610e+01  -9.705986e+01
   4.876521e+01  -1.359655e+01
   6.027613e+01   5.554635e+01
  -1.211394e+00   4.520728e+01
   4.048900e+01  -5.655852e+00
   6.147754e+01   2.804135e+01
   7.961507e+01   6.763085e+01
  -5.225562e+01   1.962474e+01
  -1.557885e+02  -9.520024e+00
  -1.491071e+02  -4.764990e+01
  -7.264328e+00  -1.134224e+02
   9.072682e+01  -5.083140e+01
   1.364171e+02  -3.392266e+00
   4.974116e+01   3.179235e+01
  -5.921094e+01   2.758518e+01
  -5.902143e+01  -1.712699e+01
  -1.432414e+01  -5.978884e+01
   7.560681e+01  -6.250227e+01
   9.104533e+01  -1.513986e+00
   5.878078e+01   6.481163e+01
   4.499394e+01   2.809784e+01
   5.350741e+01   2.015012e+01
   7.228129e+01  -5.917345e+00
   2.863598e+01   7.076467e+01
  -2.267448e+01   1.793992e+02
  -1.326342e+02   1.338418e+02
  -1.644601e+02   4.933300e+01
  -1.537217e+02  -1.120204e+02
  -3.478496e+01  -1.503634e+02
   9.364341e+01  -6.339235e+01
   2.793730e+01   3.002209e+01
  -5.191466e+01   2.765047e+01
  -1.481415e+02  -4.747140e+01
  -9.864708e+01  -1.116917e+02
   7.183569e+01  -1.132223e+02
   2.281625e+02  -2.734513e+01
   1.739938e+02   4.304167e+01
   5.359411e+01   9.558688e+01
  -9.158558e+01   4.533723e+01
  -5.277355e+01   3.135396e+00
   4.779036e+01  -7.935935e+01
   8.347532e+01   4.094306e+01
   4.083763e+01   1.101981e+02
  -9.731748e+01   1.461983e+02
  -1.583830e+02   9.699121e+01
  -1.588631e+02  -1.118961e+02
   1.006466e+01  -2.330017e+02
   8.153869e+01  -1.178971e+02
   9.703472e+01   1.448385e+01
   2.629815e+01   1.463637e+02
  -1.141922e+01   8.250750e+01
  -4.636082e+01  -1.031001e+01
  -6.141690e+01  -3.686332e+01
  -6.741937e+00   8.447943e+00
   1.110178e+01   2.544964e+01
  -3.544175e+01  -1.628343e+01
  -3.008567e+01  -8.384156e+01
  -7.112635e+01  -9.625689e+01
   2.337380e+01  -2.049296e+01
   9.098998e+01   3.730117e+01
   1.250042e+02   9.739411e+01
  -7.329052e+00   7.366746e+01
  -8.011199e+01   5.710060e+01
  -9.083195e+01  -7.733661e+00
  -3.231879e+01  -9.108598e+00
   4.901704e+01  -1.986560e+01
   3.866568e+01  -1.895360e+01
  -2.432712e+01  -2.316385e+01
  -8.129325e+00   1.899257e+00
   1.094637e+02  -4.854523e+01
   7.546225e+01   2.642545e+01
   5.219937e+00   1.077198e+02
  -1.592168e+02   1.113243e+02
  -1.790872e+02   4.870171e+01
  -1.638220e+02  -6.318595e+01
  -3.715438e+01  -1.399679e+02
   1.202386e+02  -1.471241e+02
   1.345216e+02  -7.961386e+01
   7.302426e+01   4.277454e+01
   1.977560e+01   8.711452e+01
  -6.283555e+00  -1.502034e+01
   3.691768e-01   7.253133e-01
   2.714461e+01   4.738747e+01
   4.859591e+01   1.056874e+02
  -3.854175e+01   7.760411e+01
  -7.736067e+01  -4.015313e+01
  -9.025739e+01  -1.613044e+02
   1.899112e+00  -1.323754e+02
   7.091003e+01  -1.362985e+01
   9.672168e+01   8.280314e+01
   2.973240e+01   9.613344e+01
  -9.513247e+01   5.186477e+01
  -1.061790e+02  -9.849231e+00
  -2.035470e+01  -3.685468e+01
   1.479249e+00  -5.990390e+01
   1.815186e+01  -4.503628e+01
  -4.602934e+01  -1.684282e+01
  -9.613238e+01   3.006091e+01
  -1.872112e+01  -1.752922e+01
   7.615778e+01  -1.114524e+02
   1.127222e+02  -7.540766e+01
   7.055753e+01   1.065803e+01
   9.789635e+00   1.082971e+02
  -5.277771e+01   5.111793e+01
  -4.654507e+01   2.061047e+01
   1.476312e+01  -1.942761e+01
  -4.061083e+00  -5.619263e+01
   2.778110e+01   3.639103e+01
   1.897479e+01   4.961133e+01
  -1.501678e+00   5.305435e+01
  -5.341581e+01   4.799727e-01
  -6.117495e+01  -6.694017e+01
  -3.553369e+01   2.524429e+01
  -4.989034e+00   1.551044e+00
   2.603963e+01  -1.053491e+01
  -3.639310e+00  -3.579786e+01
   4.189299e+01  -5.358804e+01
   2.776939e+01   1.683506e+00
   5.562086e+01   3.660499e+01
   2.250951e+01   8.541703e+01
  -2.680808e+01   6.364967e+01
  -5.057286e+01  -5.095507e+01
  -1.312083e+01  -6.149088e+01
   5.696800e+01  -2.982277e+01
   1.144029e+02   2.478665e+01
   5.409119e+01   4.124698e+01
  -3.848821e+01   5.847855e+01
  -5.333091e+01   3.349778e+01
  -3.159342e+01   2.695533e+01
   5.504185e+01   1.206658e+01
   2.897030e+01   2.585109e+01
  -3.554886e+01   2.950082e+01
  -7.648117e+01   3.078497e+01
