
 $NMID
 id='ANONYMOUS ', fmtdat='(2E16.6)'
 volume=1.0
 tramp=1.0
 $END
   3.988338e+03  -3.172989e+02
   2.218084e+03   1.984606e+03
  -3.639654e+02   2.750735e+03
  -1.565494e+03   1.082298e+03
  -9.244750e+02  -9.027402e+01
   2.181436e+02  -2.068481e+02
   6.273535e+02   4.183416e+02
  -8.417622e+01   8.460305e+02
  -7.170891e+02   6.808454e+02
  -8.201950e+02   9.792803e+00
  -4.227681e+02  -6.612818e+02
   1.076268e+02  -7.104858e+02
   4.003599e+02  -8.855062e+01
   2.525343e+02   6.027840e+02
  -2.062315e+02   6.023215e+02
  -4.925894e+02   6.944383e+01
  -3.315958e+02  -6.397126e+02
   2.139335e+02  -6.594217e+02
   5.633805e+02  -2.844916e+02
   4.914420e+02   2.283670e+02
   1.422160e+02   4.024161e+02
  -1.849601e+02   2.596590e+02
  -1.410190e+02   6.461193e+01
   1.374290e+02   1.334199e+01
   3.771271e+02   1.490493e+02
   8.886441e+01   4.264429e+02
  -4.931969e+02   2.453378e+02
  -7.237368e+02  -8.616856e+01
  -2.598460e+02  -4.757352e+02
   3.816318e+02  -3.381629e+02
   6.691297e+02   1.379317e+02
   2.553673e+02   4.582461e+02
  -3.556369e+02   4.619354e+02
  -5.335568e+02   1.782208e+02
  -4.117519e+02  -1.735490e+02
  -9.274892e+01  -3.920165e+02
   1.048134e+02  -2.580247e+02
   6.006055e+01   1.679257e+02
  -1.888778e+02   2.807560e+02
  -3.309606e+02  -1.143452e+02
  -1.046233e+02  -6.624310e+02
   2.927793e+02  -5.262270e+02
   4.293518e+02   2.053734e+01
   1.711990e+02   4.300980e+02
  -2.503818e+02   2.580092e+02
  -2.906106e+02  -3.036632e+02
   1.237833e+02  -5.178218e+02
   5.126020e+02  -1.097143e+02
   5.802071e+02   3.601586e+02
   1.565792e+02   5.508110e+02
  -3.693075e+02   3.047056e+02
  -6.145909e+02  -8.419050e+01
  -3.428458e+02  -3.200358e+02
   9.152917e+01  -3.092534e+02
   3.895633e+02  -6.499944e+01
   1.892045e+02   1.336672e+02
  -4.175471e+01   4.187798e+01
  -1.183616e+02  -1.400449e+02
   1.301519e+02  -1.438310e+02
   3.202014e+02   5.530904e+01
   1.572092e+02   2.200451e+02
  -2.072129e+02   2.807030e+02
  -3.567986e+02   1.094323e+02
  -2.443162e+02  -9.814553e+01
   5.306278e+01  -2.782024e+02
   2.681730e+02  -3.166049e+02
   3.574355e+02  -1.728350e+02
   2.877373e+02   1.720358e+02
   6.091880e+01   4.325833e+02
  -8.056784e+01   3.533226e+02
  -7.147547e+01   1.535314e+02
  -1.253931e+01   6.012425e+01
  -8.511250e+01   1.165472e+02
  -2.479600e+02   1.365465e+02
  -3.162995e+02  -8.902983e+01
  -1.354851e+02  -2.741996e+02
   8.112401e+01  -2.318171e+02
   2.226629e+02   2.405332e+01
   1.623829e+02   2.559991e+02
  -8.069803e+01   3.003408e+02
  -2.797307e+02   8.457036e+01
  -3.163075e+02  -1.808255e+02
  -1.632006e+02  -3.381899e+02
   9.196950e+01  -2.801700e+02
   1.784049e+02  -1.002588e+02
   1.225150e+02  -4.948326e+01
   1.281309e+02  -9.402512e+01
   2.766316e+02  -5.805381e+01
   4.764890e+02   5.997607e+01
   3.544496e+02   3.065902e+02
   2.159157e+01   4.464309e+02
  -3.991068e+02   3.788371e+02
  -4.840664e+02   1.509116e+02
  -3.008613e+02  -9.939344e+01
  -2.038743e+01  -2.878224e+02
   9.564296e+01  -2.321382e+02
   2.560520e+01  -1.299161e+01
  -1.160876e+02   6.657365e+01
  -1.219625e+02  -4.283935e+01
  -4.062499e+01  -1.953000e+02
   1.621510e+02  -1.171680e+02
   1.615407e+02   3.995911e+01
  -1.794051e+01   1.756614e+02
  -1.827044e+02   4.224394e+01
  -1.666449e+02  -2.285532e+02
  -2.067472e+01  -3.813245e+02
   2.301700e+02  -1.949011e+02
   3.713412e+02   3.914095e+01
   3.453001e+02   2.466027e+02
   1.068262e+02   3.239023e+02
  -1.291616e+02   1.467254e+02
  -1.779661e+02   2.651717e+01
  -4.249211e+01  -1.683854e+01
   6.364109e+01   6.190100e+01
   5.519473e+01   1.546196e+02
  -1.146668e+02   1.030511e+02
  -2.040150e+02  -1.646023e+01
  -4.958569e+01  -4.345072e+01
   8.544213e+01  -1.831625e+01
   6.576293e+01   7.602999e+01
  -1.436920e+02   6.412510e+01
  -3.042804e+02  -3.295421e+00
  -2.688464e+02  -1.637669e+02
  -5.220919e+01  -2.747130e+02
   1.903954e+02  -2.440716e+02
   2.784826e+02  -1.070466e+02
   1.551075e+02   6.778713e+01
  -3.885846e+01   1.000670e+02
  -1.036681e+02  -2.213907e+01
   2.387540e+01  -9.392290e+01
   1.866916e+02  -5.277434e+01
   2.061139e+02   1.032162e+02
   8.404391e+01   2.054699e+02
  -8.870422e+01   1.436402e+02
  -1.174619e+02   2.874729e+01
  -4.821881e+01  -4.206507e+01
   4.862847e+01  -6.915200e+00
   9.476521e+01   1.016424e+02
  -1.021443e+02   1.448794e+02
  -2.199406e+02   1.860659e+01
  -2.214949e+02  -1.851802e+02
  -1.998101e+01  -2.008569e+02
   1.765192e+02  -1.526885e+02
   2.118356e+02   1.746614e+01
   5.819831e+01   1.032898e+02
  -8.027503e+01   1.047832e+02
  -8.248475e+01   4.055004e+01
  -1.969428e+01  -4.285165e+00
   2.680845e+01  -5.059745e+01
   2.012146e+01   8.523524e+00
  -7.125707e+01  -2.309691e+01
  -1.219134e+02  -9.301183e+01
   7.708433e+00  -1.770329e+02
   1.372748e+02  -1.858631e+02
   2.371667e+02  -3.488526e+01
   1.857881e+02   1.486526e+02
   3.348859e+01   2.317214e+02
  -1.260591e+02   1.818534e+02
  -1.560848e+02   1.348766e+01
  -6.209426e+01  -5.276653e+01
  -1.116802e+01  -4.469186e+01
  -6.804240e+01   3.583864e+01
  -1.258345e+02   4.067311e+01
  -6.151879e+01  -5.214932e+01
   3.319308e+01  -8.581089e+01
   1.546472e+02  -4.247528e+01
   1.055770e+02   4.061499e+01
   5.150476e+00   1.374189e+02
  -1.516695e+02   8.262326e+01
  -1.956643e+02  -6.189735e+01
  -1.285687e+02  -2.483049e+02
   1.215291e+02  -2.449401e+02
   2.347566e+02  -7.834127e+01
   2.479255e+02   1.007798e+02
   9.489742e+01   2.018235e+02
  -3.387898e+01   1.430097e+02
  -1.044618e+02   7.392138e+01
  -7.850730e+01   4.694413e+01
  -6.913420e+01   1.062488e+02
  -9.334812e+01   5.837556e+01
  -1.374026e+02  -1.775971e+01
  -1.171494e+02  -1.638931e+02
  -3.244074e+01  -2.574272e+02
   1.048463e+02  -1.723573e+02
   1.895285e+02   1.907854e+01
   1.485973e+02   1.374577e+02
   4.561355e+01   1.668329e+02
  -3.233113e+01   7.376983e+01
  -3.168422e+01   6.082948e+00
  -2.355808e+01  -4.948761e+01
   2.135595e+01  -4.301482e+01
  -4.551023e+01  -1.371269e+01
  -9.984727e+01  -1.141012e+00
  -6.617877e+01  -6.292628e+01
   8.304911e+01  -6.992341e+01
   1.760444e+02  -2.907245e+01
   1.754834e+02   5.904131e+01
   2.498868e+01   9.634847e+01
  -1.035603e+02   1.188706e+02
  -1.450360e+02   4.306263e+00
  -3.966016e+01  -3.962964e+01
   4.081174e+01  -4.642863e+01
   7.405146e+01   3.707319e+01
   2.220846e+01   5.853747e+01
  -6.057434e+01   6.287358e+01
  -8.592387e+01  -1.603923e+01
  -5.031911e+01  -4.493065e+01
  -3.100860e+01  -5.109537e+01
  -6.210396e+01  -6.365659e+00
  -1.077089e+02   7.017780e+00
  -2.357659e+01  -9.303410e+01
   3.791459e+01  -1.279056e+02
   1.450664e+02  -1.441450e+02
   1.475375e+02  -6.010995e+01
   1.257884e+02   1.050968e+02
   2.586605e+01   1.700150e+02
  -8.640670e+01   5.049403e+01
  -7.557754e+01  -4.159255e+01
   6.764541e+01  -9.146557e+00
   1.659253e+02   3.529982e+01
   9.740308e+01   1.296214e+02
  -1.066006e+02   1.354491e+02
  -1.901240e+02   3.991203e+01
  -1.606395e+02  -3.924689e+01
  -3.230703e+01  -7.602387e+01
   6.430596e+01  -7.958308e+01
   4.037575e+01  -4.667754e+00
  -3.493607e+01   3.597854e+01
  -7.566961e+01  -2.134761e+01
  -4.406165e+00  -1.350559e+02
   7.473318e+01  -1.501925e+02
   1.516482e+02  -6.407097e+01
   1.355407e+02   1.252052e+02
   2.493144e+01   1.931728e+02
  -7.390123e+01   1.533143e+02
  -1.086329e+02  -3.062483e+01
  -3.756774e+01  -1.268500e+02
   6.746871e+00  -1.109078e+02
   5.485272e+01  -1.394816e+01
   3.401115e+01   3.545797e+01
   1.181609e+01  -1.883731e+01
  -2.831486e+01  -1.643704e+01
   4.896495e+01   4.621154e+01
   5.382967e+01   9.514512e+01
   3.426762e+01   1.037708e+02
  -6.778827e+01   5.144599e+01
  -1.052485e+02  -5.237922e+01
  -1.215232e+02  -7.636469e+01
  -3.139812e+01  -6.042325e+01
   8.004303e+01  -3.013469e+01
   7.750810e+01  -2.136123e+01
  -1.036484e+01   1.943550e+01
  -3.475721e+01  -1.105194e-01
  -2.306392e+01   1.778982e+01
   2.539291e+01  -8.976052e+00
   4.339167e+00  -2.399486e+01
  -6.661909e+01  -4.184439e+01
  -1.029212e+02  -2.418798e+01
   1.322555e+01  -7.502654e+01
   1.401203e+02  -1.222382e+02
   1.992466e+02  -4.804851e+01
   1.617176e+02   7.066217e+01
   2.534144e+01   1.716616e+02
  -8.837213e+01   1.647536e+02
  -1.365113e+02   7.353297e+01
  -8.271184e+01  -2.319261e+01
  -3.946499e+01  -1.318374e+01
  -1.158231e+01   2.693967e+01
   3.240670e-01   2.418333e+01
  -3.213169e+01  -4.971243e+01
  -1.464830e+01  -9.624795e+01
   3.996548e+01  -7.782536e+01
   8.669116e+01   3.840352e+01
   1.017694e+02   1.040321e+02
   1.386256e+01   1.211086e+02
  -9.543851e+01   3.730953e+01
  -1.246971e+02  -5.577412e+01
  -4.232743e+01  -1.205877e+02
   7.630195e+01  -1.753488e+01
   1.139954e+02   1.556203e+01
   3.393264e+01   7.351761e+01
  -5.261583e+01   6.405519e+01
  -2.033823e+01   2.568986e+01
   4.596522e+01   9.466015e+00
   6.560180e+01  -5.656403e+01
   7.650528e+00   4.705250e+01
  -1.103949e+02   4.541124e+01
  -1.098268e+02   5.674018e+01
  -5.829021e+01  -5.673959e+00
   5.748526e+00  -9.972728e+01
   5.448598e+01  -1.033411e+02
   3.927481e+01   1.366190e+01
   1.514915e+01   6.609781e+01
  -4.141110e+01   5.582026e+01
  -2.019801e+01  -2.369302e+01
  -5.117176e+01  -3.696516e+01
  -2.268343e+00  -3.269055e+01
   4.630205e+01  -1.893025e+01
   2.998466e+01   3.527204e+01
   3.223204e+01   1.045088e+01
   5.247424e+00  -2.976894e+01
  -9.958782e-01   6.884522e+00
  -1.479093e+01   5.257889e+01
  -4.158492e+01   3.357151e+01
  -4.644621e+01   1.402133e+00
  -3.475717e+01  -3.450830e+01
  -1.199503e+01  -6.044071e+01
   5.535714e+01  -3.271272e+01
   5.425147e+01   1.857384e+01
   1.255729e+01   7.771026e+01
  -5.012624e+01   6.078114e+01
  -1.013214e+02  -2.866401e+01
  -7.256632e+01  -3.715967e+01
   2.673723e+01  -4.895229e+01
   7.073764e+01  -1.293683e+01
   1.819019e+01  -2.190340e+01
  -3.186953e+01   1.671348e+01
  -2.868663e+01  -2.202273e+01
   2.979807e+01  -2.052451e+01
   9.450372e+01  -3.693693e+01
