
 $NMID
 id='ANONYMOUS ', fmtdat='(2E16.6)'
 volume=1.0
 tramp=1.0
 $END
  -4.475323e+03   1.390581e+02
  -2.371092e+03  -2.428827e+03
   4.318384e+02  -2.646648e+03
   1.963908e+03  -1.164411e+03
   9.513786e+02   2.167229e+02
  -3.375306e+02   4.284255e+02
  -7.467717e+02  -3.124669e+02
   3.037626e+01  -9.460645e+02
   8.001363e+02  -7.653276e+02
   8.993692e+02   2.543641e+01
   4.534370e+02   8.024662e+02
  -1.939492e+02   8.248295e+02
  -5.295209e+02   6.457757e+01
  -3.239840e+02  -6.592136e+02
   2.683222e+02  -6.638618e+02
   5.098500e+02  -3.497536e+01
   2.950867e+02   6.706639e+02
  -2.887442e+02   6.148649e+02
  -5.917958e+02   1.991213e+02
  -4.811095e+02  -2.721134e+02
  -1.237421e+02  -4.517894e+02
   2.144001e+02  -2.909723e+02
   2.140757e+02  -7.009728e+01
  -1.296589e+02   1.225695e+01
  -4.022365e+02  -1.571007e+02
  -1.143923e+02  -4.026382e+02
   5.193908e+02  -3.623622e+02
   8.621734e+02   7.218440e+01
   3.189746e+02   4.983046e+02
  -4.335620e+02   4.520289e+02
  -7.200642e+02  -6.687721e+01
  -2.889065e+02  -5.040346e+02
   2.701400e+02  -5.381981e+02
   5.609233e+02  -1.968886e+02
   4.247231e+02   2.564214e+02
   1.061644e+02   4.488629e+02
  -1.588227e+02   2.377106e+02
  -1.511373e+02  -1.790254e+02
   2.307755e+02  -3.832313e+02
   3.989678e+02   7.859018e+01
   1.526982e+02   6.470176e+02
  -3.514676e+02   6.308256e+02
  -5.140088e+02  -2.141032e+00
  -2.243904e+02  -4.988322e+02
   2.727372e+02  -3.150303e+02
   3.442104e+02   2.989061e+02
  -8.326011e+01   5.591284e+02
  -5.260734e+02   1.225440e+02
  -6.186262e+02  -4.073012e+02
  -1.647292e+02  -6.037987e+02
   3.815645e+02  -3.438745e+02
   6.413945e+02   7.599978e+01
   3.951896e+02   3.429360e+02
  -1.252837e+02   3.321617e+02
  -4.559065e+02   1.042405e+02
  -2.528359e+02  -1.796976e+02
   6.565716e+01  -5.998734e+01
   1.444086e+02   1.362293e+02
  -1.442116e+02   1.676120e+02
  -3.485505e+02  -8.965657e+01
  -1.429395e+02  -2.903548e+02
   1.946143e+02  -2.556423e+02
   3.706021e+02  -9.317741e+01
   2.276983e+02   1.291094e+02
  -7.278065e+01   2.776903e+02
  -2.629618e+02   3.207684e+02
  -3.743630e+02   1.989404e+02
  -2.951855e+02  -1.602114e+02
  -8.238258e+01  -4.649073e+02
   1.063438e+02  -3.782932e+02
   1.400780e+02  -1.085357e+02
  -1.617507e+00  -3.145875e+01
   6.774699e+01  -1.333218e+02
   2.401124e+02  -1.411622e+02
   2.443005e+02   7.456309e+01
   1.454406e+02   2.986288e+02
  -7.147313e+01   2.882865e+02
  -2.425703e+02  -2.500270e+01
  -1.988483e+02  -2.498405e+02
   3.321119e+01  -3.280388e+02
   2.638473e+02  -1.312096e+02
   3.860270e+02   1.650188e+02
   1.835412e+02   3.705534e+02
  -1.029945e+02   3.575943e+02
  -2.184887e+02   1.185388e+02
  -1.185929e+02   9.461927e+00
  -1.011210e+02   5.820721e+01
  -2.625059e+02   5.265792e+01
  -4.416128e+02  -6.897385e+01
  -4.088941e+02  -3.567384e+02
   3.987794e+01  -4.659568e+02
   4.162433e+02  -3.982341e+02
   4.618155e+02  -1.550457e+02
   3.329763e+02   1.122153e+02
   5.624442e+01   2.862841e+02
  -9.487076e+01   2.502436e+02
  -8.522453e+01   6.465042e+01
   1.151975e+02  -7.621701e+01
   1.864126e+02  -1.087634e+01
   4.790572e+01   1.803423e+02
  -1.506251e+02   1.720834e+02
  -1.612170e+02  -3.401633e+01
  -1.401008e+01  -1.814862e+02
   1.895283e+02  -7.461474e+01
   1.560063e+02   2.180516e+02
   8.048750e+00   3.652676e+02
  -2.442061e+02   1.840318e+02
  -3.511256e+02  -8.155050e+01
  -2.858753e+02  -2.244221e+02
  -9.564808e+01  -2.912736e+02
   1.412725e+02  -1.453867e+02
   1.202340e+02  -1.780868e+01
   4.535684e+01   1.508973e+01
  -6.030203e+01  -9.573655e+00
  -1.876116e+01  -1.413638e+02
   1.350319e+02  -9.080586e+01
   2.084251e+02   5.790926e+01
   5.332223e+01   6.179838e+01
  -1.032154e+02   1.325493e+01
  -7.277305e+01  -7.678088e+01
   1.471616e+02  -5.947453e+01
   3.089794e+02   8.194629e+00
   3.055011e+02   1.585453e+02
   2.067440e+01   2.592809e+02
  -1.967787e+02   2.795446e+02
  -3.149268e+02   1.221802e+02
  -1.861584e+02  -7.730535e+01
   4.587798e+01  -1.159592e+02
   1.373807e+02   8.920394e+00
  -3.259367e+01   7.825478e+01
  -2.188000e+02   6.456634e+01
  -2.187923e+02  -1.104154e+02
  -5.398140e+01  -1.976178e+02
   8.299168e+01  -1.643174e+02
   1.568132e+02  -2.976288e+01
   6.391863e+01   3.613272e+01
  -4.585864e+01   3.210140e+01
  -5.281390e+01  -8.231233e+01
   8.367740e+01  -1.259605e+02
   2.155761e+02  -3.367472e+01
   2.332610e+02   1.430087e+02
   1.143772e+01   2.338969e+02
  -1.549617e+02   1.993212e+02
  -2.107273e+02   1.389300e+01
  -8.388583e+01  -1.418643e+02
   1.038020e+02  -1.266833e+02
   8.401752e+01  -4.510361e+01
   3.034548e+01   4.325045e+01
  -1.649721e+01   4.714409e+01
   5.690930e+00   3.733012e+00
   5.732914e+01   3.013833e+01
   1.314116e+02   7.792280e+01
   4.136406e+00   1.651381e+02
  -1.124722e+02   1.720202e+02
  -2.300277e+02   3.284546e+01
  -2.149588e+02  -1.341215e+02
  -6.343591e+01  -2.323680e+02
   1.163652e+02  -1.904180e+02
   1.543433e+02  -4.931326e+01
   6.160382e+01   2.754779e+01
   2.305833e+01   4.912068e+01
   8.404830e+01  -3.084789e+01
   7.934940e+01  -4.325494e+00
   5.493578e+01   4.883546e+01
  -3.785677e+01   1.117217e+02
  -1.368749e+02   5.279502e+01
  -8.623687e+01  -4.302007e+01
   3.919010e+01  -1.120350e+02
   1.342782e+02  -7.171201e+01
   1.866449e+02   7.140107e+01
   1.062232e+02   2.159568e+02
  -7.047356e+01   2.335412e+02
  -2.645430e+02   9.248349e+01
  -2.696103e+02  -9.497633e+01
  -1.063947e+02  -1.944534e+02
   6.433619e+01  -1.624321e+02
   1.182997e+02  -1.060736e+02
   1.031175e+02  -7.480943e+01
   8.010719e+01  -9.607105e+01
   7.874778e+01  -5.965435e+01
   1.220629e+02   1.387765e+01
   1.336243e+02   1.627950e+02
   1.949963e+01   2.271698e+02
  -8.709427e+01   1.979137e+02
  -1.976485e+02   4.403408e+01
  -1.048612e+02  -1.501405e+02
  -1.024921e+01  -1.568447e+02
   6.415253e+01  -8.846266e+01
   6.899200e+01   1.078763e-01
   4.255969e+01   5.985238e+01
  -4.329091e+01   3.859555e+01
   3.239213e+01   2.643225e+01
   7.741882e+01   7.640464e+00
   5.842322e+01   3.156952e+01
  -7.501854e+01   3.756395e+01
  -1.615719e+02   8.546605e+00
  -1.454032e+02  -5.712295e+01
  -4.683659e+00  -1.045282e+02
   1.297695e+02  -8.006697e+01
   1.571795e+02  -9.970080e+00
   4.293636e+01   6.826070e+01
  -6.574714e+01   2.174685e+01
  -6.544453e+01  -3.618960e+01
   5.878906e+00  -8.025527e+01
   9.506322e+01  -6.186068e+01
   4.633813e+01   3.252314e+01
   5.171581e+01   4.841301e+01
   3.757934e+01   3.384459e+01
   6.220924e+01   2.526245e+00
   6.799158e+01   6.420535e+00
   2.068146e+01   7.076817e+01
  -4.409245e+01   1.453949e+02
  -1.581342e+02   1.197615e+02
  -1.649382e+02   4.879179e+01
  -1.147577e+02  -9.209034e+01
   1.396572e+01  -1.498643e+02
   1.127568e+02  -6.539728e+01
   6.922246e+01   2.152745e+01
  -6.400876e+01   3.604801e+00
  -1.437129e+02  -5.927523e+01
  -6.874653e+01  -1.345395e+02
   8.122631e+01  -1.161153e+02
   1.974425e+02  -4.502037e+01
   1.571024e+02   5.468098e+01
   2.814942e+01   6.458156e+01
  -4.626949e+01   4.376303e+01
  -4.410868e+01   4.349111e+01
   5.214125e+01  -4.210389e+01
   6.993185e+01   2.387805e+01
   3.191372e+01   1.357184e+02
  -9.962683e+01   1.560701e+02
  -1.559435e+02   5.160116e+01
  -1.157752e+02  -1.145244e+02
  -7.468817e+00  -1.911572e+02
   9.257770e+01  -1.051192e+02
   1.239217e+02   1.837504e+01
   6.679638e+01   1.129913e+02
  -2.913042e+01   9.437728e+01
  -9.102901e+01   4.343808e+00
  -3.691934e+01  -4.665378e+01
  -8.683842e+00  -1.292044e+01
   2.631842e+01   2.520796e+01
  -3.220904e+01   8.425497e+00
  -7.037695e+01  -8.964446e+01
  -3.252996e+01  -1.098345e+02
   7.142629e+01  -7.398754e+01
   1.268778e+02   3.001932e+01
   1.504019e+02   5.788295e+01
   9.232757e+00   6.829575e+01
  -7.989994e+01   4.590075e+01
  -8.694496e+01  -2.214048e+00
  -1.847370e+00  -2.545460e+01
   4.076627e+01  -5.567692e+01
   3.274776e+01  -1.050178e+01
  -8.821991e+00  -1.067659e-01
   1.105077e+00  -5.890095e+00
   8.430345e+01   4.091810e+01
   8.993051e+01   1.989409e+01
   3.283453e+01   8.099887e+01
  -1.236264e+02   1.262310e+02
  -1.883962e+02   5.627657e+01
  -1.766247e+02  -4.902630e+01
  -6.386941e+01  -1.615590e+02
   9.145808e+01  -1.656389e+02
   1.186301e+02  -6.558945e+01
   1.039115e+02   2.856894e+01
   1.744502e+01   3.617171e+01
  -2.476679e+00   3.510122e+01
   7.629934e+00   1.998119e+01
   1.269079e+01   7.710308e+01
   3.505043e-01   8.808088e+01
  -1.056702e+01   9.646100e+01
  -8.347025e+01  -4.272337e+01
  -8.097849e+01  -1.041794e+02
  -2.615587e+01  -1.339584e+02
   8.027923e+01  -3.032927e+01
   1.194884e+02   6.651483e+01
   5.556776e+01   9.773639e+01
  -7.045407e+01   4.503381e+01
  -9.535264e+01  -3.236521e+01
  -5.465711e+01  -4.875302e+01
   3.526739e+01  -7.088457e+01
   3.261688e+01  -6.067170e+01
  -1.504643e+01  -1.046118e+01
  -5.904309e+01   3.204755e+01
  -2.505599e+01  -1.982777e+01
   9.362229e+01  -8.556968e+01
   1.317349e+02  -6.639283e+01
   8.213790e+01   2.434558e+01
  -1.847228e+01   8.407770e+01
  -5.123189e+01   7.258395e+01
  -5.120748e+01   8.061103e+00
   3.025618e+01  -3.151784e+01
   5.680156e+00  -4.531431e+01
   4.170267e+01   4.940549e+01
   3.243039e+01   8.079365e+01
  -2.345766e+00   2.290036e+01
  -6.063908e+01   4.049830e+00
  -4.211145e+01  -4.033270e+01
   1.640006e+01  -4.732910e+01
  -8.713604e+00   2.904382e+01
   2.627586e+01  -2.146714e+01
  -1.066699e+01  -3.297492e+00
   1.455149e+01  -4.579342e+01
   3.969615e+01   7.080037e+00
   4.030237e+01   3.566730e+01
   1.092884e+01   7.736405e+01
  -3.985686e+01   4.458164e+01
  -4.903684e+01  -3.023553e+01
  -2.246626e+01  -9.202566e+01
   4.841354e+01  -2.770877e+01
   1.048811e+02  -1.138904e+01
   6.600422e+01   4.672752e+01
  -3.624684e+01   2.766387e+01
  -8.725982e+01  -2.789590e+00
   4.913715e+00   3.464033e+01
   4.457993e+01   3.140357e+01
   2.893562e+01   3.381503e+01
  -4.426492e+01   1.170791e+01
  -1.053561e+02   2.609835e+01
