
 $NMID
 id='ANONYMOUS ', fmtdat='(2E16.6)'
 volume=1.0
 tramp=1.0
 $END
   2.835416e+03  -1.114665e+02
   1.786779e+03   1.159496e+03
  -1.825512e+02   1.810062e+03
  -8.051437e+02   9.801738e+02
  -5.942881e+02   1.106259e+02
   1.553357e+02  -1.108233e+02
   3.701105e+02   2.076794e+02
  -4.493563e+01   4.859107e+02
  -4.952176e+02   3.860974e+02
  -5.296258e+02  -9.302428e-01
  -2.879178e+02  -3.897499e+02
   1.538878e+01  -5.442106e+02
   2.635096e+02  -7.223519e+01
   1.935049e+02   4.148368e+02
  -1.176115e+02   4.004731e+02
  -2.690449e+02  -3.604455e+00
  -1.786602e+02  -3.802929e+02
   1.126280e+02  -4.687228e+02
   2.695418e+02  -1.594157e+02
   3.177814e+02   1.327489e+02
   6.386439e+01   2.564390e+02
  -8.894714e+01   1.966828e+02
  -5.151292e+01   8.679263e+01
   1.207133e+02   9.853242e+01
   1.865038e+02   1.524185e+02
   9.078269e+00   2.837166e+02
  -3.437849e+02   1.335756e+02
  -4.740687e+02  -1.732257e+02
  -2.110014e+02  -3.098224e+02
   2.672140e+02  -2.318927e+02
   3.839233e+02   7.690611e+01
   1.726484e+02   2.719094e+02
  -2.040064e+02   3.069719e+02
  -3.350816e+02   9.151990e+01
  -2.536937e+02  -9.993259e+01
  -8.047061e+01  -2.618797e+02
   2.036233e+01  -1.777983e+02
   5.453080e+01   7.621309e+01
  -8.641219e+01   1.564664e+02
  -1.745297e+02  -7.246529e+01
  -6.770821e+01  -4.010873e+02
   1.386026e+02  -3.532426e+02
   2.584263e+02  -6.752445e+00
   1.090767e+02   3.024617e+02
  -1.800475e+02   1.355283e+02
  -1.517823e+02  -1.856094e+02
   9.348614e+01  -3.194278e+02
   3.351504e+02  -2.776581e+01
   4.301486e+02   2.908783e+02
   1.228300e+02   4.133751e+02
  -2.536180e+02   2.309416e+02
  -4.203732e+02  -5.649239e+01
  -2.652527e+02  -1.950996e+02
   5.667840e+01  -1.922315e+02
   2.545229e+02  -7.618802e+01
   1.136878e+02   6.312496e+01
  -4.197710e+01   4.390209e+01
  -6.490222e+01  -5.639533e+01
   7.699182e+01  -5.714716e+01
   1.676364e+02   4.034333e+01
   1.125354e+02   1.609398e+02
  -1.080117e+02   1.637238e+02
  -2.357591e+02   5.418621e+01
  -1.487462e+02  -6.791412e+01
   2.217510e+01  -2.189319e+02
   1.864960e+02  -2.212575e+02
   1.941841e+02  -1.731336e+02
   1.903937e+02   1.493390e+02
   8.479370e+01   3.163550e+02
  -3.320455e+01   3.249427e+02
  -7.110691e+01   1.373946e+02
  -3.504607e+01   4.381982e+01
  -9.410230e+01   4.826867e+01
  -1.629706e+02   3.146751e+01
  -1.526974e+02  -6.910762e+01
  -9.917765e+01  -1.750482e+02
   7.192974e+01  -1.593305e+02
   1.523889e+02   3.835724e+01
   1.006216e+02   2.076196e+02
  -3.486189e+01   2.042581e+02
  -2.002861e+02   5.668844e+01
  -2.671031e+02  -1.507074e+02
  -1.528853e+02  -2.180530e+02
   2.307646e+01  -2.032345e+02
   1.627511e+02  -1.474111e+02
   1.065976e+02  -6.865828e+01
   1.124778e+02  -5.043547e+01
   2.088676e+02  -3.565054e+01
   3.069213e+02   5.340475e+01
   2.600662e+02   2.427127e+02
  -1.304363e+01   3.397282e+02
  -2.998013e+02   2.902512e+02
  -3.196241e+02   1.281381e+02
  -2.228109e+02  -4.240487e+01
  -3.927235e+01  -1.957868e+02
   6.607823e+01  -1.913797e+02
   5.103541e+01  -6.824587e+00
  -7.435134e+01   7.269500e+01
  -1.190824e+02  -2.940323e+01
  -5.820276e+00  -1.299548e+02
   8.018169e+01  -1.000839e+02
   1.038352e+02   4.825577e+01
  -2.439751e+01   9.929397e+01
  -1.185615e+02  -1.363542e+00
  -1.266303e+02  -1.809267e+02
   3.174262e+01  -2.757719e+02
   1.493865e+02  -1.305450e+02
   2.689996e+02   2.878244e+01
   2.185430e+02   1.744098e+02
   4.668033e+01   1.900928e+02
  -6.658991e+01   9.181965e+01
  -1.125333e+02   3.611309e+01
  -3.535051e+01  -2.600289e+01
   4.218517e+01   4.467185e+01
   3.452458e+01   8.911344e+01
  -6.779101e+01   5.344723e+01
  -1.165757e+02  -2.749933e+00
  -1.829854e+01  -5.544145e+01
   3.161059e+01  -2.461291e+01
   2.979821e+01   5.572445e+01
  -1.100378e+02   8.404558e+01
  -2.168117e+02  -1.894191e+00
  -2.056715e+02  -1.167023e+02
  -3.901862e+01  -2.170066e+02
   1.658771e+02  -2.172349e+02
   2.167403e+02  -7.071568e+01
   1.322694e+02   1.897448e+01
  -5.106324e-01   9.311173e+01
  -6.567194e+01  -3.067997e+01
  -2.276677e+00  -4.840550e+01
   1.550135e+02  -6.710675e+01
   1.720994e+02   8.637743e+01
   6.445063e+01   1.365298e+02
  -6.662306e+01   1.405232e+02
  -1.172560e+02  -2.253922e+00
  -4.432846e+01  -1.891963e+01
   1.524473e+01  -1.943111e+00
   5.372743e+01   7.301870e+01
  -2.956552e+01   7.419732e+01
  -1.737517e+02  -5.859173e+00
  -1.463703e+02  -1.181501e+02
  -5.789092e+00  -1.801764e+02
   1.321745e+02  -1.269509e+02
   1.722761e+02  -8.722421e+00
   3.306930e+01   7.941451e+01
  -5.714645e+01   8.394741e+01
  -3.883097e+01   2.819648e+01
   1.449603e+01  -4.876997e+00
   3.957337e+01  -3.945985e+01
  -2.681426e+00   1.045645e+00
  -5.888400e+01   3.582803e+00
  -7.191143e+01  -2.079180e+01
  -2.134354e+01  -1.369191e+02
   1.042964e+02  -1.002811e+02
   1.814156e+02  -2.351992e+01
   1.525179e+02   1.178078e+02
  -5.311120e-01   1.916682e+02
  -1.066472e+02   1.132517e+02
  -1.051269e+02   2.560507e+01
  -4.159380e+01  -5.644827e+01
  -4.948239e+00   4.106403e+00
  -4.998557e+01  -3.072927e+00
  -9.100402e+01   1.036121e+01
  -2.171895e+01  -4.039826e+01
   3.280106e+01  -5.868050e+01
   7.456791e+01  -5.710398e+01
   6.948355e+01   2.686706e+01
  -2.342384e+01   8.662842e+01
  -1.114028e+02   4.982212e+01
  -1.625317e+02  -4.681680e+01
  -7.891385e+01  -1.536475e+02
   9.301380e+01  -1.693411e+02
   1.838326e+02  -7.738406e+01
   1.757238e+02   5.075224e+01
   8.336671e+01   1.751150e+02
  -3.773993e+01   1.272828e+02
  -5.870444e+01   7.922121e+01
  -6.894410e+01   6.910893e+01
  -5.709326e+01   8.107297e+01
  -4.966418e+01   3.064535e+01
  -1.097641e+02  -4.965985e+00
  -8.161474e+01  -1.136726e+02
  -1.300248e+01  -1.648002e+02
   5.735948e+01  -1.124820e+02
   1.221242e+02   2.392696e+01
   9.440154e+01   1.111514e+02
   6.032472e+00   9.838710e+01
  -3.747308e+01   7.317124e+01
  -5.481587e+01  -5.854173e-01
   4.154226e+01  -1.914269e+01
   2.113043e+01  -2.515388e+01
  -3.512072e+01  -4.707223e+00
  -5.728110e+01  -5.302267e+00
  -3.663680e+01  -4.469701e+01
   5.321382e+01  -4.809685e+00
   1.334498e+02   7.086358e-01
   8.807776e+01   4.228303e+01
   1.895276e+01   7.225664e+01
  -9.100533e+01   7.471507e+01
  -1.493306e+02  -6.829211e+00
  -7.927693e+00  -4.105679e+01
   2.946341e+01  -5.821580e+01
   5.001295e+01   1.884158e+01
   2.819198e+01   6.425953e+01
  -5.504352e+01   4.950298e+01
  -5.976333e+01   1.197012e+01
  -5.119463e+01  -1.390321e+01
  -1.023802e+01  -2.236864e+01
  -3.043111e+01  -2.924359e+00
  -7.785576e+01  -1.591178e+01
  -2.339941e+01  -5.217624e+01
   1.231369e+01  -1.349592e+02
   1.118536e+02  -9.953514e+01
   1.762801e+02  -1.761368e+00
   5.169709e+01   7.303213e+01
   7.596380e+00   9.859195e+01
  -7.271962e+01   1.882819e+01
  -2.680555e+01   3.374908e+00
   2.587417e+01  -2.194744e+01
   4.720254e+01   2.301030e+01
   3.921921e+01   7.069621e+01
  -5.705542e+01   8.544717e+01
  -1.302629e+02   4.396041e+01
  -1.290781e+02  -2.905343e+01
   9.664267e-01  -4.556167e+01
   2.406384e+01  -4.503571e+01
  -2.146172e+01   1.193170e+01
  -6.157196e+01   2.415411e+01
  -7.188121e+01  -1.869707e+01
   9.154018e+00  -6.650748e+01
   8.198815e+01  -8.376713e+01
   8.379953e+01  -5.806332e+01
   1.003088e+02   7.366129e+01
   1.557143e+01   1.419638e+02
  -6.783384e+01   8.187982e+01
  -8.758124e+01   1.385776e+01
  -8.247801e+01  -8.803554e+01
  -1.156187e+00  -8.053460e+01
   5.341313e+01  -2.905412e+01
   4.937413e+01   1.980212e+01
   1.308748e+01   1.777233e+01
  -4.340490e+00  -7.209364e+00
   1.697297e+01   3.964842e+01
   3.056144e+01   1.009272e+02
   1.551633e+01   5.352051e+01
  -4.156942e+01   2.137576e+01
  -7.356480e+01  -5.096377e+01
  -7.647642e+01  -6.009739e+01
  -3.634977e+01  -4.634332e+01
   8.055978e+01   5.127814e+00
   4.473988e+01  -3.823840e+00
   3.090339e+01   3.833345e+01
   8.878712e+00   3.677878e+01
   6.902865e+00   1.410617e+01
  -7.554430e+00   4.504601e+01
  -2.539015e+01   1.856378e+01
  -7.438461e+01   2.118241e+01
  -5.551982e+01  -2.944758e+01
   1.136629e+01  -4.468992e+01
   8.983837e+01  -9.140053e+01
   1.211366e+02  -4.321431e+01
   1.203252e+02   4.049792e+01
   3.169808e+01   1.218341e+02
  -6.515452e+01   1.138069e+02
  -9.508717e+01   3.776518e+01
  -6.277180e+01   3.465560e+01
  -2.844279e+01   7.114356e+00
   1.050630e-01  -8.295116e+00
  -1.002125e+01  -2.673007e+01
   3.741272e+00  -4.043583e+01
  -5.545001e+00  -8.063980e+01
   1.760041e+01  -6.252188e+01
   4.977871e+01  -4.427170e+00
   5.310737e+01   7.731799e+01
   3.725402e+01   7.991568e+01
  -6.736357e+01   2.894239e+01
  -9.078654e+01  -5.058863e+01
  -3.093169e+01  -8.178648e+01
   6.104532e+01  -4.524559e+01
   8.493179e+01   1.365117e+01
   2.924290e+01   2.777872e+01
  -1.901981e+01   5.793003e+01
  -2.813950e+01   2.218160e+01
   4.681983e+01   1.137835e+01
   6.556720e+01  -2.270291e-03
   2.136094e+01   3.746009e+01
  -7.153443e+01   4.310365e+01
  -9.845635e+01   6.682276e+01
  -5.417775e+01  -3.650503e+01
   1.727008e-01  -7.065418e+01
   2.647236e+01  -8.488849e+01
   3.948138e+01   4.637899e+00
   9.473567e+00   3.641108e+01
  -2.925378e+01   3.710870e+01
  -7.951921e+00   1.270511e+00
  -2.386099e+01  -2.987602e+01
  -9.904912e+00  -4.224968e+01
   5.841619e+01  -2.314855e+01
   2.460190e+00   3.248392e+01
   2.653642e+01   1.207717e+01
   3.346063e+00  -2.539667e+01
  -1.792463e+01   4.318541e+00
  -1.871437e+00   4.617954e+00
  -3.180213e+01   5.610753e+01
   8.457310e+00   1.053086e+01
  -4.742543e+01  -2.933577e+01
  -1.532599e+01  -5.019016e+01
   3.139154e+01   3.002744e+01
   7.787564e+00   3.107878e+01
   1.140125e+01   4.231848e+01
  -7.542575e+01   3.734546e+01
  -7.448107e+01  -9.333795e+00
  -4.442889e+01  -3.190382e+01
   7.222971e+00  -5.476800e+01
   5.681708e+01  -2.391729e+01
   4.793811e+01   7.390151e+00
  -1.935995e+01  -1.648521e+00
  -2.718117e+01   1.531442e+01
   4.065291e+01  -9.520257e+00
   8.228371e+01   9.831932e-01
