
 $NMID
 id='ANONYMOUS ', fmtdat='(2E16.6)'
 volume=1.0
 tramp=1.0
 $END
  -3.765678e+03   2.885443e+02
  -2.553055e+03  -2.161846e+03
   3.711189e+02  -2.696109e+03
   1.822155e+03  -9.552803e+02
   9.204680e+02   4.280465e+02
  -4.279776e+02   6.495245e+02
  -7.895813e+02  -3.331722e+02
  -1.147109e+02  -9.109595e+02
   8.072826e+02  -7.691640e+02
   8.664455e+02   5.619092e+01
   4.221342e+02   7.511185e+02
  -1.668627e+02   8.112483e+02
  -5.413342e+02   1.329982e+02
  -3.511945e+02  -6.632189e+02
   2.335124e+02  -7.039143e+02
   5.182920e+02  -1.824872e+01
   2.773107e+02   6.449727e+02
  -2.621640e+02   6.556479e+02
  -5.648835e+02   1.734992e+02
  -4.006659e+02  -2.877590e+02
  -6.038384e+01  -4.344956e+02
   2.012927e+02  -3.002397e+02
   1.600771e+02  -5.700539e+01
  -1.369571e+02  -2.567338e+01
  -3.265700e+02  -1.501858e+02
  -8.483215e+01  -3.892802e+02
   5.008122e+02  -3.425259e+02
   7.202969e+02   1.443795e+02
   3.154307e+02   4.350623e+02
  -3.516388e+02   3.846523e+02
  -6.320348e+02  -7.872060e+01
  -3.069057e+02  -4.164514e+02
   3.069433e+02  -4.363421e+02
   5.224045e+02  -1.793288e+02
   4.066838e+02   2.033075e+02
   6.670173e+01   4.570313e+02
  -1.017546e+02   2.549544e+02
  -1.311298e+02  -1.588617e+02
   1.697465e+02  -3.102592e+02
   3.914416e+02   1.602883e+01
   1.668411e+02   6.250310e+02
  -2.223441e+02   6.221669e+02
  -5.638341e+02  -1.065423e+01
  -2.278637e+02  -4.343586e+02
   2.571675e+02  -2.734948e+02
   3.435960e+02   2.768578e+02
  -1.009715e+02   4.866872e+02
  -5.545334e+02   1.437608e+02
  -5.746327e+02  -4.578312e+02
  -1.801668e+02  -5.821281e+02
   3.648071e+02  -3.719453e+02
   5.733089e+02   6.979375e+01
   4.029135e+02   2.876581e+02
  -1.021938e+02   3.148421e+02
  -3.849166e+02   6.890073e+01
  -1.939071e+02  -1.426409e+02
   5.575272e+01  -7.072469e+01
   1.234564e+02   9.290821e+01
  -9.260744e+01   1.152125e+02
  -3.223359e+02  -6.786326e+01
  -1.250411e+02  -2.633014e+02
   1.929482e+02  -1.964954e+02
   3.625885e+02  -7.651729e+01
   2.357711e+02   1.314624e+02
   5.495661e+00   2.800054e+02
  -2.230174e+02   3.191734e+02
  -3.518200e+02   1.982305e+02
  -2.920517e+02  -1.637281e+02
  -5.249451e+01  -4.008746e+02
   1.155232e+02  -3.485624e+02
   9.010254e+01  -1.338811e+02
   4.920081e+01  -3.564802e+01
   6.344104e+01  -7.503074e+01
   2.300096e+02  -1.156855e+02
   2.441737e+02   9.821593e+01
   1.167639e+02   2.778763e+02
  -9.325923e+01   2.190303e+02
  -2.366863e+02  -9.379444e+00
  -1.852063e+02  -2.386394e+02
   2.307490e+01  -2.607345e+02
   2.542371e+02  -1.142323e+02
   3.434605e+02   1.427066e+02
   1.900575e+02   3.449303e+02
  -5.506943e+01   2.946832e+02
  -1.883250e+02   1.705714e+02
  -1.628649e+02   7.399640e+01
  -1.637240e+02   2.064962e+01
  -2.728236e+02   5.103449e+01
  -3.699317e+02  -5.228707e+01
  -3.312156e+02  -3.240422e+02
   2.485386e+01  -4.008452e+02
   3.183066e+02  -4.215531e+02
   4.341182e+02  -1.698760e+02
   3.063600e+02   1.013246e+02
   4.000291e+01   3.038700e+02
  -1.187988e+02   2.220440e+02
  -4.738445e+01  -2.486635e+00
   9.958448e+01  -7.532280e+01
   1.768324e+02   2.278355e+01
   1.749643e+01   1.890326e+02
  -1.524604e+02   1.299616e+02
  -1.443467e+02  -6.276052e+01
   1.722884e+01  -1.676840e+02
   1.773018e+02  -2.520145e+01
   1.608071e+02   2.316194e+02
  -3.640243e+01   3.732333e+02
  -2.305337e+02   2.022693e+02
  -3.654113e+02  -5.184686e+01
  -2.956319e+02  -2.464625e+02
  -6.298640e+01  -3.088039e+02
   1.366004e+02  -1.620646e+02
   1.380628e+02  -1.388126e+01
   6.278316e+01  -1.678112e+00
  -6.434775e+01  -4.163052e+01
  -1.067540e+01  -1.063728e+02
   1.261502e+02  -7.090222e+01
   1.630666e+02   1.127052e+01
   4.515835e+01   6.486033e+01
  -6.949009e+01   1.462545e+01
  -3.034572e+01  -7.297082e+01
   1.179509e+02  -9.099325e+01
   3.070509e+02   1.203384e+01
   2.886256e+02   1.824098e+02
   4.909128e+01   2.684240e+02
  -2.060546e+02   2.608713e+02
  -2.403045e+02   9.933043e+01
  -1.499832e+02  -6.737620e+01
   3.679876e+01  -1.060402e+02
   7.302489e+01  -8.524103e+00
  -3.074691e+01   9.036001e+01
  -1.719458e+02   2.142170e+01
  -2.094482e+02  -1.001273e+02
  -5.373806e+01  -2.150211e+02
   9.736493e+01  -1.486469e+02
   1.530510e+02  -1.085901e+01
   3.906670e+01   2.647676e+01
  -6.430387e+01  -2.373237e+01
  -1.824056e+01  -7.433277e+01
   6.574065e+01  -1.311121e+02
   2.050186e+02  -2.568128e+01
   1.859235e+02   1.095650e+02
   2.515988e+01   2.216291e+02
  -1.446585e+02   1.727594e+02
  -1.567962e+02   6.452888e+00
  -3.595129e+01  -1.090372e+02
   4.662152e+01  -8.812200e+01
   5.144314e+01  -6.407227e+00
   1.404091e+01   5.319688e+01
  -2.620771e+01   3.379198e+01
  -1.947176e+01  -3.166018e+00
   7.322795e+01  -2.077707e+01
   1.013116e+02   8.745720e+01
   6.220046e-02   1.520074e+02
  -1.279758e+02   1.392161e+02
  -2.533437e+02  -1.019256e+01
  -1.823921e+02  -1.402751e+02
  -1.270690e+01  -2.438707e+02
   1.118881e+02  -1.792828e+02
   9.975874e+01  -3.228662e+01
   1.040161e+02   5.348590e+01
   5.002123e+01   2.622994e+01
   3.566428e+01  -1.105628e+01
   8.077733e+01  -9.130267e+00
   2.204569e+01   4.497084e+01
  -7.553957e+01   9.595728e+01
  -1.198141e+02   7.208069e+01
  -1.073752e+02  -2.465589e+01
   5.038288e+00  -1.150693e+02
   1.698484e+02  -1.134348e+02
   2.224529e+02   6.662730e+01
   7.665046e+01   1.898905e+02
  -1.029655e+02   2.541877e+02
  -2.419111e+02   1.157637e+02
  -2.700735e+02  -1.075448e+02
  -9.462442e+01  -1.940280e+02
   4.221343e+01  -1.300409e+02
   7.648226e+01  -8.671006e+01
   7.688295e+01  -8.084565e+01
   6.441448e+01  -7.820413e+01
   9.540785e+01  -6.255543e+01
   1.145741e+02   2.846223e+01
   1.203164e+02   1.778061e+02
   1.954453e+01   2.110722e+02
  -1.023321e+02   1.936095e+02
  -1.929850e+02  -1.806256e+01
  -1.262599e+02  -1.636609e+02
  -4.245707e+00  -1.538996e+02
   7.798001e+01  -8.638977e+01
   4.433021e+01   2.524555e+01
   2.407349e+01   6.114937e+01
  -1.455317e+01   4.442077e+01
   4.458451e+01   1.157035e+01
   9.824882e+01   5.085226e+01
   1.661583e+01   4.662114e+01
  -1.034594e+02   3.370660e+01
  -1.682878e+02   4.069428e+01
  -1.573205e+02  -5.923511e+01
   4.055890e+00  -1.152449e+02
   1.218609e+02  -8.253263e+01
   1.457360e+02  -2.700308e+01
   3.988713e+01   6.262936e+01
  -3.398991e+01   3.691495e+01
  -1.036126e+02  -7.819690e+00
  -2.460942e+01  -5.993463e+01
   4.805530e+01  -4.315719e+01
   6.214582e+01   6.397243e+00
   6.526521e+01   4.788185e+01
   4.848520e+01   4.623156e+01
   2.154951e+01  -1.866322e+01
   4.132034e+01  -1.961362e+01
   3.046085e+01   6.898557e+01
  -2.031137e+01   1.827400e+02
  -1.513275e+02   1.626036e+02
  -1.981907e+02   1.225264e+01
  -1.237830e+02  -1.136677e+02
  -1.718708e+01  -1.327842e+02
   7.997935e+01  -3.389006e+01
   3.017133e+01   5.238128e+01
  -6.742989e+01  -2.002111e+01
  -1.430917e+02  -5.140094e+01
  -4.488869e+01  -8.612001e+01
   5.888519e+01  -9.216807e+01
   1.964793e+02  -7.078213e+01
   1.802900e+02   7.837897e+00
   6.506536e+01   7.407139e+01
  -7.759227e+01   7.890965e+01
  -4.295369e+01   1.193883e+01
   4.463920e+01  -2.155802e+01
   9.182580e+01   3.042765e+01
   2.033775e+01   1.133763e+02
  -7.134786e+01   1.383581e+02
  -1.733642e+02   8.592899e+01
  -1.180020e+02  -1.088305e+02
  -1.161284e+01  -1.748837e+02
   1.007538e+02  -1.282450e+02
   1.358120e+02  -3.455235e+00
   5.518412e+01   1.206646e+02
  -4.027197e+00   7.403876e+01
  -4.862597e+01   2.140675e+01
  -5.342319e+01  -2.115439e+01
  -1.874634e+01  -4.225066e+00
  -2.509575e+01   1.916488e+01
  -2.059330e+01  -3.858866e+00
  -8.851636e+01  -6.359906e+01
  -2.054846e+01  -1.110384e+02
   5.297986e+01  -3.730990e+01
   1.320740e+02   2.593186e+01
   1.444887e+02   8.438493e+01
   1.644588e+01   5.880368e+01
  -6.864944e+01   1.395656e+01
  -8.961895e+01   1.240304e+01
   2.202920e+01   3.928910e+00
   7.265878e+01  -3.345559e+01
   9.276846e+00  -1.662028e+01
  -4.941669e+01   9.834793e+00
  -6.029292e+00   1.802651e+01
   8.743088e+01   4.571041e+00
   1.168554e+02   1.282702e+01
   3.308127e+01   7.031048e+01
  -8.979085e+01   1.312547e+02
  -2.235224e+02   4.347287e+01
  -1.205283e+02  -9.109612e+01
  -3.080780e+00  -1.864175e+02
   1.157207e+02  -1.555902e+02
   1.293177e+02  -4.864917e+01
   7.297376e+01   4.788923e+00
   4.073436e+01   4.696667e+01
  -2.854097e+00   3.255283e+01
   8.992040e+00  -9.861579e+00
   4.904517e+01   6.137654e+01
   1.312038e+01   9.347611e+01
  -3.738769e+01   8.542472e+01
  -6.978783e+01  -1.365599e+01
  -9.639249e+01  -1.100079e+02
  -1.671732e+01  -1.366165e+02
   9.430012e+01  -5.075201e+01
   1.304275e+02   9.293622e+01
   3.582764e+01   1.056260e+02
  -4.953943e+01   4.108794e+01
  -1.122099e+02  -2.949640e+00
  -6.273309e+01  -3.252521e+01
   4.151274e+01  -2.833367e+01
   2.367869e+01  -1.444042e+01
  -2.200314e+01   1.682874e+01
  -5.355625e+01  -8.144841e+00
  -9.669192e+00  -4.041679e+01
   6.426134e+01  -6.009557e+01
   1.256714e+02  -8.088986e+01
   4.450482e+01   3.405496e+01
  -3.052433e+01   6.704104e+01
  -6.228814e+01   7.528526e+01
  -5.663872e+01   1.164224e+01
   1.658984e+01  -4.524808e+01
   4.741306e+01  -1.912194e+01
   2.673547e+01   3.334234e+01
   2.095890e+01   5.311384e+01
   5.844045e+00   3.905087e+01
  -1.925985e+01  -2.272568e+01
  -6.579093e+01  -2.088584e+01
  -1.479411e+01  -3.083696e+01
  -1.593073e+00   1.772644e+01
  -9.657645e+00  -2.880751e+01
   3.236452e+01  -3.366886e+01
   3.525422e+01  -3.737600e+01
   5.651025e+01  -7.781690e+00
   2.409841e+01   2.282243e+01
   2.741848e+01   4.612385e+01
  -1.654399e+01   6.475418e+00
  -2.922179e+01  -4.914879e+01
  -3.294665e+01  -5.783436e+01
   5.931510e+01  -3.934714e+01
   1.020447e+02   1.468165e+01
   4.537288e+01   2.611618e+01
  -4.255439e+01   5.183087e+01
  -5.672356e+01   6.889327e+01
  -5.381627e+01  -1.860941e+00
   4.504803e+01  -1.610586e+01
   6.315084e+01   1.730395e+01
  -4.083204e+01   2.299158e+01
  -8.423420e+01   2.361207e+01
