
 $NMID
 id='ANONYMOUS ', fmtdat='(2E16.6)'
 volume=1.0
 tramp=1.0
 $END
   4.425904e+03  -2.478949e+02
   2.803143e+03   2.666722e+03
  -8.248337e+02   2.988051e+03
  -2.152511e+03   8.765082e+02
  -1.050645e+03  -6.667951e+02
   7.133315e+02  -8.489641e+02
   9.413603e+02   4.578071e+02
   2.448672e+01   1.130097e+03
  -9.022269e+02   9.568959e+02
  -1.100596e+03  -1.777769e+02
  -5.143876e+02  -9.736520e+02
   3.012956e+02  -1.004065e+03
   7.243787e+02  -8.839861e+01
   4.170086e+02   8.055161e+02
  -3.029522e+02   7.994404e+02
  -6.881702e+02  -2.288443e+01
  -2.852924e+02  -7.810688e+02
   3.802703e+02  -7.074085e+02
   6.382995e+02  -3.946068e+01
   4.115555e+02   4.090826e+02
   2.064655e+01   4.471775e+02
  -2.395282e+02   2.979817e+02
  -1.878789e+02   5.754455e+00
   1.717980e+02  -7.176311e+01
   3.948180e+02   1.515471e+02
   1.943567e+02   4.431161e+02
  -5.283288e+02   4.545577e+02
  -8.926133e+02  -4.621426e+01
  -4.538164e+02  -5.549147e+02
   4.331768e+02  -4.839306e+02
   7.921148e+02   3.015149e+01
   3.795374e+02   5.471754e+02
  -2.897999e+02   5.470585e+02
  -5.881660e+02   2.307366e+02
  -4.894852e+02  -2.288354e+02
  -6.930016e+01  -5.215198e+02
   2.355412e+02  -2.907376e+02
   1.517677e+02   2.572975e+02
  -1.828626e+02   4.759297e+02
  -4.755332e+02   1.616292e+01
  -2.802632e+02  -7.143387e+02
   3.076129e+02  -7.148204e+02
   6.150243e+02  -6.524536e+01
   2.763068e+02   5.128467e+02
  -2.940321e+02   3.723288e+02
  -4.137100e+02  -3.334299e+02
   4.834491e+01  -5.889926e+02
   6.356839e+02  -2.269533e+02
   6.805165e+02   4.926903e+02
   1.825376e+02   6.203677e+02
  -4.740849e+02   3.717980e+02
  -7.468204e+02  -7.213170e+01
  -3.907304e+02  -4.154211e+02
   1.824893e+02  -3.800947e+02
   4.973884e+02  -9.765558e+01
   2.444762e+02   2.153328e+02
  -1.068589e+02   1.197932e+02
  -1.378918e+02  -1.910605e+02
   1.631501e+02  -2.035092e+02
   3.487811e+02   3.042061e+01
   1.590195e+02   3.120261e+02
  -1.874912e+02   2.962073e+02
  -3.490898e+02   9.020206e+01
  -2.072565e+02  -9.861134e+01
   4.918255e+01  -2.146500e+02
   2.579270e+02  -3.339289e+02
   3.431603e+02  -2.226883e+02
   2.814700e+02   1.477355e+02
   8.385247e+01   4.484896e+02
  -9.828100e+01   4.559808e+02
  -9.372762e+01   1.167449e+02
  -1.784368e+01   5.735412e+00
  -3.913488e+01   1.023581e+02
  -1.971782e+02   1.103516e+02
  -2.716469e+02  -6.370428e+01
  -1.780522e+02  -3.210958e+02
   6.572352e+01  -2.607568e+02
   2.694779e+02  -4.243290e+01
   2.452210e+02   2.417802e+02
   8.857776e-01   3.288978e+02
  -2.499889e+02   1.255459e+02
  -4.042578e+02  -1.891314e+02
  -1.875659e+02  -3.032974e+02
   8.378553e+01  -3.239671e+02
   2.227200e+02  -1.152516e+02
   1.378314e+02  -3.346244e+01
   1.007662e+02  -6.127562e+01
   2.417532e+02  -1.043030e+02
   4.181750e+02   3.042818e+01
   3.657564e+02   3.024828e+02
   5.368566e+01   4.718434e+02
  -4.067690e+02   4.828004e+02
  -4.829373e+02   2.211400e+02
  -3.425571e+02  -1.137421e+02
  -4.713985e+01  -3.225961e+02
   1.655719e+02  -2.898741e+02
   1.258834e+02  -6.313018e+01
  -1.035861e+02   1.064999e+02
  -2.249584e+02  -2.926546e+01
  -4.895048e+01  -2.310296e+02
   1.237901e+02  -1.770922e+02
   2.053702e+02   7.302752e+01
  -2.301820e+01   2.232307e+02
  -2.380754e+02   3.261701e+01
  -1.846630e+02  -2.475809e+02
   5.164005e+01  -3.636471e+02
   2.540021e+02  -2.300119e+02
   3.519672e+02   8.039837e+01
   2.993144e+02   2.363286e+02
   1.254583e+02   2.754215e+02
  -1.102316e+02   1.754195e+02
  -1.788783e+02   2.893575e+01
  -4.608002e+01  -6.639326e+00
   7.843492e+01   4.124553e+01
   4.328963e+01   1.300944e+02
  -1.292878e+02   1.389341e+02
  -1.828838e+02  -1.718436e+01
  -5.214064e+01  -9.239508e+01
   7.148089e+01  -1.492600e+01
   6.745276e+01   9.430780e+01
  -1.616376e+02   1.153371e+02
  -3.125270e+02  -3.992691e+01
  -2.710886e+02  -1.355580e+02
  -7.106893e+01  -2.978646e+02
   2.048220e+02  -2.958578e+02
   3.244393e+02  -1.148231e+02
   1.791012e+02   8.556814e+01
  -3.318466e+01   1.099220e+02
  -7.727049e+01   3.900251e+01
   5.242309e+01  -1.324766e+02
   1.969726e+02  -5.062339e+01
   2.521272e+02   1.240708e+02
   1.056925e+02   2.294683e+02
  -1.037930e+02   1.580046e+02
  -1.909233e+02   2.754638e+01
  -6.643772e+01  -5.753735e+01
   5.188493e+01   7.123467e+00
   3.191312e+01   6.859437e+01
  -1.001434e+02   1.169533e+02
  -2.183387e+02   6.321172e+01
  -2.181461e+02  -1.308683e+02
  -3.471433e+01  -2.675925e+02
   1.639577e+02  -2.054320e+02
   2.174758e+02   1.951001e+00
   9.026781e+01   1.397106e+02
  -5.076684e+01   1.202746e+02
  -1.169505e+02   2.454622e+01
  -9.531458e+00  -5.569245e+01
   3.840127e+01  -1.324421e+01
  -1.601510e+01   1.785975e+01
  -8.360147e+01  -5.860329e+00
  -8.920432e+01  -9.822786e+01
   7.801139e+00  -1.669286e+02
   1.225596e+02  -1.609003e+02
   2.345436e+02  -3.020843e+01
   1.949569e+02   1.813354e+02
   4.057731e+01   2.663975e+02
  -1.117962e+02   1.873520e+02
  -1.375960e+02   8.552863e+00
  -9.207293e+01  -4.201270e+01
  -3.968116e+01  -2.563462e+01
  -5.945318e+01   2.285086e+01
  -1.075887e+02   1.200639e+01
  -3.172474e+01  -8.182849e+01
   3.025417e+01  -7.503891e+01
   1.058245e+02  -7.402672e+01
   8.787881e+01   2.779600e+01
   6.381060e+00   1.291806e+02
  -1.457811e+02   8.030909e+01
  -2.255540e+02  -8.172867e+01
  -1.034397e+02  -1.907058e+02
   8.948456e+01  -2.690208e+02
   3.140431e+02  -1.442110e+02
   2.693622e+02   6.779910e+01
   1.196055e+02   2.430230e+02
  -1.242350e+01   1.931092e+02
  -7.078276e+01   7.311696e+01
  -9.609024e+01   8.684046e+01
  -2.908657e+01   6.609169e+01
  -1.124584e+02   1.039553e+02
  -1.640591e+02  -1.364681e+01
  -1.590462e+02  -1.169462e+02
   6.081027e+00  -2.851344e+02
   1.066373e+02  -1.953512e+02
   1.941364e+02  -1.608544e+01
   1.569902e+02   1.169152e+02
   3.065232e+01   1.623617e+02
  -5.306714e+01   8.421185e+01
  -7.703793e+01  -1.520952e+01
  -2.789641e+01  -7.464323e+01
   2.149974e+01  -2.878547e+01
  -4.276015e+01  -1.106313e+01
  -6.145125e+01  -4.495932e+01
  -4.531003e+01  -2.118059e+01
   6.336943e+01  -3.579959e+01
   1.172477e+02  -2.038962e+01
   1.396735e+02   5.291118e+01
  -9.256515e+00   1.388931e+02
  -1.309281e+02   1.129315e+02
  -1.760344e+02   8.993228e+00
  -5.033434e+01  -4.724507e+01
   5.983144e+01  -3.192104e+01
   8.705752e+01   9.289725e+00
   1.989239e+01   9.769814e+01
  -5.839549e+01   3.789226e+01
  -5.850043e+01  -1.414166e+01
  -3.724279e+01  -2.665265e+01
  -6.859906e+01  -4.468484e+01
  -6.190425e+01  -5.684045e+00
  -4.414063e+01  -2.712012e+00
  -3.701752e+01  -7.630125e+01
   6.424672e+01  -1.706852e+02
   1.142898e+02  -1.454014e+02
   2.015307e+02  -2.355013e+01
   1.661231e+02   9.969589e+01
   2.043449e+01   1.028244e+02
  -9.544065e+01   8.054340e+01
  -3.182075e+01  -1.559281e+01
   3.758342e+01  -3.119694e+01
   1.571261e+02   1.376000e+01
   7.347464e+01   1.052668e+02
  -7.519928e+01   1.241832e+02
  -1.939219e+02   6.883299e+01
  -1.595649e+02  -1.978106e+01
  -5.587966e+01  -7.688606e+01
   5.092678e+01  -1.028442e+02
   4.507116e+01   1.258199e+01
  -1.602358e+01   4.948129e+01
  -1.000573e+02  -9.176036e+00
  -5.132244e+01  -1.316347e+02
   7.803607e+01  -1.689914e+02
   1.607092e+02  -4.299068e+01
   1.451509e+02   1.038218e+02
   6.777832e+00   2.228174e+02
  -9.548192e+01   1.465221e+02
  -1.062717e+02  -2.020867e+01
  -5.371426e+01  -1.494955e+02
   5.161848e+00  -1.121771e+02
   7.578794e+01  -1.008033e+01
   6.479796e+01   3.360304e+01
   2.100914e+01   2.040474e+01
  -6.981979e+00  -1.297913e+01
   4.861522e+01   6.396126e+01
   8.810509e+01   8.508634e+01
   3.517498e+01   1.105255e+02
  -7.382345e+01   5.893037e+01
  -1.519798e+02  -9.813160e-01
  -1.685502e+02  -9.373710e+01
  -1.751057e+01  -7.541111e+01
   1.109573e+02  -1.098236e-01
   1.141042e+02   8.900044e+00
  -2.109971e+01   2.136720e+01
  -6.825512e+01   4.740148e+01
  -5.335448e+00   3.692059e+01
   4.195128e+00  -1.325435e+01
   7.125417e+00  -2.017214e+01
  -5.646487e+01  -9.417353e+00
  -1.262840e+02  -4.079830e+01
  -7.133425e+00  -8.070203e+01
   8.766882e+01  -1.221552e+02
   2.094231e+02  -9.991363e+01
   1.871709e+02   9.539782e+01
   3.455404e+01   2.162509e+02
  -7.766011e+01   1.723700e+02
  -1.292806e+02   8.470640e+01
  -9.842772e+01  -6.041563e+01
  -9.998838e+00  -3.204919e+01
   3.974454e+00   1.601182e+01
   2.648201e+00   2.195544e+01
  -6.012068e+01  -3.485809e+01
  -4.176618e+01  -1.315017e+02
   3.887929e+01  -8.760503e+01
   7.723699e+01   6.355584e+00
   9.101358e+01   1.518844e+02
   1.486686e+00   1.302258e+02
  -8.260274e+01   9.407777e+00
  -1.153868e+02  -6.670262e+01
  -4.635495e+01  -1.183013e+02
   7.215339e+01  -4.382428e+01
   8.311876e+01   1.661153e+01
   2.679492e+01   9.351805e+01
  -3.773341e+01   2.901611e+01
  -4.643473e+01   3.028070e+01
   1.233131e+01  -2.129434e+01
   7.346026e+01   5.277132e+00
  -1.219763e+01   3.504509e+01
  -8.079613e+01   4.880509e+01
  -1.053129e+02   7.582064e+01
  -5.750130e+01   1.195108e+01
   2.382917e+01  -1.170261e+02
   4.978767e+01  -6.706216e+01
   5.649518e+01   8.219433e-01
   2.285106e+01   6.764201e+01
  -3.469267e+01   5.791630e+01
  -3.977320e+01  -1.346404e+01
  -2.794683e+01  -7.673627e+01
  -1.645769e+00  -5.907402e+01
   2.788162e+01   1.874207e+01
   4.533832e+01   1.537805e+01
   1.684455e+01  -1.993022e+01
   1.069957e+01   1.145901e+01
  -1.960433e+01  -3.337153e+01
  -1.216667e+01   4.241491e+01
  -1.330632e+01   2.363620e+01
  -3.592264e+01   4.568271e+00
  -8.046521e+00  -3.932387e+01
   6.585445e+00  -7.893810e+01
   6.027808e+01  -1.878383e+01
   5.461008e+01   4.815094e+01
   1.825930e+01   8.098438e+01
  -6.265583e+01   6.291097e+01
  -1.027709e+02  -1.834453e+01
  -3.725788e+01  -4.241057e+01
   2.635239e+01  -3.211416e+01
   7.704368e+01  -2.810757e+01
   3.103778e+01   2.054703e-01
  -3.300676e+01  -7.721881e+00
  -1.480243e+01  -1.955140e+01
   3.205977e+01  -7.005768e+01
   9.107544e+01  -1.434335e+01
