
 $NMID
 id='ANONYMOUS ', fmtdat='(2E16.6)'
 volume=1.0
 tramp=1.0
 $END
  -4.480869e+03   1.206337e+02
  -2.596571e+03  -2.531731e+03
   7.982613e+02  -2.896611e+03
   2.188407e+03  -8.911150e+02
   1.021782e+03   7.397699e+02
  -7.097691e+02   7.695548e+02
  -9.883347e+02  -4.199682e+02
   1.516461e+01  -1.159391e+03
   8.716483e+02  -8.119337e+02
   1.074466e+03   8.395424e+01
   5.577664e+02   9.452355e+02
  -3.065500e+02   1.008069e+03
  -7.120588e+02   1.191291e+02
  -4.523773e+02  -8.017304e+02
   2.828881e+02  -7.488352e+02
   6.377318e+02  -5.320633e+00
   2.209687e+02   7.545380e+02
  -3.794814e+02   6.649333e+02
  -6.148849e+02   8.083987e+01
  -4.547428e+02  -4.164937e+02
  -4.709551e+01  -4.729386e+02
   2.735176e+02  -2.874666e+02
   2.150495e+02  -1.932199e+01
  -1.189725e+02   9.914929e+01
  -3.665799e+02  -9.182024e+01
  -2.062777e+02  -4.693858e+02
   4.777700e+02  -4.493025e+02
   9.051213e+02   4.324593e+01
   4.386150e+02   5.786979e+02
  -4.209764e+02   5.017495e+02
  -8.072209e+02  -6.564722e+01
  -3.940540e+02  -5.252448e+02
   2.848756e+02  -5.700850e+02
   5.976250e+02  -1.889238e+02
   4.340777e+02   2.310286e+02
   8.052710e+01   5.209402e+02
  -2.489222e+02   3.229730e+02
  -2.008838e+02  -2.720863e+02
   1.531134e+02  -4.640590e+02
   4.585721e+02  -4.324172e+01
   3.258123e+02   6.822926e+02
  -2.809923e+02   7.958241e+02
  -6.365402e+02   8.595299e+01
  -3.242374e+02  -5.675582e+02
   3.463421e+02  -3.442888e+02
   4.212707e+02   3.224428e+02
  -1.333798e+01   5.625115e+02
  -6.124793e+02   1.782486e+02
  -6.619390e+02  -4.349109e+02
  -2.050069e+02  -5.690622e+02
   4.399976e+02  -4.138702e+02
   6.889064e+02   6.597298e+01
   4.060146e+02   4.084098e+02
  -1.515640e+02   3.836160e+02
  -4.701062e+02   6.033793e+01
  -2.642041e+02  -1.913165e+02
   1.100835e+02  -1.354673e+02
   1.691618e+02   1.926532e+02
  -1.442592e+02   1.917064e+02
  -3.588862e+02  -4.452597e+01
  -2.045624e+02  -3.104332e+02
   1.992955e+02  -3.005887e+02
   3.431114e+02  -1.129319e+02
   1.983787e+02   7.642033e+01
  -1.660798e+01   1.993402e+02
  -2.067202e+02   3.073054e+02
  -2.888048e+02   2.577455e+02
  -2.935211e+02  -1.016641e+02
  -8.879523e+01  -3.987519e+02
   1.053170e+02  -4.383675e+02
   1.497941e+02  -1.386783e+02
   4.590604e+01   1.544556e+01
   3.295551e+01  -9.908214e+01
   1.832418e+02  -1.361598e+02
   2.530018e+02   3.826896e+01
   1.667138e+02   2.928084e+02
  -4.687065e+01   3.160839e+02
  -2.632980e+02   3.319068e+01
  -1.846419e+02  -2.176642e+02
   1.945025e+01  -3.233045e+02
   2.694679e+02  -1.466728e+02
   3.933814e+02   1.632940e+02
   2.157661e+02   3.267454e+02
  -9.284817e+01   3.395209e+02
  -2.233626e+02   1.406397e+02
  -1.440363e+02   4.045605e+01
  -8.852367e+01   4.196043e+01
  -2.242799e+02   7.222730e+01
  -3.753529e+02  -2.078776e+01
  -3.327954e+02  -2.656237e+02
  -5.929981e+01  -4.559668e+02
   3.010272e+02  -4.253323e+02
   4.234537e+02  -2.080180e+02
   3.595667e+02   1.013065e+02
   5.437626e+01   3.266409e+02
  -1.496145e+02   3.035106e+02
  -1.002041e+02   4.376343e+01
   1.033143e+02  -1.014693e+02
   1.886284e+02   1.142445e+01
   7.033371e+01   1.997891e+02
  -1.445058e+02   1.685381e+02
  -2.071493e+02  -4.937448e+01
  -8.015295e+00  -2.068390e+02
   2.146853e+02  -5.863004e+01
   1.963163e+02   2.496945e+02
  -3.139569e+01   3.863431e+02
  -2.008522e+02   2.237013e+02
  -3.184838e+02  -8.301962e+01
  -2.584391e+02  -2.333657e+02
  -7.624181e+01  -2.835426e+02
   1.183518e+02  -1.759340e+02
   1.572375e+02  -2.848685e+01
   4.460765e+01   1.852917e+01
  -5.960335e+01  -4.150938e+01
  -5.177800e+01  -1.282522e+02
   1.254286e+02  -1.183002e+02
   2.140708e+02   3.499545e+01
   5.710842e+01   1.121500e+02
  -6.319244e+01   1.818465e+01
  -8.295639e+01  -8.181695e+01
   1.478466e+02  -9.127020e+01
   3.059020e+02   1.272299e+01
   2.534846e+02   1.401732e+02
   4.512566e+01   2.518478e+02
  -1.796822e+02   2.754705e+02
  -2.757827e+02   1.118421e+02
  -1.872444e+02  -4.339718e+01
   1.670959e+01  -1.465490e+02
   1.012711e+02   7.955672e+00
  -3.279151e+01   1.146745e+02
  -1.976656e+02   7.587527e+01
  -2.231565e+02  -1.070687e+02
  -9.388891e+01  -2.332525e+02
   9.661219e+01  -1.364914e+02
   1.321821e+02  -4.324382e+01
   7.128361e+01   5.301214e+01
  -5.787095e+01   1.520687e+01
  -3.693102e+01  -9.754619e+01
   5.621870e+01  -1.244557e+02
   2.084387e+02  -2.183157e+01
   2.199600e+02   9.538960e+01
   4.478518e+01   2.178299e+02
  -1.449313e+02   1.753954e+02
  -1.899140e+02   1.234083e+01
  -6.944886e+01  -1.286499e+02
   6.687712e+01  -8.129944e+01
   7.342662e+01  -3.700979e+00
   1.648844e+01   2.877528e+01
  -7.109131e+00  -2.415043e+00
   2.360852e+01  -1.433553e+01
   5.842675e+01   2.433479e+01
   8.414295e+01   1.018456e+02
   8.552242e+00   1.571505e+02
  -1.237854e+02   1.370284e+02
  -2.458758e+02   6.505646e+01
  -2.024746e+02  -1.668788e+02
  -5.513485e+01  -2.542247e+02
   1.068858e+02  -2.065472e+02
   1.205652e+02  -1.782060e+01
   7.405523e+01   3.146803e+01
   2.103819e+01   3.272126e+00
   6.084656e+01  -1.574958e+01
   1.031507e+02   2.693793e+00
   7.583326e+01   7.153737e+01
  -2.092780e+01   9.896428e+01
  -1.251259e+02   8.789499e+01
  -1.159504e+02  -3.341629e+01
  -2.364238e+00  -9.956459e+01
   1.394760e+02  -1.344337e+02
   2.102028e+02   2.530343e+01
   9.476059e+01   1.840618e+02
  -5.388326e+01   2.566897e+02
  -2.947461e+02   1.185426e+02
  -2.790042e+02  -6.613894e+01
  -1.029126e+02  -2.018337e+02
   7.057322e+00  -1.741054e+02
   7.166250e+01  -6.735570e+01
   1.207127e+02  -3.810776e+01
   4.853556e+01  -1.105655e+02
   9.038509e+01  -1.038290e+02
   1.546690e+02   1.469014e+01
   1.337989e+02   1.521406e+02
   4.549094e+01   2.651737e+02
  -6.307052e+01   2.051364e+02
  -1.848874e+02   3.613497e+01
  -1.939432e+02  -1.305066e+02
  -2.611511e+01  -2.090128e+02
   7.972406e+01  -7.707064e+01
   9.133236e+01  -4.878384e+00
   9.212572e+00   3.304607e+01
   1.214782e+01   4.336851e+01
   4.358826e+01   5.165203e+00
   7.503237e+01   4.246175e+01
   3.645061e+01   5.186064e+01
  -6.550743e+01   6.275018e+01
  -1.433729e+02   3.162964e+01
  -1.511257e+02  -7.552001e+01
  -1.148904e+01  -1.165663e+02
   7.738146e+01  -6.453852e+01
   1.527051e+02  -8.070357e+00
   5.832713e+01   5.936570e+01
  -6.614426e+01   1.410581e+01
  -1.115486e+02  -1.987174e+01
  -1.946254e+01  -7.812978e+01
   9.224886e+01  -7.168897e+01
   5.947591e+01  -3.310954e+00
   6.110502e+01   3.229517e+01
   6.241675e+01   2.058297e+01
   6.747645e+01  -5.520212e+00
   5.756143e+01  -4.412531e+00
   2.070650e+01   6.762069e+01
  -3.127596e+01   1.419709e+02
  -1.014441e+02   1.364129e+02
  -1.666246e+02   5.616561e+01
  -1.280797e+02  -9.652096e+01
   1.446649e+00  -1.408828e+02
   1.031677e+02  -9.198386e+01
   6.936827e+01   6.945492e+00
  -5.872836e+01   2.373288e+01
  -1.289348e+02  -2.587135e+01
  -9.507223e+01  -9.725417e+01
   5.139196e+01  -1.009595e+02
   1.904832e+02  -4.868518e+01
   1.393845e+02   2.387065e+01
   2.864058e+01   6.046267e+01
  -4.607713e+01   4.057341e+01
  -3.533405e+01   2.013520e+01
   2.676506e+01  -5.523643e+01
   1.282334e+02   1.025197e+01
   2.793254e+01   1.122829e+02
  -7.700550e+01   1.443888e+02
  -1.697142e+02   4.975993e+01
  -1.459763e+02  -1.376674e+02
  -1.009143e+01  -2.276899e+02
   7.811590e+01  -1.385081e+02
   9.841008e+01  -1.298950e+01
   5.102979e+01   1.025494e+02
   2.528507e+01   1.023656e+02
  -5.262964e+01  -2.258377e+01
  -5.087934e+01  -4.775911e+01
  -3.166845e+01  -3.660105e+01
   1.674931e+01   3.029626e+01
  -2.174514e+01  -2.835768e+01
  -8.238849e+01  -7.392660e+01
  -6.570282e+01  -1.162065e+02
   4.160028e+01  -2.881761e+01
   1.362327e+02   2.797758e+01
   1.355448e+02   9.780750e+01
  -3.716707e-01   5.820966e+01
  -9.525514e+01   4.040734e+01
  -9.195144e+01   8.744112e+00
  -1.183407e+01  -6.347229e+01
   6.632321e+01  -2.401525e+01
   1.678780e+01  -1.188721e+01
  -4.308146e+01   9.246651e+00
   1.177890e+01   6.764683e+00
   7.233210e+01  -1.791447e+01
   1.035350e+02   2.257197e+01
   3.180665e+01   8.174997e+01
  -1.076954e+02   8.983308e+01
  -1.774190e+02   5.856091e+01
  -1.792332e+02  -8.485339e+01
  -2.761608e+01  -1.658296e+02
   5.707861e+01  -1.383792e+02
   1.095612e+02  -5.018299e+01
   9.445026e+01   3.487807e+01
   1.465110e+01   4.974786e+01
   1.331949e+01  -7.882773e+00
  -8.172424e+00   5.484710e+00
   5.015288e+01   5.034957e+01
   6.940086e+01   7.216981e+01
  -1.752655e+01   8.772700e+01
  -4.451399e+01  -2.932732e+01
  -1.030022e+02  -1.263411e+02
  -2.678866e+01  -1.353287e+02
   7.533822e+01  -2.083204e+01
   1.016708e+02   7.917581e+01
   4.279833e+01   8.392524e+01
  -8.779842e+01   7.116563e+01
  -9.536863e+01   5.492015e+00
  -6.695851e+00  -5.227042e+01
   3.136357e+01  -5.580162e+01
   2.465271e+01  -2.035648e+01
  -3.521666e+01   3.290291e+00
  -5.586875e+01   2.350742e+01
  -2.574029e+00  -3.360416e+01
   7.052296e+01  -9.662415e+01
   1.014435e+02  -6.295629e+01
   4.461498e+01   2.578235e+01
  -2.345716e+01   8.539569e+01
  -4.723116e+01   3.969239e+01
  -1.728074e+01  -6.695389e+00
  -1.070515e+00  -5.550777e+01
   3.166804e+01  -5.843393e+01
   4.041439e+01   1.003296e+01
   1.909861e+01   7.908850e+01
  -2.230158e+01   4.006071e+01
  -4.235289e+01  -1.830825e+01
  -5.149487e+01  -1.253888e+01
   8.152005e+00   2.391855e+01
  -5.204290e+00  -1.598633e+00
  -2.216299e+00  -9.094923e+00
  -1.061940e+01  -4.876739e+01
   4.440314e+01  -1.965321e+01
   1.249756e+01  -1.607937e+01
  -3.569864e+00   5.763786e+01
  -1.543821e+00   6.788092e+01
  -6.949332e+01   2.576587e+01
  -6.573609e+01  -5.102739e+01
  -1.514896e+01  -4.242196e+01
   9.705226e+01  -4.402116e+01
   7.979801e+01   1.039211e+01
   6.512195e+01   7.326118e+00
  -4.713168e+01   5.207656e+01
  -5.612102e+01   3.245833e+01
  -1.815491e+01   4.107812e-01
   5.305152e+01   1.465133e+01
   3.126232e+01   3.963416e+01
  -5.048575e+01   5.612626e+01
  -8.734172e+01   1.829755e+01
