
 $NMID
 id='ANONYMOUS ', fmtdat='(2E16.6)'
 volume=1.0
 tramp=1.0
 $END
   3.545470e+03  -4.101019e+02
   2.577788e+03   1.594337e+03
  -4.564589e+01   2.445593e+03
  -1.545545e+03   1.387527e+03
  -1.087207e+03   3.466049e+01
   3.024713e+01  -5.270952e+02
   5.452632e+02   1.421864e+02
   2.076923e+02   7.193413e+02
  -5.868815e+02   7.069844e+02
  -8.165730e+02   1.468133e+02
  -6.054557e+02  -5.705467e+02
  -2.019674e+01  -8.179371e+02
   4.233586e+02  -2.959581e+02
   3.810280e+02   4.492374e+02
  -6.590102e+01   6.546748e+02
  -5.078311e+02   1.422508e+02
  -3.882766e+02  -5.368248e+02
   4.973211e+01  -7.299611e+02
   5.412579e+02  -3.498141e+02
   5.320799e+02   2.015859e+02
   1.560418e+02   4.187122e+02
  -1.309991e+02   2.666321e+02
  -1.403177e+02   5.023816e+01
   1.538749e+02  -1.155134e+01
   3.750311e+02   1.484299e+02
   1.124074e+02   3.592137e+02
  -3.617071e+02   3.446211e+02
  -7.004880e+02   5.452881e+01
  -4.006187e+02  -3.526855e+02
   2.672125e+02  -3.535628e+02
   5.253453e+02   1.452368e+01
   2.546281e+02   3.668556e+02
  -2.292754e+02   4.115260e+02
  -4.589729e+02   2.328117e+02
  -3.953213e+02  -1.408025e+02
  -1.020013e+02  -3.740122e+02
   5.372753e+01  -2.697906e+02
   1.072706e+02   1.134119e+02
  -7.480219e+01   3.031654e+02
  -3.228758e+02  -3.684038e+01
  -2.510166e+02  -5.088297e+02
   1.635923e+02  -5.457102e+02
   4.500463e+02  -1.527386e+02
   2.370084e+02   3.660770e+02
  -1.680065e+02   2.330178e+02
  -3.026441e+02  -2.342176e+02
   3.040126e+01  -4.591517e+02
   4.628305e+02  -1.559775e+02
   5.669258e+02   2.951410e+02
   2.679514e+02   5.106643e+02
  -3.079035e+02   3.610371e+02
  -6.417031e+02  -1.610573e+01
  -3.891822e+02  -2.783708e+02
   5.576906e+01  -2.891538e+02
   3.527663e+02  -1.223992e+02
   2.684888e+02   8.345983e+01
  -3.668467e+01   6.924043e+01
  -9.691638e+01  -7.141004e+01
   9.836080e+01  -1.549350e+02
   2.645750e+02   4.461554e+00
   1.571047e+02   2.285053e+02
  -1.310365e+02   2.847742e+02
  -3.452160e+02   1.178497e+02
  -2.543383e+02  -7.592735e+01
  -5.899240e+00  -2.824656e+02
   2.590147e+02  -4.177376e+02
   3.424862e+02  -2.192756e+02
   2.741843e+02   1.129747e+02
   1.172392e+02   3.845686e+02
  -5.259391e+01   3.698915e+02
  -7.011232e+01   1.749384e+02
  -3.960119e+01   2.629654e+01
  -9.352648e+01   9.024723e+01
  -1.969054e+02   1.047294e+02
  -2.763689e+02  -3.705288e+01
  -1.617148e+02  -2.490116e+02
   6.272293e+01  -2.159769e+02
   1.890133e+02   1.153634e+01
   1.876478e+02   2.157570e+02
  -1.651261e+01   2.728620e+02
  -2.344661e+02   1.151431e+02
  -3.471073e+02  -1.038155e+02
  -2.161136e+02  -2.943930e+02
   5.525113e+01  -2.912596e+02
   1.705229e+02  -1.752948e+02
   1.431989e+02  -1.086803e+02
   1.443562e+02  -8.278983e+01
   2.669877e+02  -9.769092e+01
   4.387006e+02   3.245911e+01
   3.076701e+02   2.569405e+02
   3.609260e+01   4.530507e+02
  -3.002196e+02   4.156046e+02
  -4.130731e+02   2.720509e+02
  -2.959001e+02  -5.739811e+01
  -3.997155e+01  -2.619289e+02
   8.303649e+01  -2.147720e+02
   3.205754e+01  -3.135314e+01
  -9.321812e+01   7.763243e+01
  -1.606639e+02  -1.236336e+01
  -6.021906e+01  -1.589361e+02
   1.166109e+02  -1.357293e+02
   1.363637e+02   1.472509e+01
  -1.008142e+01   1.530910e+02
  -1.578933e+02   3.938740e+01
  -1.826223e+02  -2.076647e+02
  -1.348578e+01  -3.879494e+02
   2.526018e+02  -2.547376e+02
   3.540077e+02  -6.139797e+00
   3.178423e+02   2.183801e+02
   1.157490e+02   2.835806e+02
  -1.336556e+02   1.731744e+02
  -1.639168e+02   1.618591e+01
  -2.523280e+01  -7.142942e+00
   7.854919e+01   3.038787e+01
   1.395225e+01   1.402064e+02
  -1.129895e+02   9.983758e+01
  -1.610921e+02  -1.886946e+01
  -3.375801e+01  -6.803441e+01
   8.430557e+01  -2.987112e+01
   7.010540e+01   1.059419e+02
  -1.512146e+02   1.169518e+02
  -2.663652e+02   4.596088e+01
  -3.041990e+02  -1.776626e+02
  -4.440860e+01  -2.354924e+02
   2.067941e+02  -2.256585e+02
   2.691208e+02  -1.174576e+02
   1.630880e+02   3.741185e+01
  -1.022527e+01   1.101875e+02
  -6.010176e+01   9.759706e+00
   1.271837e+01  -9.034346e+01
   1.854450e+02  -8.164695e+01
   2.254058e+02   7.074452e+01
   9.220619e+01   1.893641e+02
  -1.008643e+02   1.831585e+02
  -1.402382e+02   1.536197e+01
  -4.857968e+01  -7.651924e+01
   4.329680e+01   2.801890e+00
   6.135750e+01   9.577821e+01
  -8.840778e+01   9.898722e+01
  -2.289914e+02   2.546208e+01
  -1.716056e+02  -1.303673e+02
  -4.366846e+01  -2.246436e+02
   1.302716e+02  -1.726622e+02
   1.839518e+02  -2.715671e+01
   6.126266e+01   8.972553e+01
  -7.094125e+01   1.106940e+02
  -9.487642e+01   6.146188e+01
  -2.820857e+01  -2.451690e+01
   2.016057e+01  -3.496680e+01
   7.289599e+00  -3.775789e+00
  -3.422628e+01   8.072867e+00
  -1.163897e+02  -7.214944e+01
  -1.788449e+01  -1.716554e+02
   1.016474e+02  -1.737781e+02
   2.164146e+02  -8.589144e+00
   2.145167e+02   1.725502e+02
   6.944136e+01   2.301016e+02
  -8.001744e+01   1.832394e+02
  -1.075483e+02   3.324209e+01
  -9.644895e+01  -5.499004e+01
  -1.856332e+01  -1.623764e+00
  -3.651861e+01   1.857009e+00
  -1.079236e+02   3.221958e+01
  -6.205997e+01  -4.842935e+01
   3.262569e+01  -1.321441e+02
   8.864970e+01  -6.989400e+01
   1.058976e+02   3.876331e+01
  -1.554359e+01   1.011286e+02
  -1.451869e+02   9.197616e+01
  -2.196073e+02  -4.898303e+01
  -8.887412e+01  -2.124878e+02
   9.744687e+01  -2.231181e+02
   2.023714e+02  -1.493976e+02
   2.480708e+02   4.202967e+01
   1.330483e+02   1.656628e+02
  -2.977609e+01   1.303031e+02
  -5.132287e+01   1.080869e+02
  -7.797161e+01   7.700148e+01
  -6.042600e+01   1.149692e+02
  -7.781733e+01   9.369476e+01
  -1.123307e+02   1.465358e+00
  -1.480427e+02  -9.923367e+01
  -3.231514e+01  -2.242779e+02
   5.653441e+01  -1.758722e+02
   2.001250e+02  -2.346966e+01
   1.674027e+02   1.367694e+02
  -1.241365e+00   1.802128e+02
  -6.600690e+01   1.023442e+02
  -4.281112e+01   1.470013e+01
   1.986394e+01  -4.737602e+01
   3.865850e+01  -2.812563e+01
   8.860541e+00   1.814560e+01
  -7.868943e+01   1.446678e+00
  -5.360862e+01  -2.709226e+01
   7.449956e+01  -7.767153e+01
   1.690335e+02  -1.738687e+01
   1.234280e+02   4.806689e+01
  -6.394603e+00   9.820806e+01
  -1.212506e+02   1.166611e+02
  -1.683962e+02   1.673836e+01
  -3.765336e+01  -4.970567e+01
   6.051880e+01  -4.506950e+01
   9.798531e+01   2.736360e+01
   5.029279e+01   7.452148e+01
  -5.894262e+01   7.568149e+01
  -5.922079e+01  -9.452012e+00
  -7.244061e+01  -4.124085e+01
  -5.900748e+01  -2.992391e+01
  -8.034757e+01  -1.810636e+01
  -8.727376e+01   1.894681e+01
  -6.666583e+01  -1.018110e+02
   6.343065e+00  -1.229631e+02
   1.126055e+02  -1.505182e+02
   1.895960e+02  -4.911632e+01
   1.434772e+02   9.749185e+01
   2.221212e+01   1.364126e+02
  -1.074160e+02   9.849055e+01
  -5.829889e+01  -2.801266e+00
   3.463227e+01  -2.603731e+01
   1.394783e+02  -1.310571e+00
   7.740389e+01   1.029201e+02
  -6.714137e+01   1.358553e+02
  -1.633077e+02   5.271049e+01
  -1.686879e+02  -4.051438e+01
  -1.046896e+01  -7.783833e+01
   1.006185e+02  -8.192417e+01
   5.821396e+01   1.520547e+01
   2.671736e+00   5.354424e+01
  -1.089438e+02   1.337854e+00
  -2.092979e+01  -8.517884e+01
   5.030995e+01  -1.535286e+02
   1.329083e+02  -6.910930e+01
   1.541159e+02   7.741886e+01
   3.266847e+01   2.133536e+02
  -7.821408e+01   1.366345e+02
  -8.121307e+01  -4.028665e+01
  -4.700155e+01  -8.083961e+01
   2.985497e+00  -1.123119e+02
   4.876532e+01  -1.954454e+01
   4.785890e+01   1.575145e+01
   4.041524e+00  -2.253768e+00
  -3.248035e+01  -2.495673e+01
   3.042595e+01  -1.587238e+01
   5.327789e+01   7.360091e+01
   4.050744e+01   8.266710e+01
  -4.285521e+01   4.877043e+01
  -1.352114e+02  -5.028467e+01
  -1.414595e+02  -8.826015e+01
  -2.090048e+01  -5.263001e+01
   8.814017e+01  -7.474620e+00
   8.424801e+01  -1.654395e+01
   1.863109e+01   2.371055e+01
  -3.977160e+01   4.310635e+01
  -2.525542e+01   2.807814e+01
   2.781506e+01  -1.764788e+01
  -2.991042e+00  -3.175434e+01
  -6.215722e+01   1.080706e+01
  -8.636922e+01  -1.723678e+01
  -3.922871e+01  -9.186752e+01
   9.508100e+01  -1.091029e+02
   1.654036e+02  -7.627238e+01
   1.481374e+02   4.072059e+01
   5.246912e+01   1.546151e+02
  -1.021781e+02   1.560468e+02
  -1.301149e+02   2.295613e+01
  -8.505305e+01  -4.284569e+01
  -4.065648e+01  -3.267005e+01
  -1.633603e+01   3.270571e+00
  -8.331527e+00  -2.010723e+01
  -2.911350e+01  -3.218934e+01
  -1.193754e+01  -7.262012e+01
  -1.527796e+01  -9.336080e+01
   6.783691e+01  -1.482322e+00
   9.726374e+01   7.801777e+01
  -2.403774e-01   1.094279e+02
  -6.985625e+01   3.856726e+01
  -8.702464e+01  -2.855586e+01
  -5.240341e+01  -7.389243e+01
   7.286644e+01  -6.255366e+01
   9.413367e+01   9.600567e+00
   4.188664e+01   3.680898e+01
  -3.478367e+01   4.429091e+01
  -4.763959e+01   6.393805e+00
   4.592042e+01  -2.130019e+01
   6.075682e+01  -3.201320e+01
   4.924222e+01   2.451807e+01
  -1.012549e+02   7.410757e+01
  -1.343235e+02   6.020254e+01
  -7.519932e+01  -3.402845e+01
   2.288145e+00  -9.276589e+01
   3.788313e+01  -1.138174e+02
   5.536442e+01  -1.143296e+00
   3.183949e+01   5.922462e+01
  -2.094283e+01   6.973165e+01
  -4.265416e+01  -2.873119e+01
  -7.665437e+00  -5.680468e+01
   1.704335e+01  -4.403628e+01
   5.511744e+01   9.375988e+00
   4.538931e+01   6.291307e+01
   2.670120e+01   3.055852e+01
  -7.894646e+00   2.751665e+01
   7.454815e+00  -1.493197e+01
  -1.148193e+01   3.201588e+00
  -1.044577e+01   5.456426e+01
  -1.439227e+01   5.220021e+01
  -4.039695e+01  -1.199340e+01
  -2.178595e+01  -6.319493e+01
   4.558805e+01  -2.568437e-01
   6.659582e+01   3.798433e+00
   2.280935e+01   7.160611e+01
  -3.468465e+01   4.088141e+01
  -1.057927e+02  -2.419781e+01
  -7.261316e+01  -5.834213e+01
   4.755255e+01  -5.236352e+01
   8.364028e+01  -3.320531e+01
   1.666540e+01  -1.096103e+01
  -3.109440e+01   2.052620e+01
  -3.665466e+01  -2.209686e+01
   6.321916e+00  -3.641745e+01
   7.598762e+01  -4.178605e+01
