
 $NMID
 id='ANONYMOUS ', fmtdat='(2E16.6)'
 volume=1.0
 tramp=1.0
 $END
   2.744788e+03  -5.787140e+02
   2.154891e+03   1.229297e+03
  -2.250607e+02   1.747142e+03
  -7.763300e+02   9.552674e+02
  -7.192715e+02   1.174134e+00
   4.171159e+01  -3.127574e+02
   3.117342e+02   1.435189e+02
   7.673378e+01   5.189187e+02
  -2.974705e+02   4.115852e+02
  -4.953209e+02   1.102409e+02
  -3.915940e+02  -3.415423e+02
  -1.485196e+02  -5.447433e+02
   2.650311e+02  -2.054291e+02
   2.382998e+02   3.835730e+02
   2.992967e+01   4.860521e+02
  -3.272339e+02   1.083352e+02
  -2.562925e+02  -3.397471e+02
   3.506695e+01  -5.251934e+02
   3.619230e+02  -2.531040e+02
   3.108936e+02   1.187869e+02
   1.249231e+02   2.837295e+02
  -1.116303e+02   2.217494e+02
  -1.033805e+02   7.915117e+01
   8.044294e+01   1.605204e+01
   2.327895e+02   1.185083e+02
   1.006146e+02   2.257141e+02
  -2.459469e+02   2.382731e+02
  -5.167954e+02   2.770204e+01
  -2.962652e+02  -2.184795e+02
   2.521120e+02  -2.717782e+02
   4.489251e+02  -6.879210e+00
   2.049168e+02   2.497295e+02
  -1.560724e+02   3.441232e+02
  -3.157062e+02   1.680732e+02
  -3.218192e+02  -8.920916e+01
  -1.107547e+02  -2.327495e+02
   1.869250e+01  -1.909750e+02
   4.864532e+01   6.534886e+01
  -3.973298e+01   2.102213e+02
  -2.112398e+02  -2.643191e+00
  -1.640513e+02  -4.258610e+02
   1.274044e+02  -3.959025e+02
   2.552055e+02  -7.304065e+01
   1.710545e+02   2.555601e+02
  -8.386510e+01   1.643558e+02
  -1.873374e+02  -1.592403e+02
   4.456888e+01  -3.194215e+02
   3.401706e+02  -1.140026e+02
   4.140264e+02   2.222505e+02
   1.642959e+02   3.959719e+02
  -2.292498e+02   2.787272e+02
  -4.044630e+02  -1.480998e+01
  -2.838786e+02  -1.821972e+02
   4.046501e+01  -1.930365e+02
   2.036015e+02  -1.103042e+02
   1.494020e+02   3.419535e+01
  -4.595154e+01   3.712273e+01
  -6.430055e+01  -4.382122e+01
   6.725965e+01  -1.000135e+02
   2.116758e+02   8.829902e+00
   1.163346e+02   1.344971e+02
  -8.300282e+01   2.055273e+02
  -2.432407e+02   1.314596e+02
  -1.539699e+02  -6.962449e+01
  -2.509789e+01  -2.279368e+02
   1.564213e+02  -2.878150e+02
   2.484606e+02  -2.174407e+02
   1.939989e+02   8.903678e+01
   8.256315e+01   2.985914e+02
  -1.397301e+01   2.384277e+02
  -6.097202e+01   1.360837e+02
  -1.015295e+01   3.236263e+01
  -7.698616e+01   7.488587e+01
  -1.568137e+02   1.070305e+02
  -2.026356e+02  -6.126352e+01
  -1.010863e+02  -1.681706e+02
   7.211026e+01  -1.581088e+02
   1.257506e+02  -2.854117e+01
   1.269169e+02   1.900485e+02
   9.356763e+00   2.008873e+02
  -1.909212e+02   7.851787e+01
  -2.791015e+02  -9.496322e+01
  -1.762413e+02  -2.219265e+02
  -1.551874e+01  -2.276995e+02
   1.510020e+02  -1.526558e+02
   1.175533e+02  -4.091508e+01
   1.146780e+02  -6.386046e+01
   2.289336e+02  -7.057290e+01
   3.192577e+02   2.483965e+01
   2.450320e+02   1.817912e+02
   3.229339e+01   3.370480e+02
  -2.168124e+02   3.312225e+02
  -2.826610e+02   2.008852e+02
  -2.086475e+02  -2.668759e+01
  -9.661590e+01  -1.839928e+02
   2.743054e+01  -1.602528e+02
   1.396544e+00  -2.051741e+01
  -8.761931e+01   5.362929e+01
  -1.337428e+02   1.052470e+01
  -5.528910e+01  -1.148191e+02
   9.153297e+01  -1.110037e+02
   8.966890e+01   4.244947e+01
  -8.736888e+00   1.444745e+02
  -1.348780e+02   1.903904e+01
  -1.663971e+02  -1.679296e+02
  -1.322073e+01  -2.676180e+02
   1.617350e+02  -2.022535e+02
   2.735667e+02   1.392832e-01
   2.266302e+02   1.750731e+02
   4.481779e+01   2.046766e+02
  -6.051523e+01   9.281686e+01
  -1.003894e+02   4.703448e+01
  -2.099100e+01  -2.427240e+01
   4.376370e+01   4.729432e+01
   3.909571e+01   7.549737e+01
  -5.690915e+01   8.509866e+01
  -1.060419e+02  -1.890024e-02
  -2.071674e+01  -4.619614e+01
   4.905048e+01  -9.378198e+00
   3.995775e+01   5.298873e+01
  -1.010226e+02   9.538265e+01
  -2.511070e+02   2.173340e+01
  -2.118743e+02  -1.018879e+02
  -3.255312e+01  -1.548066e+02
   1.537200e+02  -1.790582e+02
   1.831099e+02  -1.466926e+02
   1.121188e+02  -1.376258e+01
  -1.146120e-01   8.932201e+01
  -3.719269e+01  -1.549675e+01
   1.914308e+01  -6.687545e+01
   1.418279e+02  -5.368686e+01
   1.497133e+02   3.894908e+01
   5.713835e+01   1.105596e+02
  -6.934548e+01   1.189583e+02
  -1.182957e+02   6.712975e+01
  -6.340332e+01  -1.663081e+01
   1.672436e+01   1.742560e+00
   5.003685e+01   6.764144e+01
  -5.343565e+01   1.254533e+02
  -1.635937e+02   4.115114e+01
  -1.441552e+02  -4.755430e+01
  -3.796466e+01  -1.507492e+02
   7.765838e+01  -1.318487e+02
   1.417420e+02  -4.444183e+01
   4.596855e+01   6.834751e+01
  -2.435726e+01   8.608592e+01
  -4.239617e+01   2.722429e+01
   1.904030e+01   2.069198e+00
   1.322915e+01  -2.162867e+01
  -2.965133e+00  -1.866425e+01
  -6.981687e+01  -2.611296e+00
  -5.687655e+01  -1.107369e+01
  -2.123939e+01  -7.871689e+01
   7.526713e+01  -1.163865e+02
   1.355861e+02  -4.919791e+01
   1.395716e+02   7.799567e+01
   7.456102e+01   1.336069e+02
  -6.291688e+01   1.447527e+02
  -1.047944e+02   4.477205e+01
  -7.027848e+01  -1.588453e+01
  -4.462925e+01   9.258397e+00
  -4.007052e+01   2.016899e+01
  -6.211773e+01   2.702431e+01
  -5.491664e+01  -3.336138e+01
   2.500279e+01  -6.774659e+01
   7.493688e+01  -7.166993e+01
   5.836408e+01   1.786471e+01
  -5.959256e+00   9.200977e+01
  -1.040000e+02   8.656441e+01
  -1.847732e+02  -8.791415e+00
  -8.728494e+01  -1.276953e+02
   3.531674e+01  -1.888227e+02
   1.682704e+02  -1.157994e+02
   2.036249e+02   1.014716e+01
   1.245669e+02   1.259545e+02
  -1.142043e+01   1.011625e+02
  -5.810463e+01   1.008157e+02
  -6.564603e+01   3.595519e+01
  -2.541275e+01   6.680757e+01
  -5.176248e+01   4.463366e+01
  -7.972522e+01   1.624460e+01
  -9.087749e+01  -8.595874e+01
  -4.314469e+01  -1.790863e+02
   5.211050e+01  -1.138311e+02
   1.098245e+02  -1.399745e+01
   1.250998e+02   1.071047e+02
   3.594578e+01   1.330434e+02
  -4.856921e+01   7.363624e+01
  -4.055446e+01   2.284330e+01
  -3.285958e+01  -3.597574e+01
  -1.021050e+01  -3.024888e+01
  -2.835340e+01  -2.211123e+01
  -4.785759e+01   2.214270e+01
  -2.905506e+01  -3.569039e+01
   4.872789e+01  -2.595688e+01
   1.039928e+02  -6.500768e+01
   9.150499e+01   3.261564e+01
   1.988945e+01   1.127812e+02
  -8.617651e+01   8.160930e+01
  -1.160883e+02   3.004320e+01
  -2.895353e+01  -4.710496e+01
   5.348793e+01  -2.758217e+01
   3.307344e+01   2.937219e+01
   1.170036e+01   7.097873e+01
  -3.737222e+01   2.678165e+01
  -6.684850e+01   4.611402e+00
  -3.104333e+01  -4.442270e+01
  -4.784710e+01  -2.731159e+01
  -4.131423e+01  -5.431130e+00
  -4.655071e+01  -1.616859e+01
  -2.784571e+01  -5.399113e+01
   1.962643e+01  -1.437590e+02
   9.931640e+01  -9.573599e+01
   1.430363e+02  -5.405603e+01
   1.025105e+02   7.922870e+01
  -5.633358e-01   8.811267e+01
  -5.042353e+01   2.457988e+01
  -4.196804e+01   3.041046e+01
   3.955475e+01  -3.971725e+01
   7.886538e+01   2.012334e+01
   6.512730e+01   7.873146e+01
  -2.439536e+01   8.790417e+01
  -1.562246e+02   6.240553e+01
  -9.009906e+01  -7.196260e+00
  -2.638608e+01  -7.103672e+01
   5.591305e+01  -5.373587e+01
   6.210010e+01   1.562903e+01
  -1.792479e+01   2.194344e+01
  -9.535579e+01   1.692366e+01
  -2.190387e+01  -5.723942e+01
   3.140237e+01  -1.227559e+02
   1.121090e+02  -4.387487e+01
   1.315133e+02   4.776767e+01
   5.950051e+01   1.358462e+02
  -1.822161e+01   1.274167e+02
  -6.671570e+01   1.081374e+01
  -3.637542e+01  -7.834634e+01
  -3.364642e+01  -7.582763e+01
   2.882045e+01  -1.307639e+01
   2.137078e+01  -1.693259e+01
   1.276555e+01   4.585463e+00
   2.624366e+01  -1.736491e+01
   6.279709e+00  -4.663294e+00
   4.106570e+00   7.236030e+01
   2.765219e+01   3.412399e+01
  -4.410142e+00   3.790541e+01
  -1.038524e+02   1.720706e+01
  -1.088696e+02  -3.916102e+01
  -1.786944e+01  -5.153274e+01
   4.548523e+01  -2.809027e+01
   5.398207e+01  -2.908253e+01
   3.557652e+01   1.393127e+01
   1.160281e+01   1.666635e+01
  -7.871097e+00   2.764929e+01
  -1.864908e+01   9.114783e+00
   8.014786e+00  -6.050589e-01
  -4.463905e+01  -3.116328e+01
  -4.038707e+01  -2.008550e+01
  -2.087553e+01  -4.197228e+01
   5.357094e+01  -8.404375e+01
   8.283755e+01  -7.215319e+01
   9.716336e+01   4.970071e+01
   3.126798e+01   1.295646e+02
  -8.816421e+01   1.454932e+02
  -1.040231e+02   3.466277e+01
  -6.363429e+01  -1.315505e+01
  -9.192830e+00  -1.734993e+01
   6.527178e+00   1.926032e+01
  -1.083865e+01   3.315582e+01
  -4.080840e+01  -2.556715e+01
  -4.492838e+01  -3.885523e+01
   1.524845e+01  -7.233433e+01
   7.103443e+01   1.242983e+01
   7.289464e+01   5.231228e+01
   3.494239e+01   9.823207e+01
  -7.507914e+01   4.026444e+01
  -6.455326e+01  -1.925237e+01
  -8.055441e+01  -6.783529e+01
   3.700856e+01  -4.962056e+01
   8.546035e+01   1.755012e+01
   3.416118e+01   3.280427e+01
   8.314924e+00   5.261933e+01
  -1.520545e+01   3.186006e+01
   1.669294e+01  -2.934671e+01
   4.247963e+01  -1.515906e+01
   1.307001e+01   3.901787e+01
  -6.402068e+01   5.450294e+01
  -6.303105e+01   6.228265e+01
  -5.868815e+01  -3.542862e+00
  -2.195184e+01  -4.367088e+01
   6.662756e+00  -8.750280e+01
   3.988637e+01  -2.541172e+00
   1.136136e+00   9.598360e+00
  -3.108481e+01   5.711757e+01
   8.714556e+00  -8.133918e+00
  -3.237473e+01  -3.481652e+01
   4.930231e-01  -2.683433e+00
   4.020954e+01  -6.532055e+00
   4.645199e+01   2.169925e+01
   6.363085e+01   8.580449e+00
   1.954495e+01   9.656591e+00
   5.092063e+00  -1.975983e+01
   1.778018e+00   2.298707e+01
   1.080473e+01   2.497774e+01
   1.059809e+01  -9.191331e+00
  -5.460723e+01  -2.177712e+01
   6.053670e+00  -5.637763e+01
   5.002463e+01   1.302542e+01
   3.629518e+01   1.573383e+01
   3.001126e+01   3.494152e+01
  -2.796682e+01   6.509224e+01
  -8.786340e+01   5.243317e+00
  -4.939710e+00  -4.243076e+01
   4.446373e+01  -3.893594e+01
   5.694209e+01  -6.465091e+01
   1.586011e+01   1.156905e+01
   1.225700e+01   1.903477e+01
  -2.259818e+01  -4.526059e+00
   1.286575e+01  -3.099251e+01
   4.362246e+01  -5.393647e+01
