
 $NMID
 id='ANONYMOUS ', fmtdat='(2E16.6)'
 volume=1.0
 tramp=1.0
 $END
  -4.004304e+03   3.488929e+02
  -2.606916e+03  -2.208803e+03
   5.091690e+02  -2.531412e+03
   1.865971e+03  -1.199557e+03
   1.248554e+03   3.980108e+02
  -3.635604e+02   6.116159e+02
  -8.273169e+02  -2.439838e+02
  -2.404096e+02  -1.037299e+03
   7.610586e+02  -8.235996e+02
   9.793733e+02  -4.529931e+01
   5.476205e+02   8.393508e+02
  -1.402501e+02   8.873948e+02
  -5.482817e+02   1.899075e+02
  -3.817487e+02  -6.280983e+02
   2.250003e+02  -7.080419e+02
   6.091624e+02  -5.184779e+01
   3.365760e+02   7.133838e+02
  -2.871209e+02   7.567995e+02
  -6.718807e+02   1.943922e+02
  -5.028927e+02  -3.439226e+02
  -4.026340e+01  -4.844352e+02
   2.589669e+02  -2.744017e+02
   2.667940e+02  -8.618599e+01
  -1.045157e+02   2.713304e+01
  -3.979202e+02  -1.950685e+02
  -1.745995e+02  -4.121988e+02
   3.935338e+02  -3.428065e+02
   7.831364e+02   7.114012e+01
   3.814572e+02   4.625576e+02
  -4.019355e+02   4.333214e+02
  -7.050636e+02  -8.066275e+01
  -3.219635e+02  -4.675381e+02
   3.193215e+02  -5.092637e+02
   5.808271e+02  -1.533745e+02
   4.258862e+02   2.640778e+02
   6.697368e+01   4.492927e+02
  -8.968848e+01   2.631838e+02
  -1.234654e+02  -2.053919e+02
   1.413594e+02  -3.542837e+02
   3.027688e+02   4.953538e+01
   1.517706e+02   5.916197e+02
  -2.817083e+02   6.264969e+02
  -5.092519e+02   3.091209e+01
  -3.077574e+02  -4.446528e+02
   2.222977e+02  -2.980359e+02
   3.112840e+02   2.866649e+02
  -6.471179e+01   5.069695e+02
  -5.438249e+02   1.152645e+02
  -6.111512e+02  -4.561421e+02
  -1.794826e+02  -6.067446e+02
   3.677603e+02  -3.883142e+02
   6.506393e+02   5.500612e+01
   3.810607e+02   3.432329e+02
  -1.238098e+02   3.700433e+02
  -4.263464e+02   1.223298e+02
  -2.639154e+02  -1.538856e+02
   2.718369e+01  -1.344261e+02
   1.712866e+02   1.629194e+02
  -1.355212e+02   1.645456e+02
  -3.128577e+02  -5.009802e+01
  -1.599411e+02  -2.677282e+02
   1.986790e+02  -3.113773e+02
   3.669469e+02  -9.049300e+01
   2.304491e+02   7.934928e+01
  -4.154161e+01   3.210766e+02
  -3.057784e+02   3.872231e+02
  -3.874773e+02   1.952272e+02
  -2.914061e+02  -1.575676e+02
  -9.145333e+01  -4.679598e+02
   1.092383e+02  -3.474369e+02
   6.635672e+01  -1.384520e+02
   5.640035e+01  -2.844150e+01
   5.405121e+01  -1.015810e+02
   2.129669e+02  -1.117383e+02
   2.711795e+02   7.908065e+01
   1.411046e+02   2.741176e+02
  -7.944475e+01   2.812174e+02
  -2.280019e+02  -1.375771e+01
  -2.055874e+02  -2.955332e+02
   1.544641e+01  -3.186123e+02
   2.793573e+02  -1.065714e+02
   3.825256e+02   1.823270e+02
   1.788880e+02   3.669006e+02
  -9.101287e+01   3.247652e+02
  -2.573647e+02   1.195674e+02
  -1.499411e+02   2.100281e+01
  -1.117985e+02   5.986261e+01
  -2.402171e+02   4.906331e+01
  -4.219500e+02  -6.822734e+01
  -2.983162e+02  -3.169879e+02
  -4.471398e+01  -4.537638e+02
   4.073448e+02  -3.748820e+02
   5.620002e+02  -2.025269e+02
   3.431020e+02   9.503806e+01
   2.293334e+00   3.031700e+02
  -1.256836e+02   2.581096e+02
  -5.494681e+01   1.071780e+01
   7.754460e+01  -6.779861e+01
   1.721846e+02   1.916662e+00
   3.608635e+01   1.486293e+02
  -1.143842e+02   1.776202e+02
  -1.644606e+02  -1.768565e+01
  -2.076802e+01  -1.845443e+02
   1.778097e+02  -5.178914e+01
   1.976486e+02   2.329618e+02
   3.299910e+01   3.555398e+02
  -2.567004e+02   2.006889e+02
  -3.451829e+02  -9.602151e+01
  -2.890526e+02  -2.862594e+02
  -8.448556e+01  -3.050392e+02
   1.300079e+02  -1.204940e+02
   1.833202e+02   1.926160e+01
   5.702335e+01   5.637380e+01
  -8.094856e+01  -5.003016e+01
  -6.977140e+00  -1.335837e+02
   1.371119e+02  -7.768001e+01
   2.225908e+02   2.201465e+01
   4.821306e+01   6.368309e+01
  -1.041943e+02  -1.338106e+01
  -5.613023e+01  -7.558894e+01
   1.564228e+02  -8.116088e+01
   2.890296e+02   4.690837e+01
   2.569411e+02   1.845161e+02
   3.187449e+01   2.786796e+02
  -2.106054e+02   2.594703e+02
  -2.771480e+02   1.005238e+02
  -1.657374e+02  -7.304824e+01
   2.774580e+01  -1.072643e+02
   8.988660e+01   1.814042e+01
  -4.840722e+01   1.051530e+02
  -2.091621e+02   6.280043e+01
  -2.575522e+02  -1.419244e+02
  -4.733531e+01  -2.317077e+02
   8.875730e+01  -1.348786e+02
   1.470564e+02  -4.020151e+01
   4.522522e+01   3.250586e+01
  -2.537606e+01  -1.642677e+01
  -6.894689e+01  -1.194099e+02
   9.857641e+01  -1.267029e+02
   2.469207e+02  -4.020504e+01
   1.984011e+02   1.395701e+02
   7.518769e+00   2.457802e+02
  -1.530779e+02   1.722344e+02
  -1.988636e+02  -1.812740e+01
  -6.962586e+01  -1.381907e+02
   8.499461e+01  -1.258634e+02
   1.042046e+02  -4.311535e+01
   1.426589e+01   1.393920e+01
  -1.376772e+01   1.944639e+01
  -1.990200e+01  -3.213284e+01
   8.788208e+01   1.020454e+01
   1.147580e+02   1.186355e+02
  -3.610782e+01   1.966196e+02
  -1.571537e+02   2.180832e+02
  -2.444701e+02   9.413588e-01
  -2.115717e+02  -1.644882e+02
  -2.198465e+01  -3.022723e+02
   1.124741e+02  -1.985620e+02
   1.570963e+02  -1.347859e+01
   8.876363e+01   8.226109e+01
   2.781003e+00   6.335633e+01
   6.379918e+01  -3.719653e+01
   6.395306e+01   1.765340e+01
   4.439725e+01   3.887645e+01
  -4.839055e+01   9.502269e+01
  -1.153110e+02   8.299682e+01
  -9.567210e+01  -6.435386e+01
  -1.907605e+01  -1.343970e+02
   1.417130e+02  -1.106196e+02
   1.973667e+02   7.338094e+01
   1.011904e+02   2.148428e+02
  -1.235249e+02   2.395204e+02
  -2.832802e+02   1.145870e+02
  -2.906493e+02  -9.803376e+01
  -1.143762e+02  -1.979158e+02
   3.815509e+01  -1.792252e+02
   9.887140e+01  -6.470159e+01
   1.216368e+02  -7.590243e+01
   8.554320e+01  -7.181256e+01
   6.412237e+01  -7.809314e+01
   1.212503e+02   2.984624e+01
   1.106500e+02   1.641263e+02
   2.993605e+01   2.074421e+02
  -1.160832e+02   1.561706e+02
  -1.898393e+02   9.686061e+00
  -1.527149e+02  -1.370278e+02
  -1.394909e+01  -1.647873e+02
   7.789898e+01  -8.565097e+01
   8.523270e+01   3.018464e+01
   7.441171e+00   5.933334e+01
  -3.106864e+01   3.527274e+01
   1.603592e+01   3.018593e+01
   5.670536e+01   8.703500e+00
   5.569795e+01   2.851923e+01
  -7.758641e+01   8.509455e+00
  -1.400299e+02   1.667170e+01
  -1.402124e+02  -7.369572e+01
   6.471757e-02  -1.012666e+02
   1.292857e+02  -7.579520e+01
   1.520119e+02  -2.997036e+01
   4.980599e+01   5.440007e+01
  -7.686943e+01   6.593215e+01
  -9.572583e+01  -3.493050e+00
  -1.622306e+01  -6.770071e+01
   6.417300e+01  -8.776495e+01
   5.016990e+01  -2.143027e+01
   7.631473e+01   7.094102e+01
   2.945979e+01   2.105136e+01
   8.496143e+01  -1.269573e+01
   7.178291e+01   6.925286e+00
   2.612751e+01   6.764056e+01
  -1.105635e+01   1.595044e+02
  -1.165234e+02   1.604928e+02
  -1.693832e+02   2.340895e+01
  -1.535451e+02  -9.956843e+01
   2.243295e+01  -1.643755e+02
   9.946197e+01  -6.847357e+01
   1.016186e+02   2.956413e+01
  -5.108993e+01   2.378218e+01
  -1.327590e+02  -5.519063e+01
  -7.355487e+01  -1.102101e+02
   8.286578e+01  -1.143318e+02
   1.682278e+02  -7.047732e+01
   1.626076e+02   4.281310e+01
   5.288620e+01   9.089478e+01
  -8.001454e+01   6.018670e+01
  -4.982372e+01  -1.577451e+01
   6.122536e+01  -4.784368e+01
   1.153338e+02   3.190941e+01
   2.534743e+01   1.562600e+02
  -9.754247e+01   1.796615e+02
  -1.648334e+02   8.580633e+01
  -1.173143e+02  -8.705332e+01
  -3.332702e+00  -1.984471e+02
   8.220815e+01  -1.611193e+02
   1.109284e+02   7.334933e+00
   4.085523e+01   1.212742e+02
  -1.214858e+01   1.009407e+02
  -8.347180e+01   1.883081e+01
  -6.712957e+01  -5.876768e+01
  -2.667475e+01  -1.821288e+01
   2.335594e+01   9.038372e+00
  -3.392389e+01  -9.025640e+00
  -5.663897e+01  -8.578124e+01
  -2.018343e+01  -1.226088e+02
   5.481521e+01  -3.716278e+01
   1.232007e+02   4.862679e+01
   1.100597e+02   6.733842e+01
  -1.408521e+01   7.682099e+01
  -7.747485e+01   2.971256e+01
  -9.721647e+01  -2.483406e+01
  -1.358961e+01   7.081140e+00
   2.066967e+01   1.016498e+01
   3.428358e+01  -7.110023e+00
  -2.165252e+01   1.754910e+01
  -6.919674e+00   1.550023e+00
   8.474425e+01   6.002659e+00
   1.001004e+02   3.455634e+01
   6.202339e+00   7.846389e+01
  -1.331567e+02   1.120481e+02
  -2.166349e+02   4.252916e+01
  -1.574072e+02  -4.536109e+01
  -3.540491e+01  -1.665180e+02
   1.162003e+02  -1.620410e+02
   1.079156e+02  -6.367022e+01
   8.454579e+01   4.577972e+01
   1.813412e+01   8.138679e+01
  -2.960211e+01   2.208066e+01
   2.219380e+01   2.042679e+01
   1.576585e+01   4.415660e+01
   2.423389e+01   9.425245e+01
  -1.576726e+01   6.768396e+01
  -9.676203e+01  -2.564400e+01
  -9.467268e+01  -1.050003e+02
   3.554467e+00  -1.288238e+02
   9.910717e+01  -7.987724e+00
   1.201070e+02   8.567237e+01
   2.171040e+01   1.208463e+02
  -3.024954e+01   7.370865e+01
  -1.078912e+02  -6.357728e+00
  -1.623027e+01  -6.681112e+01
   3.717558e+01  -5.816372e+01
   1.524480e+01  -3.955790e+01
  -2.528741e+01   2.473196e+01
  -7.149131e+01  -2.219345e+00
  -1.670140e+01  -1.713675e+01
   8.963713e+01  -6.490755e+01
   1.219499e+02  -4.793642e+01
   7.613039e+01   4.267529e+01
  -2.481179e+01   1.087326e+02
  -8.217027e+01   6.723426e+01
  -7.661629e+01   1.990859e+01
  -1.128566e+01  -4.499431e+01
   9.408298e+00  -4.633577e+01
   3.126660e+01   1.456854e+01
   1.626620e+01   5.451681e+01
  -1.579961e+01   6.853662e+01
  -3.099436e+01  -4.104088e-02
  -6.146043e+01  -3.917117e+01
   5.474610e+00  -1.080802e+01
   2.800091e+01   2.042550e+00
  -7.409744e+00  -2.214162e+01
   1.308206e+01  -3.104869e+01
   2.623866e+01  -4.833123e+01
   6.347767e+01  -4.301719e+01
   2.443740e+01   3.522412e+01
   3.800212e+01   5.382150e+01
  -3.272962e+01   3.888328e+01
  -5.535388e+01  -3.904152e+01
  -1.714004e+01  -8.347745e+01
   6.593819e+01  -2.141546e+01
   8.397480e+01   3.355449e+01
   6.425214e+01   3.431968e+01
  -2.837303e+01   4.264199e+01
  -5.964676e+01   2.966214e+01
  -9.003239e+00   3.466317e+01
   2.807992e+01   8.932404e+00
   1.572218e+01   1.404959e+01
  -1.074667e+01   1.433279e+01
  -6.444213e+01   3.211388e+01
