
 $NMID
 id='ANONYMOUS ', fmtdat='(2E16.6)'
 volume=1.0
 tramp=1.0
 $END
  -3.523350e+03   3.707630e+02
  -2.275243e+03  -1.805170e+03
   3.151635e+02  -2.256459e+03
   1.491972e+03  -1.124187e+03
   8.180331e+02   1.042970e+02
  -2.635386e+02   2.890459e+02
  -4.693416e+02  -2.306372e+02
  -2.418320e+01  -6.873894e+02
   5.136630e+02  -5.469928e+02
   7.108626e+02  -4.389224e+01
   3.814594e+02   5.796116e+02
  -2.882350e+01   6.664201e+02
  -3.187974e+02   1.336057e+02
  -2.424045e+02  -4.953619e+02
   8.448360e+01  -5.845401e+02
   4.079272e+02  -1.779197e+01
   2.926864e+02   4.801968e+02
  -1.500980e+02   5.430246e+02
  -3.791914e+02   2.356801e+02
  -3.666182e+02  -1.546700e+02
  -7.605999e+01  -3.350498e+02
   1.508988e+02  -2.967357e+02
   9.498037e+01  -2.971392e+01
  -9.658082e+01   1.228463e+00
  -3.139934e+02  -1.689291e+02
  -1.201057e+02  -3.327618e+02
   3.924222e+02  -2.915322e+02
   6.404148e+02   9.529366e+01
   3.320109e+02   3.642311e+02
  -2.998725e+02   2.943691e+02
  -5.667396e+02  -5.912235e+01
  -2.513127e+02  -3.664463e+02
   1.949113e+02  -4.032125e+02
   4.449947e+02  -1.895935e+02
   3.766823e+02   1.416437e+02
   8.073836e+01   3.310651e+02
  -8.241714e+01   2.545502e+02
  -9.615952e+01  -1.207556e+02
   1.571877e+02  -2.560463e+02
   2.790116e+02   3.192864e+01
   1.612488e+02   4.968703e+02
  -2.261317e+02   5.944796e+02
  -4.169546e+02   3.135227e+01
  -1.989012e+02  -4.142458e+02
   2.280447e+02  -2.358356e+02
   2.319249e+02   2.594576e+02
  -4.052819e+01   4.335313e+02
  -4.563936e+02   1.286206e+02
  -4.869245e+02  -3.093216e+02
  -1.584423e+02  -5.216678e+02
   3.156046e+02  -3.183032e+02
   5.829519e+02   4.811629e+01
   3.270691e+02   2.966305e+02
  -9.220813e+01   2.655005e+02
  -3.511154e+02   7.480053e+01
  -1.905543e+02  -6.789649e+01
   6.415576e+01  -1.079829e+01
   1.042262e+02   9.665075e+01
  -1.204582e+02   1.182678e+02
  -2.494333e+02  -3.762397e+01
  -9.358703e+01  -1.950482e+02
   1.183441e+02  -2.274908e+02
   3.510070e+02  -1.409386e+02
   2.385644e+02   6.134469e+01
   3.335511e+01   2.618339e+02
  -1.635982e+02   3.328434e+02
  -3.150221e+02   2.136948e+02
  -2.321156e+02  -1.209875e+02
  -7.136903e+01  -3.607054e+02
   6.676095e+01  -3.175180e+02
   7.019567e+01  -1.652704e+02
   7.406709e-01  -1.435597e+01
   1.037454e+02  -1.280887e+02
   2.083992e+02  -1.116901e+02
   2.398665e+02   1.122153e+02
   1.154888e+02   2.276400e+02
  -8.511958e+01   2.200649e+02
  -1.879794e+02   6.477607e+00
  -1.954291e+02  -2.354442e+02
   2.436139e+01  -2.645198e+02
   2.245162e+02  -1.355313e+02
   3.258122e+02   1.653356e+02
   1.648829e+02   2.791298e+02
   1.094059e+01   3.058273e+02
  -2.028101e+02   1.316899e+02
  -1.246434e+02   3.174221e+01
  -1.024764e+02   7.935197e+01
  -2.387341e+02   4.456228e+01
  -3.678261e+02  -6.269984e+01
  -3.208017e+02  -2.761096e+02
   5.135706e+01  -4.424706e+02
   3.266229e+02  -4.316568e+02
   4.138741e+02  -2.329655e+02
   2.609606e+02   8.129659e+01
   5.540849e+01   3.045189e+02
  -6.495353e+01   2.201333e+02
  -5.459692e+01   5.246262e+01
   8.580371e+01  -6.157236e+01
   1.899170e+02   5.875871e+00
   1.708362e+01   1.600403e+02
  -1.382759e+02   1.381618e+02
  -1.185347e+02  -6.141152e+01
  -1.233088e+00  -1.480561e+02
   1.639642e+02  -3.434886e+01
   1.782433e+02   1.868735e+02
  -6.496786e+00   3.438679e+02
  -2.124005e+02   1.825230e+02
  -3.081939e+02  -4.558917e+01
  -2.629465e+02  -2.217496e+02
  -9.270578e+01  -2.199641e+02
   1.076387e+02  -1.363968e+02
   1.519606e+02  -2.613266e+01
   4.673839e+01  -3.322301e-01
  -3.824791e+01  -4.694712e+01
  -1.022790e+01  -1.023314e+02
   1.042350e+02  -7.553523e+01
   1.436351e+02   3.064898e+01
   2.996384e+01   4.036429e+01
  -8.836183e+01   3.079464e+01
  -3.476096e+01  -1.037858e+02
   8.584629e+01  -9.918446e+01
   2.674825e+02  -3.835594e+00
   2.536703e+02   1.341000e+02
   5.130592e+01   2.674815e+02
  -1.665442e+02   2.103291e+02
  -2.202440e+02   1.161067e+02
  -1.380798e+02  -4.031296e+01
   1.693062e+01  -1.043154e+02
   7.568716e+01  -6.848489e+00
  -2.080466e+01   8.122269e+01
  -2.141119e+02   4.810813e+01
  -1.819753e+02  -7.982238e+01
  -7.780368e+01  -1.839371e+02
   8.548912e+01  -1.332587e+02
   1.526206e+02  -2.730568e+01
   4.271278e+01   2.569803e+01
  -3.082920e+01  -1.563060e+01
  -4.562667e+01  -1.085008e+02
   9.852340e+01  -1.113554e+02
   2.001629e+02  -1.678663e+01
   1.824956e+02   1.566131e+02
   2.521098e+01   1.943830e+02
  -1.456680e+02   1.609971e+02
  -1.698397e+02  -1.257518e+00
  -5.663521e+01  -1.198664e+02
   3.956569e+01  -8.205287e+01
   5.563979e+01  -8.479914e+00
   3.163169e+01   1.253898e+01
  -8.577402e+00   1.247706e+01
   1.058575e+01  -4.456623e+01
   4.678160e+01   2.064238e+01
   7.305962e+01   6.774155e+01
   4.395976e+01   1.437619e+02
  -1.143785e+02   1.737369e+02
  -2.326192e+02   1.780348e+01
  -2.041330e+02  -1.255225e+02
  -4.383323e+01  -2.098424e+02
   8.692717e+01  -1.722732e+02
   1.388758e+02  -1.657813e+01
   7.775998e+01   1.888706e+01
   1.600801e+01   1.270596e+01
   6.756331e+01  -1.779526e+01
   9.551914e+01   1.512172e+01
   3.355994e+01   5.273153e+01
  -4.375632e+01   7.431973e+01
  -1.112878e+02   7.221003e+01
  -1.147666e+02  -1.747141e+01
   1.643895e+01  -1.232087e+02
   1.207051e+02  -7.691154e+01
   1.762744e+02   4.505654e+01
   7.473539e+01   1.690307e+02
  -1.162552e+02   2.166480e+02
  -2.426409e+02   9.428267e+01
  -2.390702e+02  -8.344636e+01
  -1.044510e+02  -1.878880e+02
   5.439710e+00  -1.575052e+02
   6.935395e+01  -1.029050e+02
   5.852273e+01  -5.604072e+01
   5.507981e+01  -1.123748e+02
   5.691378e+01  -7.835614e+01
   9.106551e+01   1.325688e+01
   1.335100e+02   1.194991e+02
   2.044855e+01   2.009874e+02
  -6.746515e+01   2.053463e+02
  -1.455665e+02   5.527755e+01
  -1.575978e+02  -1.286575e+02
  -5.626083e+00  -1.481233e+02
   7.107620e+01  -8.339677e+01
   7.756965e+01  -1.802953e+00
  -1.563595e+01   2.909075e+01
  -4.392074e+01   4.296275e+01
   3.167894e+01  -2.675234e+00
   9.850266e+01   5.037599e+01
   2.407740e+01   3.676946e+01
  -6.086966e+01   3.921250e+01
  -1.368195e+02   4.748004e+01
  -1.238377e+02  -3.358264e+01
  -1.561870e+01  -8.678199e+01
   1.195055e+02  -3.858161e+01
   1.443108e+02  -2.309289e+01
   1.768941e+01   5.905644e+01
  -6.064996e+01   2.955186e+01
  -7.856812e+01   7.328204e-01
  -3.419083e+00  -6.372208e+01
   3.830522e+01  -6.335960e+01
   7.394473e+01   1.105426e+01
   5.368753e+01   3.494701e+01
   4.826223e+01   3.323830e+01
   5.979128e+01   5.998659e+00
   3.548081e+01   3.716568e+00
   2.104222e+01   8.329329e+01
  -1.003857e-01   1.599014e+02
  -1.115703e+02   1.089016e+02
  -1.533357e+02   3.412652e+01
  -1.471896e+02  -1.022419e+02
   4.993123e+00  -1.461829e+02
   8.538789e+01  -6.820955e+01
   7.325328e+01   1.358499e+01
  -4.312353e+01  -9.783559e-01
  -1.013685e+02  -3.104474e+01
  -9.006819e+01  -9.005158e+01
   3.315753e+01  -9.367782e+01
   1.453115e+02  -3.721848e+01
   1.313026e+02   2.809445e+01
   1.445065e+01   7.191877e+01
  -5.885579e+01   6.627638e+01
  -9.940242e+00  -1.533432e+01
   9.828569e+00  -5.914351e+01
   5.989954e+01   2.894472e+01
   4.188698e+01   1.360184e+02
  -7.581826e+01   1.654665e+02
  -1.698852e+02   5.886846e+01
  -1.090685e+02  -8.294935e+01
  -2.980717e+01  -1.715687e+02
   7.125004e+01  -1.380136e+02
   1.323976e+02  -5.927162e+00
   5.277083e+01   8.440568e+01
  -2.722328e-01   1.240801e+02
  -4.533248e+01   3.186931e+01
  -6.302837e+01  -3.561454e+01
   6.357586e+00  -2.934054e+01
  -4.664602e+00   1.080483e+01
  -5.164307e+01  -1.661424e+01
  -6.472715e+01  -9.228765e+01
  -2.110808e+01  -9.076073e+01
   3.933563e+01  -1.493444e+01
   9.367854e+01   1.469476e+01
   1.248596e+02   4.170923e+01
   5.757408e+01   5.668397e+01
  -6.862586e+01   1.314481e+01
  -6.634322e+01   8.717571e+00
  -9.906311e+00   5.358869e+00
   1.840615e+01  -1.041373e+01
   9.341944e+00   6.868532e+00
  -2.166846e+01  -6.847941e-01
  -2.491010e+01   2.011069e+01
   6.420013e+01  -2.503642e+01
   1.000397e+02   1.495111e+01
   2.006273e+01   7.559535e+01
  -8.514435e+01   9.317653e+01
  -1.396479e+02   7.008557e+01
  -1.253254e+02  -6.720803e+01
  -1.615915e+01  -1.390363e+02
   5.901908e+01  -1.433596e+02
   9.898093e+01  -3.793415e+01
   5.941999e+01   7.255908e+00
   3.161036e+01   7.408339e+00
   4.558211e+01   1.544053e+01
   2.739552e+01   6.717865e+00
   2.709234e+01   7.552613e+01
   4.182200e+01   7.919329e+01
  -1.120217e+01   7.350791e+01
  -6.882758e+01   1.198343e+01
  -8.406303e+01  -1.051472e+02
  -4.379955e+01  -9.817071e+01
   9.313571e+01  -3.171751e+01
   9.332772e+01   5.955884e+01
   9.386627e+00   1.085177e+02
  -5.017139e+01   5.602015e+01
  -8.106984e+01  -4.296185e+00
  -2.120672e+01  -3.771803e+01
   4.122283e+01  -3.885170e+01
   3.885970e+01  -2.407688e+01
  -1.153340e+01   2.738637e+00
  -6.372965e+01   2.004609e+01
  -1.783456e+01  -2.818183e+01
   4.771889e+01  -8.270847e+01
   1.016030e+02  -7.065390e+01
   5.663478e+01   7.637360e+00
  -1.768226e+01   5.854921e+01
  -5.829061e+01   7.779861e+01
   7.282329e+00   2.066806e+01
  -1.870720e+01  -3.930114e+01
   2.134405e+01  -2.679254e+01
   4.584937e+01   1.730621e+01
   2.820270e+01   4.402364e+01
   1.210365e+01   3.336941e+01
  -3.267846e+01  -1.279480e+01
  -5.144451e+01  -1.740328e+01
  -1.238503e+01   9.915119e+00
  -1.129046e+01  -1.610405e+00
   9.346194e-01   1.003136e+01
   5.365873e+00  -1.179938e+01
   2.819061e+00  -3.588002e+01
   4.238724e+01  -3.141566e+01
   3.509439e+01   4.007635e+01
   3.337020e+01   2.656633e+01
  -2.088720e+01  -5.422135e-01
  -2.642919e+01  -2.469046e+01
   1.525341e+01  -3.601396e+01
   6.409189e+01  -1.937109e+01
   8.077132e+01   5.533430e+01
   5.624933e+01   3.930818e+01
  -1.572097e+01   6.073059e+01
  -7.048332e+01   3.065526e+01
  -3.622509e+01   2.439566e+01
   1.388941e+01   2.843339e+01
   2.811858e+01  -9.260257e-01
  -2.981346e+01   1.643143e+01
  -8.789424e+01   1.502982e+01
