
 $NMID
 id='ANONYMOUS ', fmtdat='(2E16.6)'
 volume=1.0
 tramp=1.0
 $END
   4.075572e+03  -4.060972e+02
   2.786349e+03   2.121054e+03
  -3.692563e+02   2.636463e+03
  -1.843102e+03   1.004304e+03
  -9.854897e+02  -4.759171e+02
   6.646495e+02  -5.071830e+02
   7.367179e+02   3.235528e+02
   6.809576e+01   9.386693e+02
  -7.063568e+02   7.462800e+02
  -8.752542e+02   2.442349e+00
  -4.572565e+02  -7.629068e+02
   1.154416e+02  -8.259738e+02
   5.537048e+02  -1.765782e+02
   2.993978e+02   6.552809e+02
  -1.612636e+02   6.947419e+02
  -5.299130e+02   3.364363e+01
  -2.681621e+02  -6.069684e+02
   2.347172e+02  -6.279643e+02
   5.160988e+02  -2.016580e+02
   3.771572e+02   2.357334e+02
   1.879884e+01   3.690008e+02
  -2.271328e+02   3.045218e+02
  -1.537855e+02   4.289849e+01
   1.131542e+02  -3.756092e+01
   4.076080e+02   1.333259e+02
   1.483357e+02   3.957314e+02
  -4.027598e+02   3.787333e+02
  -7.517460e+02  -7.248592e+01
  -4.253697e+02  -5.043237e+02
   3.217992e+02  -3.634334e+02
   7.253262e+02   2.745480e+01
   3.319088e+02   4.633973e+02
  -2.780063e+02   4.781756e+02
  -5.152874e+02   1.906944e+02
  -4.394489e+02  -2.065095e+02
  -9.631372e+01  -4.322938e+02
   1.738910e+02  -2.344660e+02
   1.083411e+02   1.968520e+02
  -2.067827e+02   3.480529e+02
  -4.416424e+02  -3.911790e+01
  -2.009811e+02  -6.569917e+02
   3.115633e+02  -6.151905e+02
   5.465915e+02  -2.047647e+01
   2.646211e+02   4.980447e+02
  -2.843263e+02   3.151906e+02
  -3.795445e+02  -2.995746e+02
   5.507072e+01  -5.117013e+02
   6.048236e+02  -1.813682e+02
   5.498572e+02   3.576233e+02
   1.814150e+02   5.815825e+02
  -3.096842e+02   3.445374e+02
  -6.266223e+02  -8.659578e+01
  -3.594070e+02  -3.250897e+02
   5.959704e+01  -3.494795e+02
   3.931530e+02  -9.054595e+01
   1.773003e+02   1.414282e+02
  -1.037553e+02   8.508211e+01
  -1.122857e+02  -1.119783e+02
   1.616648e+02  -1.955590e+02
   2.933466e+02   2.367282e+01
   1.491483e+02   2.711414e+02
  -1.618849e+02   2.447769e+02
  -3.781703e+02   1.612603e+02
  -2.738051e+02  -8.673521e+01
  -9.083852e+00  -2.730448e+02
   1.821768e+02  -3.700312e+02
   3.217620e+02  -2.498560e+02
   2.731275e+02   1.006826e+02
   1.108401e+02   4.097799e+02
  -8.862138e+01   3.726497e+02
  -1.179642e+02   1.460770e+02
  -3.078723e+01   1.839753e+01
  -6.597999e+01   9.361187e+01
  -2.035105e+02   1.435607e+02
  -3.061512e+02  -7.081392e+01
  -1.413030e+02  -2.598129e+02
   9.235795e+01  -2.251091e+02
   2.387300e+02  -3.026716e+01
   1.871284e+02   2.233370e+02
   3.135259e+00   3.024293e+02
  -2.615445e+02   1.262948e+02
  -3.749927e+02  -1.178388e+02
  -1.792331e+02  -3.255416e+02
   4.920656e+01  -3.118879e+02
   2.405448e+02  -1.674653e+02
   1.684859e+02  -2.833400e+01
   1.088486e+02  -5.095366e+01
   2.520557e+02  -8.746226e+01
   4.214629e+02   3.999344e+01
   3.370148e+02   3.054832e+02
  -1.868641e+01   4.549898e+02
  -3.526518e+02   4.232996e+02
  -4.627095e+02   1.985727e+02
  -2.909799e+02  -8.600927e+01
  -3.881487e+01  -2.961179e+02
   1.301688e+02  -2.345243e+02
   6.408597e+01   3.644584e+01
  -1.218389e+02   1.110129e+02
  -1.971281e+02   2.385886e+00
  -1.780272e+01  -2.357539e+02
   1.557481e+02  -1.763728e+02
   1.793514e+02   9.862808e+01
  -1.749107e+01   1.961334e+02
  -2.073774e+02   5.386458e+01
  -1.859100e+02  -2.313779e+02
   6.184134e+00  -3.681806e+02
   2.567693e+02  -2.239004e+02
   3.419186e+02   3.199506e+01
   2.796325e+02   2.291199e+02
   6.889575e+01   2.805976e+02
  -8.212807e+01   1.396209e+02
  -1.625761e+02   3.437389e+01
  -5.425760e+01  -2.037532e+01
   7.932713e+01   2.432891e+01
   2.985376e+01   1.299850e+02
  -1.302810e+02   7.169648e+01
  -1.585869e+02  -8.437006e+00
  -1.794523e+01  -4.432574e+01
   1.002697e+02  -3.542722e+01
   5.324301e+01   6.838123e+01
  -8.917473e+01   9.431754e+01
  -3.069921e+02   2.192498e+01
  -2.741779e+02  -1.231236e+02
  -8.571881e+01  -2.398644e+02
   1.789486e+02  -2.800755e+02
   2.707922e+02  -1.282102e+02
   1.545377e+02   4.364300e+01
   2.819864e+01   1.125467e+02
  -8.458299e+01  -4.596751e+00
   3.606578e+01  -8.401853e+01
   2.227980e+02  -7.270820e+01
   1.861559e+02   7.025877e+01
   4.207602e+01   2.200159e+02
  -9.115193e+01   1.650586e+02
  -1.493604e+02   2.018293e+01
  -4.801432e+01  -3.760144e+01
   5.376784e+01   2.343547e+01
   6.511983e+01   8.785683e+01
  -6.241180e+01   1.199996e+02
  -2.502214e+02   1.285829e+00
  -2.111087e+02  -1.219601e+02
  -3.673474e+01  -2.325718e+02
   1.749513e+02  -1.597535e+02
   2.047119e+02  -1.647459e+01
   5.035176e+01   1.197364e+02
  -1.938684e+01   1.145018e+02
  -5.415869e+01   2.148833e+01
  -3.554807e+01  -4.829782e+01
   3.204217e+01  -3.707619e+01
  -3.175393e+01   2.294307e+01
  -8.036914e+01   7.205925e+00
  -1.112226e+02  -8.072477e+01
  -4.589078e+01  -1.875608e+02
   1.286592e+02  -2.007986e+02
   2.841304e+02  -4.609727e+01
   2.130558e+02   1.066568e+02
   1.118723e+01   2.440869e+02
  -1.025760e+02   2.037341e+02
  -1.394512e+02   2.275699e+01
  -8.421356e+01  -3.729578e+01
  -5.367799e+01  -3.145469e+01
  -5.754924e+01   4.563886e+00
  -8.956552e+01   1.304335e+00
  -4.701198e+01  -4.568986e+01
   4.771305e+01  -1.130369e+02
   1.154200e+02  -9.494055e+01
   1.050039e+02   2.642681e+01
  -1.246543e+01   1.066883e+02
  -1.286911e+02   1.061909e+02
  -2.013082e+02  -4.081917e+01
  -1.018948e+02  -2.331663e+02
   1.182138e+02  -2.754012e+02
   2.889079e+02  -1.087219e+02
   2.589020e+02   1.113932e+02
   1.293156e+02   1.915218e+02
  -1.183361e+01   1.684096e+02
  -9.119277e+01   1.175663e+02
  -6.554240e+01   6.063204e+01
  -5.268796e+01   1.105302e+02
  -8.848764e+01   9.464925e+01
  -1.385919e+02  -2.637138e+01
  -1.455219e+02  -1.585404e+02
  -2.578060e+01  -2.168251e+02
   9.759663e+01  -1.778101e+02
   1.725902e+02  -5.655880e+01
   1.674923e+02   1.081765e+02
   3.180525e+01   1.771493e+02
  -6.298525e+01   9.565741e+01
  -3.798430e+01   2.549812e+01
   1.148031e+01  -3.551874e+01
   7.039458e+00  -2.724673e+01
  -5.996357e+01  -2.395926e+01
  -6.845376e+01  -1.602984e+01
  -4.250370e+01  -3.392096e+01
   8.882900e+01  -2.557762e+01
   1.627341e+02  -4.970330e+01
   1.522216e+02   3.935418e+01
   2.785047e+01   7.546431e+01
  -1.134892e+02   9.124596e+01
  -1.208183e+02   2.655532e+01
  -3.630761e+01  -5.021375e+01
   5.619645e+01  -4.015486e+01
   8.740087e+01   3.108467e+00
  -1.185168e-01   6.346370e+01
  -5.163120e+01   5.343089e+01
  -6.639353e+01  -3.138704e+01
  -5.408345e+01  -5.782386e+01
  -2.351098e+01  -3.901734e+01
  -3.203278e+01  -9.689599e-01
  -5.183327e+01  -1.175382e+01
  -5.506487e+00  -3.726904e+01
   4.068077e+00  -1.246302e+02
   1.179951e+02  -1.543983e+02
   1.634035e+02  -5.520566e+01
   1.270497e+02   8.838284e+01
   1.067191e+01   1.156227e+02
  -1.121222e+02   5.243644e+01
  -7.523495e+01  -4.129144e+01
   5.185454e+01  -5.953094e+01
   1.648587e+02   2.691791e+01
   9.151737e+01   9.951498e+01
  -4.692270e+01   1.103931e+02
  -2.119456e+02   5.521236e+01
  -1.630169e+02  -3.823113e+01
  -4.093137e+01  -8.193698e+01
   5.770277e+01  -3.517604e+01
   2.824716e+01   1.116297e+01
  -4.468608e+01   6.022601e+01
  -1.038028e+02  -4.766689e+01
  -3.682701e+01  -1.430843e+02
   1.047952e+02  -1.675696e+02
   1.787646e+02  -6.822832e+01
   1.169325e+02   1.042142e+02
   4.178616e+01   2.212707e+02
  -9.435747e+01   1.358674e+02
  -1.187759e+02   1.937532e+01
  -9.085111e+01  -1.093294e+02
   1.490082e+01  -1.485855e+02
   1.737375e+01  -2.434796e+01
   5.426993e+01   3.930965e+01
   2.221932e+01   2.004348e+01
   1.400184e+01  -7.756369e+00
   1.540100e+01  -1.516247e+01
   8.515097e+01   7.881505e+01
   4.172628e+01   1.154644e+02
  -6.457851e+01   6.055921e+01
  -1.255554e+02  -1.529997e+01
  -1.536477e+02  -4.706731e+01
  -5.700462e+01  -4.545577e+01
   7.035565e+01  -4.135456e+01
   8.704686e+01  -2.959815e+00
   1.053541e+01   2.480208e+01
  -2.330938e+01   7.397986e+00
  -1.655867e+01   5.109923e+00
   1.833523e+01  -4.171535e+00
   3.985316e+01  -1.305844e+01
  -8.458127e+01  -3.277154e+01
  -8.711358e+01  -1.165180e+01
  -2.379640e+01  -7.775971e+01
   7.317938e+01  -1.037277e+02
   1.964402e+02  -6.659561e+01
   1.509558e+02   6.399930e+01
   2.157442e+01   1.520316e+02
  -5.672620e+01   1.581766e+02
  -1.067784e+02   3.416946e+01
  -6.355358e+01  -1.231565e+00
  -8.390249e+01  -7.435084e+00
  -2.139898e+01  -3.391246e+01
  -1.033039e+01   8.250891e+00
  -2.709728e+01  -7.246871e+01
  -2.612832e+00  -1.158858e+02
   1.514493e+01  -6.469972e+01
   7.906277e+01   1.027777e+01
   9.658692e+01   1.330448e+02
   4.123858e+01   1.117905e+02
  -9.937967e+01   3.863588e+01
  -1.342919e+02  -6.908811e+01
  -2.754098e+01  -1.058414e+02
   8.172530e+01  -4.957997e+01
   9.442019e+01  -8.164172e+00
   6.662400e+01   5.515338e+01
  -3.736745e+01   5.513556e+01
  -2.078294e+01   2.575693e+01
   4.019498e+01   2.457949e+01
   8.381259e+01  -1.864080e+01
   1.307887e+01   4.006945e+01
  -8.478325e+01   1.117859e+02
  -1.022587e+02   8.473935e+01
  -5.487475e+01  -4.914178e+01
   1.597916e+01  -9.907761e+01
   5.563407e+01  -9.377566e+01
   3.001617e+01  -1.362379e+01
  -6.021603e+00   5.485840e+01
  -3.347502e+01   3.785196e+01
  -6.091628e+00  -5.720578e+00
  -1.558307e+01  -5.494616e+01
  -2.839225e+01  -5.514758e+01
   3.803267e+01  -8.905789e+00
   4.869922e+01   2.407316e+01
   4.218077e+01   1.276646e+01
   1.518223e+01  -9.641710e+00
  -2.274821e+01   4.663989e+00
  -1.383813e+01   4.263580e+01
  -8.401461e+00   5.707415e+01
  -5.458050e+01  -9.125285e+00
  -5.417472e+01  -5.640980e+01
  -2.190789e+00  -4.219861e+01
   2.496911e+01  -7.413425e+00
   5.153368e+01   4.853575e+01
   7.773886e+00   6.422291e+01
  -5.710809e+01   3.018872e+01
  -7.224787e+01   4.231048e+00
  -6.124606e+01  -5.900376e+01
   1.561346e+01  -2.045510e+01
   5.431183e+01  -5.147315e+01
   3.303950e+01  -1.928924e+01
  -2.484642e+01  -4.387238e-01
  -3.836864e+01  -8.057052e+00
  -4.122574e+00  -5.072632e+01
   8.288435e+01  -3.367996e+01
