
 $NMID
 id='ANONYMOUS ', fmtdat='(2E16.6)'
 volume=1.0
 tramp=1.0
 $END
  -4.725788e+03   5.397426e+02
  -3.003656e+03  -2.226132e+03
   5.108579e+02  -3.080148e+03
   2.055706e+03  -1.139247e+03
   9.829464e+02   7.352095e+02
  -7.127725e+02   5.682094e+02
  -9.312641e+02  -4.067670e+02
  -1.115322e+02  -1.194097e+03
   8.789471e+02  -8.323516e+02
   9.908723e+02   3.904790e+01
   4.734794e+02   8.437970e+02
  -2.600308e+02   8.855156e+02
  -6.448469e+02   1.504185e+02
  -3.816081e+02  -7.390635e+02
   2.449138e+02  -7.990658e+02
   6.362175e+02  -2.845160e+01
   2.838202e+02   6.962054e+02
  -3.339163e+02   6.309835e+02
  -5.945216e+02   1.348077e+02
  -4.255493e+02  -3.119465e+02
  -2.279639e+01  -3.996067e+02
   2.346699e+02  -3.170030e+02
   2.187188e+02  -6.841335e+00
  -1.063817e+02   7.432325e+01
  -4.347168e+02  -1.114738e+02
  -1.930384e+02  -4.041631e+02
   4.500497e+02  -4.273965e+02
   8.326829e+02   3.981721e+01
   4.576373e+02   5.268107e+02
  -3.428669e+02   4.909905e+02
  -8.062589e+02   1.601276e+01
  -3.861671e+02  -5.156954e+02
   2.626572e+02  -5.643378e+02
   5.880972e+02  -2.115063e+02
   4.852522e+02   2.080217e+02
   8.106139e+01   4.703009e+02
  -1.888440e+02   2.581100e+02
  -1.527241e+02  -2.052361e+02
   1.671049e+02  -4.620727e+02
   5.047077e+02   6.388195e+00
   2.992785e+02   7.417349e+02
  -3.299911e+02   7.354429e+02
  -6.589691e+02   4.760203e+00
  -3.058524e+02  -5.701309e+02
   2.871690e+02  -3.464152e+02
   4.362798e+02   3.453580e+02
  -6.034430e+01   5.781179e+02
  -5.723302e+02   1.718029e+02
  -5.805623e+02  -3.988290e+02
  -2.009159e+02  -6.133412e+02
   4.203939e+02  -3.695102e+02
   6.702090e+02   7.880975e+01
   3.681656e+02   3.621715e+02
  -8.336730e+01   3.742595e+02
  -3.982460e+02   6.980623e+01
  -1.844773e+02  -1.854946e+02
   1.287824e+02  -9.612401e+01
   1.612504e+02   1.355092e+02
  -1.665013e+02   1.964785e+02
  -3.404871e+02  -3.059380e+01
  -1.688365e+02  -3.003970e+02
   2.530584e+02  -2.448769e+02
   3.111685e+02  -1.024626e+02
   2.491438e+02   1.104908e+02
  -2.656166e+01   2.514144e+02
  -1.748598e+02   3.744753e+02
  -3.302462e+02   2.435074e+02
  -3.310852e+02  -1.148529e+02
  -1.094442e+02  -4.674319e+02
   1.166433e+02  -3.780599e+02
   8.486283e+01  -1.370811e+02
   4.594969e+01  -2.700089e+01
   7.394373e+01  -8.277967e+01
   2.086040e+02  -1.368388e+02
   2.800134e+02   2.872549e+01
   1.941596e+02   2.605397e+02
  -8.813022e+01   2.767202e+02
  -2.551364e+02   1.901275e+01
  -2.174537e+02  -2.297992e+02
  -7.380947e+00  -3.169868e+02
   2.536451e+02  -1.687795e+02
   3.886833e+02   1.153908e+02
   2.105515e+02   3.730662e+02
  -5.897401e+01   3.415691e+02
  -2.068868e+02   1.430084e+02
  -1.889468e+02   5.218539e+01
  -1.177122e+02   5.066020e+01
  -2.395648e+02   6.692032e+01
  -4.276096e+02  -2.737431e+01
  -3.747629e+02  -2.850235e+02
  -1.850945e+01  -4.964855e+02
   3.904301e+02  -4.290433e+02
   4.683236e+02  -2.273091e+02
   3.478582e+02   7.049509e+01
   4.227230e+01   3.069313e+02
  -1.406801e+02   2.692690e+02
  -1.006517e+02   2.432252e+01
   1.046113e+02  -1.146464e+02
   2.117165e+02   3.319026e+00
   3.726478e+00   2.216295e+02
  -1.851930e+02   1.581492e+02
  -1.769226e+02  -6.979581e+01
   2.143692e+01  -1.896516e+02
   1.931954e+02  -3.810772e+01
   1.938344e+02   2.487984e+02
  -3.664460e+01   3.775423e+02
  -2.564116e+02   2.085800e+02
  -3.236913e+02  -8.053528e+01
  -2.973321e+02  -2.474912e+02
  -1.184516e+02  -2.835148e+02
   9.649485e+01  -1.599307e+02
   1.627029e+02  -4.165241e+01
   7.338121e+01   1.545862e+01
  -5.354466e+01  -8.514754e+00
  -6.732573e+01  -1.176699e+02
   1.150551e+02  -1.047350e+02
   2.099116e+02   1.517029e+00
   7.222619e+01   6.110431e+01
  -9.169578e+01   5.545790e+01
  -6.040649e+01  -7.466055e+01
   9.581564e+01  -1.111305e+02
   2.809759e+02  -3.940052e+01
   3.031317e+02   1.495323e+02
   9.158987e+01   2.534933e+02
  -1.669503e+02   2.406366e+02
  -2.573324e+02   1.824464e+02
  -1.734018e+02  -5.957075e+01
  -1.518839e-01  -1.338661e+02
   9.079647e+01  -5.703742e+01
  -2.171004e+01   6.710736e+01
  -1.635655e+02   5.684806e+01
  -2.200626e+02  -9.216207e+01
  -7.324092e+01  -2.033773e+02
   7.560697e+01  -1.375323e+02
   1.718510e+02  -2.139451e+01
   5.725065e+01   2.782265e+01
  -3.918358e+01  -4.328738e+00
  -5.609985e+01  -1.040353e+02
   6.071340e+01  -1.045227e+02
   2.284295e+02  -5.648662e+01
   2.318990e+02   8.728918e+01
   3.188160e+01   2.475115e+02
  -1.443911e+02   2.120362e+02
  -2.268021e+02   2.132204e+01
  -8.492765e+01  -1.054567e+02
   2.401908e+01  -1.173954e+02
   6.952251e+01  -2.083044e+01
   7.021437e+00   2.751576e+01
  -1.703954e+01   2.706216e+01
  -6.454370e+00  -4.819422e-01
   8.322951e+01   9.969322e+00
   1.052866e+02   9.087918e+01
   3.308714e+01   1.521861e+02
  -1.031175e+02   1.781056e+02
  -2.237342e+02   5.807414e+01
  -2.355687e+02  -1.289976e+02
  -4.720938e+01  -2.277265e+02
   1.130316e+02  -1.807309e+02
   1.336346e+02  -3.434811e+01
   6.169277e+01   4.673695e+01
   5.221746e+01   1.981088e+01
   8.915913e+01  -6.672912e+00
   7.307039e+01  -2.399435e+01
   7.228335e+01   4.419899e+01
  -6.451022e+01   1.160486e+02
  -1.229933e+02   7.799851e+01
  -1.231970e+02  -2.407343e+01
   8.086974e-02  -9.561487e+01
   1.376904e+02  -1.190891e+02
   2.258150e+02   4.393712e+01
   9.437839e+01   1.994616e+02
  -1.119124e+02   2.440439e+02
  -2.866295e+02   1.201317e+02
  -2.700305e+02  -9.126229e+01
  -1.364486e+02  -1.979534e+02
   2.475181e+01  -1.628592e+02
   6.197084e+01  -9.319189e+01
   8.152740e+01  -5.742198e+01
   3.501214e+01  -8.927566e+01
   1.155363e+02  -1.003946e+02
   1.419582e+02  -1.718790e+01
   1.543905e+02   1.387718e+02
   4.820612e+01   2.344208e+02
  -1.001493e+02   2.096343e+02
  -1.999485e+02   5.716856e+01
  -1.615241e+02  -1.367055e+02
  -1.126972e+01  -1.916138e+02
   5.828887e+01  -1.029868e+02
   6.662217e+01   3.235909e+01
  -1.395321e+01   6.650445e+01
  -2.899121e+01   4.742200e+01
   4.360005e+01   2.696697e+01
   7.901559e+01   1.620564e+01
   5.053484e+01   3.410365e+01
  -7.497644e+01   4.916667e+01
  -1.372852e+02   2.935830e+01
  -1.561674e+02  -3.307607e+01
   9.169289e+00  -1.080126e+02
   1.370532e+02  -1.082156e+02
   1.502040e+02  -1.008609e+01
   3.787223e+01   4.232761e+01
  -5.470002e+01   4.461471e+01
  -1.007175e+02   1.902049e+01
  -3.069352e+01  -7.424364e+01
   6.029185e+01  -5.660138e+01
   6.659188e+01   1.736166e+01
   4.103171e+01   5.599716e+01
   3.183279e+01   7.498995e+01
   6.729171e+01  -2.355386e+00
   4.952714e+01   2.554448e+01
   2.318147e+01   6.931870e+01
  -4.686393e+01   1.714805e+02
  -1.081267e+02   1.760273e+02
  -1.567503e+02   4.693271e+01
  -1.478809e+02  -6.605323e+01
  -7.831463e+00  -1.276013e+02
   9.878471e+01  -5.553057e+01
   1.024009e+02   4.914746e+00
  -6.235587e+01   1.391998e+01
  -1.668700e+02   5.198799e+00
  -6.844352e+01  -1.136272e+02
   6.745226e+01  -1.246442e+02
   1.954164e+02  -7.124464e+01
   2.152711e+02   2.079466e+01
   8.459396e+01   8.717049e+01
  -8.464486e+01   9.644400e+01
  -5.192234e+01  -2.112383e+01
   4.096482e+01  -3.661515e+01
   1.168478e+02   7.608979e+00
   2.014697e+01   1.691931e+02
  -6.482948e+01   1.758399e+02
  -1.830378e+02   6.133348e+01
  -1.470014e+02  -1.306602e+02
  -1.185862e+01  -2.003577e+02
   9.059916e+01  -1.374907e+02
   1.243042e+02   3.692458e+01
   5.526250e+01   1.113196e+02
   1.629745e+01   1.146378e+02
  -4.849672e+01   7.568816e+00
  -7.668383e+01   3.655675e+00
  -1.451863e+01  -4.779005e-01
  -1.175552e+01   1.908226e+01
  -1.641463e+01  -4.558692e+01
  -1.009221e+02  -1.008015e+02
  -2.456137e+01  -1.325274e+02
   6.832745e+01  -8.199466e+01
   1.583735e+02   3.740887e+01
   1.652143e+02   7.922238e+01
   3.553511e+01   6.915239e+01
  -8.271865e+01   1.119541e+01
  -5.793790e+01  -3.506699e+00
   3.091989e+00  -3.380525e+01
   3.536264e+01   1.514734e+01
   2.498348e+01  -1.532964e+01
  -2.352735e+01   3.247943e+01
   1.520137e+00   3.083108e-01
   8.680313e+01   1.798327e+01
   1.112296e+02   2.694276e+01
   1.438141e+01   7.369587e+01
  -8.419871e+01   1.295770e+02
  -2.019813e+02   7.886341e+01
  -1.482908e+02  -8.257862e+01
  -1.935882e+01  -1.699925e+02
   4.482048e+01  -1.571610e+02
   8.677977e+01  -8.899942e+01
   6.445099e+01   2.029255e+01
   2.721086e+01   3.492463e+01
   7.957167e+00  -9.624488e+00
   1.105937e+01  -8.205617e+00
   3.564512e+01   6.336157e+01
   2.437161e+01   9.102221e+01
  -2.903238e+01   1.013486e+02
  -3.848085e+01  -2.720762e+01
  -9.912444e+01  -9.196386e+01
  -2.042563e+01  -1.202364e+02
   1.058953e+02  -3.348920e+01
   8.485074e+01   4.705258e+01
   2.388657e+01   1.234058e+02
  -7.712967e+01   7.160056e+01
  -7.704413e+01  -1.398173e+00
  -7.603606e+01  -4.047269e+01
   4.243169e+00  -6.021807e+01
   3.359164e+01  -3.041101e+01
  -1.966302e+01  -1.261880e+01
  -6.797896e+01   1.328260e+01
  -3.258227e+00  -1.900131e+01
   6.662175e+01  -7.411836e+01
   9.226978e+01  -8.432634e+01
   4.455252e+01   1.455212e+01
  -2.513137e+01   7.046888e+01
  -3.203354e+01   7.846585e+01
  -2.523882e+01  -2.084640e+01
  -1.151386e+01  -5.246685e+01
   2.989766e+01  -6.682499e+01
   4.658958e+01   2.167594e+01
   4.519934e+00   7.179965e+01
  -9.613011e+00   1.981719e+01
  -3.073721e+01   1.321766e+01
  -4.146316e+01  -7.700834e+00
  -1.921128e+01  -2.767308e+01
   2.239569e+01  -2.107332e+01
  -1.286466e+00   3.482316e+01
   1.701252e+01  -1.177911e+01
   2.373672e+01  -4.089026e+01
   1.768757e+01  -2.964098e+01
   1.540044e+01   4.463341e+01
  -1.942569e+00   4.605033e+01
  -3.715851e+01   2.831646e+01
  -6.558054e+01  -2.564924e+01
  -1.251754e+01  -3.682450e+01
   6.722191e+01  -3.831687e+01
   9.521005e+01   7.858226e+00
   8.713638e+01   4.381002e+01
  -1.935492e+01   2.906225e+01
  -3.652098e+01   2.024619e+01
  -1.798198e+01  -5.164874e+00
   2.337937e+01   1.154870e+01
   6.249076e+01   1.007482e+01
  -2.660002e+01   6.485651e+01
  -9.709065e+01   5.079179e+01
