
 $NMID
 id='ANONYMOUS ', fmtdat='(2E16.6)'
 volume=1.0
 tramp=1.0
 $END
   4.217211e+03  -3.951387e+02
   2.782354e+03   2.127048e+03
  -5.810286e+02   2.561150e+03
  -2.048480e+03   1.258357e+03
  -8.183176e+02  -5.066940e+02
   6.631351e+02  -5.801533e+02
   8.443016e+02   4.508219e+02
   2.503462e+01   1.062822e+03
  -7.389128e+02   8.899221e+02
  -9.190720e+02  -1.288984e+02
  -4.627874e+02  -8.209886e+02
   2.007151e+02  -8.855322e+02
   5.723973e+02  -9.792038e+01
   3.356225e+02   6.875507e+02
  -2.145607e+02   7.041092e+02
  -5.461501e+02  -2.926232e+01
  -2.705517e+02  -6.804820e+02
   2.640071e+02  -6.707353e+02
   5.817222e+02  -9.478699e+01
   4.006439e+02   3.955446e+02
   1.617159e+01   3.852679e+02
  -2.340703e+02   2.738649e+02
  -1.849454e+02   9.287549e+00
   1.635813e+02  -1.035502e+02
   3.774810e+02   1.046589e+02
   1.741866e+02   4.184561e+02
  -4.786290e+02   3.991650e+02
  -8.256255e+02  -8.675726e+01
  -4.028140e+02  -4.868717e+02
   3.736724e+02  -4.117240e+02
   7.448641e+02   5.179626e+01
   3.126848e+02   5.108209e+02
  -2.992498e+02   5.064501e+02
  -5.524164e+02   1.756141e+02
  -4.116500e+02  -2.591605e+02
  -5.831016e+01  -4.591493e+02
   2.176813e+02  -2.701174e+02
   1.164256e+02   2.209397e+02
  -1.536094e+02   3.766400e+02
  -4.242304e+02  -1.255409e+01
  -2.549837e+02  -6.365956e+02
   2.552244e+02  -7.252180e+02
   5.527315e+02  -2.752018e+01
   2.865646e+02   4.910119e+02
  -2.827629e+02   3.219119e+02
  -3.619451e+02  -3.282125e+02
   8.063564e+01  -5.592564e+02
   5.765742e+02  -1.672256e+02
   5.839000e+02   4.305953e+02
   1.643480e+02   5.576139e+02
  -4.091627e+02   3.696827e+02
  -6.671894e+02  -5.465431e+01
  -3.783429e+02  -3.827604e+02
   1.279289e+02  -3.787580e+02
   4.704272e+02  -6.871147e+01
   2.465149e+02   1.480110e+02
  -1.430481e+02   1.034774e+02
  -1.493603e+02  -1.434378e+02
   1.467057e+02  -1.778496e+02
   3.634273e+02   2.513666e+01
   1.760759e+02   2.984817e+02
  -1.903450e+02   2.945390e+02
  -3.219161e+02   1.037161e+02
  -2.140369e+02  -9.113701e+01
   8.597800e+00  -2.432839e+02
   2.563482e+02  -2.880186e+02
   3.083019e+02  -1.860455e+02
   2.905972e+02   1.153993e+02
   1.364210e+02   4.272249e+02
  -9.593426e+01   3.646224e+02
  -8.379786e+01   1.069505e+02
  -1.548316e+01  -5.559285e-01
  -3.398457e+01   9.817110e+01
  -1.878178e+02   1.078346e+02
  -2.435770e+02  -2.715062e+01
  -1.641271e+02  -2.789560e+02
   3.054002e+01  -2.491608e+02
   2.039790e+02  -2.902083e+01
   2.194991e+02   2.587149e+02
   5.157247e+00   2.726939e+02
  -2.340224e+02   1.464310e+02
  -3.957368e+02  -1.436043e+02
  -2.302896e+02  -3.038884e+02
   6.451887e+01  -2.980978e+02
   1.831401e+02  -1.426522e+02
   1.419396e+02  -6.955671e+01
   1.285988e+02  -5.352340e+01
   2.339941e+02  -5.346450e+01
   3.800027e+02   4.278240e+01
   3.811219e+02   2.621733e+02
   1.998900e+01   4.456021e+02
  -2.717215e+02   4.033750e+02
  -4.335527e+02   2.359916e+02
  -3.466370e+02  -7.124274e+01
  -5.770847e+01  -3.060709e+02
   1.328124e+02  -2.610628e+02
   1.094718e+02  -1.311570e+01
  -8.597235e+01   1.119506e+02
  -2.011316e+02  -4.156367e+00
  -6.074570e+01  -1.594407e+02
   1.362418e+02  -1.822711e+02
   1.630737e+02   5.833303e+01
   9.518387e+00   1.875939e+02
  -2.046589e+02   3.364683e+01
  -1.935896e+02  -2.314886e+02
   8.779389e+00  -3.858122e+02
   2.258529e+02  -2.316951e+02
   3.385307e+02   7.599509e+01
   2.789616e+02   2.108724e+02
   1.144173e+02   2.552746e+02
  -1.466288e+02   1.743579e+02
  -1.524821e+02   3.583857e+00
  -5.464556e+01  -5.939419e+00
   9.417530e+01   1.776460e+01
   2.555338e+01   1.258283e+02
  -1.274712e+02   1.162710e+02
  -1.935566e+02  -1.043095e+01
  -2.953046e+01  -1.062439e+02
   9.988422e+01  -6.552383e+00
   2.932634e+01   8.736166e+01
  -1.448767e+02   6.412540e+01
  -3.010116e+02  -1.379401e+01
  -2.482656e+02  -1.133668e+02
  -6.248872e+01  -2.446146e+02
   1.845683e+02  -2.955801e+02
   2.638493e+02  -1.149805e+02
   1.604537e+02   6.570240e+01
  -2.193993e+00   1.272174e+02
  -7.715599e+01   2.960780e-02
   4.729178e+01  -1.372481e+02
   2.176658e+02  -5.769790e+01
   2.332835e+02   1.161917e+02
   7.284774e+01   2.056822e+02
  -1.033612e+02   1.392780e+02
  -1.393667e+02   1.110582e+01
  -6.869785e+01  -1.472538e+01
   2.181276e+01   8.287702e+00
   2.983081e+01   1.155735e+02
  -7.931983e+01   1.380413e+02
  -2.176051e+02   3.381627e+01
  -2.188127e+02  -1.300192e+02
  -3.961452e+01  -2.187936e+02
   1.398443e+02  -1.487680e+02
   1.841825e+02   1.923036e+01
   7.040836e+01   1.421780e+02
  -6.573382e+01   8.348927e+01
  -7.028188e+01   2.940305e+01
  -2.048049e+01  -3.260921e+01
   2.194440e+01   7.515748e+00
  -3.675593e+00   1.209245e+01
  -1.030985e+02  -4.723821e+00
  -1.232251e+02  -5.967890e+01
  -2.864465e+01  -1.406682e+02
   1.225013e+02  -1.520296e+02
   2.480543e+02  -7.686787e+01
   2.248695e+02   1.278847e+02
   5.213232e+01   2.477550e+02
  -8.170024e+01   1.857725e+02
  -1.450139e+02   3.514948e+01
  -5.607294e+01  -2.290799e+01
  -6.591031e+01  -5.323718e+01
  -5.108250e+01   2.823670e+01
  -8.177914e+01   3.196482e+01
  -4.533151e+01  -5.417290e+01
   6.548580e+00  -1.151083e+02
   1.029574e+02  -1.015813e+02
   9.753719e+01   3.908608e+01
  -2.793543e+01   1.171088e+02
  -1.297336e+02   1.106415e+02
  -1.655369e+02  -7.417845e+01
  -7.080788e+01  -1.903157e+02
   9.580049e+01  -2.302808e+02
   2.785712e+02  -7.696758e+01
   2.483084e+02   1.121952e+02
   9.620392e+01   1.495668e+02
  -1.448048e+01   1.632579e+02
  -9.385109e+01   1.130622e+02
  -1.059178e+02   4.567856e+01
  -6.170523e+01   9.025277e+01
  -7.056454e+01   8.486856e+01
  -1.787613e+02  -1.229940e+01
  -1.736126e+02  -1.440839e+02
  -3.603422e+01  -2.136467e+02
   1.075785e+02  -1.719573e+02
   1.727544e+02  -1.401039e+01
   1.250782e+02   1.346358e+02
   3.866704e+01   1.761379e+02
  -8.782701e+01   7.024189e+01
  -3.698789e+01  -4.712073e+01
   2.148331e+01  -5.415627e+01
   3.427384e+01  -4.782409e+01
  -2.137533e+01  -3.252066e+01
  -7.640327e+01  -2.198887e+01
  -4.885735e+01  -2.270181e+01
   7.903580e+01  -2.866825e+01
   1.310220e+02   1.184261e+01
   1.351687e+02   6.016227e+01
   7.533963e+00   9.675406e+01
  -1.077212e+02   1.096731e+02
  -1.505041e+02   1.644666e+01
  -4.611153e+01  -5.407939e+01
   7.026395e+01  -1.911560e+01
   5.403907e+01   2.409805e+01
   2.263331e+01   7.515736e+01
  -6.049266e+01   6.393291e+01
  -6.132732e+01  -4.278081e+00
  -5.232211e+01  -7.293448e+01
  -3.085049e+01  -1.965176e+01
  -6.779943e+01  -2.289433e+00
  -6.565553e+01  -7.653268e+00
  -4.497990e+01  -7.172314e+01
   6.573538e+01  -1.459515e+02
   1.449274e+02  -1.498435e+02
   1.468007e+02  -7.983076e+00
   1.144429e+02   9.208811e+01
   8.748976e+00   1.344014e+02
  -1.011759e+02   2.916300e+01
  -4.553855e+01  -1.289898e+01
   5.914698e+01  -4.777799e+01
   1.378700e+02   4.856669e+01
   8.394407e+01   1.140985e+02
  -9.545819e+01   1.500317e+02
  -1.675338e+02   5.817662e+01
  -1.712444e+02  -4.891348e+01
  -5.392811e+01  -1.025027e+02
   5.856813e+01  -7.344077e+01
   5.927186e+01   3.359213e+01
  -3.612538e+01   4.567408e+01
  -1.232600e+02   1.258244e+01
  -5.420274e+01  -1.301017e+02
   1.157328e+02  -1.364307e+02
   1.702781e+02  -1.562236e+01
   1.181130e+02   1.213086e+02
  -6.768784e+00   1.823636e+02
  -9.271980e+01   1.338062e+02
  -1.017287e+02  -3.357309e+01
  -5.136161e+01  -1.175530e+02
  -4.059816e+00  -8.248585e+01
   6.338547e+01  -1.734446e+01
   6.379756e+01   3.556743e+01
   8.718962e+00  -6.151632e+00
   7.119299e+00  -2.832916e+00
   9.764269e+00   2.482309e+01
   4.450837e+01   8.971461e+01
   2.938129e+01   1.096879e+02
  -6.493528e+01   4.746123e+01
  -1.419710e+02  -3.773726e+01
  -1.242938e+02  -8.882950e+01
   3.041576e-01  -3.135291e+01
   8.904402e+01  -1.959909e+01
   9.038466e+01  -3.290255e+01
  -3.686517e+01   2.282574e+01
  -2.875615e+01   1.657138e+01
  -1.500507e+01   3.567080e+01
   2.380803e+01   7.833279e+00
  -1.440456e+01   1.236189e+01
  -6.689401e+01   1.222294e+01
  -1.119137e+02  -3.872477e+01
  -1.575038e+01  -7.631526e+01
   1.068452e+02  -1.338896e+02
   1.970690e+02  -4.636397e+01
   1.667211e+02   8.065950e+01
   3.969858e+01   1.924653e+02
  -9.722105e+01   1.204728e+02
  -1.160769e+02   8.393404e+01
  -7.801181e+01   1.043122e+01
  -1.502670e+01  -1.093068e+01
  -2.644270e+00  -1.614025e+01
  -3.900747e+00   1.012901e+01
  -2.967295e+01  -5.199963e+01
  -3.375966e+01  -9.330401e+01
   3.198265e+01  -9.461036e+01
   5.924816e+01   1.089956e+01
   6.368355e+01   1.145840e+02
   1.034539e+00   1.504616e+02
  -1.005686e+02   1.253832e+01
  -1.186790e+02  -6.470123e+01
  -2.116872e+01  -1.208715e+02
   5.598442e+01  -7.141807e+01
   1.125322e+02   1.163611e+01
   2.340220e+01   6.920793e+01
  -2.080085e+01   7.825637e+01
  -2.630518e+01   2.197990e+01
   3.136274e+01  -8.415058e+00
   7.665643e+01  -3.103580e+00
  -1.220475e+00   1.890270e+01
  -4.180293e+01   7.571980e+01
  -1.213941e+02   7.266500e+01
  -7.440723e+01  -9.335975e+00
   9.905070e+00  -6.365330e+01
   2.090330e+01  -5.759326e+01
   4.617408e+01  -6.880034e+00
   7.690673e+00   5.265234e+01
   4.916093e+00   5.684284e+01
  -4.689110e+01  -1.154163e+01
  -4.051308e+01  -7.316915e+01
   1.205900e+01  -4.099498e+01
   4.709829e+01   2.928907e+00
   2.451790e+01   3.434167e+01
   2.273432e+00  -2.743812e+01
  -4.089966e+00  -3.602662e+00
  -2.274647e+01  -5.839588e+00
   2.623738e+01   3.805903e+01
  -4.192106e+01   4.443823e+01
  -1.969254e+01   1.905677e+01
  -4.229372e+01  -4.908006e+01
   1.348739e+01  -5.454161e+01
   2.569026e+01   7.030923e+00
   8.170510e+01   7.778171e+01
   4.314479e+01   6.711154e+01
  -4.343014e+01   4.752117e+01
  -9.941833e+01   1.266332e+00
  -5.389417e+01  -5.512369e+01
   2.484461e+01  -3.737318e+01
   6.428216e+01  -1.100776e+01
   9.231515e+00   2.049603e+01
  -2.099644e+01   1.351459e+01
  -3.825816e+01  -6.108548e+00
   1.609815e+01  -5.160676e+01
   7.658563e+01  -2.283244e+01
