
 $NMID
 id='ANONYMOUS ', fmtdat='(2E16.6)'
 volume=1.0
 tramp=1.0
 $END
  -3.753431e+03   1.277598e+02
  -2.419240e+03  -1.752291e+03
  -3.323474e+01  -2.178827e+03
   1.481128e+03  -1.402121e+03
   1.149453e+03   5.782062e+00
  -1.493534e+02   4.534434e+02
  -5.357305e+02  -1.347079e+02
  -8.510090e+01  -8.001437e+02
   5.623166e+02  -7.337130e+02
   7.528153e+02   1.434514e+01
   4.230378e+02   5.868184e+02
   2.503874e+00   7.495282e+02
  -4.102950e+02   2.200188e+02
  -2.848034e+02  -5.021023e+02
   7.364468e+01  -6.188638e+02
   4.436383e+02  -1.065219e+02
   2.854407e+02   5.124463e+02
  -2.068939e+02   6.234688e+02
  -5.778443e+02   2.282612e+02
  -4.087721e+02  -2.723375e+02
  -8.320162e+01  -4.119967e+02
   1.348728e+02  -2.464973e+02
   1.339090e+02  -7.760250e+01
  -1.683671e+02  -6.537482e+01
  -2.579946e+02  -2.042600e+02
   3.161237e+00  -3.323922e+02
   4.642883e+02  -2.769519e+02
   6.321907e+02   1.018566e+02
   3.125287e+02   3.690544e+02
  -3.368262e+02   2.774013e+02
  -5.771796e+02  -8.281367e+01
  -2.619970e+02  -3.610477e+02
   2.618771e+02  -3.970662e+02
   4.618188e+02  -1.532123e+02
   3.225049e+02   2.368745e+02
   5.328488e+01   3.458046e+02
  -1.051507e+02   2.061938e+02
  -6.800072e+00  -1.459430e+02
   1.809273e+02  -2.231778e+02
   2.812300e+02   7.880902e+01
   1.186303e+02   5.443327e+02
  -2.341293e+02   5.723463e+02
  -4.257757e+02  -6.953884e+00
  -2.423888e+02  -3.723353e+02
   1.609230e+02  -2.186595e+02
   2.358545e+02   2.605812e+02
  -5.636719e+01   4.458193e+02
  -4.250062e+02   8.718226e+01
  -4.697209e+02  -3.734697e+02
  -1.641476e+02  -5.167612e+02
   3.552578e+02  -2.737914e+02
   5.560467e+02   8.215500e+01
   3.619848e+02   3.319726e+02
  -8.560451e+01   3.292491e+02
  -3.535868e+02   8.331412e+01
  -2.292545e+02  -6.564267e+01
   3.986895e+01  -7.387512e+01
   8.097869e+01   6.113237e+01
  -1.012534e+02   1.143828e+02
  -2.801839e+02  -1.128160e+01
  -1.539413e+02  -2.067050e+02
   1.754010e+02  -2.750412e+02
   3.866528e+02  -1.454943e+02
   2.595353e+02   1.046538e+02
  -2.205929e+01   2.737314e+02
  -3.122361e+02   3.117329e+02
  -3.672460e+02   1.505530e+02
  -2.639339e+02  -1.781829e+02
  -2.406323e+01  -3.849598e+02
   1.118049e+02  -3.062884e+02
   7.609462e+01  -1.510446e+02
   1.397091e+01  -8.975539e+01
   9.274216e+01  -1.083951e+02
   2.579551e+02  -7.755865e+01
   2.272194e+02   9.350397e+01
   1.152339e+02   2.646146e+02
  -4.933153e+01   2.242773e+02
  -2.120309e+02   7.042677e-01
  -1.685105e+02  -2.221234e+02
   5.943676e+01  -2.759406e+02
   2.573129e+02  -8.646348e+01
   3.016147e+02   1.641832e+02
   1.769859e+02   3.185164e+02
  -4.789939e+01   2.558328e+02
  -1.791810e+02   1.097561e+02
  -1.554629e+02   3.118951e+01
  -1.665940e+02   5.992484e+01
  -2.847576e+02   9.083819e+00
  -3.374843e+02  -9.059385e+01
  -2.536132e+02  -2.520803e+02
   2.954308e+01  -3.837079e+02
   3.519581e+02  -3.878344e+02
   4.595998e+02  -2.002467e+02
   2.892095e+02   7.420565e+01
   6.046168e+01   2.292838e+02
  -8.998976e+01   2.289591e+02
  -3.860881e+01   5.060873e+01
   8.281228e+01  -6.904408e+01
   1.290463e+02   9.876283e-01
  -5.822770e-01   1.305774e+02
  -1.109367e+02   1.316233e+02
  -1.102661e+02  -4.871494e+01
   3.701891e+01  -1.764115e+02
   1.741528e+02  -1.761121e+01
   1.959826e+02   2.281181e+02
  -1.973836e+00   3.352477e+02
  -2.329876e+02   2.170681e+02
  -3.431509e+02  -7.531675e+01
  -2.553173e+02  -2.302727e+02
  -6.990945e+01  -2.588076e+02
   1.143213e+02  -1.467668e+02
   1.690415e+02  -2.251346e+01
   4.106017e+01   2.285648e+01
  -5.978266e+01  -4.940095e+01
   9.240625e+00  -1.092997e+02
   8.602667e+01  -6.928021e+01
   1.342752e+02   9.496931e+00
   3.761451e+01   5.298895e+01
  -8.359891e+01  -9.979887e+00
  -2.793342e+01  -6.887570e+01
   1.461624e+02  -8.751417e+01
   2.759583e+02   5.166417e+01
   2.094193e+02   1.619891e+02
   1.845419e+01   2.303409e+02
  -1.936057e+02   2.076365e+02
  -2.453617e+02   7.486002e+01
  -1.278126e+02  -5.403154e+01
   2.643242e+01  -9.031562e+01
   6.132537e+01   3.082027e+01
  -2.704167e+01   1.279629e+02
  -1.921660e+02   3.831298e+01
  -1.856461e+02  -1.313319e+02
  -4.506522e+01  -1.815567e+02
   1.167724e+02  -1.131475e+02
   1.232875e+02  -3.583578e+01
   5.472417e+01   3.831064e+01
  -4.889482e+01  -2.857336e+01
  -5.764649e+01  -1.254072e+02
   7.213004e+01  -1.205285e+02
   1.871986e+02  -8.009918e+00
   1.578733e+02   1.520637e+02
  -6.801117e+00   1.995025e+02
  -1.853433e+02   1.542369e+02
  -1.607189e+02  -1.673507e+01
  -6.919518e+01  -1.148355e+02
   6.809615e+01  -9.444968e+01
   5.020633e+01  -6.357026e+01
  -2.617087e+00   7.039910e+00
  -4.437160e+01   2.081881e+01
   7.554857e+00  -8.368605e+00
   8.128482e+01  -1.325139e+01
   1.105880e+02   1.375712e+02
  -4.969680e+01   1.620436e+02
  -1.565015e+02   1.610121e+02
  -2.401697e+02  -7.730554e+00
  -1.779458e+02  -1.374125e+02
  -3.775876e+01  -2.184386e+02
   1.005621e+02  -1.471465e+02
   9.535898e+01  -2.407054e+01
   6.434408e+01   5.679904e+01
   5.410134e+01   3.356070e+01
   4.512724e+01  -1.325940e+01
   7.459429e+01   1.417916e+01
   7.050518e+01   6.982038e+01
  -3.328565e+01   1.016769e+02
  -1.182805e+02   9.578377e+01
  -1.160590e+02  -6.110879e+01
   2.347581e+01  -1.411508e+02
   1.355758e+02  -9.278342e+01
   1.485204e+02   4.756105e+01
   1.247860e+02   2.044275e+02
  -1.224591e+02   2.155653e+02
  -2.515451e+02   5.958501e+01
  -2.247442e+02  -9.479400e+01
  -6.531749e+01  -1.578213e+02
   7.215471e+01  -1.109470e+02
   7.891702e+01  -5.268797e+01
   6.840404e+01  -6.621816e+01
   5.788010e+01  -8.203587e+01
   7.710765e+01  -7.540325e+01
   1.054460e+02   2.531067e+01
   1.455492e+02   1.704592e+02
   2.799986e+01   1.965768e+02
  -1.451557e+02   1.424856e+02
  -1.894230e+02   1.851488e+01
  -1.504299e+02  -1.139982e+02
  -5.231138e+00  -1.379926e+02
   8.000806e+01  -6.181420e+01
   5.468835e+01   9.793126e+00
   8.745930e+00   4.939882e+01
  -7.298114e+01   1.504324e+01
   1.733613e+01  -1.523757e+00
   7.186766e+01   3.804688e+01
   6.204450e+01   5.614891e+01
  -9.415776e+01   6.809802e+01
  -1.488609e+02  -2.326519e+01
  -1.614704e+02  -9.374359e+01
  -2.599760e-01  -1.094963e+02
   1.399543e+02  -7.471227e+01
   1.099156e+02   5.602492e+00
   6.040776e+01   6.653264e+01
  -7.682901e+01   3.826428e+01
  -6.789117e+01  -2.155102e+01
  -1.834511e+00  -7.834378e+01
   6.495432e+01  -7.922539e+01
   7.643514e+01   1.175167e+01
   8.622034e+01   7.006853e+01
   2.325599e+01   3.508001e+01
   3.305686e+01  -1.948143e+01
   8.374441e+01  -1.209414e+01
   2.193835e+01   5.911060e+01
  -3.360417e+01   1.765093e+02
  -1.584241e+02   1.311977e+02
  -1.549206e+02   2.966015e+01
  -1.373685e+02  -1.125945e+02
   8.284040e+00  -1.191398e+02
   1.153580e+02  -3.553970e+01
   3.313609e+01  -3.030845e+00
  -5.606085e+01   2.714584e+00
  -1.071578e+02  -7.424945e+01
  -4.478585e+01  -1.203036e+02
   9.260177e+01  -8.205740e+01
   1.678319e+02  -3.622720e+01
   1.464220e+02   1.254539e+01
   1.781323e+01   9.256149e+01
  -8.171581e+01   7.589538e+01
  -8.491705e+01  -3.370072e+00
   5.928508e+01  -3.655797e+01
   9.451448e+01  -8.205309e+00
   3.512972e+01   1.492308e+02
  -7.748720e+01   1.504839e+02
  -1.809403e+02   6.536322e+01
  -1.200106e+02  -8.418796e+01
   3.345318e+01  -1.997592e+02
   5.673259e+01  -1.340813e+02
   1.295728e+02   5.607607e-01
   3.956516e+01   1.344010e+02
  -2.515942e+01   9.595090e+01
  -3.485033e+01  -1.859069e+00
  -2.727758e+01  -2.749872e+01
   9.463320e+00  -1.410740e+01
   1.357636e+01  -1.814700e+01
  -5.374457e+01   7.912191e+00
  -4.649046e+01  -9.610379e+01
  -2.578840e+01  -1.335673e+02
   4.051302e+01  -3.550185e+01
   1.538176e+02   4.233903e+01
   8.713418e+01   1.032010e+02
  -8.903099e+00   8.336502e+01
  -8.585893e+01  -2.731167e+01
  -5.905515e+01  -5.917439e+00
  -7.648186e+00  -2.408242e+01
   3.294600e+01   9.816764e+00
   1.621600e+01  -3.144637e+00
  -2.227589e+01  -4.238763e+00
   1.573001e+01  -1.519893e+01
   5.825327e+01  -2.751952e+01
   9.518402e+01   2.458749e+01
   4.436666e+01   8.633499e+01
  -7.846588e+01   1.290651e+02
  -1.703985e+02   7.367189e+01
  -1.306013e+02  -4.967855e+01
  -4.394024e+01  -1.468446e+02
   9.139694e+01  -1.330274e+02
   1.320663e+02  -5.151141e+01
   4.453611e+01  -3.507721e+00
   1.964240e+01   5.001097e+01
  -1.673687e+01   1.972819e+01
   1.179198e+01   9.500977e+00
   3.384483e+01   4.625526e+01
   2.132336e+01   9.402580e+01
   6.539349e+00   9.079253e+01
  -8.066592e+01   5.157319e+00
  -1.000750e+02  -5.901524e+01
  -2.955528e+01  -9.909432e+01
   5.384454e+01  -4.336957e+00
   1.063449e+02   6.219478e+01
   2.288403e+01   7.797611e+01
  -7.152040e+01   5.344068e+01
  -9.502894e+01  -2.973020e+01
  -3.655292e+01  -7.040070e+01
   2.076938e+01  -3.647906e+01
   3.324046e+01   1.902350e+00
  -5.106503e+01   2.036609e+01
  -8.177570e+01  -1.557505e+01
  -2.957325e+01  -8.513134e+00
   6.268702e+01  -7.267684e+01
   1.332868e+02  -8.781960e+01
   5.360786e+01   2.885283e+01
   4.957839e+00   8.949072e+01
  -7.203528e+01   7.256046e+01
  -1.479186e+01   1.592786e+01
  -4.578426e+00  -1.188466e+01
   3.868546e+01  -5.833366e+01
   1.823846e+01   1.415249e+01
   4.223046e+01   7.020104e+01
  -4.428737e+00   5.905070e+01
  -2.321198e+01  -4.392973e+01
  -4.542711e+01  -5.524178e+01
  -4.947583e+01   1.034486e+01
  -1.326783e+01   4.569304e+01
   1.105714e+01   2.731287e+01
  -1.686593e+01  -1.816020e+01
  -5.347352e+00  -4.417782e+01
   1.120283e+01  -3.632735e+01
   3.387367e+01   2.518881e+01
  -1.647722e+01   6.736264e+01
  -2.130124e+01   2.731192e+01
  -4.743599e+01  -4.324891e+01
   1.648851e+00  -4.760550e+01
   4.066278e+00  -2.066495e+01
   6.717681e+01   1.192165e+01
   5.175017e+01   2.768178e+01
  -1.603588e+00   5.343197e+01
  -3.793021e+01   3.346490e+01
  -3.304047e+01   2.296546e+01
   3.730143e+01  -1.517875e+01
   2.302061e+01   7.013566e+00
  -2.129284e+01   3.194792e+01
  -1.247974e+02   1.113437e+01
