
 $NMID
 id='ANONYMOUS ', fmtdat='(2E16.6)'
 volume=1.0
 tramp=1.0
 $END
  -2.970095e+03   5.795743e+02
  -2.589133e+03  -1.154672e+03
  -2.555968e+02  -1.982439e+03
   1.286577e+03  -1.276213e+03
   1.090925e+03  -2.191218e+02
   4.864865e+01   5.028005e+02
  -4.691490e+02   5.373775e+01
  -1.750777e+02  -5.943690e+02
   3.322671e+02  -5.230196e+02
   6.425045e+02  -1.533892e+02
   5.167232e+02   4.928095e+02
   3.625629e+01   6.853153e+02
  -3.275315e+02   2.869193e+02
  -3.196276e+02  -3.521382e+02
   4.740531e+00  -5.281691e+02
   4.245620e+02  -1.174854e+02
   3.743383e+02   4.631542e+02
  -7.217096e+01   6.144199e+02
  -5.139557e+02   2.961439e+02
  -4.664289e+02  -1.961478e+02
  -9.733674e+01  -3.715695e+02
   1.066557e+02  -2.623723e+02
   6.826877e+01  -3.151310e+01
  -1.448271e+02  -1.228214e+01
  -2.709917e+02  -1.901856e+02
  -6.839954e+01  -3.147777e+02
   2.998594e+02  -2.636250e+02
   6.094737e+02   2.101910e+01
   2.961964e+02   2.799625e+02
  -2.216221e+02   2.650589e+02
  -4.326696e+02  -2.519690e+01
  -2.443382e+02  -2.882844e+02
   2.049049e+02  -3.707425e+02
   3.824938e+02  -1.399471e+02
   3.171950e+02   1.372023e+02
   1.168521e+02   3.261814e+02
  -1.400068e+01   1.902921e+02
  -7.008972e+00  -1.147254e+02
   1.101575e+02  -2.501299e+02
   2.623389e+02   5.635769e+01
   1.440655e+02   4.164522e+02
  -1.413474e+02   4.692209e+02
  -3.624107e+02   1.234515e+02
  -2.424199e+02  -3.247817e+02
   1.184278e+02  -1.634142e+02
   2.225426e+02   1.674720e+02
  -6.278950e+01   3.805560e+02
  -3.658621e+02   1.473550e+02
  -4.407864e+02  -3.210816e+02
  -1.777062e+02  -3.934603e+02
   2.817414e+02  -2.578820e+02
   4.857292e+02   3.612345e+01
   3.387382e+02   2.330997e+02
  -4.216358e+01   2.189351e+02
  -2.885567e+02   6.015369e+01
  -2.339622e+02  -6.690570e+01
   1.278539e+01  -8.218964e+01
   6.661313e+01   3.716334e+01
  -1.113578e+02   1.056986e+02
  -2.330748e+02  -4.617563e+01
  -1.278284e+02  -1.645831e+02
   1.513884e+02  -2.430445e+02
   2.953334e+02  -1.299773e+02
   2.227074e+02   5.654983e+01
  -1.703220e+01   2.907085e+02
  -2.040343e+02   3.484535e+02
  -3.095968e+02   1.259601e+02
  -2.622438e+02  -1.495536e+02
  -3.799231e+01  -3.504577e+02
   4.887586e+01  -2.751624e+02
   5.128385e+01  -1.538994e+02
   4.822908e+01  -5.966204e+01
   8.463546e+01  -1.131688e+02
   1.856846e+02  -7.559807e+01
   2.442506e+02   5.154436e+01
   1.071115e+02   2.368518e+02
  -6.793687e+01   1.994861e+02
  -1.856632e+02  -1.630718e+01
  -1.309597e+02  -1.580517e+02
   2.190507e+00  -2.543606e+02
   2.128466e+02  -9.485887e+01
   3.272071e+02   1.381443e+02
   1.811795e+02   2.480925e+02
  -2.675865e+01   2.515907e+02
  -1.358784e+02   1.644262e+02
  -1.572216e+02   6.950914e+01
  -1.198636e+02   4.109364e+01
  -2.121089e+02   6.533475e+01
  -3.613047e+02  -7.993033e+01
  -3.113262e+02  -1.979859e+02
  -4.093385e+01  -4.056331e+02
   2.993076e+02  -4.086939e+02
   4.121676e+02  -2.324084e+02
   2.795160e+02   7.047329e+01
   3.656594e+01   2.336631e+02
  -7.450740e+01   2.016420e+02
  -6.601336e+01   5.900448e+01
   4.733237e+01  -9.997035e+01
   1.364630e+02  -3.648228e+00
   1.464099e+01   1.180810e+02
  -5.941551e+01   1.271540e+02
  -9.855373e+01  -2.042423e+01
   1.363883e+01  -1.408456e+02
   1.570385e+02  -3.288114e+01
   1.655606e+02   2.256115e+02
   1.889240e+01   3.097314e+02
  -2.120569e+02   2.356588e+02
  -3.298930e+02   8.112645e-02
  -2.303017e+02  -2.488308e+02
  -6.341306e+01  -2.784461e+02
   1.077473e+02  -1.458496e+02
   1.341510e+02  -4.217052e+01
   4.500612e+01  -1.128706e+01
  -7.908689e+01  -6.730833e+01
  -2.668146e+01  -1.047268e+02
   7.280798e+01  -5.199341e+01
   1.275169e+02  -1.237875e+00
   3.041882e+01   4.707842e+01
  -7.473368e+01   3.770360e+01
  -2.990622e+01  -1.157024e+02
   1.156442e+02  -9.016472e+01
   2.766747e+02  -1.408391e+01
   2.271030e+02   1.392013e+02
   4.106527e+01   2.308888e+02
  -1.748261e+02   1.786101e+02
  -2.137697e+02   1.148200e+02
  -1.319478e+02  -5.149221e+01
  -2.765561e+01  -6.227500e+01
   4.206895e+01  -2.845410e+01
  -6.978878e+01   6.152155e+01
  -1.346804e+02   5.301483e+01
  -1.730406e+02  -7.618942e+01
  -4.269021e+01  -1.702288e+02
   7.113880e+01  -1.053308e+02
   1.232234e+02  -3.739049e+01
   4.077469e+01   4.903008e+01
  -6.984565e+01   3.819385e+00
  -2.485310e+01  -1.249520e+02
   6.251157e+01  -1.477302e+02
   2.073286e+02  -2.686320e+01
   1.710671e+02   1.157169e+02
   1.732773e+01   1.877459e+02
  -1.347954e+02   1.421911e+02
  -1.466481e+02   2.455670e+01
  -6.995750e+01  -7.160646e+01
   3.979807e+01  -6.974597e+01
   5.655740e+01  -4.352319e+01
  -3.734523e+01   2.392511e+01
  -3.461334e+01   4.038862e+00
   1.201575e+01  -3.162421e+01
   7.695988e+01   2.436079e-01
   8.516067e+01   4.695974e+01
   3.252469e+01   1.485184e+02
  -1.214308e+02   1.242515e+02
  -2.030631e+02   2.817425e+01
  -1.694380e+02  -1.091383e+02
  -4.409177e+01  -1.938550e+02
   7.888947e+01  -1.469391e+02
   1.046324e+02  -3.812843e+01
   4.042719e+01   3.359424e+01
   4.055371e+01   9.992458e+00
   5.291629e+01  -3.699510e+01
   9.153397e+01  -7.314471e+00
   4.950078e+01   6.269474e+01
  -1.937777e+01   1.545164e+02
  -1.227915e+02   9.312833e+01
  -1.307636e+02  -5.069989e+01
   5.596838e+00  -1.094990e+02
   1.645646e+02  -8.095008e+01
   1.995541e+02   4.642951e+01
   1.197140e+02   1.943743e+02
  -8.510527e+01   2.331754e+02
  -2.495290e+02   6.624947e+01
  -2.073513e+02  -7.742436e+01
  -7.377027e+01  -1.330913e+02
   3.303795e+01  -1.271949e+02
   4.375887e+01  -6.654829e+01
   3.323600e+01  -6.252109e+01
   5.470542e+01  -8.447885e+01
   7.144045e+01  -8.457316e+01
   1.204619e+02   6.061378e+00
   1.323793e+02   1.383852e+02
   4.829568e+01   1.895885e+02
  -9.706812e+01   1.427649e+02
  -1.736262e+02  -8.948229e+00
  -1.203430e+02  -1.073353e+02
   5.618476e+00  -1.425409e+02
   6.909190e+01  -8.540397e+01
   3.499104e+01  -1.553242e+00
  -2.667942e+01   3.417606e+01
  -3.133869e+01   2.406226e+01
   2.371724e+01  -2.202117e+01
   8.687272e+01  -5.089130e+00
   5.562063e+01   1.138618e+01
  -3.531891e+01   6.003294e+01
  -1.530447e+02  -2.073953e+01
  -1.305728e+02  -2.527723e+01
   1.327026e+01  -8.784769e+01
   1.118878e+02  -9.250377e+01
   1.290827e+02   1.684008e+01
   5.298942e+01   5.064015e+01
  -3.927750e+01   2.301954e+01
  -3.083381e+01  -5.893477e+01
   5.476622e+00  -9.587894e+01
   2.826458e+01  -5.136106e+01
   5.503826e+01   1.066279e+00
   8.126130e+01   2.964081e+01
   2.031566e+01   1.585882e+01
   1.080170e+02   2.659900e+01
   6.140727e+01  -7.068429e+00
   5.964676e+00   9.158064e+01
  -2.680984e+01   1.119373e+02
  -1.220463e+02   1.557787e+02
  -1.425948e+02   3.128414e+01
  -1.288568e+02  -1.007134e+02
  -5.547397e+00  -1.195695e+02
   7.215514e+01  -5.758832e+01
   3.969310e+01  -4.600490e-02
  -3.603262e+01   3.713267e+01
  -1.285931e+02  -1.427672e+01
  -6.861848e+01  -9.444420e+01
   7.496123e+01  -8.618283e+01
   1.621399e+02  -3.710604e+01
   1.321198e+02   1.264012e+01
   2.271977e+01   4.484043e+01
  -7.978806e+01   5.265624e+01
  -5.782307e+01   6.792691e+00
   2.653602e+01  -4.137874e+01
   1.042312e+02   5.834140e+01
   5.208536e+01   5.191988e+01
  -6.190743e+01   1.234711e+02
  -1.205594e+02   7.112687e+01
  -1.403229e+02  -8.043440e+01
  -2.080745e+01  -1.813426e+02
   3.233012e+01  -1.106913e+02
   8.414141e+01  -6.608737e+00
   4.532202e+01   7.817360e+01
  -7.616123e+00   8.080244e+01
  -5.773930e+01   3.031423e+01
  -5.145178e+01  -1.918187e+01
  -2.161986e+01  -1.737918e+01
   8.451529e+00   7.050804e+00
  -4.633206e+01   8.024119e-01
  -1.932631e+01  -5.559891e+01
  -3.162494e+01  -5.824165e+01
   4.294327e+01  -1.664229e+01
   1.125475e+02   3.929854e+01
   7.962319e+01   4.962912e+01
   3.842495e+01   6.404249e+01
  -7.218540e+01   2.674535e+01
  -6.757716e+01   8.026703e+00
  -2.644407e+01  -2.354134e+01
   6.921426e+01  -1.559319e+01
   1.674118e+01   1.477091e+00
  -2.321097e+01  -5.660045e+00
   6.535872e+00  -2.083728e+01
   7.613389e+01  -2.489894e+01
   6.743239e+01   1.522472e+01
   5.816129e+01   7.937702e+01
  -7.186736e+01   9.949009e+01
  -1.461117e+02   8.245773e+01
  -1.457057e+02  -3.172502e+01
  -4.072672e+01  -1.381752e+02
   7.545771e+01  -1.802138e+02
   1.144724e+02  -5.796370e+01
   5.250680e+01   4.464381e+01
  -7.165428e+00   2.043640e+01
  -9.419033e+00  -1.397464e+01
   1.149497e+01  -6.742934e+00
   2.325718e+01   2.489866e+01
   3.451134e+01   1.004335e+02
   7.824271e+00   6.846873e+01
  -7.054716e+01  -7.410805e+00
  -8.120351e+01  -7.102373e+01
  -1.681050e+01  -1.001300e+02
   6.210357e+01  -3.783462e+01
   1.421924e+02   4.410902e+01
   9.264571e+01   8.771330e+01
  -4.777206e+01   6.206150e+01
  -7.079447e+01  -1.502255e+01
  -5.626145e+01  -3.860726e+01
   4.726159e+01  -2.050543e+01
   1.625329e+01  -2.890271e+01
  -5.688911e+01   1.303501e+01
  -7.399449e+01   1.564071e+01
  -2.959554e+01  -5.811716e+00
   8.284178e+01  -8.112420e+01
   9.763211e+01  -5.479935e+01
   5.978062e+01   6.883512e+00
  -2.292962e+01   9.161516e+01
  -4.179527e+01   1.079795e+02
  -3.732541e+01   1.565453e+01
  -1.816658e+01  -3.651694e+01
   1.698062e+01  -6.578451e+01
   1.783872e+01   1.368842e+01
   1.271401e+01   3.594022e+00
  -2.502643e+01  -8.282653e+00
  -1.290202e+01  -4.643683e+00
  -3.607224e+00  -4.634545e+01
  -3.096679e+01  -1.998950e+01
  -2.735551e-01   1.897201e+01
  -1.132236e+01   1.639287e+01
   3.033720e+01  -1.041628e+01
   1.348622e-01  -4.125412e+01
   2.648219e+01  -4.646958e+01
   4.326670e+01   2.400058e+01
   9.768426e+00   3.348882e+01
  -6.036703e+01  -9.208312e+00
  -3.873381e+01  -9.043269e+00
  -8.724041e+00  -9.044260e+01
   6.851578e+01  -1.300029e+01
   5.675539e+01   4.782294e+01
   6.525927e+01   4.496856e+01
   1.702102e-02   5.465175e+01
  -4.534594e+01   4.275089e+01
   1.480018e+01  -1.893211e+00
   3.523174e+01  -2.104286e+00
   1.094078e+01   3.006049e+01
  -8.436487e+00   3.396592e+01
  -7.575644e+01   2.095260e+01
