
 $NMID
 id='ANONYMOUS ', fmtdat='(2E16.6)'
 volume=1.0
 tramp=1.0
 $END
  -3.693620e+03   1.336558e+02
  -2.258527e+03  -2.110413e+03
   6.530452e+02  -1.911210e+03
   1.613524e+03  -8.627292e+02
   6.527905e+02   3.882585e+02
  -4.977571e+02   4.068573e+02
  -6.326276e+02  -3.628122e+02
   4.285573e+01  -8.485279e+02
   5.726262e+02  -5.997532e+02
   7.497877e+02   4.988260e+01
   4.355453e+02   6.117616e+02
  -1.615628e+02   6.832519e+02
  -4.873677e+02   1.246154e+02
  -3.333193e+02  -5.940187e+02
   2.039459e+02  -5.982105e+02
   5.052584e+02  -3.340091e+00
   2.623934e+02   4.709029e+02
  -2.139618e+02   5.161389e+02
  -4.536987e+02   1.039524e+02
  -3.390645e+02  -2.661991e+02
  -4.496948e+01  -3.747538e+02
   1.801420e+02  -2.275118e+02
   2.023391e+02   6.138168e+01
  -6.239997e+01   1.217218e+02
  -3.498719e+02  -4.046971e+01
  -2.413995e+02  -4.189813e+02
   3.482660e+02  -3.830559e+02
   7.360606e+02   5.852221e+00
   3.847251e+02   4.208688e+02
  -3.148736e+02   4.382360e+02
  -6.213782e+02   3.094556e+01
  -2.785512e+02  -3.784515e+02
   2.016632e+02  -4.351715e+02
   4.708091e+02  -1.915660e+02
   3.471571e+02   1.649936e+02
   3.619471e+01   4.145392e+02
  -1.608919e+02   1.965473e+02
  -1.487981e+02  -2.269911e+02
   1.002529e+02  -4.112300e+02
   3.911259e+02  -3.948941e+01
   2.039553e+02   5.170687e+02
  -2.530403e+02   5.854050e+02
  -5.167144e+02   4.963763e+00
  -2.258084e+02  -4.622137e+02
   2.410135e+02  -2.296480e+02
   3.127109e+02   2.312697e+02
  -4.552825e+00   4.719615e+02
  -4.192801e+02   2.006667e+02
  -4.720801e+02  -2.581350e+02
  -7.893549e+01  -4.510156e+02
   2.761973e+02  -2.930526e+02
   4.856468e+02   7.482155e+01
   3.433228e+02   3.052521e+02
  -1.211292e+02   2.436903e+02
  -3.268891e+02   2.616897e+01
  -1.920963e+02  -1.236358e+02
   1.053273e+02  -5.650059e+01
   1.110049e+02   1.489835e+02
  -1.652076e+02   1.679143e+02
  -2.897606e+02  -8.574128e+01
  -1.564062e+02  -2.274286e+02
   1.254694e+02  -2.213935e+02
   2.334505e+02  -6.798376e+01
   1.464073e+02   1.959484e+01
   2.151260e+01   1.927296e+02
  -1.502879e+02   3.105269e+02
  -2.580745e+02   2.102872e+02
  -2.516656e+02  -7.595031e+01
  -1.194260e+02  -3.118834e+02
   1.178595e+02  -2.940062e+02
   9.984411e+01  -7.887438e+01
   7.172228e+00   1.892258e+01
   3.727176e+01  -8.455841e+01
   1.313771e+02  -1.278400e+02
   2.453010e+02  -4.833623e+00
   1.460642e+02   1.598682e+02
  -5.874262e+01   2.155119e+02
  -1.684877e+02   2.296851e+01
  -1.899609e+02  -1.956425e+02
   7.897815e+00  -2.182434e+02
   1.861421e+02  -1.347640e+02
   3.141762e+02   1.233720e+02
   1.594912e+02   2.423604e+02
  -5.079088e+01   2.683739e+02
  -1.724117e+02   1.128404e+02
  -9.012477e+01   2.622963e+00
  -8.344748e+01   2.516178e+01
  -1.784645e+02   6.885901e+01
  -2.866015e+02  -1.320281e+01
  -2.709991e+02  -1.888495e+02
  -3.506788e+01  -3.186905e+02
   2.141237e+02  -3.954154e+02
   4.042561e+02  -2.498414e+02
   3.167191e+02   4.352417e+01
   7.449430e+01   2.159054e+02
  -6.172469e+01   2.158076e+02
  -6.629806e+01   4.312967e+00
   7.299338e+01  -8.739331e+01
   1.432297e+02  -1.857777e+01
   5.136687e+01   1.586146e+02
  -1.133358e+02   1.576740e+02
  -1.373558e+02  -4.320780e+01
   3.427431e+01  -1.644408e+02
   1.848491e+02  -3.956947e+01
   1.740374e+02   1.887644e+02
  -8.347098e+00   2.835378e+02
  -1.908669e+02   2.046452e+02
  -2.747927e+02   5.926866e+00
  -2.298875e+02  -1.712479e+02
  -9.041931e+01  -2.230577e+02
   7.947009e+01  -1.354281e+02
   1.324958e+02  -3.784441e+01
   4.136518e+01   2.419542e+01
  -6.608222e+01  -6.676673e+01
  -4.933298e+01  -8.270231e+01
   1.299670e+02  -1.053891e+02
   1.623825e+02   1.616434e+01
   7.387452e+01   7.312592e+01
  -7.682502e+01   2.862807e+01
  -5.680683e+01  -7.676463e+01
   6.719524e+01  -9.566482e+01
   1.908788e+02  -3.827433e+01
   1.897255e+02   1.081346e+02
   5.720687e+01   2.251172e+02
  -9.811094e+01   2.102019e+02
  -2.141476e+02   1.352166e+02
  -1.252374e+02  -3.310650e+01
  -1.292929e+00  -8.231007e+01
   8.109368e+01   1.096995e+01
  -1.204396e+01   7.250150e+01
  -1.677260e+02   7.177021e+01
  -1.737422e+02  -5.702617e+01
  -5.053212e+01  -1.531249e+02
   6.720265e+01  -1.200850e+02
   9.989951e+01  -2.000721e+01
   5.141976e+01   4.076204e+01
  -3.222773e+01  -4.965958e+00
  -4.629009e+01  -8.748564e+01
   4.815028e+01  -1.204091e+02
   1.711208e+02  -7.216369e+01
   1.779963e+02   6.157002e+01
   5.520348e+01   1.864576e+02
  -1.363792e+02   1.123712e+02
  -1.486964e+02  -1.642358e+00
  -4.623015e+01  -9.349849e+01
   4.572180e+01  -8.397475e+01
   6.261859e+01  -1.157818e+01
   3.097071e+01   5.753560e+00
  -1.938106e+01   3.786235e+01
   1.782721e+01  -1.004493e+01
   6.144755e+01  -2.243422e+00
   6.898515e+01   6.772085e+01
   5.785958e+01   1.178417e+02
  -1.169907e+02   1.164417e+02
  -1.985185e+02  -1.718916e+00
  -1.774952e+02  -1.200748e+02
  -8.630858e+00  -1.667024e+02
   7.625770e+01  -1.241222e+02
   7.502179e+01  -3.044268e+01
   4.658332e+01   4.692295e+01
   3.466991e+01   1.336521e+01
   3.402724e+01  -1.104805e+00
   6.921799e+01   1.397715e+01
   6.391241e+01   1.427161e+01
  -1.532760e+01   1.000630e+02
  -4.885121e+01   6.771691e+01
  -7.395346e+01  -2.721039e+00
   8.713611e+00  -1.150634e+02
   1.132688e+02  -8.618507e+01
   1.669620e+02   2.266281e+01
   1.095441e+02   1.220906e+02
  -8.140230e+01   1.905688e+02
  -1.959366e+02   9.325964e+01
  -2.151908e+02  -4.677781e+01
  -1.172192e+02  -1.438367e+02
   3.575523e+01  -1.184410e+02
   4.629391e+01  -8.521045e+01
   8.057601e+01  -4.916301e+01
   8.063628e+01  -9.549078e+01
   2.557438e+01  -4.285695e+01
   1.296809e+02  -5.527086e+00
   8.346154e+01   1.315120e+02
   8.556979e+01   1.401503e+02
  -6.855352e+01   1.250254e+02
  -1.153783e+02   3.597477e+01
  -1.130753e+02  -8.655180e+01
  -2.168365e+01  -1.398241e+02
   4.160547e+01  -9.371685e+01
   5.081177e+01  -3.542217e+01
  -2.077832e+00   2.645919e+01
   1.194599e+01   1.078776e+01
   2.205565e+01   2.915881e+01
   5.302955e+01   3.248680e+01
   1.725320e+01   2.440656e+01
  -1.125516e+01   3.627376e+01
  -1.296023e+02   2.376948e+01
  -1.167624e+02  -3.492272e+00
  -2.584312e+01  -4.937249e+01
   5.935099e+01  -5.032942e+01
   9.687938e+01  -3.374692e+01
   2.794511e+01   2.529935e+01
  -4.892761e+01   1.941887e+01
  -5.116363e+01   4.842585e+00
  -2.173590e+01  -5.823264e+01
   5.140469e+01  -3.703526e+01
   3.616696e+01  -6.153758e+00
   5.140083e+01   1.868316e+01
   4.668734e+01   4.640619e+01
   2.258411e+01   1.429018e+01
   9.810797e+00  -5.612603e+00
   3.203468e+01   4.320709e+01
  -3.675442e+01   1.015488e+02
  -6.847449e+01   1.015324e+02
  -9.551638e+01   2.131644e+01
  -1.115562e+02  -4.893488e+01
  -2.321936e+01  -1.111084e+02
   8.769545e+01  -5.994737e+01
   2.113116e+01   1.332344e+01
  -3.677078e+01   1.086756e+01
  -1.108347e+02  -4.221012e+01
  -7.826079e+01  -7.519957e+01
   3.161714e+01  -1.172991e+02
   1.293451e+02  -6.600129e+01
   1.428177e+02   4.789245e+01
   5.377040e+01   6.909909e+01
  -4.020223e+01   4.249131e+01
  -2.404140e+01   1.778516e+00
   5.029654e+00  -1.577112e+01
   6.663175e+01   1.916599e+01
   6.856835e+01   9.146949e+01
  -4.460827e+01   1.193379e+02
  -1.197281e+02   5.916228e+01
  -1.183370e+02  -4.318491e+01
  -2.109036e+01  -1.514540e+02
   7.708073e+01  -1.336607e+02
   9.828641e+01  -4.954605e+00
   5.560789e+01   9.070491e+01
   9.201120e-01   7.938151e+01
  -1.547531e+01   5.447586e+01
  -3.036387e+01  -1.839835e+01
  -4.675096e+00  -1.924107e+01
  -1.113771e+01   2.530881e+01
   7.579600e+00  -1.949834e+01
  -4.383390e+01  -7.961447e+01
  -3.525058e+01  -7.974897e+01
   5.063992e+01  -5.628077e+01
   9.065129e+01   2.674701e+01
   6.999479e+01   3.966953e+01
   2.114251e+01   5.039185e+01
  -6.749325e+01   7.219880e-01
  -6.935649e+01   2.185330e+00
   1.568729e+00  -1.084865e+00
   4.197656e+01  -8.794923e+00
   1.005184e+01   2.438838e+01
  -3.237269e+01   1.738287e+01
  -1.306976e+01   1.583050e+01
   5.161814e+01   4.162525e+00
   8.899412e+01   8.926400e+00
   1.642072e+01   5.400399e+01
  -8.768439e+01   6.387580e+01
  -1.374968e+02   6.007002e+01
  -1.303010e+02  -1.985296e+01
  -1.489029e+00  -1.510296e+02
   5.230686e+01  -1.313249e+02
   1.173924e+02  -4.692312e+01
   5.839121e+01   3.744758e+01
  -4.867596e+00   2.215614e+01
   1.804161e+01  -3.171397e+01
   5.748633e+00   1.803076e+01
   2.558202e+01   1.982843e+01
   6.108675e+00   5.545380e+01
  -3.769560e+01   5.161985e+01
  -5.506548e+01   7.692326e+00
  -5.090201e+01  -6.992838e+01
  -9.092045e+00  -6.399058e+01
   5.922503e+01  -6.215461e-01
   7.985088e+01   6.101112e+01
   4.798034e+01   6.477537e+01
  -5.109547e+01   5.861526e+01
  -8.178718e+01   2.952720e+00
  -6.220044e+00  -1.469212e+01
   4.637726e+01  -1.762040e+01
   1.632922e+01  -1.358745e+01
  -5.425116e+00   8.801280e+00
  -5.907705e+01   1.941895e+01
  -2.300876e+00  -1.863239e+01
   7.519718e+01  -6.949564e+01
   1.006631e+02  -7.227618e+01
   5.985515e+01   2.613328e+01
  -2.404234e+01   6.387764e+01
  -7.501449e+01   8.942010e+01
  -1.521494e+00   1.765927e+01
   2.069129e-01  -4.998240e+01
   4.968380e+01  -2.358122e+01
   1.403176e+01   5.610945e+01
   3.691198e+00   5.704919e+01
   1.592020e+01   4.250010e+01
  -4.240280e+01  -2.133278e+01
  -4.134069e+01  -2.306197e+01
  -2.673183e+01  -2.971169e+01
  -1.529572e+00   5.511775e-01
   4.891285e-01  -1.291588e+00
  -3.378704e+00   9.537247e+00
   7.545103e+00  -2.382202e+01
  -2.244968e+01  -3.447727e+00
   5.855476e+01   7.586072e+00
  -1.347597e+01   1.100666e+01
  -3.436670e+01   9.319214e+00
  -3.688978e+01  -3.716711e+01
  -2.431868e+00  -2.064378e+01
   3.067517e+01  -1.662121e+01
   5.534484e+01   1.622952e+01
   3.938814e+01   3.677900e+00
   8.744386e+00   4.294392e+01
  -6.549041e+01   4.349418e+01
  -4.407398e+01  -9.448568e+00
  -3.472384e+00   1.311173e+01
   5.089346e+01  -1.034620e+01
   5.981434e+00   3.451366e+01
  -5.675630e+01   1.522000e+01
