
 $NMID
 id='ANONYMOUS ', fmtdat='(2E16.6)'
 volume=1.0
 tramp=1.0
 $END
  -4.462268e+03   6.499843e+01
  -2.559681e+03  -2.466544e+03
   6.860530e+02  -2.587046e+03
   2.011484e+03  -8.678033e+02
   9.434182e+02   5.059824e+02
  -7.601907e+02   5.245538e+02
  -8.545397e+02  -4.339156e+02
   1.503792e+01  -1.058807e+03
   8.003907e+02  -7.640410e+02
   8.939918e+02   3.944316e+01
   4.574295e+02   8.286050e+02
  -1.519617e+02   9.081568e+02
  -6.227956e+02   1.362953e+02
  -3.854959e+02  -6.923479e+02
   2.258550e+02  -7.912316e+02
   6.044281e+02  -6.308107e+01
   3.417286e+02   6.256880e+02
  -2.397253e+02   6.491778e+02
  -5.280979e+02   1.570465e+02
  -4.199589e+02  -3.176495e+02
  -1.699248e+01  -4.139826e+02
   2.401938e+02  -2.898367e+02
   2.552705e+02   1.712438e+01
  -6.734594e+01   1.106515e+02
  -4.414306e+02  -7.576065e+01
  -2.731599e+02  -4.182258e+02
   4.418734e+02  -4.398900e+02
   9.152975e+02  -3.376066e+01
   4.796224e+02   5.386842e+02
  -3.775389e+02   5.173970e+02
  -7.802446e+02   2.442767e+01
  -3.957307e+02  -4.461018e+02
   2.424623e+02  -5.277433e+02
   5.428032e+02  -2.441205e+02
   4.048810e+02   2.259482e+02
   5.048999e+01   4.936026e+02
  -2.069731e+02   2.513074e+02
  -1.757712e+02  -2.405357e+02
   1.604104e+02  -4.535609e+02
   4.814905e+02  -4.139538e+01
   2.402992e+02   6.201662e+02
  -2.971340e+02   7.152120e+02
  -6.197496e+02   3.883114e+01
  -2.927846e+02  -5.601297e+02
   2.517179e+02  -2.884151e+02
   4.024328e+02   2.936311e+02
  -1.333759e+01   5.057793e+02
  -5.679399e+02   1.574815e+02
  -5.957455e+02  -3.366585e+02
  -1.845056e+02  -5.971416e+02
   3.515556e+02  -3.857159e+02
   6.331470e+02   6.378567e+01
   3.733014e+02   3.621708e+02
  -1.293370e+02   3.770237e+02
  -4.861159e+02   6.908649e+01
  -2.222795e+02  -2.087496e+02
   1.347867e+02  -1.025414e+02
   1.589868e+02   1.494250e+02
  -1.595968e+02   2.367904e+02
  -3.475624e+02  -6.824032e+01
  -1.512391e+02  -3.119408e+02
   1.392025e+02  -2.656814e+02
   3.222509e+02  -1.139182e+02
   2.226794e+02   6.637681e+01
   5.718942e+01   2.342732e+02
  -1.212455e+02   3.742431e+02
  -3.190627e+02   2.465517e+02
  -2.827139e+02  -8.240210e+01
  -1.213033e+02  -4.363312e+02
   1.127206e+02  -3.557911e+02
   1.234306e+02  -8.257821e+01
   1.769800e+01   5.201522e+01
   2.169138e+01  -8.404642e+01
   2.005688e+02  -1.589122e+02
   2.630634e+02   4.328915e+01
   2.027426e+02   2.437329e+02
  -5.398585e+01   2.630907e+02
  -2.459374e+02   3.188613e+01
  -2.387349e+02  -2.246255e+02
   1.256339e+01  -2.885417e+02
   2.543873e+02  -1.521258e+02
   3.934941e+02   1.003450e+02
   2.140755e+02   2.899031e+02
  -5.261936e+01   3.232367e+02
  -2.085541e+02   1.448206e+02
  -1.880258e+02  -3.537950e+00
  -9.824730e+01   1.696018e+01
  -2.088118e+02   7.938863e+01
  -3.738773e+02   1.750224e+01
  -3.169860e+02  -2.234418e+02
  -9.821593e+00  -3.862794e+02
   3.443428e+02  -3.931619e+02
   4.804740e+02  -2.311415e+02
   3.679683e+02   7.202291e+01
   8.461625e+01   2.659547e+02
  -1.318185e+02   2.482516e+02
  -1.209051e+02   4.557748e+00
   9.468654e+01  -9.711895e+01
   2.017168e+02  -2.054055e+01
   3.747192e+01   1.727783e+02
  -1.630164e+02   1.819778e+02
  -1.528464e+02  -6.731673e+01
  -5.464854e+00  -2.023855e+02
   1.940930e+02  -2.807078e+01
   2.057836e+02   2.492785e+02
   1.954084e+00   3.950638e+02
  -2.309494e+02   2.396950e+02
  -3.413655e+02   3.542195e+00
  -2.651271e+02  -2.392068e+02
  -1.048891e+02  -2.519739e+02
   9.344559e+01  -1.522994e+02
   1.900027e+02  -3.058629e+01
   6.210869e+01   3.698097e+01
  -5.199461e+01  -1.572770e+00
  -3.850743e+01  -1.430259e+02
   1.033488e+02  -1.209572e+02
   1.732085e+02  -1.906798e+01
   6.930080e+01   5.537956e+01
  -7.719604e+01   3.580210e+01
  -6.328952e+01  -6.414957e+01
   1.193340e+02  -7.424079e+01
   2.609559e+02  -5.030146e+01
   2.636704e+02   1.205483e+02
   8.973854e+01   2.300847e+02
  -1.672991e+02   2.808031e+02
  -3.021581e+02   1.882980e+02
  -1.465370e+02  -5.245074e+01
   3.758073e+01  -1.023901e+02
   7.424424e+01  -5.474233e-01
   6.014178e+00   9.279631e+01
  -1.730927e+02   5.878661e+01
  -2.396152e+02  -6.923280e+01
  -1.030727e+02  -2.055765e+02
   7.820059e+01  -1.534509e+02
   1.379189e+02  -6.365313e+01
   4.373184e+01   1.631599e+01
  -4.186805e+01   3.226703e+01
  -4.400387e+01  -6.713743e+01
   7.266920e+01  -9.724775e+01
   1.836444e+02  -2.073638e+01
   1.999755e+02   1.175226e+02
   1.894434e+01   1.951570e+02
  -1.924586e+02   1.675399e+02
  -1.872220e+02  -4.699628e-01
  -8.433005e+01  -1.402076e+02
   5.815268e+01  -1.281391e+02
   1.020365e+02  -2.294935e+01
   3.085359e+01   3.827830e+01
  -3.264483e+01   1.232541e+01
   1.045105e+01  -1.605999e+01
   7.702509e+01  -2.473062e+01
   8.578389e+01   7.470060e+01
   3.912582e+01   1.622991e+02
  -1.126332e+02   1.796598e+02
  -2.242939e+02   5.305752e+01
  -2.396857e+02  -1.417318e+02
  -3.386037e+01  -2.228798e+02
   9.546936e+01  -1.706659e+02
   1.422691e+02  -2.875663e+01
   8.972992e+01   4.402043e+01
   1.654068e+01   4.284765e+01
   3.969493e+01  -1.628012e+01
   4.752416e+01  -2.377097e+01
   4.488803e+01   5.188032e+01
  -1.763008e+01   1.122255e+02
  -5.322906e+01   5.073177e+01
  -8.777108e+01  -5.100275e+00
   1.401349e+01  -1.252205e+02
   1.251213e+02  -1.238611e+02
   2.008450e+02   3.817281e+01
   1.214620e+02   1.891017e+02
  -8.428472e+01   2.458647e+02
  -2.706121e+02   1.163359e+02
  -2.496761e+02  -5.968854e+01
  -1.204745e+02  -2.081101e+02
   1.026575e+01  -1.428701e+02
   1.016840e+02  -1.020684e+02
   4.824163e+01  -4.862559e+01
   4.621250e+01  -1.172274e+02
   7.369430e+01  -9.633306e+01
   1.255082e+02  -7.348675e-01
   1.154004e+02   1.358652e+02
   5.258558e+01   1.960798e+02
  -1.066071e+02   1.718960e+02
  -1.709738e+02   2.701241e+01
  -1.533870e+02  -9.840377e+01
  -2.239436e+01  -1.219602e+02
   3.092729e+01  -1.157470e+02
   7.434672e+01  -1.943602e+01
   1.194884e+01   3.209032e+01
  -2.913445e-01   4.302113e+01
   3.178183e+01   3.662076e+01
   6.853625e+01   3.522678e+01
   2.353450e+01   2.355355e+01
  -5.056709e+01   6.195624e+01
  -1.393381e+02   2.278995e+01
  -1.265171e+02  -1.402340e+01
  -2.040547e+01  -6.587802e+01
   9.986622e+01  -7.638717e+01
   1.368685e+02  -4.052791e+00
   1.888693e+01   3.175977e+01
  -4.887620e+01   2.645224e+01
  -4.670874e+01  -3.421747e+00
  -3.970037e+00  -4.005829e+01
   3.021527e+01  -5.610774e+01
   6.580986e+01   1.626554e+00
   4.372214e+01   6.311214e+01
   3.420359e+01   1.193409e+01
   5.912344e+01  -8.652799e+00
   3.926710e+01  -6.373047e+00
   2.839791e+01   4.696124e+01
  -2.293508e+01   1.074136e+02
  -7.861256e+01   1.162948e+02
  -1.369396e+02   4.056506e+01
  -1.086866e+02  -6.517331e+01
  -2.008725e+01  -1.146841e+02
   5.847555e+01  -7.546185e+01
   3.389588e+01   1.872341e+01
  -3.336668e+01  -5.053909e-01
  -1.318184e+02  -5.415053e+01
  -6.421239e+01  -7.553549e+01
   8.314881e+01  -1.045323e+02
   1.718955e+02  -4.700205e+01
   1.524385e+02   1.005553e+01
   5.004353e+01   7.893364e+01
  -3.140797e+01   5.327496e+01
  -5.022279e+01   2.728687e+01
   3.200945e+01  -3.594254e+01
   6.350764e+01   1.304617e+01
   3.111015e+01   1.167049e+02
  -9.806566e+01   1.317844e+02
  -1.264198e+02   4.562464e+01
  -8.048417e+01  -9.260858e+01
  -2.884292e+01  -1.943746e+02
   1.566975e+01  -1.721613e+02
   1.117984e+02  -3.284136e+01
   7.772329e+01   8.641190e+01
   2.105089e+01   1.065582e+02
  -1.522134e+01   9.436525e+00
  -6.131437e+01  -4.679495e+01
   3.144495e+00  -2.731161e+01
  -9.236405e+00   2.570457e+01
  -4.531341e+01   9.194001e+00
  -6.357742e+01  -1.134422e+02
  -4.390584e+01  -1.151088e+02
   4.223169e+01  -5.721955e+01
   1.065386e+02   2.337297e+01
   9.159125e+01   7.029500e+01
   1.291908e+01   3.783688e+01
  -9.216236e+01   1.783820e+01
  -6.483316e+01   2.515429e+01
   1.819125e+01   2.317263e+01
   2.601264e+01  -1.468603e+01
   1.450024e+01  -2.472375e+01
  -1.488346e+01  -3.365029e+01
  -7.497102e+00   1.986496e+01
   7.636371e+01   3.031821e+01
   9.960625e+01   5.026842e+00
  -1.547592e+00   9.331836e+01
  -1.066963e+02   1.202242e+02
  -1.707790e+02   5.808680e+01
  -1.201237e+02  -2.681282e+01
  -2.354857e+01  -1.459155e+02
   5.450062e+01  -1.296301e+02
   1.318521e+02  -5.696123e+01
   4.986898e+01   3.154854e+00
   2.003349e+01   2.128765e+01
   2.287105e+01  -2.969819e+00
  -1.623313e+00   2.704498e+00
   4.299123e+01   7.763546e+01
   4.073005e+00   7.862842e+01
  -1.298080e+01   4.994309e+01
  -8.533193e+01  -2.108735e+01
  -7.321880e+01  -8.696260e+01
  -4.750297e+01  -1.054974e+02
   8.290540e+01  -1.000593e+01
   1.188895e+02   5.654377e+01
   4.907641e+01   9.252606e+01
  -5.051446e+01   3.559472e+01
  -8.703104e+01  -2.270641e+01
  -5.213952e+01  -3.557950e+01
   3.772481e+00  -6.494350e+01
   3.189898e+01  -2.599719e+01
   2.189602e+01  -4.906405e+01
  -9.477976e+01   1.342816e+01
  -2.137538e+01  -2.861623e+01
   5.758981e+01  -4.540711e+01
   7.636638e+01  -5.868675e+01
   5.670251e+01   1.906443e+01
  -7.212348e+00   7.184553e+01
  -4.978206e+01   4.781681e+01
  -5.911975e+01   1.358829e+01
  -6.916036e+00  -6.928536e+01
   7.452789e+00  -2.525140e+01
   3.122396e+01   2.739586e+01
   1.302288e+01   5.532282e+01
  -4.500589e+00   3.412096e+01
  -1.709820e+01   1.864207e+01
  -5.550682e+01  -1.485578e-01
   1.175016e+01  -9.116235e+00
  -4.050709e+01   1.155096e+00
   1.593200e+01  -5.752072e+00
   1.264362e+00  -3.274684e+01
  -9.493692e-01  -6.030776e+01
   1.456793e+01  -7.757190e+00
   2.209574e+01   4.106625e+01
   9.692736e+00   6.069412e+01
  -4.995604e+01   1.529203e+01
  -7.204717e+01  -6.026373e+01
  -2.163996e+01  -7.257391e+01
   5.716472e+01  -4.186387e+01
   6.533253e+01   5.429346e+01
   4.612206e+01   4.441426e+01
  -9.660533e+00   4.703617e+01
  -5.962843e+01   1.437894e+01
  -4.124935e+01  -1.931311e+01
   3.322318e+01   5.261075e+00
   4.061359e+01  -1.075905e+01
  -4.700461e+01   5.407078e+01
  -1.086937e+02   1.857851e+01
