
 $NMID
 id='ANONYMOUS ', fmtdat='(2E16.6)'
 volume=1.0
 tramp=1.0
 $END
  -4.635055e+03   3.813913e+02
  -2.668344e+03  -2.306829e+03
   5.561294e+02  -2.696710e+03
   2.097598e+03  -9.758969e+02
   8.369868e+02   6.867905e+02
  -7.256471e+02   3.565514e+02
  -8.122347e+02  -5.266176e+02
   5.815533e+01  -1.132616e+03
   8.135197e+02  -7.387137e+02
   8.825940e+02   1.020665e+02
   4.011220e+02   7.859889e+02
  -2.761763e+02   8.054200e+02
  -5.766665e+02   8.971946e+01
  -3.952952e+02  -6.984537e+02
   2.653769e+02  -7.705506e+02
   5.463031e+02  -2.431590e+01
   2.790000e+02   6.144771e+02
  -2.764239e+02   6.647852e+02
  -5.429064e+02   7.068161e+01
  -3.430256e+02  -3.145188e+02
  -2.066871e+01  -4.200421e+02
   2.066901e+02  -2.353977e+02
   1.810509e+02   1.389572e-01
  -1.504357e+02   6.328689e+01
  -4.269211e+02  -1.424948e+02
  -2.110329e+02  -4.582997e+02
   4.667601e+02  -4.265176e+02
   8.310097e+02   7.417273e+01
   4.585512e+02   5.330764e+02
  -3.740249e+02   4.534122e+02
  -7.204879e+02  -4.873150e+01
  -3.599515e+02  -5.178262e+02
   2.809409e+02  -5.184436e+02
   5.718893e+02  -2.066378e+02
   3.656354e+02   2.105356e+02
   6.499779e+01   4.266961e+02
  -2.046155e+02   2.548330e+02
  -1.450764e+02  -2.396230e+02
   1.481226e+02  -4.511317e+02
   4.805999e+02   6.388345e+00
   3.002346e+02   6.881456e+02
  -3.415821e+02   7.209830e+02
  -5.739452e+02   4.714965e+01
  -2.777573e+02  -5.637793e+02
   2.883460e+02  -3.280763e+02
   4.329644e+02   3.318050e+02
  -8.456852e+01   5.915038e+02
  -5.781683e+02   1.355564e+02
  -5.784423e+02  -4.059274e+02
  -1.632695e+02  -5.795171e+02
   3.722726e+02  -3.333630e+02
   5.972578e+02   7.810593e+01
   3.744002e+02   3.652579e+02
  -1.344658e+02   3.147075e+02
  -5.028618e+02   7.625316e+01
  -2.119177e+02  -1.556646e+02
   1.123649e+02  -6.355917e+01
   1.616150e+02   1.836144e+02
  -1.837608e+02   2.139100e+02
  -3.634997e+02  -4.230595e+01
  -1.666197e+02  -2.893829e+02
   2.193281e+02  -2.798880e+02
   3.035236e+02  -7.448655e+01
   1.946711e+02   1.078347e+02
   2.747150e+00   2.327437e+02
  -1.774148e+02   3.683268e+02
  -2.957758e+02   1.908262e+02
  -3.293809e+02  -9.430631e+01
  -1.234585e+02  -4.115039e+02
   6.259292e+01  -3.829265e+02
   1.129187e+02  -1.213192e+02
   1.931227e+01  -2.223319e+01
   4.961042e+01  -1.199367e+02
   2.162974e+02  -1.664487e+02
   2.924334e+02   6.218588e+01
   1.701052e+02   2.888993e+02
  -6.504418e+01   2.542254e+02
  -2.638871e+02   4.621851e+01
  -2.085452e+02  -2.690827e+02
  -2.926156e+00  -3.230340e+02
   2.585171e+02  -1.462814e+02
   3.727912e+02   1.425821e+02
   2.173703e+02   3.353397e+02
  -8.041168e+01   3.594189e+02
  -2.088796e+02   1.349778e+02
  -1.311943e+02   9.155591e+00
  -6.089798e+01   6.267345e+01
  -2.453424e+02   1.326040e+02
  -3.973805e+02  -1.367074e+01
  -3.713879e+02  -2.756581e+02
  -5.035018e+01  -4.938444e+02
   2.966046e+02  -4.394000e+02
   5.238348e+02  -2.506696e+02
   3.269526e+02   6.456383e+01
   7.556154e+01   3.196050e+02
  -1.401684e+02   2.583437e+02
  -7.638345e+01   1.823442e+01
   1.503347e+02  -1.328396e+02
   2.180363e+02  -6.987751e+00
   6.665952e+01   2.082589e+02
  -1.609370e+02   1.811046e+02
  -1.511811e+02  -4.663337e+01
   1.694587e+01  -2.167441e+02
   1.822403e+02  -8.194735e+01
   1.988405e+02   2.355868e+02
  -1.004010e+01   3.412607e+02
  -2.268177e+02   2.298788e+02
  -3.294253e+02  -4.601979e+01
  -2.972152e+02  -2.195974e+02
  -6.682430e+01  -2.413240e+02
   8.791888e+01  -2.036443e+02
   2.027524e+02  -1.505973e+01
   5.378616e+01   5.777705e+01
  -6.491674e+01  -6.880365e+00
  -4.538038e+01  -1.193664e+02
   1.381724e+02  -1.148080e+02
   2.170686e+02  -2.678433e+01
   5.247161e+01   6.902702e+01
  -7.932399e+01   3.514933e+01
  -7.000121e+01  -8.692202e+01
   1.127408e+02  -1.166019e+02
   2.553613e+02  -3.375136e+01
   2.623781e+02   1.918058e+02
   7.651477e+01   2.841695e+02
  -2.029320e+02   2.527880e+02
  -3.084200e+02   1.118282e+02
  -1.655789e+02  -5.784655e+01
  -2.003965e+01  -1.485783e+02
   5.629855e+01   1.313699e+01
  -5.507591e+01   1.287331e+02
  -1.734207e+02   6.668962e+01
  -2.367358e+02  -8.737703e+01
  -5.984069e+01  -1.896849e+02
   8.508571e+01  -1.652747e+02
   1.399781e+02  -3.433205e+01
   5.764661e+01   2.172390e+01
  -4.246946e+01  -4.699110e-01
  -5.545250e+01  -9.866583e+01
   8.447822e+01  -1.151230e+02
   1.957573e+02  -4.873757e+01
   1.960136e+02   1.107074e+02
   6.016046e+00   2.427406e+02
  -1.777856e+02   1.945324e+02
  -2.120253e+02  -3.045339e+01
  -6.549123e+01  -1.290741e+02
   2.587500e+01  -1.129746e+02
   6.852988e+01  -2.409101e+01
   3.340511e+01   3.907629e+01
  -8.853466e+00  -1.070969e+01
   4.088400e+01  -2.719585e+01
   7.201004e+01   2.885566e+01
   7.217741e+01   9.683851e+01
   2.448986e+01   1.530671e+02
  -1.286414e+02   1.444811e+02
  -2.398993e+02   6.342188e+01
  -1.965265e+02  -1.243653e+02
  -2.836640e+01  -2.492929e+02
   9.393633e+01  -1.680017e+02
   1.303839e+02  -2.092911e+01
   5.536590e+01   5.607377e+01
   6.627740e+00   3.774858e+01
   5.205469e+01  -4.711478e+01
   5.074867e+01  -1.867234e+01
   4.094975e+01   5.339208e+01
  -6.186120e+01   7.859603e+01
  -8.042042e+01   6.170237e+01
  -1.067374e+02  -3.912751e+01
   4.716184e+01  -1.239580e+02
   1.648374e+02  -8.984431e+01
   2.246255e+02   2.799035e+01
   9.607559e+01   1.723569e+02
  -1.023026e+02   2.235381e+02
  -2.568758e+02   5.628211e+01
  -2.705719e+02  -8.616160e+01
  -1.171813e+02  -1.511215e+02
   2.768428e+01  -1.521673e+02
   5.597938e+01  -1.074483e+02
   6.733124e+01  -7.179436e+01
   6.497121e+01  -1.225539e+02
   8.899974e+01  -9.552839e+01
   1.518592e+02   6.852468e+00
   1.451983e+02   1.203937e+02
   3.530048e+01   2.095804e+02
  -9.425233e+01   1.806805e+02
  -1.527224e+02   2.417598e+01
  -1.556379e+02  -1.290589e+02
  -1.515807e+01  -1.316684e+02
   6.800116e+01  -6.546966e+01
   5.046841e+01  -4.356917e+00
  -1.009147e+01   2.949633e+01
   1.154295e+01   8.203648e+00
   2.443047e+01   4.232370e+01
   6.171585e+01   3.092498e+01
   4.017027e+01   2.262692e+01
  -1.053502e+02   5.420725e+01
  -1.436389e+02   8.692287e+00
  -1.306483e+02  -5.650827e+01
  -9.855529e+00  -9.138230e+01
   1.158733e+02  -7.325597e+01
   1.657624e+02  -2.817431e+01
   5.025133e+01   4.611893e+01
  -5.014919e+01   4.300598e+01
  -5.996288e+01  -2.029953e+01
   2.670179e+00  -6.944820e+01
   2.241649e+01  -6.194085e+01
   6.751706e+01  -1.526541e+01
   4.857292e+01   4.052121e+01
   2.825716e+01   3.349361e+01
   2.839626e+01  -1.668296e+01
   5.049340e+01  -8.676733e+00
   1.395895e+01   4.883548e+01
  -1.337727e+01   1.402115e+02
  -8.925925e+01   1.452625e+02
  -1.810278e+02   7.566357e+01
  -1.110107e+02  -6.404906e+01
  -2.053570e+01  -1.221282e+02
   6.714926e+01  -6.037995e+01
   5.381679e+01   2.830325e+01
  -3.939540e+01   1.375267e+01
  -1.262665e+02  -3.134659e+01
  -8.288925e+01  -1.251672e+02
   7.497394e+01  -1.149370e+02
   2.139198e+02  -4.192397e+01
   1.760052e+02   4.249260e+00
   4.472385e+01   8.187313e+01
  -5.022702e+01   7.152159e+01
  -2.230497e+01   3.608289e+01
   1.779415e+01  -2.990921e+01
   8.528961e+01   1.242243e+01
   3.305301e+01   1.157074e+02
  -9.581174e+01   1.480629e+02
  -1.287598e+02   6.261088e+01
  -1.234065e+02  -1.083602e+02
  -4.168822e+01  -1.580169e+02
   8.516920e+01  -1.484232e+02
   1.062751e+02   1.235141e+01
   6.882621e+01   1.094934e+02
   3.200407e+01   1.034386e+02
  -5.012360e+01   2.410919e+01
  -3.713189e+01  -3.503730e+01
  -5.485931e+01  -1.077451e+01
   6.290862e+00   2.536636e+01
  -4.692627e+01   1.191067e+01
  -4.658269e+01  -7.415266e+01
  -3.899552e+01  -1.208308e+02
   8.180798e+01  -4.688229e+01
   1.277708e+02   2.511679e+01
   1.227479e+02   5.831279e+01
  -4.435908e-01   1.239033e+01
  -7.955002e+01   3.034753e+01
  -8.850200e+01   2.477765e+01
  -2.384534e+01  -1.635921e+01
   7.356371e+01  -2.265508e+01
   9.771085e+00  -3.586342e+01
  -3.945687e+01  -1.504424e+01
   8.150190e+00  -1.850538e+00
   6.809005e+01   7.311195e+00
   9.251886e+01   3.439620e+01
   1.276806e+01   7.100684e+01
  -1.289634e+02   1.124688e+02
  -1.745117e+02   2.107637e+01
  -1.586468e+02  -5.450405e+01
  -3.596394e+01  -2.000476e+02
   5.013235e+01  -1.420408e+02
   1.177540e+02  -8.061529e+01
   6.565254e+01   8.025600e+00
   7.850109e+00   4.494517e+01
  -7.943266e+00   3.630450e+00
   1.189163e+01   4.377048e+00
   4.931997e+01   8.020191e+01
   4.327088e+01   8.618942e+01
  -1.837713e+01   8.156034e+01
  -9.486551e+01  -2.551949e+00
  -9.056156e+01  -9.147263e+01
  -2.647116e+01  -1.184272e+02
   8.400881e+01  -1.150419e+00
   1.271024e+02   4.863644e+01
   4.716851e+01   9.527628e+01
  -5.644987e+01   5.569239e+01
  -1.068607e+02  -7.394258e+00
  -2.465786e+01  -4.926565e+01
   4.201183e+01  -3.626039e+01
   2.860829e+01   7.818129e+00
  -4.223322e+01  -2.002406e+01
  -6.390379e+01  -6.591614e+00
  -4.794599e+00  -1.385995e+01
   6.490777e+01  -5.904224e+01
   9.757836e+01  -4.191062e+01
   5.687016e+01   2.278200e+01
  -1.532764e+01   7.331572e+01
  -3.599651e+01   6.688792e+01
  -2.272734e+01  -2.039952e+01
  -2.133300e+01  -4.478891e+01
   3.202853e+01  -4.417954e+01
   2.433168e+01  -1.608271e+01
   4.392281e+01   6.877728e+01
  -3.885281e+00   9.644729e+00
  -5.594530e+01  -6.227708e+00
  -5.158366e+01  -2.896991e+01
  -1.947130e+01  -4.091411e+01
   7.437949e+00  -3.236001e+00
  -4.838636e+00  -6.876238e+00
  -1.366667e+01  -4.077939e+01
   1.112850e+01  -4.986826e+01
   3.185859e+01  -2.370048e+01
   5.034102e+01   6.228747e+01
   1.233244e+01   7.700895e+01
  -2.249880e+01   1.991831e+01
  -7.441111e+01  -3.268768e+01
  -1.371806e+01  -5.427652e+01
   4.731659e+01  -5.046496e+01
   7.413723e+01   4.353506e+01
   5.477038e+01   3.846589e+01
  -4.196870e+01   3.263968e+01
  -3.972603e+01   2.630202e+01
  -2.491061e+01   1.756748e+01
   6.157143e+01  -4.425149e+00
   4.084475e+01   1.150030e+01
  -3.461546e+01   1.983194e+01
  -8.513218e+01   2.693954e+00
