
 $NMID
 id='ANONYMOUS ', fmtdat='(2E16.6)'
 volume=1.0
 tramp=1.0
 $END
  -2.314005e+03   2.596367e+02
  -1.822465e+03  -1.020769e+03
  -2.643827e+02  -1.403733e+03
   9.678217e+02  -1.056659e+03
   9.175052e+02  -3.696034e+02
   5.915457e+01   7.861816e+01
  -2.023705e+02   8.467016e+01
  -2.236484e+01  -4.059103e+02
   1.643829e+02  -4.259160e+02
   4.122440e+02  -7.662093e+01
   3.387874e+02   3.292288e+02
   6.779237e+00   5.055700e+02
  -1.770837e+02   1.405718e+02
  -1.867796e+02  -1.969568e+02
   4.799392e+01  -4.273746e+02
   2.261314e+02  -5.983687e+01
   2.277039e+02   2.958450e+02
  -4.502897e+01   4.466593e+02
  -3.149567e+02   2.181749e+02
  -3.464778e+02  -1.313753e+02
  -1.616073e+02  -2.313875e+02
   2.151917e+01  -1.622895e+02
   1.572907e+01  -1.323910e+02
  -7.760298e+01  -9.205871e+01
  -1.793722e+02  -1.940502e+02
   3.419004e+01  -2.345345e+02
   3.320035e+02  -1.120098e+02
   4.821211e+02   1.123557e+02
   2.234638e+02   2.500985e+02
  -2.008878e+02   1.080896e+02
  -3.785228e+02  -8.577704e+01
  -1.410038e+02  -2.242284e+02
   1.866636e+02  -2.041413e+02
   2.881398e+02  -1.288449e+02
   1.725527e+02   7.352030e+01
   8.752148e+01   1.994814e+02
   4.998661e+00   1.313446e+02
   3.513602e+01  -5.481387e+01
   6.762846e+01  -1.325788e+02
   1.485848e+02   7.628238e+01
   1.429736e+01   3.543679e+02
  -1.448148e+02   2.851541e+02
  -2.409844e+02   4.052654e+01
  -7.095828e+01  -2.019642e+02
   5.750673e+01  -5.871790e+01
   6.176602e+01   1.784080e+02
  -9.152672e+01   2.401727e+02
  -3.080326e+02   4.667426e+01
  -3.406349e+02  -3.041296e+02
  -1.023042e+02  -2.993367e+02
   2.036125e+02  -1.615656e+02
   3.283218e+02   9.485727e+00
   2.792315e+02   1.435353e+02
   2.962181e-01   1.697389e+02
  -1.480867e+02   1.169524e+02
  -1.609745e+02   4.813274e+00
  -2.039289e+01   1.999332e+01
   5.230959e+01   3.337527e+01
  -6.520283e+01   2.378797e+01
  -1.346488e+02  -6.074521e+01
  -6.029437e+01  -1.240724e+02
   1.038875e+02  -1.920331e+02
   2.507929e+02  -4.374380e+01
   1.814797e+02   6.043487e+01
  -3.033221e+01   2.332948e+02
  -1.802031e+02   2.921442e+02
  -2.252930e+02   8.785461e+01
  -1.645105e+02  -1.414442e+02
  -3.935904e+01  -2.686359e+02
  -1.680597e+01  -2.202785e+02
   1.168436e+01  -1.042267e+02
   3.016294e+01  -8.785388e+01
   1.587268e+02  -9.518008e+01
   1.845437e+02  -4.800676e+00
   1.703168e+02   1.418791e+02
   3.167586e+01   1.623391e+02
  -8.416981e+01   9.702933e+01
  -1.709367e+02  -5.253711e+01
  -9.476118e+01  -1.733160e+02
   5.986617e+01  -1.430103e+02
   1.690260e+02  -6.757294e+00
   2.303358e+02   1.054597e+02
   1.397704e+02   1.728918e+02
  -5.128356e+00   1.760313e+02
  -9.826789e+01   1.402179e+02
  -1.151518e+02   8.187944e+01
  -1.356990e+02   5.087957e+01
  -1.660354e+02   2.931685e+01
  -3.094570e+02  -1.117430e+02
  -2.647653e+02  -1.875307e+02
  -9.157519e+00  -3.356252e+02
   2.828900e+02  -3.237368e+02
   4.031037e+02  -1.015520e+02
   2.023896e+02   9.229178e+01
  -8.531121e-01   1.626968e+02
  -9.862893e+01   1.419724e+02
   7.889797e+00   4.128745e+01
   1.125625e+02   1.333601e-01
   1.120149e+02   4.978722e+01
   1.019084e+01   9.174822e+01
  -7.794923e+01   1.147291e+02
  -7.762827e+01  -5.197725e+01
   3.365691e+01  -1.012169e+02
   1.329271e+02  -1.389567e+00
   1.331967e+02   1.855875e+02
  -2.385333e+01   2.541963e+02
  -2.095501e+02   1.382755e+02
  -2.637080e+02  -9.780242e+01
  -2.319143e+02  -2.254211e+02
  -1.869685e+01  -2.160946e+02
   8.685306e+01  -9.992912e+01
   1.053067e+02  -4.791456e+00
   3.871261e+01   1.159718e+01
  -3.713144e+01  -8.096638e+01
   2.291046e+01  -7.796268e+01
   9.699260e+01  -3.207717e+01
   9.588470e+01   3.792831e+01
   4.817447e+01   5.487599e+01
  -6.014211e+01  -1.871100e+01
  -5.187989e+01  -6.069092e+01
   1.433416e+02  -7.046648e+01
   2.170254e+02   3.554474e+01
   1.704123e+02   1.247834e+02
   6.632151e-01   1.995709e+02
  -1.523058e+02   1.419209e+02
  -1.712019e+02   9.159482e+01
  -6.828110e+01  -1.824452e+01
   1.519475e+00  -4.414940e+01
   4.772157e+00   1.606756e+01
  -6.149187e+01   7.658650e+01
  -1.486272e+02   1.768136e+01
  -1.321533e+02  -7.865337e+01
  -1.236866e+01  -1.473064e+02
   9.387539e+01  -7.828661e+01
   8.115384e+01   9.935668e+00
  -4.348408e-02   4.140209e+01
  -5.027551e+01  -1.445112e+01
  -2.043718e+01  -1.043995e+02
   8.279554e+01  -1.087139e+02
   1.450452e+02   1.867787e+01
   1.032766e+02   1.070932e+02
   9.014489e+00   1.457707e+02
  -1.136352e+02   1.188664e+02
  -1.203319e+02   2.609076e+00
  -5.104057e+01  -8.306479e+01
   5.035904e+01  -4.761925e+01
   4.809840e+01  -1.295907e+01
  -1.126513e+01   5.314982e+00
  -1.217405e+01  -1.296075e+01
   2.820245e+00  -5.000230e+01
   6.997519e+01   2.382880e+00
   1.048386e+02   6.127382e+01
   8.328430e+00   1.492899e+02
  -8.508559e+01   1.302335e+02
  -1.801596e+02  -6.503729e+00
  -1.747171e+02  -1.161362e+02
  -3.074384e+00  -1.504854e+02
   8.318250e+01  -1.030738e+02
   7.518915e+01  -4.337439e+01
   5.242007e+01   1.256803e+01
   3.244333e+01   1.884662e+01
   3.255511e+01  -9.797442e+00
   7.582643e+01   1.097807e+01
   4.754461e+01   5.186821e+01
  -1.856877e+01   8.854215e+01
  -1.003930e+02   7.765492e+01
  -7.558382e+01  -4.645510e+01
   2.371974e+01  -9.332305e+01
   1.250622e+02  -5.505540e+01
   1.394904e+02   4.750589e+01
   8.317377e+01   1.673062e+02
  -1.096216e+02   1.690311e+02
  -2.357328e+02   5.678441e+01
  -1.963492e+02  -5.891211e+01
  -7.686534e+01  -1.220627e+02
   1.024133e+01  -1.036790e+02
   5.124161e+01  -8.160478e+01
   5.507797e+01  -8.343650e+01
   7.025442e+01  -9.741197e+01
   7.157407e+01  -2.228407e+01
   1.115123e+02   3.233238e+01
   8.895730e+01   1.203788e+02
   2.820272e+00   1.460255e+02
  -7.182490e+01   9.338495e+01
  -1.117150e+02  -1.085726e+01
  -9.167239e+01  -9.339196e+01
   3.086488e+00  -9.833236e+01
   5.601362e+01  -6.524641e+01
   1.731496e+01   9.278063e+00
  -3.620241e+01   7.428957e+01
  -1.121659e+01   3.525987e+00
   3.126357e+01   6.705495e+00
   5.370004e+01   3.978097e+01
   1.463693e+01   5.401449e+01
  -7.590083e+01   4.464053e+01
  -1.807951e+02   1.226822e+01
  -8.476451e+01  -8.573177e+01
   2.311608e+01  -1.113109e+02
   1.228423e+02  -6.793400e+01
   1.317420e+02   4.397824e+01
   3.488054e+01   1.928215e+01
  -5.910158e+01   5.831405e+00
  -4.703028e+01  -3.270177e+01
  -2.846862e+01  -4.031930e+01
   6.505262e+01  -1.708101e+01
   2.356214e+01   9.641552e+00
   7.039527e+00   3.131239e+01
   5.097059e+01   3.157100e+01
   3.157076e+01   1.372838e+01
   4.959735e+01   8.406975e+00
   1.687608e+01   5.632897e+01
  -3.080976e+01   1.228788e+02
  -1.099003e+02   9.783330e+01
  -1.078117e+02   3.407345e+01
  -9.837271e+01  -1.238301e+02
   1.607071e+01  -1.092619e+02
   6.575604e+01  -2.134087e+01
   3.865584e+01   2.768518e+01
  -5.933234e+01   3.150687e+01
  -1.162170e+02  -3.718798e+01
  -4.873911e+01  -7.135426e+01
   7.386316e+01  -4.163400e+01
   1.917661e+02  -1.488242e+01
   9.012831e+01   1.818598e+01
   1.692415e+01   6.156537e+01
  -6.661441e+01   2.629759e+01
  -6.112270e+00  -3.826411e+01
   4.819352e+01  -2.817966e+01
   7.975180e+01  -9.937462e+00
   3.668416e+01   8.876627e+01
  -3.039486e+01   1.188934e+02
  -1.376123e+02   2.968834e+01
  -1.067097e+02  -6.745792e+01
  -1.757794e+01  -1.210107e+02
   6.663292e+01  -1.209888e+02
   9.134782e+01   9.679745e+00
   3.913035e+01   8.759782e+01
  -1.419291e+01   6.418228e+01
  -1.291366e+01   1.741042e+01
  -1.121003e+01  -2.592751e+01
  -9.939075e+00   3.467259e+00
  -4.556344e+00   2.196016e+01
  -2.628295e+01   1.123136e+01
  -4.730456e+01  -4.501651e+01
  -1.555512e+01  -7.225635e+01
   3.111247e+01  -4.119771e+01
   1.046743e+02   3.151964e+01
   7.279329e+01   4.266599e+01
   3.906787e+01   3.516026e+01
  -2.642348e+01   3.068006e+01
  -4.001081e+01   2.573059e+01
   1.147168e+01  -1.043035e+01
   2.666080e+01  -3.154173e+01
   1.714218e+01   1.529408e+01
   1.810349e+01   1.489541e+01
   1.529676e+01   5.094367e+00
   8.319605e+01   1.311892e+01
   9.272598e+01   2.215489e+01
   4.385251e+01   8.151279e+01
  -9.902067e+01   8.832299e+01
  -1.356129e+02   5.420442e+01
  -1.303645e+02  -3.221213e+01
  -3.455267e+01  -1.442757e+02
   4.805956e+01  -1.520182e+02
   1.018065e+02  -3.374167e+01
   7.052769e+01   1.988492e+01
  -7.627005e+00   9.114744e+00
  -1.157440e+01   4.766768e+00
  -5.952333e-01   1.384892e+01
   3.220184e+01   5.238631e+01
   4.171961e+01   8.801013e+01
   2.124204e+00   8.638945e+01
  -5.896919e+01   7.344838e+00
  -3.501416e+01  -8.951403e+01
  -2.751846e+01  -8.604428e+01
   8.399697e+01  -3.774789e+00
   1.050055e+02   4.684463e+01
   3.757454e+01   8.631635e+01
  -6.771069e+01   2.513621e+01
  -8.495539e+01  -3.870359e+01
  -3.774125e+01  -2.645125e+01
   4.644222e+01  -3.368744e+01
   2.432652e+01  -3.367737e+01
  -4.864579e+01  -2.079066e+00
  -4.304423e+01  -2.464442e+00
  -9.578832e+00  -3.159348e+01
   4.660460e+01  -4.311824e+01
   8.164592e+01  -5.308486e+01
   6.020165e+01   7.521413e+00
  -3.575508e+01   5.692674e+01
  -4.018835e+01   6.270251e+01
  -4.270217e+01   8.102960e+00
  -1.707020e+01  -1.646708e+01
   2.719865e+01  -4.687264e+01
   3.260335e+01  -2.148117e-02
   1.447564e+01   3.853048e+01
   1.549411e+01   4.133159e+01
  -4.185735e+01   2.441039e+01
  -1.548159e+00  -1.734817e+01
  -8.176732e+00   4.854139e+00
  -1.771617e+01   2.560370e+01
  -2.618163e+00   1.768150e+01
  -3.617302e-01  -1.035123e+01
  -2.374121e+01  -5.324948e+01
   2.063177e+01  -2.323070e+01
   5.219067e+01   4.021029e+01
   1.689690e+01   4.818024e+01
  -1.653448e+01   3.191768e+01
  -3.598413e+01  -3.500233e+01
  -5.082344e+01  -5.095993e+01
   5.497102e+01  -1.058066e+01
   3.094345e+01   9.800002e+00
   6.980161e+01   1.025078e+00
  -2.602453e+01   5.035602e+01
  -5.517284e+01   2.390194e+01
  -3.955921e+01   1.573295e+01
   8.097465e+00  -1.271230e+01
   2.310316e+01  -3.202694e+01
  -3.296304e+00  -6.906760e+00
  -6.301204e+01   1.975711e+01
