
 $NMID
 id='ANONYMOUS ', fmtdat='(2E16.6)'
 volume=1.0
 tramp=1.0
 $END
   3.654558e+03   4.524736e+02
   2.176332e+03   2.652425e+03
  -4.389824e+02   2.188711e+03
  -1.700788e+03   6.882325e+02
  -7.676058e+02  -1.890104e+02
   3.063170e+02  -1.948793e+02
   5.553694e+02   2.724412e+02
  -5.433290e+01   6.772279e+02
  -5.929275e+02   6.530889e+02
  -7.865070e+02  -4.670964e+01
  -3.575043e+02  -6.928848e+02
   1.512063e+02  -7.189257e+02
   4.379271e+02  -1.129617e+02
   2.473279e+02   5.662150e+02
  -2.679864e+02   6.313651e+02
  -5.006785e+02  -1.730899e+01
  -2.251784e+02  -5.897395e+02
   2.782869e+02  -5.748133e+02
   4.829870e+02  -1.165416e+02
   4.148939e+02   2.354413e+02
   6.052240e+01   3.546912e+02
  -1.828396e+02   2.273470e+02
  -1.310250e+02   1.705456e+00
   1.629347e+02   4.587139e+01
   3.362559e+02   3.252506e+02
   2.781306e+01   4.187407e+02
  -5.129688e+02   2.589731e+02
  -7.371526e+02  -1.962248e+02
  -2.580476e+02  -5.015087e+02
   3.850917e+02  -2.471703e+02
   6.111385e+02   2.072441e+02
   1.866432e+02   4.375909e+02
  -3.119267e+02   3.885830e+02
  -4.730690e+02   1.051440e+02
  -3.079714e+02  -2.012177e+02
  -4.041199e+01  -3.685140e+02
   8.712560e+01  -1.755967e+02
  -3.126018e+01   1.563228e+02
  -3.214166e+02   2.131809e+02
  -3.587748e+02  -1.718026e+02
  -1.782516e+01  -6.081839e+02
   4.061810e+02  -5.575787e+02
   4.132687e+02   5.886638e+01
   8.549217e+01   4.196486e+02
  -2.049688e+02   2.346976e+02
  -2.368758e+02  -3.167245e+02
   1.161803e+02  -4.554462e+02
   4.921080e+02  -4.747552e+01
   4.551591e+02   4.233204e+02
   8.959989e+01   5.433050e+02
  -3.319322e+02   2.917971e+02
  -5.025308e+02  -1.264088e+02
  -3.416501e+02  -2.950867e+02
   1.438318e+02  -2.869788e+02
   3.042056e+02  -5.420052e+01
   2.133886e+02   8.813829e+01
  -6.031995e+01   4.225048e+01
  -1.014207e+02  -6.163119e+01
   1.497478e+02  -7.239133e+01
   2.106310e+02   1.123348e+02
   1.102785e+02   2.441820e+02
  -1.957872e+02   2.765670e+02
  -3.409052e+02   1.109509e+02
  -2.790811e+02  -1.069173e+02
   3.204261e+01  -3.126433e+02
   3.037071e+02  -3.831426e+02
   4.163993e+02  -1.615591e+02
   2.116041e+02   1.837788e+02
   5.406432e+01   3.794674e+02
  -5.303250e+01   2.967773e+02
  -4.791596e+01   1.488031e+02
  -2.277473e+01   8.952153e+01
  -1.364352e+02   9.533150e+01
  -2.331548e+02   7.988487e+01
  -2.258729e+02  -1.611564e+02
  -1.003618e+02  -2.597414e+02
   9.803825e+01  -2.024838e+02
   2.072719e+02   7.487555e+01
   1.348831e+02   2.566451e+02
  -8.180831e+01   2.433411e+02
  -2.903134e+02   4.757365e+01
  -3.396064e+02  -2.025726e+02
  -1.315133e+02  -3.446804e+02
   5.116996e+01  -2.902743e+02
   2.161515e+02  -1.328778e+02
   1.690195e+02  -6.629521e+01
   1.496216e+02  -4.285669e+01
   2.512142e+02   7.275426e+00
   4.046108e+02   8.336304e+01
   3.112178e+02   3.051484e+02
  -5.744880e+01   4.519768e+02
  -4.004334e+02   3.825305e+02
  -4.817104e+02   1.279830e+02
  -3.209728e+02  -1.592978e+02
  -2.797128e+01  -2.651715e+02
   1.356006e+02  -1.861277e+02
   5.763931e+01  -1.041393e+01
  -1.325630e+02   5.584764e+01
  -1.662887e+02  -1.880642e+01
  -1.218407e+01  -2.119363e+02
   1.536605e+02  -1.119633e+02
   1.362464e+02   5.443402e+01
  -4.412186e+00   1.459734e+02
  -1.795701e+02   2.337884e+00
  -1.142028e+02  -2.487400e+02
   6.327640e+01  -3.867385e+02
   2.568755e+02  -1.629309e+02
   3.226313e+02   8.858626e+01
   2.897211e+02   3.019499e+02
   7.962528e+01   2.340662e+02
  -1.184949e+02   1.644505e+02
  -1.849862e+02   8.465631e+00
  -4.932581e+01  -1.322378e+01
   9.995305e+01   6.132603e+01
   5.760130e+00   1.431906e+02
  -1.272476e+02   9.738722e+01
  -1.382654e+02  -4.589502e+01
  -4.004149e+01  -6.548502e+01
   8.106134e+01   3.723890e+01
   2.125665e+01   6.074936e+01
  -1.444936e+02   9.699788e+01
  -2.447165e+02  -3.898754e+01
  -2.521346e+02  -1.208685e+02
  -3.532674e+01  -2.122221e+02
   1.768509e+02  -2.345067e+02
   2.491917e+02  -7.705205e+01
   1.145550e+02   5.808243e+01
  -3.334716e+01   8.607291e+01
  -5.723069e+01  -2.180903e+01
   3.767708e+01  -9.598195e+01
   1.825268e+02  -1.704671e+01
   1.918193e+02   1.487535e+02
   2.265030e+01   1.771179e+02
  -9.744328e+01   1.221684e+02
  -1.073990e+02   4.314497e+01
  -8.547209e+01  -4.987777e+01
   2.422339e+01   1.397298e+01
   4.503524e+01   8.711735e+01
  -7.338625e+01   1.088374e+02
  -2.273475e+02   6.087672e+00
  -1.822350e+02  -1.316646e+02
  -1.402225e+01  -2.162521e+02
   1.526173e+02  -1.614945e+02
   1.653632e+02   9.289245e+00
   5.305169e+01   8.916760e+01
  -6.545814e+01   1.170077e+02
  -7.956884e+01   4.042712e+01
  -1.653722e+01  -6.077838e+01
   2.106122e+01  -1.933400e-01
  -1.288364e+01   2.447717e+00
  -7.155234e+01   7.779678e+00
  -8.100356e+01  -8.786690e+01
   1.756006e+01  -1.967830e+02
   1.248909e+02  -1.425869e+02
   2.372470e+02   2.238254e+01
   1.771119e+02   2.033542e+02
   1.427166e+01   2.263411e+02
  -9.042410e+01   1.601967e+02
  -1.107386e+02   1.053360e+01
  -5.728967e+01  -6.072531e+01
  -2.309082e+01  -3.044369e+01
  -5.852149e+01  -2.297575e+01
  -7.608851e+01   2.277693e+01
  -3.071514e+01  -7.322563e+01
   5.298327e+01  -9.830990e+01
   1.169036e+02  -6.694074e+01
   1.188924e+02   3.300667e+01
  -2.490819e+01   1.494396e+02
  -1.969481e+02   7.390771e+01
  -1.892782e+02  -7.551418e+01
  -2.748783e+01  -2.142521e+02
   1.512465e+02  -2.333862e+02
   3.309178e+02  -6.394429e+01
   2.200557e+02   1.233766e+02
   7.345112e+01   2.144639e+02
  -5.104344e+01   1.065996e+02
  -1.253769e+02   4.715798e+01
  -8.617263e+01   3.655848e+01
  -6.771936e+01   9.199486e+01
  -1.134813e+02   7.444329e+01
  -1.147845e+02  -3.778833e+01
  -1.150909e+02  -1.532188e+02
  -5.639195e+00  -2.379747e+02
   9.571759e+01  -1.594589e+02
   1.565872e+02  -2.846174e+01
   1.211853e+02   1.363602e+02
   1.152450e+01   1.454449e+02
  -8.598238e+01   5.758860e+01
  -5.550267e+01  -6.761822e+00
   4.363486e+00  -6.592083e+01
   4.773600e+01  -3.456298e+01
  -2.111354e+01  -1.058207e+01
  -8.071191e+01  -4.495985e+01
  -6.141679e+01  -1.597108e+01
   6.816859e+01  -2.999636e+01
   1.686898e+02   9.314571e+00
   1.249730e+02   7.388529e+01
  -1.993219e+01   1.120856e+02
  -1.467120e+02   6.349394e+01
  -1.372899e+02  -3.721385e+01
  -4.681115e+01  -7.358993e+01
   7.543794e+01  -5.766243e+01
   1.030312e+02   4.240571e+01
   2.189697e+01   8.731668e+01
  -5.936996e+01   2.186623e+01
  -8.444694e+01  -1.575846e+01
  -5.531452e+01  -7.382259e+01
  -2.830995e+01  -2.152935e+01
  -5.503611e+01   9.484881e+00
  -7.416828e+01   2.122449e+01
  -5.233131e+01  -6.344610e+01
   4.616661e+01  -1.579574e+02
   1.376569e+02  -1.528495e+02
   2.007736e+02  -3.613795e+01
   1.233839e+02   1.458833e+02
  -2.823018e+01   9.307281e+01
  -1.322747e+02   3.926572e+01
  -5.467573e+01  -5.003739e+01
   5.560370e+01  -2.395096e+01
   1.236772e+02   7.171938e+01
   7.536412e+01   1.066856e+02
  -8.589968e+01   1.047823e+02
  -1.933867e+02   4.516467e+01
  -1.385857e+02  -8.785703e+01
  -2.266064e+01  -6.957642e+01
   6.172907e+01  -8.135879e+01
   4.951090e+01  -6.018657e+01
  -2.074299e+01   1.350548e+01
  -8.699359e+01  -3.229781e+01
   2.200405e+00  -1.025818e+02
   1.103866e+02  -1.234893e+02
   1.183607e+02  -5.718285e+01
   1.158127e+02   9.567514e+01
   2.170069e+01   1.710478e+02
  -8.529293e+01   1.481386e+02
  -1.122820e+02  -1.256332e+01
  -3.233727e+01  -1.481660e+02
   4.337850e+00  -1.129119e+02
   6.117460e+01  -3.250743e+01
   5.167488e+01   6.247829e+01
   1.628355e+01   8.811284e+00
  -1.414037e+01  -1.096572e+01
   2.853800e+01   1.502778e+01
   4.038055e+01   8.368161e+01
   6.208277e+00   9.003615e+01
  -4.207535e+01   3.059514e+01
  -1.428801e+02  -3.961022e+01
  -1.228247e+02  -9.023726e+01
  -9.199863e-01  -5.975062e+01
   7.063710e+01  -2.130298e+01
   7.906422e+01  -3.728319e+01
   3.810097e+01   6.960317e+00
  -1.441101e+01   2.066600e+01
  -3.456572e+01   2.542468e+01
   1.037398e+01  -3.528796e+01
  -1.493890e+01  -1.819144e+01
  -1.917393e+01  -1.253615e+01
  -8.946219e+01  -1.250398e+01
  -2.131034e+01  -5.485786e+01
   1.017456e+02  -1.103499e+02
   1.797722e+02  -7.220018e+01
   1.918392e+02   6.909182e+01
   3.712517e+01   1.950910e+02
  -7.256281e+01   1.682925e+02
  -1.326299e+02   6.247309e+01
  -1.166927e+02  -9.926274e+00
  -4.464634e+01  -4.324723e+01
   9.524504e+00  -9.258159e+00
  -2.377157e+01  -2.560733e+01
  -2.199227e+01  -2.900227e+01
  -2.516006e+01  -9.830983e+01
  -2.873819e-02  -9.095607e+01
   6.108267e+01   4.028551e+00
   9.322727e+01   6.346873e+01
   9.960995e+00   9.680725e+01
  -5.472927e+01   3.746164e+00
  -1.081618e+02  -7.346168e+01
  -2.470897e+01  -1.292547e+02
   6.844113e+01  -1.050626e+02
   9.730007e+01   8.380696e+00
   2.631252e+01   6.233033e+01
  -3.611054e+01   6.400906e+01
  -7.137831e+01   7.252227e+00
  -1.499864e-01   6.636876e-01
   9.191912e+01   5.644354e+00
   1.632980e+01   4.800176e+01
  -8.529317e+01   7.290832e+01
  -1.036394e+02   6.567308e+01
  -5.575876e+01  -1.416756e+00
  -1.157516e+00  -7.816911e+01
   7.876579e+01  -8.287362e+01
   2.270962e+01  -3.776356e+00
  -2.473866e+01   3.537759e+01
  -2.744797e+01   4.082994e+01
  -5.347933e+01  -1.705338e+01
  -1.005529e+01  -7.101599e+01
   1.959822e+01  -5.496580e+00
   2.959444e+01   2.196538e+01
   3.109724e+01  -6.731577e+00
   1.836005e+01  -1.747235e+01
  -8.930785e+00   3.442279e+00
  -2.403101e+01   1.107376e+01
  -5.529669e+00   3.718448e+01
  -2.271890e+01   6.775192e+01
  -2.118366e+01   3.146714e+01
  -4.102709e+01  -1.918224e+01
  -1.307634e+01  -7.098400e+01
   8.030989e+01  -1.410166e+01
   5.369093e+01   1.632493e+01
   3.085877e+01   7.464589e+01
  -3.764757e+01   7.014812e+01
  -8.652932e+01   2.373517e+00
  -4.971278e+01  -4.130695e+01
   2.002064e+01  -2.211435e+01
   8.267958e+01  -2.064534e+01
   1.147048e+01  -5.960386e+00
  -3.109740e+01   4.620532e+00
  -6.170072e+01  -3.237387e+01
   2.497718e+01  -3.282931e+01
   8.749081e+01  -9.512272e+00
