
 $NMID
 id='ANONYMOUS ', fmtdat='(2E16.6)'
 volume=1.0
 tramp=1.0
 $END
  -3.686419e+03  -1.327929e+02
  -2.046199e+03  -2.206936e+03
   2.199797e+02  -2.019338e+03
   1.313031e+03  -8.913970e+02
   7.940826e+02   1.251132e+01
  -2.253976e+02   2.152559e+02
  -4.960826e+02  -2.521219e+02
   2.148144e+01  -6.309057e+02
   6.314764e+02  -5.762099e+02
   7.159460e+02  -4.335660e+01
   3.776434e+02   6.155356e+02
  -9.310630e+01   6.834565e+02
  -4.039800e+02   1.430908e+02
  -2.882588e+02  -4.963627e+02
   1.738777e+02  -5.589383e+02
   4.483192e+02   2.414631e+01
   2.157390e+02   6.002327e+02
  -2.689242e+02   6.052479e+02
  -4.711264e+02   1.679903e+02
  -3.683057e+02  -2.417825e+02
  -8.703440e+01  -3.464181e+02
   1.410040e+02  -1.874702e+02
   5.637902e+01  -2.164503e+01
  -2.013379e+02  -5.037599e+01
  -3.000647e+02  -2.360518e+02
  -1.676751e+00  -3.749367e+02
   5.011041e+02  -2.024860e+02
   6.450890e+02   2.308163e+02
   2.017215e+02   4.317057e+02
  -3.568783e+02   2.374756e+02
  -5.238604e+02  -1.239249e+02
  -1.964449e+02  -3.500054e+02
   2.918258e+02  -3.518195e+02
   4.903274e+02  -8.643823e+01
   3.099863e+02   1.935471e+02
   7.495253e+00   3.475635e+02
  -1.318424e+02   1.722656e+02
   2.617744e+01  -1.513738e+02
   2.136180e+02  -2.047381e+02
   3.190671e+02   1.675846e+02
   6.465211e+01   6.395644e+02
  -3.542268e+02   4.940341e+02
  -3.713803e+02  -6.422947e+01
  -1.281633e+02  -3.997797e+02
   2.172948e+02  -1.780911e+02
   2.323721e+02   3.085353e+02
  -1.677562e+02   4.067305e+02
  -4.798529e+02   5.303419e+01
  -4.865335e+02  -3.546877e+02
  -1.086812e+02  -5.176325e+02
   3.379794e+02  -2.581305e+02
   5.282176e+02   7.813484e+01
   3.341971e+02   3.027638e+02
  -9.601053e+01   2.484067e+02
  -2.808648e+02   8.964588e+01
  -1.711404e+02  -6.276719e+01
   5.652728e+01  -1.443631e+01
   5.639586e+01   8.173513e+01
  -9.753574e+01   5.694613e+01
  -2.314430e+02  -5.949334e+01
  -9.151463e+01  -2.112829e+02
   2.104022e+02  -2.392527e+02
   3.187745e+02  -1.259521e+02
   2.262067e+02   1.189994e+02
  -7.877467e+01   3.114132e+02
  -3.301381e+02   3.328340e+02
  -3.755841e+02   1.478152e+02
  -2.245536e+02  -1.867757e+02
   1.597252e+01  -3.683670e+02
   3.898980e+01  -2.906636e+02
   6.874199e+01  -1.554088e+02
   2.114096e+01  -6.640432e+01
   1.050952e+02  -1.338189e+02
   2.197892e+02  -3.129476e+01
   2.161247e+02   1.205873e+02
   7.363223e+01   2.219855e+02
  -9.833128e+01   2.186884e+02
  -1.985895e+02  -4.811412e+01
  -1.242550e+02  -2.313293e+02
   6.065657e+01  -2.533795e+02
   2.505019e+02  -3.345482e+01
   3.156557e+02   1.923485e+02
   1.573670e+02   3.295489e+02
  -5.144366e+01   2.422421e+02
  -2.114799e+02   1.075258e+02
  -1.461536e+02   8.161455e+01
  -1.224937e+02   5.259947e+01
  -2.651401e+02   5.066258e+01
  -3.650948e+02  -1.278506e+02
  -2.684290e+02  -2.650181e+02
   2.441755e+01  -4.072477e+02
   4.053302e+02  -3.778610e+02
   5.018469e+02  -1.410677e+02
   2.713953e+02   1.370640e+02
  -1.239287e+01   2.432076e+02
  -1.058335e+02   1.810810e+02
  -3.112768e+01   2.032027e+01
   1.174358e+02  -2.930159e+01
   1.682508e+02   6.694390e+01
   1.679247e+01   1.753613e+02
  -1.585415e+02   1.110796e+02
  -9.012191e+01  -9.653650e+01
   4.118531e+01  -1.559339e+02
   1.609992e+02   1.895158e+01
   9.467904e+01   2.395520e+02
  -7.102509e+01   3.127726e+02
  -2.434786e+02   1.734456e+02
  -3.138721e+02  -7.020661e+01
  -2.525039e+02  -2.158028e+02
  -5.337934e+01  -2.460721e+02
   1.388052e+02  -1.331550e+02
   1.447350e+02   2.009843e+01
   6.292167e+01   4.806245e+01
  -6.294079e+01  -6.787643e+01
  -9.391968e+00  -8.182769e+01
   1.120281e+02  -3.895864e+01
   1.339822e+02   1.906916e+01
   5.403502e+01   7.342311e+01
  -8.124210e+01   2.596839e+01
  -6.292424e+01  -4.663365e+01
   9.998507e+01  -8.338166e+01
   2.470560e+02   7.294262e+00
   2.447010e+02   1.512972e+02
   1.900866e+01   2.563643e+02
  -1.898428e+02   2.354142e+02
  -2.654994e+02   7.665454e+01
  -1.226373e+02  -8.530022e+01
   1.487074e+01  -1.185591e+02
   8.364720e+01  -2.402986e+01
  -6.290592e+01   5.589775e+01
  -1.847400e+02   1.162357e+01
  -1.813808e+02  -1.319972e+02
  -4.310372e+01  -1.937172e+02
   9.750774e+01  -1.072029e+02
   1.256196e+02   1.106797e+01
   4.629977e+01   4.267554e+01
  -3.818598e+01  -2.254981e+01
  -1.225834e+01  -1.036151e+02
   1.086785e+02  -9.963654e+01
   1.965359e+02  -3.146721e+01
   1.558873e+02   1.110636e+02
   8.698599e+00   1.947570e+02
  -1.251814e+02   1.684074e+02
  -1.348721e+02   2.588588e+01
  -5.908860e+01  -9.095627e+01
   8.654140e+01  -8.919655e+01
   1.194817e+02   1.258699e+01
   1.128604e+01   4.364491e+01
  -1.080182e+01   1.758136e+01
   1.182517e+01  -4.420201e+01
   1.073489e+02   3.960995e-01
   1.002735e+02   6.656709e+01
  -1.605337e+01   1.471073e+02
  -1.310887e+02   1.435419e+02
  -2.047568e+02   2.193663e+01
  -1.427537e+02  -2.062033e+02
  -4.462870e+01  -2.335174e+02
   9.817306e+01  -1.453318e+02
   1.140285e+02  -1.353913e+01
   7.865814e+01   5.774941e+01
   7.923419e+00   5.398751e+01
   1.559376e+01  -2.338053e+01
   6.746101e+01  -8.414328e+00
   4.374662e+01   4.891426e+01
  -5.668703e+01   1.013138e+02
  -8.536712e+01   6.172564e+01
  -1.043417e+02  -2.655377e+01
   3.820475e+01  -9.656457e+01
   1.635158e+02  -4.539534e+01
   2.088919e+02   6.077137e+01
   2.947657e+01   2.083905e+02
  -1.135238e+02   2.096815e+02
  -2.623307e+02   5.033887e+01
  -2.242145e+02  -7.466177e+01
  -7.521672e+01  -1.514767e+02
   2.158378e+01  -1.280536e+02
   1.085076e+02  -7.745157e+01
   4.974927e+01  -4.100590e+01
   4.407712e+01  -7.973928e+01
   9.079697e+01  -7.476321e+01
   1.310030e+02   2.834443e+01
   1.240984e+02   1.595267e+02
  -5.985717e+00   1.994484e+02
  -9.850425e+01   1.780048e+02
  -1.397246e+02   3.264725e+01
  -1.243370e+02  -1.356682e+02
  -1.907685e+01  -1.385335e+02
   8.529672e+01  -6.012999e+01
   4.836292e+01   8.248259e+00
   1.491295e+01   5.741441e+01
  -2.107742e+01   3.106218e+01
   4.746841e+01   2.030015e+01
   8.987118e+01   3.725511e+01
   3.158019e+01   3.702253e+01
  -4.162788e+01   2.155465e+01
  -1.649426e+02  -1.544321e+01
  -1.341397e+02  -6.884656e+01
   1.191620e+01  -1.108532e+02
   1.611838e+02  -7.538563e+01
   1.222801e+02  -2.983170e+01
   6.639182e+01   4.013926e+01
  -7.191313e+01   5.855501e+01
  -8.136440e+01  -2.459496e+01
  -4.029360e+01  -7.157091e+01
   5.036039e+01  -2.342768e+01
   7.373323e+01   2.158430e+01
   5.601918e+01   3.419664e+01
   1.435545e+01   3.006796e+01
   5.112993e+01   2.189800e+00
   7.039529e+01  -3.473509e+00
   3.701395e+01   6.840221e+01
  -4.604478e+00   1.094174e+02
  -1.055967e+02   1.113888e+02
  -1.668912e+02   2.851627e+01
  -1.198479e+02  -1.042155e+02
   1.507704e+01  -9.835080e+01
   6.355199e+01  -3.426636e+01
   3.810272e+01   1.206246e+01
  -7.268716e+01   3.385477e+01
  -1.501242e+02  -3.891372e+01
  -9.089773e+01  -1.064668e+02
   1.013418e+02  -7.072075e+01
   1.645058e+02  -4.937040e+01
   1.308397e+02   4.499044e+01
   4.768022e+01   8.091824e+01
  -7.470994e+01   8.533389e+01
  -5.219877e+01   1.876254e+01
   4.637262e+01  -3.892552e+01
   7.571807e+01  -1.976473e+00
   1.480990e+01   1.065608e+02
  -6.506399e+01   1.170481e+02
  -1.647516e+02   6.475139e+01
  -1.124565e+02  -8.616166e+01
   1.586705e+01  -1.478392e+02
   8.317192e+01  -9.772853e+01
   1.071570e+02   3.178978e+01
   2.310895e+01   8.252153e+01
  -3.097112e+01   9.824721e+01
  -5.805491e+01  -5.892174e+00
  -3.820154e+01  -3.720181e+01
  -1.460795e+01  -9.146945e+00
   5.115694e+00   1.224362e+01
  -1.894596e+01  -1.853627e+01
  -2.166696e+01  -7.730791e+01
  -1.949527e+00  -7.786376e+01
   2.464264e+01  -5.217641e+01
   1.108541e+02   2.052932e+01
   1.143368e+02   6.188521e+01
   2.309661e+01   3.531793e+01
  -7.769670e+01   6.001579e+00
  -1.103066e+02  -9.500230e-01
  -1.322189e+01  -3.985171e+01
   4.936621e+01  -2.124450e+01
   2.214516e+01   4.075183e+00
  -1.040482e+01   3.355731e+01
   5.888742e+00   1.464515e+01
   5.682852e+01  -7.862231e+00
   7.641482e+01   3.870009e+01
   2.453807e+01   6.378368e+01
  -1.208445e+02   1.262745e+02
  -1.673205e+02   4.067782e+01
  -1.673379e+02  -8.826498e+01
  -1.609785e+01  -1.562532e+02
   5.624428e+01  -1.264609e+02
   1.292026e+02  -5.780917e+01
   5.878529e+01   2.119384e+01
   3.345366e+01   3.454392e+01
  -4.802779e+00   6.795218e+00
   9.548297e+00   2.469978e+01
   5.602026e+01   5.975595e+01
   5.878272e+01   1.118948e+02
  -3.389934e+01   4.231995e+01
  -5.252685e+01  -3.488437e+01
  -6.499264e+01  -1.075187e+02
  -4.058907e+00  -9.595076e+01
   5.541778e+01  -9.352778e+00
   9.944891e+01   8.728094e+01
   3.360933e+01   1.191520e+02
  -3.712201e+01   7.676656e+01
  -8.606869e+01  -9.717999e-01
  -3.941633e+01  -6.624653e+01
   7.016562e+01  -7.826007e+01
   6.048447e+01  -3.993287e+01
  -2.043388e+01  -1.946668e+01
  -5.044272e+01   1.822129e+01
  -2.334675e+01  -2.231355e+01
   1.113777e+02  -5.107290e+01
   1.069286e+02  -5.145279e+01
   5.682454e+01   4.209499e+01
  -1.150977e+01   7.725102e+01
  -5.501537e+01   7.147460e+01
  -5.439138e+01  -6.347980e+00
  -1.861454e+01  -4.404288e+01
   2.671759e+01  -4.975364e+01
   5.345619e+01  -6.250493e+00
   4.523984e+01   5.443294e+01
   7.693961e-01   3.424961e+01
  -1.887440e+01   3.394961e+01
  -3.126376e+01  -3.959800e+01
  -2.013635e+01  -5.692188e+00
  -2.639501e+01   2.102713e+01
   3.292835e+01  -2.089396e+01
   1.409247e+01  -5.272047e+01
  -5.727917e+00  -3.352161e+01
   3.297396e+01  -5.204338e+00
   2.612491e+01   4.961681e+01
  -2.185625e+01   5.995293e+01
  -4.573975e+01   3.475685e+00
  -4.292132e+01  -1.533305e+01
  -2.216760e+01  -7.154721e+01
   5.704759e+01  -2.227515e+01
   9.564139e+01  -1.983834e+01
   8.347487e+01   1.827947e+01
  -2.262590e+01   3.349548e+01
  -3.094118e+01   1.603347e+01
  -3.987780e+01   1.953582e+01
   1.895131e+01   2.812699e+01
   5.261172e+01  -1.070309e+01
   9.727485e-02   3.894033e+01
  -8.563485e+01   1.659009e+01
