
 $NMID
 id='ANONYMOUS ', fmtdat='(2E16.6)'
 volume=1.0
 tramp=1.0
 $END
   4.140910e+03   1.087860e+02
   2.342653e+03   2.688937e+03
  -6.942958e+02   2.794763e+03
  -1.843519e+03   8.241672e+02
  -6.999275e+02  -4.871878e+02
   4.319592e+02  -4.430061e+02
   6.761774e+02   3.501162e+02
  -1.283934e+02   8.939627e+02
  -7.697928e+02   6.893772e+02
  -8.276863e+02  -9.059167e+01
  -3.947021e+02  -8.041931e+02
   2.657897e+02  -8.424386e+02
   5.664607e+02  -8.970691e+01
   3.722374e+02   6.268496e+02
  -3.206411e+02   7.040438e+02
  -6.157716e+02  -1.986705e+01
  -2.709188e+02  -6.458357e+02
   3.224204e+02  -6.095117e+02
   5.099059e+02  -1.386855e+02
   3.925774e+02   3.040784e+02
   1.498255e+01   4.085637e+02
  -2.350837e+02   2.493432e+02
  -1.593544e+02  -5.300785e+00
   1.285085e+02  -6.613031e+00
   3.597959e+02   1.891336e+02
   1.189862e+02   4.432835e+02
  -4.979210e+02   3.464979e+02
  -7.976160e+02  -1.250068e+02
  -4.083944e+02  -5.555415e+02
   4.161295e+02  -4.403604e+02
   6.927231e+02   8.045421e+01
   3.106330e+02   4.653898e+02
  -2.961476e+02   4.993229e+02
  -5.680279e+02   1.877501e+02
  -3.532219e+02  -1.757540e+02
  -9.288836e+01  -3.979710e+02
   1.603282e+02  -2.486077e+02
   1.078437e+02   2.211151e+02
  -2.122697e+02   3.635309e+02
  -3.594060e+02  -5.827439e+01
  -1.754304e+02  -6.887443e+02
   3.401466e+02  -6.110586e+02
   5.242918e+02   2.178515e+01
   1.672496e+02   4.983117e+02
  -2.645605e+02   2.690393e+02
  -3.090587e+02  -3.563598e+02
   9.487911e+01  -4.951369e+02
   5.291487e+02  -1.829011e+02
   6.118690e+02   3.935726e+02
   1.168039e+02   5.555233e+02
  -3.861950e+02   3.333471e+02
  -6.098436e+02  -7.563106e+01
  -3.404745e+02  -3.383215e+02
   1.568957e+02  -2.987561e+02
   3.561674e+02  -4.383081e+01
   2.572988e+02   1.661911e+02
  -1.249632e+02   5.036804e+01
  -1.280256e+02  -1.389785e+02
   1.695769e+02  -1.568566e+02
   2.928610e+02   1.029379e+02
   1.166249e+02   3.149752e+02
  -1.864395e+02   2.269502e+02
  -3.643785e+02   1.266413e+01
  -1.909614e+02  -1.455954e+02
   4.289127e+01  -2.658090e+02
   2.764810e+02  -3.297352e+02
   3.673445e+02  -2.026549e+02
   3.196451e+02   1.610601e+02
   1.027464e+02   4.159018e+02
  -1.037264e+02   3.384132e+02
  -9.681548e+01   9.736479e+01
  -2.743528e+01   4.779683e+01
  -4.321062e+01   1.069088e+02
  -2.750383e+02   1.054373e+02
  -2.464836e+02  -1.084050e+02
  -1.652989e+02  -3.155285e+02
   1.045636e+02  -2.544246e+02
   2.242014e+02   3.567588e+01
   1.547536e+02   2.535549e+02
  -2.554451e+00   2.865160e+02
  -2.872974e+02   1.044483e+02
  -3.219844e+02  -1.845252e+02
  -1.929952e+02  -3.159694e+02
   1.147382e+02  -2.659046e+02
   2.362647e+02  -1.089882e+02
   1.370820e+02   2.646730e+01
   7.675612e+01  -4.761911e+01
   2.452837e+02  -5.781433e+01
   4.160936e+02   4.473688e+01
   3.523785e+02   2.952516e+02
   1.160318e+01   4.693118e+02
  -3.869130e+02   3.725529e+02
  -4.583070e+02   1.239904e+02
  -3.212893e+02  -1.394306e+02
  -2.758344e+01  -2.828081e+02
   1.454268e+02  -2.401228e+02
   7.237060e+01  -2.858583e+01
  -1.261301e+02   9.802535e+01
  -1.800365e+02  -1.252646e+01
  -2.630425e+01  -1.819283e+02
   1.433766e+02  -1.516616e+02
   1.881676e+02   6.089850e+01
  -6.724257e+01   1.615870e+02
  -1.844825e+02  -7.400655e-01
  -1.479039e+02  -2.649905e+02
   5.652548e+01  -3.420958e+02
   2.445550e+02  -1.808937e+02
   3.056944e+02   8.234772e+01
   2.804817e+02   2.677498e+02
   1.028474e+02   2.502960e+02
  -1.161668e+02   1.379198e+02
  -1.555178e+02  -1.251309e+01
  -4.512947e+01  -2.179875e+01
   8.070264e+01   5.022228e+01
   2.270490e+00   1.405374e+02
  -1.189720e+02   5.671157e+01
  -1.694519e+02   8.224506e+00
  -3.785048e+01  -1.048769e+02
   1.000879e+02   4.924241e+00
   5.568235e+01   5.843263e+01
  -1.406637e+02   1.464518e+02
  -2.740549e+02   1.501911e+01
  -2.580361e+02  -1.421646e+02
  -2.894052e+01  -2.103884e+02
   1.778658e+02  -2.867113e+02
   2.782816e+02  -1.076393e+02
   1.144240e+02   3.848530e+01
  -2.020174e+01   7.978827e+01
  -7.637531e+01  -1.611864e+01
   3.237036e+01  -7.192207e+01
   2.224446e+02  -3.004131e+01
   1.884484e+02   9.062433e+01
   7.986403e+01   2.033948e+02
  -1.096485e+02   1.530683e+02
  -1.450680e+02   1.839608e+01
  -7.402103e+01  -3.189973e+01
   4.946177e+01  -4.627218e+00
   2.287630e+01   9.349219e+01
  -8.561342e+01   1.346406e+02
  -2.152303e+02   4.534218e+01
  -1.961322e+02  -1.358002e+02
  -1.885047e+00  -1.924634e+02
   1.483075e+02  -1.615160e+02
   1.635214e+02  -2.332503e+01
   5.770168e+01   8.558399e+01
  -6.175484e+01   1.299324e+02
  -8.721397e+01   3.875547e+01
  -2.857638e+01  -4.624538e+01
   1.584113e+01  -9.822118e+00
  -2.166983e+00   5.931980e+00
  -7.118359e+01   7.176688e-01
  -1.093919e+02  -8.779526e+01
   1.440526e-01  -1.808188e+02
   1.085008e+02  -1.491935e+02
   2.333594e+02  -3.804254e+01
   2.168133e+02   1.528172e+02
   4.437232e+01   2.250224e+02
  -9.188375e+01   1.708097e+02
  -1.091515e+02   2.386780e+01
  -5.291305e+01  -7.542322e+01
  -3.989053e+01  -2.979925e+01
  -7.213989e+01   2.772437e+01
  -7.619991e+01   1.305720e+00
  -6.258371e+01  -6.279254e+01
   5.659646e+01  -9.187252e+01
   9.567352e+01  -6.840215e+01
   6.668207e+01   2.399796e+01
  -3.555966e+01   1.114462e+02
  -1.302129e+02   5.795314e+01
  -1.798190e+02  -1.881222e+01
  -1.036109e+02  -2.067884e+02
   1.365478e+02  -2.393124e+02
   2.847116e+02  -8.826900e+01
   2.505294e+02   1.246586e+02
   9.503128e+01   1.736802e+02
  -4.484518e+01   1.563338e+02
  -6.320691e+01   7.270503e+01
  -5.411638e+01   2.754428e+01
  -5.538116e+01   1.106698e+02
  -1.025154e+02   9.189452e+01
  -1.334270e+02  -1.853928e+01
  -1.197871e+02  -1.359612e+02
  -2.290537e+01  -2.110231e+02
   8.959842e+01  -1.451595e+02
   1.989758e+02  -3.592880e+01
   1.507523e+02   9.569039e+01
   1.900070e+01   1.384368e+02
  -5.296399e+01   9.237903e+01
  -6.615324e+01  -5.952238e+00
   1.760021e+01  -4.559616e+01
   1.721514e+01  -1.403613e+01
  -1.613508e+01   5.092396e+00
  -9.806006e+01  -9.122650e+00
  -5.995717e+01  -9.180117e+01
   6.420582e+01  -1.554973e+01
   1.498662e+02   1.799835e+00
   1.324367e+02   4.051076e+01
  -9.424638e-01   9.770535e+01
  -1.076032e+02   4.771629e+01
  -1.443475e+02  -5.243667e+00
  -2.465447e+01  -4.711585e+01
   3.571150e+01  -2.274625e+01
   7.781824e+01   1.079369e+01
  -7.497569e-01   5.218948e+01
  -4.213934e+01   6.286443e+01
  -5.803095e+01   1.398846e+01
  -4.556501e+01  -3.078255e+01
  -5.568309e+01  -3.694388e+01
  -8.478897e+01  -4.084408e+01
  -8.602902e+01  -1.004509e+01
  -5.835206e+01  -5.457171e+01
   2.882730e+01  -9.952480e+01
   8.003080e+01  -1.112079e+02
   1.731168e+02  -2.044585e+01
   1.359557e+02   8.992983e+01
  -9.475410e+00   1.175138e+02
  -7.429456e+01   3.629149e+01
  -6.005887e+01  -2.869331e+01
   6.520375e+01  -8.397888e+00
   1.200825e+02   2.780234e+01
   6.152297e+01   1.085173e+02
  -8.082745e+01   8.422050e+01
  -1.989205e+02   2.251343e+01
  -1.426937e+02  -4.660200e+01
  -2.520609e+01  -8.617116e+01
   4.374682e+01  -7.391277e+01
   5.268126e+01  -2.297212e+01
  -3.474729e+01   2.532747e+01
  -8.832371e+01  -8.272844e+00
  -4.099848e+01  -1.118268e+02
   9.839353e+01  -1.542409e+02
   1.522519e+02  -5.105915e+01
   1.149313e+02   9.463755e+01
   1.286202e+01   2.024322e+02
  -9.049660e+01   1.277363e+02
  -9.208108e+01  -3.218043e+01
  -5.138717e+01  -1.099381e+02
   1.206010e+01  -8.745658e+01
   6.068652e+01  -1.409063e+01
   3.460115e+01   3.473997e+01
   2.862546e+01   1.187516e+00
  -6.948215e+00  -1.998052e+01
   2.685709e+01   1.772888e+01
   5.406983e+01   7.517379e+01
   4.559068e+01   1.213126e+02
  -5.607131e+01   7.165759e+01
  -1.411577e+02  -5.862990e+01
  -1.063876e+02  -5.290492e+01
  -5.190691e+01  -6.920560e+01
   8.784302e+01  -3.695433e+01
   8.400479e+01  -6.407723e+00
   1.251301e+01   2.806176e+01
  -2.265175e+01   1.383180e+01
  -8.351091e+00   7.624042e+00
   8.151982e+00   4.937554e+00
   3.481263e+00  -4.641755e+01
  -8.346255e+01  -2.176613e+01
  -9.165135e+01  -3.732676e+01
   1.203798e+01  -7.408412e+01
   9.749497e+01  -7.558393e+01
   1.365563e+02  -7.088804e+01
   1.250233e+02   3.785900e+01
   1.945834e+01   1.478445e+02
  -9.043154e+01   1.285311e+02
  -1.180929e+02   9.006636e+01
  -1.006100e+02  -2.192894e+01
  -2.860569e+01  -3.935051e+01
  -2.632628e+01  -4.863407e+00
   2.908741e+01  -7.376742e+00
  -3.142397e+01  -4.886688e+01
  -6.445821e+00  -6.151741e+01
   2.062015e+01  -3.582811e+01
   5.647374e+01   9.266638e+00
   9.505511e+01   1.137242e+02
   1.579801e+01   1.235283e+02
  -8.781140e+01   1.858096e+01
  -1.190623e+02  -9.126995e+01
  -3.071864e+01  -9.613626e+01
   6.012760e+01  -4.092843e+01
   7.016823e+01   9.099271e+00
   2.893714e+01   6.833990e+01
  -4.659152e+01   4.322932e+01
  -2.976703e+01   4.433451e+01
   3.854311e+01   5.886333e+00
   8.714611e+01  -1.785871e+01
   2.619053e+01  -2.225879e+01
  -7.462373e+01   5.593389e+01
  -1.070977e+02   4.392925e+01
  -9.289475e+01  -1.304975e+01
   2.665924e+01  -8.727976e+01
   5.027348e+01  -6.213849e+01
   3.999636e+01  -8.514999e+00
   2.549030e+00   2.420214e+01
  -2.532341e+01   3.255839e+01
  -2.388189e+01  -1.111927e+01
  -2.523387e+01  -3.059280e+01
   1.717192e+01  -2.460367e+01
   3.068533e+01   2.575649e+01
   1.727665e+01   3.003528e+01
   2.111879e+01  -1.842057e+01
  -6.273254e+00   9.684676e-01
  -3.654015e+00  -7.089442e+00
   6.775013e+00   3.961930e+01
  -3.046003e+01   2.733874e+01
  -2.727514e+01  -5.017199e+00
  -4.498622e+01  -5.180812e+01
  -2.421119e+01  -4.765356e+01
   4.972257e+01  -2.889541e+01
   9.378264e+01   4.814878e+01
   3.086737e+01   5.445631e+01
  -4.859195e+01   3.781257e+01
  -6.102089e+01   1.174344e+01
  -5.468223e+01  -5.807573e+01
  -6.374321e+00  -3.594692e+01
   6.499548e+01  -3.302574e+01
   5.778521e+01   5.932833e+00
  -3.361446e+01   9.829314e+00
  -4.065822e+01  -2.468326e+01
   3.027499e+01  -3.698909e+01
   1.102009e+02  -3.951372e+01
