
 $NMID
 id='ANONYMOUS ', fmtdat='(2E16.6)'
 volume=1.0
 tramp=1.0
 $END
   2.625610e+03   1.085411e+02
   1.627112e+03   1.471031e+03
  -1.200569e+02   1.667039e+03
  -1.242544e+03   7.527946e+02
  -8.060318e+02  -1.668781e+02
   1.164063e+02  -2.068044e+02
   4.442568e+02   2.087422e+02
  -1.863751e+01   5.319332e+02
  -5.036209e+02   4.744349e+02
  -5.610646e+02   6.054205e+01
  -3.151648e+02  -4.596691e+02
   1.190343e+02  -5.499844e+02
   3.554906e+02  -1.506010e+02
   1.877242e+02   3.435747e+02
  -1.410791e+02   4.779259e+02
  -2.946844e+02   3.324514e+01
  -1.581031e+02  -4.296562e+02
   2.064523e+02  -4.163321e+02
   3.806270e+02  -9.482091e+01
   2.664903e+02   1.672351e+02
   8.520510e+01   2.840363e+02
  -9.190710e+01   1.873034e+02
  -9.253280e+01   5.684873e+01
   1.504621e+02   4.904079e+01
   1.945384e+02   1.274783e+02
   4.568005e+01   2.324847e+02
  -3.392271e+02   1.568527e+02
  -4.963286e+02  -1.184691e+02
  -1.688481e+02  -3.302933e+02
   2.296762e+02  -1.899398e+02
   4.166507e+02   6.989930e+01
   1.686062e+02   2.898869e+02
  -2.009725e+02   2.725718e+02
  -3.593453e+02   1.098542e+02
  -2.029695e+02  -1.095518e+02
  -2.969073e+01  -2.316249e+02
   3.600034e+01  -1.431504e+02
  -6.764134e+01   9.461380e+01
  -1.220673e+02   1.223634e+02
  -1.537966e+02  -9.823860e+01
  -6.449524e+00  -3.803915e+02
   2.175730e+02  -3.227040e+02
   3.035570e+02   1.266006e+01
   8.758438e+01   3.009566e+02
  -1.336003e+02   1.170214e+02
  -1.787073e+02  -2.017496e+02
   1.342120e+02  -3.434374e+02
   3.387841e+02  -6.498453e+01
   3.793482e+02   2.467403e+02
   9.205682e+01   3.963829e+02
  -2.366994e+02   2.060318e+02
  -4.534422e+02  -6.800944e+01
  -2.631119e+02  -2.340343e+02
   3.856942e+01  -1.811580e+02
   2.521445e+02  -4.180740e+01
   1.567117e+02   6.247950e+01
  -9.356779e+00   3.071944e+01
  -3.226862e+01  -1.005498e+02
   8.765817e+01  -5.150722e+01
   1.735824e+02   2.114513e+01
   8.360677e+01   1.425958e+02
  -1.070889e+02   1.631067e+02
  -3.316113e+02   8.168355e+01
  -1.999352e+02  -5.654110e+01
   5.121827e+01  -2.197263e+02
   2.481611e+02  -2.553356e+02
   2.509971e+02  -1.257666e+02
   1.906037e+02   1.379163e+02
   2.103729e+01   2.733024e+02
  -5.240896e+00   2.779797e+02
  -1.262774e+01   1.412620e+02
  -2.841870e+01   2.917065e+01
  -1.281376e+02   6.011522e+01
  -1.597472e+02  -7.595351e+00
  -1.665129e+02  -9.432375e+01
  -4.299240e+01  -1.474865e+02
   7.370386e+01  -1.162003e+02
   1.221506e+02   3.933051e+01
   9.960820e+01   1.745710e+02
  -2.432174e+01   1.659058e+02
  -1.616001e+02  -1.983803e+00
  -1.781252e+02  -1.699368e+02
  -1.041314e+02  -2.394242e+02
   7.506181e+01  -1.892809e+02
   1.261658e+02  -9.353409e+01
   1.110409e+02  -6.828305e+01
   1.370911e+02  -4.256659e+01
   1.992130e+02  -2.759363e+01
   2.869313e+02   8.288746e+01
   2.394429e+02   2.427675e+02
  -2.806845e+01   3.469665e+02
  -2.899704e+02   2.627563e+02
  -3.216617e+02   3.813001e+01
  -1.804991e+02  -6.908721e+01
  -6.150433e+00  -1.680654e+02
   6.836768e+01  -1.085164e+02
  -3.102148e+00  -4.484757e+01
  -1.096244e+02   3.259891e+01
  -9.194513e+01  -2.986926e+01
  -2.268914e+01  -9.409426e+01
   8.535803e+01  -7.525302e+01
   9.552922e+01   4.257224e+01
  -4.101093e+01   9.431524e+01
  -1.159300e+02  -1.106571e+01
  -6.337593e+01  -1.802977e+02
   3.373015e+01  -2.072856e+02
   1.979499e+02  -1.087744e+02
   2.273708e+02   4.643920e+01
   2.041094e+02   1.548810e+02
   7.290475e+01   2.026529e+02
  -9.430029e+01   9.211154e+01
  -9.968699e+01  -8.462632e-01
  -2.901824e+01  -6.694002e+00
   4.014261e+01   3.274358e+01
  -1.226413e+01   7.403937e+01
  -7.994314e+01   3.910306e+01
  -1.058704e+02  -1.233380e+01
  -6.321053e+01  -3.113094e+01
   2.798632e+01   2.617295e+01
   7.746201e+00   6.110428e+01
  -1.284688e+02   5.421347e+01
  -1.913754e+02  -6.057661e+01
  -1.701349e+02  -1.147677e+02
   6.376253e+00  -2.052497e+02
   1.345811e+02  -1.403869e+02
   1.998100e+02  -1.028361e+02
   1.240697e+02   1.755251e+01
  -4.102107e+01   6.146961e+01
  -2.232442e+01   6.512688e+00
   4.050783e+01  -4.343106e+01
   1.410659e+02  -7.732023e+00
   1.081150e+02   7.008105e+01
   4.098564e+01   1.530897e+02
  -3.399928e+01   1.230734e+02
  -7.436467e+01   1.359585e+01
  -5.248337e+01  -5.572757e+01
   2.819763e+00   2.759707e+01
   9.848139e+00   6.464753e+01
  -5.742700e+01   7.246510e+01
  -1.291014e+02  -4.107345e+00
  -1.038892e+02  -1.236364e+02
  -1.090890e+01  -1.251664e+02
   1.182636e+02  -9.832588e+01
   9.982149e+01  -2.133832e+01
   3.602770e+01   5.861052e+01
  -6.525632e+01   7.659977e+01
  -3.901498e+01   3.377438e+01
  -5.725790e-02  -1.622857e+01
   1.431369e+01   2.949973e+00
  -3.262345e+01  -9.427165e+00
  -6.715319e+01  -5.474629e+00
  -7.513785e+01  -8.990714e+01
  -1.501722e+01  -1.158201e+02
   1.174030e+02  -8.308339e+01
   1.738032e+02   2.032702e+01
   1.404546e+02   1.134155e+02
  -9.393025e-02   1.598360e+02
  -8.115553e+01   1.030656e+02
  -7.960569e+01   2.203334e+01
  -7.062072e+01  -1.335309e+01
  -2.911183e+01  -2.397526e+01
  -4.998312e+01   2.140210e+01
  -5.172901e+01  -4.421624e+00
  -3.734654e+01  -4.646054e+01
   6.492570e+01  -7.639412e+01
   7.529090e+01  -1.755616e+01
   3.936126e+01   6.540202e+01
  -2.257628e+01   6.182986e+01
  -1.256875e+02   2.051286e+01
  -1.276910e+02  -5.806339e+01
  -8.338152e+01  -1.322491e+02
   9.099226e+01  -1.658359e+02
   2.027545e+02  -3.915945e+01
   1.725949e+02   6.756304e+01
   6.440892e+01   1.183569e+02
  -4.406024e+01   6.198644e+01
  -7.078020e+01   1.898467e+01
  -5.739632e+01   4.991229e+01
  -5.964633e+01   8.813446e+01
  -9.197069e+01   5.931926e+01
  -9.074904e+01  -2.366224e+01
  -9.265373e+01  -1.339775e+02
  -1.254575e+01  -1.437682e+02
   6.589762e+01  -1.103631e+02
   1.034422e+02   8.048134e+00
   8.384177e+01   9.493162e+01
   1.392703e+01   1.171639e+02
  -4.058226e+01   1.785590e+01
  -7.058478e+01  -4.336568e+00
   2.199853e+01  -5.083219e+01
   5.408696e+00  -5.678931e+01
  -1.623069e+01  -1.945960e+00
  -9.450963e+01  -3.441299e+01
  -5.149481e+01  -5.726174e+00
   4.854418e+01   3.688418e+00
   1.229069e+02  -1.433795e+01
   9.955216e+01   2.956785e+01
   2.446481e+01   7.277819e+01
  -6.578756e+01   5.035826e+01
  -8.121067e+01  -4.716679e+00
  -3.043878e+01  -2.860646e+01
   5.647201e+01  -1.832328e+01
   1.845478e+01   9.400965e-01
  -2.882637e+00   6.663458e+01
  -7.090321e+01   4.565410e+01
  -3.923509e+01  -3.696313e+00
  -6.387191e+01  -4.963222e+01
  -4.205859e+01  -3.880906e+01
  -3.736410e+01  -2.077552e+01
  -6.033821e+01  -3.158622e+01
  -1.136839e+01  -5.498720e+01
   6.164953e+01  -9.346473e+01
   8.895031e+01  -9.808984e+01
   1.379963e+02  -5.085916e+01
   8.207424e+01   8.169783e+01
   3.511576e+01   9.007603e+01
  -5.187998e+01   3.849251e+01
  -5.134831e+01   2.626987e+01
   3.483422e+01  -1.389788e-01
   1.127831e+02   4.327699e+01
   5.030020e+01   1.044093e+02
  -4.384578e+01   5.325549e+01
  -1.333838e+02   2.992876e+01
  -1.107069e+02  -2.303124e+01
  -2.551789e+01  -5.516809e+01
   7.834723e+01  -3.485540e+01
   3.631893e+01   5.682980e+00
  -2.336077e+01  -6.017841e+00
  -5.875355e+01   1.219089e+00
   1.267742e+01  -7.255238e+01
   7.097925e+01  -1.258907e+02
   1.420588e+02  -6.749244e+01
   7.096566e+01   7.245099e+01
   2.685725e+01   1.669690e+02
  -7.096050e+01   9.007763e+01
  -5.755986e+01   8.859975e+00
  -5.908066e+01  -9.237847e+01
   5.530591e+00  -8.477620e+01
   3.290306e+01  -1.158287e+01
   1.549862e+01   1.402743e+01
   2.578184e+00   1.540353e+01
   3.562892e+01   1.508072e+01
   1.570299e+01  -1.897655e+01
   2.374638e+01   4.313778e+01
   1.430547e+01   7.875215e+01
  -2.321386e+01   2.168537e+01
  -8.689179e+01  -5.319101e+01
  -8.270307e+01  -2.334476e+01
  -3.598042e+01  -3.591036e+01
   3.219563e+01  -1.888327e+01
   2.258734e+01  -6.325324e+00
   2.545691e+01   2.844599e+01
  -9.331937e+00   1.116826e+01
  -5.334586e-01   1.768006e+01
   3.110693e+01  -2.559054e+01
  -1.757417e+01   3.022411e+00
  -3.050153e+01   2.196192e+00
  -6.899875e+01  -1.650408e+01
   8.194625e+00  -3.093447e+01
   9.517600e+01  -4.789882e+01
   1.101427e+02  -4.351902e+01
   8.231965e+01   3.453165e+01
   1.021313e+01   1.249318e+02
  -1.878330e+01   9.561675e+01
  -9.445964e+01   6.216181e+01
  -4.564973e+01  -1.568940e+01
   4.908384e+01  -2.591033e+01
   7.727006e+00   1.039799e+01
   3.086194e+01  -1.752932e+01
  -3.502906e+01  -4.272118e+01
  -9.482398e-01  -7.497089e+01
   5.061126e+01  -4.820804e+01
   4.023038e+01   4.084460e+01
   1.385631e+01   7.383425e+01
   1.094823e+00   6.113228e+01
  -4.748806e+01   2.799275e+01
  -7.116937e+01  -7.326114e+01
  -3.469506e+01  -8.170642e+01
   5.247279e+01  -4.388004e+01
   3.994410e+01  -1.022120e+01
   7.001558e+00   2.791807e+01
  -1.199575e+01   2.172945e+01
  -4.128996e+00   2.143982e+01
   1.096147e+01  -2.489527e+01
   3.404885e+01  -1.243873e+00
   1.017289e+01   2.415606e+00
  -5.821783e+01   3.795314e+01
  -7.985382e+01   6.756357e+01
  -8.273010e+01   1.644793e+01
   5.087396e-01  -6.825244e+01
   5.320871e+01  -4.445907e+01
   2.071700e+01   1.859108e+01
  -3.811411e+00   3.954062e+01
  -1.463663e+01   1.645323e+01
   1.642858e+01  -3.783747e+01
  -2.444072e+01  -2.257914e+01
   3.482911e-02  -4.740230e+00
  -1.218200e+01   2.450134e+01
   2.462084e+01   1.069540e+01
   9.990995e-01  -1.764528e+01
   2.315807e+01  -2.140574e+01
   1.801798e+00  -5.359485e+00
  -1.355472e+01  -1.315830e+01
  -3.400825e+00   6.250890e+01
  -1.488887e+01   2.270587e+01
  -4.384218e+01  -2.194942e+01
  -6.046766e+00  -3.391261e+01
   5.841538e+01  -2.452713e+01
   6.105563e+01   4.131868e+01
   2.368762e+01   3.292092e+01
  -2.077731e+01   1.870757e+01
  -5.721819e+01  -2.689821e+01
  -4.630981e+01  -3.875857e+00
   1.849125e+01  -2.991215e+01
   4.029060e+01  -1.553483e+01
   1.544243e+01   3.000096e+00
  -1.609950e+01  -2.590702e+01
  -4.515448e+01  -3.959935e+01
  -1.194000e+01  -3.146763e+01
   6.579739e+01  -3.089963e+01
