
 $NMID
 id='ANONYMOUS ', fmtdat='(2E16.6)'
 volume=1.0
 tramp=1.0
 $END
  -3.430627e+03  -1.512589e+02
  -1.981440e+03  -1.774810e+03
   8.815123e+01  -2.139396e+03
   1.508587e+03  -1.043058e+03
   1.146579e+03   7.169546e+01
  -1.599663e+02   2.934601e+02
  -5.220229e+02  -2.136874e+02
  -5.417180e+01  -6.789887e+02
   5.807455e+02  -6.119220e+02
   7.427581e+02  -2.264585e+01
   3.677250e+02   5.852574e+02
  -1.053564e+02   6.607029e+02
  -4.262992e+02   1.821885e+02
  -2.829327e+02  -4.598657e+02
   1.926937e+02  -5.816073e+02
   4.522492e+02  -6.460563e+01
   2.891833e+02   4.731380e+02
  -2.654976e+02   5.632210e+02
  -5.590706e+02   1.730338e+02
  -3.340932e+02  -2.165034e+02
  -7.166117e+01  -3.618056e+02
   1.432799e+02  -2.170888e+02
   1.161303e+02  -2.377233e+01
  -1.957527e+02  -4.396917e+01
  -3.296297e+02  -2.335949e+02
  -9.081299e+00  -3.234447e+02
   4.962761e+02  -1.490275e+02
   6.247694e+02   1.725820e+02
   2.560613e+02   3.950026e+02
  -3.244013e+02   2.665787e+02
  -5.373492e+02  -1.158577e+02
  -2.032848e+02  -3.908894e+02
   3.021582e+02  -3.802925e+02
   4.917239e+02  -1.084990e+02
   3.084439e+02   2.187492e+02
   4.847826e+01   2.999803e+02
  -7.155375e+01   1.897482e+02
   1.015805e+01  -1.066916e+02
   2.227980e+02  -1.665481e+02
   3.058912e+02   1.669957e+02
   4.117427e+00   5.294423e+02
  -3.294622e+02   4.382161e+02
  -3.751795e+02  -1.097028e+01
  -7.661011e+01  -3.828049e+02
   2.144247e+02  -1.630816e+02
   2.433172e+02   2.500122e+02
  -1.444927e+02   4.190778e+02
  -4.485528e+02   1.056545e+02
  -4.410042e+02  -3.688519e+02
  -1.117354e+02  -5.219551e+02
   3.133163e+02  -2.827489e+02
   5.657052e+02   9.845912e+01
   3.511346e+02   3.000946e+02
  -5.609184e+01   2.551572e+02
  -3.170598e+02   7.210548e+01
  -2.170677e+02  -9.619176e+01
   3.702003e+01  -3.963721e+01
   7.418807e+01   6.839827e+01
  -8.639352e+01   7.084420e+01
  -2.780060e+02  -4.921631e+01
  -1.293998e+02  -2.121490e+02
   1.716575e+02  -2.535716e+02
   3.959497e+02  -1.242110e+02
   2.433971e+02   1.298628e+02
  -7.359605e+01   2.956949e+02
  -3.265048e+02   3.248905e+02
  -3.709813e+02   1.457296e+02
  -2.251775e+02  -1.606264e+02
  -4.179707e+01  -3.284517e+02
   3.657964e+01  -3.150625e+02
   7.520906e+01  -1.932210e+02
   1.705766e+01  -7.459512e+01
   1.472849e+02  -7.530724e+01
   2.081740e+02  -3.919147e+01
   2.101423e+02   1.320959e+02
   4.513883e+01   2.024457e+02
  -7.829452e+01   1.834149e+02
  -1.812581e+02  -3.793517e+01
  -1.437200e+02  -2.108900e+02
   5.224704e+01  -2.661023e+02
   2.444056e+02  -4.350373e+01
   3.360898e+02   2.012620e+02
   1.680638e+02   3.254222e+02
  -1.109937e+02   2.665899e+02
  -1.611908e+02   8.521496e+01
  -1.348205e+02   7.077772e+01
  -1.666642e+02   3.311894e+01
  -2.760908e+02   4.539899e+01
  -3.934059e+02  -1.199817e+02
  -3.544844e+02  -3.121279e+02
   1.952130e+01  -4.752615e+02
   3.896975e+02  -3.561060e+02
   4.515072e+02  -7.079029e+01
   2.798961e+02   1.119975e+02
  -2.415281e+01   2.421200e+02
  -1.314310e+02   1.538852e+02
  -2.966299e+01   4.225294e+01
   1.591246e+02  -2.867237e+01
   1.060865e+02   2.762277e+01
   2.970726e+01   1.432315e+02
  -1.007112e+02   1.181408e+02
  -1.148192e+02  -5.982503e+01
   3.013716e+01  -1.422024e+02
   1.665193e+02  -2.109183e+01
   1.117372e+02   1.985761e+02
  -1.453490e+00   3.040583e+02
  -2.426335e+02   1.552019e+02
  -3.022234e+02  -1.072640e+02
  -2.281557e+02  -2.728251e+02
   7.333783e+00  -2.812015e+02
   1.493054e+02  -1.141113e+02
   1.641514e+02   4.983925e+01
   4.403658e+01  -8.448065e-01
  -7.372396e+01  -8.452233e+01
   4.630361e+00  -9.181513e+01
   1.141667e+02  -4.296502e+01
   1.210591e+02   4.717331e+00
   1.363297e+01   5.307160e+01
  -9.718136e+01  -8.126690e+00
  -3.742836e+01  -8.558763e+01
   1.405680e+02  -9.276169e+01
   2.932348e+02   4.834417e+01
   1.879256e+02   1.667615e+02
   1.636491e+01   2.572962e+02
  -2.018056e+02   1.832297e+02
  -2.517233e+02   6.290185e+01
  -1.330791e+02  -6.926542e+01
   1.590585e+01  -7.214572e+01
   6.481117e+01   1.799257e+01
  -5.096965e+01   8.604861e+01
  -1.778255e+02   1.049414e+01
  -1.382512e+02  -8.061930e+01
  -8.000061e+01  -1.805321e+02
   6.152048e+01  -1.063633e+02
   1.289158e+02   2.098893e+01
   1.958891e+01   5.139883e+01
  -1.985565e+01  -4.167462e+01
  -2.336009e-01  -7.531172e+01
   8.613186e+01  -1.315351e+02
   2.057523e+02  -3.752445e+01
   1.632919e+02   1.581451e+02
  -1.511964e+01   1.852223e+02
  -1.584774e+02   1.333488e+02
  -1.762816e+02   5.799839e-01
  -7.567264e+01  -8.952142e+01
   6.377823e+01  -9.917608e+01
   5.186861e+01  -2.683575e+01
   1.387553e+01   2.592163e+01
  -1.727674e+01   4.794784e+00
   2.908118e+01  -4.749829e+01
   8.496373e+01  -2.510810e+01
   1.189999e+02   1.128756e+02
  -2.623102e+00   1.513975e+02
  -1.668271e+02   1.360978e+02
  -2.186325e+02  -8.499909e-01
  -1.524050e+02  -1.735474e+02
  -2.893007e+01  -2.019032e+02
   1.211730e+02  -1.381805e+02
   1.239295e+02  -4.175894e+01
   6.534164e+01   5.033140e+01
   1.844672e+01   2.018073e+01
   4.358381e+01   1.480846e+01
   9.087305e+01  -1.491905e+01
   3.269899e+01   8.549224e+01
  -6.979796e+01   1.172054e+02
  -9.177674e+01   6.852636e+01
  -9.310770e+01  -8.396015e+01
   1.108046e+01  -1.066972e+02
   1.478477e+02  -7.157641e+01
   1.682126e+02   5.011473e+01
   8.494707e+01   1.748505e+02
  -1.192165e+02   2.168590e+02
  -2.270109e+02   7.027399e+01
  -2.236647e+02  -1.022506e+02
  -9.086800e+01  -1.290679e+02
   4.306946e+01  -1.346952e+02
   7.477794e+01  -3.585841e+01
   7.002184e+01  -4.601915e+01
   5.823992e+01  -7.335847e+01
   8.447550e+01  -4.407343e+01
   1.068442e+02   3.851871e+01
   8.204849e+01   1.555287e+02
   6.182979e+01   2.142678e+02
  -1.251584e+02   1.453160e+02
  -1.815189e+02   7.238953e+00
  -1.725503e+02  -1.223038e+02
   4.301497e+00  -1.479710e+02
   9.648626e+01  -8.004907e+01
   6.946905e+01   3.466851e+01
  -1.405501e+01   7.004930e+01
  -1.649483e+01   3.083549e+01
   2.034391e+01  -8.574326e+00
   1.128568e+02   8.041888e+00
   3.107328e+01   3.386974e+01
  -4.177892e+01   1.989907e+01
  -1.453275e+02  -2.386749e+01
  -1.108104e+02  -4.616708e+01
  -2.689233e+01  -7.904617e+01
   1.274815e+02  -7.057856e+01
   1.411804e+02  -1.249218e+01
   4.203141e+01   4.388540e+01
  -5.740457e+01   2.720096e+01
  -9.940765e+01  -1.307657e+01
  -3.465913e+01  -6.565836e+01
   5.633644e+01  -5.973680e+01
   4.540192e+01  -8.728807e+00
   7.951131e+01   5.780565e+01
   3.813077e+01   3.581326e+01
   6.520487e+01  -8.810638e+00
   5.273502e+01   3.483798e+01
   4.079518e+01   5.810392e+01
  -4.458602e+01   1.629270e+02
  -9.898902e+01   1.508641e+02
  -1.831478e+02   2.742503e+01
  -1.185192e+02  -1.005226e+02
  -1.221878e+01  -1.218338e+02
   6.506799e+01  -7.147209e+01
   9.780571e+01   6.444227e+00
  -3.994765e+01   3.307263e+01
  -1.484812e+02  -2.638604e+01
  -8.812315e+01  -9.203139e+01
   9.255764e+01  -7.615084e+01
   1.486499e+02  -5.091685e+01
   1.572946e+02   4.640543e+01
   2.043216e+01   6.586950e+01
  -6.880545e+01   4.802483e+01
  -1.822173e+01  -1.148778e+01
   3.191438e+01  -3.138436e+01
   1.078282e+02   1.526862e+01
   2.769430e+01   1.079882e+02
  -4.059221e+01   1.231188e+02
  -1.625899e+02   7.045525e+01
  -1.099188e+02  -7.181003e+01
  -1.763444e+01  -1.808148e+02
   7.346105e+01  -1.353807e+02
   9.809947e+01   1.751195e+01
   1.889985e+01   8.609736e+01
  -1.301440e+01   9.951613e+01
  -3.213568e+01   2.813611e+01
  -1.582626e+01  -2.125573e+01
  -5.566601e+00  -1.551531e+01
  -2.666777e+01  -1.054940e+01
  -2.643685e+01  -2.531628e+01
  -3.981680e+01  -7.099686e+01
  -2.765653e+01  -1.128265e+02
   6.836277e+01  -2.215680e+01
   1.012950e+02   8.636466e+00
   1.148977e+02   2.935587e+01
   2.331260e+01   1.946497e+01
  -1.042747e+02   1.306172e+00
  -6.234946e+01   3.004515e+01
  -2.230366e+01  -3.942971e+01
   2.640194e+01  -2.019889e+01
   2.993997e+01   8.173264e-01
  -9.327727e-01  -2.459054e+01
   2.270988e+01   2.064156e+01
   6.458938e+01  -1.517282e+01
   8.556446e+01   4.165276e+00
   2.277421e+01   6.020049e+01
  -9.930886e+01   7.665838e+01
  -1.674879e+02   7.039814e+01
  -1.112206e+02  -5.540793e+01
  -2.559207e+01  -1.352490e+02
   5.230368e+01  -1.310709e+02
   1.283653e+02  -5.071876e+01
   5.968888e+01   2.165090e+01
   3.598739e+01   4.392807e+01
  -1.688395e+00  -1.027131e+01
   1.357685e+01  -9.010461e+00
   4.708387e+01   5.863945e+01
   2.724893e+01   1.053200e+02
  -1.006467e+01   5.273739e+01
  -5.733553e+01  -7.174124e+00
  -7.496312e+01  -8.846374e+01
  -2.731398e+01  -1.100707e+02
   6.495493e+01  -2.035746e+01
   6.851410e+01   8.629900e+01
   4.711659e+01   9.255943e+01
  -4.404649e+01   4.644046e+01
  -6.333030e+01  -1.835306e+00
  -1.552088e+01  -5.483580e+01
   7.778229e+00  -3.559670e+01
   2.480806e+01  -3.373159e+01
  -4.529049e+01  -8.665157e+00
  -5.578133e+01   2.722867e+01
  -2.841021e+01  -7.202899e+00
   3.823221e+01  -7.332799e+01
   1.024896e+02  -4.697769e+01
   6.197605e+01   2.946844e+01
  -1.337356e+01   6.654083e+01
  -3.535778e+01   6.413306e+01
  -5.477863e+01  -2.475188e+01
  -5.459254e+00  -4.310362e+01
   5.178481e-01  -2.197775e+01
   1.174917e+01   1.138344e+01
   1.127307e+01   3.921864e+01
  -2.854123e+00   2.749598e+01
  -1.560414e+01   1.057536e+00
  -6.171971e+01  -2.861961e+01
  -3.413238e+01  -3.277934e+01
  -4.274420e+00   2.798377e+01
  -1.105688e+01   4.232654e+00
   1.262461e+01  -3.890417e+01
  -5.069533e+00  -5.085657e+01
   1.863064e+01  -1.572031e+01
   3.467058e+01   3.508327e+01
  -1.409196e+01   4.063764e+01
  -3.833148e+01   5.036624e+01
  -6.844752e+01  -6.321227e+01
  -1.921749e+01  -5.535607e+01
   1.353095e+01  -1.339857e+01
   8.474538e+01  -1.621143e+01
   3.494250e+01   2.942043e+01
  -6.821913e+01   5.982984e+01
  -3.910877e+01   2.468105e+01
  -4.370790e+01   1.051663e+01
   4.140427e+01  -4.194497e+00
   4.404000e+01   2.540642e+01
  -1.559440e+01   2.753106e+01
  -8.246451e+01   3.452315e+00
