
 $NMID
 id='ANONYMOUS ', fmtdat='(2E16.6)'
 volume=1.0
 tramp=1.0
 $END
  -3.011374e+03  -3.752689e+01
  -2.085886e+03  -1.711267e+03
  -2.662681e+02  -2.267962e+03
   1.379966e+03  -1.240342e+03
   1.045223e+03  -8.576301e+01
   3.170445e+01   3.460512e+02
  -4.481108e+02  -2.092765e+01
  -1.292853e+02  -5.863925e+02
   4.745823e+02  -5.991767e+02
   7.159058e+02  -1.179698e+02
   4.540392e+02   5.169784e+02
  -5.134674e+01   6.755021e+02
  -3.816965e+02   1.941927e+02
  -2.999957e+02  -4.401473e+02
   1.162414e+02  -5.530541e+02
   3.982164e+02  -6.977838e+01
   2.840434e+02   4.857697e+02
  -1.121087e+02   6.211966e+02
  -4.570130e+02   2.534289e+02
  -4.332703e+02  -1.497975e+02
  -1.143110e+02  -3.960856e+02
   1.114665e+02  -2.919630e+02
   1.192439e+02  -1.121460e+02
  -1.468677e+02  -8.370792e+01
  -2.856492e+02  -2.207112e+02
  -5.190617e+01  -3.432800e+02
   3.846711e+02  -1.929257e+02
   5.666690e+02   1.511393e+02
   2.170833e+02   3.067705e+02
  -2.461486e+02   2.405581e+02
  -5.195600e+02  -9.108311e+01
  -1.854705e+02  -3.411977e+02
   1.998079e+02  -3.684226e+02
   4.376519e+02  -1.578465e+02
   3.484673e+02   1.095486e+02
   9.471496e+01   3.312765e+02
  -4.457574e+01   2.170615e+02
   8.439263e-01  -4.247947e+01
   1.173513e+02  -1.758971e+02
   2.219343e+02   1.161688e+02
   6.577601e+01   4.439570e+02
  -2.406893e+02   4.054723e+02
  -3.245094e+02   5.776667e+01
  -1.436386e+02  -2.836937e+02
   1.709093e+02  -2.048705e+02
   1.642603e+02   2.462726e+02
  -1.050508e+02   3.370747e+02
  -4.270664e+02   8.465235e+01
  -5.303552e+02  -3.168697e+02
  -1.647323e+02  -4.905356e+02
   2.839843e+02  -2.784875e+02
   5.343466e+02   2.337075e+01
   3.591319e+02   2.665984e+02
  -4.793539e+01   2.596000e+02
  -3.186039e+02   1.132616e+02
  -2.404813e+02  -7.008215e+01
   1.903994e+01   6.312555e+00
   5.140353e+01   7.525918e+01
  -8.615200e+01   3.417200e+01
  -2.395500e+02  -6.623146e+00
  -1.452894e+02  -1.884778e+02
   1.076548e+02  -2.648559e+02
   3.329628e+02  -1.119585e+02
   2.560750e+02   1.032712e+02
  -3.211971e+01   2.928013e+02
  -2.347533e+02   3.233662e+02
  -3.639231e+02   1.177302e+02
  -2.640688e+02  -1.386383e+02
  -7.500732e+01  -3.092028e+02
   7.443285e+00  -3.245911e+02
   5.739882e+01  -1.772733e+02
   1.170617e+01  -8.527937e+01
   1.275695e+02  -9.115737e+01
   1.996716e+02  -4.436264e+01
   2.051233e+02   8.797164e+01
   9.335257e+01   2.115099e+02
  -7.730944e+01   1.957542e+02
  -1.513954e+02  -2.396331e+01
  -1.487116e+02  -2.130861e+02
   2.542471e+01  -2.392871e+02
   2.104927e+02  -3.402342e+01
   2.748356e+02   1.621897e+02
   1.747425e+02   2.892255e+02
  -7.385622e+01   2.506846e+02
  -1.290197e+02   1.171397e+02
  -1.773761e+02   6.140191e+01
  -1.347993e+02   5.456550e+01
  -2.579693e+02   3.330799e+01
  -3.551659e+02  -1.046201e+02
  -3.030788e+02  -2.851338e+02
   4.053878e+01  -4.180185e+02
   3.557172e+02  -3.710721e+02
   4.181870e+02  -1.708702e+02
   2.785746e+02   1.247458e+02
   2.999105e+01   2.385172e+02
  -9.112450e+01   1.995085e+02
  -1.252239e+01   3.112582e+01
   1.103369e+02  -1.335911e+01
   1.147084e+02   2.606758e+01
   3.607669e+01   1.292126e+02
  -9.347049e+01   7.747571e+01
  -1.104181e+02  -6.235602e+01
   8.318933e+00  -1.014133e+02
   1.309482e+02  -1.283769e+01
   9.717840e+01   1.854542e+02
  -1.327761e+01   2.888356e+02
  -2.154822e+02   1.847675e+02
  -3.333807e+02  -4.044831e+01
  -2.749888e+02  -2.410271e+02
  -6.805271e+01  -2.465873e+02
   1.219618e+02  -1.397107e+02
   1.298251e+02   3.637542e+00
   1.298812e+01   1.368209e+01
  -3.361806e+01  -4.515561e+01
   1.950147e+01  -1.295361e+02
   1.437808e+02  -9.400212e+01
   1.602464e+02   4.602735e+01
   3.178675e+01   5.909113e+01
  -9.566073e+01  -2.200411e+01
  -4.461137e+01  -8.723104e+01
   1.273136e+02  -6.581434e+01
   2.694540e+02  -1.634922e+01
   2.422641e+02   1.558954e+02
   3.468769e+01   2.523004e+02
  -2.040675e+02   2.127113e+02
  -2.333034e+02   1.153076e+02
  -1.517850e+02  -2.241373e+01
   5.462310e+01  -4.817680e+01
   5.803694e+01   8.293031e+00
  -3.878411e+01   8.687679e+01
  -1.561325e+02   3.500777e+01
  -1.578844e+02  -1.116341e+02
  -5.833049e+01  -1.877117e+02
   6.410917e+01  -1.155695e+02
   1.082415e+02   9.219542e-01
   3.566137e+01   2.498411e+01
  -2.973601e+01  -2.835763e+01
  -5.708476e+00  -8.915068e+01
   1.030765e+02  -8.332800e+01
   1.594260e+02  -6.890426e+00
   1.685505e+02   1.295935e+02
   1.336843e+01   1.619768e+02
  -1.225245e+02   1.368907e+02
  -1.747102e+02   2.121697e+01
  -7.376944e+01  -8.083431e+01
   6.024657e+01  -6.689821e+01
   7.357731e+01  -4.624346e+01
  -1.087450e+01   1.488503e+01
  -2.884835e+01  -1.395091e+01
   1.012096e+01  -4.593019e+01
   9.688209e+01  -8.089020e+00
   1.014969e+02   8.716222e+01
   4.544023e+01   1.952575e+02
  -1.239962e+02   1.568482e+02
  -2.324998e+02   4.973313e-01
  -1.842431e+02  -1.493312e+02
  -4.614404e+01  -2.274906e+02
   7.925458e+01  -1.421071e+02
   1.339589e+02  -3.015574e+01
   6.816960e+01   2.564304e+01
   3.367901e+01   4.077235e+01
   4.597712e+01  -9.657544e+00
   8.374664e+01  -1.380547e+01
   5.754371e+01   7.631437e+01
  -2.877992e+01   1.068641e+02
  -8.694972e+01   6.772155e+01
  -8.728394e+01  -5.467639e+01
   2.466479e+01  -1.095953e+02
   1.690081e+02  -5.856676e+01
   2.223142e+02   7.383446e+01
   1.197776e+02   2.052429e+02
  -9.602251e+01   2.386136e+02
  -2.238801e+02   7.564844e+01
  -2.349941e+02  -6.516333e+01
  -1.350475e+02  -1.594380e+02
   5.744374e+01  -1.190663e+02
   8.252949e+01  -6.241504e+01
   8.280896e+01  -7.961860e+01
   4.913415e+01  -1.037499e+02
   8.200450e+01  -9.234210e+01
   1.226818e+02  -1.857750e+01
   1.138160e+02   1.305316e+02
   2.349551e+01   1.911292e+02
  -8.194053e+01   1.537612e+02
  -1.464042e+02   4.179877e+01
  -9.025337e+01  -9.783808e+01
  -6.916691e+00  -1.556597e+02
   8.808094e+01  -7.282239e+01
   6.853794e+01   2.012081e+01
  -1.289868e+01   7.647850e+01
  -2.434193e+01   4.826818e+01
   2.369804e+01   1.729036e-03
   1.035976e+02   2.456086e+01
   1.859686e+01   4.417602e+01
  -6.797547e+01   2.134851e+01
  -1.671172e+02  -1.200629e+01
  -1.273332e+02  -6.805274e+01
  -1.360570e+01  -8.611059e+01
   1.556370e+02  -7.797783e+01
   1.558040e+02  -1.158629e+01
   6.935478e+01   4.479668e+01
  -6.580153e+01   5.475421e+01
  -1.013558e+02   1.504125e+01
  -1.495482e+01  -3.763076e+01
   5.763773e+01  -8.037902e+01
   6.188594e+01   3.240453e+00
   4.211880e+01   3.028613e+01
   3.506173e+01   4.840932e+01
   3.725786e+01  -2.320580e+01
   9.946331e+01   1.695628e+01
   6.218787e+01   6.812422e+01
  -5.646013e+01   1.787997e+02
  -1.089782e+02   1.508996e+02
  -1.485713e+02   4.769321e+01
  -1.444663e+02  -8.186193e+01
   2.224118e+00  -1.385005e+02
   6.926428e+01  -7.967643e+01
   4.383555e+01  -1.288594e+01
  -3.645701e+01   2.137083e+01
  -1.443626e+02  -2.249421e+01
  -4.804984e+01  -1.004895e+02
   8.457194e+01  -1.216798e+02
   1.726905e+02  -3.862318e+01
   1.652775e+02   3.533830e+01
   4.422431e+01   1.011881e+02
  -6.929538e+01   5.068320e+01
  -8.457042e+01  -3.318408e+00
   4.442338e+01  -4.891980e+01
   8.755371e+01   4.142661e+01
  -3.447697e+00   1.341909e+02
  -7.407686e+01   1.868328e+02
  -1.945037e+02   1.028582e+02
  -1.226266e+02  -9.846539e+01
  -4.014491e+00  -1.885538e+02
   7.082808e+01  -1.189059e+02
   8.391787e+01   1.291878e+01
   7.759589e+01   9.556718e+01
  -4.013635e+01   1.335868e+02
  -7.767679e+01  -6.685657e+00
  -1.420909e+01   4.996994e+00
  -2.453317e+00  -3.924622e+00
  -1.310756e+00   2.288124e+01
  -2.237129e+01  -4.381759e+00
  -7.304544e+01  -8.348877e+01
  -3.920956e+01  -1.086430e+02
   8.862740e+01  -6.425369e+01
   1.520917e+02   4.174891e+01
   1.251527e+02   5.661303e+01
   2.186868e+00   5.518511e+01
  -6.942239e+01   5.419411e+01
  -7.986900e+01   2.326484e+01
  -9.926322e+00  -3.346916e+01
   4.768849e+01  -3.547677e+01
   1.791730e+01  -4.778804e+00
   1.117629e+01   5.699231e+00
   4.626637e+00   1.635948e+00
   3.551014e+01   2.465899e+01
   9.432238e+01   6.796504e+00
   3.020336e+01   6.065768e+01
  -9.484691e+01   1.060505e+02
  -1.740756e+02   8.663230e+01
  -1.172861e+02  -3.067431e+01
  -4.226218e+01  -1.726285e+02
   8.348458e+01  -1.708595e+02
   1.641972e+02  -6.928912e+01
   1.010231e+02   1.013547e+01
   1.810286e+01   7.330468e+01
   6.735465e+00   8.921372e-01
  -3.495607e+00   3.926479e+01
   2.034487e+01   5.627598e+01
  -1.849690e+01   8.413329e+01
  -3.401189e+01   7.494055e+01
  -6.521475e+01   6.824142e+00
  -8.515221e+01  -9.733880e+01
  -3.961141e+01  -1.129343e+02
   6.347058e+01  -7.553410e+01
   1.149575e+02   5.393175e+01
   7.141807e+01   1.241855e+02
  -8.181176e+01   3.760108e+01
  -8.568083e+01   2.160851e+00
  -5.227157e+01  -4.370548e+01
   4.815952e+01  -5.906605e+01
   2.826021e+01   5.849432e+00
   1.663070e+00   2.519936e+01
  -6.401773e+01   9.622592e+00
  -3.366909e+01  -4.471603e+01
   6.226182e+01  -8.432674e+01
   1.178513e+02  -3.335316e+01
   9.635453e+01   2.040535e+01
  -2.860340e+01   9.257963e+01
  -7.958474e+01   8.025714e+01
  -2.481181e+01  -4.159585e-01
  -4.114692e+00  -8.714204e+01
   1.498711e+01  -4.305086e+01
   3.400872e+01   2.102566e+01
   2.173201e+01   4.681777e+01
  -1.943481e+01   2.839909e+01
  -4.313218e+01   1.345449e-01
  -4.323747e+01  -4.673739e+01
  -4.540998e+01  -2.359714e+01
  -2.047132e+01   7.174882e+00
  -1.108240e+01   3.046811e+00
   2.767632e+01  -2.602805e+01
  -2.774933e+00  -5.966381e+01
   4.525537e+01  -6.812103e+01
   3.800961e+01   5.484060e+01
   1.517185e+01   9.571789e+01
  -4.436062e+01   1.777688e+01
  -5.456365e+01  -1.176268e+01
  -2.989178e+01  -4.382054e+01
   2.945266e+01  -3.529028e+01
   6.689022e+01  -3.578561e+01
   6.422098e+01   5.602151e+01
  -3.049884e+01   1.092274e+01
  -5.647142e+01  -1.228004e+01
  -2.422060e+01   1.223725e+01
   3.971912e+01   5.245491e+00
   1.363736e+01   1.554540e+01
  -9.794170e+00   2.246265e+01
  -7.265045e+01   1.453326e+01
