
 $NMID
 id='ANONYMOUS ', fmtdat='(2E16.6)'
 volume=1.0
 tramp=1.0
 $END
   3.639647e+03   1.316082e+02
   2.247339e+03   2.037679e+03
  -2.719182e+02   2.579880e+03
  -1.767746e+03   1.123138e+03
  -9.070464e+02  -9.787779e+01
   2.761706e+02  -4.276631e+02
   5.854902e+02   2.719561e+02
   5.035261e+01   8.281945e+02
  -6.166756e+02   7.057283e+02
  -8.526507e+02   7.043944e+01
  -5.213236e+02  -7.750806e+02
   1.671307e+02  -8.223672e+02
   4.979019e+02  -1.778945e+02
   3.647233e+02   6.022903e+02
  -1.774259e+02   7.811312e+02
  -5.846311e+02   1.043989e+02
  -3.121748e+02  -6.011250e+02
   1.747883e+02  -6.530959e+02
   5.388729e+02  -2.495957e+02
   4.652192e+02   1.940010e+02
   1.330907e+02   4.483314e+02
  -2.051648e+02   3.175459e+02
  -1.830712e+02   6.111711e+01
   1.187643e+02   1.502267e+01
   3.261969e+02   9.282163e+01
   1.129463e+02   4.230395e+02
  -4.544300e+02   2.587784e+02
  -6.874667e+02  -1.763244e+02
  -2.703470e+02  -4.555611e+02
   3.193828e+02  -3.331351e+02
   6.622263e+02   1.198125e+02
   3.089762e+02   4.380406e+02
  -2.220649e+02   4.593084e+02
  -5.535924e+02   1.682424e+02
  -3.775375e+02  -1.736358e+02
  -9.096387e+01  -4.172754e+02
   1.310272e+02  -2.815180e+02
   6.208727e+01   1.444677e+02
  -1.921940e+02   2.679182e+02
  -3.557363e+02  -1.132654e+02
  -1.008499e+02  -5.882054e+02
   3.064239e+02  -5.679650e+02
   4.243020e+02  -1.689290e+01
   1.387857e+02   4.052138e+02
  -2.261119e+02   2.333618e+02
  -3.032248e+02  -3.135558e+02
   1.162014e+02  -4.543528e+02
   5.238754e+02  -9.087774e+01
   5.793739e+02   3.942553e+02
   1.642951e+02   6.043461e+02
  -3.715073e+02   3.352461e+02
  -6.218253e+02  -7.707059e+01
  -4.161581e+02  -3.231333e+02
   1.285375e+02  -2.853163e+02
   3.712832e+02  -7.548194e+01
   2.375268e+02   8.796801e+01
  -1.048416e+01   3.188305e+01
  -9.319426e+01  -9.303724e+01
   1.252454e+02  -1.341382e+02
   2.917829e+02   4.721059e+01
   1.663112e+02   2.327295e+02
  -1.434114e+02   2.800709e+02
  -3.227946e+02   1.300150e+02
  -2.458307e+02  -7.987845e+01
  -2.081240e+01  -2.982232e+02
   2.440646e+02  -3.764398e+02
   3.376840e+02  -1.891748e+02
   3.216769e+02   1.817066e+02
   9.697409e+01   4.288850e+02
  -8.866074e+01   3.680867e+02
  -9.431174e+01   1.537002e+02
  -4.939351e+01   3.800322e+01
  -1.005771e+02   8.975389e+01
  -2.196334e+02   8.825450e+01
  -2.480118e+02  -7.506367e+01
  -1.683419e+02  -2.444823e+02
   4.093631e+01  -2.361156e+02
   2.067030e+02   6.157231e+00
   1.622464e+02   2.361037e+02
  -2.192902e+01   3.097042e+02
  -2.391572e+02   1.050679e+02
  -3.479039e+02  -1.979450e+02
  -1.581307e+02  -3.138281e+02
   5.743949e+01  -2.710031e+02
   2.070783e+02  -1.437483e+02
   1.769915e+02  -1.227820e+01
   1.308177e+02  -4.213533e+01
   2.600055e+02  -4.456583e+01
   4.376619e+02   8.547032e+01
   3.608710e+02   3.043232e+02
   1.174560e+00   4.457052e+02
  -4.493580e+02   4.313799e+02
  -5.307456e+02   1.756457e+02
  -3.324202e+02  -1.181088e+02
  -9.361355e+01  -2.955297e+02
   1.018800e+02  -2.262213e+02
   1.486746e+01  -3.300628e+01
  -9.552352e+01   7.764186e+01
  -1.717043e+02   1.479012e+01
  -1.290214e+01  -1.648585e+02
   1.097694e+02  -1.516912e+02
   1.862244e+02   5.714726e+01
   4.967501e-01   1.620055e+02
  -1.575534e+02   7.022280e+01
  -1.448686e+02  -2.232672e+02
   1.413948e+01  -3.079313e+02
   2.292974e+02  -2.047345e+02
   3.425133e+02   4.453904e+01
   2.962468e+02   2.633425e+02
   8.963281e+01   2.708080e+02
  -1.221325e+02   1.491748e+02
  -1.505482e+02   2.750021e+01
  -4.980913e+01  -5.432696e+01
   8.037101e+01   7.536017e+00
   4.471612e+00   1.208424e+02
  -1.522658e+02   7.128405e+01
  -1.664691e+02  -2.505813e+01
  -3.030816e+01  -2.723980e+01
   7.053429e+01  -5.294969e+00
   8.747944e+01   6.876375e+01
  -1.456567e+02   1.048598e+02
  -3.338926e+02  -1.392990e+01
  -3.028253e+02  -1.159418e+02
  -6.758119e+01  -2.554623e+02
   1.997530e+02  -2.475829e+02
   2.724256e+02  -6.860116e+01
   1.995360e+02   6.210290e+01
  -2.642600e+00   8.695418e+01
  -8.734847e+01   4.263498e+01
   5.027608e+01  -1.071732e+02
   1.690029e+02  -6.193185e+01
   2.259786e+02   1.452391e+02
   7.610978e+01   2.052948e+02
  -9.272521e+01   1.746450e+02
  -1.496164e+02   5.002540e+01
  -7.194350e+01  -5.251083e+01
   1.954481e+01  -1.746435e+01
   3.257416e+01   1.057831e+02
  -8.755502e+01   1.221159e+02
  -2.066233e+02   4.170757e+01
  -1.860861e+02  -8.924042e+01
  -3.298886e+01  -2.312314e+02
   1.753320e+02  -1.542302e+02
   1.997415e+02  -1.779017e+01
   9.249965e+01   1.003212e+02
  -4.744266e+01   8.529422e+01
  -4.858910e+01   1.238015e+01
   1.306350e+01  -5.075071e+01
   3.904561e+01   9.107867e+00
  -8.167409e+00   1.027008e+01
  -8.109339e+01   2.237862e+01
  -1.083554e+02  -8.784614e+01
  -8.525351e+00  -1.225737e+02
   1.219176e+02  -1.403126e+02
   2.485650e+02  -1.063160e+01
   1.866855e+02   1.263538e+02
   5.030634e+01   2.292959e+02
  -7.880750e+01   1.542401e+02
  -1.221733e+02   4.179084e+01
  -1.208198e+02  -5.283868e+01
  -4.377506e+01  -2.534187e+01
  -5.278763e+01   2.438123e+01
  -6.028904e+01   1.275470e+01
  -4.050635e+01  -5.604512e+01
   5.680155e+01  -7.847938e+01
   1.058048e+02  -5.845334e+01
   1.007473e+02   2.025204e+01
  -1.551555e+01   1.178183e+02
  -1.236637e+02   1.180631e+02
  -2.205320e+02  -4.234852e+01
  -1.085399e+02  -2.331247e+02
   1.004620e+02  -2.342645e+02
   2.628313e+02  -9.732730e+01
   2.688031e+02   8.957715e+01
   9.441566e+01   1.669243e+02
  -5.211352e+01   1.492922e+02
  -9.161819e+01   8.482769e+01
  -7.229652e+01   9.327685e+01
  -4.266139e+01   8.138255e+01
  -8.594930e+01   8.357685e+01
  -1.319829e+02  -2.262170e+01
  -1.325559e+02  -1.471226e+02
  -1.548642e+00  -2.482934e+02
   9.884707e+01  -1.883102e+02
   1.813597e+02  -3.590456e+01
   1.415868e+02   1.213113e+02
   2.045341e+01   1.833911e+02
  -7.953776e+01   9.972130e+01
  -6.438512e+01  -8.973874e+00
  -1.203319e+01  -3.797744e+01
   1.376845e+01  -4.021768e+01
  -3.954590e+01  -1.528874e+01
  -8.705883e+01  -2.634281e+01
  -5.952760e+01  -4.326128e+01
   7.535415e+01  -4.696227e+01
   1.887653e+02   1.407511e+01
   1.470389e+02   5.722560e+01
   1.470167e+01   9.819142e+01
  -1.491100e+02   9.351382e+01
  -1.579231e+02   2.557589e+01
  -7.696724e+01  -2.002801e+01
   8.386334e+01  -4.044555e+01
   7.921598e+01   3.285660e+00
   5.044716e+01   4.889270e+01
  -5.319317e+01   7.614555e+01
  -8.198577e+01   5.572023e+01
  -4.423943e+01  -5.668409e+01
  -5.522317e+01  -1.516624e+01
  -6.466939e+01  -1.889131e+01
  -7.127515e+01   5.356583e-01
  -3.788964e+01  -6.649469e+01
   2.662367e+01  -1.558855e+02
   1.146419e+02  -1.675781e+02
   1.950355e+02  -2.182220e+01
   1.445213e+02   7.122516e+01
  -1.091429e+01   1.299766e+02
  -8.097996e+01   1.009603e+02
  -9.081953e+01  -2.916204e+01
   6.262849e+01  -2.797424e+01
   1.692046e+02   3.216381e+01
   6.596973e+01   1.075493e+02
  -7.454574e+01   8.104459e+01
  -1.591088e+02   8.112390e+01
  -1.957643e+02  -4.548708e+01
  -7.563928e+01  -1.094723e+02
   5.209725e+01  -5.391948e+01
   5.027570e+01  -3.839217e+01
  -2.865113e+01   2.656477e+01
  -9.309567e+01  -2.470404e+01
  -5.082584e+01  -1.112557e+02
   1.228158e+02  -1.471773e+02
   1.514675e+02  -9.903691e+01
   1.565261e+02   1.029485e+02
   4.532799e+01   2.204684e+02
  -8.687591e+01   1.580583e+02
  -1.026167e+02   5.768884e-01
  -6.224118e+01  -7.336449e+01
   4.070331e+00  -9.822226e+01
   6.027201e+01   3.402261e+00
   6.644985e+01   5.631802e+01
   4.693235e+01  -8.923550e+00
   2.491762e+01  -2.502903e+01
   6.877821e+01   3.031220e+01
   6.909672e+01   1.032462e+02
   2.748434e+01   1.121592e+02
  -4.404746e+01   3.856534e+01
  -1.410656e+02  -2.435418e+01
  -1.084768e+02  -8.723066e+01
  -3.370673e+01  -6.321607e+01
   9.629546e+01  -3.404992e+01
   1.040506e+02  -3.250188e+01
   9.320740e+00  -6.980013e-01
  -2.978257e+01   4.406720e+01
  -1.098924e+01  -1.139926e+01
   3.027117e+01  -1.638014e+01
  -3.214486e+01   1.333206e+01
  -8.439845e+01   2.282569e+01
  -1.061963e+02  -2.127019e+01
  -2.893742e+01  -7.465218e+01
   1.309144e+02  -1.055959e+02
   1.984327e+02  -9.633529e+01
   1.488078e+02   5.849123e+01
   3.452858e+01   1.754869e+02
  -8.598222e+01   1.480019e+02
  -1.177425e+02   6.631237e+01
  -7.345283e+01  -2.730503e+01
  -4.224447e+01  -1.664151e+01
   5.703918e+00  -4.895518e+01
  -1.937531e+01   1.732965e+01
  -4.155551e+01  -5.687328e+01
  -3.123192e+01  -1.108278e+02
   2.966332e+01  -8.183911e+01
   8.964728e+01   2.292002e+01
   1.095249e+02   1.324354e+02
   1.595635e+01   1.117645e+02
  -1.356808e+02   2.253480e+01
  -1.097643e+02  -6.737531e+01
  -6.180352e+01  -1.098617e+02
   7.146821e+01  -6.275678e+01
   1.091958e+02  -1.924214e+01
   6.976297e+01   4.262713e+01
  -1.329497e+01   9.423700e+01
  -4.366774e+01   3.314086e+01
  -2.992080e+01   1.348599e+01
   8.484640e+01  -2.574462e+01
   1.759229e+01   1.172131e+01
  -5.780145e+01   8.414808e+01
  -1.148765e+02   4.656803e+01
  -4.078835e+01  -1.622435e+01
   3.832259e+01  -8.554866e+01
   7.993678e+01  -9.300061e+01
   3.408852e+01  -7.354199e+00
   3.107642e+01   2.898818e+01
  -3.058158e-01   4.891303e+01
  -7.907651e+01   2.688829e-01
  -2.834281e+01  -5.990927e+01
   2.732692e+01  -4.824431e+01
   1.396062e+01   5.455359e+00
   6.314649e+01   2.799044e+01
  -1.448233e+01  -2.653540e+00
  -1.715405e+01  -1.659032e+01
   1.600978e+01  -7.602892e+00
   5.317909e+01   3.018011e+01
   2.393585e+01   5.787539e+01
  -3.611549e+01   8.637945e+00
   1.032023e+01  -6.160708e+01
  -1.416628e+01  -8.031827e+01
   4.849044e+01  -2.049974e+01
   8.955212e+01   4.479494e+01
   2.631640e+01   5.588329e+01
  -3.654696e+01   4.756392e+01
  -8.281716e+01  -2.767419e+01
  -3.006158e+01  -6.130763e+01
   3.787965e+01  -5.099686e+01
   6.407135e+01  -4.428501e+01
   1.356341e+01   1.894473e+00
  -4.948606e+01   3.836041e+00
  -3.524680e+01  -2.821177e+01
   5.424737e+01  -6.172392e+01
   1.156892e+02  -3.818735e+01
