
 $NMID
 id='ANONYMOUS ', fmtdat='(2E16.6)'
 volume=1.0
 tramp=1.0
 $END
  -3.795191e+03  -1.972255e+02
  -2.330826e+03  -2.109405e+03
   3.342727e+02  -2.505620e+03
   1.479382e+03  -9.611933e+02
   9.792972e+02   2.097238e+02
  -3.313052e+02   3.422467e+02
  -6.786346e+02  -2.115231e+02
  -3.242132e+01  -7.758762e+02
   6.432772e+02  -6.984319e+02
   7.727653e+02  -4.573747e+01
   4.540534e+02   6.874823e+02
  -1.256566e+02   7.532850e+02
  -5.161894e+02   1.413622e+02
  -3.356763e+02  -5.770266e+02
   2.343092e+02  -6.266099e+02
   5.268033e+02  -5.058370e+01
   2.458436e+02   5.932101e+02
  -2.029392e+02   6.308433e+02
  -4.976783e+02   1.708564e+02
  -4.567821e+02  -2.613198e+02
  -8.746719e+01  -4.677486e+02
   1.757950e+02  -2.816434e+02
   1.683622e+02  -9.445716e+01
  -1.426002e+02  -3.007510e+01
  -2.948333e+02  -1.911913e+02
  -7.574348e+01  -3.645579e+02
   4.644383e+02  -2.577068e+02
   7.153202e+02   1.222564e+02
   3.555467e+02   4.639701e+02
  -3.306067e+02   3.880233e+02
  -6.397168e+02  -5.469369e+01
  -3.123519e+02  -4.439513e+02
   2.619403e+02  -4.620436e+02
   5.229276e+02  -1.675758e+02
   3.817371e+02   2.248060e+02
   8.896692e+01   4.372369e+02
  -1.351567e+02   2.597829e+02
  -4.955801e+01  -1.610724e+02
   1.457406e+02  -2.877451e+02
   2.653652e+02   1.254689e+02
   9.210705e+01   5.990200e+02
  -3.096473e+02   5.809890e+02
  -4.355577e+02   1.938824e+01
  -1.677156e+02  -4.207955e+02
   2.204539e+02  -2.434214e+02
   2.323952e+02   2.838998e+02
  -1.162406e+02   4.469778e+02
  -4.899239e+02   7.474188e+01
  -5.922569e+02  -3.941950e+02
  -1.451020e+02  -5.484209e+02
   3.382849e+02  -3.266592e+02
   5.674496e+02   7.936312e+01
   3.911928e+02   3.354559e+02
  -5.397613e+01   3.407250e+02
  -3.984020e+02   1.164314e+02
  -2.130980e+02  -1.301683e+02
   6.029485e+01  -7.758296e+01
   9.163880e+01   7.413559e+01
  -1.020018e+02   1.354845e+02
  -2.689418e+02  -7.628752e+01
  -1.880903e+02  -2.570243e+02
   1.556778e+02  -2.608624e+02
   3.455756e+02  -9.809374e+01
   2.097957e+02   8.031826e+01
  -4.323611e+01   2.401328e+02
  -2.126493e+02   3.186319e+02
  -3.578575e+02   1.584880e+02
  -2.884401e+02  -1.355891e+02
  -6.476421e+01  -4.647303e+02
   7.122467e+01  -3.861008e+02
   1.054434e+02  -1.241580e+02
   8.067390e+01  -3.461187e+01
   9.804660e+01  -9.242866e+01
   2.054680e+02  -1.040503e+02
   2.338217e+02   9.004585e+01
   1.301378e+02   2.488699e+02
  -6.614873e+01   2.302301e+02
  -1.818579e+02   1.478506e+01
  -1.830378e+02  -2.366444e+02
  -1.236862e+01  -2.467622e+02
   2.306975e+02  -9.018696e+01
   3.171926e+02   1.806481e+02
   1.561794e+02   3.042378e+02
  -9.928589e+01   2.627314e+02
  -1.893210e+02   1.680076e+02
  -1.612162e+02   3.237105e+01
  -1.188018e+02   3.706930e+01
  -2.515147e+02   4.304814e+01
  -3.713161e+02  -8.999211e+01
  -3.055491e+02  -3.068205e+02
   5.565535e+01  -4.497523e+02
   3.501871e+02  -3.633081e+02
   4.426449e+02  -1.460545e+02
   2.839082e+02   1.085545e+02
   7.581639e+01   2.413279e+02
  -1.501685e+02   1.932143e+02
  -3.077778e+01   4.536968e+01
   1.178690e+02  -6.770579e+01
   1.470336e+02   2.227739e+01
   2.496401e+01   1.573627e+02
  -1.517463e+02   1.228421e+02
  -1.289075e+02  -6.133361e+01
   6.470284e+01  -1.706288e+02
   1.369731e+02  -2.491845e+01
   1.694643e+02   2.472845e+02
  -4.086692e+01   3.469979e+02
  -2.044226e+02   1.824049e+02
  -2.915224e+02  -7.458492e+01
  -2.939340e+02  -2.601924e+02
  -9.816876e+01  -2.812988e+02
   1.282645e+02  -1.589201e+02
   1.616932e+02  -1.446883e+01
   6.882220e+01   4.558502e+01
  -6.030019e+01  -4.944322e+01
  -1.603970e+01  -1.201910e+02
   7.550308e+01  -7.520893e+01
   1.410334e+02   3.142925e+01
   2.022126e+01   5.329403e+01
  -6.386276e+01  -1.015596e+01
  -5.491531e+01  -7.294201e+01
   1.541408e+02  -8.757805e+01
   2.671520e+02   4.181928e+01
   2.794609e+02   1.786177e+02
   6.041618e+01   2.502587e+02
  -1.949332e+02   2.424760e+02
  -2.522416e+02   7.737581e+01
  -1.283661e+02  -4.147526e+01
   4.707160e+01  -1.035296e+02
   1.024000e+02   3.965711e+01
  -4.905223e+01   6.566313e+01
  -1.587634e+02   5.528694e+01
  -1.636298e+02  -1.238209e+02
  -5.610113e+01  -1.716867e+02
   9.859618e+01  -1.254890e+02
   1.351914e+02  -2.145934e+01
   5.206216e+01   4.829988e+01
  -3.191183e+01   3.278481e+00
  -3.052698e+01  -7.322727e+01
   9.861362e+01  -1.063888e+02
   1.777605e+02  -2.490963e+01
   1.709466e+02   1.440637e+02
   8.262576e+00   2.304798e+02
  -1.697384e+02   1.415353e+02
  -1.898046e+02   1.467647e+01
  -9.852509e+01  -8.523763e+01
   8.349954e+01  -1.115845e+02
   5.616038e+01   1.534010e+01
   3.079705e+01   2.702080e+01
  -4.913388e+01   9.917281e+00
   6.033895e+00  -1.675062e+01
   5.215701e+01   8.423801e+00
   7.971148e+01   8.654278e+01
   3.242995e+01   1.465514e+02
  -1.187731e+02   1.548580e+02
  -2.074515e+02   1.324361e+01
  -2.266242e+02  -1.478811e+02
  -7.167554e+01  -2.361645e+02
   9.548485e+01  -1.668216e+02
   1.404196e+02  -6.517653e+01
   7.411331e+01   4.941277e+01
   3.978738e+01   3.791168e+01
   5.972053e+01   5.211149e+00
   8.049903e+01  -3.297683e+01
   6.197401e+01   5.967707e+01
  -2.662973e+01   8.625846e+01
  -8.893931e+01   7.775455e+01
  -9.940552e+01  -3.368815e+01
  -8.717218e+00  -1.216694e+02
   1.420176e+02  -9.482119e+01
   1.966510e+02   4.371751e+01
   1.126915e+02   2.125360e+02
  -1.265553e+02   2.470422e+02
  -2.788731e+02   1.073375e+02
  -2.140773e+02  -1.060667e+02
  -1.125304e+02  -1.472872e+02
   1.035806e+01  -1.677313e+02
   1.012399e+02  -5.369279e+01
   5.879117e+01  -8.381870e+01
   5.639508e+01  -1.011431e+02
   5.351983e+01  -8.062975e+01
   1.075562e+02   2.020485e+01
   1.153613e+02   1.440020e+02
   5.246729e+01   2.077112e+02
  -5.997727e+01   1.742296e+02
  -1.629554e+02   3.036244e+01
  -1.453616e+02  -1.347961e+02
  -1.331290e+01  -1.286005e+02
   5.044275e+01  -7.290185e+01
   7.129940e+01  -3.286512e+01
  -5.293824e+00   3.154010e+01
  -4.618284e+00   1.046812e+01
   1.983046e+01   3.194027e+01
   1.035004e+02   2.075609e+01
   3.525989e+01   6.428894e+01
  -5.921457e+01   3.789218e+01
  -1.877939e+02  -1.015573e+01
  -1.430989e+02  -7.916381e+01
  -1.691036e+01  -8.794619e+01
   1.269877e+02  -4.005505e+01
   1.519760e+02  -3.083523e+01
   4.498451e+01   5.574784e+01
  -5.446744e+01   3.078527e+01
  -6.411080e+01  -1.607171e+01
  -1.966318e+00  -5.140142e+01
   8.052932e+01  -5.301959e+01
   5.648254e+01   9.975359e+00
   7.748098e+01   6.857026e+01
   3.213605e+01   3.084515e+01
   4.224856e+01   9.996401e+00
   5.365889e+01   1.285347e+01
   3.540103e+01   8.336909e+01
  -2.189690e+01   1.298096e+02
  -1.403946e+02   1.207525e+02
  -1.560332e+02   9.389623e+00
  -1.356974e+02  -1.052749e+02
   6.395504e-01  -1.406798e+02
   9.852467e+01  -7.373689e+01
   2.250627e+01   1.557935e+01
  -6.945457e+01   7.350512e+00
  -1.225299e+02  -4.563557e+01
  -7.340740e+01  -1.119426e+02
   9.958845e+01  -9.981420e+01
   1.616036e+02  -4.044705e+01
   1.555149e+02   4.060414e+01
   4.304762e+01   8.951993e+01
  -3.304137e+01   2.584588e+01
  -2.796531e+01   8.530547e+00
   2.608634e+01  -3.096981e+01
   9.539424e+01   6.510348e+00
   7.047319e+01   1.019679e+02
  -1.003921e+02   1.521418e+02
  -1.619813e+02   5.091769e+01
  -1.179632e+02  -1.023756e+02
  -1.464742e+01  -1.898147e+02
   8.311962e+01  -1.118193e+02
   9.013018e+01   1.298530e+01
   3.581272e+01   8.238246e+01
  -4.165193e+01   8.721760e+01
  -1.322484e+01  -1.110508e+01
  -5.267899e+01  -4.254258e+01
  -2.621211e+01   5.416729e+00
  -3.512551e+01   3.252287e+01
  -2.656961e+01  -1.177210e+01
  -6.880844e+01  -9.788824e+01
  -3.839689e+01  -1.108662e+02
   6.252973e+01  -4.811214e+01
   1.394104e+02   4.376625e+01
   1.225432e+02   5.867159e+01
   1.821396e+01   4.483820e+01
  -8.049823e+01   4.856149e+01
  -1.005033e+02   1.470316e+01
  -2.577674e+01  -3.102863e+01
   4.525965e+01  -3.875746e+01
   2.830188e+01  -8.529863e+00
  -3.247490e+01  -9.937937e+00
   5.018625e+00   9.989756e+00
   5.863429e+01   1.236798e+01
   1.062822e+02   2.529051e+00
   6.580313e+00   1.003912e+02
  -9.827694e+01   1.234337e+02
  -1.996885e+02   5.035949e+01
  -1.799377e+02  -4.138018e+01
  -5.742653e+01  -1.758260e+02
   6.654911e+01  -1.631106e+02
   1.261104e+02  -6.847248e+01
   6.495724e+01   3.315806e+01
   3.544095e+01   7.118750e+01
  -6.154027e+00   3.877597e+00
   2.432805e+01   1.062739e+01
   5.088837e+00   5.258062e+01
   3.766262e+01   1.146606e+02
  -2.570859e+01   7.912149e+01
  -9.898691e+01  -3.313850e+01
  -6.173095e+01  -1.153196e+02
  -6.448551e+00  -9.914191e+01
   4.142275e+01  -2.387481e+01
   1.073225e+02   5.809923e+01
   4.553130e+01   1.070919e+02
  -6.246988e+01   6.433256e+01
  -1.000609e+02  -7.778772e+00
  -1.773697e+01  -6.812670e+01
   5.889482e+01  -5.087722e+01
   4.681544e+01  -3.102671e+01
  -1.113199e+01   7.887235e+00
  -7.809396e+01   3.752869e+00
   3.255720e+00  -4.721780e+01
   4.010934e+01  -2.847683e+01
   1.001166e+02  -5.077274e+01
   6.480093e+01   1.739000e+01
  -1.594341e+01   6.573612e+01
  -6.716130e+01   8.442363e+01
  -3.707259e+01  -1.202029e+01
  -3.008368e+01  -4.784587e+01
   3.535364e+01  -5.244314e+01
   2.602514e+01   5.108200e+01
   3.069803e+01   5.073245e+01
  -6.540955e+00   4.372235e+01
  -2.715261e+01  -7.915115e+00
  -1.186438e+01  -3.174810e+01
  -4.868418e+01  -2.375467e+01
   1.484612e+01   7.018324e+01
   1.870736e+01   9.686751e+00
   6.231244e+00  -4.725030e+01
  -3.882345e-01  -4.819907e+01
   6.607677e-01   7.356337e+00
   2.307962e+01   2.273403e+01
  -2.355696e+00   5.136640e+01
  -3.420911e+01   4.015749e+01
  -9.054413e+01  -2.395914e+01
  -9.802150e+00  -7.562473e+01
   4.579864e+01  -3.370216e+01
   8.344762e+01  -3.030843e+00
   6.216079e+01   4.022919e+01
   2.603570e+00   2.096686e+00
  -5.456099e+01   2.012291e+01
  -2.671641e+01   1.041670e+01
   4.737075e+01  -1.535990e+01
   2.589892e+01  -8.482818e+00
  -3.292374e+00   4.624997e+01
  -8.928753e+01   1.543560e+01
