
 $NMID
 id='ANONYMOUS ', fmtdat='(2E16.6)'
 volume=1.0
 tramp=1.0
 $END
  -3.963844e+03   9.715410e+01
  -2.529548e+03  -2.129928e+03
   6.521837e+02  -2.826810e+03
   1.846662e+03  -1.268476e+03
   1.021771e+03   4.084705e+02
  -5.345414e+02   5.975580e+02
  -7.883690e+02  -2.725732e+02
  -9.644805e+01  -1.064359e+03
   7.173826e+02  -8.393593e+02
   9.022274e+02   3.221764e+01
   4.762807e+02   7.424385e+02
  -1.451497e+02   8.199666e+02
  -5.744375e+02   1.943489e+02
  -4.085976e+02  -6.859292e+02
   1.721695e+02  -8.175012e+02
   5.835596e+02  -4.900413e+01
   3.240407e+02   6.864580e+02
  -2.009147e+02   6.818163e+02
  -6.135928e+02   2.140711e+02
  -5.006180e+02  -2.850694e+02
  -1.034243e+02  -4.891286e+02
   2.624807e+02  -3.545187e+02
   2.503827e+02  -6.199024e+01
  -9.717453e+01   1.031115e+02
  -3.741646e+02  -7.129963e+01
  -1.282448e+02  -3.763692e+02
   3.558752e+02  -4.000877e+02
   7.202801e+02   4.392313e+01
   4.387386e+02   4.755306e+02
  -3.139520e+02   4.686707e+02
  -6.894279e+02   4.884049e+01
  -3.595274e+02  -4.177531e+02
   2.637352e+02  -5.118088e+02
   5.184646e+02  -2.113516e+02
   4.540598e+02   2.451391e+02
   1.099104e+02   5.080093e+02
  -1.858384e+02   3.750693e+02
  -1.873567e+02  -1.669340e+02
   1.163581e+02  -3.945951e+02
   4.388003e+02   1.221141e+01
   2.470477e+02   6.258392e+02
  -2.808344e+02   5.970714e+02
  -5.966890e+02   5.251476e+01
  -2.628819e+02  -4.684109e+02
   3.397674e+02  -2.879170e+02
   3.557423e+02   3.082726e+02
  -4.803560e+01   5.000258e+02
  -4.838879e+02   1.224568e+02
  -5.840021e+02  -4.023649e+02
  -2.137790e+02  -6.223337e+02
   3.982182e+02  -3.717993e+02
   6.157330e+02   7.571346e+01
   3.594092e+02   3.363801e+02
  -1.012185e+02   3.235319e+02
  -4.625558e+02   8.211024e+01
  -2.701524e+02  -1.387781e+02
   7.586971e+01  -1.343867e+02
   1.485388e+02   7.664444e+01
  -1.076716e+02   1.613934e+02
  -3.117281e+02  -1.848653e+01
  -1.478651e+02  -2.264330e+02
   1.430684e+02  -2.535062e+02
   3.541978e+02  -1.102282e+02
   2.030971e+02   6.127310e+01
   1.018140e+00   2.741359e+02
  -2.217382e+02   3.226421e+02
  -3.560027e+02   1.858407e+02
  -2.549775e+02  -1.605106e+02
  -7.416099e+01  -4.315700e+02
   1.379186e+02  -3.794386e+02
   1.004368e+02  -6.982213e+01
   2.702300e+01  -1.539959e+01
   7.978706e+01  -7.237338e+01
   1.817592e+02  -1.063826e+02
   2.754778e+02   3.520983e+01
   1.708220e+02   2.764638e+02
  -5.698417e+01   2.749335e+02
  -2.162105e+02   3.243871e+01
  -1.989745e+02  -2.417976e+02
   2.347662e+00  -2.920154e+02
   2.525684e+02  -1.481081e+02
   3.765889e+02   1.621126e+02
   1.896825e+02   3.695148e+02
  -6.408143e+01   2.587466e+02
  -2.288118e+02   1.198594e+02
  -1.519140e+02  -2.187554e+01
  -6.994411e+01   3.157270e+01
  -2.126267e+02   8.331365e+01
  -4.427636e+02  -4.969132e+01
  -3.841211e+02  -2.933739e+02
  -5.810327e+01  -4.164693e+02
   3.323790e+02  -3.971153e+02
   4.804129e+02  -2.019010e+02
   3.653205e+02   9.365766e+01
   7.132401e+01   2.900616e+02
  -1.193289e+02   2.174647e+02
  -5.866254e+01   5.702850e+01
   7.895621e+01  -8.157961e+01
   1.808129e+02   2.299411e+01
   6.651381e+01   1.784656e+02
  -1.137564e+02   1.487674e+02
  -1.785073e+02  -5.770040e+01
  -1.385756e+01  -1.680900e+02
   1.881085e+02  -7.081230e+01
   1.852336e+02   2.021559e+02
  -1.556856e+01   3.576629e+02
  -2.320724e+02   2.176166e+02
  -3.408202e+02  -7.113875e+01
  -2.987671e+02  -2.224997e+02
  -9.979518e+01  -2.723490e+02
   1.310420e+02  -1.373997e+02
   1.810589e+02  -1.303150e+01
   6.071764e+01   4.522216e+01
  -6.076363e+01  -2.302493e+01
  -3.094186e+01  -1.084725e+02
   9.753764e+01  -9.575082e+01
   1.974026e+02   3.975368e+01
   4.194869e+01   5.623358e+01
  -8.420922e+01   1.800007e+01
  -5.628864e+01  -5.818350e+01
   1.368149e+02  -9.777613e+01
   3.186566e+02  -1.769339e+01
   2.766723e+02   9.295496e+01
   1.953387e+01   2.702493e+02
  -1.903473e+02   2.481366e+02
  -2.728323e+02   9.649018e+01
  -1.615740e+02  -3.128201e+01
   2.769353e+01  -8.118592e+01
   7.080013e+01  -9.277460e+00
  -4.432368e+01   8.628137e+01
  -1.967990e+02   5.517201e+01
  -1.873849e+02  -9.608879e+01
  -7.918713e+01  -2.135354e+02
   7.031577e+01  -1.909537e+02
   1.269223e+02  -5.544398e+01
   8.292265e+01   5.825987e+01
  -1.959522e+01  -1.017139e+01
  -4.936466e+01  -8.127498e+01
   8.160685e+01  -1.249136e+02
   1.697813e+02  -5.791406e+01
   1.600780e+02   9.916414e+01
   3.058355e+01   2.172591e+02
  -1.378826e+02   1.673919e+02
  -2.437755e+02   3.519660e+01
  -7.472943e+01  -1.341104e+02
   6.274649e+01  -9.348535e+01
   7.660966e+01  -2.352634e+01
  -1.436685e-01   2.489999e+01
  -2.450350e+01   1.328385e+01
   1.630820e+01  -1.467015e+01
   5.515620e+01   8.885374e+00
   6.664305e+01   7.294308e+01
   5.059851e+01   1.250259e+02
  -1.105915e+02   1.673467e+02
  -2.369228e+02   1.556932e+01
  -2.332050e+02  -1.305533e+02
  -7.190997e+01  -2.536234e+02
   9.925053e+01  -1.528192e+02
   1.263198e+02  -4.094459e+01
   8.247807e+01   6.372913e+01
   5.452556e+00   5.984400e+01
   7.163205e+01  -1.916802e+01
   6.809963e+01  -2.085593e+01
   3.304155e+01   5.873203e+01
  -6.467043e+01   1.155894e+02
  -9.440613e+01   6.940556e+01
  -8.593455e+01  -1.473666e+01
   1.018805e+01  -1.178264e+02
   1.297020e+02  -1.091939e+02
   2.148689e+02   8.225708e+01
   9.952027e+01   2.180786e+02
  -1.205947e+02   2.450174e+02
  -2.512147e+02   7.143965e+01
  -3.039292e+02  -9.091715e+01
  -1.231137e+02  -1.818595e+02
   5.320829e+01  -1.292326e+02
   1.167425e+02  -5.160111e+01
   5.101891e+01  -5.817089e+01
   5.104065e+01  -9.950511e+01
   8.132775e+01  -8.128534e+01
   1.568925e+02   6.587358e+00
   1.134522e+02   1.598245e+02
   1.025340e+01   2.531015e+02
  -1.033922e+02   1.880521e+02
  -1.809760e+02  -6.626240e+00
  -1.349402e+02  -1.483592e+02
  -2.268912e+01  -1.574730e+02
   8.655303e+01  -1.085419e+02
   7.505235e+01   3.734392e+00
   1.563505e+01   5.726161e+01
  -1.651707e+01   7.115713e+01
   2.594407e+01   3.687690e+01
   1.151670e+02   6.238122e+00
   3.051018e+01   3.795432e+01
  -6.879735e+01   4.389890e+01
  -1.970869e+02   4.346920e+01
  -1.465398e+02  -2.668906e+01
  -3.613224e+01  -6.740810e+01
   1.181245e+02  -8.220962e+01
   1.516110e+02  -1.462344e+01
   6.147844e+01   2.384912e+01
  -7.347417e+01   3.355993e+01
  -6.900093e+01  -4.804145e+00
  -3.210561e+01  -8.765478e+01
   5.813147e+01  -7.052863e+01
   8.581856e+01  -4.847248e+00
   4.676112e+01   3.747681e+01
   3.268015e+01   5.210604e+01
   6.720350e+01   4.532027e+01
   6.842691e+01   3.284566e+01
   1.351612e+01   3.884431e+01
  -4.637065e+01   1.037748e+02
  -1.072492e+02   1.118823e+02
  -1.774846e+02   2.524830e+01
  -1.259352e+02  -8.752675e+01
  -1.791407e+01  -1.304964e+02
   7.321176e+01  -6.860143e+01
   6.826538e+01   1.246739e+01
  -6.201438e+01   3.152586e+01
  -1.129361e+02  -4.434494e+01
  -9.813872e+01  -1.082476e+02
   6.667994e+01  -1.127490e+02
   1.857085e+02  -7.581362e+01
   1.672912e+02   5.045326e+01
   3.156238e+01   9.666629e+01
  -6.249473e+01   9.675261e+01
  -4.671539e+01   2.235868e+01
   5.195055e+01  -5.301813e+01
   1.161543e+02   1.184930e+01
   3.512538e+01   1.393909e+02
  -1.032554e+02   1.465281e+02
  -1.753558e+02   6.238388e+01
  -1.236415e+02  -1.029648e+02
  -1.818998e+00  -2.046034e+02
   8.587748e+01  -1.431375e+02
   9.304059e+01   2.308597e+01
   4.894639e+01   8.561094e+01
   1.976397e+01   1.097345e+02
  -4.974641e+01   5.336022e+01
  -4.204933e+01  -4.252626e+01
  -2.707195e+01  -1.664868e+01
  -3.180208e+01   3.877485e+01
  -3.744293e+01  -2.461183e+01
  -4.673676e+01  -9.701329e+01
  -4.819222e+01  -1.140254e+02
   6.646214e+01  -6.034587e+01
   1.643145e+02   4.297000e+01
   9.815200e+01   8.414794e+01
   2.915335e+01   6.033887e+01
  -9.081706e+01   2.267450e+01
  -8.291849e+01   1.193524e+01
   1.249569e+01  -1.566589e+01
   3.208255e+01  -5.082556e+00
   1.463734e+01   1.460703e+01
  -1.278684e+01   2.784118e+00
  -3.583275e+00   1.749970e+01
   7.845677e+01  -2.476421e+01
   9.675403e+01   2.523057e+01
   2.980460e+01   6.012005e+01
  -1.101269e+02   1.428411e+02
  -1.929605e+02   8.718553e+01
  -1.106472e+02  -6.781443e+01
  -4.272789e+01  -1.551044e+02
   8.468465e+01  -1.943676e+02
   1.297886e+02  -6.193018e+01
   8.799473e+01  -5.021130e+00
   8.405416e+00   2.432140e+01
  -2.110968e+01   2.016408e+01
   8.807108e+00   6.933548e+00
   2.502260e+01   5.565170e+01
   2.259264e+01   7.096265e+01
  -3.002639e+01   6.565925e+01
  -9.036788e+01  -4.282677e+01
  -6.247093e+01  -9.548966e+01
  -8.812371e+00  -1.032405e+02
   1.190354e+02   1.526671e+01
   9.289317e+01   6.121193e+01
   4.960957e+01   1.275780e+02
  -4.755597e+01   6.970009e+01
  -1.187373e+02   1.501881e+01
  -3.515512e+01  -5.533666e+01
   3.651196e+01  -6.195059e+01
   4.315034e+01  -4.492943e+01
  -8.368249e+00   2.609313e+01
  -7.933118e+01   2.119268e+01
   1.526794e+01  -2.267213e+01
   8.481516e+01  -4.843614e+01
   9.351607e+01  -6.495792e+01
   5.028846e+01   1.352521e+01
  -2.614457e+01   9.182119e+01
  -4.850327e+01   6.677861e+01
  -3.958149e+01   2.681157e+01
   4.619938e+00  -5.029784e+01
   5.273320e+00  -2.713951e+01
   1.895547e+01  -6.455793e+00
   1.005976e+01   4.683387e+01
   1.595259e+00   1.597560e+01
  -3.943747e+01  -4.104574e+01
  -4.176515e+01  -3.517987e+01
  -8.262691e+00  -2.112371e+01
  -2.062763e+01  -2.972141e+01
  -2.891023e+01  -2.699092e+01
   4.252443e+00  -6.499904e+01
  -4.010471e+00  -3.680325e+01
   5.567391e+01  -2.022750e+01
   3.797373e+01   6.739504e+01
  -2.863745e+01   7.232310e+01
  -4.331903e+01   1.178369e+01
  -5.469337e+01  -4.525496e+01
   3.393915e+00  -4.518554e+01
   9.092236e+01   6.959896e+00
   7.268752e+01  -5.885585e+00
   4.405209e+01   3.509799e+01
  -2.982731e+01   8.293564e+01
  -1.645088e+01   9.959502e+00
  -3.764399e+01  -1.417121e+01
   5.147035e+01  -1.778366e+00
   5.637711e+01   1.627416e+01
  -3.861898e+01   3.885754e+01
  -7.491501e+01   3.195732e+01
