
 $NMID
 id='ANONYMOUS ', fmtdat='(2E16.6)'
 volume=1.0
 tramp=1.0
 $END
  -3.273399e+03   3.558286e+02
  -2.191513e+03  -1.402536e+03
  -8.880122e+01  -2.171499e+03
   1.250175e+03  -1.339868e+03
   8.667053e+02  -1.267181e+02
  -1.914378e+01   3.483066e+02
  -4.282121e+02  -1.699048e+02
  -1.049163e+02  -6.175048e+02
   4.670132e+02  -6.888167e+02
   7.185205e+02  -1.062565e+02
   4.711238e+02   5.291439e+02
  -4.703383e+01   6.744752e+02
  -4.227280e+02   1.624546e+02
  -3.349356e+02  -4.746681e+02
   1.004877e+02  -5.826875e+02
   4.326183e+02  -8.722072e+01
   3.389407e+02   4.923089e+02
  -9.679158e+01   6.075100e+02
  -5.363049e+02   3.155022e+02
  -4.876416e+02  -1.694838e+02
  -1.360225e+02  -3.743808e+02
   1.398661e+02  -2.891098e+02
   1.193212e+02  -1.065580e+02
  -1.200682e+02  -2.764111e+01
  -3.108512e+02  -2.162015e+02
  -5.801107e+01  -2.684311e+02
   3.618193e+02  -2.248264e+02
   5.921486e+02   1.105194e+02
   2.945471e+02   3.736668e+02
  -2.827641e+02   2.838442e+02
  -5.236035e+02  -4.540813e+01
  -2.218714e+02  -3.318277e+02
   2.292437e+02  -3.911846e+02
   4.328204e+02  -1.478906e+02
   3.281924e+02   1.590554e+02
   1.198574e+02   3.077148e+02
  -2.056529e+01   2.326536e+02
  -3.515966e+01  -8.803757e+01
   1.353596e+02  -1.383654e+02
   2.246016e+02   9.806855e+01
   1.042078e+02   5.037530e+02
  -1.635221e+02   4.719334e+02
  -3.516003e+02   2.342164e+01
  -1.606993e+02  -3.287535e+02
   1.522401e+02  -1.803622e+02
   2.021221e+02   2.387269e+02
  -3.172601e+01   4.032849e+02
  -3.883974e+02   1.123597e+02
  -4.558167e+02  -3.353353e+02
  -1.659643e+02  -4.740269e+02
   2.607806e+02  -2.840181e+02
   4.953930e+02   3.492552e+01
   3.287512e+02   2.241198e+02
   3.821670e+00   2.446050e+02
  -3.091529e+02   1.253453e+02
  -2.096865e+02  -6.988633e+01
   2.030033e+01  -3.077778e+01
   7.324701e+01   1.745525e+01
  -7.223985e+01   8.150393e+01
  -2.190378e+02  -2.617394e+01
  -1.482994e+02  -1.978810e+02
   1.083645e+02  -2.262695e+02
   2.529457e+02  -1.272586e+02
   2.395105e+02   7.282809e+01
  -1.501316e+01   2.667772e+02
  -2.069388e+02   3.326982e+02
  -3.477659e+02   1.844312e+02
  -2.659443e+02  -1.621295e+02
  -7.784775e+01  -3.434933e+02
   6.670596e+01  -2.595650e+02
   7.580462e+01  -1.188496e+02
   5.678174e+01  -9.796983e+01
   1.392713e+02  -1.069740e+02
   2.143694e+02  -6.695129e+01
   2.729785e+02   8.427219e+01
   1.504034e+02   2.563980e+02
  -8.178142e+01   1.793951e+02
  -1.962686e+02  -1.243648e+01
  -1.841676e+02  -1.834701e+02
  -1.202347e+01  -2.637693e+02
   1.833475e+02  -8.347241e+01
   2.716243e+02   1.556263e+02
   1.835672e+02   2.631408e+02
  -2.680009e+01   2.531615e+02
  -1.398161e+02   1.429608e+02
  -1.332897e+02   7.962548e+01
  -1.100025e+02   2.977044e+01
  -2.206138e+02   6.024769e+01
  -4.007954e+02  -4.674188e+01
  -2.970033e+02  -2.827268e+02
   8.296691e+00  -3.816731e+02
   3.089082e+02  -3.526237e+02
   4.219402e+02  -2.188267e+02
   2.762980e+02   8.548832e+01
   3.239562e+01   2.101895e+02
  -9.094755e+01   1.962035e+02
  -2.428285e+01   4.512763e+01
   7.779051e+01  -1.512898e+01
   1.286907e+02  -2.506231e-01
   4.211654e+01   1.360697e+02
  -9.182487e+01   1.157488e+02
  -1.210180e+02  -3.890222e+01
  -9.356015e+00  -1.497379e+02
   1.409637e+02  -5.716117e+01
   1.493394e+02   1.960188e+02
   3.280780e+01   2.770211e+02
  -2.276953e+02   2.284556e+02
  -3.311580e+02  -4.988788e+01
  -2.861309e+02  -2.004447e+02
  -1.039534e+02  -2.292607e+02
   1.031593e+02  -1.260722e+02
   1.616136e+02  -5.685773e+00
   3.292490e+01   3.598834e+01
  -3.108923e+01  -5.237831e+01
  -1.311698e+01  -1.271914e+02
   1.063068e+02  -9.085558e+01
   1.564066e+02   2.019596e-02
   5.417775e+01   3.275599e+01
  -7.933285e+01  -8.439523e+00
  -5.730156e+01  -9.263886e+01
   1.420764e+02  -8.658545e+01
   3.033232e+02   1.111733e+01
   2.503408e+02   1.291975e+02
   5.792515e+01   2.398778e+02
  -1.942416e+02   2.172048e+02
  -2.378792e+02   1.231106e+02
  -1.561385e+02  -3.740769e+01
   1.055752e+01  -7.545746e+01
   4.726125e+01  -4.736404e+00
  -4.098467e+01   7.526183e+01
  -1.971639e+02   5.234929e+01
  -1.589607e+02  -8.854786e+01
  -9.314784e+01  -1.464461e+02
   7.234616e+01  -1.354528e+02
   1.177142e+02  -4.413985e+01
   7.211705e+01   4.776200e+01
  -3.511398e+01  -7.843424e+00
  -2.769358e+01  -8.559348e+01
   5.747263e+01  -1.151119e+02
   1.712580e+02  -4.417783e+01
   1.754665e+02   1.018078e+02
   4.930288e+01   2.055477e+02
  -1.069961e+02   1.364096e+02
  -1.651988e+02   3.652544e+01
  -6.601992e+01  -5.402304e+01
   3.065940e+01  -9.492208e+01
   4.883191e+01  -4.399528e+01
  -1.865187e+01   2.470058e+01
  -1.717721e+01   3.574730e+01
   1.835964e-01  -3.050686e+01
   5.674553e+01  -4.738240e+00
   6.851293e+01   8.057629e+01
   3.898804e+01   1.509562e+02
  -9.947588e+01   1.838160e+02
  -1.770477e+02   5.820361e+01
  -2.163239e+02  -1.230466e+02
  -5.916707e+01  -2.000889e+02
   5.879699e+01  -1.582116e+02
   1.196387e+02  -3.802147e+01
   5.723941e+01   5.270912e+01
   7.760781e+00   4.312507e+01
   4.524565e+01  -1.020685e+01
   6.069927e+01  -1.539637e+01
   6.037030e+01   3.255841e+01
  -3.866711e+01   9.387397e+01
  -8.420576e+01   4.885940e+01
  -8.079032e+01  -3.001702e+01
   7.577212e+00  -9.119843e+01
   1.429368e+02  -7.896400e+01
   2.096633e+02   5.948731e+01
   1.054812e+02   1.529222e+02
  -1.022415e+02   2.181810e+02
  -2.026768e+02   8.453024e+01
  -2.192619e+02  -6.871926e+01
  -1.179468e+02  -1.286730e+02
   2.212944e+01  -1.206470e+02
   8.345634e+01  -8.754705e+01
   4.718999e+01  -7.240675e+01
   3.656024e+01  -8.029531e+01
   8.013268e+01  -6.578052e+01
   1.111393e+02  -5.956800e+00
   1.381240e+02   1.422967e+02
   2.923783e+01   1.691871e+02
  -7.826894e+01   1.507249e+02
  -1.666468e+02   3.298450e+00
  -9.845947e+01  -1.214302e+02
  -3.245159e+01  -1.494841e+02
   7.074179e+01  -8.704619e+01
   7.722633e+01   2.884353e+01
   2.281321e-01   1.620099e+01
  -5.424954e+00   3.229300e+01
   1.074524e+01   3.085523e+01
   9.159829e+01   1.081316e+01
   5.634630e+01   5.959210e+01
  -6.702372e+01   3.982619e+01
  -1.785016e+02   2.999635e+01
  -1.360169e+02  -5.397170e+01
  -2.077431e+01  -7.943897e+01
   1.307360e+02  -8.122907e+01
   1.687470e+02  -2.305482e+01
   5.466635e+01   2.674755e+01
  -6.427578e+01   4.412288e+01
  -7.641956e+01  -1.440041e+00
  -1.542097e+01  -4.860694e+01
   5.373951e+01  -7.512718e+01
   5.736088e+01  -7.261617e+00
   4.110023e+01   4.473323e+01
   2.846066e+01   3.840033e+01
   7.403590e+01   7.943780e+00
   6.959196e+01   6.319474e+00
   5.053490e+01   6.705453e+01
   7.745969e-01   1.482391e+02
  -1.033895e+02   1.567226e+02
  -2.102779e+02   6.002730e+01
  -1.421496e+02  -1.038283e+02
  -1.600735e+01  -1.638639e+02
   8.623754e+01  -7.190794e+01
   6.444686e+01   1.937483e+01
  -6.262296e+01   3.294592e+01
  -1.558710e+02  -1.908932e+01
  -5.678596e+01  -1.057759e+02
   9.107409e+01  -1.194251e+02
   1.883837e+02  -6.627455e+01
   1.689383e+02   3.306031e+01
   6.362013e+01   1.127103e+02
  -7.313672e+01   7.509577e+01
  -6.012552e+01  -1.909854e+01
   1.810606e+01  -2.965752e+01
   9.402564e+01  -2.166836e+01
   4.471472e+01   1.035585e+02
  -7.598964e+01   1.505375e+02
  -1.893199e+02   7.211823e+01
  -1.178953e+02  -8.763711e+01
  -2.014096e+01  -2.032857e+02
   1.145667e+02  -1.408633e+02
   1.112633e+02   3.440822e+01
   5.799232e+01   1.264822e+02
  -6.007175e+01   1.237049e+02
  -6.605478e+01  -1.657046e+01
  -5.211240e+01  -5.485034e+01
  -3.267608e+01   1.554184e+01
  -3.398580e+00   2.400581e+01
  -2.643411e+01  -5.517517e+00
  -6.836918e+01  -1.081443e+02
  -2.504303e+01  -1.221272e+02
   4.938386e+01  -7.294930e+01
   1.566189e+02   6.225066e+01
   7.437004e+01   5.879074e+01
   3.796485e+01   5.039769e+01
  -8.023920e+01   5.075043e+01
  -5.908636e+01   4.053604e+00
  -3.667197e+00  -1.414596e+01
   5.313963e+01  -1.427863e+01
   3.984158e+01   1.237411e+01
  -4.473779e+00   1.850270e+01
   7.123411e+00  -1.163464e+01
   4.793660e+01  -5.977248e+00
   1.264863e+02   2.161160e+00
   2.506545e+01   1.069545e+02
  -9.359366e+01   1.400412e+02
  -2.031756e+02   6.538534e+01
  -1.730739e+02  -6.458167e+01
  -8.984582e-01  -1.424964e+02
   9.494492e+01  -1.820846e+02
   1.432370e+02  -6.501773e+01
   6.914066e+01   6.552694e+00
   3.866591e+00   5.080948e+01
  -1.704406e+00   1.691970e+01
  -2.590710e+01  -1.988415e+01
   4.889040e+01   2.591433e+01
   2.749991e+01   6.373704e+01
  -3.603216e+01   3.647040e+01
  -6.583177e+01  -2.128375e+00
  -7.836876e+01  -1.295191e+02
   1.897818e+01  -1.151850e+02
   1.177131e+02  -4.353436e+01
   1.130774e+02   5.994937e+01
   5.790088e+01   1.187300e+02
  -7.270231e+01   6.109506e+01
  -8.420108e+01   1.064877e+01
  -2.954450e+01  -4.704458e+01
   3.415022e+01  -6.040671e+01
   4.912048e+01  -4.044176e+01
  -1.966440e+01   8.805077e+00
  -5.377631e+01   2.101244e+01
  -7.623081e+00  -5.541578e+01
   7.785285e+01  -4.333060e+01
   9.067793e+01  -4.671853e+01
   8.203611e+01  -3.544370e+00
   1.232669e+01   1.004818e+02
  -3.714708e+01   8.615618e+01
  -7.066795e+01   2.913289e+01
   1.064051e+01  -4.762356e+01
   3.283787e+01  -6.761595e+01
   1.612760e+01   1.009920e+01
   2.971226e+01   3.835043e+01
  -1.223936e+00   2.117216e+01
  -5.383235e+01   4.762449e+00
  -5.569494e+01  -3.040283e+01
  -2.136580e+01  -2.585937e+01
   7.176606e+00   3.393865e+01
  -2.001191e+01  -1.864699e+00
   3.986938e+00  -2.318665e+01
  -7.487182e+00  -5.097734e+01
   2.942313e+01  -2.336905e+01
   6.746472e+01   5.983433e+01
   1.073364e+01   7.264365e+01
  -2.748426e+01   2.664543e+01
  -7.872199e+01  -4.128689e+00
  -1.552263e+01  -4.287434e+01
   4.989846e+01  -3.693618e+01
   1.055870e+02  -7.199067e+00
   1.942448e+01   3.268173e+01
  -5.138514e+01   2.499333e+01
  -2.699083e+01   2.516123e+01
  -4.985505e+01   1.722963e+01
   3.144619e+01  -6.443749e+00
   1.835013e+01   1.461625e+01
  -4.001091e+01   4.623966e+01
  -6.357183e+01   3.054975e+01
