
 $NMID
 id='ANONYMOUS ', fmtdat='(2E16.6)'
 volume=1.0
 tramp=1.0
 $END
   3.493589e+03  -1.829275e+02
   2.560343e+03   1.699470e+03
  -2.690738e+02   2.332023e+03
  -1.466208e+03   1.109162e+03
  -8.910332e+02  -1.547068e+02
   2.226476e+02  -5.329625e+02
   6.553305e+02   2.278719e+02
   1.204726e+02   8.158876e+02
  -6.573555e+02   7.085156e+02
  -7.945304e+02   1.434886e+01
  -4.258516e+02  -6.899285e+02
   1.361764e+02  -7.629986e+02
   4.971125e+02  -1.659876e+02
   3.811886e+02   4.893593e+02
  -1.250910e+02   6.693634e+02
  -5.633496e+02   7.575645e+01
  -3.374234e+02  -5.150217e+02
   1.744746e+02  -6.440814e+02
   5.445345e+02  -1.897797e+02
   4.721239e+02   2.888160e+02
   1.049784e+02   4.590021e+02
  -2.523797e+02   2.625611e+02
  -1.422951e+02  -1.455503e+01
   1.592445e+02  -6.044438e+01
   4.101399e+02   2.081585e+02
   1.316118e+02   4.490578e+02
  -4.650432e+02   3.514852e+02
  -7.600047e+02  -1.513265e+02
  -3.925012e+02  -4.725474e+02
   3.532597e+02  -4.065867e+02
   6.333810e+02   8.121903e+01
   2.832946e+02   4.186528e+02
  -2.430888e+02   4.838567e+02
  -5.293730e+02   1.737930e+02
  -3.890997e+02  -2.389294e+02
  -6.708740e+01  -3.949467e+02
   1.523531e+02  -1.913778e+02
   9.078696e+01   1.625357e+02
  -1.613067e+02   3.112957e+02
  -3.238428e+02  -5.016064e+01
  -9.992446e+01  -5.469262e+02
   2.765645e+02  -5.643075e+02
   4.459903e+02  -2.705360e+01
   2.304938e+02   3.652491e+02
  -2.325665e+02   2.799962e+02
  -3.079550e+02  -2.236957e+02
   1.552958e+01  -4.454412e+02
   5.176240e+02  -1.780932e+02
   5.619796e+02   3.233302e+02
   1.947196e+02   5.077134e+02
  -3.477227e+02   3.404202e+02
  -5.739294e+02  -3.297822e+01
  -3.210978e+02  -3.441712e+02
   1.216615e+02  -3.292860e+02
   3.997654e+02  -6.359492e+01
   2.705508e+02   1.396532e+02
  -5.864970e+01   8.889648e+01
  -9.849168e+01  -6.466585e+01
   1.045920e+02  -1.613361e+02
   3.149560e+02   1.700091e+01
   2.208641e+02   2.111090e+02
  -1.109238e+02   2.895738e+02
  -3.063603e+02   1.659989e+02
  -2.938385e+02  -8.474206e+01
  -3.135468e+01  -2.803677e+02
   2.650298e+02  -3.452239e+02
   3.852867e+02  -1.561618e+02
   2.829779e+02   1.925789e+02
   2.521207e+01   3.423792e+02
  -1.098242e+02   3.567257e+02
  -8.383381e+01   1.273452e+02
  -2.826560e+01   1.371422e+01
  -8.499601e+01   9.771406e+01
  -1.964883e+02   1.000071e+02
  -2.645564e+02  -4.896390e+01
  -1.588361e+02  -2.137103e+02
   9.488786e+01  -2.396679e+02
   2.167939e+02  -2.124212e+01
   1.774503e+02   1.714606e+02
   1.500248e+01   2.814122e+02
  -2.648754e+02   1.028217e+02
  -3.091152e+02  -1.635792e+02
  -1.886179e+02  -3.069532e+02
   9.640408e+01  -3.083765e+02
   1.975788e+02  -1.166669e+02
   1.191405e+02  -3.791058e+01
   1.047369e+02  -3.159988e+01
   1.809201e+02  -4.386346e+01
   3.419263e+02  -6.030715e+00
   2.944314e+02   2.031708e+02
   6.827565e+01   3.920013e+02
  -3.250932e+02   4.020241e+02
  -4.841275e+02   2.291379e+02
  -3.324694e+02  -1.125080e+02
  -7.624219e+01  -2.587054e+02
   1.199343e+02  -2.053511e+02
   2.822758e+01  -1.453389e+01
  -6.258740e+01   6.395788e+01
  -1.471901e+02  -2.036474e+01
  -4.580826e+01  -1.720809e+02
   1.387005e+02  -1.303116e+02
   1.238613e+02   3.893291e+01
  -3.873998e+00   1.247912e+02
  -1.570694e+02   8.469417e+01
  -1.592616e+02  -1.854974e+02
  -2.216705e+01  -3.302554e+02
   2.280165e+02  -2.392177e+02
   3.362800e+02  -2.242172e+01
   3.114936e+02   2.462579e+02
   6.931284e+01   3.116992e+02
  -1.276228e+02   1.617249e+02
  -1.470064e+02   3.610554e+00
  -2.836041e+01  -3.213721e+01
   7.498733e+01   5.506652e+01
   1.929197e+01   1.430325e+02
  -9.288281e+01   1.234457e+02
  -1.845754e+02   1.112723e+01
  -3.965679e+01  -9.359815e+01
   6.670801e+01   2.390701e+00
   8.639437e+01   9.365616e+01
  -1.196012e+02   9.648223e+01
  -2.775186e+02   2.609202e+00
  -2.732241e+02  -1.192218e+02
  -5.081041e+01  -2.605970e+02
   1.795459e+02  -2.776256e+02
   2.320050e+02  -1.229537e+02
   1.929795e+02   3.660784e+01
  -4.847630e+01   1.226733e+02
  -7.182994e+01   2.920245e+01
   3.595758e+01  -1.033032e+02
   1.628019e+02  -8.951922e+01
   1.817106e+02   8.756122e+01
   7.300018e+01   2.139647e+02
  -6.566183e+01   1.463958e+02
  -1.099369e+02   2.985318e+01
  -4.083480e+01  -3.410446e+01
   4.311921e+01   1.403018e+01
   9.834100e+01   1.034592e+02
  -7.236950e+01   1.044326e+02
  -1.711239e+02   5.215003e+01
  -1.691987e+02  -8.766197e+01
  -3.629944e+01  -1.944776e+02
   1.427118e+02  -1.533994e+02
   1.805977e+02  -2.240654e+00
   8.555566e+01   8.498941e+01
  -6.295493e+01   1.678391e+02
  -7.770131e+01   5.781442e+01
  -5.631321e+01  -5.120676e+01
   5.260101e+01  -3.544216e+01
  -1.806058e+01   7.394731e-01
  -6.874423e+01   2.657163e+01
  -1.107091e+02  -5.072333e+01
  -3.720558e+01  -1.857039e+02
   1.213019e+02  -1.455139e+02
   2.008368e+02  -5.954235e+01
   1.633334e+02   1.366288e+02
   5.719352e+01   1.992803e+02
  -9.421105e+01   1.365988e+02
  -1.418089e+02   4.215146e+01
  -8.726680e+01  -6.885119e+01
  -5.737415e+00  -1.038991e+01
  -5.851211e+00   3.662898e+01
  -7.780315e+01   2.772642e+01
  -6.942098e+01  -6.591789e+01
   2.330832e+01  -1.075492e+02
   7.873677e+01  -5.403120e+01
   1.259371e+02   3.331082e+01
  -2.849449e+00   1.097689e+02
  -1.638540e+02   1.012852e+02
  -1.904236e+02  -6.399297e+01
  -8.937696e+01  -1.878214e+02
   8.199437e+01  -2.070405e+02
   2.342237e+02  -8.072608e+01
   2.618709e+02   7.693047e+01
   9.091315e+01   1.700731e+02
  -2.642132e+01   1.417577e+02
  -4.068984e+01   7.136467e+01
  -7.224826e+01   5.047190e+01
  -3.292172e+01   7.189076e+01
  -9.732016e+01   1.202164e+02
  -1.236790e+02   1.412201e+01
  -1.340830e+02  -1.542339e+02
  -3.132760e+01  -2.011261e+02
   1.314833e+02  -1.457881e+02
   1.869388e+02  -3.987056e+01
   1.005414e+02   1.248557e+02
   8.047408e-01   1.618605e+02
  -1.160135e+02   1.116614e+02
  -5.804732e+01  -2.408801e+01
   1.593227e+01  -5.110174e+01
  -1.718903e+00  -2.953077e+01
  -2.003194e+01   1.086656e+01
  -8.619454e+01  -1.768149e+01
  -7.971714e+01  -5.082821e+01
   5.671939e+01  -6.705683e+01
   2.000080e+02  -3.455243e+01
   1.445479e+02   3.908696e+01
   1.431576e+01   1.096040e+02
  -1.195217e+02   7.740561e+01
  -1.339423e+02  -1.965629e+01
  -4.874947e+01  -7.111996e+01
   4.889009e+01  -6.497096e+01
   1.204808e+02   1.886919e+01
   6.823851e+00   8.331752e+01
  -8.112462e+01   4.705304e+01
  -8.136601e+01   1.160294e+01
  -5.860605e+01  -7.657750e+01
  -3.284573e+01  -1.096760e+01
  -2.926180e+01   2.238822e+00
  -4.707764e+01  -1.582254e+01
  -4.052516e+01  -5.430704e+01
   3.395035e+01  -1.760609e+02
   1.085720e+02  -1.495090e+02
   1.753089e+02  -6.265104e+01
   1.402666e+02   1.162529e+02
   2.195768e+01   1.478368e+02
  -1.002661e+02   8.151317e+01
  -5.415503e+01  -4.697871e+00
   5.947836e+01  -4.193700e+01
   1.287617e+02   3.149955e+01
   6.165365e+01   1.140735e+02
  -9.324374e+01   1.317300e+02
  -1.594362e+02   5.611385e+01
  -1.322665e+02  -2.179046e+01
  -4.707449e+01  -7.790539e+01
   5.693485e+01  -5.871848e+01
   4.598740e+01   1.091149e+01
  -4.741932e+01   2.570658e+01
  -1.045201e+02  -1.942111e+01
  -4.296247e+01  -1.259626e+02
   8.542197e+01  -1.435563e+02
   1.355508e+02  -9.288150e+01
   1.225225e+02   1.035803e+02
   3.197934e+01   1.823469e+02
  -6.570749e+01   1.343363e+02
  -5.692108e+01   1.752988e+01
  -3.377086e+01  -1.306900e+02
  -3.048721e+00  -9.246827e+01
   6.721784e+01  -2.637986e+01
   1.705138e+01   3.341491e+01
   5.903183e+00  -1.139588e+01
   2.336111e+01  -2.558594e+01
   3.614051e+01  -4.076389e+00
   5.762318e+01   7.284273e+01
   5.170532e+01   9.501979e+01
  -5.179867e+01   6.272882e+01
  -1.505403e+02  -4.179084e+01
  -1.502626e+02  -8.239955e+01
  -3.617599e+01  -3.061312e+01
   5.568723e+01  -3.968819e+01
   7.126093e+01   6.064860e+00
   3.937337e+01   1.885566e+01
  -3.400559e+01   3.802546e+01
  -1.299090e+01   3.719618e+01
   7.711274e+00  -1.397797e+01
   1.714291e+01   3.088347e+00
  -3.533471e+01  -3.922013e+00
  -1.010973e+02  -1.494279e+01
  -3.780240e+01  -7.535374e+01
   5.857781e+01  -1.702131e+02
   1.515556e+02  -9.690008e+01
   1.897582e+02   2.623656e+01
   5.155143e+01   1.529484e+02
  -7.057539e+01   1.495889e+02
  -1.278580e+02   3.881901e+01
  -7.837011e+01  -1.855835e+01
  -2.788121e+01  -5.207520e+01
   1.432379e+01   4.766974e+00
  -6.418114e+00   1.781549e+00
  -2.694969e+01  -3.800940e+01
  -7.548703e+00  -7.878511e+01
   2.711123e+01  -8.262179e+01
   8.409385e+01   1.537512e+01
   1.118143e+02   9.817237e+01
  -1.301264e+00   1.004543e+02
  -9.049202e+01   1.859403e+01
  -8.668108e+01  -5.429158e+01
  -3.785246e+01  -1.078275e+02
   7.835625e+01  -8.651583e+01
   1.182792e+02   1.964448e+01
   4.048501e+01   5.085797e+01
  -3.111612e+01   4.182979e+01
  -2.846239e+01   2.678335e+01
   1.088551e+01  -4.285099e+01
   6.984326e+01   1.228344e+01
   2.358086e+01   2.482900e+01
  -9.070011e+01   6.996177e+01
  -1.007898e+02   3.577093e+01
  -6.281667e+01  -1.483491e+01
  -2.395884e+01  -5.520877e+01
   4.280800e+01  -5.910527e+01
   5.838848e+01  -1.870698e+01
   1.731337e+01   2.900738e+01
  -7.769217e+00   3.633218e+01
  -3.287494e+01  -9.198755e+00
  -6.325897e+01  -2.102887e+01
  -3.334089e+00  -2.234358e+01
   4.482987e+01   2.715650e+00
   4.807498e+01   3.655557e+01
   7.524797e+00  -5.037762e+00
  -1.290204e+01  -1.235397e+01
  -2.457623e+01  -2.033617e+00
   4.797469e+00   3.281781e+01
   1.646297e+00   5.268620e+01
  -1.861947e+01   2.838026e+00
  -5.913848e+01  -3.058057e+01
  -2.321726e+01  -3.791662e+01
   7.001918e+01  -3.052784e+01
   6.754493e+01   4.211816e+01
   1.945055e+01   4.507371e+01
  -4.905278e+01   4.624481e+01
  -8.351749e+01   1.559343e+01
  -2.656861e+01  -3.450467e+01
   1.887496e+01  -1.684613e+01
   4.203235e+01   1.708868e+00
   2.775786e+01  -1.143199e+01
  -2.404671e+01   1.092975e+00
  -1.017319e+01   1.380155e+01
  -3.949007e+00  -5.250236e+01
   7.039197e+01  -5.353237e+01
