
 $NMID
 id='ANONYMOUS ', fmtdat='(2E16.6)'
 volume=1.0
 tramp=1.0
 $END
  -4.216946e+03  -6.783100e+01
  -2.543274e+03  -2.641284e+03
   9.052710e+02  -2.833247e+03
   1.921054e+03  -9.394259e+02
   1.057887e+03   5.570837e+02
  -6.310778e+02   5.409679e+02
  -8.582626e+02  -4.787156e+02
  -6.195294e+01  -1.040181e+03
   7.415210e+02  -7.570926e+02
   9.430692e+02   2.279083e+01
   3.850795e+02   8.565915e+02
  -2.730845e+02   7.810737e+02
  -5.697234e+02   1.625078e+02
  -3.417884e+02  -7.344751e+02
   2.422917e+02  -7.118547e+02
   5.891199e+02   2.977463e+00
   2.774383e+02   6.968049e+02
  -2.688485e+02   6.785045e+02
  -5.769512e+02   1.350386e+02
  -4.213234e+02  -3.429895e+02
  -6.076889e+00  -4.600913e+02
   2.899932e+02  -2.573603e+02
   2.317385e+02   3.637380e-01
  -1.146116e+02   1.062738e+02
  -4.500630e+02  -1.784498e+02
  -2.139697e+02  -4.694062e+02
   4.642184e+02  -4.103461e+02
   8.138226e+02   1.781658e+01
   4.406588e+02   4.714982e+02
  -4.268624e+02   5.005370e+02
  -7.021818e+02  -1.966737e+01
  -3.550082e+02  -4.846753e+02
   2.507531e+02  -5.607097e+02
   5.686302e+02  -1.799807e+02
   3.952087e+02   2.977555e+02
   5.361004e+01   4.791079e+02
  -2.611657e+02   2.699992e+02
  -1.631166e+02  -1.995615e+02
   1.866395e+02  -4.559934e+02
   3.812523e+02   4.538300e+01
   2.049929e+02   6.649889e+02
  -3.344501e+02   6.197457e+02
  -5.126119e+02  -2.620215e+01
  -2.633768e+02  -5.363339e+02
   2.907293e+02  -3.530237e+02
   3.778267e+02   2.701640e+02
   3.279935e-01   5.414154e+02
  -5.393346e+02   1.958214e+02
  -5.347662e+02  -3.798771e+02
  -1.771844e+02  -5.957631e+02
   3.420069e+02  -3.540508e+02
   5.740015e+02   4.688334e+01
   3.810704e+02   3.195490e+02
  -1.121626e+02   4.464259e+02
  -4.145218e+02   1.128628e+02
  -2.942330e+02  -1.810619e+02
   1.191591e+02  -1.742795e+02
   1.607016e+02   1.208660e+02
  -1.541183e+02   1.783814e+02
  -3.581431e+02  -5.912688e+01
  -1.624511e+02  -2.721849e+02
   1.981303e+02  -2.953455e+02
   3.763052e+02  -7.042405e+01
   2.278889e+02   1.185014e+02
  -1.783553e+01   2.804326e+02
  -2.133783e+02   3.179036e+02
  -3.786155e+02   2.056929e+02
  -2.320119e+02  -1.588315e+02
  -7.979646e+01  -3.946830e+02
   8.161008e+01  -3.402422e+02
   1.268442e+02  -7.167250e+01
  -5.604978e+00  -3.291432e+00
   2.771016e+01  -8.436538e+01
   1.725857e+02  -1.419846e+02
   2.663897e+02   8.951386e+01
   1.480868e+02   2.873530e+02
  -6.782634e+01   2.696310e+02
  -2.282142e+02   3.903402e+01
  -2.010524e+02  -2.256043e+02
   1.550803e+01  -2.913865e+02
   2.743655e+02  -1.168279e+02
   3.525377e+02   1.665014e+02
   1.688087e+02   3.406448e+02
  -1.164170e+02   2.728018e+02
  -2.248602e+02   8.358450e+01
  -1.402857e+02  -2.278548e+01
  -7.203432e+01   6.058938e+01
  -2.339888e+02   8.430575e+01
  -4.036457e+02  -6.672346e+01
  -3.670882e+02  -2.961223e+02
  -2.674355e+01  -4.218920e+02
   3.269326e+02  -3.680662e+02
   4.547955e+02  -2.012915e+02
   3.615202e+02   6.985475e+01
   6.497911e+01   2.834274e+02
  -1.077538e+02   2.307108e+02
  -1.084440e+02   6.695655e+01
   1.234528e+02  -1.199447e+02
   2.013243e+02  -1.493529e+01
   4.594413e+01   1.742185e+02
  -1.226049e+02   1.822927e+02
  -2.027402e+02  -5.509670e+01
   1.505880e+01  -1.990903e+02
   1.963059e+02  -3.544568e+01
   1.917952e+02   2.079156e+02
  -3.035429e+00   3.473207e+02
  -1.873423e+02   1.788187e+02
  -3.080814e+02  -5.390014e+01
  -2.877946e+02  -2.240763e+02
  -1.107741e+02  -2.748482e+02
   8.437288e+01  -1.751513e+02
   1.665310e+02  -3.228191e+00
   4.447267e+01   3.384448e+01
  -4.008060e+01  -5.627526e+01
  -3.205420e+01  -6.907472e+01
   1.147053e+02  -1.107617e+02
   1.555920e+02   1.086555e+01
   7.591896e+01   4.047050e+01
  -9.341066e+01   1.895365e+01
  -5.274573e+01  -5.782795e+01
   1.000288e+02  -8.613739e+01
   2.576896e+02  -1.450781e+00
   2.521411e+02   1.310987e+02
   3.239894e+01   2.171085e+02
  -1.609387e+02   2.220148e+02
  -3.043068e+02   9.796056e+01
  -1.861607e+02  -5.450554e+01
   2.812225e+01  -1.223128e+02
   1.260508e+02  -4.167212e+00
  -3.596176e+01   1.006607e+02
  -2.094903e+02   5.710845e+01
  -2.143564e+02  -7.467068e+01
  -7.572296e+01  -2.070840e+02
   9.708144e+01  -1.269085e+02
   1.181183e+02  -3.910179e+01
   4.950754e+01   3.210184e+01
  -2.308731e+01  -5.709440e+00
  -1.852254e+01  -7.854268e+01
   9.224603e+01  -1.256205e+02
   2.126721e+02  -2.311395e+01
   1.625218e+02   9.279041e+01
   2.528348e+01   1.960877e+02
  -1.455497e+02   1.233136e+02
  -2.203352e+02   2.689950e+01
  -5.781934e+01  -1.160008e+02
   4.124660e+01  -1.017452e+02
   1.094293e+02  -3.980775e+01
   2.110289e+01   2.299526e+01
  -3.761754e+01   2.144764e+01
   2.429716e+01   1.469770e+01
   6.637066e+01   2.409802e+00
   5.510583e+01   8.247919e+01
  -2.118849e+00   1.372843e+02
  -1.536367e+02   1.679820e+02
  -1.883886e+02   2.815021e+01
  -1.730413e+02  -1.394342e+02
  -3.735074e+01  -2.390118e+02
   1.145131e+02  -1.388000e+02
   1.376728e+02  -4.625728e+01
   8.918337e+01   4.877527e+01
   4.596118e+01   3.598406e+01
   5.919861e+01  -5.060484e+00
   8.502706e+01  -4.027791e+00
   5.266988e+01   5.499402e+01
  -5.687078e+01   1.044198e+02
  -1.236139e+02   6.270415e+01
  -1.020364e+02  -5.836890e+01
  -2.231843e+00  -1.165233e+02
   1.566846e+02  -9.638300e+01
   1.798472e+02   6.803020e+01
   9.467800e+01   1.623101e+02
  -1.010433e+02   2.065505e+02
  -2.194236e+02   1.261847e+02
  -2.769565e+02  -4.651396e+01
  -1.166155e+02  -1.832268e+02
   3.659090e+01  -1.349745e+02
   7.269538e+01  -9.928526e+01
   1.007348e+02  -4.396949e+01
   6.229577e+01  -8.414060e+01
   6.086498e+01  -8.729985e+01
   1.088525e+02   1.851838e+01
   1.198638e+02   1.400697e+02
   1.447055e-01   2.322531e+02
  -8.655977e+01   1.966780e+02
  -1.898881e+02   1.976518e+01
  -1.209556e+02  -1.238253e+02
  -4.407708e+01  -1.450160e+02
   4.819717e+01  -6.922218e+01
   6.286570e+01  -1.769714e+01
   3.529944e+01   5.059784e+01
  -2.817361e+01   2.276031e+01
   7.263078e+00   1.150671e+01
   6.664196e+01   4.290994e+00
   6.156699e+01   4.441827e+01
  -6.921880e+01   1.532944e+01
  -1.361040e+02   2.513838e+01
  -1.427239e+02  -3.066513e+01
  -4.012254e+01  -7.182867e+01
   8.442021e+01  -6.945982e+01
   1.208634e+02  -4.242818e+01
   3.729337e+01   1.546819e+01
  -1.022392e+02   2.391265e+01
  -6.505004e+01  -1.744582e+01
  -1.001151e+01  -8.263596e+01
   5.832598e+01  -4.398655e+01
   4.945501e+01  -8.896442e+00
   4.308901e+01   6.400156e+01
   2.096844e+01   2.784360e+01
   9.105596e+01  -8.893487e+00
   6.467777e+01   6.746848e+00
   4.122493e+00   6.978037e+01
  -2.449082e+01   1.316239e+02
  -1.562849e+02   1.132176e+02
  -1.344199e+02   1.810663e+01
  -1.023583e+02  -6.143226e+01
  -1.704571e+01  -1.219874e+02
   6.360787e+01  -5.712415e+01
   5.679612e+01   3.064380e+00
  -5.266081e+01   3.309221e+01
  -1.386880e+02  -9.355093e+01
  -5.806308e+01  -1.142097e+02
   9.460835e+01  -1.168645e+02
   1.943899e+02  -7.303473e+01
   1.658425e+02   8.283325e+01
   3.928425e+01   1.073861e+02
  -5.669284e+01   5.312762e+01
  -5.737352e+01  -1.497867e+00
   1.713500e+01  -2.425048e+01
   7.192647e+01   1.951119e+01
   3.592228e+01   9.139180e+01
  -7.981710e+01   1.538105e+02
  -1.650601e+02   3.375811e+01
  -1.223892e+02  -1.163516e+02
   9.088355e+00  -1.959680e+02
   7.679771e+01  -1.179204e+02
   1.129965e+02  -1.292040e+00
   5.551207e+01   9.960611e+01
   8.928980e+00   1.088729e+02
  -9.035890e+00   6.178476e+00
  -5.914877e+01  -1.566895e+01
  -1.428436e+01  -3.089781e+01
  -1.559085e+01   3.089187e+01
  -4.396493e+01  -2.597278e+01
  -4.038391e+01  -6.525338e+01
  -1.595428e+01  -6.947155e+01
   3.944524e+01  -4.721260e+01
   1.454305e+02   5.213961e+01
   1.206049e+02   7.686576e+01
  -1.108710e+01   5.960044e+01
  -8.248925e+01   3.323729e+01
  -9.705431e+01  -2.736992e+00
   1.167981e+01  -1.003252e+01
   1.898582e+01  -2.314593e+01
   2.043429e+01   1.247348e-01
  -1.671408e+01   1.018303e+01
   2.074687e+01   2.853650e+01
   9.712919e+01   4.801060e+00
   7.763933e+01  -1.678813e+00
  -1.166818e+01   6.904074e+01
  -1.066988e+02   1.374524e+02
  -1.748513e+02   6.733958e+01
  -1.193583e+02  -7.559028e+01
  -2.082279e+01  -1.468934e+02
   9.252941e+01  -1.135812e+02
   1.227556e+02  -4.280380e+01
   6.784879e+01   1.586995e+01
   9.029024e+00   3.781688e+01
  -1.805798e+01  -2.696139e+00
   1.153573e+00  -6.408769e+00
   3.799412e+01   4.646897e+01
   5.214723e+01   7.288190e+01
  -4.386828e+01   6.807015e+01
  -7.871264e+01  -6.147034e+01
  -8.473596e+01  -1.217136e+02
   1.724645e+01  -1.071860e+02
   8.231071e+01  -1.067903e+01
   9.395929e+01   7.842457e+01
   3.750299e+01   1.089133e+02
  -6.661386e+01   5.210580e+01
  -1.222786e+02   5.942002e+00
  -1.755930e+01  -5.332878e+01
   3.996059e+01  -6.821569e+01
   4.911425e+01  -4.236363e+01
  -2.191145e+01   1.151107e+01
  -8.118579e+01   2.151527e+01
  -1.049515e+01   1.799270e-01
   4.632327e+01  -4.730256e+01
   9.833945e+01  -4.842151e+01
   2.711782e+01   1.995704e+01
  -2.905407e+01   5.121812e+01
  -4.631117e+01   8.372299e+01
  -1.734483e+01  -2.823012e+01
  -2.146505e+00  -3.292371e+01
   3.668576e+01  -3.926440e+01
   3.897595e+01   1.423545e+01
   2.198499e+01   6.108696e+01
  -2.408387e+01   3.081018e+01
  -3.373589e+01  -3.295628e+01
  -5.151589e+00  -6.371563e+00
  -1.556315e+01  -1.725380e+01
  -1.685111e+01   3.854045e+01
  -1.931207e+01  -1.391677e+01
   2.663690e+01  -4.353744e+01
   2.464459e+01  -5.403117e+01
   2.952958e+01  -2.866456e+01
   9.753524e+00   3.072531e+01
  -2.029755e+01   7.274195e+01
  -3.935058e+01   4.561078e+01
  -7.105248e+01  -4.443633e+01
  -3.204754e+01  -5.698425e+01
   4.866234e+01  -6.412968e+01
   7.139862e+01   1.197573e+01
   7.086143e+01   3.695346e+01
  -1.843503e+01   8.278624e+01
  -5.343893e+01   1.158022e+01
  -6.782599e+00  -1.445735e+00
   3.713250e+01  -6.014012e+00
   4.059745e+01   1.087448e+01
  -6.054694e+01   1.992677e+01
  -6.310848e+01   2.095192e+01
