
 $NMID
 id='ANONYMOUS ', fmtdat='(2E16.6)'
 volume=1.0
 tramp=1.0
 $END
  -3.730594e+03   5.724629e+01
  -2.444419e+03  -2.038394e+03
   5.088557e+02  -2.469385e+03
   1.654902e+03  -1.173153e+03
   9.879651e+02   2.771630e+02
  -4.396786e+02   4.792576e+02
  -6.679874e+02  -3.522593e+02
  -5.805312e+00  -8.923411e+02
   7.056607e+02  -7.785844e+02
   7.935300e+02   5.414087e+01
   4.327526e+02   7.044563e+02
  -1.602847e+02   7.684426e+02
  -5.384649e+02   1.403861e+02
  -3.556614e+02  -6.024791e+02
   2.490942e+02  -6.844429e+02
   5.446062e+02  -2.049471e+01
   3.053674e+02   6.411585e+02
  -2.095985e+02   7.037365e+02
  -5.606072e+02   1.178026e+02
  -4.067446e+02  -3.064048e+02
  -5.346374e+01  -4.059808e+02
   2.290494e+02  -2.149077e+02
   1.794174e+02  -2.276073e+01
  -1.546589e+02   7.686157e+01
  -3.667806e+02  -1.744311e+02
  -1.739000e+02  -3.702462e+02
   3.986902e+02  -3.538613e+02
   7.139180e+02   4.498883e+01
   3.837799e+02   4.769725e+02
  -3.493718e+02   4.292109e+02
  -5.694930e+02  -2.219847e+01
  -3.258880e+02  -4.285162e+02
   2.358417e+02  -4.433329e+02
   5.214188e+02  -1.633575e+02
   3.361251e+02   2.182796e+02
   5.609234e+01   4.029249e+02
  -1.783128e+02   2.703964e+02
  -1.188382e+02  -1.559853e+02
   1.558063e+02  -3.321150e+02
   3.519095e+02   7.436209e+01
   1.711532e+02   5.916913e+02
  -2.443810e+02   5.802986e+02
  -4.787525e+02  -3.355041e+01
  -2.323278e+02  -4.880991e+02
   2.269726e+02  -2.572914e+02
   2.728300e+02   2.412962e+02
  -6.919671e+01   4.661090e+02
  -5.091327e+02   1.461756e+02
  -5.813361e+02  -3.690854e+02
  -1.318255e+02  -5.516096e+02
   3.643925e+02  -3.269300e+02
   6.354941e+02   1.030515e+02
   3.175507e+02   3.191297e+02
  -1.106583e+02   3.321083e+02
  -3.939412e+02   4.470043e+01
  -2.110443e+02  -1.507082e+02
   6.199755e+01  -1.287771e+02
   1.399494e+02   1.134153e+02
  -1.146635e+02   1.592735e+02
  -3.069528e+02  -5.565988e+01
  -1.544887e+02  -2.475570e+02
   1.699230e+02  -3.053668e+02
   3.428955e+02  -9.370303e+01
   2.062092e+02   1.030728e+02
  -3.310919e+01   2.754613e+02
  -2.670312e+02   3.531351e+02
  -3.169341e+02   1.867014e+02
  -2.303323e+02  -1.460486e+02
  -6.078918e+01  -3.748621e+02
   1.313997e+02  -2.853319e+02
   5.462061e+01  -1.231187e+02
   2.728794e+01  -2.367588e+01
   4.232497e+01  -9.670441e+01
   1.934065e+02  -1.277947e+02
   2.520123e+02   7.768475e+01
   1.237760e+02   2.568510e+02
  -1.185812e+02   2.233624e+02
  -2.202669e+02   5.551905e+00
  -2.176791e+02  -2.509937e+02
   2.921535e+01  -2.735543e+02
   2.682646e+02  -1.202861e+02
   3.279813e+02   1.506077e+02
   1.915069e+02   2.944355e+02
  -7.235606e+01   2.547268e+02
  -1.651340e+02   8.764566e+01
  -1.036735e+02   4.310984e+01
  -1.063055e+02   6.131527e+01
  -1.916891e+02   9.206308e+01
  -4.106257e+02  -6.515689e+01
  -3.281935e+02  -2.348664e+02
  -4.049628e+01  -4.555823e+02
   3.508902e+02  -3.570220e+02
   4.971233e+02  -2.247487e+02
   3.330981e+02   1.034643e+02
   2.597656e+01   2.703637e+02
  -1.252365e+02   2.365669e+02
  -6.603313e+01   2.902518e+01
   9.470545e+01  -1.027251e+02
   1.744644e+02  -3.422536e+01
   5.241727e+01   1.804631e+02
  -1.034512e+02   1.683919e+02
  -1.385061e+02  -4.546989e+01
  -3.281534e+01  -1.838510e+02
   1.717998e+02  -4.425735e+01
   1.855016e+02   2.229949e+02
   6.889523e+00   3.178130e+02
  -2.301517e+02   2.048642e+02
  -3.114155e+02  -4.937105e+01
  -2.285915e+02  -1.994561e+02
  -5.910030e+01  -2.695765e+02
   1.122610e+02  -1.279639e+02
   1.543858e+02   1.259743e+01
   2.341672e+01   2.186725e+01
  -4.917372e+01  -3.057413e+01
  -3.204421e-01  -1.449311e+02
   1.273781e+02  -9.112252e+01
   1.561452e+02   3.073718e+01
   1.782668e+01   3.255308e+01
  -8.918776e+01   1.458708e+01
  -9.167943e+01  -6.653902e+01
   1.185981e+02  -8.872748e+01
   2.717409e+02   1.200734e+01
   2.851892e+02   1.370912e+02
   4.360236e+01   2.647456e+02
  -2.042675e+02   2.139619e+02
  -2.702985e+02   1.109652e+02
  -1.832517e+02  -6.138132e+01
   3.388218e+01  -7.923974e+01
   7.623393e+01  -3.601584e+00
   4.546109e+00   9.072925e+01
  -2.187622e+02   3.678141e+01
  -1.892481e+02  -7.913492e+01
  -5.428337e+01  -2.090915e+02
   8.413612e+01  -1.343142e+02
   1.232677e+02  -3.038676e+01
   4.374600e+01   4.633770e+01
  -2.583963e+01   6.481161e-02
  -3.571344e+01  -1.073006e+02
   8.335478e+01  -1.115974e+02
   1.932263e+02  -7.162251e+01
   1.903547e+02   1.120646e+02
   1.115088e+01   2.378111e+02
  -1.583266e+02   1.471100e+02
  -1.992680e+02   1.426154e+01
  -3.134192e+01  -8.776484e+01
   7.308944e+01  -1.118111e+02
   9.742089e+01  -5.015163e+01
   5.170926e+00   1.226039e+01
  -3.457718e+01  -1.733482e+00
   2.000954e+01  -4.278870e+01
   6.160589e+01  -2.740180e+01
   9.663649e+01   8.911039e+01
   3.732060e+00   1.575204e+02
  -1.174750e+02   1.682316e+02
  -2.225237e+02   1.478710e+01
  -2.134254e+02  -1.168767e+02
  -2.164784e+01  -2.305959e+02
   1.158549e+02  -1.548062e+02
   1.164121e+02   3.365618e+00
   5.070795e+01   6.509286e+01
   2.653058e+01   7.264801e+01
   4.184348e+01  -3.708702e+01
   5.086214e+01  -2.934344e+01
   5.226488e+01   4.105045e+01
  -4.575054e+01   6.719101e+01
  -1.046569e+02   4.485444e+01
  -5.557971e+01  -4.180101e+01
   9.685852e+00  -1.242576e+02
   1.565706e+02  -9.069212e+01
   2.264264e+02   7.256278e+01
   8.697658e+01   1.896979e+02
  -1.140051e+02   2.279662e+02
  -2.443817e+02   1.123400e+02
  -2.177387e+02  -6.143154e+01
  -1.018528e+02  -1.742547e+02
   3.159618e+01  -1.089943e+02
   1.091287e+02  -7.277685e+01
   5.503237e+01  -6.133111e+01
   4.519102e+01  -9.209737e+01
   1.056861e+02  -8.931943e+01
   1.303250e+02   3.013609e+01
   1.273929e+02   1.430477e+02
   7.563546e+00   2.165140e+02
  -1.104459e+02   1.441977e+02
  -1.452984e+02   3.714708e+01
  -1.240064e+02  -1.443454e+02
   1.595293e+01  -1.256903e+02
   9.608186e+01  -8.620964e+01
   5.071206e+01   1.609988e+01
   2.021835e+01   3.601756e+01
   6.285503e+00   4.383419e+01
   4.354500e+01  -4.309239e+01
   9.727608e+01   1.244732e+01
   5.460616e+01   3.006488e+01
  -5.774028e+01   4.081664e+01
  -1.582245e+02   8.409029e-01
  -1.269207e+02  -4.340734e+01
  -3.211935e+01  -1.065200e+02
   1.601672e+02  -1.053980e+02
   1.370910e+02   2.838072e+01
   4.522609e+01   2.762190e+01
  -5.300997e+01   6.647816e+01
  -8.639924e+01   2.237247e+01
  -2.778949e+01  -5.714386e+01
   5.101093e+01  -8.092952e+01
   7.177933e+01   7.028354e+00
   5.350288e+01   4.309771e+01
   1.993202e+01   3.132545e+01
   3.217297e+01  -6.400933e+00
   2.161940e+01   2.375604e+01
   5.085563e+01   9.094046e+01
  -6.040963e+01   1.211062e+02
  -9.817837e+01   1.414743e+02
  -1.484038e+02   3.134967e+01
  -1.268191e+02  -8.002876e+01
  -2.490305e+01  -1.202281e+02
   5.526734e+01  -5.827554e+01
   4.623494e+01   1.158519e+01
  -5.063808e+01   1.877727e+01
  -1.328877e+02  -5.149149e+01
  -5.949848e+01  -1.016770e+02
   9.935282e+01  -1.178180e+02
   1.878715e+02  -7.943807e+01
   1.693760e+02   6.219909e+01
   4.804143e+01   1.088599e+02
  -5.281730e+01   4.682231e+01
  -5.264627e+01   2.397049e+01
   3.718717e+01  -6.161401e+01
   8.030090e+01   1.756926e+01
   5.151649e+01   9.849726e+01
  -7.840124e+01   1.246360e+02
  -1.515573e+02   6.723163e+01
  -1.416764e+02  -1.053004e+02
   8.984574e+00  -2.055696e+02
   9.279345e+01  -1.340038e+02
   1.582558e+02   2.220448e+01
   7.458001e+01   1.086326e+02
  -2.039526e+01   1.335887e+02
  -3.073667e+01   9.409508e+00
  -3.751975e+01  -3.453380e+01
  -9.804005e+00  -2.357066e+01
  -4.223700e+01   1.522854e+00
  -5.382124e+01  -6.022192e+00
  -6.844305e+01  -9.323214e+01
  -2.624926e+01  -1.322329e+02
   6.928401e+01  -4.651615e+01
   1.336268e+02   6.675082e+01
   1.240414e+02   9.265453e+01
   8.380229e+00   8.317473e+01
  -8.058415e+01   5.161564e+01
  -8.008251e+01   1.320336e+01
  -2.532084e+01   1.211280e+01
   1.309280e+01  -8.971818e+00
   1.730559e+01  -2.939882e+01
  -1.675596e+01   2.025930e+01
  -2.539665e+00   6.543407e+00
   5.200101e+01   3.810424e+00
   6.832705e+01   1.422789e+00
  -1.332780e+01   9.303694e+01
  -1.137598e+02   1.253219e+02
  -1.806695e+02   6.660722e+01
  -1.030910e+02  -5.328721e+01
  -1.335221e+01  -1.412976e+02
   8.447493e+01  -1.471052e+02
   1.040196e+02  -7.011604e+01
   5.485724e+01   2.377634e+00
   1.157444e+00   2.523654e+01
   2.894884e+01   1.847715e+01
   1.931534e+01  -1.355043e+00
   3.388200e+01   5.391216e+01
   9.133482e+00   7.169529e+01
  -3.544369e+01   4.245772e+01
  -5.717086e+01  -2.405156e+01
  -5.497802e+01  -9.189639e+01
  -1.764121e+01  -7.529531e+01
   1.032363e+02  -3.392545e+01
   1.139912e+02   5.033707e+01
   4.360643e+01   9.943514e+01
  -5.390591e+01   6.428355e+01
  -1.121202e+02   3.381834e+01
  -4.981263e+01  -9.070114e+01
   4.781380e+01  -1.041647e+02
   3.733470e+01  -1.969361e+01
  -3.831837e+01   1.433162e+01
  -7.914698e+01   1.044283e+01
   5.470982e+00  -1.439805e+01
   6.752000e+01  -5.200863e+01
   8.906935e+01  -4.647546e+01
   4.523427e+01  -1.609103e+00
  -1.629028e+01   6.513825e+01
  -1.942870e+01   5.682003e+01
  -1.727801e+01   2.084374e+01
  -3.718074e-01  -4.311873e+01
   3.899179e+01  -3.769232e+01
   4.532530e+01  -4.526940e+00
   2.708178e+01   4.888558e+01
   3.453057e+01   2.808764e+01
  -1.512662e+01  -2.532627e+01
  -5.626564e+01  -1.954632e+00
  -3.178788e+01  -2.322418e+01
   1.300093e+01   1.429493e+01
  -2.265369e+01   4.386403e+00
  -5.828378e+00  -2.514934e+01
   2.799215e+00  -3.717022e+01
   4.933892e+01  -1.318525e+01
   2.751694e+01   5.423738e+01
  -1.922238e+01   7.081138e+01
  -2.686206e+01   1.089578e+01
  -6.225453e+01  -2.570128e+01
  -2.737773e+01  -6.266978e+01
   4.904211e+01  -4.322836e+01
   6.143291e+01  -5.572485e+00
   2.259511e+01   2.855528e+01
  -1.642025e+01   5.423945e+01
  -3.886236e+01   1.749684e+01
  -2.672458e+01   2.631185e+00
   3.303583e+01  -5.164195e+00
   3.917251e+01   4.206412e+01
  -2.613384e+01   5.092350e+01
  -8.094736e+01  -1.872239e+00
