
 $NMID
 id='ANONYMOUS ', fmtdat='(2E16.6)'
 volume=1.0
 tramp=1.0
 $END
   3.748239e+03  -1.560315e+02
   2.510511e+03   2.496911e+03
  -5.209636e+02   2.649873e+03
  -1.743316e+03   1.088819e+03
  -1.124569e+03  -4.934397e+02
   4.468781e+02  -5.341121e+02
   7.633530e+02   2.714987e+02
   1.825830e+02   1.037083e+03
  -7.578639e+02   8.301188e+02
  -9.269469e+02  -1.082314e+02
  -4.633071e+02  -8.075330e+02
   1.981629e+02  -8.650419e+02
   6.266023e+02  -1.205708e+02
   3.990956e+02   6.511758e+02
  -1.886887e+02   6.911796e+02
  -5.533218e+02   3.946360e+01
  -2.762549e+02  -6.621385e+02
   3.164560e+02  -7.080529e+02
   6.052161e+02  -2.138918e+02
   4.165527e+02   3.225730e+02
   1.111266e+01   4.437291e+02
  -1.811664e+02   2.503456e+02
  -1.634220e+02   2.913124e+00
   1.358742e+02  -5.178375e+01
   3.963953e+02   1.948769e+02
   1.334280e+02   4.243451e+02
  -4.423872e+02   3.151031e+02
  -7.835920e+02  -5.537061e+01
  -3.655028e+02  -4.528257e+02
   3.663946e+02  -4.392907e+02
   6.715327e+02   5.310783e+01
   3.122583e+02   4.575636e+02
  -2.764937e+02   4.507113e+02
  -5.380766e+02   1.865562e+02
  -3.598350e+02  -2.153116e+02
  -6.641486e+01  -4.288660e+02
   1.358350e+02  -2.607638e+02
   1.147757e+02   1.696550e+02
  -1.375405e+02   3.583657e+02
  -3.345665e+02  -1.778974e+01
  -1.870798e+02  -5.255540e+02
   2.805463e+02  -5.761411e+02
   4.697303e+02  -5.585939e+01
   2.289233e+02   4.745325e+02
  -2.518094e+02   2.851267e+02
  -3.305402e+02  -2.857133e+02
   3.013955e+01  -4.722784e+02
   5.071572e+02  -1.672617e+02
   5.013656e+02   3.957576e+02
   1.730619e+02   5.566595e+02
  -3.760655e+02   3.259977e+02
  -6.371656e+02  -7.769488e+01
  -3.243109e+02  -3.549447e+02
   1.098868e+02  -3.593757e+02
   3.739760e+02  -4.930091e+01
   2.425433e+02   1.440654e+02
  -7.284030e+01   7.239221e+01
  -1.225117e+02  -1.337865e+02
   1.636682e+02  -1.669814e+02
   3.399498e+02   7.357848e+01
   1.520772e+02   2.808900e+02
  -1.461479e+02   2.906630e+02
  -3.724093e+02   1.421514e+02
  -2.405703e+02  -1.193312e+02
   3.204739e+01  -2.599018e+02
   2.668429e+02  -3.228692e+02
   3.308912e+02  -1.752479e+02
   2.753213e+02   1.457833e+02
   7.366596e+01   3.894998e+02
  -8.935083e+01   3.457846e+02
  -9.872875e+01   1.041856e+02
  -3.039607e+01   2.700486e+01
  -7.622877e+01   7.761705e+01
  -2.141552e+02   1.025671e+02
  -2.437529e+02  -9.580998e+01
  -1.568562e+02  -2.707503e+02
   4.810064e+01  -2.404175e+02
   2.346825e+02  -2.327846e+01
   1.810057e+02   2.305583e+02
  -1.377769e+01   2.941940e+02
  -2.659061e+02   1.477802e+02
  -3.370318e+02  -1.324180e+02
  -2.309839e+02  -3.050483e+02
   5.910153e+01  -2.874835e+02
   2.050899e+02  -1.493663e+02
   1.332108e+02  -1.156039e+01
   9.905386e+01  -5.567060e+01
   2.119964e+02  -7.512445e+01
   3.742513e+02   6.647142e+01
   3.593098e+02   2.587659e+02
   4.099533e+01   4.588763e+02
  -3.017905e+02   4.837063e+02
  -5.078018e+02   2.409840e+02
  -3.195142e+02  -7.997675e+01
  -7.051976e+01  -2.614303e+02
   9.578239e+01  -2.548971e+02
   3.552850e+01  -4.755392e+01
  -9.077234e+01   1.169701e+02
  -1.864273e+02  -1.419247e+01
  -6.753061e+01  -1.982369e+02
   1.356581e+02  -1.711302e+02
   1.375958e+02   5.941820e+01
  -3.690352e+00   1.766712e+02
  -1.377726e+02   4.694070e+01
  -1.949731e+02  -2.166176e+02
   2.017390e+00  -3.255215e+02
   2.498635e+02  -1.727059e+02
   3.116285e+02   2.276758e+01
   2.622568e+02   2.088232e+02
   7.913156e+01   2.362679e+02
  -1.498448e+02   1.744212e+02
  -1.479444e+02  -4.265976e-01
  -4.120673e+01  -1.983137e+01
   5.341064e+01   2.007899e+01
   2.042133e+01   1.116139e+02
  -8.793535e+01   9.829396e+01
  -1.559165e+02  -5.579394e+00
  -6.523179e+01  -6.999898e+01
   9.973678e+01  -1.988281e+01
   7.190428e+01   6.491654e+01
  -1.057957e+02   1.212408e+02
  -2.773040e+02   8.325176e+00
  -2.895095e+02  -1.586527e+02
  -4.530458e+01  -2.717832e+02
   1.894417e+02  -2.423275e+02
   2.593589e+02  -1.341961e+02
   1.416481e+02   7.635440e+01
  -4.806756e+01   1.087083e+02
  -7.188888e+01   7.182614e+00
   1.020737e+01  -1.123363e+02
   1.966145e+02  -5.993435e+01
   1.997224e+02   7.765464e+01
   8.788875e+01   2.015868e+02
  -9.743604e+01   1.488375e+02
  -1.381832e+02   5.469113e+01
  -5.893174e+01  -4.287131e+01
   3.422029e+01   1.220402e+01
   6.413240e+01   6.719802e+01
  -9.621389e+01   1.144578e+02
  -1.821319e+02   5.741127e+01
  -1.832659e+02  -1.237187e+02
  -3.694411e+01  -2.033367e+02
   1.432614e+02  -1.477459e+02
   2.038698e+02  -1.631208e+01
   9.422228e+01   8.279114e+01
  -6.493683e+01   1.148126e+02
  -8.337346e+01   6.936591e+00
  -8.485633e+00  -3.991808e+01
   1.703526e+01  -1.493994e+01
  -8.558805e+00   2.910015e+01
  -7.265501e+01   2.012135e+01
  -8.477107e+01  -8.326105e+01
  -3.906399e+01  -1.495338e+02
   1.278545e+02  -1.538066e+02
   1.838602e+02  -3.489742e+01
   1.983452e+02   1.320211e+02
   4.252735e+01   2.041026e+02
  -1.029955e+02   1.608939e+02
  -1.340261e+02   1.992616e+01
  -8.476536e+01  -4.597011e+01
  -1.500614e+01  -3.729909e+01
  -4.938257e+01   1.966052e+01
  -8.654999e+01   1.912942e+01
  -5.442872e+01  -6.508441e+01
   4.120685e+01  -8.852827e+01
   1.046179e+02  -6.052375e+01
   1.051703e+02   6.613333e-01
   1.037697e+01   9.425162e+01
  -1.312085e+02   1.028514e+02
  -1.787358e+02  -6.406064e+01
  -1.204363e+02  -1.706194e+02
   1.028420e+02  -2.152503e+02
   2.414622e+02  -9.879625e+01
   1.865951e+02   9.034040e+01
   1.094338e+02   1.624014e+02
  -1.328289e+01   1.544743e+02
  -9.089878e+01   8.152914e+01
  -8.592670e+01   8.603569e+01
  -4.748979e+01   6.737052e+01
  -1.074335e+02   6.176250e+01
  -1.277589e+02  -1.369432e+01
  -1.274243e+02  -1.601078e+02
  -3.701914e+01  -2.289362e+02
   9.995502e+01  -1.559804e+02
   1.492336e+02  -2.923688e+01
   1.345954e+02   9.832810e+01
   3.672189e+01   1.656406e+02
  -5.820165e+01   7.536067e+01
  -9.294508e+01  -7.131172e+00
  -1.425624e+01  -4.762669e+01
   7.904942e+00  -5.461130e+01
  -2.002151e+01  -3.776991e+01
  -8.732624e+01  -4.966953e+01
  -4.395440e+01  -5.379680e+01
   6.330956e+01  -1.292762e+01
   1.420519e+02  -1.128591e+01
   1.415398e+02   6.190232e+01
   4.390080e-01   9.359489e+01
  -1.578840e+02   6.037989e+01
  -1.318769e+02  -5.894650e+00
  -5.169775e+01  -6.814237e+01
   6.979060e+01  -4.195932e+01
   8.494470e+01   4.765638e+00
   3.637324e+01   3.887045e+01
  -7.030093e+01   5.860578e+01
  -7.813238e+01   1.293929e+01
  -3.637966e+01  -3.020532e+01
  -4.460103e+01  -3.152261e+01
  -4.865215e+01   2.561621e+01
  -2.961077e+01  -1.068002e+01
  -8.709010e+01  -4.458674e+01
   3.346231e+01  -1.277251e+02
   1.407050e+02  -1.185284e+02
   1.677214e+02  -6.347050e+01
   1.469321e+02   9.615659e+01
   2.117783e+01   1.484403e+02
  -7.300021e+01   7.050969e+01
  -7.874467e+01  -2.447124e+00
   4.544746e+01  -1.768219e+01
   1.191045e+02   5.124220e+01
   8.384202e+01   8.161018e+01
  -6.408186e+01   9.347250e+01
  -1.936286e+02   3.711715e+01
  -1.768960e+02  -3.629562e+01
  -3.914746e+01  -7.176215e+01
   3.468123e+01  -4.697945e+01
   2.153512e+01  -5.489119e+00
  -4.535877e+01   2.296220e+01
  -6.439329e+01  -3.096651e+01
  -4.329551e+01  -1.169009e+02
   5.032279e+01  -1.618088e+02
   1.359660e+02  -6.382327e+01
   1.333726e+02   1.164465e+02
   6.935721e+00   2.016331e+02
  -1.075894e+02   1.302197e+02
  -1.052372e+02  -2.028129e+01
  -3.337099e+01  -1.920523e+02
   2.088139e+01  -9.495882e+01
   2.666934e+01  -1.301724e+01
   5.568441e+01   2.615967e+01
   2.186652e+01  -7.459045e+00
  -1.931683e+01  -1.103127e+01
  -3.651526e+00   5.407455e+01
   5.471272e+01   8.777222e+01
   3.953096e+01   1.028301e+02
  -6.730393e+01   1.551372e+01
  -1.508532e+02  -3.626879e+01
  -1.344459e+02  -6.700235e+01
  -4.302465e+01  -8.064663e+01
   8.387552e+01  -4.307303e+01
   1.011403e+02  -1.277534e+01
   3.604621e+00  -2.224851e+01
  -3.658109e+01   1.682196e+01
   1.978553e+01   2.632917e+00
   5.828314e+00   3.029427e+00
  -1.170476e+01   2.085974e+01
  -7.713914e+01   3.732047e+01
  -1.111014e+02  -1.719162e+01
  -1.823734e+01  -6.583770e+01
   1.200602e+02  -9.034986e+01
   1.914215e+02  -6.028575e+01
   1.212315e+02   1.606523e+01
   3.774270e+01   1.409297e+02
  -6.220230e+01   1.233891e+02
  -1.251646e+02   6.885583e+01
  -7.297402e+01  -4.017799e+01
   2.917849e+00  -4.810117e+01
  -1.721109e+00  -8.154094e+00
  -2.540558e+01   1.663135e+00
  -2.543995e+01  -5.500514e+01
  -2.925326e+01  -9.146234e+01
   4.749436e+01  -5.552577e+01
   7.011619e+01   4.239490e+01
   1.063522e+02   1.124036e+02
  -1.693859e-01   1.191551e+02
  -9.105583e+01   3.368262e+01
  -1.056654e+02  -6.669212e+01
  -2.629241e+01  -9.254996e+01
   8.523460e+01  -3.602957e+01
   8.958611e+01   4.214526e+01
   7.437184e+01   7.890259e+01
  -3.251107e+01   6.195756e+01
  -3.163420e+01   4.456882e+01
   4.402052e+01  -1.416871e+01
   7.014569e+01   9.003651e+00
   3.357182e+01   2.693915e+01
  -1.146966e+02   6.711685e+01
  -1.091746e+02   6.139580e+01
  -5.239528e+01  -3.651117e+00
   1.342068e+01  -8.563339e+01
   7.092994e+01  -7.052686e+01
   4.845338e+01  -2.985598e+00
  -2.249376e+01   5.735915e+01
  -2.532129e+01   4.753726e+01
  -5.826790e+01  -4.142930e+01
  -2.091684e+01  -5.458347e+01
  -6.483023e+00  -5.785512e+01
   4.539169e+01  -5.164257e+00
  -8.590789e+00   4.157642e+01
   1.859842e+01  -8.665836e+00
  -7.622018e+00   2.032408e+00
   5.219719e+00  -5.738095e+00
   2.377119e+01   2.458704e+01
   2.369985e+01   4.070044e+01
  -4.751596e+01  -1.517586e+01
  -5.130461e+01  -3.487203e+01
  -5.841990e+00  -4.440916e+01
   5.001288e+01  -3.616984e+00
   7.857664e+01  -4.994585e-01
   4.505013e+01   7.933402e+01
  -6.762597e+01   2.982050e+01
  -1.016155e+02  -3.330645e+01
  -3.310816e+01  -4.553486e+01
   3.885670e+01  -3.107265e+01
   7.187627e+01  -2.627832e+01
   2.589100e+01   1.724335e+01
  -2.081985e+01  -1.203596e+01
  -3.986267e+01  -1.036463e+01
   4.391555e+00  -3.167253e+01
   8.466529e+01  -2.588814e+01
