
 $NMID
 id='ANONYMOUS ', fmtdat='(2E16.6)'
 volume=1.0
 tramp=1.0
 $END
  -3.766138e+03   3.648810e+02
  -2.502001e+03  -2.089915e+03
   6.146355e+01  -2.357137e+03
   1.822909e+03  -1.116453e+03
   1.020236e+03   2.944837e+02
  -3.255454e+02   3.895643e+02
  -6.587737e+02  -2.232341e+02
  -7.084275e+01  -8.954094e+02
   7.751968e+02  -7.355920e+02
   8.845389e+02   4.060055e+01
   4.568874e+02   6.907368e+02
  -1.270815e+02   7.798715e+02
  -4.527695e+02   1.288117e+02
  -2.961001e+02  -5.336033e+02
   2.505253e+02  -6.393667e+02
   5.099023e+02  -5.194654e+00
   3.241761e+02   6.522165e+02
  -2.740214e+02   6.386019e+02
  -6.124218e+02   2.388006e+02
  -4.128059e+02  -3.427380e+02
  -8.212224e+01  -4.224184e+02
   1.756782e+02  -2.446263e+02
   1.482303e+02  -1.986871e+01
  -1.979692e+02   2.143509e+01
  -3.454708e+02  -1.846164e+02
  -9.830844e+01  -4.111272e+02
   4.333409e+02  -3.816579e+02
   7.383622e+02   1.057936e+02
   3.667870e+02   4.262498e+02
  -3.626603e+02   3.796568e+02
  -6.477025e+02  -5.234292e+01
  -2.697106e+02  -4.391263e+02
   2.540108e+02  -4.191475e+02
   4.711945e+02  -1.495355e+02
   3.420455e+02   2.335889e+02
   3.267181e+01   3.584387e+02
  -9.959477e+01   1.608565e+02
  -3.079951e+01  -1.396917e+02
   1.694362e+02  -2.856580e+02
   3.104898e+02   4.105466e+01
   1.470449e+02   5.370600e+02
  -2.026120e+02   5.612542e+02
  -4.256143e+02   2.853093e+01
  -2.057501e+02  -4.120315e+02
   1.999473e+02  -2.171939e+02
   3.313500e+02   3.210944e+02
  -5.024139e+01   5.311071e+02
  -4.861576e+02   1.653051e+02
  -4.625394e+02  -3.864037e+02
  -1.795608e+02  -5.123022e+02
   3.171085e+02  -3.250444e+02
   5.808413e+02   4.247828e+01
   3.577276e+02   2.713448e+02
  -7.756416e+01   2.904609e+02
  -3.834659e+02   7.534987e+01
  -2.469983e+02  -1.667717e+02
   4.065452e+01  -8.936481e+01
   1.103228e+02   1.227807e+02
  -1.538010e+02   1.618350e+02
  -3.035728e+02  -7.075461e+01
  -1.598044e+02  -2.645166e+02
   1.462961e+02  -2.619102e+02
   3.833829e+02  -1.309467e+02
   2.518692e+02   1.037141e+02
  -5.382801e+01   2.595240e+02
  -2.485444e+02   3.373526e+02
  -3.628887e+02   1.066498e+02
  -2.153710e+02  -1.732750e+02
  -3.749637e+01  -3.826628e+02
   9.224375e+01  -3.276528e+02
   5.554425e+01  -1.132967e+02
   3.951420e+01  -4.461965e+01
   7.784605e+01  -1.415896e+02
   2.121193e+02  -9.932230e+01
   2.471863e+02   1.047462e+02
   9.465910e+01   2.793644e+02
  -1.147769e+02   2.134326e+02
  -2.154569e+02  -2.398771e+01
  -2.230722e+02  -2.504555e+02
   4.695641e+01  -2.943216e+02
   2.975657e+02  -1.126221e+02
   3.612015e+02   1.605425e+02
   1.670430e+02   3.070393e+02
  -1.038990e+02   2.431049e+02
  -2.019362e+02   1.304317e+02
  -1.265436e+02   3.138367e+01
  -1.348204e+02   7.462836e+01
  -2.357885e+02   7.621616e+01
  -3.911028e+02  -3.762254e+01
  -3.201759e+02  -2.874158e+02
  -3.457047e+01  -3.717407e+02
   3.482264e+02  -4.103688e+02
   4.824361e+02  -1.493518e+02
   3.125043e+02   1.043931e+02
   7.749461e+00   2.605417e+02
  -8.359370e+01   2.007123e+02
  -1.916627e+01   1.725132e+01
   1.158984e+02  -8.148028e+01
   1.726841e+02   3.194947e+00
   2.140335e+01   1.677458e+02
  -1.414179e+02   1.901029e+02
  -1.890425e+02  -5.714463e+01
   2.669953e+01  -1.430805e+02
   1.803365e+02  -3.047335e+01
   1.876968e+02   2.340832e+02
   2.431295e+00   3.454233e+02
  -2.063844e+02   2.017213e+02
  -3.393345e+02  -5.602700e+01
  -2.564936e+02  -2.500155e+02
  -6.527212e+01  -2.684565e+02
   1.267303e+02  -1.496616e+02
   1.191423e+02   1.703638e+01
   3.101085e+01   3.358078e+01
  -6.344913e+01  -6.190965e+01
   1.590299e+01  -1.254352e+02
   1.264042e+02  -1.044549e+02
   1.843682e+02   3.274718e+01
   2.379446e+01   5.186626e+01
  -1.073276e+02  -8.585371e+00
  -5.742040e+01  -6.352603e+01
   1.366837e+02  -1.064354e+02
   2.831450e+02   2.754633e+01
   2.623723e+02   1.492264e+02
   5.836234e+01   2.599226e+02
  -1.885200e+02   2.375985e+02
  -2.616738e+02   8.086054e+01
  -1.880807e+02  -7.809539e+01
   5.994798e+01  -1.045539e+02
   1.096291e+02  -1.068146e+01
  -8.183865e+01   7.506380e+01
  -1.704822e+02   4.685484e+01
  -1.749777e+02  -9.820857e+01
  -2.333464e+01  -1.987560e+02
   9.807201e+01  -1.236830e+02
   1.087389e+02  -1.162545e+01
   2.858901e+01   3.311534e+01
  -3.255985e+01  -1.067654e+01
  -8.723057e+01  -7.226097e+01
   9.508400e+01  -9.952613e+01
   1.897155e+02  -1.705522e+01
   1.700556e+02   1.443210e+02
   1.339593e+01   1.937924e+02
  -1.728024e+02   1.276345e+02
  -1.706061e+02  -9.041256e+00
  -5.006602e+01  -1.086928e+02
   4.558293e+01  -6.434214e+01
   9.405800e+01   9.991303e+00
   6.142969e+00   1.128111e+01
  -3.889603e+01  -2.198535e+00
   2.317126e+01  -4.033732e+01
   8.658079e+01   1.926655e+01
   6.255077e+01   7.812114e+01
  -1.675073e+01   1.468373e+02
  -1.379237e+02   1.499392e+02
  -2.246435e+02   2.807271e+01
  -1.827279e+02  -1.588563e+02
  -4.341329e+01  -2.319828e+02
   1.096141e+02  -1.676493e+02
   1.344221e+02  -3.137217e+01
   8.527029e+01   1.506813e+01
   1.330605e+01   4.496034e+01
   5.034442e+01  -1.847961e+01
   7.908328e+01   5.479206e+00
   4.839200e+01   5.220543e+01
  -2.918436e+01   1.017089e+02
  -6.790643e+01   4.767172e+01
  -9.149883e+01  -3.352361e+01
  -3.865708e+00  -1.041074e+02
   1.136232e+02  -6.639497e+01
   1.698988e+02   4.220328e+01
   1.199837e+02   2.151193e+02
  -1.123018e+02   2.043770e+02
  -2.604181e+02   6.992496e+01
  -2.286256e+02  -6.675975e+01
  -1.239760e+02  -1.837766e+02
   4.633861e+01  -1.415998e+02
   1.069786e+02  -8.133224e+01
   6.728445e+01  -3.913956e+01
   3.918563e+01  -7.800865e+01
   4.225261e+01  -5.235866e+01
   1.107130e+02   2.385632e+01
   1.298155e+02   1.317618e+02
   5.135926e+01   2.210407e+02
  -6.178428e+01   1.729958e+02
  -1.521561e+02   2.774232e+01
  -1.542577e+02  -1.081796e+02
  -1.846195e+01  -1.513357e+02
   7.508539e+01  -8.135630e+01
   5.896967e+01   2.801664e+01
   6.653889e+00   4.451175e+01
  -2.239049e+01   2.412714e+01
   1.251988e+01   9.376301e+00
   4.720206e+01  -2.135915e+01
   5.192918e+01   4.007370e+01
  -4.372278e+01   4.111256e+01
  -1.661282e+02  -1.757814e+01
  -1.375998e+02  -6.483381e+01
  -5.983690e+00  -9.201703e+01
   1.446696e+02  -9.295124e+01
   1.518492e+02  -2.073436e+01
   1.464793e+01   5.236942e+01
  -8.906989e+01   3.974066e+01
  -6.889163e+01  -9.597987e-01
  -1.206935e+01  -8.397603e+01
   3.694968e+01  -1.096324e+02
   3.865116e+01  -1.770635e+01
   3.387991e+01   8.057920e+01
   2.926635e+01   6.245990e+01
   5.117864e+01  -2.519576e+01
   6.351521e+01   1.490553e+01
   1.134464e+01   7.592515e+01
  -2.557724e+01   1.382302e+02
  -1.445725e+02   1.513288e+02
  -1.814572e+02  -1.067357e-01
  -1.147374e+02  -8.611551e+01
   9.290782e+00  -1.003592e+02
   1.086124e+02  -3.979748e+01
   4.809208e+01   3.045272e+01
  -4.901440e+01   5.109276e+00
  -1.337847e+02  -5.846637e+01
  -6.565471e+01  -9.113617e+01
   8.929380e+01  -1.243676e+02
   1.784497e+02  -2.517526e+01
   1.494947e+02   1.816232e+01
   2.784602e+01   1.056690e+02
  -4.070056e+01   4.233676e+01
  -3.244282e+01  -1.535083e+01
   5.012044e+01  -4.346097e+01
   8.528278e+01   3.773062e+01
   3.652862e+01   8.996407e+01
  -6.379707e+01   1.381291e+02
  -1.861110e+02   2.381108e+01
  -1.359160e+02  -1.208923e+02
  -4.192334e+00  -1.735697e+02
   5.785533e+01  -1.355910e+02
   1.204103e+02   2.788845e+01
   2.642442e+01   1.256965e+02
  -2.187187e+01   1.039013e+02
  -4.911333e+01   2.869101e+01
  -4.951571e+01  -3.537409e+01
   1.294304e+01   2.903413e+00
  -1.552146e+01   1.987972e+01
  -9.590647e+00  -2.023787e+01
  -2.940842e+01  -8.396846e+01
  -4.358976e+00  -9.818684e+01
   4.387926e+01  -1.339987e+01
   9.674778e+01   6.999404e+01
   1.093311e+02   7.681949e+01
   1.688897e+01   6.067031e+01
  -1.011225e+02   1.414421e+01
  -9.044738e+01  -1.882482e+00
  -1.856320e+01  -9.534023e+00
   3.665460e+01  -3.207473e+01
  -4.249052e+00  -7.844220e+00
  -5.010137e+00   1.922960e+01
   2.486391e+01   2.506128e+01
   4.533091e+01   4.158158e+00
   6.027366e+01   2.203894e+01
   1.804578e+00   1.137938e+02
  -1.452066e+02   1.242095e+02
  -2.210772e+02   6.979526e+01
  -1.540418e+02  -7.828336e+01
  -1.030903e+01  -1.534379e+02
   9.704835e+01  -1.699345e+02
   8.463669e+01  -6.553848e+01
   1.088813e+02  -1.025357e+01
   3.549183e+01   5.078803e+01
  -1.479395e+00   4.938422e+00
   4.711331e+00   1.209345e+01
   2.801287e+01   4.012745e+01
   4.977777e+00   6.252227e+01
  -5.240963e+01   5.280351e+01
  -6.458511e+01  -4.888644e+01
  -6.884053e+01  -1.319091e+02
  -2.681893e+01  -9.101571e+01
   8.768744e+01  -3.645395e+01
   1.036597e+02   7.374284e+01
   4.129482e+01   7.599499e+01
  -1.161051e+02   8.645363e+01
  -1.036523e+02  -3.354845e+00
  -3.902101e+01  -3.666691e+01
   4.207334e+01  -5.684181e+01
   3.324328e+01  -1.550051e+01
  -4.158896e+01  -3.233442e+00
  -7.187957e+01   3.852181e+00
  -1.654341e+01  -2.268542e+01
   6.299615e+01  -7.824140e+01
   8.608784e+01  -3.503374e+01
   6.436576e+01  -3.010297e+00
   6.665265e+00   6.840641e+01
  -5.510228e+01   6.386117e+01
  -2.258621e+01   9.346082e+00
  -2.999321e+01  -5.520690e+01
   1.770582e+00  -3.817935e+01
   1.305662e+01   5.053243e+00
   4.231720e+01   2.027869e+01
   1.199837e+01   2.159003e+01
  -2.339303e+01   2.718323e+01
  -4.995639e+01  -4.408420e+01
  -2.573710e+01  -2.572640e+01
   4.320424e+01  -5.132069e+00
   4.731803e+00   1.824393e+01
   5.691918e+00  -2.239280e+01
  -1.248896e+01  -4.493957e+01
   8.960303e+00  -2.183845e+01
   2.786146e+01   2.029446e+01
   1.315844e+01   7.475607e+01
  -3.679099e+01   2.871775e+01
  -2.620389e+01  -4.563423e+01
  -1.367035e+01  -4.314779e+01
   2.982112e+01  -5.972905e+01
   1.043259e+02   1.175485e+01
   6.434133e+01   5.317452e+01
  -3.391448e+01   6.236116e+01
  -6.820180e+01   3.083879e+01
  -1.688914e+01  -1.037002e+01
   1.976891e+01  -3.008631e+01
   5.794853e+01   1.571332e+01
  -3.516991e+01   3.518086e+01
  -1.004370e+02   1.099737e+00
