
 $NMID
 id='ANONYMOUS ', fmtdat='(2E16.6)'
 volume=1.0
 tramp=1.0
 $END
   3.128107e+03  -9.883265e+01
   1.744290e+03   1.950887e+03
  -6.781547e+02   1.886916e+03
  -1.409957e+03   7.500789e+02
  -6.327050e+02  -2.293391e+02
   4.027331e+02  -2.562968e+02
   4.725599e+02   2.960258e+02
  -9.147589e+01   7.243305e+02
  -6.517009e+02   4.962729e+02
  -6.264183e+02  -4.747334e+01
  -3.625318e+02  -5.924736e+02
   9.636963e+01  -6.328645e+02
   3.785652e+02  -6.757917e+01
   1.893521e+02   4.817974e+02
  -2.362342e+02   5.037616e+02
  -3.819882e+02  -1.026545e+01
  -2.180316e+02  -5.108877e+02
   2.093553e+02  -5.498967e+02
   4.589743e+02  -3.379205e+01
   2.991018e+02   2.491851e+02
   2.140020e+01   3.499816e+02
  -1.886294e+02   1.467411e+02
  -1.429755e+02  -2.204248e+01
   1.850977e+02   2.288674e+01
   2.498486e+02   2.726507e+02
   9.201501e+01   4.037892e+02
  -4.287918e+02   2.749233e+02
  -6.029550e+02  -6.860813e+01
  -2.844286e+02  -4.356756e+02
   3.617575e+02  -2.648198e+02
   5.397457e+02   1.179011e+02
   1.634144e+02   3.898747e+02
  -2.389178e+02   3.895242e+02
  -4.492318e+02   1.107950e+02
  -2.608573e+02  -2.219419e+02
  -4.483006e+01  -3.268520e+02
   1.229571e+02  -1.519466e+02
   5.704861e+01   1.582091e+02
  -1.894625e+02   2.566230e+02
  -2.995294e+02  -1.137490e+02
  -1.115462e+02  -4.951445e+02
   2.250967e+02  -4.582081e+02
   4.093699e+02   2.195588e+00
   1.559512e+02   4.247384e+02
  -1.784153e+02   1.921078e+02
  -2.378800e+02  -1.832928e+02
   7.775788e+01  -3.992324e+02
   4.398919e+02  -7.819319e+01
   3.876752e+02   3.136482e+02
   1.045472e+02   4.327705e+02
  -3.078908e+02   3.171901e+02
  -4.808495e+02  -9.459266e+01
  -2.696386e+02  -2.999935e+02
   1.409302e+02  -2.229535e+02
   3.286458e+02  -1.208955e+01
   1.764425e+02   1.259289e+02
  -1.072483e+02   8.156592e+01
  -8.434847e+01  -1.022394e+02
   1.114475e+02  -1.469644e+02
   2.378728e+02   5.691106e+01
   1.110792e+02   2.031042e+02
  -1.645314e+02   1.960901e+02
  -2.862008e+02   8.668070e+01
  -1.703567e+02  -1.152969e+02
   4.020689e+01  -2.141707e+02
   2.687563e+02  -2.747195e+02
   2.890530e+02  -1.438509e+02
   2.187481e+02   1.522596e+02
   2.217731e+01   3.171504e+02
  -6.188792e+01   2.616829e+02
  -2.794014e+01   8.578918e+01
  -1.567165e+01   2.102335e+01
  -4.469510e+01   5.787664e+01
  -1.471800e+02   9.696023e+01
  -2.449366e+02  -3.507117e+01
  -1.138319e+02  -2.287526e+02
   1.215255e+02  -1.682452e+02
   1.855977e+02   2.080281e+01
   1.403984e+02   2.466662e+02
  -6.357605e+01   2.293010e+02
  -2.389147e+02   7.831589e+01
  -2.509611e+02  -1.273995e+02
  -1.616991e+02  -2.635639e+02
   5.509499e+01  -2.403615e+02
   1.664386e+02  -1.012602e+02
   8.408675e+01  -5.492670e+01
   1.215436e+02  -7.243118e+01
   2.177545e+02  -6.813802e+01
   3.457126e+02   8.561444e+01
   2.232947e+02   2.401666e+02
  -2.993358e+01   3.367240e+02
  -2.983052e+02   3.016652e+02
  -3.971108e+02   1.558189e+02
  -2.513489e+02  -8.716784e+01
  -2.614005e+01  -2.358280e+02
   1.026753e+02  -1.973559e+02
   1.478694e+01  -3.218964e+01
  -1.042142e+02   7.050916e+01
  -1.346733e+02  -1.646806e+01
  -4.492610e+01  -1.186913e+02
   7.667759e+01  -1.395863e+02
   1.296658e+02   5.610494e+01
   4.353243e+00   1.238794e+02
  -1.638759e+02   7.644424e+00
  -1.517924e+02  -1.930507e+02
   5.425310e+00  -2.801671e+02
   1.901088e+02  -1.605176e+02
   2.848485e+02   6.038181e+01
   2.225118e+02   2.089353e+02
   5.528310e+01   2.217286e+02
  -8.654117e+01   1.298449e+02
  -1.096760e+02  -8.730261e+00
  -2.785520e+01  -1.324896e+01
   3.352527e+01   1.678546e+01
  -2.287457e+01   9.988102e+01
  -1.057204e+02   8.947803e+01
  -1.422814e+02  -8.657957e-01
  -1.456694e+01  -6.019597e+01
   6.382758e+01  -9.254600e+00
   4.730178e+01   8.954215e+01
  -1.461404e+02   6.048824e+01
  -2.146310e+02  -6.661134e+00
  -1.917951e+02  -1.395140e+02
  -1.574585e+01  -2.418286e+02
   1.479368e+02  -1.731523e+02
   2.263712e+02  -9.063698e+01
   1.116795e+02   4.947295e+01
  -3.908338e+01   1.009018e+02
  -7.176895e+01   3.046103e+01
   5.378056e+00  -9.155147e+01
   1.367870e+02  -6.363371e+01
   1.819764e+02   7.345449e+01
   8.137802e+01   1.442696e+02
  -7.710419e+01   1.133740e+02
  -1.213550e+02   1.624032e+01
  -5.445695e+01  -5.758747e+01
   2.485826e+01  -2.115250e+01
   6.086503e+00   9.805144e+01
  -8.435992e+01   1.075433e+02
  -1.696974e+02   6.951287e+01
  -1.316026e+02  -6.714814e+01
   1.581733e+01  -1.837797e+02
   1.242906e+02  -1.383630e+02
   1.354705e+02   6.856945e+00
   5.877608e+01   1.104622e+02
  -8.303081e+01   8.514290e+01
  -7.057095e+01   2.945651e+01
   2.231510e+01  -3.436818e+01
   5.005779e+01  -2.660562e+01
   9.685106e+00   3.357556e+00
  -4.748477e+01  -7.687047e+00
  -6.080457e+01  -9.363449e+01
  -2.053188e+01  -1.233683e+02
   1.206556e+02  -1.302682e+02
   2.076054e+02   3.673399e-01
   1.364784e+02   1.084672e+02
   1.756984e+01   1.785010e+02
  -1.012711e+02   1.350653e+02
  -1.213090e+02   2.008740e+01
  -1.200148e+01  -5.742943e+01
  -1.831278e+00   1.798420e+01
  -9.577483e+00   3.599457e+01
  -8.387600e+01   7.486313e+00
  -3.549488e+01  -5.180375e+01
   2.383867e+01  -8.801098e+01
   7.288025e+01  -5.596369e+01
   7.188987e+01   4.039176e+01
  -1.974518e+01   1.131173e+02
  -1.482906e+02   7.905049e+01
  -1.825417e+02  -6.170049e+01
  -7.694104e+01  -1.640185e+02
   7.094575e+01  -1.945311e+02
   1.939866e+02  -1.028415e+02
   1.954654e+02   6.781776e+01
   9.232861e+01   1.641311e+02
  -2.966530e+01   1.519059e+02
  -1.161880e+02   4.013621e+01
  -5.972960e+01   1.249718e+01
  -4.939636e+01   8.330955e+01
  -9.481535e+01   5.542608e+01
  -1.178372e+02  -1.324287e+01
  -1.036205e+02  -1.402772e+02
  -7.615258e+00  -2.041985e+02
   7.919613e+01  -1.411195e+02
   1.965373e+02  -1.265791e+01
   7.731168e+01   1.050092e+02
   1.700435e+00   1.288955e+02
  -7.187468e+01   7.669064e+01
  -8.833669e+01  -4.981970e+00
  -5.227898e+00  -3.162518e+01
   1.652830e+01  -4.945533e+01
   1.321407e+00   1.230764e+01
  -8.685813e+01  -4.561101e+00
  -3.213008e+01  -2.294910e+01
   4.643289e+01  -1.598301e+01
   1.458462e+02   8.278083e+00
   1.170023e+02   5.742540e+01
  -1.559787e+01   8.370647e+01
  -1.039467e+02   6.900567e+01
  -1.149569e+02  -1.589730e+01
  -4.179078e+01  -4.987365e+01
   5.898802e+01  -4.125824e+01
   6.597001e+01  -1.599974e+01
  -2.344855e+01   7.734523e+01
  -4.778002e+01   8.249298e+01
  -7.655026e+01   1.270653e+01
  -3.381458e+01  -5.701557e+01
  -3.333552e+01  -3.428880e+01
  -1.668393e+01   1.713504e+01
  -4.558661e+01  -2.401863e+01
  -3.644368e+01  -4.102437e+01
   2.693080e+01  -1.054651e+02
   1.009111e+02  -9.013301e+01
   1.448233e+02  -1.833113e+01
   1.021652e+02   8.333870e+01
  -1.516171e+01   8.986784e+01
  -6.405993e+01   5.217413e+01
  -7.003351e+01  -5.560237e+00
   4.055270e+01  -4.801911e+00
   7.551467e+01   5.676694e+01
   4.862808e+01   9.779536e+01
  -6.861605e+01   8.104535e+01
  -1.235753e+02   2.697108e+01
  -1.182751e+02  -4.432981e+01
  -2.304660e+01  -8.785272e+01
   5.733631e+01  -2.091742e+01
   3.735260e+01  -3.725763e-01
  -6.556050e+01   2.147014e+01
  -7.660943e+01  -5.479221e+00
  -2.218724e+01  -9.705036e+01
   6.890134e+01  -8.029197e+01
   1.345436e+02  -5.108255e+01
   1.036392e+02   7.610642e+01
  -8.021960e+00   1.511984e+02
  -1.084839e+02   7.314485e+01
  -1.114818e+02   5.411089e+00
  -4.494434e+01  -1.219731e+02
   1.272388e+01  -8.611873e+01
   4.002821e+01  -4.176422e+00
   5.915984e+01   2.975114e+01
   1.803994e+01  -6.921045e+00
  -1.544855e+01   1.634975e+01
  -7.437050e-01  -4.331021e+00
   4.159491e+01   6.189480e+01
   2.476032e+01   8.251948e+01
  -3.495217e+01   1.416355e+01
  -8.765485e+01  -3.727091e+01
  -1.220760e+02  -7.331923e+01
  -6.508189e+00  -3.545959e+01
   1.075302e+02  -2.604029e+01
   5.340738e+01  -7.417792e+00
   1.273798e+01   2.037580e+01
  -4.758818e+01   2.548771e+01
  -3.837477e+00  -3.191525e+00
   5.719363e+00  -1.556291e+01
  -3.281048e+00  -1.116575e+01
  -4.889129e+01  -1.248471e+01
  -5.751556e+01  -1.834749e+01
  -1.778877e+01  -9.502556e+01
   1.096074e+02  -1.040370e+02
   1.487168e+02  -5.164451e+01
   1.241893e+02   3.926482e+01
  -1.211520e+01   9.302270e+01
  -8.676241e+01   1.359870e+02
  -1.000320e+02   4.509561e+01
  -5.621322e+01  -4.355968e+01
   1.525809e+01  -4.892581e+01
  -1.307667e+01   1.016822e+01
  -8.473606e+00   1.187077e+01
  -3.667646e+01  -3.994966e+00
  -1.776681e+01  -9.562811e+01
  -3.224170e+00  -5.530944e+01
   5.519963e+01   3.043236e+01
   3.240628e+01   6.630033e+01
   2.648918e+01   7.992488e+01
  -6.789911e+01   2.763279e+01
  -6.868561e+01  -4.515695e+01
  -1.817461e+01  -8.024753e+01
   3.795067e+01  -5.559035e+01
   5.936114e+01  -1.647824e+01
   5.068680e+01   5.893351e+01
  -5.368152e+01   7.808481e+01
  -4.150298e+01   1.649635e+01
   7.045569e-01   3.163655e+00
   5.212638e+01   1.775619e+01
   3.002714e+01   3.250449e+01
  -7.068221e+01   2.277836e+01
  -8.403662e+01   6.047670e+01
  -4.681484e+01  -1.285427e+01
   2.549773e+00  -5.224564e+01
   4.223831e+01  -4.065881e+01
   4.028030e+00   9.913512e+00
  -1.300865e+00   3.810618e+01
  -2.781682e+01   2.295729e+01
  -2.988213e+01  -4.221477e+01
   1.261088e+01  -4.241904e+01
   4.294124e+01  -9.817738e+00
   1.943385e+01  -4.582530e+00
   1.918462e+01   2.974467e+01
   1.296506e+01   7.963214e+00
  -8.409074e+00   8.503395e+00
  -1.389612e+01   2.813516e+00
   3.626043e+01   3.061607e+01
  -5.063276e+00   3.235338e+01
  -6.059443e+01   3.149431e+01
  -2.448457e+01  -3.296066e+01
  -1.626796e+01  -6.011087e+01
   3.547980e+01   2.066904e+00
   6.095939e+01   8.417355e+00
  -3.985772e+00   4.467355e+01
  -3.699562e+01   1.401615e+01
  -3.474966e+01   2.181401e+01
  -1.511480e+01  -3.654435e+01
   8.691058e+00  -4.173368e+01
   5.996897e+01   6.933563e+00
   1.630646e+01  -8.745620e+00
  -4.869914e+01   1.757288e+01
  -2.212726e+01  -8.652988e+00
   3.293983e+01  -3.988823e+01
   5.006344e+01  -2.714541e+01
