
 $NMID
 id='ANONYMOUS ', fmtdat='(2E16.6)'
 volume=1.0
 tramp=1.0
 $END
  -1.359604e+03   3.180787e+02
  -7.958861e+02  -6.684110e+02
  -1.064083e+02  -8.066231e+02
   3.732071e+02  -7.235500e+02
   3.076928e+02  -3.680047e+02
   5.754759e+01  -4.295708e+01
  -1.255392e+01  -7.475407e+01
   7.064793e+01  -1.637385e+02
   1.022353e+02  -8.340339e+01
   1.958462e+02  -3.350596e+01
   1.658952e+02   1.446377e+02
   3.639168e+01   2.210842e+02
  -1.139162e+02   3.131313e+01
  -6.813034e+01  -2.300747e+02
   4.216483e+01  -1.795082e+02
   1.472181e+02   4.926192e+01
   1.155387e+02   2.320364e+02
  -7.400933e+01   2.583950e+02
  -2.366491e+02   1.406845e+02
  -1.831233e+02  -8.457246e+01
  -5.044052e+01  -1.495398e+02
   1.161357e+01  -7.034831e+01
  -3.577725e+01  -3.087331e+01
  -1.290632e+02  -9.322880e+01
  -9.940477e+01  -1.707534e+02
   8.535173e+01  -1.985463e+02
   2.519021e+02  -5.519358e+01
   2.056840e+02   1.534975e+02
  -3.652850e+00   1.815554e+02
  -2.336305e+02   3.376288e+01
  -2.062457e+02  -1.410557e+02
  -4.354471e+01  -2.002035e+02
   1.424789e+02  -1.435364e+02
   2.031260e+02  -7.857024e+01
   1.592403e+02   8.738205e+01
   1.269888e+01   1.678987e+02
   6.730026e+01   6.103242e+01
   8.156067e+01  -2.154147e+01
   9.828910e+01  -1.257889e+01
   4.766712e+01   1.552824e+02
  -9.254185e+00   2.113799e+02
  -1.259192e+02   1.410329e+02
  -1.110673e+02  -2.142634e+01
  -1.428352e+01  -6.660487e+01
   6.866253e+01   2.390402e+01
   5.882171e+01   1.982400e+02
  -5.383936e+01   2.019396e+02
  -2.261643e+02  -1.164141e+01
  -2.124661e+02  -1.719349e+02
  -7.377232e+01  -2.440122e+02
   1.290841e+02  -1.297160e+02
   2.337232e+02   2.747795e+01
   1.224366e+02   9.561900e+01
  -1.689586e+01   3.737003e+01
  -6.079444e+01   4.632671e+01
  -5.386021e+01   5.333243e+00
  -3.340334e+01   2.062972e+01
   2.716754e+00   9.068493e+00
  -7.214209e+01  -5.929016e+01
  -6.248368e+01  -4.597762e+01
  -4.312697e+01  -5.465905e+01
   7.801290e+01  -1.225930e+02
   1.539722e+02  -6.382168e+01
   1.048036e+02   6.958248e+01
  -2.442670e+01   1.416223e+02
  -1.629342e+02   2.077657e+02
  -1.815125e+02   8.019661e+01
  -1.001066e+02  -6.430493e+01
  -4.056271e+01  -1.611435e+02
  -3.031363e+01  -1.646614e+02
   1.612298e+01  -1.203592e+02
   1.021988e+01  -1.082095e+02
   8.194056e+01  -4.484198e+01
   1.664531e+02  -1.138985e+01
   1.148716e+02   1.257158e+02
   3.044526e+01   1.342438e+02
  -1.100262e+02   8.763549e+01
  -1.053747e+02  -7.379874e+01
  -3.011255e+01  -1.396967e+02
   7.171724e+01  -1.327513e+02
   1.705715e+02  -1.265413e+01
   1.374715e+02   8.444713e+01
   8.517157e+01   1.354473e+02
  -6.784049e+00   1.335306e+02
  -7.991084e+01   8.467056e+01
  -5.852412e+01   8.001829e+01
  -7.138129e+01   7.668489e+01
  -1.651194e+02   1.958632e+01
  -2.401164e+02  -6.853607e+01
  -1.589687e+02  -1.771950e+02
   8.667748e+01  -2.292797e+02
   1.832298e+02  -2.044324e+02
   2.763743e+02  -5.906785e+01
   1.276298e+02   8.053077e+01
   2.613566e+01   1.620434e+02
  -2.169674e+01   6.366315e+01
  -1.383165e+01   1.734403e+01
   8.079119e+01  -3.760234e+01
   2.141783e+01   1.689031e+01
  -4.410054e+01   5.358818e+01
  -9.245089e+01   1.836407e+01
  -6.863952e+01  -5.196488e+01
   6.330871e+01  -7.774550e+01
   8.950650e+01   1.236217e+01
   8.952353e+01   1.434720e+02
  -1.776017e+01   1.649231e+02
  -1.639194e+02   9.877786e+01
  -2.243979e+02  -3.030337e+01
  -1.190769e+02  -1.582562e+02
  -8.168596e+00  -1.246239e+02
   5.573155e+01  -3.807630e+01
   4.039120e+01  -1.576153e+00
   4.533072e+00   1.343200e+01
  -5.438179e+01  -4.602009e+01
   2.380844e+01  -7.115881e+01
   8.905465e+01  -1.741987e+01
   9.680633e+01   6.292743e+01
  -1.931088e+01   2.816020e+01
  -7.644856e+01  -3.491600e+01
   1.157020e+01  -6.874913e+01
   8.872915e+01  -6.987962e+01
   1.847434e+02   1.457140e+01
   1.649536e+02   1.096535e+02
  -2.943747e+01   1.711330e+02
  -1.033980e+02   8.166336e+01
  -1.471979e+02  -1.024382e-01
  -3.495243e+01  -4.605441e+01
   2.335962e+01  -5.198129e+01
   3.303206e+01   2.774747e+01
  -3.996470e+01   6.290138e+01
  -1.107474e+02  -2.740069e-02
  -1.060741e+02  -7.117343e+01
  -1.739538e+00  -9.836152e+01
   4.922537e+01  -8.436122e+01
   4.488174e+01  -8.330400e+00
  -7.583613e+00   1.943060e+01
  -8.284795e+01  -2.906265e+01
  -2.469707e+01  -7.537884e+01
   9.052757e+01  -9.125586e+01
   1.484763e+02  -4.131537e+00
   1.003172e+02   1.084429e+02
   4.503255e+00   1.268311e+02
  -9.894776e+01   4.973531e+01
  -1.045819e+02  -2.659828e+01
  -2.663191e+01  -4.955254e+01
   2.674199e+01  -1.768754e+01
   3.193362e+01   9.818198e+00
  -4.207682e+01   1.009997e+01
  -3.328387e+01  -1.764028e+00
   2.317029e+01  -3.718151e+01
   5.407493e+01   2.344855e+01
   7.554974e+01   7.706465e+01
   1.074404e+01   1.087827e+02
  -8.359941e+01   7.294307e+01
  -1.573796e+02   2.116593e+00
  -9.536680e+01  -8.270909e+01
  -8.802819e+00  -1.068906e+02
   5.647417e+01  -9.499684e+01
   5.053621e+01  -1.793051e+01
   4.483373e+01   1.818165e+01
   2.774222e+01  -1.013807e+01
   2.628625e+01  -4.466329e+01
   2.029113e+01   7.115547e-02
   4.424662e+01   5.604465e+01
  -5.357728e+01   2.826689e+01
  -4.203630e+01   2.125439e+01
  -5.439955e+01  -2.109078e+01
   3.433498e+01  -8.062283e+01
   1.151412e+02  -3.033183e+01
   1.016870e+02   3.149755e+01
   1.998641e+01   1.004315e+02
  -5.262067e+01   1.019427e+02
  -1.125877e+02   2.751345e+01
  -1.190783e+02  -3.077146e+01
  -7.435109e+01  -6.154716e+01
   3.194680e+01  -9.198249e+01
  -7.526931e+00  -3.999936e+01
   3.573028e+01  -4.232719e+01
   4.511438e+01  -4.646154e+01
   2.933392e+01  -4.148993e+01
   1.041088e+02   3.039639e+01
   7.211694e+01   9.711017e+01
   1.384341e+01   8.466336e+01
  -8.332616e+01   3.181161e+01
  -4.399030e+01  -5.218850e+01
  -5.712121e+01  -8.318694e+01
   2.567571e+01  -8.562334e+01
   3.207903e+01  -5.207189e+01
   3.821231e+01   2.492467e+01
  -2.681194e+01   1.937721e+01
  -3.620784e+01  -1.305287e+01
  -9.037667e+00   1.476516e+01
   1.817828e+01  -5.800783e+00
   1.569554e+01   2.102460e+01
  -5.947291e+01   3.314344e+01
  -1.128489e+02  -7.399000e+00
  -8.605309e+01  -3.772125e+01
  -3.716227e+00  -5.927171e+01
   4.518008e+01  -4.579109e+01
   6.810609e+01  -1.504645e+01
   1.602392e+01   1.860381e+01
  -2.192436e+01   4.509180e+01
  -2.720108e+01  -1.369572e+01
  -3.542749e+01  -2.758441e+01
   2.546804e+01  -3.712180e+01
   2.983937e+01   9.721205e+00
   4.155814e+01   9.064082e+00
   4.841939e+01   8.873193e+00
   5.394347e+01  -9.776891e+00
   2.580764e+01  -5.099176e-01
   2.849342e+01   5.088739e+01
  -2.541478e+01   9.246249e+01
  -7.917006e+01   4.847385e+01
  -6.484493e+01   1.784345e+01
  -9.641104e+01  -7.653818e+01
  -1.492934e+01  -7.061886e+01
   4.173088e+01  -2.989472e+01
   3.237262e+01   1.776092e+01
  -2.760574e+01   4.101774e+01
  -5.640836e+01  -3.530426e+01
  -5.901398e+01  -4.139678e+01
   3.920034e+01  -8.463650e+01
   7.557062e+01  -3.240168e+01
   5.541320e+01   4.202420e+01
   3.271756e+01   5.173096e+01
  -3.667851e+01   5.441234e+01
  -2.635434e+01  -1.201585e+01
   1.204059e+01   2.561580e+01
   4.036377e+01   1.864037e+01
  -9.985071e+00   4.945698e+01
  -3.161810e+01   6.811313e+01
  -9.438715e+01   4.123888e+01
  -6.819316e+01  -4.241493e+01
  -9.606406e+00  -1.057337e+02
   4.258688e+01  -7.462875e+01
   5.822843e+01  -1.052961e+01
   2.204913e+01   6.791934e+01
   1.908598e+01   6.700641e+01
  -3.351896e+01   7.019046e+00
   1.237134e+01   2.395399e+01
  -1.704815e+00   2.131975e+01
  -1.129603e+01  -1.379913e+01
  -6.897128e+00  -1.596406e+01
  -3.253627e+01  -1.656908e+01
  -2.338074e-01  -4.749995e+01
   4.884227e+01   9.458647e-02
   6.875617e+01   3.263316e+01
   5.357133e+01   5.592633e+01
   2.001838e+00   1.007581e+01
  -2.581443e+01  -4.129421e+00
  -4.927925e+01   2.336430e+01
  -4.605333e+01  -3.474656e+00
   8.317862e+00  -9.482887e+00
  -4.514023e-01  -1.956541e+01
  -2.782910e+00   9.500499e+00
  -1.313034e+01   9.061534e+00
   2.749981e+01  -1.268493e+01
   5.716641e+01   3.983456e+00
  -8.812298e-01   2.271996e+01
  -8.407748e+01   7.338617e+01
  -9.448325e+01   4.551769e+01
  -7.572175e+01  -2.256492e+01
  -6.301231e+00  -1.008886e+02
   6.436942e+01  -8.486766e+01
   5.500969e+01  -2.577725e+01
   1.430006e+01   2.175330e+01
   2.705638e+01   1.545849e+01
  -1.202999e+01   1.593039e+01
   8.604113e+00   8.346514e+00
   9.776877e+00   6.373343e+01
  -1.739313e+00   4.214177e+01
  -4.547537e+00   2.103530e+01
  -3.587648e+01  -6.912652e+01
  -4.479312e+01  -5.056307e+01
  -1.098458e+00  -1.052261e+01
   2.381555e+01   2.217073e+01
   3.571913e+01   3.075764e+01
  -1.250262e+01   3.872201e+01
  -4.133041e+01   3.622796e+01
  -2.462402e+01   5.089898e+00
  -1.297440e+01  -7.187105e+00
   1.348888e+01  -1.773112e+01
   5.293978e+01   6.407821e+00
  -2.453554e+01   1.738815e+01
  -2.128320e+01  -1.011007e+01
  -3.835661e+01  -2.182999e+00
   7.501982e+01  -2.743310e+01
   6.990426e+01  -1.743306e+01
   1.777699e+01   8.780530e+00
  -9.383107e+00   4.463569e+01
  -4.231686e+01   4.400607e+01
  -2.815910e+01   1.130082e+01
   1.392999e+01  -2.491048e+01
   8.057324e+00  -2.094619e+01
   2.909893e+01   2.638004e+01
  -3.162640e+01   5.501102e+01
   1.682454e+01   5.942040e+00
  -1.596600e+01   1.228399e+01
  -1.412174e+01  -2.416447e+01
  -2.060343e+01  -2.756998e+01
  -2.660160e+01  -7.872510e+00
   3.604509e+00  -1.420190e+01
  -5.932462e+00  -5.026380e+01
   8.545189e+00  -2.405179e+01
   1.806059e+01   1.390886e+01
   1.246951e+01   1.905144e+01
   2.789179e+00   3.876857e+01
  -5.121785e+01   4.099229e+01
  -4.044427e+01  -4.294424e+01
   2.866383e+01  -5.087624e+01
   3.616247e+01  -9.277421e+00
   5.204338e+01  -1.890208e+01
   4.175139e+01   3.159199e+01
  -3.272005e+01   2.130754e+01
  -1.989620e+01   1.109969e+01
   2.106301e+00  -6.425699e+00
  -2.139210e+00  -1.742777e+01
  -2.068125e+00   1.453183e+01
  -2.608203e+01   2.111112e+01
  -4.667490e+01   5.691482e+00
