
 $NMID
 id='ANONYMOUS ', fmtdat='(2E16.6)'
 volume=1.0
 tramp=1.0
 $END
  -2.142093e+03   3.237134e+02
  -1.481469e+03  -1.092059e+03
  -5.865062e+01  -1.484485e+03
   8.542123e+02  -9.139907e+02
   7.859972e+02  -1.639269e+02
   5.245979e+01   2.424942e+02
  -2.831942e+02  -1.259715e+02
  -5.344186e+01  -4.564854e+02
   2.487494e+02  -4.409056e+02
   4.657462e+02  -2.692349e+01
   2.847674e+02   4.007942e+02
  -9.101231e+00   3.755802e+02
  -2.226902e+02   9.349848e+01
  -1.703222e+02  -3.095492e+02
   9.195943e+01  -3.379479e+02
   2.653312e+02  -2.219864e+01
   2.453738e+02   3.696340e+02
  -7.601037e+01   4.645660e+02
  -3.487468e+02   1.508472e+02
  -3.187159e+02  -1.119920e+02
  -8.781415e+01  -2.592896e+02
   7.337433e+01  -1.916349e+02
  -3.611980e+00  -1.921944e+01
  -1.652836e+02  -9.014810e+01
  -2.068246e+02  -2.344254e+02
   6.454303e+01  -2.295717e+02
   3.120164e+02  -1.011085e+02
   3.945855e+02   1.387857e+02
   9.399419e+01   2.159946e+02
  -1.986137e+02   8.715200e+01
  -3.594478e+02  -1.251679e+02
  -1.377030e+02  -2.312252e+02
   1.679610e+02  -2.205028e+02
   3.020272e+02  -1.049789e+02
   2.350481e+02   1.012320e+02
  -2.491202e+00   2.176520e+02
   9.051560e-01   1.202329e+02
   4.795157e+01  -8.689735e+01
   7.869972e+01  -1.147834e+02
   1.541029e+02   6.490132e+01
   3.508783e+01   3.141159e+02
  -1.176114e+02   2.905828e+02
  -2.239697e+02   2.694793e+01
  -8.596186e+01  -2.159716e+02
   1.339242e+02  -1.275141e+02
   1.164739e+02   1.938207e+02
  -7.505074e+01   2.543149e+02
  -3.391109e+02   8.110377e+01
  -3.273504e+02  -2.590098e+02
  -1.319154e+02  -3.017416e+02
   2.347484e+02  -1.847185e+02
   3.308657e+02   5.131731e+01
   2.116364e+02   1.508769e+02
  -6.092672e+01   1.488759e+02
  -2.132518e+02   2.739559e+01
  -1.202961e+02  -1.098698e+01
  -2.785139e+01  -3.539307e+01
   5.419161e+01   5.094491e+01
  -1.834102e+01   2.510450e+01
  -1.045567e+02  -3.528188e+01
  -1.155056e+02  -1.131555e+02
   9.733131e+01  -2.310863e+02
   2.665884e+02  -1.292183e+02
   1.741163e+02   7.304975e+01
  -6.066359e+00   2.208650e+02
  -2.188202e+02   2.852354e+02
  -2.406684e+02   1.122514e+02
  -1.770169e+02  -1.230715e+02
  -5.579485e+01  -2.324529e+02
   3.759762e+01  -2.011108e+02
   1.162201e+01  -1.027831e+02
   5.407320e+01  -9.929049e+01
   1.043833e+02  -9.603222e+01
   1.838230e+02  -4.782145e+01
   1.380772e+02   7.541821e+01
   7.085856e+01   1.899080e+02
  -6.922542e+01   1.413245e+02
  -1.732895e+02  -4.886672e+01
  -8.858997e+01  -1.738597e+02
   5.195084e+01  -1.799275e+02
   1.760513e+02  -2.871297e+01
   2.263718e+02   1.002775e+02
   1.100892e+02   1.998460e+02
  -3.059231e+01   1.668617e+02
  -9.796751e+01   1.250774e+02
  -7.810657e+01   4.220234e+01
  -8.179583e+01   7.154809e+01
  -2.005259e+02   3.743260e+01
  -3.096442e+02  -5.109587e+01
  -2.299529e+02  -2.440145e+02
   3.767228e+01  -3.830755e+02
   2.782519e+02  -2.824659e+02
   3.400357e+02  -1.106735e+02
   2.229677e+02   8.535907e+01
   3.038701e+01   1.891308e+02
  -8.867691e+01   1.332000e+02
   8.472088e-01   6.591263e+00
   7.534462e+01  -2.718319e+01
   7.402574e+01   4.181254e+01
   1.030715e+01   1.092252e+02
  -5.578438e+01   7.978800e+01
  -5.370569e+01  -4.205658e+01
  -4.751963e+00  -1.121676e+02
   1.459422e+02   3.357167e-01
   8.945674e+01   1.829535e+02
  -1.043000e+01   2.783763e+02
  -2.205984e+02   1.749394e+02
  -2.643765e+02  -3.892889e+01
  -1.934056e+02  -2.085246e+02
  -3.656878e+01  -1.753364e+02
   1.033702e+02  -1.134239e+02
   1.245008e+02  -1.867104e+01
   3.191315e+01   4.832371e+00
  -3.646711e+01  -4.919243e+01
   6.621592e+00  -5.211708e+01
   8.247126e+01  -4.374439e+01
   1.085369e+02   7.096900e+01
  -8.467212e+00   4.574711e+01
  -1.052440e+02  -2.803757e+01
  -1.728358e+01  -1.002560e+02
   1.237766e+02  -9.046863e+01
   2.403439e+02   3.412341e+01
   1.847769e+02   1.676953e+02
   5.313954e+00   2.259224e+02
  -1.355474e+02   1.315408e+02
  -2.008444e+02   1.197221e+01
  -9.484519e+01  -3.896682e+01
   6.426002e+01  -5.862070e+01
   5.109864e+01  -5.874013e+00
  -4.831716e+01   6.896099e+01
  -1.470222e+02   5.760023e+00
  -1.329222e+02  -9.615560e+01
  -2.021628e+01  -1.326406e+02
   6.332494e+01  -8.293461e+01
   7.585048e+01   7.252416e+00
   1.967615e+01   6.372806e+01
  -6.047114e+01  -3.191874e+01
  -3.078772e+01  -1.045456e+02
   9.073002e+01  -6.571902e+01
   1.571933e+02   3.514006e+01
   1.442650e+02   9.927606e+01
   7.547264e+00   1.499027e+02
  -1.321127e+02   1.119748e+02
  -1.058692e+02  -3.743403e+01
  -6.138643e+01  -6.497841e+01
   2.809567e+01  -4.373754e+01
   4.305391e+01  -1.631568e+00
   3.424756e+00   1.398006e+01
  -3.102046e+01   2.171992e+01
   2.478900e+01  -5.506553e+01
   8.396686e+01  -9.745887e+00
   8.438978e+01   9.739730e+01
   2.213392e+01   1.612738e+02
  -1.162990e+02   1.386109e+02
  -1.861020e+02  -3.996092e+00
  -1.441386e+02  -1.482752e+02
  -2.181718e+01  -1.475756e+02
   6.015568e+01  -1.351172e+02
   6.525990e+01  -9.077314e+00
   3.925599e+01   1.666252e+00
   3.307520e+01  -2.296026e+01
   5.439388e+01  -4.086946e+01
   8.256919e+01   3.501044e+00
   2.737402e+01   6.953203e+01
  -2.328993e+01   1.000715e+02
  -1.177893e+02   5.963713e+01
  -7.670993e+01  -6.586272e+01
  -5.386908e+00  -1.128640e+02
   1.102885e+02  -9.430381e+01
   1.519137e+02   5.597943e+01
   8.252421e+01   1.799557e+02
  -6.946188e+01   1.723748e+02
  -2.099438e+02   6.355441e+01
  -1.706343e+02  -6.297296e+01
  -4.467479e+01  -1.433400e+02
   1.951634e+01  -8.663515e+01
   6.468174e+01  -6.804779e+01
   5.055323e+01  -8.905044e+01
   2.585915e+01  -5.866796e+01
   8.117762e+01  -5.364421e+01
   1.091629e+02   2.096394e+01
   7.805442e+01   1.116355e+02
   3.781684e+01   1.889712e+02
  -7.279193e+01   1.466712e+02
  -1.409557e+02  -2.771805e+00
  -8.043486e+01  -1.044731e+02
   1.963402e+01  -1.260238e+02
   4.845648e+01  -6.045796e+01
   4.379965e+01   3.541029e+01
  -1.230642e+01   5.045019e+01
  -2.304295e+01   3.020698e+01
  -1.954838e+00  -9.570462e+00
   4.788928e+01   3.315456e+01
   3.778419e+01   1.199235e+01
  -6.890342e+01   2.375999e+01
  -1.266979e+02  -8.420290e+00
  -9.529865e+01  -6.957533e+01
   1.363040e+01  -8.674422e+01
   9.113575e+01  -3.967451e+01
   9.824433e+01   1.106528e+01
   3.876273e+01   2.878964e+01
  -5.397381e+01   2.026617e+01
  -4.275687e+01  -1.456908e+01
   2.620547e+00  -4.351046e+01
   5.160829e+01  -3.709856e+01
   2.449901e+01   1.240007e+01
   4.631029e+01   3.147013e+01
   2.532412e+01   2.031656e+01
   9.095928e+01  -1.166036e+01
   3.988840e+01  -6.394337e+00
   5.080460e+01   5.064007e+01
  -6.348709e+01   1.325455e+02
  -1.410851e+02   1.289560e+02
  -1.379345e+02   4.343514e+00
  -7.803297e+01  -6.238925e+01
  -1.162010e+01  -7.425392e+01
   8.421632e+01  -5.158755e+01
   5.575137e+01   4.661597e+01
  -5.431150e+01   9.955109e+00
  -1.064462e+02  -3.368994e+01
  -6.839576e+01  -7.474806e+01
   4.889548e+01  -6.619369e+01
   1.306706e+02  -4.350400e+01
   1.143714e+02   4.309423e+01
   2.010220e+01   6.491520e+01
  -5.870271e+01   3.528382e+01
  -2.254345e+01  -4.606690e+01
   8.140195e+00  -5.398770e+00
   8.593441e+01   1.135378e+01
   2.270893e+01   9.014632e+01
  -2.416745e+01   1.103963e+02
  -1.067612e+02   3.248809e+01
  -6.313443e+01  -8.378207e+01
   1.355477e+01  -1.390862e+02
   8.366507e+01  -6.111948e+01
   5.443517e+01   3.111468e+01
   7.437315e+00   1.335891e+02
  -1.920689e+01   6.769279e+01
  -2.685218e+01  -1.561717e+01
  -3.656825e+01  -3.473872e+01
  -1.723226e+01   1.603541e+01
  -1.790212e+01   3.071471e+01
  -2.780172e+01   1.048873e+01
  -5.226200e+01  -4.690127e+01
  -2.500874e+01  -1.219882e+02
   5.985514e+01  -3.066940e+01
   1.035798e+02  -4.062947e+00
   1.214185e+02   5.680767e+01
  -1.143716e+01   3.304344e+01
  -7.122903e+01   4.005974e+00
  -4.709947e+01  -2.397820e+01
   8.784498e+00  -1.556261e+01
   9.139805e+00  -1.299430e+01
  -8.890005e+00   9.137101e+00
   4.785889e+00  -8.644177e+00
   1.834873e+01  -2.352411e+01
   3.690961e+01  -9.724592e+00
   8.668594e+01   3.982824e+01
  -1.681419e+01   5.491430e+01
  -9.221340e+01   9.505952e+01
  -1.447895e+02   3.632545e+01
  -1.201839e+02  -4.982357e+01
  -3.708326e+01  -1.242967e+02
   5.705303e+01  -1.075008e+02
   8.902081e+01  -1.754029e+01
   3.586137e+01   3.554963e+01
   1.143020e+01   3.916097e+01
   1.601630e+01   1.952467e+01
   1.183304e+01   3.016621e+01
  -5.111599e+00   4.908626e+01
   1.654503e+01   5.364566e+01
  -4.215392e+01   4.507064e+01
  -5.801756e+01  -8.132261e+00
  -3.650025e+01  -6.897135e+01
  -2.443347e+00  -6.811193e+01
   3.791401e+01  -1.530940e+01
   9.855173e+01   3.028991e+01
   2.191846e+01   4.283316e+01
  -4.101091e+01   3.750997e+01
  -8.526562e+01  -3.052524e+01
  -2.252884e+01  -3.814937e+01
   4.150042e+01  -6.021671e+01
   4.291500e+01  -1.738385e+01
  -4.928711e+01   1.260589e+00
  -3.267699e+01   6.665661e+00
   5.216403e+00   9.656337e-01
   3.175737e+01  -6.191160e+01
   5.061819e+01  -2.589691e+01
   4.918046e+01   1.124346e+01
  -7.442251e+00   2.833840e+01
  -1.234587e+01   2.431772e+01
  -1.968802e+01   3.306474e+01
  -2.238670e+01  -3.230684e+01
   2.188892e+01  -2.114677e+01
   2.967512e+01   1.561772e+01
   1.307854e+01   6.883070e+01
   6.272317e+00   5.771275e+01
  -2.604923e+01  -2.725243e+01
  -2.671770e+01  -3.005993e+01
  -4.048019e+00  -9.708747e+00
  -7.138445e+00  -1.452808e+01
   5.609038e+00  -2.166332e+01
   5.039537e+00  -5.958326e+01
   1.100526e+01  -3.384042e+01
   3.295874e+01   3.519826e+00
   3.279263e+01   1.674402e+01
   6.035377e+00   4.275219e+01
  -9.489916e+00   4.883908e+01
  -4.173348e+01  -1.127820e+01
  -1.564819e+01  -4.644840e+01
   1.158043e+01  -2.388814e+01
   5.539776e+01   1.399995e+01
   5.822307e+01   2.670621e+01
  -1.901907e+01   3.335878e+01
  -1.310386e+01   3.925891e+01
  -1.771438e+01   1.665039e+01
   1.012786e+01   8.799315e+00
   1.137300e+01   7.741895e+00
   1.213346e+00   3.551930e+01
  -9.092384e+01  -2.080495e+01
