
 $NMID
 id='ANONYMOUS ', fmtdat='(2E16.6)'
 volume=1.0
 tramp=1.0
 $END
   3.018856e+03   4.020334e+01
   1.853434e+03   1.243043e+03
   1.817228e+02   1.754517e+03
  -9.922983e+02   1.384934e+03
  -9.224717e+02   5.048171e+02
  -2.264179e+02  -1.144366e+02
   3.049153e+02  -5.787568e+00
   1.142216e+02   2.962409e+02
  -3.435048e+02   5.300192e+02
  -4.581505e+02   1.297465e+02
  -4.279730e+02  -2.895337e+02
  -1.396086e+02  -4.764167e+02
   1.175266e+02  -1.848575e+02
   1.474468e+02   2.447555e+02
  -5.193285e+00   4.246140e+02
  -3.405134e+02   6.705935e+01
  -2.682284e+02  -3.621518e+02
   6.629964e+01  -5.881649e+02
   4.413720e+02  -2.624144e+02
   4.064847e+02   9.703699e+01
   1.357746e+02   2.639934e+02
  -6.510545e+01   2.280272e+02
   4.572283e+01   1.439789e+02
   2.091084e+02   2.033565e+02
   1.969063e+02   3.156365e+02
  -6.858827e+01   2.911603e+02
  -4.277566e+02   9.421788e+01
  -4.839920e+02  -1.992935e+02
  -1.678014e+02  -2.404999e+02
   2.559394e+02  -1.181322e+02
   3.652910e+02   1.697956e+02
   1.359237e+02   2.908434e+02
  -2.577429e+02   2.738623e+02
  -3.666783e+02   1.230251e+02
  -2.634194e+02  -1.074304e+02
  -1.568767e+02  -2.177534e+02
  -3.813838e+01  -1.428942e+02
  -1.134779e+02   9.147721e+00
  -1.334132e+02   9.408142e+01
  -1.074263e+02  -9.220248e+01
  -1.088414e+01  -3.599625e+02
   1.867189e+02  -3.928395e+02
   2.647261e+02  -8.351299e+01
   9.748628e+01   2.158311e+02
  -9.118123e+01   5.439863e+01
  -1.168656e+02  -2.284285e+02
   1.021787e+02  -3.321331e+02
   4.342843e+02  -8.809965e+01
   4.478570e+02   3.097455e+02
   1.687246e+02   4.180178e+02
  -2.417772e+02   2.302423e+02
  -4.163416e+02  -2.510528e+01
  -2.772211e+02  -1.923381e+02
   3.636898e+01  -1.622185e+02
   1.983718e+02  -6.617889e+01
   2.128711e+02  -4.249047e+01
   4.795333e+01   3.813620e+01
  -2.659098e+01  -1.447813e+01
   6.973223e+01  -4.926921e+01
   1.875209e+02   5.197849e+00
   1.207431e+02   1.500552e+02
  -1.438898e+02   2.723539e+02
  -3.369538e+02   1.420480e+02
  -2.563157e+02  -1.091794e+02
   4.517585e+01  -3.417036e+02
   2.842381e+02  -2.857041e+02
   3.615897e+02  -1.254847e+02
   1.868325e+02   1.743352e+02
   3.046961e+01   3.584655e+02
   1.758204e+01   2.227184e+02
   1.133803e+00   2.017452e+02
  -3.466566e+01   1.269350e+02
  -1.421053e+02   1.052110e+02
  -2.315269e+02   1.246566e+01
  -1.828523e+02  -9.963651e+01
  -4.981294e+01  -2.280407e+02
   9.138736e+01  -1.544272e+02
   1.763670e+02   4.288603e+01
   1.027896e+02   2.160022e+02
  -7.361532e+01   2.192064e+02
  -2.330223e+02   1.935541e+01
  -2.725484e+02  -1.760325e+02
  -1.717375e+02  -2.650553e+02
   7.368064e+00  -2.464015e+02
   1.494211e+02  -1.856291e+02
   1.396429e+02  -1.156547e+02
   2.025671e+02  -1.003693e+02
   2.882837e+02  -9.726464e+00
   3.789220e+02   1.354854e+02
   2.593451e+02   3.022820e+02
  -4.091051e+01   3.991187e+02
  -3.480550e+02   3.558222e+02
  -4.304269e+02   1.505130e+02
  -2.386846e+02  -9.242518e+01
  -8.034175e+00  -2.074537e+02
   4.201117e+01  -1.620878e+02
   2.926842e+00  -4.148946e+01
  -1.018628e+02   8.988074e+00
  -1.136528e+02  -6.425390e+01
   2.179890e+00  -1.224572e+02
   9.396913e+01  -9.384011e+01
   7.664236e+01   4.661479e+01
  -1.515834e+01   6.625819e+01
  -1.439956e+02  -1.021080e+01
  -1.457635e+02  -2.291140e+02
  -1.405354e+01  -3.810869e+02
   2.410378e+02  -1.817453e+02
   3.630980e+02   7.562275e+01
   2.588270e+02   2.886311e+02
   1.349284e+01   2.690074e+02
  -1.100634e+02   1.407724e+02
  -1.061827e+02  -3.617829e+00
  -5.019835e+01   1.412388e+01
   3.179181e+01   8.780018e+01
  -1.953308e+00   9.785698e+01
  -1.207062e+02   5.844485e+01
  -7.407136e+01  -3.262171e+01
  -4.129201e+01  -3.876312e+01
   1.070057e+02   3.190243e+01
   2.303366e+01   6.586274e+01
  -1.475894e+02   9.769987e+01
  -2.842592e+02  -4.256507e+01
  -2.414750e+02  -2.037393e+02
   3.854843e-01  -2.558766e+02
   1.904851e+02  -2.052321e+02
   2.422596e+02  -6.960087e+01
   1.479463e+02   3.933318e+01
  -3.969665e+01   5.728981e+01
  -6.994736e+01  -3.388409e+00
   7.081418e+01  -1.012660e+02
   1.901459e+02  -2.266366e+01
   1.595567e+02   1.035370e+02
   3.652729e+01   1.238204e+02
  -9.944300e+01   9.836188e+01
  -7.586029e+01   2.407006e+01
  -2.413176e+01  -5.465577e+01
   5.281566e+01   7.952282e+01
   1.870418e+01   8.168850e+01
  -1.334821e+02   9.725620e+01
  -2.133629e+02   1.317324e+01
  -1.793753e+02  -1.140480e+02
   4.281384e+00  -1.990085e+02
   1.377086e+02  -1.557279e+02
   1.526249e+02   6.737238e+00
   4.267012e+01   6.677641e+01
  -5.020351e+01   4.398169e+01
  -5.484278e+01   6.027756e+00
   3.893717e+00  -1.372923e+01
   2.972838e+01   2.739213e+01
  -4.863790e+00   1.349025e+01
  -1.172845e+02  -7.184613e+00
  -8.275284e+01  -8.561545e+01
   1.177273e+01  -1.918860e+02
   1.450750e+02  -1.268540e+02
   2.393746e+02  -2.333989e+01
   1.875460e+02   1.350295e+02
   3.046562e+01   2.198249e+02
  -1.013482e+02   1.608244e+02
  -1.024007e+02   3.409750e+01
  -5.184941e+01  -5.104095e+01
  -4.462045e+01  -4.399098e+01
  -4.653256e+01   4.704436e+01
  -8.670932e+01   1.513381e+01
  -6.340260e+01  -4.495575e+01
   3.070718e+01  -9.244260e+01
   1.104997e+02  -5.840491e+01
   9.101141e+01   6.321999e+01
  -6.665516e-01   1.299114e+02
  -1.851966e+02   4.490603e+01
  -1.902324e+02  -5.679428e+01
  -5.563393e+01  -2.274677e+02
   1.354629e+02  -2.255209e+02
   2.772053e+02  -9.106618e+01
   2.386893e+02   7.693273e+01
   8.670630e+01   1.476386e+02
  -1.162420e+01   1.166567e+02
  -6.715918e+01   7.842684e+01
  -6.554501e+01   6.115122e+01
  -5.995885e+01   8.765392e+01
  -8.292410e+01   1.052761e+02
  -1.197106e+02  -1.889649e+01
  -1.142238e+02  -1.698505e+02
  -4.585392e+01  -2.221922e+02
   7.093890e+01  -1.118523e+02
   1.235721e+02   2.203285e+01
   1.149243e+02   9.785652e+01
   3.384397e+00   1.057009e+02
  -7.123116e+01   4.874473e+01
  -2.946016e+01  -3.800712e+01
   2.358536e+01  -6.295214e+01
   4.077656e+01  -2.220320e+01
  -2.052577e+01  -1.904968e+01
  -7.528201e+01  -2.183556e+01
  -3.565788e+01  -3.881368e+01
   7.137946e+01  -2.949855e+01
   1.798236e+02   4.980856e+01
   1.517480e+02   8.069250e+01
  -4.057877e+00   9.193674e+01
  -1.540324e+02   8.849542e+01
  -1.331689e+02   1.079972e+01
  -1.382033e+01  -3.116594e+01
   7.197726e+01  -4.965727e+01
   7.369851e+01   9.395065e+00
   1.720259e+01   5.271698e+01
  -2.172882e+01   7.217284e+01
  -6.405251e+01   2.551816e+01
  -8.377831e+01  -5.333489e+01
  -9.753549e+01  -5.863624e+01
  -4.596330e+01  -1.727631e+01
  -4.170116e+01  -1.771427e+01
  -5.148261e+01  -6.426875e+01
  -5.397630e+00  -1.699705e+02
   1.263411e+02  -1.407448e+02
   1.639576e+02  -4.453116e+01
   1.009092e+02   9.009565e+01
   1.060524e+01   1.156221e+02
  -9.869941e+01   6.060258e+01
  -4.829875e+01   3.946926e+00
   4.166739e+01  -1.420369e+01
   1.028985e+02   4.595467e+01
   5.202297e+01   8.335962e+01
  -7.058041e+01   7.517633e+01
  -1.760843e+02   2.991732e+01
  -1.288921e+02  -1.870058e+01
  -2.089062e+01  -8.719116e+01
   7.000571e+01  -5.149994e+01
   5.341942e+01   5.709081e+00
  -6.188293e+01   2.128137e+01
  -9.851003e+01  -4.394454e+00
  -5.988509e+01  -1.077326e+02
   5.395482e+01  -1.741602e+02
   1.415882e+02  -2.882165e+01
   1.190095e+02   7.355301e+01
  -7.283779e+00   1.964126e+02
  -9.299858e+01   1.216756e+02
  -1.100521e+02  -3.351447e+01
  -2.790189e+01  -1.066936e+02
   3.663606e+01  -7.236461e+01
   4.776447e+01  -2.178394e+00
   1.830165e+01   2.473901e+01
   2.644421e+01  -7.073644e+00
  -2.138461e+01  -3.734641e+00
   5.261341e+00   2.940772e+01
   6.324994e+01   9.286571e+01
   3.657425e+01   8.098056e+01
  -7.055591e+01   1.389358e+01
  -1.395280e+02  -1.870859e+01
  -9.883234e+01  -4.109317e+01
  -3.602744e+01  -7.557117e+01
   1.014594e+02  -5.459475e+00
   5.995404e+01   2.466663e+01
   3.136153e+01   1.483553e+01
  -1.761797e+01   4.774338e+00
   8.315149e+00   1.116974e+00
   2.255027e+01   4.429589e-02
   6.404067e+00   3.958509e+01
  -8.195032e+01  -1.159360e+01
  -9.270454e+01  -2.511746e+01
   2.451280e+00  -9.343590e+01
   9.935642e+01  -1.024128e+02
   1.971610e+02  -6.416783e+01
   1.458721e+02   6.777288e+01
   3.758093e+01   1.283951e+02
  -6.677560e+01   1.370549e+02
  -8.305038e+01   6.958597e+01
  -8.221311e+01  -1.309118e+01
  -3.634454e+01  -2.217799e+01
  -1.856842e+01  -3.798554e+01
   4.828640e+00  -5.223873e+01
  -2.264177e+01  -5.086806e+01
  -2.993143e+00  -5.994599e+01
   3.740490e+01  -4.552922e+01
   8.132647e+01   1.814305e+01
   5.948965e+01   9.754880e+01
   1.235450e+01   1.289506e+02
  -2.355698e+01   2.736125e+01
  -9.248893e+01  -6.356083e+01
  -4.451501e+01  -8.210746e+01
   4.406053e+01  -6.088765e+01
   9.099619e+01   1.426084e+01
   2.114508e+01   5.485811e+01
  -3.175536e+01   6.164038e+01
  -2.095968e+01   2.204590e+01
   7.058654e+00   6.203748e+00
   6.747405e+01   1.318650e+01
   1.841490e+01   3.201741e+01
  -7.789486e+01   8.400327e+01
  -1.465390e+02   6.242087e+01
  -7.853398e+01  -5.038027e+01
   5.121313e+01  -8.782475e+01
   5.221235e+01  -6.506262e+01
   5.502470e+01  -1.665698e+01
   3.175671e+01   4.513035e+01
  -4.282389e+01   4.418284e+01
  -4.208375e+01  -4.172869e+01
  -1.535887e+01  -4.288990e+01
  -1.102590e+01  -5.958201e+01
   5.409002e+01   1.584391e+01
   2.014297e+01   1.266143e+01
   2.032585e+01   4.384912e+00
   1.577557e+01  -3.238000e+01
  -1.570666e+01  -8.831239e+00
   7.097013e+00   2.947693e+01
  -8.095353e+00   5.840328e+01
  -1.502362e+01   1.409879e+01
  -5.089225e+01  -4.768238e+01
  -2.195040e+01  -5.968683e+01
   1.523950e+01  -3.105491e+01
   6.637389e+01   1.153568e+01
   5.472623e+01   2.170976e+01
  -3.966654e+01   4.319282e+01
  -8.419362e+01  -6.084185e+00
  -2.750939e+01  -4.913473e+01
   9.910298e+00  -3.177103e+01
   8.380503e+01  -2.517156e+01
   2.578384e+01  -2.155571e+01
  -3.956526e+01  -8.579860e+00
   1.880045e+01  -1.310744e+01
   1.977224e+01  -1.176165e+01
   8.643495e+01  -3.040924e+01
