
 $NMID
 id='ANONYMOUS ', fmtdat='(2E16.6)'
 volume=1.0
 tramp=1.0
 $END
  -1.946288e+03   9.623604e+01
  -1.133240e+03  -1.258806e+03
   3.222823e+02  -1.329745e+03
   1.097104e+03  -4.511815e+02
   4.274381e+02   8.816625e+01
  -8.760967e+01   1.925536e+02
  -2.295322e+02  -2.325767e+02
   2.274011e+01  -3.920363e+02
   3.257955e+02  -2.361202e+02
   3.999051e+02   9.175699e+01
   1.890632e+02   4.096373e+02
  -7.448805e+01   3.991639e+02
  -1.855513e+02   8.079441e+01
  -9.880014e+01  -2.759334e+02
   9.598111e+01  -2.959282e+02
   2.432888e+02  -7.655104e+00
   1.066649e+02   2.856897e+02
  -8.121111e+01   2.694485e+02
  -3.065935e+02   4.663547e+01
  -1.981601e+02  -1.691257e+02
  -2.103941e+01  -1.853091e+02
   9.990762e+01  -1.137664e+02
   3.337212e+01  -3.478169e+01
  -7.539992e+01  -2.792986e+01
  -1.164737e+02  -1.787710e+02
   1.414101e+01  -2.268766e+02
   3.027458e+02  -8.962551e+01
   4.133026e+02   1.319838e+02
   1.100828e+02   3.031790e+02
  -2.353242e+02   1.762166e+02
  -3.034795e+02  -1.061704e+02
  -1.063363e+02  -2.582404e+02
   1.607466e+02  -2.164037e+02
   2.901669e+02  -5.591829e+01
   1.744613e+02   1.003648e+02
   4.420850e+01   1.730706e+02
  -2.833036e+01   1.196064e+02
  -3.453719e+01  -4.760012e+01
   8.767261e+01  -1.246807e+02
   1.231220e+02   7.160077e+01
   6.230764e+01   2.583278e+02
  -1.177164e+02   2.818555e+02
  -2.155623e+02  -2.988480e+01
  -1.009747e+02  -2.293232e+02
   1.227670e+02  -9.286288e+01
   1.009543e+02   1.874833e+02
  -2.904842e+01   2.725622e+02
  -2.440163e+02   1.947707e+01
  -2.215418e+02  -2.295654e+02
  -8.420146e+01  -3.172498e+02
   2.053135e+02  -1.977667e+02
   3.256628e+02   2.527777e+01
   1.770076e+02   1.777460e+02
  -4.761662e+01   1.205709e+02
  -1.977799e+02   1.441110e+01
  -1.260676e+02  -5.551593e+01
   4.184734e+01  -4.539026e+00
   4.452359e+01   3.367526e+01
  -9.845093e+01   5.887055e+01
  -1.285801e+02  -5.631248e+01
  -5.047510e+01  -1.413383e+02
   1.057474e+02  -1.150963e+02
   1.453868e+02  -7.264190e+01
   1.083821e+02   7.133377e+01
  -5.215305e+01   1.190069e+02
  -2.145311e+02   1.667651e+02
  -1.900484e+02   8.261288e+01
  -1.004579e+02  -7.152390e+01
  -3.099331e+01  -1.747820e+02
   1.670319e+00  -1.863067e+02
   2.586753e+00  -7.152697e+01
   4.530155e+01  -2.374046e+01
   6.372828e+01  -6.952068e+01
   1.208103e+02  -5.359368e+01
   1.279520e+02   7.189027e+01
   2.687746e+01   1.751131e+02
  -7.657084e+01   8.833548e+01
  -1.144760e+02  -2.781784e+01
  -9.744966e+01  -1.427629e+02
   3.116527e+01  -1.236707e+02
   1.659738e+02  -4.084108e+01
   1.943442e+02   9.473953e+01
   1.228344e+02   1.710540e+02
  -2.651813e+01   1.807233e+02
  -1.275634e+02   5.432829e+01
  -7.624031e+01   3.056695e+01
  -6.869458e+01   2.033663e+01
  -1.674005e+02   4.795424e+01
  -2.318443e+02  -7.370728e+01
  -1.389955e+02  -1.535108e+02
   3.320853e+01  -2.638696e+02
   2.518186e+02  -2.011571e+02
   2.464073e+02  -6.362928e+01
   1.386065e+02   9.686254e+01
  -3.728444e+00   1.410913e+02
  -1.025929e+02   1.067377e+02
  -3.208975e+01  -3.326554e+01
   7.128286e+01  -2.672550e+01
   9.953560e+01   1.498337e+01
   3.352894e+01   1.142066e+02
  -9.683422e+01   6.843730e+01
  -5.703984e+01  -5.066984e+01
   2.674735e+01  -9.566191e+01
   9.643089e+01   1.136264e-01
   8.137386e+01   1.496243e+02
  -4.755053e+00   1.687933e+02
  -1.133885e+02   5.304600e+01
  -2.081615e+02  -4.205593e+01
  -1.416662e+02  -1.706923e+02
  -3.626461e+01  -1.338768e+02
   4.855205e+01  -9.275211e+01
   1.182746e+02  -2.709105e+01
   3.235645e+01  -1.339993e+01
  -9.100405e+00  -3.605556e+01
   1.947171e+01  -7.036587e+01
   9.325234e+01  -2.463393e+01
   7.118632e+01   5.796408e+00
   6.818940e+00   4.447968e+01
  -4.294146e+01  -4.248207e-01
  -1.639116e+00  -4.051788e+01
   9.541862e+01  -4.873317e+01
   1.799513e+02   1.148346e+01
   1.354525e+02   1.346751e+02
   1.158571e+01   1.497352e+02
  -1.472677e+02   1.171058e+02
  -1.663093e+02   5.854107e+01
  -6.150137e+01  -1.738565e+01
   1.500075e+01  -5.945888e+01
   7.133500e+00  -1.915969e+01
  -3.642920e+01   4.346151e+01
  -1.151497e+02   1.351344e+01
  -9.063633e+01  -7.205371e+01
  -1.040968e+01  -1.001733e+02
   3.510183e+01  -5.052105e+01
   8.183576e+01  -2.215876e+01
   3.259429e+01   3.492662e+01
  -3.236400e+01  -1.114976e+01
  -8.314529e+00  -4.445229e+01
   6.571774e+01  -9.563713e+01
   1.257550e+02  -3.076180e+01
   1.236742e+02   5.244531e+01
   1.019297e+01   1.265212e+02
  -1.029345e+02   6.658143e+01
  -1.229557e+02  -6.557534e+00
  -3.577584e+01  -6.985931e+01
   3.934209e+01  -4.756694e+01
   5.246970e+01   9.388319e+00
  -1.456462e+01   3.778235e+01
  -3.474229e+01   7.801185e+00
   1.872954e+01  -2.751343e+01
   3.474863e+01  -9.544655e+00
   7.097623e+01   3.650831e+01
   2.274006e+01   1.237910e+02
  -9.826982e+01   1.016550e+02
  -1.164224e+02   7.216290e+00
  -8.747729e+01  -1.121732e+02
  -1.377626e+01  -1.369893e+02
   5.511884e+01  -7.593423e+01
   5.431707e+01  -7.871031e+00
   2.404473e+01   6.348455e+01
   1.031113e+01   8.966226e+00
   2.975769e+01  -5.702617e+00
   3.886274e+01   1.153181e+01
   4.010794e+01   1.272084e+01
  -1.652863e+01   1.921916e+01
  -4.296528e+01   1.124033e+01
  -6.039064e+01  -6.383867e+00
   4.722820e+00  -8.067757e+01
   8.150931e+01  -3.010285e+01
   1.379408e+02   5.621380e+01
   3.271163e+01   1.336356e+02
  -5.003194e+01   1.303779e+02
  -1.402132e+02   4.672645e+01
  -1.469507e+02  -5.367862e+01
  -6.902357e+01  -9.082089e+01
   2.137874e+01  -9.221084e+01
   6.424885e+01  -4.156847e+01
   3.129285e+01  -3.739964e+01
   6.751962e+01  -4.736621e+01
   7.363634e+01  -4.187408e+01
   5.364158e+01  -1.408478e+01
   5.943283e+01   8.036426e+01
  -2.222850e+01   1.068534e+02
  -6.343413e+01   7.152128e+01
  -1.245149e+02  -8.498828e-01
  -6.879358e+01  -6.527058e+01
   1.540191e+01  -1.111883e+02
   4.163520e+01  -2.326596e+01
   6.495627e+01  -1.372040e+01
   2.147947e+01   1.331041e+01
  -3.467730e+01   2.782691e+01
  -2.225004e+01   1.784771e+01
   5.126441e+01  -8.730766e+00
   2.160124e+01   2.500340e+01
  -7.504106e+01  -4.919296e+00
  -9.619762e+01  -1.964935e+01
  -7.785433e+01  -4.389721e+01
   8.589290e+00  -8.206805e+01
   9.522850e+01  -1.940262e+01
   1.100038e+02  -1.337861e+01
   8.915890e+00   2.720132e+01
  -1.931967e+01   5.666109e+01
  -4.586400e+01  -1.975342e+01
  -3.480185e+01  -3.565988e+01
   1.554435e+01  -1.651137e+01
   3.746371e+01  -1.546585e+01
   1.629929e+01   3.396306e+01
   2.045041e+01   3.366495e+01
   1.816987e+01   4.053358e+00
   3.795250e+01   3.617739e+01
   4.312216e+01   4.224333e+01
  -1.062436e+01   9.748673e+01
  -6.480116e+01   9.602348e+01
  -1.104200e+02   9.658976e+00
  -8.091282e+01  -5.001552e+01
  -2.514485e+01  -7.350129e+01
   3.845980e+01  -4.257958e+01
   1.676332e+01  -2.774412e+01
  -3.579396e+01   2.787169e+01
  -3.381368e+01  -1.908674e+01
  -2.095423e+01  -6.961551e+01
   8.551075e+00  -5.947796e+01
   1.173920e+02  -2.203874e+01
   9.597123e+01   3.793670e+01
   1.421743e+01   3.889064e+01
  -4.172836e+01  -1.285589e+01
  -1.623565e+01   3.388317e+01
   8.411263e+00   1.601392e+01
   6.506488e+01   4.213053e+01
  -1.064349e+01   6.283837e+01
  -6.330769e+01   6.462004e+01
  -6.790374e+01   2.788909e+01
  -6.912622e+01  -4.877238e+01
  -1.053529e+01  -1.014097e+02
   6.621681e+01  -6.361446e+01
   6.378674e+01   4.004149e+01
   4.108616e+00   7.114180e+01
  -7.682728e+00   4.026268e+01
   1.570270e+01   4.293596e+00
  -4.370449e+01   1.200483e+00
  -8.031612e+00  -8.676047e+00
   4.960864e+00   3.565286e+01
   9.540174e+00  -1.672077e+01
  -3.866166e+01  -4.811712e+01
  -1.793970e+01  -4.116226e+01
   1.483745e+00  -1.520856e+01
   7.145845e+01   4.073377e+01
   5.005111e+01   5.634101e+00
  -5.932517e+00   1.564775e+01
  -4.104113e+01   3.576261e+01
  -4.845949e+01  -7.544865e+00
  -1.226935e+01  -7.593102e+00
   4.676991e+01  -3.191524e-01
   2.254098e+00   1.500465e+01
  -1.097839e+01  -1.279226e+01
  -2.612428e+00   2.060182e+01
   1.795175e+01   1.298387e+01
   3.610510e+01   3.005460e+01
  -5.825058e+00   7.029115e+01
  -7.320654e+01   6.294680e+01
  -1.041783e+02   2.148992e+01
  -6.960296e+01  -4.720550e+01
   2.334028e+01  -7.569484e+01
   8.117998e+01  -7.879374e+01
   5.842899e+01  -3.037472e+01
   5.524228e+01  -8.336787e+00
   2.034011e+01   4.616693e+01
  -1.705182e+01   9.748061e+00
  -9.338096e+00   9.593622e+00
   4.210312e+00   2.754101e+01
  -4.891836e+00   5.092652e+01
  -2.045069e+01   1.922579e+01
  -3.207554e+01  -2.038199e+01
  -2.656899e+01  -5.366700e+01
   9.503321e-01  -5.797378e+01
   5.840776e+01  -6.778795e+00
   3.406925e+01   4.751932e+01
   1.390694e+01   3.378132e+01
  -5.410116e+01   3.520885e+01
  -4.094074e+01  -1.507185e+01
  -1.815308e+00  -5.412304e+01
   1.708109e+01  -4.432958e+01
   2.811844e+01  -4.153787e+01
  -5.237166e-01   2.557556e+01
  -5.389950e+01  -3.812127e-01
   1.785097e+00   3.089280e+00
   2.627969e+01  -2.390694e+01
   5.513605e+01  -4.022029e+01
   1.651790e+01  -4.353465e+01
   4.020454e+00   3.853281e+01
  -1.142847e+01   3.369550e+01
  -4.343783e+01   3.940742e+00
  -1.028419e+01  -2.305241e+01
   1.282672e+01  -2.215721e+01
   3.512354e+01  -8.752504e+00
  -1.649922e+01   2.816710e+01
  -3.103954e+00   1.238144e+01
  -2.440540e+01  -5.187777e+00
  -3.141824e+01   6.733503e+00
   1.527459e+01  -2.231999e+01
   9.845754e+00   3.618813e+01
  -5.955379e+00   2.406255e+01
   3.210768e+00  -2.555459e+01
   6.296478e-01  -1.966389e+01
   1.349838e+01  -1.889374e+01
   1.409913e+01   3.385962e+01
   7.469483e+00   1.699526e+01
  -1.760102e+01  -3.864281e+00
  -7.237934e+00  -2.520625e+01
   7.361444e+00  -2.953944e+01
   2.314160e+01  -1.796983e+01
   2.897590e+01   1.439005e+01
   2.813757e+01  -3.559042e+00
  -1.175249e+01   8.025691e+00
  -2.469103e+01   2.481758e+00
  -3.361774e+01  -3.531791e+00
   1.204393e+01  -3.298558e+01
   4.713205e+01   3.226818e+00
  -2.446354e+01   3.341779e+01
  -4.412948e+01   1.147741e+01
