
 $NMID
 id='ANONYMOUS ', fmtdat='(2E16.6)'
 volume=1.0
 tramp=1.0
 $END
   1.159053e+03   1.285217e+02
   5.518818e+02   7.806651e+02
   1.206317e+02   5.502492e+02
  -2.374957e+02   3.643239e+02
  -1.645599e+02   2.261931e+02
  -3.003741e+01   4.291595e+01
   3.974148e+01  -2.765362e+01
  -4.878172e+01   7.762232e+01
  -1.043550e+02   1.706689e+02
  -1.167251e+02   3.621318e+01
  -1.236359e+02  -6.765519e+01
  -2.398551e+01  -1.397352e+02
   2.138588e+01  -3.905555e+01
  -2.741285e+01   1.027052e+02
  -8.137233e+01   9.083298e+01
  -6.249306e+01   1.863357e+00
   1.993933e+01  -1.020680e+02
   3.063304e+01  -9.741415e+01
   8.126582e+01  -6.527236e+01
   7.645197e+01   1.885055e+01
   3.165581e+01   7.147238e+01
  -2.211022e+00   5.218916e+01
  -1.884426e+01  -1.236535e+01
   5.068684e+01   4.044277e+01
   7.388208e+01   1.599705e+02
  -7.582008e+01   8.790083e+01
  -1.833230e+02   3.697989e+01
  -1.683515e+02  -2.372163e+01
  -4.892401e+01  -1.137823e+02
   1.367442e+02   5.521032e+00
   1.328537e+02   7.893347e+01
   2.684631e+01   1.450935e+02
  -8.161130e+01   6.372046e+01
  -1.309108e+02   2.400652e+01
  -8.429145e+01  -6.746305e+01
  -1.959630e+01  -1.089389e+02
  -2.368212e+01  -2.654762e+01
  -6.371726e+01   4.197184e+01
  -1.158473e+02   3.884417e+01
  -1.743747e+01  -6.702206e+01
   5.715620e+01  -1.653331e+02
   1.174324e+02  -1.123466e+02
   9.013374e+01   2.483760e+01
  -3.434781e+01   1.019947e+02
  -9.524831e+01  -1.428772e+01
  -8.378688e+01  -1.221613e+02
   6.810707e+01  -7.223005e+01
   1.488655e+02  -7.402751e+00
   1.467805e+02   1.105566e+02
   1.698035e+01   1.309174e+02
  -5.865424e+01   5.829796e+01
  -1.094701e+02  -7.359916e+01
  -9.269091e+01  -4.670797e+01
  -2.461839e+00  -1.864054e+01
   7.938612e+01   1.113282e+01
   1.951872e+01   1.012364e+01
  -1.678673e+01  -1.422123e+01
  -4.734041e+01  -1.686878e+01
   2.819710e+01   1.352034e+00
   1.549807e+01   4.474106e+01
  -1.867103e+01   6.918522e+01
  -7.905963e+01   5.464925e+01
  -9.960025e+01   3.943519e+01
  -7.292164e+01  -1.303253e+01
   1.042240e+01  -1.132519e+02
   1.207172e+02  -9.565553e+01
   9.118314e+01  -3.246055e+01
   8.342483e+01   3.481370e+01
  -3.862123e+00   1.033451e+02
  -1.804798e+01   5.166914e+01
   7.329006e+00   4.191326e+01
   1.850916e+01   5.257131e+01
  -4.694106e+01   2.132414e+01
  -6.296621e+01   4.380858e+01
  -5.324964e+01  -7.380692e+01
  -9.870388e+00  -8.495116e+01
   5.525889e+01  -1.766143e+01
   6.336936e+01   5.784405e+01
   3.872679e+01   1.034209e+02
  -5.316556e+01   6.861298e+01
  -6.516773e+01  -2.598961e+01
  -8.773602e+01  -2.204380e+01
  -4.506616e+01  -7.137072e+01
  -3.367261e+01  -1.080099e+02
   4.990400e+01  -6.450464e+01
   7.712195e+01  -3.171596e+01
   6.570905e+01  -6.829610e+01
   1.200409e+02   1.986430e+01
   9.998911e+01   6.391489e+01
   5.623558e+01   7.522069e+01
  -5.800604e+01   1.216379e+02
  -1.532828e+02   1.022836e+02
  -1.264110e+02  -1.687428e+01
  -4.475916e+01  -8.417870e+01
   2.226845e+01  -8.640569e+01
   1.222352e+01  -2.998227e+01
  -1.128309e+01   1.385040e+01
  -3.507508e+01  -8.912946e+00
  -1.257155e+01  -3.654034e+01
   2.439117e+01  -4.321498e+01
   3.453736e+01   2.758334e+01
   2.553284e+01   4.010356e+01
  -2.433866e+01   5.502640e+01
  -5.086232e+01  -3.434040e+01
  -4.221757e+01  -1.092075e+02
   2.095423e+01  -9.248978e+01
   7.401783e+01  -2.758768e+01
   9.911039e+01   3.952500e+01
   8.310267e+01   9.279769e+01
   4.443725e+00   4.693411e+01
  -4.396666e+01   4.671503e+01
  -4.559838e+01   1.726607e+01
  -1.987472e+01   2.180856e+01
  -2.223044e+01   5.400729e+01
  -1.775809e+01   3.832844e+01
  -5.171247e+01  -1.389764e+00
  -1.108577e+01  -3.507652e+01
  -2.578341e-01  -1.500069e+01
   3.009777e+01   3.123074e+01
  -1.937636e+00   3.455258e+01
  -6.479105e+01   1.852345e+01
  -9.398852e+01  -5.030277e+01
  -9.093323e+01  -3.819244e+01
   2.529613e+01  -9.347693e+01
   5.699295e+01  -8.648309e+01
   8.990189e+01  -5.111349e+01
   5.608335e+00  -3.182911e+00
  -1.406913e+01   3.802133e+01
  -5.475923e+00  -6.586422e+00
   5.463854e+01  -1.593873e+01
   4.578675e+01   3.575583e+00
   2.903456e+01   5.704772e+01
  -3.797703e+00   5.898720e+01
  -3.707337e+01   8.279624e+00
  -2.220779e+01   1.988688e+01
   3.442164e+00  -2.048600e+01
   1.603731e+01   7.628480e+00
  -1.827253e+01   5.833149e+01
  -5.584579e+01   1.431416e+01
  -6.200096e+01  -4.271614e+00
  -3.324578e+01  -5.278151e+01
   1.400077e+01  -3.481119e+01
   4.802803e+01   2.565504e+00
  -1.789870e+01  -1.184407e+01
   3.386034e+01   2.809466e+01
  -1.012310e+01  -5.024869e+00
   2.184685e+00  -3.445493e+01
   3.756085e+01  -1.237478e+01
   9.760306e+00   7.768739e+00
  -9.038912e+00  -9.885959e+00
   1.932888e+01  -1.004200e+01
  -2.548122e+01  -5.342224e+01
   1.705847e+01  -6.518989e+01
   3.276430e+01  -4.132037e+01
   8.768070e+01  -6.438614e+00
   6.202706e+01   3.892382e+01
  -3.092277e+01   4.564465e+01
  -1.392500e+01   6.209883e+01
  -9.597317e+00  -6.001081e+00
  -1.791669e+01  -1.597511e+01
  -2.029199e+01  -7.063116e+00
  -6.361207e+01   4.159811e+01
  -4.550079e+01  -2.438215e+01
  -3.071552e+01  -6.008461e+01
   1.414226e+01  -4.578302e+01
   2.469705e+01  -2.249044e+01
  -1.184037e+01   3.282741e+01
  -3.492131e-01   4.810815e+01
  -4.141769e+01   2.580092e+01
  -2.767984e+01  -1.545283e+01
  -3.820049e+01  -5.951903e+01
   3.715537e+01  -5.514050e+01
   7.035274e+01  -2.328370e+01
   7.552443e+01   4.574661e+01
   4.550070e+01   4.538651e+01
  -3.350302e+01   3.064029e+01
  -1.526040e+01   6.164895e+01
  -1.988132e+01   7.241920e+00
  -1.435030e+01   4.324379e+01
  -2.232637e+01   3.869624e+01
  -2.019993e+01  -4.427618e+01
  -3.301290e+01  -4.186476e+01
  -2.297948e+00  -7.684109e+01
   3.437356e+01  -2.204042e+01
   7.505526e+01   1.382270e+01
   2.612480e+01   6.551940e+01
  -1.751241e+01   4.171988e+01
  -4.498455e+01   2.944252e+01
  -2.395599e+01  -3.250158e+01
  -9.337159e+00  -4.487447e+01
   1.112462e+01   9.409135e+00
  -3.183538e+01   1.022133e+01
  -2.030860e+01   8.882126e+00
  -2.464338e+00  -1.102453e+01
   1.137770e+01  -2.932458e+01
   4.445288e+01  -1.525083e+01
   3.035601e+01   4.278012e+01
  -2.631213e+01   5.229994e+01
  -4.481531e+01  -5.563853e-01
  -7.219544e+01  -3.524839e+01
  -2.417252e+01  -1.339104e+01
   2.353918e+01  -3.835920e+01
   3.510110e+01  -1.982723e+00
   5.471260e+00   3.310765e+01
   1.435583e+01   3.399335e+00
  -2.135525e+01   2.367463e+00
   1.670121e+01  -1.770915e+00
   1.204744e+01   1.350439e+01
  -1.482197e+01   1.112143e+01
  -2.268641e+01  -9.576040e+00
  -8.564433e+00   1.293527e+01
   1.484447e+01  -2.315643e+01
   5.725745e+01  -4.428817e+01
   5.842717e+01   2.219553e+01
   7.732610e+01   1.866805e+01
   4.836931e+00   4.591587e+01
  -2.086701e+01   1.305561e+01
  -1.441187e+00   1.920567e+01
   4.532653e+01   6.646824e+00
   4.398938e+01   2.792753e+01
   1.309070e+01   5.401427e+01
  -5.215093e+01   3.368734e+01
  -5.951455e+01  -1.104205e+01
  -3.793084e+00  -3.060449e+01
  -1.703090e+01  -3.963569e+01
   2.054323e+01  -2.119852e+01
  -3.163992e+01  -1.000886e+01
   3.018908e+00  -2.050903e+01
  -2.014853e+01  -1.776895e+01
   1.997098e+01  -5.581037e+01
   2.218325e+01  -2.796041e+01
   3.011150e+01  -2.005160e+01
   3.556292e+01   5.459181e+00
   9.588179e+00   4.401806e+01
  -2.275154e+01   3.642258e+01
  -1.331952e+01  -1.687402e+01
  -5.549636e+00  -2.657003e+01
  -6.205013e+00   1.076895e+01
   4.273793e+01   4.272512e+00
  -7.126560e+00   1.638268e+01
   2.989885e+01  -2.059291e+00
  -3.606172e+00  -5.161110e+00
   6.381276e+00   7.940478e+00
   9.389549e+00   4.193062e+01
   3.607659e+00   3.682701e+01
  -1.789511e+01  -1.270284e+01
  -3.589492e+01  -6.568374e+00
  -2.742554e+01  -4.189274e+00
   2.898854e+01   2.070094e+01
   2.060897e+01  -1.999204e+01
   1.917038e+01   1.482117e+01
  -1.498627e+01   3.986233e+00
   1.908865e+01  -1.595238e+01
  -4.100409e+00  -1.947832e+01
  -6.125987e+00  -9.243108e+00
   1.033447e+01  -9.510980e+00
  -3.892996e+01   1.285733e+01
  -1.568549e+01   5.015592e+00
   1.285749e+01  -3.867174e+01
   1.055164e+01  -2.703277e+01
   8.362810e+00   3.833320e-02
   2.864355e+01   1.766353e+01
   1.485405e+01   3.991179e+01
  -2.887631e+01   8.107796e+01
  -5.470665e+01   5.085982e+01
   8.123201e+00  -1.252161e+01
  -1.134404e+00  -1.819173e+01
  -1.340446e+01   2.326478e+01
  -4.107213e-01  -1.403106e+00
  -2.434233e+01  -2.267098e+01
  -2.154654e+01  -3.410072e+01
   1.059114e+01  -3.103789e+01
   1.513040e+01   1.436025e+01
   3.221789e+01   2.150566e+01
   1.537286e+00   1.518825e+01
  -2.966281e+01  -1.368077e+01
   1.195269e+01  -1.879256e+01
   3.050916e+01  -2.344548e+01
   1.459743e+01  -8.562276e+00
   2.294968e+01   2.090186e+01
   1.135939e+01   2.938549e+01
  -2.821634e+01   1.301463e+01
  -5.547422e+00  -6.347088e+00
   1.273944e+01   1.905030e+01
   1.749764e+01  -1.686923e+00
   1.333548e+00   2.543622e+01
  -2.172138e+01   2.604978e+01
  -4.813564e+01  -2.230372e+00
  -3.303082e+01   1.188625e+01
   2.264544e+01  -2.708094e+01
  -1.108534e+01  -3.316472e+01
  -5.918102e+00  -1.848885e+01
  -1.360255e+01   1.321058e+01
   4.435495e+00   1.250910e+01
  -1.616021e+01  -2.662578e+01
   1.181046e+01  -1.326935e+01
  -8.701920e+00  -7.843200e+00
   1.264110e+01   1.346152e+01
   2.929510e+01   1.203257e+01
   2.423995e+01  -1.320705e+01
  -1.357525e+01   2.526340e+01
   2.266753e+01  -1.459107e+01
   8.342530e+00   2.380705e+01
   4.852473e+00   8.303008e+00
  -1.004187e+01  -7.658871e+00
   5.261094e+00  -2.020921e+01
   5.969981e+00  -8.014140e+00
   6.934987e+00  -3.264162e+01
   1.684433e+01  -1.411338e+01
  -1.679529e+01   8.641259e+00
  -3.037623e+01  -1.660916e+01
  -2.919701e+01  -1.662075e+01
  -7.238154e+00  -2.239762e+01
   1.765309e+01  -5.814288e+00
   3.808155e+00   1.228135e+01
   8.222773e+00   1.667082e+00
  -9.566113e+00  -1.748207e+01
   2.942254e+01  -2.166691e+00
   3.044192e+01  -2.712360e+01
   2.864291e+01  -1.538865e+01
