
 $NMID
 id='ANONYMOUS ', fmtdat='(2E16.6)'
 volume=1.0
 tramp=1.0
 $END
   1.147109e+03   1.194687e+02
   1.412811e+02   2.032366e+02
  -7.441981e+01   4.046275e+02
  -1.678819e+02   2.453994e+02
  -2.573226e+01   2.596100e+02
   4.663199e+01   1.649666e+02
  -1.259800e+02   8.403699e+01
  -1.322998e+02   3.205994e+01
  -1.147165e+02   8.027831e+01
  -1.038275e+02   2.513754e+01
  -3.420903e+01  -1.408074e+02
   1.918709e+01  -1.135035e+02
   4.234693e+01   3.940486e+01
  -4.827424e+01   1.034041e+02
  -9.727366e+01   6.521047e+01
  -3.133818e+01  -1.727446e+01
  -3.244212e+01  -9.748473e+01
  -1.054351e+01  -5.549044e+01
   8.674394e+01  -6.166981e+01
   6.523142e+01   3.947892e+00
   8.348976e+00   5.702827e+01
  -4.947595e+01   1.619043e+01
  -9.221419e+00  -1.519636e+01
   8.001780e+01   8.259494e+01
   3.157726e+01   1.151404e+02
  -7.650930e+01   7.438456e+01
  -1.692465e+02  -3.167955e+01
  -1.072745e+02  -5.563749e+01
   1.575714e+00  -6.681105e+01
   9.064781e+01   7.260525e+00
   1.250229e+02   8.235414e+01
   2.020064e+01   1.224554e+02
  -1.197380e+02   6.195797e+01
  -1.258669e+02  -1.067402e+01
  -5.427736e+01  -4.435475e+01
   1.039177e+01  -7.759933e+01
  -5.714856e+00   2.723274e+01
  -5.531158e+01   9.134798e+01
  -7.799948e+01  -4.045033e+00
  -4.482613e+01  -9.899540e+01
   6.571975e+01  -2.216987e+02
   1.602965e+02  -7.482554e+01
   7.413694e+01   8.182010e+01
  -4.549587e+01   4.884072e+01
  -7.802223e+01  -4.805167e+01
  -3.552735e+01  -9.078741e+01
   1.217210e+02  -1.222952e+02
   1.362877e+02   1.528320e+01
   1.221120e+02   1.276799e+02
   1.905442e+01   1.679710e+02
  -7.516531e+01   5.228667e+01
  -1.540411e+02  -1.938910e+01
  -7.359003e+01  -2.231850e+01
   6.055382e+00  -1.143896e+01
   7.777112e+01  -4.179680e+00
  -5.684572e+00   8.744685e-02
  -1.282284e+01  -3.619291e+01
  -4.772136e+00  -3.367849e+01
   3.302090e+01   2.259848e+01
   4.315817e+01   5.284100e+01
   9.189554e-01   6.821622e+01
  -7.824542e+01   8.373877e+01
  -8.075975e+01   6.214966e+01
  -4.813789e+01  -4.135037e+01
  -6.999201e+00  -1.079137e+02
   1.068137e+02  -9.679546e+01
   6.680389e+01  -3.706766e+01
   3.671054e+01   3.161993e+01
  -9.965182e+00   1.121693e+02
   7.574958e+00   9.415894e+01
  -7.641916e+00   8.000725e+01
   6.884224e+00   4.525840e+01
  -4.236408e+01   5.669172e+01
  -8.259999e+01  -8.468002e+00
  -1.049272e+02  -7.673907e+01
   2.701109e+00  -6.551713e+01
   5.661235e+01  -5.363749e+01
   7.580819e+01   4.498490e+01
   9.673324e+00   7.491366e+01
  -3.501595e+01   6.574784e+01
  -8.878244e+01  -2.309103e+01
  -8.797728e+01  -6.049284e+01
  -6.654118e+01  -4.210211e+01
  -1.379931e+01  -6.325475e+01
   5.309606e+01  -6.651659e+01
   3.805066e+01  -5.254311e+01
   5.852121e+01  -7.091912e+01
   1.190554e+02  -1.755819e+01
   1.454697e+02   4.793205e+01
   1.352648e+02   9.932007e+01
  -6.801796e+01   1.157190e+02
  -1.297311e+02   6.398954e+01
  -1.473945e+02   3.412185e+00
  -2.125041e+01  -2.127060e+01
  -1.067825e+01  -7.206117e+01
   2.279434e+01  -5.395441e+01
   1.911995e+00   2.476251e+01
  -5.509959e+01   2.318821e+01
  -2.137624e+01  -3.208094e+01
   1.949084e+01  -9.066187e+00
   2.810846e+01  -2.877323e+01
   4.326796e+01   5.174563e+01
  -2.539261e+01   4.394606e+01
  -4.231793e+01  -1.452001e+01
  -4.515039e+01  -7.316325e+01
   5.442423e+01  -7.554932e+01
   6.271290e+01  -7.231988e+01
   1.031565e+02   3.830485e+01
   5.182697e+01   6.144907e+01
   1.912678e+01   5.549541e+01
  -2.146668e+01   2.017056e+01
  -2.327596e+01  -1.935726e+00
   4.793549e+00  -8.853322e+00
   3.767019e+01   2.720542e+01
  -4.439630e+00   5.280968e+01
  -4.290549e+01   4.513548e+01
  -1.558615e+01  -4.909313e+01
   1.425432e+01  -3.491155e+01
   9.345657e+00   3.036014e+00
   9.081718e+00   4.713482e+01
  -5.296820e+01   9.626255e+00
  -1.076045e+02  -1.404578e+01
  -5.640155e+01  -7.773466e+01
  -5.320117e+00  -5.430717e+01
   7.137397e+01  -4.945251e+01
   8.559108e+01   1.822880e+01
   1.557456e+01   3.180923e+01
  -1.203819e+01   1.883216e+01
  -9.224609e-01  -5.132371e+00
   2.176093e+01  -4.748691e+01
   6.863258e+01  -1.443478e+01
   4.754897e+01   3.285834e+01
  -1.999263e-01   5.132634e+01
  -3.228540e+01   2.439176e+01
  -4.798594e+01  -1.671531e+00
   3.746050e+00  -2.864751e+01
   2.069773e+01  -6.547088e+00
   1.299227e+01   2.998016e+01
  -3.478680e+01   4.114012e+01
  -7.087951e+01  -8.273418e+00
  -6.105674e+01  -3.665892e+01
   1.280929e+01  -7.381023e+01
   6.746229e+01  -2.510040e+01
   2.479745e+01   2.637445e+01
   7.855000e+00   5.149991e+00
   7.677803e+00   7.993175e+00
  -2.324034e+01  -2.519165e+00
   1.446638e+00  -4.150763e+00
   1.113901e+01  -2.521111e+01
   1.342994e+01   1.120862e+01
  -3.334797e+01  -2.118714e+01
  -3.599878e+01  -5.362086e+01
  -8.588814e+00  -7.008398e+01
   7.342467e+01  -7.603788e+01
   7.987893e+01   3.056330e+00
  -4.214833e-01   4.842491e+01
  -2.641059e+01   2.321014e+01
  -3.775874e+01   5.676943e+01
  -3.148514e+01  -6.284088e+00
  -3.046567e+01  -2.027363e+01
  -2.706167e+01   1.655714e+00
  -4.712214e+01   2.858837e+01
  -4.136552e+01   2.424770e+01
  -3.432910e+01  -3.779021e+01
  -3.729352e+00  -2.861444e+01
   4.982401e+01   6.715275e-01
   1.458307e+01  -1.914894e+00
  -1.557801e+01   4.046245e+01
  -5.254382e+01   4.872524e+00
  -3.950256e+01  -2.851732e+01
   6.535970e-03  -8.925068e+01
   4.205227e+01  -8.015343e+01
   8.233790e+01  -2.889909e+01
   5.891213e+01   1.271053e+01
   3.598624e+01   6.230058e+01
  -9.573660e+00   5.384708e+01
  -2.497164e+01   5.326885e+01
  -2.871545e+01  -4.687038e+00
  -3.819840e+01   1.241338e+01
  -5.069157e+01  -2.183681e+00
  -3.471933e+01  -2.570787e+01
  -3.837663e+01  -4.307624e+01
   3.376421e+00  -6.582155e+01
   5.648913e+01  -2.575172e+01
   3.645208e+01   1.398073e+01
   2.682585e+01   1.211277e+01
   1.118069e+01   3.194610e+01
  -1.326370e+01   6.848939e+00
   9.759455e-01  -2.546796e+01
  -2.218694e+00  -1.584985e+01
   1.349204e+01   2.963737e+01
  -1.014910e+01   1.262616e+01
  -1.372918e+01   9.821271e+00
  -3.378588e+01  -1.308591e+01
   1.234331e+01  -2.475976e+01
   7.482708e+01  -7.555662e+00
   5.550897e+01   3.688874e+01
  -1.450021e+01   5.363674e+01
  -4.537720e+01   5.957285e+00
  -3.158334e+01  -3.826477e+00
   1.002591e+01  -3.081581e+00
   1.856775e+01  -2.110961e+01
  -8.808445e+00  -9.671117e+00
  -1.027132e+01   3.658427e+01
   1.465102e+01  -4.097406e+00
  -6.077240e-01  -2.705377e+01
  -2.547528e+01   1.753509e+01
  -2.293577e+01   2.508791e+01
  -3.475088e+01  -2.859575e+01
  -4.839933e+00  -1.346388e+01
   6.826259e+00  -2.891651e+01
   1.238273e+01  -4.536497e+01
   4.284570e+01  -2.206583e+01
   3.940871e+01  -1.559389e+01
   4.867885e+01   2.561906e+01
  -7.536368e+00   4.252938e+01
  -8.697473e+01   1.552604e+01
  -1.464151e+01   2.265867e+00
   7.294446e+00  -1.882389e+01
   3.330645e+01   7.122670e+00
   4.186570e+01   4.445385e+00
  -4.742703e+01   5.242989e+01
  -5.640008e+01  -1.312408e+01
  -8.877491e+00  -2.678955e+01
  -2.377726e+01  -1.549085e+01
   3.464455e+01  -9.511645e+00
  -1.857923e+01   2.673890e+01
   7.783765e+00  -1.673808e+01
  -2.147386e+01  -9.893497e+00
   1.953633e+01  -8.940438e+00
   2.744420e+01  -3.559595e+01
   4.320637e+01  -2.503347e+01
   3.648441e+01   2.188608e+01
   2.105296e+00   8.218103e+01
   1.421419e+00   2.818461e+01
  -2.399706e+01  -7.464675e+00
  -1.385478e+01  -2.872341e+01
  -3.554693e+00  -5.366416e+01
   3.156170e+01  -2.451011e+01
   1.430641e+01  -7.730511e+00
  -1.034376e+01  -3.398037e+01
   1.582634e+01  -5.781301e+00
   3.298509e+01   3.854356e+01
   2.339819e+00   4.127000e+01
  -1.837445e+01   1.957996e+01
  -1.899301e+01   2.172929e+01
  -2.192279e+01  -3.341621e+01
  -1.392911e+01  -1.217738e+01
   4.608963e-02  -5.288127e+00
   9.158394e+00  -4.144658e+00
   1.887368e+01   3.774124e-01
   2.936229e+01   2.739382e+00
  -1.716397e+01   1.708465e+01
  -1.846284e+01   5.111243e+00
   6.363779e+00   8.690153e+00
   4.470408e+00   1.381013e+01
  -5.630101e+00  -3.462401e+00
  -2.074577e+01   3.030907e+00
  -6.464662e+00  -1.162934e+01
   4.694416e+01  -5.721488e+01
   3.326895e+01  -1.452209e+01
   2.042515e+01   2.916711e+01
  -7.490117e+00   4.127426e+01
  -7.451086e+00   4.818612e+01
  -2.697131e+01  -1.121442e+00
  -2.300318e+01  -2.404043e+01
  -8.191587e+00  -8.319589e+00
  -1.542932e+01   2.967026e+01
  -2.218120e+01  -7.361526e+00
  -8.044205e+00  -1.644400e+01
   1.578462e+01  -2.167722e+01
   8.628354e+00  -1.185419e+01
   5.087620e+00  -3.171460e+00
   9.616530e+00  -3.805207e+00
   2.701882e+01   1.207319e+01
   2.854273e+01  -5.802770e+01
  -5.435343e+00  -1.474743e+00
   1.808613e+00  -3.458951e+01
   1.891816e+01  -3.044323e+01
   8.889715e+00  -2.159418e+00
   3.352320e+01   1.570628e+01
  -2.242723e+01   2.409197e+01
  -3.691386e+01   1.517750e+01
  -2.877138e+01  -1.135786e+01
   7.970428e+00  -1.548584e+01
   5.048112e+01  -4.312571e+00
   5.851929e+00   2.680838e+01
  -2.366227e+01   1.046770e+01
  -3.114651e+01  -6.296546e-01
  -1.673876e+01  -3.856527e-01
   2.910366e+01  -3.250613e+01
  -1.834784e+01   2.272163e+00
  -2.259503e+01   1.304755e+01
  -2.114992e+01  -3.818362e+00
  -1.862059e+01  -1.426506e+01
   1.799134e+01  -2.262754e+01
   1.655868e+01   1.968909e+01
  -2.298356e+01   5.456754e+00
   5.164895e+00  -1.428747e+01
   1.282037e+01  -3.156569e+01
   1.948394e+01  -1.119896e+01
   1.072817e+01   6.629379e+00
   3.934770e+01   1.673326e+00
  -9.626449e+00   2.365561e+01
  -5.361159e+01  -9.353746e+00
  -3.770254e+01  -4.688655e+00
   1.196312e+01  -1.800616e+01
   3.009930e+01  -2.033659e-01
  -2.144066e+01   2.795669e+01
  -2.208280e+01   3.143238e+01
  -7.031551e+00   5.082123e+00
  -2.374776e+01  -1.656907e+01
   3.516468e+00  -7.953624e+00
   3.754571e+01  -1.573298e+01
   2.112948e+01   3.953719e+00
  -1.276598e+01   3.613590e+01
   2.542836e+00  -8.865555e+00
   1.764099e-01  -3.962878e+00
   1.592076e+01   4.000018e+00
   1.714709e+01   1.439882e+00
