
 $NMID
 id='ANONYMOUS ', fmtdat='(2E16.6)'
 volume=1.0
 tramp=1.0
 $END
   2.231564e+03  -4.549704e+02
   1.435500e+03   5.617129e+02
   3.963782e+02   1.280501e+03
  -7.237035e+02   1.121245e+03
  -6.932983e+02   3.135109e+02
  -1.653985e+02  -6.532509e+01
   1.560412e+02   6.432149e+01
   3.680629e+01   2.694787e+02
  -2.039750e+02   3.912526e+02
  -3.204603e+02   1.019950e+02
  -3.342758e+02  -2.552676e+02
  -1.582683e+02  -3.832854e+02
   1.477147e+02  -1.940654e+02
   1.601322e+02   2.000721e+02
   5.704931e+00   3.784234e+02
  -1.931356e+02   1.383295e+02
  -2.497048e+02  -2.410438e+02
   4.742154e+01  -4.142671e+02
   3.802574e+02  -2.626130e+02
   3.536913e+02   1.018475e+02
   1.498251e+02   2.474924e+02
  -4.914033e+01   2.245074e+02
  -1.339245e+01   1.406796e+02
   1.358702e+02   1.922390e+02
   1.308700e+02   2.556809e+02
  -5.987735e+01   2.083768e+02
  -2.643456e+02   1.029695e+02
  -3.808050e+02  -2.265363e+01
  -1.363812e+02  -2.312997e+02
   1.851660e+02  -2.396511e+01
   3.144413e+02   8.514637e+01
   1.580228e+02   1.964641e+02
  -1.669157e+02   2.444567e+02
  -2.895042e+02   8.423424e+01
  -2.304627e+02  -8.343798e+01
  -4.396891e+01  -1.701033e+02
  -5.502004e+01  -1.191444e+02
  -7.563189e+01   1.756398e+01
  -1.265594e+02   2.073164e+01
  -1.051236e+02  -1.213426e+02
  -1.989205e+01  -2.839171e+02
   3.634584e+01  -3.251960e+02
   2.143599e+02  -5.968417e+01
   8.738777e+01   1.584312e+02
  -5.229619e+01   3.743328e+01
  -6.184411e+01  -2.014286e+02
   8.013304e+01  -2.467777e+02
   3.080653e+02  -2.989837e+01
   3.430071e+02   2.153375e+02
   1.098232e+02   3.705996e+02
  -1.690434e+02   1.615359e+02
  -2.912450e+02  -1.991753e+01
  -2.694292e+02  -1.228030e+02
   5.488890e+00  -1.297483e+02
   2.249105e+02  -7.651441e+01
   1.464210e+02   2.862611e+00
   2.722973e+01   3.605425e+00
  -3.361782e+01  -2.333598e+01
   5.029023e+01   7.538194e+00
   1.007436e+02   6.759257e+01
   6.850119e+01   8.265415e+01
  -9.905076e+01   1.896596e+02
  -3.098811e+02   6.705772e+01
  -1.966024e+02  -1.001332e+02
   1.148592e+01  -2.881039e+02
   2.566375e+02  -2.542343e+02
   2.596399e+02  -1.234909e+02
   1.241336e+02   1.205614e+02
   6.650379e+01   2.574267e+02
   2.523843e+01   1.684150e+02
   2.925096e+01   1.384370e+02
  -1.621822e+01   1.318728e+02
  -1.857003e+02   6.433044e+01
  -2.167261e+02   1.834034e+01
  -1.800460e+02  -1.251235e+02
  -2.297841e+01  -1.758613e+02
   7.157290e+01  -1.167694e+02
   1.304229e+02   3.703676e+01
   8.646672e+01   1.999535e+02
  -5.320930e+01   1.659079e+02
  -1.894641e+02   1.272221e+01
  -2.186310e+02  -1.082135e+02
  -1.538840e+02  -2.212666e+02
   2.532467e+01  -1.537426e+02
   1.223975e+02  -1.740167e+02
   9.461610e+01  -1.155364e+02
   1.510559e+02  -7.714995e+01
   2.499330e+02  -2.102722e+01
   3.064706e+02   1.042520e+02
   2.450789e+02   2.174114e+02
  -2.558571e+01   3.266506e+02
  -3.035062e+02   2.732021e+02
  -3.870730e+02   1.236517e+02
  -2.012371e+02  -4.227788e+01
   4.655091e+00  -1.769518e+02
   3.343041e+01  -1.388566e+02
  -2.002970e+00  -4.563666e+00
  -5.887222e+01  -8.864794e+00
  -4.958726e+01  -4.894281e+01
   1.342137e+00  -7.701174e+01
   6.146527e+01  -8.438187e+01
   7.074943e+01   1.150747e+01
  -8.004963e+00   9.099811e+01
  -9.924112e+01  -2.240298e+00
  -8.774464e+01  -1.812835e+02
  -4.620202e+01  -2.838327e+02
   2.028278e+02  -1.916574e+02
   2.893304e+02   1.604006e+01
   2.438729e+02   2.031830e+02
   3.089708e+01   2.416904e+02
  -8.325864e+01   1.141355e+02
  -1.228016e+02  -9.705950e-01
  -4.693830e+00  -2.543974e+01
  -5.976494e+00   5.214360e+01
  -1.042246e+01   9.426819e+01
  -6.394443e+01   4.584704e+01
  -8.075897e+01  -8.410625e+00
  -1.439997e+01  -3.830732e+01
   6.467814e+01   5.558124e+01
   1.917016e+01   9.359928e+01
  -1.047545e+02   5.673092e+01
  -2.460919e+02  -1.817832e+01
  -1.886943e+02  -1.229985e+02
   5.119895e+00  -2.185871e+02
   1.706652e+02  -1.128913e+02
   1.727151e+02  -1.949033e+01
   7.618264e+01   4.268436e+01
  -9.064931e+00   5.622198e+01
  -1.278430e+01  -2.730779e+01
   5.040241e+01  -7.874181e+01
   1.233253e+02  -1.065910e+01
   1.248484e+02   8.146612e+01
   3.659517e+01   1.265296e+02
  -7.168946e+01   9.038047e+01
  -7.299582e+01   1.157643e+01
  -2.658658e+01  -3.029131e+01
   4.390384e+01   4.679342e+00
   2.840856e+01   8.274547e+01
  -6.826867e+01   9.754333e+01
  -1.815117e+02  -4.590984e+01
  -1.254919e+02  -1.052822e+02
   2.487797e+00  -1.663650e+02
   1.316474e+02  -9.605031e+01
   1.189710e+02   2.479244e+01
   3.959778e+01   5.336049e+01
  -3.933106e+01   3.146349e+01
  -3.836797e+01  -2.931680e+00
   1.182851e+01  -1.289685e+00
   3.415269e+01   2.751571e+01
  -1.688956e+01   2.394457e+01
  -1.169035e+02  -7.392831e-01
  -9.988707e+01  -4.920604e+01
   3.992507e+00  -1.444919e+02
   1.161238e+02  -1.383500e+02
   2.042973e+02   7.302899e+00
   1.222114e+02   1.238368e+02
   2.245204e+01   1.566300e+02
  -4.164104e+01   1.019964e+02
  -8.080374e+01   2.978160e+01
  -8.387925e+01  -4.884988e+01
  -3.930291e+01  -1.264210e+01
  -1.359507e+01   2.875914e+01
  -6.156276e+01   1.886820e+01
  -3.890223e+01  -6.491458e+01
   4.932534e+01  -6.850366e+01
   1.222930e+02  -7.326939e+01
   5.923825e+01   5.737118e+01
  -1.361465e+01   1.282316e+02
  -1.321723e+02   6.983779e+01
  -1.788767e+02  -7.375072e+01
  -6.283561e+01  -1.966467e+02
   8.829824e+01  -1.885960e+02
   2.415335e+02  -6.899627e+01
   1.650215e+02   9.869654e+01
   6.175910e+01   1.157725e+02
  -2.713886e+01   9.931054e+01
  -9.033215e+01   9.678966e+01
  -5.473711e+00   5.449330e+01
  -5.502331e+01   7.187310e+01
  -9.021996e+01   6.115451e+01
  -1.374521e+02  -2.390904e+01
  -1.148915e+02  -1.416648e+02
  -6.905441e+01  -1.860763e+02
   1.203742e+02  -1.432986e+02
   1.361838e+02  -2.407809e+01
   8.060816e+01   1.308383e+02
  -1.133212e+01   1.319667e+02
  -8.298724e+01   3.642418e+01
  -3.865637e+01  -4.300091e+01
  -1.089434e+01  -5.273261e+01
   5.421248e+01  -2.345591e+01
   3.666618e+01  -2.128307e+01
  -3.778517e+01  -9.637086e+00
  -4.112691e+01  -9.273810e+00
   5.571781e+01  -1.812870e+01
   1.355785e+02   2.747162e+01
   1.174657e+02   7.871019e+01
  -3.899077e+01   1.118831e+02
  -1.370867e+02   5.864335e+01
  -1.139444e+02  -1.792536e+01
  -4.488434e+01  -3.432984e+01
   5.418026e+01  -3.078875e+01
   5.162455e+01   1.094356e+01
   5.207242e+00   5.574912e+01
  -4.826944e+01   6.207552e+01
  -4.447383e+01  -2.470985e+01
  -4.442230e+01  -6.510695e+01
  -6.484397e+01  -4.665585e+01
  -7.444599e+01   1.454846e+00
  -6.112478e+01  -3.093291e+01
  -8.216649e+01  -8.434310e+01
   3.251220e+01  -1.535755e+02
   1.102069e+02  -1.189548e+02
   1.675341e+02  -3.030487e+01
   1.086195e+02   9.090637e+01
   8.009312e+00   1.177918e+02
  -6.880367e+01   6.009601e+01
  -3.306206e+01   4.665217e+00
   2.817890e+01  -2.377159e+01
   1.000448e+02   1.972059e+01
   2.929635e+01   5.764669e+01
  -1.159526e+02   6.885197e+01
  -1.293794e+02   1.663042e+01
  -1.300344e+02  -6.983175e+01
  -4.436074e-01  -5.489798e+01
   4.252300e+01  -3.465818e+01
   4.416542e+01   2.109734e+01
  -5.109455e+01  -2.596929e+00
  -8.172329e+01  -6.098868e+00
  -6.765328e+01  -9.652399e+01
   8.724322e+01  -1.050040e+02
   1.399072e+02  -2.583817e+01
   1.023610e+02   7.526681e+01
   4.555817e+01   1.253121e+02
  -7.714266e+01   7.479062e+01
  -6.916001e+01  -7.856325e+00
  -3.337748e+01  -1.141506e+02
  -1.243992e+01  -3.926560e+01
   4.085791e+01  -2.748494e+01
   2.655498e+01  -1.584779e+01
   3.814233e+01   1.340477e+01
   3.111979e+01   7.388143e+00
  -2.806602e+00   2.679393e+01
   5.897356e+01   7.324526e+01
   2.253558e+01   8.121060e+01
  -4.913208e+01   4.296739e+01
  -8.383841e+01  -3.742123e+01
  -9.850137e+01  -3.348218e+01
  -2.904393e+01  -4.032810e+01
   9.119965e+01  -2.132802e+00
   5.707635e+01   1.725723e+01
   1.964802e+01   2.733879e+01
  -3.470462e+01   3.634682e+01
  -1.542079e+00   1.934985e+01
   1.256657e+01  -5.318066e+00
  -2.863713e+01   1.099436e+01
  -5.232897e+01   6.983663e-01
  -7.084545e+01  -1.564385e+00
  -3.117636e+01  -4.785764e+01
   1.114037e+02  -1.020206e+02
   1.366918e+02  -8.018026e+01
   1.460699e+02   7.118105e+01
   3.963678e+01   1.080843e+02
  -4.432041e+01   1.193044e+02
  -9.397847e+01   8.854338e+01
  -7.027736e+01  -5.059653e+00
  -1.458507e+01  -1.071727e+01
   1.900272e+01  -9.270919e+00
  -1.405462e+01   8.767449e-01
   8.732354e+00  -5.388477e+01
  -3.809980e+01  -2.999944e+01
   3.658857e+01  -2.709474e+01
   8.893513e+01   4.286158e+01
   7.753640e+01   6.961261e+01
   3.577184e+01   8.968956e+01
  -4.588248e+01   2.674507e+01
  -5.059366e+01  -1.343375e+01
  -4.956541e+01  -3.955507e+01
   3.464335e+01  -5.739686e+01
   8.881325e+01   2.784637e-03
   3.158769e+01   2.880790e+01
  -2.010042e+01   4.392449e+01
  -3.826301e+01   2.003036e+01
  -7.272176e+00  -3.803707e+01
   5.936968e+01   4.320802e+00
   2.267346e+01   3.136733e+01
  -8.208786e+01   7.311943e+01
  -9.445940e+01   4.119223e+01
  -7.175025e+01  -1.796022e+01
   9.669707e+00  -4.217666e+01
   5.414088e+01  -6.285130e+01
   2.511687e+01  -3.336322e+01
  -3.734623e+00   5.035850e+01
  -2.246512e+01   3.838748e+01
  -3.242577e+01  -3.306635e+00
  -3.417733e+01  -6.986223e+01
   1.406765e+01  -2.970389e+01
   3.193549e+01   5.943019e+00
   1.339054e+01   4.060261e+01
  -1.536654e+01   2.897874e+01
   2.827309e+00  -8.610232e+01
  -1.789468e+01  -1.371872e+01
   3.258759e+01   1.135875e+01
  -2.295207e+01   7.223904e+01
  -4.912673e+01   2.996603e+01
  -2.771734e+01  -8.003767e+00
  -1.584177e+01  -3.841944e+01
   3.813550e+01  -2.493113e+01
   3.808985e+01   2.340572e+01
   3.180394e+01   6.155761e+01
  -7.253238e+01   8.408224e+00
  -6.782230e+01  -1.730908e+01
  -4.105570e+01  -5.385902e+01
   2.695709e+01  -4.014676e+01
   7.847639e+01   6.326196e-02
   3.377743e+01   1.790373e+01
  -3.359330e+01   1.714571e+01
  -4.295017e+01  -8.450429e+00
   1.478421e+01  -1.075316e+01
   8.404127e+01   1.112551e+01
