
 $NMID
 id='ANONYMOUS ', fmtdat='(2E16.6)'
 volume=1.0
 tramp=1.0
 $END
  -2.545022e+03  -1.923745e+02
  -1.620352e+03  -1.412033e+03
   1.124562e+02  -1.379137e+03
   9.071659e+02  -9.473648e+02
   6.093539e+02  -1.777639e+02
   9.679380e+01   1.241422e+02
  -2.189169e+02  -6.605864e+01
   7.693433e+00  -3.389594e+02
   2.572826e+02  -3.675522e+02
   3.710872e+02  -9.312509e+01
   3.491075e+02   3.408015e+02
   7.895025e+01   4.568193e+02
  -1.319606e+02   2.133127e+02
  -1.413125e+02  -2.881355e+02
   5.233127e+01  -3.717861e+02
   2.461576e+02  -1.014605e+02
   2.047181e+02   2.838242e+02
  -6.500046e+01   3.522218e+02
  -2.664787e+02   1.747619e+02
  -3.290045e+02  -8.423628e+01
  -1.210837e+02  -2.575090e+02
   2.365475e+01  -1.997195e+02
  -1.804842e+01  -9.855223e+01
  -1.223265e+02  -1.138738e+02
  -1.640910e+02  -2.293383e+02
  -5.224277e+00  -2.858319e+02
   3.493108e+02  -4.938682e+01
   4.378553e+02   1.910558e+02
   1.055306e+02   2.655711e+02
  -2.452931e+02   3.570320e+01
  -3.357849e+02  -1.372217e+02
  -9.935223e+01  -2.718736e+02
   1.667019e+02  -2.247615e+02
   3.173194e+02  -1.449292e+02
   2.459507e+02   7.340102e+01
   1.028708e+02   2.706674e+02
   3.514045e+01   1.713029e+02
   7.106829e+01  -1.875344e+01
   1.164463e+02  -1.350439e+02
   1.419899e+02   1.072729e+02
   7.230229e+01   3.691681e+02
  -1.475262e+02   3.290661e+02
  -2.547646e+02   2.453236e+01
  -1.057888e+02  -2.389410e+02
   1.152203e+02  -1.261428e+02
   8.923998e+01   2.241003e+02
  -8.323660e+01   2.287078e+02
  -3.369006e+02   9.340620e+00
  -3.016850e+02  -2.500576e+02
  -1.214978e+02  -3.417927e+02
   2.067055e+02  -2.063998e+02
   3.462884e+02   2.269999e+01
   2.519469e+02   1.903769e+02
  -4.389890e+01   1.993876e+02
  -1.787630e+02   3.544665e+01
  -1.274681e+02   3.373666e+00
  -1.835800e+01  -3.477751e+01
  -1.620508e+01   2.063121e+01
  -7.291431e+01   1.657055e+01
  -1.682037e+02  -1.840483e+01
  -6.328218e+01  -1.260541e+02
   1.191110e+02  -1.842040e+02
   1.993425e+02  -1.276125e+02
   1.693892e+02   3.905648e+00
   2.920904e+01   2.198144e+02
  -1.961804e+02   2.836705e+02
  -2.796054e+02   1.684095e+02
  -1.939306e+02  -9.506846e+01
  -6.820704e+01  -2.595743e+02
  -2.629445e+01  -2.329231e+02
  -2.755029e+01  -1.692787e+02
   3.708218e+01  -1.448915e+02
   1.014479e+02  -9.928508e+01
   2.049545e+02  -1.853776e+01
   1.759492e+02   6.803461e+01
   4.529793e+01   1.791170e+02
  -6.985026e+01   1.354749e+02
  -1.061739e+02  -3.740488e+01
  -1.039712e+02  -1.667270e+02
   3.375326e+01  -1.693885e+02
   1.678163e+02  -5.504071e+01
   2.184132e+02   1.355417e+02
   1.507287e+02   2.095424e+02
  -3.846885e+01   1.801878e+02
  -1.405494e+02   1.567541e+02
  -1.257083e+02   7.301692e+01
  -1.449436e+02   6.327016e+01
  -2.465587e+02   3.400803e+01
  -3.221070e+02  -7.203517e+01
  -2.227852e+02  -2.351875e+02
   3.176544e+01  -3.323431e+02
   2.757755e+02  -3.326030e+02
   3.261089e+02  -1.395015e+02
   1.944200e+02   7.885084e+01
   3.216343e+01   1.736642e+02
  -6.734341e+01   1.790112e+02
  -4.437805e+00   5.179652e+01
   5.733920e+01  -1.329985e+01
   8.805225e+01   2.183548e+01
  -2.224776e+00   1.099749e+02
  -1.117336e+02   5.178583e+01
  -7.017945e+01  -4.284656e+01
   7.608119e+01  -9.831329e+01
   1.319068e+02   2.674425e+01
   1.015097e+02   1.716140e+02
  -1.104085e+01   2.575399e+02
  -2.053903e+02   1.668948e+02
  -2.663552e+02  -2.678727e+01
  -2.035921e+02  -1.863297e+02
  -4.257555e+01  -1.979020e+02
   9.288795e+01  -8.392203e+01
   1.047906e+02   2.228459e+01
   5.131957e+01   1.828312e+01
  -1.905011e+01  -5.292014e+01
  -1.085926e+01  -8.017991e+01
   1.290748e+02  -2.465741e+01
   1.092364e+02   6.224269e+01
   1.986194e+01   4.663124e+01
  -7.932821e+01  -2.309855e+01
  -2.821218e+01  -4.467290e+01
   1.078695e+02  -5.129326e+01
   2.374015e+02  -6.115661e+00
   1.424645e+02   1.016489e+02
   5.081563e+00   2.161145e+02
  -1.727467e+02   1.418081e+02
  -2.153886e+02   9.396127e+01
  -7.101013e+01  -4.101121e+01
   3.553877e+01  -7.810718e+01
   5.355017e+01  -9.785077e+00
  -4.469668e+01   2.948825e+01
  -1.066908e+02   3.496532e+01
  -1.065464e+02  -8.487714e+01
  -5.974786e+01  -1.209704e+02
   5.064618e+01  -1.183466e+02
   8.354802e+01  -7.543573e+00
   5.991536e+01   2.914710e+01
  -3.933017e+01  -5.884972e-01
  -5.318326e+00  -8.116020e+01
   1.053587e+02  -6.810011e+01
   1.344223e+02   3.973277e+00
   1.328591e+02   7.900567e+01
  -1.020596e+01   1.714537e+02
  -9.890320e+01   1.288967e+02
  -1.197058e+02   2.301500e+01
  -2.038701e+01  -6.539033e+01
   3.905589e+01  -8.210703e+01
   3.955047e+01  -3.439129e+01
  -1.597178e+01   2.145926e+01
  -2.679384e+01   1.217204e+01
  -1.444145e+01  -1.500790e+01
   1.014200e+02  -3.733403e+01
   5.104869e+01   4.842497e+01
  -1.814095e+01   1.401141e+02
  -7.502888e+01   1.033528e+02
  -1.606137e+02   5.885069e+00
  -1.199455e+02  -9.427859e+01
  -5.175617e+01  -1.507753e+02
   6.886141e+01  -1.174705e+02
   8.030398e+01  -4.383189e+01
   7.058560e+01   1.741044e+01
   4.823899e+01   3.934529e+01
   4.631161e+01  -2.546067e+01
   6.701300e+01  -4.463971e+01
   3.747985e+01   1.971354e+01
  -1.982368e+01   6.667749e+01
  -7.095247e+01   6.127831e+01
  -6.475285e+01  -2.526251e+01
   3.768344e+00  -6.090906e+01
   9.730142e+01  -6.713661e+01
   1.210781e+02   3.425999e+01
   4.273824e+01   1.372007e+02
  -9.057342e+01   1.460310e+02
  -1.941939e+02   6.015565e+01
  -1.554562e+02  -4.164610e+01
  -5.021066e+01  -1.207451e+02
   2.233904e+01  -1.099001e+02
   6.434038e+01  -7.753623e+01
   7.206235e+01  -4.119645e+01
   5.301533e+01  -6.944929e+01
   1.658242e+01  -5.934440e+01
   1.080396e+02   2.607803e+01
   9.384341e+01   8.784159e+01
   1.752269e+01   1.872809e+02
  -7.869495e+01   1.218399e+02
  -1.112794e+02   3.438538e+01
  -7.879784e+01  -6.762960e+01
  -2.780520e+01  -1.149742e+02
   5.156875e+01  -5.386955e+01
   2.561829e+01   3.914203e+01
   2.723415e+01   1.465676e+01
   2.476326e+01   5.357408e+01
   1.496850e+01  -4.876836e+00
   1.028855e+02  -1.382682e+01
   1.892270e+01   8.029468e+00
  -2.002909e+01   5.020465e+01
  -1.010965e+02   1.548357e+00
  -1.119040e+02  -2.336333e+01
  -1.720326e+01  -6.911996e+01
   8.575438e+01  -5.961165e+01
   1.168076e+02  -3.665308e+01
   2.065191e+01   5.279603e+00
  -2.391089e+01   5.100495e+01
  -6.074552e+01   2.861867e+01
  -2.107504e+01  -5.866730e+01
   2.107865e+01  -9.217254e+01
   4.180107e+01  -1.347944e+01
   4.868991e+01   4.099626e+01
   4.598239e+01   3.889307e+01
   5.324772e+01  -5.166125e+00
   3.939741e+01  -5.582356e-01
   2.370680e+01   6.321034e+01
  -2.501995e+01   1.236242e+02
  -1.005376e+02   8.322494e+01
  -1.607175e+02   5.231113e+01
  -8.127195e+01  -6.132579e+01
  -2.284500e+01  -8.423176e+01
   4.567815e+01  -5.870078e+01
   4.236238e+01   2.173358e+01
  -4.891734e+01   3.377051e+01
  -8.983538e+01  -2.984021e+01
  -6.158030e+01  -6.639821e+01
   5.340797e+01  -6.942796e+01
   1.335509e+02  -3.242143e+01
   9.558879e+01   4.042050e+01
   2.855364e+01   4.856327e+01
  -5.152720e+01   6.253234e+01
  -6.583544e+01  -3.023803e+01
   2.852971e+01  -1.738661e+01
   6.652120e+01   2.836904e+01
   4.078355e+01   1.010233e+02
  -3.439643e+01   1.200986e+02
  -1.690340e+02   4.871280e+01
  -8.058148e+01  -6.659870e+01
  -1.461995e+01  -1.222366e+02
   6.035613e+01  -7.065969e+01
   5.809731e+01   4.199238e+00
   5.118196e+01   1.047533e+02
   1.047451e+00   7.726427e+01
  -6.179740e+00  -4.692958e+00
  -3.363607e+01  -2.613441e+01
  -2.356525e+01   1.731300e+01
   7.572896e-01  -8.913698e+00
  -3.247491e+01  -1.852777e+01
  -4.467875e+01  -3.144979e+01
  -5.638664e+01  -7.087252e+01
   5.313068e+01  -2.056597e+01
   1.267040e+02   1.015652e+01
   7.863567e+01   6.003668e+01
   2.160942e+01   7.283728e+01
  -3.993035e+01   2.004049e+01
  -7.850070e+01   5.836461e+00
   5.252161e+00  -1.555016e+01
   2.211786e+01   5.122017e-01
   7.855090e+00   1.438863e+01
   1.606942e+01   1.099486e+01
   7.130953e+00  -9.308025e+00
   4.883649e+01   2.526614e+01
   2.676117e+01   1.099421e+01
  -4.684494e-01   1.960691e+01
  -6.686841e+01   1.189997e+02
  -1.229032e+02   6.487480e+01
  -9.201250e+01  -6.499439e+01
  -5.208172e+01  -9.976551e+01
   4.766065e+01  -1.326314e+02
   8.897327e+01  -7.066374e+01
   4.859955e+01  -4.196844e+01
   1.221937e+01   2.616416e+01
   6.722263e-01  -9.965650e-01
   1.126627e+01  -3.388747e+00
   4.239224e+01   2.249628e+01
   1.133542e+01   9.719533e+01
   9.050677e+00   6.184758e+01
  -4.782999e+01   1.656679e+01
  -8.822488e+01  -5.017427e+01
  -2.090842e+01  -6.712993e+01
   4.994713e+01  -2.952373e+01
   7.010255e+01   4.862766e+01
   2.166904e+01   5.628987e+01
  -2.197876e+01   5.747851e+01
  -7.026194e+01  -2.350168e+00
  -2.030362e+01  -3.435374e+01
   2.519346e+01  -5.012547e+01
   2.451410e+01  -3.759828e+01
  -3.877527e+01   3.863752e+00
  -4.966333e+01   1.884538e+00
  -1.807863e+01  -5.266266e+01
   5.866098e+01  -4.290856e+01
   1.073106e+02  -4.601257e+01
   8.349791e+01   1.694905e+01
   1.914192e+01   3.497442e+01
  -4.192138e+01   5.524782e+01
  -1.629918e+01   5.477553e+01
  -3.708972e+01  -4.331420e+01
   2.295260e+01  -4.692335e+01
   3.320025e+01   1.634866e+01
   2.454132e+01   3.722087e+01
  -3.760761e+01   4.173242e+01
  -4.662581e+01  -2.997478e+01
  -1.799405e+01  -1.931662e+01
  -1.342052e+01   6.975459e+00
  -2.930023e+01   2.865969e+01
   6.741613e+00   2.103479e+01
  -2.282455e+01  -3.860398e+01
  -3.236135e+01  -3.057565e+01
  -2.767497e+01  -1.841588e+01
   1.504493e+01   3.976782e+01
   4.092850e+00   5.534967e+01
  -4.455765e-01  -2.688783e+01
  -4.886469e+01  -3.208432e+01
  -9.719802e+00  -1.973666e+01
   7.238794e+01  -2.249631e+01
   7.913549e+01   2.731588e+01
   4.217745e+01   2.703186e+01
  -1.484134e+01   3.906853e+01
  -3.788516e+01   4.683724e+01
  -3.152238e+01   1.857833e+01
   1.650663e+01  -1.468983e+01
   5.894637e+00   1.672422e+01
  -2.902720e+01   1.248788e+01
  -8.388033e+01   5.303709e+01
