
 $NMID
 id='ANONYMOUS ', fmtdat='(2E16.6)'
 volume=1.0
 tramp=1.0
 $END
  -6.504187e+02  -1.322641e+01
  -3.675014e+02  -4.646378e+00
  -3.921556e+01  -3.351192e+01
   8.215344e+01  -1.896276e+02
   4.574443e+01  -1.101720e+02
  -2.175771e+01  -1.020080e+02
   1.526706e+01  -2.287975e+01
  -2.312643e+01  -2.766964e+01
   3.433000e+01  -4.254110e+01
   5.068770e+01  -1.910137e+01
   1.492838e+01   8.075361e+01
  -1.962734e+01   1.020587e+02
   1.040626e+01   4.020240e+01
   2.655908e+01   2.203436e+01
   2.251348e-03  -7.414859e+01
   4.520513e+01  -4.655796e+01
   5.967982e+01  -1.307287e+01
   3.603432e+01   6.215552e+01
  -2.690815e+01   4.561146e+01
  -2.652326e+01   1.159803e-01
   6.747100e+00  -3.420066e+01
  -4.114272e+00   5.155080e+00
   3.360924e+01   3.156543e+01
  -5.368026e+01   1.727236e+01
  -7.087753e+01  -2.743231e+01
   3.588334e+01  -4.335230e+01
   7.322036e+01   1.331548e+01
   1.437194e+02   1.761358e+01
   2.313360e+01   2.198772e+01
   3.756344e+00  -1.610991e+01
  -7.173016e+01  -2.502381e+01
  -2.669349e+01  -1.523869e+01
   5.007254e+01  -2.541539e+01
   4.018661e+01  -7.378361e+01
  -1.892337e+00  -1.444338e+01
   2.333641e+01  -1.353849e+01
   2.476896e+01   1.234622e+01
   7.861560e+01  -3.015986e+00
   4.836263e+01   1.592360e+01
   6.533063e+00   3.187424e+01
  -1.636588e+01   7.204528e+01
  -3.714178e+01   5.152927e+01
   3.333170e+01  -2.510796e+01
   8.254050e-01  -1.619276e+01
   1.720376e+01   4.574996e+01
   1.543765e+01   3.562026e+01
  -5.957769e+01   1.923878e+01
  -4.654719e+01   5.910561e+00
  -4.036903e+01  -6.250447e+01
  -2.165132e+01  -9.723514e+01
   2.579707e+01  -1.670032e+01
   4.730678e+01   1.233148e+01
   4.117746e+01  -7.632177e-02
  -2.231095e+01  -4.255797e+01
  -4.671529e+01   9.504749e+00
  -1.463471e+01  -4.082535e-01
   2.637330e+01  -1.372739e-01
   3.731953e+01   2.587860e+01
  -1.233401e+01  -1.272922e+01
  -1.715046e+01   8.948760e+00
  -5.245563e+01  -3.814871e+01
   8.302255e+00  -6.144359e+01
   6.324050e+01  -5.199295e+01
   3.907562e+01   1.359750e+00
   5.227201e+00   7.106325e+01
  -8.527077e+01   6.351428e+01
  -3.189078e+01   4.919504e+01
  -4.501755e+01  -1.414369e+01
   1.027738e+01  -2.596143e+01
  -2.309930e+00  -3.104435e+01
  -2.141803e+01  -2.623907e+01
  -1.327737e+01  -3.828671e+01
   2.096447e+01  -2.641795e+01
   7.101401e+01  -2.680261e+01
   5.715322e+01   2.529999e+01
  -1.037052e+00   4.355617e+01
  -1.772501e+01   2.407265e+01
  -4.392394e+00  -2.131098e+01
   1.240074e+00  -2.087233e+01
   1.853726e+01  -1.281184e+01
   2.996055e+01   1.424666e+00
   5.573906e+01   4.002040e+00
   3.514931e+01   5.922725e+01
  -5.842941e+00   3.699931e+01
  -5.424222e+01   5.798447e+01
  -5.729846e+01   1.743595e+01
  -3.851023e+01   2.279783e+01
  -7.979030e+01  -1.531629e+01
  -7.425882e+01  -2.206007e+00
  -8.440613e+01  -6.690464e+01
  -3.068092e+01  -4.958420e+01
   5.447792e+01  -6.176246e+01
   3.832520e+01   4.279224e+00
   7.128195e+00  -4.788359e+01
  -2.399129e+01  -2.729893e+00
   2.122371e+01   2.872177e+01
   1.850671e+01  -1.811116e+01
   1.999389e+01   1.469785e+01
   3.136785e+01   3.908835e+01
  -6.105348e+00   5.091565e+00
  -1.035685e+01  -1.684670e+01
   1.002774e+01  -2.080807e+01
   2.930086e+01  -3.362956e+01
   4.334188e+00   3.926068e+00
  -2.812542e+00   2.772123e+01
   1.918503e+01   3.512033e+01
   4.525767e+00   4.007913e+00
   7.042462e+00   1.528996e+01
  -6.096741e+01   7.628711e+00
  -5.816966e+00  -2.045268e+01
   3.541467e+00  -1.551187e+01
   3.813561e+01   1.525336e+01
   7.899274e+00  -3.309062e+01
  -2.067471e+01  -6.864448e+00
   1.167801e+01  -2.020689e+01
   7.673140e+00  -2.380634e+01
   2.159557e+01   9.490106e+00
   9.619548e+00   2.174681e+01
  -1.879107e+01   3.457928e-01
   7.974738e+00  -3.203459e+01
   3.858058e+01  -8.225214e+00
   5.988881e+01  -7.377847e-01
   1.518008e+01   4.171152e+01
  -5.617319e-01   3.184247e+01
  -4.282877e+01   4.599036e+01
  -5.115991e-01  -1.614938e+01
  -1.539254e+01   1.059454e+00
   4.423053e+01   1.191336e+01
  -2.308605e-01   1.107439e+01
  -2.502639e+01  -1.798532e+01
   4.524516e+00  -1.526192e+01
  -5.441786e+01  -1.589776e+01
  -1.018323e+01  -4.590141e+01
  -4.602554e+00  -6.874422e+00
  -2.214630e+01   1.117146e+01
  -5.551382e+00  -2.066207e+01
   1.047427e+01   8.986997e+00
  -2.049845e+01   5.769429e+00
   2.970783e+01  -1.951472e+01
   2.287788e+01   3.840815e+01
  -6.112590e+00   4.896128e+01
  -1.686987e+01   2.856349e+00
  -1.379577e+01  -8.198358e+00
   2.606707e+01  -3.461826e+01
   1.959709e-02   2.943826e+01
  -5.674243e+00  -1.654152e+01
   2.544524e+01  -2.465356e+01
   1.279445e+01  -1.792591e+01
  -8.318526e+00   5.659697e+00
  -2.053429e+00   3.529204e+00
  -1.712875e+01   3.577243e+00
   2.449943e+01   2.539699e+01
  -3.497657e+01   3.832722e+01
  -1.910079e+01   2.189477e+01
  -2.027569e+01  -2.416155e+01
  -4.498990e+01  -1.641360e+01
  -1.253056e+01  -2.477007e+01
   1.303121e+01  -3.511191e+01
   1.076803e+01  -2.153031e+00
  -1.773846e+00   1.771722e+01
   3.317398e+01  -2.593234e+01
   1.205597e+01  -2.091871e+01
   4.651685e+00   2.244445e+00
  -2.480720e+00   4.506706e+01
  -7.949536e+00   1.305293e+01
  -9.394956e+00  -3.408699e+00
  -2.540173e+01  -1.067409e+01
   4.187831e+01  -2.867886e+01
   2.985319e+01   2.870399e+01
   1.011697e+01   2.440738e+01
   1.577865e+01   2.311984e+01
  -3.096071e+01   1.467793e+01
  -4.872475e+01   4.491315e+01
  -3.723835e+01  -3.490998e+01
  -2.304306e+01  -1.712427e+01
   1.059521e+01  -3.433561e+01
   1.688809e+01  -5.358217e+00
   2.448392e+01  -2.465324e+01
   1.855536e+01   1.892954e+01
   9.513726e+00   2.934478e+01
   1.734055e+01  -7.243754e-01
   1.219639e+01   6.324160e+01
   9.756307e+00   4.795004e+01
  -5.042058e+01   1.862382e+00
  -5.168664e+01  -3.006861e+01
  -8.283600e+00   3.618060e+00
   8.716868e+00   2.125334e+01
  -1.677744e+01   8.546395e+00
  -1.980915e+01   1.046385e+00
  -3.415233e+00  -1.185667e+01
  -7.056438e+00  -3.192683e+00
  -7.939232e+00   1.169269e+01
  -7.359834e+00   3.354282e+00
   1.262424e+01  -2.184904e+01
  -1.960112e+01   1.555301e+01
  -2.305848e+01  -5.076841e+00
  -2.609053e+01   1.103218e+01
   4.556086e+01  -1.246574e+01
   5.000679e+01   1.277931e+01
   8.094820e+00   1.952194e+01
  -6.148873e+00   6.892547e+00
  -2.411081e+00   3.244396e+01
  -1.743788e+00   1.246234e+01
  -7.920379e+00  -1.242798e+01
  -3.454895e+01   1.795562e+01
   1.871552e+00   3.006804e+01
   1.657696e+01  -1.855701e+01
   2.267883e+01  -7.916671e+00
   3.411332e+01   1.304357e+01
   1.964669e+01  -2.094763e-01
  -1.930604e+01   3.268184e+00
  -9.808691e+00   4.079836e+00
  -9.766777e+00   2.943027e+01
  -1.982676e+01   1.929780e+01
   8.166994e-01   1.042277e+01
  -6.438651e+00  -1.767458e+01
  -1.435484e+01  -2.584869e+01
   1.556884e+01  -1.579022e+01
  -1.678086e+01   1.901120e+01
  -3.564213e+01  -2.266227e+01
  -4.316509e+01  -1.042478e+01
   7.865114e+00  -5.019079e+01
   5.154838e+01  -6.328304e+00
   1.631906e+01  -3.447587e+00
   1.523435e+01   1.673872e+01
  -1.239579e+01  -4.911497e+00
  -2.737075e+01   3.263333e+01
   2.861985e+01  -1.643047e+01
  -1.213055e+01   7.459649e+00
  -1.684632e+01  -7.897421e+00
  -1.653027e+01   3.056004e+01
   3.915471e-01   5.081381e+00
   2.337976e+01   1.021678e+01
   1.810881e+00  -3.810459e+01
   1.021677e+01  -4.317412e+01
   9.979883e+00   1.130480e+01
  -1.540195e+01   3.883625e+01
  -1.430062e+00   1.767878e+00
   1.022437e+01   7.517221e+00
   2.045229e+00  -5.829723e+00
  -9.292247e+00   1.890077e+01
  -7.571027e+00  -1.678393e+01
   1.309413e+01   2.198361e+01
  -2.423093e+01   1.997635e+00
   8.638817e+00  -3.264458e+01
  -4.476442e+00  -9.944307e+00
   8.947651e+00   1.469111e+01
  -2.329588e+01   9.663013e-01
   2.231965e+00  -6.920796e+00
  -4.539382e+01  -2.576723e+01
  -6.919435e+00  -5.230889e+00
  -8.806776e+00  -1.027609e+01
   1.265098e+01  -7.620838e+00
   2.995001e+01   1.020362e+01
  -1.555072e+01   1.331621e+01
  -1.361038e+00   2.570596e+01
   2.142594e+01  -7.888927e+00
  -9.299317e-01   7.351521e+00
  -4.783497e-01   6.123631e+00
  -1.397618e+01   1.974305e+01
  -2.852490e+01   5.280258e+00
  -1.280654e+01   5.440311e+00
  -3.062637e-01  -3.373246e+00
  -1.497693e+01  -1.841858e+01
   6.241115e+00   2.293278e+00
  -4.413971e+00  -6.743993e+00
   3.442384e+01  -2.114068e+01
   1.316575e+01   1.354581e+01
   2.007027e+01   2.630115e+01
   5.701115e+00  -2.245031e+01
   1.315733e+01   7.119624e+00
  -8.646089e+00  -5.188510e+00
  -1.452293e+01  -1.692899e+01
  -1.424225e+01   1.575795e+00
  -1.667835e+01   2.025980e+00
  -1.880321e+00   1.225091e+01
  -3.313241e+01  -1.187866e+00
  -5.565182e+00   2.291786e+01
  -7.006126e+00   2.338205e+01
  -5.721998e+00  -4.180427e+00
  -1.256391e+01   2.343144e+01
   3.487183e+01  -6.798371e+00
   2.141825e+01  -3.381851e+00
  -8.602589e+00   1.689897e+01
   1.677425e+01  -6.692772e+00
  -2.719280e+01  -3.451284e+01
   3.804033e+01  -1.446775e+01
   1.986642e+01   6.990544e+00
   8.698207e+00  -1.794196e+01
  -1.206696e+01   4.939790e+00
  -3.253212e+00   1.190975e+01
   1.507579e+01  -6.933083e+00
   1.373803e+00   1.938830e+01
  -1.815457e+00  -2.572705e+01
   2.001648e+01   1.456899e+01
  -1.779392e+01   1.316164e+01
  -1.143602e+01  -3.589186e+01
  -1.425212e+01  -4.093801e+01
   1.118852e+01  -1.521746e+01
  -1.477965e+01   2.292055e+00
   4.125642e+00  -1.153691e+01
   2.824503e+01  -1.168559e+01
   7.508051e+00  -1.436406e+01
  -1.754348e+01   6.450913e+00
   1.772674e+00   1.177397e+01
   4.543967e+00   8.620034e+00
  -1.627838e+01   1.800416e+01
   2.330370e+01   3.142446e+00
  -3.242989e+00  -2.057304e+01
  -4.710757e+00  -2.460759e+01
  -5.403819e+00   1.653843e+01
   1.540747e+01  -9.023462e+00
   1.039033e+01  -2.478086e+01
  -1.482716e+01   4.428977e+00
   2.176299e+00   1.562473e+01
  -6.778087e+00  -2.057220e+00
  -1.165268e+01   7.167884e+00
  -2.273664e+01  -5.464388e+00
  -5.220493e-01  -4.613374e+00
   2.297452e+01  -1.186549e+01
