
 $NMID
 id='ANONYMOUS ', fmtdat='(2E16.6)'
 volume=1.0
 tramp=1.0
 $END
   6.036470e+07  -1.007920e+06
   3.685265e+07   3.730685e+07
  -7.670539e+06   4.123848e+07
  -2.963114e+07   1.573764e+07
  -1.771302e+07  -7.805851e+06
   3.649399e+06  -1.008562e+07
   1.056765e+07   1.514276e+06
   2.835243e+06   1.055533e+07
  -6.777163e+06   9.826800e+06
  -1.033311e+07   2.018410e+06
  -7.463814e+06  -6.491354e+06
  -9.565251e+05  -9.023098e+06
   4.138289e+06  -3.003595e+06
   2.746081e+06   5.562425e+06
  -4.026939e+06   6.806135e+06
  -8.408308e+06  -1.455711e+06
  -4.780573e+06  -1.084680e+07
   3.946950e+06  -1.259839e+07
   1.069243e+07  -6.455331e+06
   1.158836e+07   1.932406e+06
   7.339846e+06   7.841570e+06
   1.031738e+06   9.368397e+06
  -3.113557e+06   6.741185e+06
  -2.304327e+06   2.935995e+06
   8.976237e+05   2.021158e+06
   3.599224e+05   4.129198e+06
  -5.379187e+06   4.652693e+06
  -9.979448e+06   7.716456e+05
  -7.500261e+06  -4.137844e+06
  -5.409641e+05  -5.298373e+06
   3.643378e+06  -2.851201e+06
   2.543255e+06  -2.877842e+05
  -4.072333e+05   7.344173e+05
  -2.059963e+06   5.100574e+05
  -2.189496e+06  -1.239489e+06
  -9.026013e+05  -3.907164e+06
   1.733510e+06  -4.142587e+06
   3.519484e+06  -1.402908e+05
   2.063566e+06   3.789429e+06
  -7.190801e+05   2.266502e+06
  -4.536737e+05  -2.350921e+06
   2.531913e+06  -2.355599e+06
   2.601976e+06   3.419684e+06
  -2.646285e+06   6.624149e+06
  -7.596749e+06   1.194426e+06
  -5.648043e+06  -7.388354e+06
   1.966886e+06  -9.211511e+06
   7.895063e+06  -2.698598e+06
   7.329049e+06   4.662979e+06
   1.881105e+06   6.342056e+06
  -3.674507e+06   2.792340e+06
  -5.468744e+06  -1.680235e+06
  -2.463321e+06  -3.716661e+06
   2.618140e+06  -2.332506e+06
   4.821060e+06   9.867065e+05
   2.065715e+06   2.914732e+06
  -1.826434e+06   1.474650e+06
  -1.793616e+06  -1.096527e+06
   1.519291e+06  -9.389755e+05
   2.691867e+06   2.013498e+06
  -7.467928e+05   3.849146e+06
  -5.082724e+06   2.104748e+06
  -5.722214e+06  -1.491317e+06
  -2.487339e+06  -4.274554e+06
   1.803044e+06  -5.562449e+06
   5.097768e+06  -5.128810e+06
   6.423972e+06  -1.960659e+06
   4.897635e+06   3.178991e+06
   1.101004e+06   6.430558e+06
  -1.980761e+06   4.994735e+06
  -1.945066e+06   1.186262e+06
  -1.451558e+05  -4.396102e+05
   2.250751e+05   9.074236e+05
  -1.451408e+06   1.911836e+06
  -2.814801e+06   4.176104e+05
  -2.118196e+06  -1.822512e+06
  -1.235717e+05  -2.112877e+06
   1.486386e+06  -2.147596e+05
   1.676548e+06   2.064642e+06
   4.672986e+04   2.985454e+06
  -2.805737e+06   1.780876e+06
  -4.683929e+06  -1.111281e+06
  -3.488468e+06  -3.872567e+06
  -6.599985e+04  -4.500578e+06
   2.385197e+06  -2.961907e+06
   2.404491e+06  -1.236568e+06
   1.960081e+06  -6.856068e+05
   3.065593e+06  -4.611033e+05
   4.504470e+06   8.083126e+05
   3.598257e+06   2.865658e+06
   1.297038e+05   4.250431e+06
  -3.276760e+06   4.013741e+06
  -4.244602e+06   2.221724e+06
  -2.728193e+06  -3.583352e+05
  -3.529767e+05  -2.255721e+06
   1.064330e+06  -2.007591e+06
   5.803291e+05   9.462570e+03
  -1.094102e+06   1.355887e+06
  -1.978407e+06   4.273985e+05
  -9.884360e+05  -1.241806e+06
   5.096771e+05  -1.138914e+06
   4.010170e+05   4.226224e+05
  -1.187094e+06   6.716593e+05
  -1.962101e+06  -1.481264e+06
  -5.615355e+05  -3.738602e+06
   1.845241e+06  -3.499122e+06
   3.354220e+06  -9.861424e+05
   3.350926e+06   1.623551e+06
   2.218324e+06   2.853800e+06
   4.130292e+05   2.639437e+06
  -1.257718e+06   1.492047e+06
  -1.603900e+06   2.463576e+05
  -5.071587e+05  -4.740951e+04
   3.670278e+05   7.783730e+05
  -4.412000e+05   1.407866e+06
  -2.005101e+06   6.074757e+05
  -2.124396e+06  -9.485877e+05
  -3.840480e+05  -1.495220e+06
   1.224194e+06  -5.784692e+05
   8.879701e+05   4.850828e+05
  -9.131217e+05   4.911453e+05
  -2.222991e+06  -4.093654e+05
  -1.717957e+06  -1.426325e+06
   3.156627e+05  -1.989954e+06
   2.387317e+06  -1.655683e+06
   2.855403e+06  -2.601031e+05
   1.261838e+06   1.325672e+06
  -9.572943e+05   1.582054e+06
  -1.643874e+06   2.098925e+05
  -2.299260e+05  -1.130268e+06
   1.573292e+06  -7.670453e+05
   1.773731e+06   8.303442e+05
   3.109880e+05   1.720149e+06
  -1.167951e+06   9.779211e+05
  -1.297890e+06  -3.715927e+05
  -2.229673e+05  -8.306343e+05
   8.460054e+05  -5.304154e+04
   7.700540e+05   1.093846e+06
  -5.863055e+05   1.475262e+06
  -2.068697e+06   5.700637e+05
  -2.106891e+06  -1.079724e+06
  -3.946719e+05  -2.150226e+06
   1.505078e+06  -1.698045e+06
   1.793319e+06  -1.996436e+05
   5.030985e+05   9.107947e+05
  -6.937822e+05   8.202761e+05
  -6.336032e+05   7.388669e+04
   1.501631e+05  -3.399019e+05
   4.880894e+05  -1.686052e+05
   6.420890e+04   7.269409e+04
  -5.058304e+05  -1.248290e+05
  -5.244376e+05  -7.418372e+05
   2.455271e+05  -1.239482e+06
   1.443190e+06  -9.146136e+05
   2.149960e+06   4.388269e+05
   1.510799e+06   2.011772e+06
  -2.302815e+05   2.488941e+06
  -1.671162e+06   1.423252e+06
  -1.718588e+06  -1.635264e+05
  -8.323463e+05  -9.106526e+05
  -2.962546e+05  -6.117093e+05
  -5.153956e+05  -1.794024e+05
  -6.897837e+05  -3.298303e+05
  -1.040122e+05  -8.135294e+05
   9.212735e+05  -9.219951e+05
   1.491226e+06  -3.060519e+05
   1.047267e+06   7.474410e+05
  -2.906542e+05   1.473854e+06
  -1.780302e+06   1.074286e+06
  -2.303325e+06  -5.153413e+05
  -1.143689e+06  -2.180214e+06
   1.079405e+06  -2.446310e+06
   2.654124e+06  -1.038511e+06
   2.413543e+06   7.255715e+05
   9.329158e+05   1.395956e+06
  -2.514193e+05   9.387267e+05
  -3.820957e+05   4.795689e+05
  -2.747332e+04   7.686053e+05
  -7.493842e+04   1.374152e+06
  -6.970454e+05   1.354221e+06
  -1.349429e+06   3.384670e+05
  -1.384613e+06  -1.110150e+06
  -5.751991e+05  -1.950268e+06
   6.379742e+05  -1.479203e+06
   1.323018e+06   1.259158e+04
   8.285431e+05   1.342993e+06
  -4.313374e+05   1.446833e+06
  -1.237092e+06   3.908178e+05
  -8.491779e+05  -7.681816e+05
   1.567362e+05  -1.143094e+06
   5.985632e+05  -8.086393e+05
   1.098322e+05  -4.150584e+05
  -4.523104e+05  -3.350534e+05
  -6.589342e+04  -3.899134e+05
   1.200642e+06  -2.123381e+05
   2.149304e+06   3.499113e+05
   1.669057e+06   1.086028e+06
  -6.370942e+04   1.505470e+06
  -1.669765e+06   1.189691e+06
  -1.904249e+06   2.659038e+05
  -8.562086e+05  -5.494681e+05
   2.807230e+05  -6.064792e+05
   5.405271e+05  -2.108255e+04
   4.758170e+04   4.539473e+05
  -4.427384e+05   2.707526e+05
  -5.009460e+05  -3.504344e+05
  -2.887851e+05  -7.308488e+05
  -1.260266e+05  -4.863644e+05
  -1.422220e+05   7.694815e+04
  -2.704358e+05   2.718863e+05
  -2.787798e+05  -2.439135e+05
   1.327949e+05  -1.003575e+06
   9.265683e+05  -1.104999e+06
   1.434684e+06  -2.084257e+05
   9.142858e+05   9.335719e+05
  -4.210052e+05   1.203127e+06
  -1.310840e+06   3.830806e+05
  -7.600140e+05  -5.784161e+05
   7.326419e+05  -6.633520e+05
   1.625439e+06   1.197488e+05
   9.946237e+05   9.060313e+05
  -5.356409e+05   9.973914e+05
  -1.543331e+06   4.445356e+05
  -1.244294e+06  -2.270870e+05
  -1.193235e+05  -5.247388e+05
   6.759686e+05  -2.615955e+05
   4.088854e+05   3.116643e+05
  -5.826875e+05   5.538571e+05
  -1.218741e+06  -5.268792e+04
  -7.266315e+05  -1.195722e+06
   5.592919e+05  -1.765226e+06
   1.502038e+06  -9.417276e+05
   1.296901e+06   7.597940e+05
   2.201182e+05   1.834053e+06
  -7.597288e+05   1.314302e+06
  -9.488572e+05  -2.040676e+05
  -4.217253e+05  -1.232118e+06
   2.591086e+05  -9.831623e+05
   5.899873e+05  -7.501116e+04
   4.551100e+05   3.846000e+05
   1.399302e+05   1.356805e+05
   6.150014e+04  -9.096134e+04
   3.312175e+05   3.168691e+05
   5.438213e+05   9.986535e+05
   1.649871e+05   1.106681e+06
  -7.737625e+05   4.072328e+05
  -1.512902e+06  -4.723146e+05
  -1.286899e+06  -8.599254e+05
  -1.898444e+05  -7.254377e+05
   8.458748e+05  -4.354980e+05
   1.001788e+06  -1.793478e+05
   3.988422e+05   6.789070e+04
  -1.362148e+05   2.349338e+05
  -7.364021e+04   1.972637e+05
   2.321392e+05   7.861194e+04
   6.830355e+04   1.325948e+05
  -6.352244e+05   2.595894e+05
  -1.082037e+06   1.134071e+04
  -5.125985e+05  -7.090975e+05
   8.133562e+05  -1.242868e+06
   1.767174e+06  -8.311999e+05
   1.507350e+06   3.994796e+05
   3.157717e+05   1.436792e+06
  -7.837192e+05   1.441630e+06
  -1.073066e+06   5.960071e+05
  -6.700130e+05  -2.084504e+05
  -1.606119e+05  -3.666059e+05
   3.296368e+04  -9.056563e+04
  -9.986737e+04  -8.861197e+03
  -2.957817e+05  -3.901080e+05
  -2.478013e+05  -8.319721e+05
   1.660368e+05  -7.108800e+05
   6.926771e+05   8.660101e+04
   7.988889e+05   9.384902e+05
   1.833745e+05   1.061614e+06
  -7.422069e+05   3.066142e+05
  -1.088812e+06  -6.855689e+05
  -4.055759e+05  -1.117029e+06
   7.138745e+05  -7.414764e+05
   1.174431e+06   4.398190e+04
   5.853208e+05   6.496615e+05
  -2.840117e+05   7.432733e+05
  -4.195554e+05   3.980522e+05
   2.147048e+05  -6.250000e+03
   6.579737e+05  -5.676598e+04
   1.706284e+05   3.214772e+05
  -8.405335e+05   7.076605e+05
  -1.326108e+06   5.504446e+05
  -8.311467e+05  -1.980017e+05
   7.975799e+04  -9.133381e+05
   5.882759e+05  -9.114299e+05
   4.732660e+05  -2.068559e+05
   8.366082e+04   4.744673e+05
  -2.291489e+05   4.743615e+05
  -3.600728e+05  -1.094018e+05
  -2.782157e+05  -5.886023e+05
   3.351153e+04  -4.739162e+05
   4.040690e+05   2.243677e+04
   5.107279e+05   3.049088e+05
   2.542638e+05   1.178473e+05
  -5.940991e+04  -1.812444e+05
  -9.218320e+04  -1.027808e+05
   6.823690e+04   3.357254e+05
   3.599622e+04   6.021956e+05
  -2.948620e+05   2.973217e+05
  -5.255389e+05  -3.328802e+05
  -2.406152e+05  -6.526796e+05
   3.936374e+05  -3.496296e+05
   7.138164e+05   2.469199e+05
   2.917894e+05   5.689791e+05
  -5.266067e+05   3.940955e+05
  -9.327812e+05  -4.014521e+04
  -5.132453e+05  -3.773701e+05
   2.918554e+05  -4.476933e+05
   6.613207e+05  -2.850373e+05
   2.875112e+05  -3.315153e+04
  -3.103319e+05   1.053106e+05
  -4.011179e+05  -1.503770e+04
   1.344746e+05  -2.749403e+05
   7.030489e+05  -2.926989e+05
