
 $NMID
 id='ANONYMOUS ', fmtdat='(2E16.6)'
 volume=1.0
 tramp=1.0
 $END
  -8.883073e+06  -5.136690e+05
  -5.453345e+06  -4.928673e+06
   7.265292e+05  -5.710241e+06
   4.167360e+06  -3.037090e+06
   2.993409e+06   2.642965e+05
  -1.156582e+05   1.545026e+06
  -1.732355e+06   3.947311e+05
  -9.850226e+05  -1.506231e+06
   6.971851e+05  -2.100329e+06
   1.656871e+06  -7.627542e+05
   1.282929e+06   1.168828e+06
   8.203730e+04   1.721100e+06
  -8.160542e+05   3.655849e+05
  -5.469256e+05  -1.363524e+06
   6.165114e+05  -1.548255e+06
   1.414363e+06   2.270856e+04
   8.929121e+05   1.758647e+06
  -5.754453e+05   2.084604e+06
  -1.729030e+06   9.294133e+05
  -1.708481e+06  -5.546945e+05
  -7.663665e+05  -1.287465e+06
   1.276066e+05  -1.107816e+06
   2.221440e+05  -6.451524e+05
  -3.267100e+05  -5.910082e+05
  -5.784116e+05  -1.003867e+06
   1.998492e+05  -1.252630e+06
   1.555209e+06  -7.445523e+05
   2.139899e+06   3.106689e+05
   1.215594e+06   1.056782e+06
  -3.800150e+05   9.205421e+05
  -1.113619e+06   1.688877e+05
  -4.585935e+05  -4.765420e+05
   6.598716e+05  -5.193742e+05
   1.061450e+06   4.646469e+04
   5.322426e+05   8.023586e+05
  -2.370151e+05   1.100122e+06
  -5.514831e+05   5.632011e+05
  -3.089467e+05  -3.506449e+05
   8.831026e+04  -6.303249e+05
   1.666274e+05   8.137872e+04
  -1.951847e+05   8.615694e+05
  -6.113640e+05   5.932006e+05
  -5.264712e+05  -4.987329e+05
   1.518443e+05  -1.028392e+06
   8.169035e+05  -2.361387e+05
   7.193682e+05   1.010504e+06
  -2.208727e+05   1.305238e+06
  -1.245391e+06   3.562685e+05
  -1.433292e+06  -8.480149e+05
  -5.552034e+05  -1.256411e+06
   6.872884e+05  -7.151888e+05
   1.257684e+06   1.602187e+05
   7.235631e+05   6.582000e+05
  -3.214816e+05   4.867813e+05
  -8.433259e+05  -7.424483e+04
  -4.375138e+05  -4.322923e+05
   2.814575e+05  -2.532076e+05
   4.461000e+05   1.861566e+05
  -4.663104e+04   3.356414e+05
  -4.822774e+05   2.935236e+04
  -2.416260e+05  -3.608391e+05
   4.703524e+05  -3.968720e+05
   8.831328e+05   2.156494e+03
   4.930681e+05   5.908913e+05
  -4.617719e+05   1.003021e+06
  -1.261703e+06   8.912042e+05
  -1.345786e+06   1.558388e+05
  -7.554321e+05  -8.062171e+05
  -3.568298e+04  -1.310727e+06
   3.040864e+05  -1.066868e+06
   2.521340e+05  -5.104729e+05
   1.994780e+05  -2.491163e+05
   4.157148e+05  -3.064614e+05
   7.278773e+05  -1.949320e+05
   7.543332e+05   3.081667e+05
   3.521209e+05   7.791534e+05
  -2.372147e+05   6.633434e+05
  -6.041521e+05  -2.842342e+04
  -4.707509e+05  -7.033528e+05
   1.112264e+05  -7.890836e+05
   7.373181e+05  -2.449776e+05
   9.104538e+05   4.711556e+05
   4.931525e+05   8.457686e+05
  -1.159383e+05   7.333148e+05
  -4.043659e+05   4.096818e+05
  -3.372969e+05   2.293771e+05
  -3.515355e+05   2.426544e+05
  -7.136963e+05   1.857524e+05
  -1.080910e+06  -1.650362e+05
  -8.731375e+05  -7.030952e+05
  -8.350890e+03  -1.071580e+06
   9.095848e+05  -9.756265e+05
   1.172551e+06  -4.199934e+05
   6.568263e+05   2.660802e+05
  -9.300778e+04   6.246218e+05
  -4.134963e+05   4.285654e+05
  -1.315371e+05  -6.176423e+04
   3.390776e+05  -3.059836e+05
   4.703452e+05  -6.618248e+04
   1.643262e+05   3.017837e+05
  -1.919807e+05   2.891454e+05
  -1.884687e+05  -9.455302e+04
   1.646519e+05  -3.007384e+05
   4.776240e+05   6.705654e+04
   3.897811e+05   7.273193e+05
  -1.145932e+05   1.011714e+06
  -7.201532e+05   5.889353e+05
  -1.015120e+06  -2.194682e+05
  -7.733016e+05  -7.965047e+05
  -1.505654e+05  -7.975447e+05
   3.844513e+05  -3.864565e+05
   4.475054e+05  -1.253660e+04
   1.308954e+05   1.822100e+04
  -9.022515e+04  -2.002966e+05
   9.177010e+04  -3.183113e+05
   4.486517e+05  -1.305190e+05
   5.011187e+05   1.984426e+05
   1.185465e+05   3.352081e+05
  -3.008217e+05   1.581540e+05
  -2.790113e+05  -1.243157e+05
   1.980872e+05  -2.096544e+05
   6.462664e+05   1.090494e+04
   5.726110e+05   3.795762e+05
  -2.608064e+04   6.060701e+05
  -6.462643e+05   4.818901e+05
  -7.558690e+05   6.399244e+04
  -3.051802e+05  -3.201744e+05
   2.369050e+05  -3.433145e+05
   3.610259e+05  -2.392405e+04
   1.330946e+04   2.583025e+05
  -3.986776e+05   1.691712e+05
  -4.544064e+05  -1.988020e+05
  -1.231000e+05  -4.380873e+05
   2.598839e+05  -3.008931e+05
   3.483076e+05   3.393484e+04
   1.041814e+05   1.909119e+05
  -1.823710e+05   1.705277e+04
  -1.715888e+05  -2.786797e+05
   1.815513e+05  -3.624446e+05
   5.439897e+05  -1.038260e+05
   5.198400e+05   3.104086e+05
   7.946562e+04   5.473722e+05
  -3.809283e+05   4.216803e+05
  -4.540041e+05   5.841692e+04
  -1.461723e+05  -2.258160e+05
   1.723659e+05  -2.212195e+05
   1.984438e+05  -1.045152e+04
  -1.214979e+04   1.472719e+05
  -1.763285e+05   1.032131e+05
  -1.159877e+05  -3.523918e+04
   7.745664e+04  -4.919210e+04
   1.585664e+05   1.259626e+05
  -2.432324e+04   3.055369e+05
  -3.623922e+05   2.372265e+05
  -5.510823e+05  -1.235614e+05
  -3.679806e+05  -5.306547e+05
   8.480423e+04  -6.570234e+05
   4.555138e+05  -4.003418e+05
   4.919814e+05   2.215317e+04
   2.791530e+05   2.873206e+05
   9.470452e+04   2.681322e+05
   7.748950e+04   1.179410e+05
   1.092053e+05   6.823875e+04
   9.378854e+03   1.686871e+05
  -2.261195e+05   2.434314e+05
  -4.038149e+05   1.026507e+05
  -3.159495e+05  -2.160241e+05
   5.592275e+04  -4.374195e+05
   4.795208e+05  -3.045278e+05
   6.184232e+05   1.437897e+05
   3.109583e+05   5.669034e+05
  -2.520003e+05   6.224534e+05
  -6.611629e+05   2.828130e+05
  -6.476814e+05  -1.546169e+05
  -3.087828e+05  -3.689424e+05
   3.096693e+04  -3.089455e+05
   1.509269e+05  -1.837381e+05
   1.012487e+05  -1.930238e+05
   7.626800e+04  -3.041119e+05
   1.805804e+05  -3.053350e+05
   3.275416e+05  -6.104802e+04
   3.364466e+05   3.093280e+05
   1.225717e+05   5.180612e+05
  -1.897193e+05   3.792918e+05
  -3.505500e+05  -5.485078e+03
  -2.177632e+05  -3.326474e+05
   8.508334e+04  -3.682869e+05
   2.775101e+05  -1.389681e+05
   2.072350e+05   1.322920e+05
   3.264616e+02   2.532227e+05
  -9.716702e+04   2.135817e+05
  -5.340404e+03   1.340674e+05
   1.019951e+05   1.070962e+05
   4.882846e+03   1.086435e+05
  -2.917825e+05   5.173554e+04
  -5.238838e+05  -9.956041e+04
  -4.232988e+05  -2.770783e+05
  -8.966194e+03  -3.600772e+05
   3.988897e+05  -2.785540e+05
   4.813779e+05  -8.005590e+04
   2.326700e+05   9.652487e+04
  -5.759117e+04   1.291641e+05
  -1.261507e+05   2.252228e+04
   9.688230e+03  -8.577635e+04
   1.365797e+05  -5.579149e+04
   1.200609e+05   9.834811e+04
   2.574860e+04   2.061398e+05
  -1.144697e+04   1.313920e+05
   4.259669e+04  -4.706893e+04
   1.053522e+05  -1.035508e+05
   7.809853e+04   6.212430e+04
  -6.639392e+04   2.749761e+05
  -2.525586e+05   2.702493e+05
  -3.286568e+05   1.020966e+04
  -1.793526e+05  -2.562890e+05
   1.242667e+05  -2.705454e+05
   3.190737e+05  -4.444199e+04
   1.853290e+05   1.737161e+05
  -1.883497e+05   1.737516e+05
  -4.428990e+05  -2.579285e+04
  -3.064592e+05  -2.370982e+05
   1.101685e+05  -2.904297e+05
   4.210328e+05  -1.590515e+05
   3.622580e+05   4.201049e+04
   4.742861e+04   1.491088e+05
  -1.753485e+05   8.144019e+04
  -9.014773e+04  -7.326611e+04
   1.794170e+05  -1.177606e+05
   3.151453e+05   6.069924e+04
   1.370097e+05   3.396632e+05
  -2.155716e+05   4.402034e+05
  -4.296001e+05   1.986455e+05
  -3.293855e+05  -2.342706e+05
  -2.725862e+04  -4.977094e+05
   2.195959e+05  -3.605222e+05
   2.569372e+05   3.994003e+04
   1.239233e+05   3.287224e+05
  -4.597012e+04   2.780729e+05
  -1.469420e+05   2.762323e+04
  -1.418717e+05  -1.142976e+05
  -6.421495e+04  -4.738835e+04
  -6.458278e+03   3.246136e+04
  -4.233205e+04  -6.817067e+04
  -1.155622e+05  -2.635415e+05
  -6.428053e+04  -3.029250e+05
   1.706832e+05  -1.047756e+05
   4.014530e+05   1.468554e+05
   3.636203e+05   2.459232e+05
   4.482857e+04   1.881739e+05
  -2.596099e+05   1.002609e+05
  -2.795317e+05   4.487569e+04
  -8.057554e+04  -5.869169e+03
   5.085881e+04  -5.714744e+04
  -1.178615e+04  -6.887275e+04
  -9.672358e+04  -4.458306e+04
  -1.669354e+03  -3.827214e+04
   2.114043e+05  -4.395872e+04
   2.814772e+05   2.605622e+04
   6.987664e+04   1.891522e+05
  -2.705734e+05   2.919321e+05
  -4.559271e+05   1.625029e+05
  -3.455218e+05  -1.518837e+05
  -4.362857e+04  -3.911195e+05
   2.223020e+05  -3.548208e+05
   2.926872e+05  -1.135136e+05
   1.781192e+05   8.738608e+04
   2.013217e+04   9.877261e+04
  -4.140866e+04   1.388533e+03
   1.484590e+04  -2.065330e+04
   8.823641e+04   9.746814e+04
   6.517957e+04   2.239718e+05
  -6.396121e+04   1.766535e+05
  -1.878175e+05  -6.005129e+04
  -1.714845e+05  -2.859276e+05
   1.085152e+04  -2.789035e+05
   2.223075e+05  -3.248128e+04
   2.620640e+05   2.330599e+05
   6.257888e+04   3.000529e+05
  -2.077459e+05   1.558698e+05
  -2.914029e+05  -4.404128e+04
  -1.223572e+05  -1.585627e+05
   8.631199e+04  -1.589752e+05
   8.974217e+04  -8.982477e+04
  -8.772242e+04  -1.509398e+04
  -1.827222e+05  -2.986117e+03
  -2.800623e+04  -8.179247e+04
   2.352187e+05  -1.747811e+05
   3.336747e+05  -1.437212e+05
   1.843896e+05   4.302684e+04
  -4.133810e+04   2.266242e+05
  -1.450892e+05   2.163715e+05
  -9.713864e+04   2.305837e+04
   4.146105e+03  -1.393705e+05
   7.545647e+04  -1.033312e+05
   9.404269e+04   6.398426e+04
   5.706642e+04   1.616709e+05
  -2.552714e+04   9.834886e+04
  -1.045769e+05  -2.641026e+04
  -1.188667e+05  -7.074894e+04
  -6.461017e+04  -1.850256e+04
  -1.901090e+03   2.659316e+04
   2.247629e+04  -1.689335e+04
   2.837826e+04  -1.073963e+05
   5.803774e+04  -1.273968e+05
   1.008073e+05  -2.031785e+04
   9.337727e+04   1.316441e+05
  -5.252419e+02   1.805583e+05
  -1.251711e+05   6.957699e+04
  -1.635161e+05  -9.855581e+04
  -5.012383e+04  -1.672004e+05
   1.382973e+05  -8.869087e+04
   2.276457e+05   4.271181e+04
   1.186984e+05   1.107326e+05
  -8.593544e+04   9.031997e+04
  -1.720045e+05   3.494087e+04
  -5.392649e+04  -1.553401e+03
   1.149305e+05   2.421413e+03
   1.170929e+05   4.466622e+04
  -6.727585e+04   8.820731e+04
  -2.335487e+05   6.020306e+04
