
 $NMID
 id='ANONYMOUS ', fmtdat='(2E16.6)'
 volume=1.0
 tramp=1.0
 $END
  -4.998647e+07  -4.015277e+05
  -3.016508e+07  -3.030391e+07
   6.120599e+06  -3.348556e+07
   2.420276e+07  -1.373412e+07
   1.494543e+07   5.333854e+06
  -2.515461e+06   8.320660e+06
  -8.852489e+06  -4.762538e+05
  -3.015037e+06  -8.582529e+06
   5.157246e+06  -8.886059e+06
   8.650973e+06  -2.237709e+06
   6.403972e+06   5.658734e+06
   7.224890e+05   7.986320e+06
  -3.722610e+06   2.389817e+06
  -2.513266e+06  -5.304122e+06
   3.308698e+06  -6.319776e+06
   7.137797e+06   9.731832e+05
   4.158552e+06   9.171184e+06
  -3.291892e+06   1.068444e+07
  -9.079343e+06   5.265795e+06
  -9.609940e+06  -2.021242e+06
  -5.626121e+06  -6.749984e+06
  -3.834411e+05  -7.436999e+06
   2.361937e+06  -5.055616e+06
   1.022371e+06  -2.508205e+06
  -1.432352e+06  -2.526401e+06
  -4.865473e+04  -4.301318e+06
   5.463564e+06  -4.017328e+06
   9.200717e+06  -1.324354e+05
   6.392784e+06   4.033619e+06
  -1.651894e+05   4.642928e+06
  -3.827484e+06   2.101264e+06
  -2.300582e+06  -4.443786e+05
   1.059050e+06  -1.243865e+06
   2.719377e+06  -3.758573e+05
   2.179221e+06   1.815186e+06
   3.235481e+05   3.983102e+06
  -1.853973e+06   3.399528e+06
  -2.696001e+06  -4.279194e+05
  -1.179584e+06  -3.304176e+06
   7.567922e+05  -1.334259e+06
   1.030522e+05   2.664683e+06
  -2.377799e+06   2.293580e+06
  -2.316155e+06  -2.811527e+06
   1.906027e+06  -5.487530e+06
   5.878662e+06  -9.698387e+05
   4.462371e+06   6.056188e+06
  -1.598787e+06   7.520957e+06
  -6.655106e+06   2.142221e+06
  -6.518920e+06  -4.049543e+06
  -1.934483e+06  -5.628081e+06
   3.194426e+06  -2.707980e+06
   5.087320e+06   1.231940e+06
   2.503906e+06   3.171712e+06
  -2.070587e+06   2.088963e+06
  -4.141183e+06  -7.295383e+05
  -1.864207e+06  -2.403540e+06
   1.529061e+06  -1.257093e+06
   1.718184e+06   9.193697e+05
  -9.964184e+05   9.963492e+05
  -2.270747e+06  -1.238731e+06
   2.136657e+05  -2.847946e+06
   3.833403e+06  -1.776255e+06
   4.735805e+06   9.751535e+05
   2.188991e+06   3.475230e+06
  -1.749988e+06   4.858451e+06
  -4.890083e+06   4.469743e+06
  -5.865716e+06   1.473365e+06
  -4.128415e+06  -3.093829e+06
  -7.652480e+05  -5.817938e+06
   1.628372e+06  -4.551204e+06
   1.513568e+06  -1.402281e+06
   2.981227e+05  -7.643598e+04
   3.786508e+05  -1.052501e+06
   1.899126e+06  -1.543505e+06
   2.835681e+06   9.970535e+04
   1.877208e+06   2.181903e+06
  -1.870459e+05   2.251279e+06
  -1.745029e+06   1.539522e+05
  -1.733063e+06  -2.202674e+06
   7.624304e+04  -2.945197e+06
   2.757188e+06  -1.485850e+06
   4.204015e+06   1.313115e+06
   2.877624e+06   3.585517e+06
  -1.258941e+05   3.832295e+06
  -2.062685e+06   2.406675e+06
  -1.964068e+06   1.066119e+06
  -1.682321e+06   7.508397e+05
  -2.859819e+06   5.608303e+05
  -4.271965e+06  -6.856038e+05
  -3.452562e+06  -2.700731e+06
  -1.417520e+05  -4.098846e+06
   3.227354e+06  -3.872010e+06
   4.222932e+06  -2.022960e+06
   2.622183e+06   5.499276e+05
   1.366402e+05   2.273738e+06
  -1.206397e+06   1.869428e+06
  -5.502242e+05  -8.305710e+04
   1.127981e+06  -1.283020e+06
   1.871841e+06  -3.752405e+05
   8.537031e+05   1.185143e+06
  -5.615144e+05   1.116929e+06
  -5.043147e+05  -3.725323e+05
   9.379321e+05  -8.111378e+05
   1.834746e+06   1.005890e+06
   8.736330e+05   3.272981e+06
  -1.257074e+06   3.504848e+06
  -3.000043e+06   1.414068e+06
  -3.439441e+06  -1.249130e+06
  -2.463795e+06  -2.790347e+06
  -5.110977e+05  -2.704451e+06
   1.281634e+06  -1.476905e+06
   1.607755e+06  -1.977751e+05
   4.942923e+05   4.770638e+04
  -3.604017e+05  -7.517368e+05
   3.896368e+05  -1.310814e+06
   1.854867e+06  -5.693768e+05
   2.006564e+06   8.424152e+05
   4.088671e+05   1.378666e+06
  -1.161149e+06   5.867308e+05
  -9.344097e+05  -4.507419e+05
   8.176515e+05  -5.912542e+05
   2.244179e+06   2.334154e+05
   1.858361e+06   1.357759e+06
  -1.937760e+05   2.049416e+06
  -2.329277e+06   1.714962e+06
  -2.796411e+06   2.871686e+05
  -1.211918e+06  -1.247112e+06
   9.080864e+05  -1.462188e+06
   1.516858e+06  -1.740715e+05
   1.715678e+05   1.059376e+06
  -1.514310e+06   7.259664e+05
  -1.726806e+06  -7.649973e+05
  -3.787364e+05  -1.652793e+06
   1.060246e+06  -1.021507e+06
   1.273096e+06   2.614674e+05
   2.843945e+05   7.660305e+05
  -7.736457e+05   6.087084e+04
  -7.258695e+05  -1.052719e+06
   5.936541e+05  -1.421719e+06
   2.023087e+06  -5.246973e+05
   2.034372e+06   1.068317e+06
   3.795956e+05   2.078018e+06
  -1.434172e+06   1.645537e+06
  -1.727274e+06   2.236753e+05
  -5.200243e+05  -8.641015e+05
   6.536675e+05  -8.171848e+05
   6.621929e+05  -7.417507e+04
  -9.660633e+04   4.059964e+05
  -5.281618e+05   2.568474e+05
  -1.965907e+05  -7.472573e+04
   4.095526e+05   1.699322e+04
   5.381801e+05   6.242271e+05
  -1.741912e+05   1.181761e+06
  -1.377159e+06   9.064037e+05
  -2.090918e+06  -4.136248e+05
  -1.465985e+06  -1.954303e+06
   2.236554e+05  -2.444426e+06
   1.632282e+06  -1.450860e+06
   1.731943e+06   1.032484e+05
   9.129314e+05   9.324318e+05
   3.374890e+05   7.322947e+05
   4.418703e+05   2.710430e+05
   5.810768e+05   3.009793e+05
   8.139036e+04   7.376019e+05
  -8.672383e+05   9.122803e+05
  -1.465618e+06   3.500914e+05
  -1.090314e+06  -7.356905e+05
   2.294500e+05  -1.506993e+06
   1.737826e+06  -1.104956e+06
   2.277334e+06   4.820769e+05
   1.159794e+06   2.106808e+06
  -9.847323e+05   2.374119e+06
  -2.531969e+06   1.057532e+06
  -2.381082e+06  -6.279641e+05
  -1.014466e+06  -1.344809e+06
   1.770289e+05  -9.970696e+05
   4.239858e+05  -5.580322e+05
   1.415978e+05  -7.556325e+05
   1.388160e+05  -1.279071e+06
   6.685916e+05  -1.266507e+06
   1.283980e+06  -3.076843e+05
   1.335395e+06   1.094730e+06
   5.516076e+05   1.911252e+06
  -6.347283e+05   1.446013e+06
  -1.297906e+06   2.851736e+03
  -8.246014e+05  -1.275483e+06
   3.674319e+05  -1.400006e+06
   1.135908e+06  -4.382720e+05
   8.080447e+05   6.510718e+05
  -9.136845e+04   1.050909e+06
  -4.953661e+05   7.900781e+05
  -6.691004e+04   4.362390e+05
   4.275746e+05   3.493623e+05
   5.424551e+04   3.904349e+05
  -1.140497e+06   2.142166e+05
  -2.053444e+06  -3.303514e+05
  -1.624769e+06  -1.031290e+06
   1.437677e+04  -1.421881e+06
   1.569995e+06  -1.133996e+06
   1.831677e+06  -2.954163e+05
   8.466384e+05   4.617775e+05
  -2.501581e+05   5.543168e+05
  -5.045028e+05   4.744479e+04
  -1.780036e+04  -4.027568e+05
   4.584062e+05  -2.536184e+05
   4.801659e+05   3.461610e+05
   2.283986e+05   7.374508e+05
   7.167313e+04   4.858916e+05
   1.404379e+05  -1.131958e+05
   3.004786e+05  -3.172425e+05
   2.817704e+05   2.312497e+05
  -1.560113e+05   1.002779e+06
  -9.063699e+05   1.067676e+06
  -1.343650e+06   1.563722e+05
  -8.280455e+05  -9.250000e+05
   4.210642e+05  -1.124168e+06
   1.252383e+06  -3.138319e+05
   7.353469e+05   5.863646e+05
  -7.021508e+05   6.567831e+05
  -1.610517e+06  -8.558051e+04
  -1.043448e+06  -8.639490e+05
   4.656764e+05  -1.014372e+06
   1.516396e+06  -5.130363e+05
   1.262980e+06   1.765471e+05
   1.465653e+05   5.235555e+05
  -6.523691e+05   2.810442e+05
  -3.797966e+05  -2.907947e+05
   6.014499e+05  -5.170730e+05
   1.193251e+06   9.774929e+04
   6.595818e+05   1.201738e+06
  -6.175019e+05   1.713431e+06
  -1.509962e+06   8.821433e+05
  -1.268688e+06  -7.730783e+05
  -2.018300e+05  -1.815955e+06
   7.491397e+05  -1.318200e+06
   9.381192e+05   1.677290e+05
   4.466648e+05   1.203392e+06
  -2.079807e+05   9.869608e+05
  -5.638824e+05   9.025628e+04
  -4.815157e+05  -3.837078e+05
  -1.766255e+05  -1.417178e+05
  -4.479215e+04   9.940765e+04
  -2.668184e+05  -2.929084e+05
  -5.091740e+05  -9.751578e+05
  -2.054330e+05  -1.092339e+06
   7.086015e+05  -4.001063e+05
   1.494263e+06   4.710307e+05
   1.306282e+06   8.457772e+05
   1.881500e+05   7.043267e+05
  -8.726270e+05   4.244408e+05
  -9.988322e+05   1.883074e+05
  -3.570266e+05  -4.933977e+04
   1.506443e+05  -2.279407e+05
   2.570402e+04  -2.111085e+05
  -2.788728e+05  -9.933547e+04
  -4.773860e+04  -1.358836e+05
   6.800288e+05  -2.376333e+05
   1.058765e+06   1.319784e+04
   4.258325e+05   7.008256e+05
  -8.591623e+05   1.189679e+06
  -1.714836e+06   7.611692e+05
  -1.420227e+06  -4.405690e+05
  -2.782421e+05  -1.424829e+06
   7.725724e+05  -1.390964e+06
   1.062353e+06  -5.420400e+05
   6.658765e+05   2.374169e+05
   1.333038e+05   3.631094e+05
  -7.772344e+04   6.490892e+04
   7.900563e+04  -2.099115e+04
   3.073438e+05   3.691281e+05
   2.542756e+05   8.171613e+05
  -1.812953e+05   6.872516e+05
  -6.921324e+05  -1.235404e+05
  -7.494374e+05  -9.649682e+05
  -1.157305e+05  -1.045125e+06
   7.653363e+05  -2.508645e+05
   1.050662e+06   7.293601e+05
   3.545484e+05   1.102531e+06
  -7.210123e+05   6.864595e+05
  -1.131513e+06  -7.296167e+04
  -5.375485e+05  -6.165865e+05
   2.891177e+05  -6.846108e+05
   3.803865e+05  -3.719792e+05
  -2.537019e+05  -7.939931e+03
  -6.583708e+05   4.228666e+04
  -1.485086e+05  -3.112707e+05
   8.331139e+05  -6.906611e+05
   1.269962e+06  -5.520768e+05
   7.690478e+05   1.763374e+05
  -9.488048e+04   8.797838e+05
  -5.544097e+05   8.669248e+05
  -4.293120e+05   1.629039e+05
  -5.612929e+04  -4.863620e+05
   2.412813e+05  -4.412802e+05
   3.584955e+05   1.486043e+05
   2.598583e+05   5.836177e+05
  -5.276011e+04   4.321119e+05
  -3.966127e+05  -4.381673e+04
  -4.816774e+05  -2.815501e+05
  -2.452083e+05  -9.583865e+04
   3.402741e+04   1.516414e+05
   8.199964e+04   4.185696e+04
  -1.343488e+04  -3.601267e+05
   5.060749e+04  -5.588070e+05
   3.244823e+05  -2.224264e+05
   4.666771e+05   3.838881e+05
   1.615718e+05   6.572737e+05
  -4.124431e+05   3.212898e+05
  -6.750517e+05  -2.801582e+05
  -2.608121e+05  -5.800127e+05
   5.119661e+05  -3.727170e+05
   8.948179e+05   7.203573e+04
   4.874366e+05   3.800172e+05
  -2.960519e+05   4.071789e+05
  -6.470254e+05   2.346156e+05
  -2.539212e+05   1.916742e+04
   3.508374e+05  -7.299141e+04
   4.144157e+05   6.100036e+04
  -1.672047e+05   2.968074e+05
  -7.503871e+05   2.815055e+05
