
 $NMID
 id='ANONYMOUS ', fmtdat='(2E16.6)'
 volume=1.0
 tramp=1.0
 $END
   1.852471e+07   1.157644e+06
   1.191337e+07   9.159270e+06
  -5.088932e+05   1.159924e+07
  -8.317065e+06   7.601449e+06
  -6.863376e+06   7.306040e+05
  -3.817220e+05  -3.372505e+06
   3.901733e+06  -1.704193e+06
   2.891738e+06   3.093703e+06
  -1.008032e+06   5.303605e+06
  -3.636212e+06   2.285516e+06
  -2.972654e+06  -2.635933e+06
  -1.757992e+05  -4.072733e+06
   1.931669e+06  -7.000946e+05
   1.362265e+06   3.511360e+06
  -1.264266e+06   3.966575e+06
  -3.201626e+06   2.836712e+05
  -2.222722e+06  -3.823653e+06
   1.051091e+06  -4.680453e+06
   3.717362e+06  -2.030631e+06
   3.574201e+06   1.355130e+06
   1.294386e+06   2.748590e+06
  -4.904698e+05   1.949104e+06
  -7.583724e+04   9.608113e+05
   1.536949e+06   1.483004e+06
   1.758021e+06   2.978435e+06
  -7.073230e+05   3.403382e+06
  -4.145738e+06   1.664586e+06
  -5.281694e+06  -1.087436e+06
  -2.709095e+06  -2.687871e+06
   1.316083e+06  -2.079079e+06
   3.009798e+06  -5.949556e+04
   1.040842e+06   1.617884e+06
  -2.134930e+06   1.576181e+06
  -3.146888e+06  -2.576865e+05
  -1.352752e+06  -2.427271e+06
   9.381366e+05  -2.916444e+06
   1.468548e+06  -1.118730e+06
   3.627635e+05   1.147234e+06
  -6.324334e+05   1.367097e+06
  -3.780795e+05  -6.787554e+05
   7.274586e+05  -2.423307e+06
   1.554278e+06  -1.564665e+06
   1.317678e+06   1.014600e+06
   5.437447e+04   2.262353e+06
  -1.323724e+06   6.760979e+05
  -1.462333e+06  -1.944489e+06
   2.579287e+05  -2.696140e+06
   2.671659e+06  -7.896835e+05
   3.488153e+06   1.898093e+06
   1.569088e+06   3.016133e+06
  -1.601231e+06   1.909762e+06
  -3.216180e+06  -1.833609e+05
  -1.994315e+06  -1.503404e+06
   5.805815e+05  -1.230207e+06
   1.947740e+06   1.991250e+04
   1.110516e+06   8.950766e+05
  -5.938099e+05   5.970208e+05
  -1.170205e+06  -4.102944e+05
  -1.193310e+05  -9.755130e+05
   1.157063e+06  -4.907108e+05
   9.958744e+05   5.300578e+05
  -6.182855e+05   1.014515e+06
  -1.923158e+06   3.322255e+05
  -1.240731e+06  -1.161896e+06
   1.146387e+06  -2.333591e+06
   3.209457e+06  -2.066710e+06
   3.274976e+06  -2.207424e+05
   1.642582e+06   2.044780e+06
  -2.326601e+04   3.169806e+06
  -6.082557e+05   2.660839e+06
  -4.850117e+05   1.502701e+06
  -6.527111e+05   8.991430e+05
  -1.417327e+06   8.328638e+05
  -2.131000e+06   2.990325e+05
  -1.978965e+06  -1.081523e+06
  -7.862319e+05  -2.240473e+06
   8.053766e+05  -1.813088e+06
   1.739128e+06   1.341738e+05
   1.269745e+06   1.958623e+06
  -3.605628e+05   2.078808e+06
  -1.922709e+06   5.093602e+05
  -2.175565e+06  -1.320168e+06
  -1.037505e+06  -2.065110e+06
   3.474428e+05  -1.611197e+06
   8.717940e+05  -8.475791e+05
   6.681711e+05  -5.667609e+05
   8.087643e+05  -7.042090e+05
   1.815636e+06  -5.618957e+05
   2.783943e+06   3.631068e+05
   2.272525e+06   1.787894e+06
   3.702897e+04   2.790494e+06
  -2.397320e+06   2.537851e+06
  -3.106481e+06   1.019841e+06
  -1.684841e+06  -8.008211e+05
   3.604445e+05  -1.658941e+06
   1.167086e+06  -1.061027e+06
   3.313899e+05   2.019372e+05
  -9.196657e+05   7.786385e+05
  -1.203510e+06   1.572062e+05
  -3.763993e+05  -7.699631e+05
   5.422779e+05  -7.571270e+05
   5.618593e+05   2.407818e+05
  -3.333344e+05   8.976387e+05
  -1.260748e+06   6.519837e+04
  -1.235155e+06  -1.746274e+06
   2.465540e+04  -2.761075e+06
   1.793754e+06  -1.812929e+06
   2.787889e+06   4.168371e+05
   2.186650e+06   2.124639e+06
   4.397749e+05   2.172815e+06
  -1.039290e+06   1.019889e+06
  -1.192923e+06   5.356387e+03
  -3.427700e+05  -4.909688e+04
   2.400954e+05   5.230659e+05
  -2.128514e+05   8.093019e+05
  -1.124503e+06   3.423133e+05
  -1.292488e+06  -4.721258e+05
  -3.378744e+05  -8.453796e+05
   7.777256e+05  -4.334542e+05
   7.747365e+05   3.219243e+05
  -4.911272e+05   6.203316e+05
  -1.754417e+06   5.460800e+04
  -1.605059e+06  -9.961232e+05
   1.784362e+04  -1.660921e+06
   1.707003e+06  -1.319379e+06
   1.994337e+06  -1.847605e+05
   7.960266e+05   8.157412e+05
  -6.013613e+05   8.624970e+05
  -9.006956e+05   5.491509e+04
  -1.194055e+04  -6.521315e+05
   1.035144e+06  -4.360807e+05
   1.197593e+06   4.983874e+05
   3.655583e+05   1.146622e+06
  -6.496506e+05   8.350822e+05
  -9.311948e+05  -3.749325e+04
  -3.143263e+05  -4.878955e+05
   4.543405e+05  -5.823366e+04
   4.422949e+05   7.203614e+05
  -4.832375e+05   9.420204e+05
  -1.427027e+06   2.585911e+05
  -1.353547e+06  -8.190658e+05
  -2.089037e+05  -1.426694e+06
   9.813765e+05  -1.105612e+06
   1.184207e+06  -1.699414e+05
   4.015606e+05   5.854884e+05
  -4.438259e+05   5.939813e+05
  -5.468432e+05   2.349980e+04
   1.170856e+04  -4.335473e+05
   5.001017e+05  -3.169446e+05
   3.765355e+05   1.074828e+05
  -1.681310e+05   1.944097e+05
  -4.405885e+05  -2.787662e+05
   2.462959e+04  -7.933989e+05
   9.347430e+05  -6.345270e+05
   1.444790e+06   3.139155e+05
   9.640608e+05   1.386483e+06
  -2.230039e+05   1.733456e+06
  -1.203606e+06   1.084021e+06
  -1.326647e+06  -3.442269e+04
  -7.803194e+05  -7.885772e+05
  -2.582940e+05  -7.804996e+05
  -1.600216e+05  -3.528190e+05
  -2.401785e+05  -1.564790e+05
  -2.085160e+04  -4.090637e+05
   5.761243e+05  -6.484487e+05
   1.068753e+06  -2.970052e+05
   8.642020e+05   5.752626e+05
  -1.238072e+05   1.189332e+06
  -1.263066e+06   8.306549e+05
  -1.641422e+06  -3.675437e+05
  -8.437731e+05  -1.481597e+06
   6.221435e+05  -1.636311e+06
   1.709978e+06  -7.740941e+05
   1.723959e+06   3.657253e+05
   8.684488e+05   9.712986e+05
  -5.386430e+04   8.620635e+05
  -4.331367e+05   5.244850e+05
  -3.269439e+05   4.968012e+05
  -2.277805e+05   7.582688e+05
  -4.614861e+05   7.741115e+05
  -8.400358e+05   1.526123e+05
  -8.744043e+05  -8.158917e+05
  -3.168106e+05  -1.363475e+06
   5.044138e+05  -9.965351e+05
   9.263805e+05   6.362011e+03
   5.854006e+05   8.563490e+05
  -1.929266e+05   9.672262e+05
  -6.972899e+05   4.041449e+05
  -5.450475e+05  -2.919321e+05
  -4.183211e+04  -6.377379e+05
   2.075032e+05  -5.722461e+05
  -3.650054e+03  -3.735445e+05
  -2.573776e+05  -2.907715e+05
  -6.441518e+03  -2.885674e+05
   7.494089e+05  -1.437726e+05
   1.352765e+06   2.485398e+05
   1.113266e+06   7.105786e+05
   5.591224e+04   9.262837e+05
  -1.011706e+06   7.252704e+05
  -1.254212e+06   2.332732e+05
  -6.262132e+05  -2.149138e+05
   1.336439e+05  -3.219271e+05
   3.218646e+05  -7.645200e+04
  -3.599459e+04   1.995072e+05
  -3.710284e+05   1.368963e+05
  -3.095408e+05  -2.592769e+05
  -3.598662e+04  -5.470503e+05
   5.880608e+04  -3.446082e+05
  -1.168223e+05   1.435003e+05
  -3.015743e+05   2.957116e+05
  -2.110668e+05  -1.591473e+05
   1.898398e+05  -7.302290e+05
   6.611339e+05  -7.042629e+05
   8.262755e+05  -1.023628e+04
   4.354556e+05   6.714027e+05
  -3.246178e+05   6.824062e+05
  -8.153571e+05   8.846972e+04
  -4.803694e+05  -4.665144e+05
   4.884167e+05  -4.626589e+05
   1.178998e+06   5.353564e+04
   8.457859e+05   6.197643e+05
  -2.632279e+05   7.909596e+05
  -1.119839e+06   4.590778e+05
  -9.824129e+05  -9.143045e+04
  -1.394454e+05  -4.011684e+05
   4.596592e+05  -2.289523e+05
   2.285769e+05   1.826925e+05
  -4.852283e+05   2.932249e+05
  -8.238901e+05  -1.837608e+05
  -3.295649e+05  -9.038376e+05
   6.024043e+05  -1.141922e+06
   1.146341e+06  -4.965970e+05
   8.623630e+05   6.318484e+05
   6.186600e+04   1.318526e+06
  -5.843705e+05   9.645412e+05
  -6.848156e+05  -8.901328e+04
  -3.446804e+05  -8.674270e+05
   9.929829e+04  -7.505516e+05
   3.813705e+05  -8.378803e+04
   3.917829e+05   3.087791e+05
   1.891889e+05   1.343536e+05
   1.026645e+04  -9.282683e+04
   8.323417e+04   1.629988e+05
   2.922544e+05   6.893333e+05
   1.913830e+05   8.075067e+05
  -4.234093e+05   2.826680e+05
  -1.062253e+06  -3.926093e+05
  -9.809044e+05  -6.548003e+05
  -1.199818e+05  -4.920545e+05
   7.063239e+05  -2.571651e+05
   7.465812e+05  -1.226988e+05
   1.962958e+05   2.091154e+03
  -1.429398e+05   1.470976e+05
   5.323655e+04   1.963859e+05
   2.792478e+05   1.353033e+05
  -6.157967e+03   1.014125e+05
  -5.848547e+05   9.988880e+04
  -7.374031e+05  -8.107154e+04
  -1.428483e+05  -4.916556e+05
   7.418807e+05  -7.460378e+05
   1.184916e+06  -4.017279e+05
   8.734109e+05   4.188013e+05
   9.625550e+04   1.034743e+06
  -5.847602e+05   9.221504e+05
  -7.709052e+05   2.755502e+05
  -4.699211e+05  -2.484957e+05
  -4.007669e+04  -2.590635e+05
   1.300216e+05   1.451943e+04
  -3.274521e+04   7.246935e+04
  -2.433724e+05  -2.517519e+05
  -1.777364e+05  -5.922775e+05
   1.770458e+05  -4.581904e+05
   4.970636e+05   1.801120e+05
   4.284050e+05   7.728508e+05
  -6.310829e+04   7.291090e+05
  -5.994230e+05   5.446428e+04
  -6.741847e+05  -6.421984e+05
  -1.410230e+05  -7.888404e+05
   5.532671e+05  -3.864252e+05
   7.532322e+05   1.292131e+05
   3.057672e+05   4.022101e+05
  -2.272504e+05   3.941567e+05
  -2.176864e+05   2.310764e+05
   2.519951e+05   5.278517e+04
   4.865028e+05   1.656974e+04
   6.427051e+04   2.109353e+05
  -6.240226e+05   4.575471e+05
  -8.645678e+05   3.888646e+05
  -4.636375e+05  -9.826584e+04
   1.158718e+05  -5.865767e+05
   3.670453e+05  -5.585574e+05
   2.324216e+05  -4.393053e+04
  -2.734907e+04   3.750094e+05
  -2.045170e+05   2.574214e+05
  -2.453357e+05  -1.911164e+05
  -1.426283e+05  -4.276599e+05
   7.370706e+04  -2.393175e+05
   2.729958e+05   8.121663e+04
   3.052020e+05   1.748334e+05
   1.704465e+05   3.783352e+04
   1.451133e+04  -5.323842e+04
  -6.216343e+04   7.672204e+04
  -1.069594e+05   2.926034e+05
  -1.944498e+05   3.080604e+05
  -2.756324e+05   1.243853e+04
  -2.129710e+05  -3.711688e+05
   4.296931e+04  -4.754357e+05
   3.410069e+05  -1.685196e+05
   4.127451e+05   2.766082e+05
   1.158894e+05   4.489127e+05
  -3.602125e+05   2.269158e+05
  -5.850896e+05  -1.273147e+05
  -3.030616e+05  -2.950391e+05
   2.276920e+05  -2.198766e+05
   4.468221e+05  -6.837935e+04
   1.255347e+05   7.775591e+03
  -3.237472e+05  -2.822999e+04
  -3.139016e+05  -1.449169e+05
   1.994243e+05  -2.424153e+05
   6.469416e+05  -1.479756e+05
