
 $NMID
 id='ANONYMOUS ', fmtdat='(2E16.6)'
 volume=1.0
 tramp=1.0
 $END
   2.067822e+07   1.656460e+06
   1.161287e+07   1.358254e+07
  -3.658803e+06   1.380580e+07
  -1.065222e+07   4.888164e+06
  -6.117626e+06  -2.908244e+06
   1.419873e+06  -3.583228e+06
   3.838169e+06   4.537151e+05
   1.039290e+06   3.790276e+06
  -2.510871e+06   3.645586e+06
  -3.777068e+06   6.433611e+05
  -2.498856e+06  -2.667627e+06
   4.446320e+04  -3.439906e+06
   1.740427e+06  -8.819386e+05
   9.291175e+05   2.334298e+06
  -1.591319e+06   2.540933e+06
  -2.935248e+06  -6.601008e+05
  -1.364114e+06  -3.938684e+06
   1.792300e+06  -4.232183e+06
   3.938579e+06  -1.754147e+06
   3.847133e+06   1.225499e+06
   2.056391e+06   2.983343e+06
  -9.882909e+04   3.097342e+06
  -1.194582e+06   2.046147e+06
  -6.258878e+05   9.966468e+05
   4.118566e+05   1.014868e+06
  -1.103850e+05   1.706306e+06
  -2.326565e+06   1.479722e+06
  -3.802286e+06  -2.211175e+05
  -2.569160e+06  -1.911806e+06
   1.848148e+05  -2.010817e+06
   1.675629e+06  -8.286566e+05
   9.749133e+05   2.176472e+05
  -4.507064e+05   4.468248e+05
  -1.079148e+06   2.343680e+04
  -7.356205e+05  -8.399912e+05
   9.860843e+04  -1.625721e+06
   9.262172e+05  -1.292139e+06
   1.115532e+06   3.018044e+05
   4.027134e+05   1.429311e+06
  -3.293231e+05   5.626731e+05
   5.049743e+04  -1.056098e+06
   1.051964e+06  -8.204304e+05
   8.722154e+05   1.288350e+06
  -9.611320e+05   2.260561e+06
  -2.492381e+06   2.564715e+05
  -1.713390e+06  -2.626752e+06
   8.452767e+05  -3.065898e+06
   2.790635e+06  -6.979653e+05
   2.545969e+06   1.858913e+06
   5.882657e+05   2.381959e+06
  -1.443196e+06   1.015755e+06
  -2.074901e+06  -7.097433e+05
  -8.976737e+05  -1.480157e+06
   9.976267e+05  -8.762768e+05
   1.758919e+06   4.466627e+05
   7.126828e+05   1.143950e+06
  -7.024427e+05   5.288086e+05
  -7.009809e+05  -4.726688e+05
   4.806936e+05  -4.379675e+05
   9.651538e+05   6.107578e+05
  -1.492231e+05   1.259986e+06
  -1.659217e+06   6.547783e+05
  -1.941620e+06  -5.875703e+05
  -7.759249e+05  -1.523400e+06
   8.952351e+05  -1.882287e+06
   2.139131e+06  -1.586461e+06
   2.418266e+06  -3.713137e+05
   1.559615e+06   1.401115e+06
   8.259303e+04   2.412202e+06
  -8.899447e+05   1.811374e+06
  -7.437872e+05   4.717441e+05
  -1.416464e+05  -7.809371e+04
  -1.301261e+05   3.472145e+05
  -7.505461e+05   5.727954e+05
  -1.121377e+06  -9.254142e+04
  -6.997692e+05  -9.337215e+05
   1.461858e+05  -9.233722e+05
   7.275004e+05  -1.350191e+04
   6.411400e+05   9.661073e+05
  -1.366038e+05   1.214526e+06
  -1.184011e+06   5.194213e+05
  -1.667209e+06  -6.838656e+05
  -1.037256e+06  -1.570984e+06
   1.977516e+05  -1.561538e+06
   9.347945e+05  -8.967243e+05
   8.442575e+05  -3.419813e+05
   7.104988e+05  -2.270157e+05
   1.167655e+06  -1.182753e+05
   1.683542e+06   4.350703e+05
   1.281051e+06   1.221893e+06
  -9.244140e+04   1.658652e+06
  -1.433410e+06   1.434628e+06
  -1.777739e+06   6.557396e+05
  -1.056620e+06  -3.165201e+05
   1.488077e+04  -9.289361e+05
   5.746927e+05  -7.267485e+05
   2.541564e+05   5.279696e+04
  -4.979935e+05   5.038809e+05
  -8.051426e+05   1.051027e+05
  -3.297831e+05  -5.293245e+05
   2.841438e+05  -4.719880e+05
   2.256129e+05   1.583020e+05
  -4.016574e+05   3.219038e+05
  -7.232244e+05  -4.531879e+05
  -2.334552e+05  -1.371819e+06
   6.679333e+05  -1.393453e+06
   1.290543e+06  -4.479266e+05
   1.335400e+06   6.730470e+05
   8.659178e+05   1.246955e+06
   9.037866e+04   1.109761e+06
  -5.778935e+05   5.335250e+05
  -6.640614e+05   6.366287e+03
  -2.005097e+05  -4.776245e+04
   1.315161e+05   3.164936e+05
  -1.903421e+05   5.331599e+05
  -7.814950e+05   1.870568e+05
  -8.178901e+05  -4.104255e+05
  -1.470602e+05  -6.022261e+05
   4.909612e+05  -2.369696e+05
   3.888864e+05   1.915071e+05
  -3.198694e+05   2.093827e+05
  -8.781851e+05  -1.640715e+05
  -6.960744e+05  -6.063724e+05
   1.503084e+05  -8.174056e+05
   1.004777e+06  -6.069603e+05
   1.151519e+06  -7.027891e+03
   4.553625e+05   5.664406e+05
  -4.261580e+05   5.790348e+05
  -6.423400e+05   2.154783e+04
  -4.941712e+04  -4.487752e+05
   6.417575e+05  -2.568908e+05
   6.877135e+05   3.714123e+05
   1.021273e+05   7.025401e+05
  -4.782437e+05   3.988089e+05
  -5.342339e+05  -1.442373e+05
  -1.171770e+05  -3.371178e+05
   3.007872e+05  -3.110275e+04
   2.660680e+05   4.183011e+05
  -2.634090e+05   5.383655e+05
  -8.125702e+05   1.444076e+05
  -7.768952e+05  -4.957512e+05
  -7.993541e+04  -8.543252e+05
   6.474873e+05  -6.186546e+05
   7.272677e+05  -2.122102e+04
   1.964117e+05   3.912460e+05
  -2.955057e+05   3.324514e+05
  -2.911725e+05   1.938616e+04
   2.652728e+04  -1.630378e+05
   2.045505e+05  -9.823688e+04
   7.792114e+04   2.015122e+04
  -1.462372e+05  -3.131836e+04
  -1.747881e+05  -2.642221e+05
   1.174673e+05  -4.510589e+05
   5.765249e+05  -3.011773e+05
   8.130566e+05   2.423749e+05
   5.092681e+05   8.345465e+05
  -1.900455e+05   9.753925e+05
  -7.244031e+05   5.238309e+05
  -7.016785e+05  -1.181064e+05
  -3.264797e+05  -4.333594e+05
  -9.093478e+04  -3.275476e+05
  -1.480760e+05  -1.300815e+05
  -2.045057e+05  -1.327363e+05
   8.752054e+03  -2.806170e+05
   3.829729e+05  -3.109152e+05
   5.824740e+05  -6.749906e+04
   3.843632e+05   3.376135e+05
  -1.582424e+05   5.811372e+05
  -7.279729e+05   3.630434e+05
  -8.839246e+05  -2.806874e+05
  -3.901433e+05  -8.832416e+05
   4.722308e+05  -9.166391e+05
   1.053794e+06  -3.370805e+05
   9.437434e+05   3.399921e+05
   3.686142e+05   5.885161e+05
  -1.084622e+05   4.059250e+05
  -2.017962e+05   2.101587e+05
  -9.742199e+04   2.908534e+05
  -1.106658e+05   5.010135e+05
  -3.165843e+05   4.803185e+05
  -5.243286e+05   7.407343e+04
  -4.925075e+05  -4.912676e+05
  -1.483280e+05  -7.897429e+05
   3.110289e+05  -5.593610e+05
   5.250190e+05   4.240102e+04
   2.886226e+05   5.381081e+05
  -1.937048e+05   5.505703e+05
  -4.671966e+05   1.455804e+05
  -3.011921e+05  -2.767199e+05
   6.460563e+04  -4.120324e+05
   2.141755e+05  -3.044497e+05
   4.102123e+04  -1.832915e+05
  -1.458514e+05  -1.612670e+05
   2.814610e+03  -1.549554e+05
   4.567466e+05  -3.669384e+04
   7.930856e+05   2.109737e+05
   6.090340e+05   4.692546e+05
  -4.400570e+04   5.628105e+05
  -6.581784e+05   3.942777e+05
  -7.481267e+05   5.615683e+04
  -3.326240e+05  -2.063064e+05
   1.161600e+05  -2.058304e+05
   2.005288e+05  -2.630325e+03
  -1.970355e+04   1.508218e+05
  -2.048481e+05   7.136256e+04
  -1.733591e+05  -1.648680e+05
  -4.260284e+04  -3.061864e+05
   3.408022e+03  -1.969326e+05
  -6.369623e+04   4.075538e+04
  -1.357979e+05   1.184663e+05
  -9.322649e+04  -9.541947e+04
   1.127337e+05  -3.827307e+05
   3.948678e+05  -3.799294e+05
   5.169706e+05  -5.489670e+03
   2.761447e+05   3.957764e+05
  -2.101408e+05   4.181217e+05
  -5.012257e+05   6.140221e+04
  -2.643438e+05  -2.709422e+05
   3.094893e+05  -2.344934e+05
   6.481650e+05   1.023328e+05
   3.929685e+05   3.931451e+05
  -2.248383e+05   3.957495e+05
  -6.361892e+05   1.534225e+05
  -5.092868e+05  -1.180076e+05
  -4.224002e+04  -2.202177e+05
   2.730064e+05  -9.486041e+04
   1.405470e+05   1.240269e+05
  -2.620860e+05   1.757020e+05
  -4.691918e+05  -9.429078e+04
  -2.022456e+05  -5.096131e+05
   3.332837e+05  -6.524378e+05
   6.496572e+05  -2.769981e+05
   4.731493e+05   3.727511e+05
  -3.213064e+03   7.408532e+05
  -3.609154e+05   5.018648e+05
  -3.722894e+05  -1.004128e+05
  -1.365054e+05  -5.007899e+05
   1.124886e+05  -3.949068e+05
   2.241384e+05  -1.972609e+04
   1.843467e+05   1.753795e+05
   7.518812e+04   6.763535e+04
   2.075135e+04  -4.328624e+04
   8.409001e+04   1.178750e+05
   1.604586e+05   4.097559e+05
   4.787300e+04   4.549066e+05
  -2.900205e+05   1.371327e+05
  -5.826522e+05  -2.554136e+05
  -4.979084e+05  -3.997245e+05
  -4.513192e+04  -2.875947e+05
   3.783770e+05  -1.269248e+05
   4.128591e+05  -3.422113e+04
   1.337715e+05   2.821680e+04
  -7.546126e+04   8.469270e+04
  -1.276170e+04   9.253161e+04
   1.157420e+05   5.846506e+04
   9.620257e+03   5.221155e+04
  -2.917907e+05   5.704214e+04
  -4.202067e+05  -5.295293e+04
  -1.234239e+05  -2.921618e+05
   4.062406e+05  -4.295440e+05
   7.108979e+05  -2.224306e+05
   5.320242e+05   2.434358e+05
   4.154795e+04   5.831692e+05
  -3.657480e+05   5.170539e+05
  -4.435209e+05   1.613164e+05
  -2.541595e+05  -1.287012e+05
  -3.369532e+04  -1.468450e+05
   4.068908e+04  -1.284099e+04
  -3.038044e+04   1.342725e+04
  -1.129988e+05  -1.576641e+05
  -7.302806e+04  -3.381486e+05
   1.018839e+05  -2.657510e+05
   2.722830e+05   8.548366e+04
   2.507331e+05   4.249695e+05
  -1.187116e+04   4.207026e+05
  -3.229550e+05   5.398318e+04
  -3.820409e+05  -3.495161e+05
  -8.418310e+04  -4.549164e+05
   3.190960e+05  -2.323031e+05
   4.415230e+05   8.170703e+04
   1.825379e+05   2.590351e+05
  -1.406211e+05   2.491796e+05
  -1.561448e+05   1.331841e+05
   1.108641e+05   2.389693e+04
   2.662554e+05   1.614421e+04
   4.123600e+04   1.280766e+05
  -3.652509e+05   2.405926e+05
  -5.266939e+05   1.743765e+05
  -2.919361e+05  -9.489493e+04
   7.787037e+04  -3.443628e+05
   2.512207e+05  -3.198255e+05
   1.663394e+05  -3.996517e+04
  -7.150601e+03   2.000916e+05
  -1.172609e+05   1.583834e+05
  -1.343401e+05  -8.596782e+04
  -7.548895e+04  -2.451601e+05
   4.123536e+04  -1.610269e+05
   1.557117e+05   3.950224e+04
   1.789087e+05   1.272724e+05
   9.511838e+04   4.413364e+04
  -4.351203e+03  -5.320520e+04
  -3.480332e+04  -5.006826e+03
  -2.559081e+04   1.477199e+05
  -6.212722e+04   2.064462e+05
  -1.422517e+05   5.508397e+04
  -1.536830e+05  -1.836477e+05
  -1.676491e+04  -2.675752e+05
   1.832775e+05  -1.031069e+05
   2.483507e+05   1.477445e+05
   7.148697e+04   2.457279e+05
  -2.180313e+05   1.244135e+05
  -3.473817e+05  -7.234708e+04
  -1.749256e+05  -1.737091e+05
   1.353112e+05  -1.428244e+05
   2.658327e+05  -5.639209e+04
   9.536481e+04   4.694810e+03
  -1.530571e+05   4.158264e+03
  -1.658910e+05  -5.517795e+04
   9.040321e+04  -1.164898e+05
   3.279294e+05  -7.493682e+04
