
 $NMID
 id='ANONYMOUS ', fmtdat='(2E16.6)'
 volume=1.0
 tramp=1.0
 $END
  -6.058451e+07  -3.820301e+05
  -3.631418e+07  -3.809072e+07
   8.413793e+06  -4.121479e+07
   3.010593e+07  -1.539426e+07
   1.781115e+07   8.025051e+06
  -3.775165e+06   1.010923e+07
  -1.068535e+07  -1.606395e+06
  -2.772520e+06  -1.070344e+07
   6.999897e+06  -9.917422e+06
   1.049761e+07  -1.914609e+06
   7.386506e+06   6.740950e+06
   7.237005e+05   9.169724e+06
  -4.258717e+06   2.892696e+06
  -2.623682e+06  -5.788084e+06
   4.243886e+06  -6.882764e+06
   8.477083e+06   1.605096e+06
   4.610109e+06   1.104994e+07
  -4.242211e+06   1.263001e+07
  -1.090629e+07   6.246269e+06
  -1.157412e+07  -2.242073e+06
  -7.123500e+06  -8.026611e+06
  -8.047105e+05  -9.337289e+06
   3.172844e+06  -6.646619e+06
   2.228297e+06  -3.006425e+06
  -8.987151e+05  -2.263953e+06
  -1.518619e+05  -4.285879e+06
   5.688721e+06  -4.501650e+06
   1.015873e+07  -4.016009e+05
   7.430205e+06   4.428116e+06
   3.095828e+05   5.319731e+06
  -3.831762e+06   2.670154e+06
  -2.528491e+06   1.029808e+05
   6.100049e+05  -7.690661e+05
   2.250736e+06  -3.658570e+05
   2.163764e+06   1.459660e+06
   6.864274e+05   4.032618e+06
  -1.891886e+06   4.085110e+06
  -3.450097e+06   7.450709e+02
  -1.893125e+06  -3.826390e+06
   7.421819e+05  -2.155295e+06
   2.931934e+05   2.469266e+06
  -2.673301e+06   2.350456e+06
  -2.578436e+06  -3.500531e+06
   2.741480e+06  -6.635226e+06
   7.587726e+06  -1.088481e+06
   5.501927e+06   7.506948e+06
  -2.142871e+06   9.206572e+06
  -8.001387e+06   2.530721e+06
  -7.335670e+06  -4.907906e+06
  -1.795044e+06  -6.514091e+06
   3.813008e+06  -2.788211e+06
   5.576142e+06   1.823175e+06
   2.474385e+06   3.845082e+06
  -2.675559e+06   2.329143e+06
  -4.860603e+06  -1.085822e+06
  -2.046669e+06  -2.982874e+06
   1.871049e+06  -1.450524e+06
   1.820222e+06   1.161765e+06
  -1.521902e+06   9.765756e+05
  -2.715010e+06  -2.007271e+06
   7.239948e+05  -3.835345e+06
   5.089724e+06  -2.058330e+06
   5.748243e+06   1.566140e+06
   2.445546e+06   4.347417e+06
  -1.990056e+06   5.575719e+06
  -5.362004e+06   5.030326e+06
  -6.576109e+06   1.766758e+06
  -4.829383e+06  -3.378112e+06
  -9.082025e+05  -6.556683e+06
   2.126816e+06  -5.055033e+06
   2.002169e+06  -1.236669e+06
   2.106723e+05   3.854779e+05
  -8.149450e+04  -9.139322e+05
   1.613221e+06  -1.818650e+06
   2.881475e+06  -2.384915e+05
   2.049143e+06   2.001372e+06
  -1.586414e+04   2.184198e+06
  -1.584256e+06   1.323079e+05
  -1.655925e+06  -2.226673e+06
   7.733524e+04  -3.072064e+06
   2.931012e+06  -1.694950e+06
   4.704760e+06   1.307991e+06
   3.392712e+06   4.025334e+06
  -6.274370e+04   4.526460e+06
  -2.466322e+06   2.914917e+06
  -2.441009e+06   1.206384e+06
  -2.012112e+06   6.768258e+05
  -3.163911e+06   4.030433e+05
  -4.604642e+06  -9.564377e+05
  -3.611008e+06  -3.053861e+06
   3.372169e+03  -4.378697e+06
   3.514817e+06  -4.015394e+06
   4.450356e+06  -2.113107e+06
   2.773244e+06   4.925116e+05
   2.442832e+05   2.329139e+06
  -1.185056e+06   2.001178e+06
  -5.874378e+05  -4.058494e+04
   1.180318e+06  -1.347293e+06
   2.039177e+06  -3.715929e+05
   9.598712e+05   1.297944e+06
  -5.754068e+05   1.150768e+06
  -4.218172e+05  -4.536099e+05
   1.223954e+06  -6.998784e+05
   2.001164e+06   1.510575e+06
   5.442861e+05   3.839951e+06
  -1.936141e+06   3.612365e+06
  -3.487904e+06   1.006813e+06
  -3.460743e+06  -1.745926e+06
  -2.240640e+06  -3.046768e+06
  -3.421799e+05  -2.767313e+06
   1.358379e+06  -1.493669e+06
   1.664640e+06  -1.881335e+05
   5.208630e+05   6.616008e+04
  -3.528446e+05  -8.136724e+05
   4.896326e+05  -1.429145e+06
   2.067537e+06  -5.636383e+05
   2.153757e+06   1.029236e+06
   3.583390e+05   1.543433e+06
  -1.277952e+06   5.612080e+05
  -9.123064e+05  -5.332641e+05
   9.566669e+05  -5.016049e+05
   2.306788e+06   4.765033e+05
   1.756915e+06   1.540646e+06
  -3.839614e+05   2.070088e+06
  -2.526643e+06   1.642539e+06
  -2.956893e+06   1.758843e+05
  -1.256663e+06  -1.399221e+06
   1.027980e+06  -1.586456e+06
   1.683300e+06  -1.636542e+05
   1.935518e+05   1.160031e+06
  -1.641911e+06   7.351133e+05
  -1.803568e+06  -9.080156e+05
  -2.773930e+05  -1.786300e+06
   1.229903e+06  -9.872851e+05
   1.335829e+06   4.105406e+05
   2.170189e+05   8.624515e+05
  -8.660064e+05   3.212828e+04
  -7.534858e+05  -1.149064e+06
   6.567649e+05  -1.495728e+06
   2.149659e+06  -5.113766e+05
   2.129933e+06   1.185063e+06
   3.347344e+05   2.225745e+06
  -1.601932e+06   1.700447e+06
  -1.853915e+06   1.520754e+05
  -4.947845e+05  -9.542307e+05
   7.406194e+05  -8.267471e+05
   6.630717e+05  -5.050838e+04
  -1.653858e+05   3.628549e+05
  -5.269878e+05   1.677921e+05
  -8.629789e+04  -9.107868e+04
   5.132161e+05   1.195383e+05
   5.298877e+05   7.680556e+05
  -2.812144e+05   1.271144e+06
  -1.514833e+06   8.993160e+05
  -2.201591e+06  -5.221997e+05
  -1.488486e+06  -2.122761e+06
   3.231635e+05  -2.560493e+06
   1.777097e+06  -1.420743e+06
   1.780728e+06   2.225081e+05
   8.400757e+05   9.840056e+05
   2.798629e+05   6.682819e+05
   5.055489e+05   2.128543e+05
   6.862972e+05   3.509540e+05
   8.181255e+04   8.307209e+05
  -9.767210e+05   9.246318e+05
  -1.554584e+06   2.728510e+05
  -1.065546e+06  -8.137685e+05
   3.469765e+05  -1.526632e+06
   1.877372e+06  -1.056736e+06
   2.364005e+06   6.087599e+05
   1.114319e+06   2.286988e+06
  -1.182853e+06   2.489417e+06
  -2.765511e+06   9.934637e+05
  -2.475320e+06  -8.187202e+05
  -9.336149e+05  -1.477689e+06
   2.872628e+05  -9.795062e+05
   4.275906e+05  -4.917663e+05
   7.450550e+04  -7.811552e+05
   1.290510e+05  -1.396965e+06
   7.571314e+05  -1.363975e+06
   1.394661e+06  -3.023973e+05
   1.385739e+06   1.191757e+06
   5.242155e+05   2.030269e+06
  -7.101788e+05   1.502282e+06
  -1.365931e+06  -5.606501e+04
  -8.145464e+05  -1.408110e+06
   4.835163e+05  -1.479891e+06
   1.281863e+06  -3.774003e+05
   8.553170e+05   8.019523e+05
  -1.836624e+05   1.167997e+06
  -6.295232e+05   8.219771e+05
  -1.234922e+05   4.332617e+05
   4.504526e+05   3.631585e+05
   5.210616e+04   4.049220e+05
  -1.240277e+06   1.824199e+05
  -2.197376e+06  -4.274752e+05
  -1.685715e+06  -1.170960e+06
   1.041887e+05  -1.546331e+06
   1.748944e+06  -1.170814e+06
   1.970847e+06  -2.180800e+05
   8.729628e+05   5.839376e+05
  -3.022832e+05   6.116015e+05
  -5.566226e+05   1.019271e+04
  -3.280114e+04  -4.599824e+05
   4.689044e+05  -2.598156e+05
   5.026434e+05   3.780097e+05
   2.615856e+05   7.620691e+05
   1.036584e+05   5.025407e+05
   1.531859e+05  -8.085045e+04
   2.993082e+05  -2.763660e+05
   2.815509e+05   2.607799e+05
  -1.776386e+05   1.031569e+06
  -9.920779e+05   1.105693e+06
  -1.472023e+06   1.636508e+05
  -8.986245e+05  -9.895735e+05
   4.717213e+05  -1.216529e+06
   1.353911e+06  -3.429011e+05
   7.606461e+05   6.250820e+05
  -7.764258e+05   6.617925e+05
  -1.678584e+06  -1.755790e+05
  -1.008849e+06  -9.712882e+05
   5.802574e+05  -1.022447e+06
   1.615370e+06  -4.183101e+05
   1.287541e+06   2.733970e+05
   1.091725e+05   5.498085e+05
  -7.069354e+05   2.517328e+05
  -4.089115e+05  -3.310712e+05
   6.227662e+05  -5.440057e+05
   1.250693e+06   1.039135e+05
   6.966993e+05   1.258328e+06
  -6.476130e+05   1.792135e+06
  -1.584114e+06   9.093077e+05
  -1.308543e+06  -8.327855e+05
  -1.600026e+05  -1.901162e+06
   8.324512e+05  -1.334297e+06
   9.762742e+05   2.384177e+05
   3.987439e+05   1.287981e+06
  -2.955894e+05   1.013662e+06
  -6.104079e+05   6.130515e+04
  -4.615785e+05  -4.169604e+05
  -1.454678e+05  -1.500798e+05
  -6.492817e+04   9.492295e+04
  -3.227285e+05  -3.296832e+05
  -5.229805e+05  -1.045886e+06
  -1.387941e+05  -1.152721e+06
   8.038358e+05  -3.984579e+05
   1.545506e+06   5.416111e+05
   1.305243e+06   9.360517e+05
   1.719421e+05   7.539156e+05
  -8.945940e+05   4.155938e+05
  -1.043604e+06   1.510858e+05
  -4.050493e+05  -7.754324e+04
   1.512180e+05  -2.355926e+05
   7.658576e+04  -2.084323e+05
  -2.432813e+05  -9.781704e+04
  -6.208100e+04  -1.383114e+05
   6.722517e+05  -2.375876e+05
   1.113906e+06   2.940902e+04
   4.909381e+05   7.426446e+05
  -8.893630e+05   1.243320e+06
  -1.843348e+06   7.893724e+05
  -1.526796e+06  -4.665529e+05
  -2.695406e+05  -1.492715e+06
   8.565613e+05  -1.456066e+06
   1.125125e+06  -5.698376e+05
   6.823509e+05   2.445314e+05
   1.486402e+05   3.820242e+05
  -4.247966e+04   8.388155e+04
   1.024054e+05   5.739497e+03
   2.959305e+05   4.120417e+05
   2.287659e+05   8.681234e+05
  -1.979289e+05   7.241749e+05
  -7.100280e+05  -1.209501e+05
  -7.817967e+05  -9.998789e+05
  -1.414611e+05  -1.095950e+06
   7.777010e+05  -2.787589e+05
   1.091259e+06   7.526334e+05
   3.720352e+05   1.163313e+06
  -7.615399e+05   7.315082e+05
  -1.203784e+06  -8.883376e+04
  -5.773340e+05  -6.833831e+05
   3.160862e+05  -7.485443e+05
   4.395387e+05  -3.960987e+05
  -2.276097e+05  -7.442363e+03
  -6.816636e+05   3.242581e+04
  -1.621980e+05  -3.350210e+05
   8.926074e+05  -6.997154e+05
   1.383009e+06  -5.272552e+05
   8.445839e+05   2.253852e+05
  -1.149542e+05   9.351738e+05
  -6.318268e+05   9.176660e+05
  -4.856267e+05   1.937689e+05
  -6.360215e+04  -4.933887e+05
   2.531820e+05  -4.758665e+05
   3.646164e+05   1.327111e+05
   2.639736e+05   6.166042e+05
  -5.106191e+04   4.803316e+05
  -4.140192e+05  -4.075001e+04
  -5.148420e+05  -3.273164e+05
  -2.594605e+05  -1.265872e+05
   5.349088e+04   1.822865e+05
   9.584234e+04   9.846565e+04
  -4.685711e+04  -3.487169e+05
  -5.033594e+03  -6.088219e+05
   3.136655e+05  -2.815296e+05
   5.169569e+05   3.664349e+05
   2.115972e+05   6.772990e+05
  -4.204691e+05   3.409695e+05
  -7.200293e+05  -2.832600e+05
  -2.750600e+05  -5.982749e+05
   5.547354e+05  -3.865691e+05
   9.543872e+05   7.706819e+04
   5.128575e+05   4.070916e+05
  -3.150557e+05   4.454884e+05
  -6.874241e+05   2.638876e+05
  -2.917215e+05   2.478857e+04
   3.286598e+05  -8.835722e+04
   4.123395e+05   3.912966e+04
  -1.567612e+05   2.801569e+05
  -7.450577e+05   2.709480e+05
