
 $NMID
 id='ANONYMOUS ', fmtdat='(2E16.6)'
 volume=1.0
 tramp=1.0
 $END
  -3.839626e+07  -2.437350e+06
  -2.264184e+07  -2.309525e+07
   4.776278e+06  -2.510251e+07
   1.867470e+07  -1.119002e+07
   1.206454e+07   3.069715e+06
  -1.452798e+06   6.475170e+06
  -7.122485e+06   3.977245e+05
  -3.027580e+06  -6.635987e+06
   3.738627e+06  -7.771968e+06
   6.953067e+06  -2.254780e+06
   5.079014e+06   4.838755e+06
   2.642060e+05   6.771498e+06
  -3.230827e+06   1.625523e+06
  -1.998290e+06  -4.996239e+06
   2.763539e+06  -5.643351e+06
   5.763826e+06   6.182533e+05
   3.284619e+06   7.418743e+06
  -2.777108e+06   8.515462e+06
  -7.347019e+06   3.812641e+06
  -7.337905e+06  -2.188258e+06
  -3.682098e+06  -5.501866e+06
   2.817147e+05  -5.285418e+06
   1.528479e+06  -3.316358e+06
  -1.894514e+05  -2.214120e+06
  -1.687794e+06  -3.120906e+06
   5.063216e+05  -4.300421e+06
   5.492166e+06  -3.002181e+06
   8.097605e+06   8.168763e+05
   4.969950e+06   3.949708e+06
  -9.558391e+05   3.748860e+06
  -3.870271e+06   1.093880e+06
  -1.848413e+06  -1.209872e+06
   1.814947e+06  -1.528740e+06
   3.279488e+06   2.202156e+04
   1.919037e+06   2.433797e+06
  -4.570857e+05   3.867725e+06
  -1.961174e+06   2.482005e+06
  -1.709573e+06  -9.504737e+05
  -2.171683e+05  -2.649034e+06
   6.726075e+05  -3.547620e+05
  -4.313954e+05   2.839205e+06
  -2.274764e+06   2.080289e+06
  -1.947339e+06  -2.217053e+06
   1.217506e+06  -4.282368e+06
   4.076523e+06  -7.364881e+05
   3.130583e+06   4.626770e+06
  -1.284264e+06   5.676872e+06
  -5.294832e+06   1.430814e+06
  -5.468952e+06  -3.541089e+06
  -1.775428e+06  -4.901684e+06
   2.769921e+06  -2.479198e+06
   4.603799e+06   9.580337e+05
   2.416960e+06   2.697322e+06
  -1.546112e+06   1.792457e+06
  -3.384344e+06  -5.488468e+05
  -1.593176e+06  -1.903334e+06
   1.224009e+06  -9.891582e+05
   1.585660e+06   7.967497e+05
  -5.247649e+05   1.067769e+06
  -1.880400e+06  -4.975661e+05
  -3.419432e+05  -1.890326e+06
   2.559468e+06  -1.441185e+06
   3.705180e+06   5.160035e+05
   1.811145e+06   2.672659e+06
  -1.776684e+06   3.975049e+06
  -4.675381e+06   3.506373e+06
  -5.164116e+06   7.652746e+05
  -3.136970e+06  -3.004566e+06
  -2.354804e+05  -5.055120e+06
   1.397671e+06  -3.987191e+06
   1.169274e+06  -1.577856e+06
   5.378844e+05  -5.315789e+05
   1.034079e+06  -1.035616e+06
   2.294341e+06  -9.669594e+05
   2.681626e+06   7.464845e+05
   1.418105e+06   2.522940e+06
  -6.208455e+05   2.258626e+06
  -1.943674e+06  -4.455019e+04
  -1.603744e+06  -2.375563e+06
   3.355002e+05  -2.802318e+06
   2.660210e+06  -1.030351e+06
   3.528180e+06   1.601804e+06
   2.082945e+06   3.252910e+06
  -3.828413e+05   3.048260e+06
  -1.722063e+06   1.762507e+06
  -1.513800e+06   8.536803e+05
  -1.422163e+06   7.579710e+05
  -2.634323e+06   5.317175e+05
  -3.924029e+06  -7.282388e+05
  -3.113551e+06  -2.623292e+06
   3.399575e+04  -3.855288e+06
   3.269824e+06  -3.477110e+06
   4.160115e+06  -1.565779e+06
   2.388201e+06   8.347227e+05
  -1.952317e+05   2.198829e+06
  -1.381311e+06   1.600382e+06
  -4.881903e+05  -1.729797e+05
   1.182821e+06  -1.114196e+06
   1.728171e+06  -2.390442e+05
   6.510274e+05   1.117412e+06
  -6.477495e+05   1.027724e+06
  -5.786290e+05  -3.579218e+05
   7.396411e+05  -9.193299e+05
   1.696580e+06   5.938683e+05
   1.066984e+06   2.840194e+06
  -8.379936e+05   3.460383e+06
  -2.730476e+06   1.699429e+06
  -3.439715e+06  -1.048309e+06
  -2.505312e+06  -2.827382e+06
  -4.416859e+05  -2.740829e+06
   1.344791e+06  -1.354243e+06
   1.571182e+06  -6.332591e+04
   4.668468e+05   6.939484e+04
  -3.102762e+05  -7.231995e+05
   3.795042e+05  -1.171189e+06
   1.682827e+06  -4.491874e+05
   1.815145e+06   7.986955e+05
   3.723864e+05   1.253598e+06
  -1.099898e+06   5.295820e+05
  -9.355701e+05  -4.618996e+05
   7.539034e+05  -6.456874e+05
   2.225509e+06   1.786757e+05
   1.886861e+06   1.377663e+06
  -1.878806e+05   2.064830e+06
  -2.311321e+06   1.617743e+06
  -2.686017e+06   1.731904e+05
  -1.082633e+06  -1.191173e+06
   8.894771e+05  -1.270386e+06
   1.356491e+06  -8.074402e+04
   6.929329e+04   9.604976e+05
  -1.446931e+06   5.997432e+05
  -1.608263e+06  -7.617251e+05
  -3.616800e+05  -1.575316e+06
   9.878099e+05  -1.001249e+06
   1.220979e+06   2.087245e+05
   3.080042e+05   7.076450e+05
  -6.872764e+05   3.829474e+04
  -6.157985e+05  -1.015568e+06
   6.501907e+05  -1.300360e+06
   1.945553e+06  -3.702508e+05
   1.858222e+06   1.121521e+06
   2.612521e+05   1.970833e+06
  -1.403080e+06   1.491111e+06
  -1.633942e+06   1.651115e+05
  -4.870811e+05  -8.248281e+05
   6.382405e+05  -7.656295e+05
   6.749099e+05  -3.379750e+04
  -7.614048e+04   4.622658e+05
  -5.819081e+05   2.993121e+05
  -3.136733e+05  -1.091555e+05
   3.258342e+05  -8.285051e+04
   5.266558e+05   5.260999e+05
  -1.522040e+05   1.100018e+06
  -1.323813e+06   8.157279e+05
  -1.963134e+06  -4.762330e+05
  -1.294338e+06  -1.915973e+06
   3.289608e+05  -2.327873e+06
   1.631456e+06  -1.363057e+06
   1.705335e+06   1.333945e+05
   9.158993e+05   9.899976e+05
   3.103831e+05   8.539888e+05
   3.300520e+05   3.622830e+05
   4.512544e+05   2.768601e+05
   3.282056e+04   6.467182e+05
  -8.389163e+05   8.449741e+05
  -1.430160e+06   3.121547e+05
  -1.068375e+06  -7.702128e+05
   2.485854e+05  -1.499664e+06
   1.715155e+06  -1.023763e+06
   2.174599e+06   5.506384e+05
   1.049345e+06   2.043989e+06
  -9.777186e+05   2.208587e+06
  -2.406169e+06   9.394630e+05
  -2.272584e+06  -6.341104e+05
  -1.006424e+06  -1.326644e+06
   1.622202e+05  -1.031021e+06
   4.956219e+05  -5.899289e+05
   2.841085e+05  -6.964033e+05
   2.454611e+05  -1.136227e+06
   6.733699e+05  -1.119985e+06
   1.198044e+06  -2.156418e+05
   1.199813e+06   1.111344e+06
   4.232533e+05   1.848085e+06
  -6.833819e+05   1.344300e+06
  -1.242500e+06  -4.470477e+04
  -7.453740e+05  -1.219014e+06
   3.602096e+05  -1.310713e+06
   1.039774e+06  -4.315303e+05
   7.342765e+05   5.561771e+05
  -6.435042e+04   9.416547e+05
  -4.208153e+05   7.438690e+05
  -4.978837e+04   4.490578e+05
   3.727113e+05   3.719788e+05
   2.158405e+04   3.820173e+05
  -1.064904e+06   1.623234e+05
  -1.894936e+06  -3.922440e+05
  -1.496462e+06  -1.027887e+06
   2.559597e+04  -1.312171e+06
   1.482109e+06  -9.874032e+05
   1.734354e+06  -2.346709e+05
   8.065547e+05   4.072391e+05
  -2.339078e+05   4.823534e+05
  -4.639208e+05   5.179595e+04
   2.295261e+04  -3.395014e+05
   4.717139e+05  -2.050351e+05
   4.311684e+05   3.540484e+05
   1.259911e+05   7.263623e+05
  -6.966040e+03   4.673221e+05
   1.472894e+05  -1.382898e+05
   3.458115e+05  -3.317512e+05
   2.676750e+05   2.288532e+05
  -2.259798e+05   9.646577e+05
  -9.125400e+05   9.609887e+05
  -1.221020e+06   4.840712e+04
  -6.778648e+05  -9.209408e+05
   4.546379e+05  -9.977771e+05
   1.168452e+06  -1.850817e+05
   6.614704e+05   6.122862e+05
  -6.872102e+05   6.028888e+05
  -1.556099e+06  -1.303145e+05
  -1.026351e+06  -8.629839e+05
   4.413268e+05  -9.926491e+05
   1.489261e+06  -4.924662e+05
   1.247713e+06   1.913938e+05
   1.422773e+05   5.209366e+05
  -6.303440e+05   2.628706e+05
  -3.304361e+05  -2.777496e+05
   6.241867e+05  -4.342352e+05
   1.125147e+06   1.953261e+05
   5.156288e+05   1.198786e+06
  -7.361427e+05   1.578020e+06
  -1.513491e+06   7.237941e+05
  -1.167166e+06  -8.257954e+05
  -8.942289e+04  -1.758889e+06
   7.876438e+05  -1.251345e+06
   9.010795e+05   1.747946e+05
   4.021428e+05   1.171763e+06
  -2.049042e+05   9.628001e+05
  -5.314556e+05   7.781176e+04
  -4.747077e+05  -4.020514e+05
  -1.987773e+05  -1.589683e+05
  -3.401180e+04   1.054277e+05
  -1.871456e+05  -2.652411e+05
  -4.167982e+05  -9.474903e+05
  -1.854493e+05  -1.067368e+06
   6.469871e+05  -3.575338e+05
   1.413795e+06   5.307722e+05
   1.250161e+06   8.803010e+05
   1.491678e+05   6.753036e+05
  -8.955415e+05   3.538701e+05
  -9.812750e+05   1.414345e+05
  -3.083502e+05  -4.158867e+04
   1.709112e+05  -2.052421e+05
  -7.887222e+03  -2.256886e+05
  -3.077921e+05  -1.388428e+05
  -1.909732e+04  -1.345900e+05
   7.139003e+05  -1.680972e+05
   1.004184e+06   8.672018e+04
   2.971805e+05   6.820267e+05
  -9.326526e+05   1.056290e+06
  -1.647447e+06   5.954424e+05
  -1.270653e+06  -5.265743e+05
  -1.642519e+05  -1.384471e+06
   8.046759e+05  -1.268760e+06
   1.043396e+06  -4.236295e+05
   6.276066e+05   2.925370e+05
   8.553321e+04   3.526336e+05
  -1.176735e+05   2.714270e+04
   6.306288e+04  -4.847097e+04
   2.950037e+05   3.571613e+05
   2.144178e+05   7.957908e+05
  -2.224205e+05   6.347920e+05
  -6.610207e+05  -1.910966e+05
  -6.287667e+05  -9.952692e+05
   2.692298e+03  -9.967629e+05
   7.710945e+05  -1.480169e+05
   9.423160e+05   7.996728e+05
   2.425774e+05   1.069701e+06
  -7.351215e+05   5.779547e+05
  -1.052548e+06  -1.495904e+05
  -4.517522e+05  -5.885364e+05
   3.118839e+05  -5.949928e+05
   3.477097e+05  -3.242705e+05
  -2.818020e+05  -4.068290e+04
  -6.415189e+05  -6.426349e+03
  -1.092875e+05  -2.973887e+05
   8.368550e+05  -6.151290e+05
   1.211717e+06  -4.837609e+05
   6.842415e+05   1.799557e+05
  -1.462320e+05   8.174536e+05
  -5.444975e+05   7.791492e+05
  -3.771556e+05   1.019727e+05
  -1.502547e+03  -4.834677e+05
   2.637327e+05  -3.838501e+05
   3.336217e+05   2.003526e+05
   2.065486e+05   5.739606e+05
  -8.495835e+04   3.749902e+05
  -3.733716e+05  -8.216569e+04
  -4.308534e+05  -2.716345e+05
  -2.289693e+05  -8.328762e+04
   5.980510e+03   1.168678e+05
   7.811084e+04  -1.507499e+04
   6.184841e+04  -3.657089e+05
   1.535381e+05  -4.857799e+05
   3.433284e+05  -1.234687e+05
   3.701348e+05   4.368145e+05
   4.735674e+04   6.397624e+05
  -4.314909e+05   2.616313e+05
  -6.006115e+05  -3.328103e+05
  -1.928844e+05  -5.837602e+05
   5.002081e+05  -3.188437e+05
   8.262786e+05   1.401529e+05
   4.302072e+05   3.933093e+05
  -3.064310e+05   3.419768e+05
  -6.201107e+05   1.495970e+05
  -2.138471e+05  -2.037644e+03
   3.787905e+05  -1.547078e+04
   4.055901e+05   1.267567e+05
  -2.129747e+05   2.960056e+05
  -7.887246e+05   2.172727e+05
