
 $NMID
 id='ANONYMOUS ', fmtdat='(2E16.6)'
 volume=1.0
 tramp=1.0
 $END
   3.733600e+07   2.009671e+06
   2.109237e+07   2.429842e+07
  -6.341689e+06   2.491000e+07
  -1.869741e+07   8.665441e+06
  -1.054255e+07  -5.199582e+06
   2.522652e+06  -6.005380e+06
   6.384722e+06   1.148958e+06
   1.474473e+06   6.497376e+06
  -4.364288e+06   5.911144e+06
  -6.399175e+06   9.843707e+05
  -4.427032e+06  -4.327203e+06
  -2.798483e+05  -5.720108e+06
   2.744045e+06  -1.699415e+06
   1.608126e+06   3.666393e+06
  -2.661305e+06   4.189885e+06
  -5.134902e+06  -1.149180e+06
  -2.589139e+06  -6.885232e+06
   2.897273e+06  -7.663900e+06
   6.895048e+06  -3.564876e+06
   7.109021e+06   1.736521e+06
   4.137300e+06   5.222322e+06
   1.264799e+05   5.785033e+06
  -2.186428e+06   3.883176e+06
  -1.318616e+06   1.638587e+06
   7.278156e+05   1.401398e+06
   1.004908e+05   2.788231e+06
  -3.708234e+06   2.804942e+06
  -6.447061e+06   7.366887e+04
  -4.566569e+06  -2.959162e+06
  -1.390242e+04  -3.410102e+06
   2.570226e+06  -1.643632e+06
   1.697493e+06   5.829117e+04
  -3.767215e+05   6.636862e+05
  -1.528766e+06   3.348914e+05
  -1.471948e+06  -9.916514e+05
  -3.876363e+05  -2.661648e+06
   1.329225e+06  -2.522226e+06
   2.181863e+06   2.009548e+05
   1.018888e+06   2.510083e+06
  -6.278969e+05   1.259047e+06
  -2.037847e+05  -1.661787e+06
   1.677821e+06  -1.462458e+06
   1.504713e+06   2.183744e+06
  -1.819272e+06   3.944214e+06
  -4.629115e+06   3.906601e+05
  -3.133471e+06  -4.776414e+06
   1.573031e+06  -5.565750e+06
   5.002219e+06  -1.346178e+06
   4.455945e+06   3.149040e+06
   1.040908e+06   4.023166e+06
  -2.362007e+06   1.685343e+06
  -3.413877e+06  -1.147781e+06
  -1.490920e+06  -2.354654e+06
   1.661917e+06  -1.360885e+06
   2.954832e+06   7.572850e+05
   1.193808e+06   1.855350e+06
  -1.181190e+06   8.475213e+05
  -1.117324e+06  -7.214963e+05
   8.864067e+05  -5.414077e+05
   1.541603e+06   1.239409e+06
  -5.519298e+05   2.216950e+06
  -3.119438e+06   1.064830e+06
  -3.435625e+06  -1.080124e+06
  -1.388239e+06  -2.698881e+06
   1.358226e+06  -3.441221e+06
   3.468724e+06  -3.084668e+06
   4.174469e+06  -9.826136e+05
   2.959356e+06   2.246605e+06
   4.483910e+05   4.132479e+06
  -1.364915e+06   3.093502e+06
  -1.175049e+06   7.419164e+05
  -6.563207e+04  -1.544308e+05
   5.026714e+03   6.992055e+05
  -1.133890e+06   1.187980e+06
  -1.915233e+06   9.996730e+04
  -1.336123e+06  -1.346839e+06
   1.765681e+04  -1.454111e+06
   1.045485e+06  -1.259227e+05
   1.086647e+06   1.412529e+06
  -6.150822e+04   1.962415e+06
  -1.895989e+06   1.037977e+06
  -2.959374e+06  -9.214562e+05
  -2.036377e+06  -2.608899e+06
   1.645866e+05  -2.817733e+06
   1.609008e+06  -1.729683e+06
   1.517510e+06  -6.745495e+05
   1.226910e+06  -3.949173e+05
   1.959976e+06  -2.417234e+05
   2.869230e+06   6.167124e+05
   2.249816e+06   1.928003e+06
  -1.339390e+04   2.752419e+06
  -2.232086e+06   2.527626e+06
  -2.843731e+06   1.323521e+06
  -1.777994e+06  -3.452405e+05
  -1.383844e+05  -1.513830e+06
   7.858827e+05  -1.278754e+06
   3.815212e+05   3.792008e+04
  -7.599179e+05   8.540111e+05
  -1.286434e+06   2.172978e+05
  -5.859651e+05  -8.353261e+05
   3.710004e+05  -7.373961e+05
   2.730181e+05   2.616596e+05
  -7.179822e+05   4.216363e+05
  -1.174575e+06  -9.134300e+05
  -3.149974e+05  -2.319339e+06
   1.141786e+06  -2.193791e+06
   2.089005e+06  -6.402576e+05
   2.143897e+06   1.034294e+06
   1.447700e+06   1.873296e+06
   2.482501e+05   1.742893e+06
  -8.615213e+05   9.522551e+05
  -1.062751e+06   1.187736e+05
  -3.286568e+05  -4.266712e+04
   2.207060e+05   5.120088e+05
  -3.157746e+05   8.858744e+05
  -1.295698e+06   3.330978e+05
  -1.334808e+06  -6.521395e+05
  -2.152672e+05  -9.578842e+05
   7.981612e+05  -3.500058e+05
   5.794052e+05   3.222337e+05
  -5.749754e+05   3.163177e+05
  -1.434471e+06  -2.693765e+05
  -1.122851e+06  -9.376947e+05
   2.115689e+05  -1.298567e+06
   1.577881e+06  -1.045340e+06
   1.860441e+06  -1.136101e+05
   7.807525e+05   8.813764e+05
  -6.606887e+05   9.849309e+05
  -1.056309e+06   8.274859e+04
  -1.070401e+05  -7.354284e+05
   1.037342e+06  -4.556113e+05
   1.128218e+06   5.694500e+05
   1.781776e+05   1.110698e+06
  -7.551037e+05   6.162783e+05
  -8.255681e+05  -2.462947e+05
  -1.370293e+05  -5.269979e+05
   5.376816e+05  -1.180813e+04
   4.680740e+05   7.275084e+05
  -4.212942e+05   9.435947e+05
  -1.361769e+06   3.168818e+05
  -1.341537e+06  -7.550552e+05
  -2.045399e+05  -1.402316e+06
   1.009716e+06  -1.063303e+06
   1.161706e+06  -9.366023e+04
   3.107147e+05   5.943084e+05
  -4.619510e+05   5.189090e+05
  -4.234277e+05   3.927858e+04
   8.531309e+04  -2.290971e+05
   3.227080e+05  -1.257026e+05
   7.152714e+04   3.468253e+04
  -2.948109e+05  -7.763561e+04
  -3.191186e+05  -4.679916e+05
   1.755407e+05  -7.863234e+05
   9.498844e+05  -5.615575e+05
   1.384133e+06   3.311734e+05
   9.335808e+05   1.340502e+06
  -2.038565e+05   1.616058e+06
  -1.111792e+06   9.020212e+05
  -1.119939e+06  -1.258593e+05
  -5.488386e+05  -6.098108e+05
  -2.050576e+05  -4.305648e+05
  -3.273168e+05  -1.574441e+05
  -4.170428e+05  -2.353477e+05
  -3.816963e+04  -5.202686e+05
   6.109612e+05  -5.777865e+05
   9.729056e+05  -1.781841e+05
   6.803029e+05   5.035094e+05
  -2.020997e+05   9.613610e+05
  -1.175257e+06   6.711501e+05
  -1.489963e+06  -3.788760e+05
  -7.019928e+05  -1.433111e+06
   7.421947e+05  -1.554898e+06
   1.730028e+06  -6.189431e+05
   1.549479e+06   5.044691e+05
   5.972350e+05   9.127285e+05
  -1.596557e+05   6.157662e+05
  -2.611031e+05   3.297414e+05
  -6.135114e+04   5.129903e+05
  -1.018955e+05   8.843371e+05
  -4.869987e+05   8.503683e+05
  -8.795533e+05   1.806314e+05
  -8.724757e+05  -7.571880e+05
  -3.285016e+05  -1.283512e+06
   4.505508e+05  -9.489682e+05
   8.594987e+05   3.370667e+04
   5.080526e+05   8.815761e+05
  -3.018262e+05   9.219165e+05
  -7.898846e+05   2.314467e+05
  -5.187924e+05  -4.977425e+05
   1.204899e+05  -7.174858e+05
   3.864478e+05  -5.023970e+05
   6.785251e+04  -2.701089e+05
  -2.856756e+05  -2.348116e+05
  -3.273048e+04  -2.583873e+05
   7.771388e+05  -1.090188e+05
   1.377532e+06   2.783247e+05
   1.056162e+06   7.373339e+05
  -6.948152e+04   9.606374e+05
  -1.101220e+06   7.226141e+05
  -1.233464e+06   1.353136e+05
  -5.384031e+05  -3.578017e+05
   1.947905e+05  -3.764325e+05
   3.434454e+05  -5.196439e+03
   9.456018e+03   2.899723e+05
  -3.012969e+05   1.664719e+05
  -3.161601e+05  -2.410717e+05
  -1.614096e+05  -4.932287e+05
  -6.020368e+04  -3.273452e+05
  -9.034723e+04   5.586721e+04
  -1.846533e+05   1.867573e+05
  -1.771031e+05  -1.622187e+05
   1.126398e+05  -6.576817e+05
   6.288984e+05  -6.949393e+05
   9.292092e+05  -8.571107e+04
   5.596847e+05   6.378688e+05
  -3.087865e+05   7.619317e+05
  -8.610997e+05   2.023440e+05
  -4.819012e+05  -3.989672e+05
   4.871516e+05  -4.154074e+05
   1.056012e+06   1.045285e+05
   6.407837e+05   5.985335e+05
  -3.527948e+05   6.394243e+05
  -1.006745e+06   2.737439e+05
  -8.099746e+05  -1.597350e+05
  -7.403260e+04  -3.430763e+05
   4.406587e+05  -1.599864e+05
   2.527281e+05   2.107945e+05
  -4.015004e+05   3.449994e+05
  -7.970192e+05  -7.215041e+04
  -4.376062e+05  -8.072639e+05
   4.211751e+05  -1.140593e+06
   1.012017e+06  -5.745142e+05
   8.300759e+05   5.301932e+05
   1.015469e+05   1.204653e+06
  -5.213242e+05   8.463073e+05
  -6.114499e+05  -1.453674e+05
  -2.545978e+05  -8.066630e+05
   1.770331e+05  -6.345618e+05
   3.804557e+05  -3.807466e+04
   2.967850e+05   2.580232e+05
   9.829537e+04   8.902028e+04
   3.726886e+04  -5.853396e+04
   1.930999e+05   2.159175e+05
   3.259626e+05   6.639113e+05
   9.404991e+04   7.209541e+05
  -5.009318e+05   2.426575e+05
  -9.780033e+05  -3.415133e+05
  -8.295752e+05  -5.838940e+05
  -1.072687e+05  -4.746428e+05
   5.707420e+05  -2.691094e+05
   6.586643e+05  -9.942665e+04
   2.482797e+05   5.278805e+04
  -9.812789e+04   1.513161e+05
  -3.944325e+04   1.257616e+05
   1.638573e+05   5.577432e+04
   3.767893e+04   9.133774e+04
  -4.345585e+05   1.574203e+05
  -7.069100e+05  -2.242043e+04
  -3.007415e+05  -4.828557e+05
   5.746217e+05  -7.913633e+05
   1.170708e+06  -4.875796e+05
   9.645232e+05   3.112470e+05
   1.683327e+05   9.496726e+05
  -5.455560e+05   9.164576e+05
  -7.188943e+05   3.555669e+05
  -4.373746e+05  -1.572262e+05
  -9.121603e+04  -2.457634e+05
   3.675079e+04  -5.771611e+04
  -5.707740e+04  -3.150254e+03
  -1.865092e+05  -2.554333e+05
  -1.457799e+05  -5.461664e+05
   1.291796e+05  -4.589292e+05
   4.563950e+05   7.923548e+04
   4.965070e+05   6.428799e+05
   8.146250e+04   7.033712e+05
  -5.043510e+05   1.758237e+05
  -6.962013e+05  -4.856321e+05
  -2.301332e+05  -7.427333e+05
   4.906057e+05  -4.598556e+05
   7.622983e+05   6.377784e+04
   3.559324e+05   4.351681e+05
  -2.087438e+05   4.684795e+05
  -2.767142e+05   2.421291e+05
   1.516226e+05  -8.684696e+02
   4.342241e+05  -2.077939e+04
   9.915186e+04   2.142534e+05
  -5.653037e+05   4.424409e+05
  -8.670403e+05   3.286201e+05
  -5.240271e+05  -1.482189e+05
   7.773752e+04  -5.910632e+05
   4.008642e+05  -5.716523e+05
   3.090349e+05  -1.109971e+05
   4.030366e+04   3.186059e+05
  -1.662159e+05   3.000597e+05
  -2.379197e+05  -8.824112e+04
  -1.658462e+05  -3.923212e+05
   4.057953e+04  -3.024153e+05
   2.651197e+05   2.857695e+04
   3.193712e+05   2.078401e+05
   1.597778e+05   7.818361e+04
  -2.609162e+04  -1.159181e+05
  -4.918848e+04  -5.609953e+04
   2.797384e+04   2.333118e+05
  -1.349565e+04   3.950751e+05
  -2.145507e+05   1.748625e+05
  -3.298782e+05  -2.472206e+05
  -1.267924e+05  -4.426236e+05
   2.726053e+05  -2.168702e+05
   4.577312e+05   1.882013e+05
   1.739710e+05   3.848853e+05
  -3.520577e+05   2.412596e+05
  -6.054349e+05  -5.657932e+04
  -3.232487e+05  -2.611214e+05
   2.057602e+05  -2.787065e+05
   4.415437e+05  -1.603382e+05
   1.828730e+05  -8.987118e+03
  -2.186442e+05   5.985823e+04
  -2.709463e+05  -2.708918e+04
   9.883066e+04  -1.863676e+05
   4.790804e+05  -1.806133e+05
