
 $NMID
 id='ANONYMOUS ', fmtdat='(2E16.6)'
 volume=1.0
 tramp=1.0
 $END
  -3.158934e+07  -2.582668e+06
  -1.815727e+07  -1.879419e+07
   4.050722e+06  -2.018876e+07
   1.504295e+07  -9.250603e+06
   9.713875e+06   2.101966e+06
  -1.059847e+06   5.191152e+06
  -5.733644e+06   6.046228e+05
  -2.670306e+06  -5.263705e+06
   2.783630e+06  -6.541695e+06
   5.627025e+06  -2.039680e+06
   4.263195e+06   4.054795e+06
   2.412858e+05   5.748995e+06
  -2.797069e+06   1.325265e+06
  -1.847239e+06  -4.323065e+06
   2.136610e+06  -4.858821e+06
   4.723288e+06   4.060975e+05
   2.759034e+06   6.095400e+06
  -2.260422e+06   7.020586e+06
  -6.100612e+06   3.077879e+06
  -6.051642e+06  -1.977323e+06
  -2.852808e+06  -4.687598e+06
   4.973247e+05  -4.281459e+06
   1.291373e+06  -2.454312e+06
  -4.860269e+05  -1.648305e+06
  -1.793928e+06  -2.723897e+06
   3.410923e+05  -3.887415e+06
   4.839973e+06  -2.699994e+06
   7.069435e+06   7.013793e+05
   4.237658e+06   3.451343e+06
  -9.845812e+05   3.294923e+06
  -3.539898e+06   9.495540e+05
  -1.724730e+06  -1.216921e+06
   1.632102e+06  -1.627322e+06
   3.063616e+06  -1.520472e+05
   1.836207e+06   2.217137e+06
  -4.155806e+05   3.511673e+06
  -1.779176e+06   2.075846e+06
  -1.413300e+06  -1.042583e+06
   2.862481e+03  -2.337775e+06
   7.192540e+05  -1.178092e+05
  -3.213558e+05   2.638543e+06
  -1.898382e+06   1.870529e+06
  -1.635475e+06  -1.785071e+06
   9.027619e+05  -3.444164e+06
   3.183748e+06  -5.020883e+05
   2.456187e+06   3.808808e+06
  -1.068875e+06   4.588959e+06
  -4.388023e+06   1.144415e+06
  -4.662093e+06  -2.886742e+06
  -1.648116e+06  -4.073283e+06
   2.255112e+06  -2.192853e+06
   3.936449e+06   6.327174e+05
   2.146278e+06   2.164558e+06
  -1.219435e+06   1.503820e+06
  -2.810381e+06  -4.056456e+05
  -1.344561e+06  -1.540936e+06
   1.012611e+06  -8.263151e+05
   1.382889e+06   6.221340e+05
  -2.995901e+05   9.078156e+05
  -1.472181e+06  -2.497491e+05
  -3.573144e+05  -1.350243e+06
   1.949524e+06  -1.111272e+06
   2.968865e+06   3.406177e+05
   1.501799e+06   2.137784e+06
  -1.508103e+06   3.373700e+06
  -4.027041e+06   3.050205e+06
  -4.444273e+06   6.547118e+05
  -2.662815e+06  -2.620081e+06
  -2.101366e+05  -4.338213e+06
   1.076999e+06  -3.397167e+06
   8.444426e+05  -1.409763e+06
   4.144466e+05  -6.198711e+05
   9.888407e+05  -1.064084e+06
   2.139386e+06  -9.120018e+05
   2.465840e+06   6.795370e+05
   1.331289e+06   2.294435e+06
  -5.265057e+05   2.092440e+06
  -1.790429e+06   5.011738e+04
  -1.530672e+06  -2.066236e+06
   2.359946e+05  -2.490265e+06
   2.338881e+06  -9.212034e+05
   3.072239e+06   1.404848e+06
   1.753920e+06   2.805986e+06
  -3.733835e+05   2.557586e+06
  -1.451750e+06   1.426552e+06
  -1.215525e+06   6.970940e+05
  -1.145456e+06   6.925632e+05
  -2.233176e+06   5.576395e+05
  -3.401681e+06  -5.028504e+05
  -2.770863e+06  -2.177700e+06
  -8.797809e+04  -3.354993e+06
   2.760268e+06  -3.132917e+06
   3.628107e+06  -1.470765e+06
   2.134519e+06   7.153245e+05
  -1.449559e+05   1.979231e+06
  -1.219303e+06   1.442768e+06
  -4.441755e+05  -1.614111e+05
   1.022841e+06  -1.013626e+06
   1.501440e+06  -2.431020e+05
   5.731790e+05   9.713381e+05
  -5.573058e+05   9.340283e+05
  -5.479125e+05  -2.700257e+05
   5.388972e+05  -8.413524e+05
   1.422043e+06   3.599921e+05
   1.051462e+06   2.305562e+06
  -4.751366e+05   2.996367e+06
  -2.198772e+06   1.645632e+06
  -3.029555e+06  -7.016018e+05
  -2.350214e+06  -2.352979e+06
  -5.161720e+05  -2.398029e+06
   1.143599e+06  -1.235655e+06
   1.388200e+06  -9.611567e+04
   4.095148e+05   4.849315e+04
  -2.954321e+05  -6.213584e+05
   2.928619e+05  -1.017370e+06
   1.437671e+06  -4.270664e+05
   1.588239e+06   6.324768e+05
   3.639833e+05   1.066162e+06
  -9.373272e+05   5.050534e+05
  -8.539688e+05  -3.577143e+05
   5.980375e+05  -6.104487e+05
   1.944630e+06   2.777560e+04
   1.735605e+06   1.107694e+06
  -5.313106e+04   1.822230e+06
  -1.955200e+06   1.512059e+06
  -2.341038e+06   2.432268e+05
  -9.714125e+05  -1.001904e+06
   7.458278e+05  -1.115552e+06
   1.168809e+06  -9.080066e+04
   7.178144e+04   8.377402e+05
  -1.246154e+06   5.630597e+05
  -1.424774e+06  -6.059216e+05
  -3.807812e+05  -1.352235e+06
   8.060432e+05  -9.149142e+05
   1.066400e+06   1.184723e+05
   3.055780e+05   5.934854e+05
  -5.859190e+05   5.698927e+04
  -5.664762e+05  -8.639572e+05
   5.297792e+05  -1.155921e+06
   1.691344e+06  -3.802513e+05
   1.655621e+06   9.268488e+05
   2.858177e+05   1.710168e+06
  -1.174155e+06   1.339170e+06
  -1.415486e+06   1.964410e+05
  -4.559910e+05  -7.006097e+05
   5.283828e+05  -6.942004e+05
   6.049657e+05  -5.743140e+04
  -2.405203e+04   4.222205e+05
  -4.981975e+05   3.158598e+05
  -3.155975e+05  -6.465984e+04
   2.408147e+05  -9.869189e+04
   4.669742e+05   4.097924e+05
  -8.382391e+04   9.457267e+05
  -1.117578e+06   7.525030e+05
  -1.724087e+06  -3.500773e+05
  -1.186662e+06  -1.630308e+06
   2.134915e+05  -2.047009e+06
   1.376378e+06  -1.257151e+06
   1.500512e+06   4.323150e+04
   8.605080e+05   8.365642e+05
   3.251571e+05   7.666269e+05
   2.936550e+05   3.390097e+05
   3.736586e+05   2.319027e+05
   3.528925e+04   5.473340e+05
  -6.936600e+05   7.593362e+05
  -1.229708e+06   3.317422e+05
  -9.720196e+05  -6.285259e+05
   1.457708e+05  -1.324582e+06
   1.454531e+06  -9.617528e+05
   1.919331e+06   4.019698e+05
   9.904285e+05   1.740023e+06
  -7.665484e+05   1.947742e+06
  -2.050886e+06   9.007710e+05
  -2.002145e+06  -4.586859e+05
  -9.464682e+05  -1.110579e+06
   8.093296e+04  -9.192445e+05
   4.169393e+05  -5.612041e+05
   2.571501e+05  -6.326863e+05
   2.054436e+05  -9.912331e+05
   5.576585e+05  -9.825185e+05
   1.033628e+06  -2.152550e+05
   1.079654e+06   9.383758e+05
   4.257737e+05   1.604590e+06
  -5.582253e+05   1.198215e+06
  -1.087457e+06   5.302518e+03
  -6.898538e+05  -1.029559e+06
   2.603029e+05  -1.146320e+06
   8.680349e+05  -4.168653e+05
   6.409371e+05   4.373296e+05
  -1.711220e+04   7.987133e+05
  -3.188975e+05   6.528881e+05
  -1.504421e+04   3.982207e+05
   3.341740e+05   3.205766e+05
   2.839716e+04   3.353828e+05
  -9.135924e+05   1.724641e+05
  -1.650957e+06  -2.847667e+05
  -1.334002e+06  -8.424966e+05
  -2.788363e+04  -1.127926e+06
   1.249117e+06  -8.944259e+05
   1.496227e+06  -2.658520e+05
   7.122648e+05   3.084304e+05
  -1.866726e+05   4.146329e+05
  -3.932856e+05   6.441168e+04
   2.343496e+04  -2.875790e+05
   4.144906e+05  -1.914935e+05
   3.841076e+05   2.986646e+05
   1.185140e+05   6.425365e+05
  -5.581660e+03   4.171268e+05
   1.198263e+05  -1.355054e+05
   2.946565e+05  -3.196598e+05
   2.416259e+05   1.858059e+05
  -1.712825e+05   8.560615e+05
  -7.659902e+05   8.640616e+05
  -1.051473e+06   6.191422e+04
  -6.031701e+05  -7.926760e+05
   3.736695e+05  -8.712951e+05
   1.012246e+06  -1.771123e+05
   5.961312e+05   5.211073e+05
  -5.767595e+05   5.480076e+05
  -1.365149e+06  -5.500128e+04
  -9.401741e+05  -7.076136e+05
   3.339539e+05  -8.845121e+05
   1.278467e+06  -4.991221e+05
   1.103692e+06   1.100289e+05
   1.502360e+05   4.503170e+05
  -5.374845e+05   2.561275e+05
  -2.908931e+05  -2.302359e+05
   5.428444e+05  -3.957210e+05
   9.944703e+05   1.480518e+05
   4.767563e+05   1.045782e+06
  -6.159310e+05   1.405002e+06
  -1.315734e+06   6.717850e+05
  -1.047945e+06  -6.942533e+05
  -1.304990e+05  -1.541232e+06
   6.474803e+05  -1.127185e+06
   7.917674e+05   1.142245e+05
   3.977046e+05   1.006477e+06
  -1.323438e+05   8.501244e+05
  -4.557512e+05   8.879101e+04
  -4.388719e+05  -3.342487e+05
  -1.916690e+05  -1.310221e+05
  -2.122729e+04   9.470087e+04
  -1.535816e+05  -2.267300e+05
  -3.870266e+05  -8.168410e+05
  -2.090818e+05  -9.254432e+05
   5.399939e+05  -3.281095e+05
   1.256658e+06   4.210988e+05
   1.133489e+06   7.265677e+05
   1.512993e+05   5.830038e+05
  -7.844916e+05   3.407529e+05
  -8.567198e+05   1.597168e+05
  -2.589568e+05  -2.517292e+04
   1.486470e+05  -1.859394e+05
  -2.881568e+04  -1.971708e+05
  -2.906534e+05  -1.122121e+05
  -1.654625e+04  -1.202536e+05
   6.366860e+05  -1.705527e+05
   8.825000e+05   5.110643e+04
   2.596275e+05   5.963179e+05
  -8.031780e+05   9.507486e+05
  -1.421892e+06   5.546989e+05
  -1.115271e+06  -4.406670e+05
  -1.794233e+05  -1.212743e+06
   6.666285e+05  -1.127951e+06
   9.054804e+05  -3.921140e+05
   5.638335e+05   2.440215e+05
   7.974288e+04   3.088111e+05
  -1.174092e+05   2.530547e+04
   4.492362e+04  -5.102914e+04
   2.729358e+05   2.969988e+05
   2.164810e+05   6.882226e+05
  -1.805880e+05   5.615816e+05
  -5.920311e+05  -1.557122e+05
  -5.761852e+05  -8.669883e+05
  -1.070563e+04  -8.796316e+05
   6.857730e+05  -1.429537e+05
   8.497881e+05   6.880876e+05
   2.336634e+05   9.339794e+05
  -6.346462e+05   5.184760e+05
  -9.217971e+05  -1.082593e+05
  -4.009027e+05  -4.976309e+05
   2.610124e+05  -5.181230e+05
   2.863110e+05  -2.864171e+05
  -2.614376e+05  -2.687731e+04
  -5.658802e+05   1.196266e+04
  -9.883586e+04  -2.571470e+05
   7.152648e+05  -5.639773e+05
   1.034074e+06  -4.614721e+05
   5.885791e+05   1.354421e+05
  -1.088036e+05   7.163992e+05
  -4.477661e+05   6.880319e+05
  -3.202461e+05   8.568289e+04
  -1.092101e+04  -4.312987e+05
   2.256896e+05  -3.383600e+05
   3.035497e+05   1.762507e+05
   1.953976e+05   4.983970e+05
  -7.162954e+04   3.229266e+05
  -3.313952e+05  -6.647850e+04
  -3.778863e+05  -2.208791e+05
  -1.994964e+05  -6.036840e+04
  -7.102282e+02   9.681316e+04
   5.939649e+04  -3.198934e+04
   5.507703e+04  -3.361676e+05
   1.473971e+05  -4.289683e+05
   3.136980e+05  -1.019888e+05
   3.288287e+05   3.920866e+05
   4.140027e+04   5.703310e+05
  -3.788363e+05   2.385522e+05
  -5.319269e+05  -2.856494e+05
  -1.818051e+05  -5.131054e+05
   4.272162e+05  -2.899353e+05
   7.241899e+05   1.080551e+05
   3.848626e+05   3.348557e+05
  -2.633472e+05   3.003761e+05
  -5.417486e+05   1.369085e+05
  -1.801928e+05  -2.081797e+03
   3.476082e+05  -2.144105e+04
   3.696456e+05   1.096148e+05
  -1.845273e+05   2.772213e+05
  -7.012643e+05   2.193114e+05
