
 $NMID
 id='ANONYMOUS ', fmtdat='(2E16.6)'
 volume=1.0
 tramp=1.0
 $END
   3.241049e+07  -4.791955e+05
   2.041079e+07   1.844373e+07
  -2.768760e+06   2.162322e+07
  -1.524571e+07   1.012846e+07
  -1.020481e+07  -2.387302e+06
   1.082521e+06  -5.540525e+06
   5.940316e+06  -4.069065e+05
   2.639621e+06   5.490748e+06
  -2.917770e+06   6.448605e+06
  -5.697295e+06   2.042453e+06
  -4.437131e+06  -3.694166e+06
  -6.003381e+05  -5.480379e+06
   2.518597e+06  -1.571077e+06
   1.848645e+06   3.829511e+06
  -2.039488e+06   4.628196e+06
  -4.812857e+06  -3.050458e+05
  -3.076497e+06  -5.989488e+06
   1.873754e+06  -7.205431e+06
   5.882867e+06  -3.622616e+06
   6.273950e+06   1.286078e+06
   3.560694e+06   4.325847e+06
   2.288496e+05   4.579715e+06
  -1.190884e+06   3.074717e+06
  -6.950764e+04   1.824200e+06
   1.312053e+06   2.203685e+06
  -1.037475e+05   3.297687e+06
  -4.066377e+06   2.747875e+06
  -6.486202e+06  -6.500333e+04
  -4.314957e+06  -2.825091e+06
   3.703312e+05  -3.103482e+06
   2.883483e+06  -1.222347e+06
   1.540714e+06   6.558311e+05
  -1.167820e+06   1.130613e+06
  -2.362763e+06   1.675009e+05
  -1.592155e+06  -1.638438e+06
   2.134681e+04  -2.979636e+06
   1.354096e+06  -2.197320e+06
   1.567973e+06   4.972458e+05
   5.274073e+05   2.148961e+06
  -4.805522e+05   5.449673e+05
   1.096693e+05  -2.128641e+06
   1.693632e+06  -1.734295e+06
   1.691718e+06   1.770983e+06
  -9.074927e+05   3.668534e+06
  -3.550156e+06   8.473815e+05
  -2.965044e+06  -3.747288e+06
   7.866080e+05  -4.885479e+06
   4.329666e+06  -1.522030e+06
   4.611949e+06   2.614961e+06
   1.604886e+06   3.882680e+06
  -2.141989e+06   2.076777e+06
  -3.706034e+06  -6.273052e+05
  -1.991866e+06  -2.107484e+06
   1.247950e+06  -1.529211e+06
   2.819501e+06   3.185862e+05
   1.379347e+06   1.523633e+06
  -9.729579e+05   8.836333e+05
  -1.284856e+06  -5.843849e+05
   4.901319e+05  -8.434475e+05
   1.595697e+06   4.872339e+05
   2.320720e+05   1.709155e+06
  -2.222802e+06   1.338791e+06
  -3.145305e+06  -3.382892e+05
  -1.614788e+06  -2.176517e+06
   1.182507e+06  -3.335042e+06
   3.482860e+06  -3.104342e+06
   4.085664e+06  -9.733392e+05
   2.765319e+06   2.179113e+06
   5.199122e+05   4.044017e+06
  -9.716634e+05   3.263665e+06
  -9.398988e+05   1.223142e+06
  -3.555236e+05   3.004245e+05
  -5.935366e+05   8.049464e+05
  -1.604757e+06   9.481908e+05
  -2.095753e+06  -3.131884e+05
  -1.275027e+06  -1.785113e+06
   2.930482e+05  -1.735902e+06
   1.437585e+06  -7.180080e+04
   1.337903e+06   1.723382e+06
  -9.189462e+04   2.189796e+06
  -2.013625e+06   1.000654e+06
  -2.922160e+06  -1.008200e+06
  -1.925475e+06  -2.476055e+06
   9.025304e+04  -2.540100e+06
   1.318871e+06  -1.589942e+06
   1.236940e+06  -7.814598e+05
   1.132612e+06  -6.412741e+05
   2.061961e+06  -5.162976e+05
   3.126139e+06   3.992532e+05
   2.570805e+06   1.914227e+06
   1.601798e+05   3.017673e+06
  -2.366258e+06   2.880950e+06
  -3.139238e+06   1.462039e+06
  -1.909713e+06  -4.789418e+05
  -1.094133e+04  -1.700568e+06
   9.519573e+05  -1.336061e+06
   3.929823e+05   9.174242e+04
  -8.503850e+05   9.368178e+05
  -1.350922e+06   2.828572e+05
  -5.922541e+05  -8.451721e+05
   4.384573e+05  -8.306334e+05
   4.399387e+05   2.632051e+05
  -5.924086e+05   7.148864e+05
  -1.379107e+06  -4.952021e+05
  -8.886990e+05  -2.264663e+06
   6.300092e+05  -2.719522e+06
   2.122337e+06  -1.340217e+06
   2.688662e+06   7.396535e+05
   2.009186e+06   2.081328e+06
   4.480739e+05   2.079573e+06
  -9.661776e+05   1.114133e+06
  -1.208448e+06   1.369433e+05
  -3.669447e+05  -3.099833e+04
   2.771710e+05   5.504952e+05
  -2.480621e+05   9.491953e+05
  -1.316446e+06   4.407414e+05
  -1.473104e+06  -5.549774e+05
  -3.437719e+05  -9.817076e+05
   8.410688e+05  -4.622891e+05
   7.350868e+05   3.207931e+05
  -5.756820e+05   5.121185e+05
  -1.724321e+06  -7.395085e+04
  -1.489596e+06  -9.912339e+05
   7.637964e+04  -1.590362e+06
   1.721983e+06  -1.347373e+06
   2.081432e+06  -2.577067e+05
   9.075203e+05   8.873911e+05
  -6.368189e+05   1.055841e+06
  -1.076239e+06   1.386304e+05
  -1.160555e+05  -7.565324e+05
   1.103361e+06  -5.451213e+05
   1.292372e+06   5.265795e+05
   3.392329e+05   1.217893e+06
  -7.432285e+05   8.119546e+05
  -9.619044e+05  -1.301416e+05
  -2.578296e+05  -5.501184e+05
   5.480454e+05  -6.328002e+04
   5.379687e+05   7.636908e+05
  -4.352051e+05   1.049797e+06
  -1.495071e+06   3.934801e+05
  -1.508303e+06  -7.773151e+05
  -3.023904e+05  -1.527596e+06
   1.028807e+06  -1.234001e+06
   1.271344e+06  -2.009493e+05
   4.123900e+05   6.265478e+05
  -4.666476e+05   6.242725e+05
  -5.132597e+05   5.817430e+04
   5.022918e+04  -3.455101e+05
   4.258313e+05  -2.373415e+05
   2.144263e+05   6.996789e+04
  -2.728093e+05   5.405074e+04
  -4.301421e+05  -4.100100e+05
   8.094291e+04  -8.719530e+05
   9.986385e+05  -6.972979e+05
   1.554207e+06   2.774841e+05
   1.104830e+06   1.430227e+06
  -1.421653e+05   1.824783e+06
  -1.204222e+06   1.125064e+06
  -1.320715e+06  -3.615770e+04
  -7.337935e+05  -7.160129e+05
  -2.680209e+05  -6.143549e+05
  -2.892496e+05  -2.389818e+05
  -3.897577e+05  -1.969008e+05
  -6.377422e+04  -5.158873e+05
   6.196588e+05  -6.958980e+05
   1.095287e+06  -2.998533e+05
   8.509833e+05   5.456738e+05
  -1.348335e+05   1.161892e+06
  -1.285130e+06   8.666857e+05
  -1.712692e+06  -3.272207e+05
  -9.069022e+05  -1.546135e+06
   6.703146e+05  -1.773019e+06
   1.843780e+06  -8.395983e+05
   1.795652e+06   4.037575e+05
   8.216795e+05   9.902151e+05
  -9.517666e+04   7.905764e+05
  -3.448150e+05   4.588854e+05
  -1.564703e+05   5.527466e+05
  -1.167150e+05   9.121930e+05
  -4.714394e+05   9.201642e+05
  -9.307206e+05   2.335518e+05
  -9.931356e+05  -8.030262e+05
  -4.231571e+05  -1.416082e+06
   4.628170e+05  -1.079781e+06
   9.684647e+05  -2.235503e+04
   6.370781e+05   9.221842e+05
  -2.298870e+05   1.042664e+06
  -8.084899e+05   3.736177e+05
  -6.065877e+05  -4.225799e+05
   1.872999e+04  -7.547513e+05
   3.145185e+05  -6.015882e+05
   2.805007e+04  -3.447390e+05
  -3.115080e+05  -2.649004e+05
  -3.804960e+04  -2.932636e+05
   8.292938e+05  -1.775891e+05
   1.506423e+06   2.138574e+05
   1.217603e+06   7.339568e+05
   3.328992e+04   1.036649e+06
  -1.120579e+06   8.504435e+05
  -1.346909e+06   2.591866e+05
  -6.468430e+05  -2.973852e+05
   1.638588e+05  -3.974731e+05
   3.652065e+05  -5.653927e+04
   7.089702e+03   2.752266e+05
  -3.499775e+05   1.847341e+05
  -3.551082e+05  -2.532402e+05
  -1.472587e+05  -5.516748e+05
  -3.081948e+04  -3.601447e+05
  -1.080636e+05   1.046979e+05
  -2.440553e+05   2.610279e+05
  -2.171846e+05  -1.664305e+05
   1.216002e+05  -7.550544e+05
   6.618776e+05  -7.960894e+05
   9.619749e+05  -1.118806e+05
   5.898830e+05   6.783659e+05
  -3.009042e+05   8.122196e+05
  -9.063024e+05   2.180694e+05
  -5.462571e+05  -4.382242e+05
   5.089858e+05  -5.009025e+05
   1.212121e+06   3.375216e+04
   8.226625e+05   6.282125e+05
  -3.106838e+05   7.848025e+05
  -1.134178e+06   4.355659e+05
  -9.689805e+05  -1.004547e+05
  -1.282481e+05  -3.962290e+05
   4.804287e+05  -2.291842e+05
   2.765190e+05   2.030928e+05
  -4.553645e+05   3.744737e+05
  -8.837234e+05  -8.440236e+04
  -4.728877e+05  -8.977213e+05
   4.763935e+05  -1.265759e+06
   1.130348e+06  -6.467080e+05
   9.478098e+05   5.773226e+05
   1.589494e+05   1.357844e+06
  -5.503995e+05   1.003458e+06
  -7.076535e+05  -1.002329e+05
  -3.616196e+05  -8.930041e+05
   1.244165e+05  -7.535794e+05
   4.134323e+05  -8.270549e+04
   3.794737e+05   2.882101e+05
   1.519538e+05   1.124468e+05
   2.561691e+04  -8.131053e+04
   1.740663e+05   2.003083e+05
   3.768866e+05   7.166283e+05
   1.849572e+05   8.198083e+05
  -4.985034e+05   3.106179e+05
  -1.122006e+06  -3.414468e+05
  -1.003268e+06  -6.232654e+05
  -1.487137e+05  -5.193770e+05
   6.673810e+05  -3.186198e+05
   7.517444e+05  -1.544647e+05
   2.509491e+05   2.089739e+04
  -1.183665e+05   1.681589e+05
   4.592229e+03   1.714262e+05
   2.322338e+05   8.805826e+04
   2.647236e+04   1.016458e+05
  -5.312991e+05   1.688599e+05
  -7.848717e+05  -1.165400e+04
  -2.843971e+05  -5.123554e+05
   6.564247e+05  -8.730002e+05
   1.254810e+06  -5.581173e+05
   1.027413e+06   3.328996e+05
   2.034096e+05   1.063149e+06
  -5.615215e+05   1.031467e+06
  -7.865153e+05   3.913911e+05
  -4.991580e+05  -1.880555e+05
  -9.013348e+04  -2.683710e+05
   7.771088e+04  -3.210620e+04
  -5.222585e+04   3.347259e+04
  -2.426745e+05  -2.669857e+05
  -2.028614e+05  -6.079892e+05
   1.366669e+05  -5.066059e+05
   5.190458e+05   1.062584e+05
   5.454904e+05   7.303962e+05
   6.340061e+04   7.724403e+05
  -5.812334e+05   1.649870e+05
  -7.748037e+05  -5.601161e+05
  -2.520938e+05  -8.166840e+05
   5.366061e+05  -4.953849e+05
   8.299979e+05   5.633924e+04
   3.900407e+05   4.397144e+05
  -2.093320e+05   4.890931e+05
  -2.619873e+05   2.747290e+05
   2.094040e+05   1.520565e+04
   4.951556e+05  -2.967999e+04
   1.045103e+05   2.263551e+05
  -6.179175e+05   5.198378e+05
  -9.263459e+05   4.329740e+05
  -5.530625e+05  -1.099064e+05
   6.888131e+04  -6.463244e+05
   3.902335e+05  -6.398274e+05
   2.962472e+05  -1.089641e+05
   3.112449e+04   3.695971e+05
  -1.812645e+05   3.171034e+05
  -2.667474e+05  -1.287269e+05
  -1.919288e+05  -4.340043e+05
   4.169709e+04  -3.036640e+05
   2.936574e+05   3.988516e+04
   3.536238e+05   1.941175e+05
   1.835737e+05   5.855777e+04
  -1.732213e+04  -9.678279e+04
  -6.353306e+04   3.960532e+02
  -1.692437e+04   2.780146e+05
  -7.242127e+04   3.913852e+05
  -2.500100e+05   1.299712e+05
  -3.204540e+05  -3.052917e+05
  -8.715165e+04  -4.887184e+05
   3.151488e+05  -2.295190e+05
   4.887565e+05   2.187139e+05
   1.846621e+05   4.379145e+05
  -3.739613e+05   2.760557e+05
  -6.535413e+05  -5.940711e+04
  -3.575982e+05  -2.816453e+05
   2.181209e+05  -2.889244e+05
   4.740410e+05  -1.584069e+05
   1.732949e+05  -1.298013e+04
  -2.809134e+05   3.742991e+04
  -3.149551e+05  -6.711270e+04
   1.424727e+05  -2.326682e+05
   5.864378e+05  -2.075996e+05
