
 $NMID
 id='ANONYMOUS ', fmtdat='(2E16.6)'
 volume=1.0
 tramp=1.0
 $END
   3.962579e+07   9.267025e+05
   2.436539e+07   2.249596e+07
  -3.609150e+06   2.590602e+07
  -1.859533e+07   1.262320e+07
  -1.265421e+07  -2.281384e+06
   1.053326e+06  -6.738985e+06
   7.356507e+06  -9.579875e+05
   3.618713e+06   6.655795e+06
  -3.363122e+06   8.388127e+06
  -7.081772e+06   2.807109e+06
  -5.517970e+06  -4.811207e+06
  -5.744829e+05  -7.090433e+06
   3.325185e+06  -1.799032e+06
   2.356126e+06   5.233696e+06
  -2.570088e+06   6.124911e+06
  -6.011675e+06  -2.940660e+05
  -3.795235e+06  -7.523530e+06
   2.446181e+06  -8.961730e+06
   7.426230e+06  -4.259062e+06
   7.653154e+06   1.999381e+06
   3.938107e+06   5.539020e+06
  -1.474497e+05   5.362515e+06
  -1.347298e+06   3.353443e+06
   5.316469e+05   2.298101e+06
   2.058876e+06   3.355856e+06
  -3.835540e+05   4.676175e+06
  -5.768291e+06   3.392073e+06
  -8.612888e+06  -5.852647e+05
  -5.349809e+06  -3.983818e+06
   9.648143e+05  -3.967781e+06
   4.141279e+06  -1.239229e+06
   2.005773e+06   1.335321e+06
  -1.988557e+06   1.818800e+06
  -3.637466e+06   1.131334e+05
  -2.175520e+06  -2.618421e+06
   4.031491e+05  -4.187835e+06
   2.004206e+06  -2.633769e+06
   1.740384e+06   1.034427e+06
   2.135482e+05   2.752867e+06
  -7.092207e+05   2.561783e+05
   3.838648e+05  -3.125488e+06
   2.314839e+06  -2.337850e+06
   2.154937e+06   2.184342e+06
  -9.681333e+05   4.474559e+06
  -4.053707e+06   9.614518e+05
  -3.398901e+06  -4.589124e+06
   1.029504e+06  -5.881287e+06
   5.408031e+06  -1.710989e+06
   5.919468e+06   3.428100e+06
   2.162419e+06   5.059757e+06
  -2.774761e+06   2.788834e+06
  -4.933440e+06  -7.261895e+05
  -2.736867e+06  -2.689509e+06
   1.484687e+06  -1.963934e+06
   3.552584e+06   3.795082e+05
   1.771688e+06   1.883322e+06
  -1.218783e+06   1.088661e+06
  -1.731539e+06  -7.498888e+05
   4.253375e+05  -1.186683e+06
   1.978541e+06   3.106800e+05
   5.542916e+05   1.849905e+06
  -2.467280e+06   1.625264e+06
  -3.841546e+06  -2.810743e+05
  -2.030144e+06  -2.645995e+06
   1.700579e+06  -4.238593e+06
   4.811921e+06  -3.886360e+06
   5.414226e+06  -9.964315e+05
   3.388510e+06   3.056661e+06
   4.462633e+05   5.315694e+06
  -1.245701e+06   4.278619e+06
  -1.106324e+06   1.788646e+06
  -5.772456e+05   6.825322e+05
  -1.160611e+06   1.187213e+06
  -2.492464e+06   1.091049e+06
  -2.922335e+06  -7.565284e+05
  -1.607568e+06  -2.703141e+06
   6.101604e+05  -2.482421e+06
   2.137140e+06  -3.664536e+04
   1.851009e+06   2.499530e+06
  -2.439362e+05   3.022494e+06
  -2.800248e+06   1.188621e+06
  -3.788773e+06  -1.580621e+06
  -2.295361e+06  -3.342215e+06
   2.918509e+05  -3.179773e+06
   1.706253e+06  -1.884788e+06
   1.507919e+06  -9.639952e+05
   1.443035e+06  -8.970089e+05
   2.769868e+06  -7.203195e+05
   4.213879e+06   5.656940e+05
   3.451659e+06   2.636162e+06
   1.572136e+05   4.119700e+06
  -3.332688e+06   3.875450e+06
  -4.389426e+06   1.854771e+06
  -2.590065e+06  -8.122825e+05
   1.381761e+05  -2.376194e+06
   1.430789e+06  -1.764067e+06
   5.290533e+05   1.756847e+05
  -1.222723e+06   1.244641e+06
  -1.829273e+06   3.333556e+05
  -7.323251e+05  -1.160318e+06
   6.564256e+05  -1.133570e+06
   6.593919e+05   3.488908e+05
  -7.079587e+05   1.051232e+06
  -1.834554e+06  -4.717428e+05
  -1.342795e+06  -2.921680e+06
   6.298275e+05  -3.764223e+06
   2.791923e+06  -2.035923e+06
   3.764334e+06   8.933171e+05
   2.873698e+06   2.905197e+06
   6.266818e+05   2.935287e+06
  -1.382146e+06   1.518838e+06
  -1.685936e+06   1.366960e+05
  -5.027290e+05  -5.192396e+04
   3.687834e+05   7.579143e+05
  -3.408167e+05   1.262399e+06
  -1.761942e+06   5.606433e+05
  -1.972244e+06  -7.511956e+05
  -4.670676e+05  -1.311361e+06
   1.146913e+06  -6.268561e+05
   1.038639e+06   4.446915e+05
  -7.612825e+05   7.503756e+05
  -2.405353e+06  -5.034334e+04
  -2.121272e+06  -1.375664e+06
   7.865424e+04  -2.239664e+06
   2.394653e+06  -1.863879e+06
   2.868788e+06  -3.234558e+05
   1.214143e+06   1.214109e+06
  -8.852572e+05   1.389649e+06
  -1.433109e+06   1.476434e+05
  -1.123431e+05  -1.017788e+06
   1.516166e+06  -7.100122e+05
   1.759331e+06   7.283541e+05
   4.782981e+05   1.665197e+06
  -9.952249e+05   1.133544e+06
  -1.320308e+06  -1.456484e+05
  -3.773695e+05  -7.362867e+05
   7.253051e+05  -7.858118e+04
   7.064781e+05   1.053200e+06
  -6.340442e+05   1.421364e+06
  -2.064400e+06   4.878614e+05
  -2.040754e+06  -1.110693e+06
  -3.761894e+05  -2.093196e+06
   1.422431e+06  -1.663486e+06
   1.737401e+06  -2.618057e+05
   5.672606e+05   8.560083e+05
  -6.422866e+05   8.550812e+05
  -7.299984e+05   6.933238e+04
   4.914997e+04  -5.134762e+05
   6.179078e+05  -3.668185e+05
   3.661624e+05   1.021693e+05
  -3.289698e+05   1.246327e+05
  -5.946757e+05  -5.181544e+05
   9.591743e+04  -1.179497e+06
   1.370175e+06  -9.412968e+05
   2.123243e+06   4.094110e+05
   1.478681e+06   1.984609e+06
  -2.371855e+05   2.510433e+06
  -1.679919e+06   1.550393e+06
  -1.841995e+06  -4.924024e+04
  -1.046218e+06  -1.023397e+06
  -3.811758e+05  -9.235517e+05
  -3.587803e+05  -3.879618e+05
  -4.798706e+05  -2.687305e+05
  -6.401679e+04  -6.790908e+05
   8.495292e+05  -9.475503e+05
   1.516093e+06  -4.142828e+05
   1.193069e+06   7.720519e+05
  -1.821076e+05   1.629291e+06
  -1.784523e+06   1.190808e+06
  -2.359770e+06  -4.777190e+05
  -1.232667e+06  -2.132192e+06
   9.242809e+05  -2.410726e+06
   2.518782e+06  -1.133225e+06
   2.469303e+06   5.522419e+05
   1.161811e+06   1.368315e+06
  -1.110969e+05   1.127021e+06
  -5.114637e+05   6.716823e+05
  -2.906369e+05   7.591468e+05
  -2.180706e+05   1.216184e+06
  -6.628220e+05   1.222000e+06
  -1.265400e+06   2.862038e+05
  -1.336097e+06  -1.132077e+06
  -5.425362e+05  -1.958525e+06
   6.673156e+05  -1.473055e+06
   1.333732e+06  -1.636522e+04
   8.615705e+05   1.261614e+06
  -3.107922e+05   1.419141e+06
  -1.079178e+06   5.246309e+05
  -8.108062e+05  -5.404984e+05
   1.013708e+04  -9.998708e+05
   3.972367e+05  -8.183782e+05
   2.425675e+04  -4.894150e+05
  -4.140824e+05  -3.833682e+05
  -3.993969e+04  -4.090519e+05
   1.125575e+06  -2.279925e+05
   2.038982e+06   3.231412e+05
   1.652041e+06   1.020560e+06
   4.724464e+04   1.397710e+06
  -1.525972e+06   1.126072e+06
  -1.840359e+06   3.437899e+05
  -8.865751e+05  -3.825373e+05
   2.215264e+05  -5.211038e+05
   4.899160e+05  -8.361959e+04
  -1.271205e+04   3.562164e+05
  -4.993396e+05   2.398493e+05
  -4.768855e+05  -3.583453e+05
  -1.601846e+05  -7.745608e+05
  -5.853041e+03  -5.017464e+05
  -1.514238e+05   1.621137e+05
  -3.608224e+05   3.813861e+05
  -2.995531e+05  -2.298175e+05
   1.989371e+05  -1.046840e+06
   9.286293e+05  -1.071629e+06
   1.292788e+06  -1.048385e+05
   7.589066e+05   9.533136e+05
  -4.381336e+05   1.080777e+06
  -1.235157e+06   2.450736e+05
  -7.364144e+05  -6.264863e+05
   7.034195e+05  -6.808560e+05
   1.676419e+06   5.737225e+04
   1.154494e+06   8.700820e+05
  -4.133268e+05   1.092244e+06
  -1.572344e+06   6.149467e+05
  -1.354310e+06  -1.355208e+05
  -1.833952e+05  -5.530395e+05
   6.607450e+05  -3.174566e+05
   3.642293e+05   2.781374e+05
  -6.521184e+05   4.908746e+05
  -1.213805e+06  -1.619327e+05
  -6.013521e+05  -1.263062e+06
   7.230439e+05  -1.722148e+06
   1.591502e+06  -8.415672e+05
   1.289687e+06   8.320976e+05
   1.795398e+05   1.882359e+06
  -7.830984e+05   1.384353e+06
  -9.756110e+05  -1.368661e+05
  -4.948132e+05  -1.234752e+06
   1.636491e+05  -1.046402e+06
   5.629021e+05  -1.131107e+05
   5.347860e+05   4.088720e+05
   2.280143e+05   1.627178e+05
   2.864086e+04  -1.167418e+05
   2.032419e+05   2.705910e+05
   4.888608e+05   9.931857e+05
   2.591844e+05   1.136264e+06
  -6.661689e+05   4.158859e+05
  -1.542290e+06  -5.004371e+05
  -1.390499e+06  -8.823865e+05
  -1.935648e+05  -7.145440e+05
   9.495646e+05  -4.218934e+05
   1.047215e+06  -2.019187e+05
   3.262664e+05   2.555545e+04
  -1.761573e+05   2.275126e+05
   2.774096e+04   2.452895e+05
   3.456331e+05   1.383164e+05
   2.364199e+04   1.438805e+05
  -7.664613e+05   2.112699e+05
  -1.079031e+06  -4.765344e+04
  -3.377551e+05  -7.155152e+05
   9.576900e+05  -1.170992e+06
   1.730892e+06  -7.094051e+05
   1.375348e+06   5.092996e+05
   2.381656e+05   1.477054e+06
  -7.994530e+05   1.394326e+06
  -1.097618e+06   4.973547e+05
  -6.877589e+05  -2.884096e+05
  -1.046571e+05  -3.736799e+05
   1.325967e+05  -2.975975e+04
  -6.213682e+04   6.082612e+04
  -3.370715e+05  -3.657420e+05
  -2.711374e+05  -8.422453e+05
   2.101014e+05  -6.889227e+05
   7.192826e+05   1.792964e+05
   7.156625e+05   1.042696e+06
   3.439007e+04   1.067479e+06
  -8.247171e+05   1.867386e+05
  -1.044598e+06  -8.202828e+05
  -3.044838e+05  -1.134292e+06
   7.619593e+05  -6.474080e+05
   1.130446e+06   1.133619e+05
   5.066135e+05   6.035580e+05
  -3.057300e+05   6.443549e+05
  -3.503330e+05   3.617802e+05
   3.114626e+05   3.311290e+04
   6.895251e+05  -2.210160e+04
   1.283000e+05   3.120159e+05
  -8.675611e+05   6.993693e+05
  -1.268571e+06   5.807268e+05
  -7.335562e+05  -1.549214e+05
   1.191308e+05  -8.795574e+05
   5.401343e+05  -8.567952e+05
   3.917576e+05  -1.210512e+05
   2.028639e+04   5.211504e+05
  -2.661371e+05   4.193981e+05
  -3.674413e+05  -2.058474e+05
  -2.470339e+05  -6.054875e+05
   7.559066e+04  -3.994464e+05
   4.036634e+05   7.362713e+04
   4.716536e+05   2.661486e+05
   2.489059e+05   7.421236e+04
  -8.187969e+03  -1.196458e+05
  -8.240290e+04   3.101976e+04
  -5.861182e+04   3.995302e+05
  -1.558038e+05   5.205157e+05
  -3.669581e+05   1.357713e+05
  -4.079756e+05  -4.593637e+05
  -6.824044e+04  -6.847434e+05
   4.537153e+05  -2.970520e+05
   6.544101e+05   3.333703e+05
   2.303535e+05   6.193038e+05
  -5.189147e+05   3.637248e+05
  -8.876564e+05  -1.149924e+05
  -4.770937e+05  -4.015930e+05
   3.126203e+05  -3.753681e+05
   6.557821e+05  -1.825335e+05
   2.237231e+05  -6.327415e+03
  -4.130810e+05   2.887825e+04
  -4.437949e+05  -1.247121e+05
   2.205326e+05  -3.320025e+05
   8.452543e+05  -2.695400e+05
