
 $NMID
 id='ANONYMOUS ', fmtdat='(2E16.6)'
 volume=1.0
 tramp=1.0
 $END
   3.841871e+07   2.594405e+06
   2.242200e+07   2.314040e+07
  -4.932908e+06   2.497228e+07
  -1.858923e+07   1.105681e+07
  -1.189250e+07  -3.067849e+06
   1.493874e+06  -6.405704e+06
   7.046720e+06  -3.907202e+05
   2.992768e+06   6.572898e+06
  -3.683992e+06   7.717280e+06
  -6.895751e+06   2.238874e+06
  -5.074121e+06  -4.844212e+06
  -2.699872e+05  -6.779104e+06
   3.261878e+06  -1.624201e+06
   2.056945e+06   5.000661e+06
  -2.706964e+06   5.639530e+06
  -5.724032e+06  -6.138322e+05
  -3.268848e+06  -7.387004e+06
   2.771268e+06  -8.472918e+06
   7.340054e+06  -3.781781e+06
   7.337380e+06   2.221039e+06
   3.656605e+06   5.549564e+06
  -3.525640e+05   5.305851e+06
  -1.592778e+06   3.256206e+06
   2.091076e+05   2.101485e+06
   1.785658e+06   3.054643e+06
  -4.250756e+05   4.336626e+06
  -5.496897e+06   3.094062e+06
  -8.158910e+06  -7.575873e+05
  -5.013545e+06  -3.967370e+06
   9.683133e+05  -3.822244e+06
   3.931004e+06  -1.159798e+06
   1.926713e+06   1.216369e+06
  -1.765988e+06   1.616801e+06
  -3.299077e+06   7.496426e+04
  -1.988170e+06  -2.411347e+06
   4.116300e+05  -3.910228e+06
   1.980577e+06  -2.499535e+06
   1.748104e+06   1.001537e+06
   2.056190e+05   2.708886e+06
  -7.364714e+05   3.560959e+05
   3.681783e+05  -2.877515e+06
   2.241871e+06  -2.103484e+06
   1.931912e+06   2.204995e+06
  -1.223879e+06   4.240960e+06
  -4.062515e+06   6.770677e+05
  -3.100250e+06  -4.649202e+06
   1.304767e+06  -5.655935e+06
   5.297548e+06  -1.423990e+06
   5.477241e+06   3.502916e+06
   1.804396e+06   4.861792e+06
  -2.736839e+06   2.488085e+06
  -4.586255e+06  -9.109316e+05
  -2.412732e+06  -2.656371e+06
   1.544452e+06  -1.776434e+06
   3.374087e+06   5.492913e+05
   1.577554e+06   1.897953e+06
  -1.230423e+06   9.875653e+05
  -1.585276e+06  -7.816636e+05
   5.050038e+05  -1.044440e+06
   1.832863e+06   4.933067e+05
   3.054467e+05   1.843710e+06
  -2.546671e+06   1.392005e+06
  -3.662264e+06  -5.231500e+05
  -1.790619e+06  -2.654280e+06
   1.760360e+06  -3.984007e+06
   4.657992e+06  -3.550995e+06
   5.174805e+06  -7.993974e+05
   3.165085e+06   3.007887e+06
   2.620040e+05   5.066155e+06
  -1.367642e+06   3.973582e+06
  -1.123610e+06   1.558867e+06
  -4.874154e+05   5.503286e+05
  -1.007280e+06   1.098845e+06
  -2.310289e+06   1.038356e+06
  -2.735855e+06  -7.057233e+05
  -1.483740e+06  -2.527132e+06
   5.831221e+05  -2.298411e+06
   1.959200e+06  -3.189590e+03
   1.654905e+06   2.354109e+06
  -2.988650e+05   2.820319e+06
  -2.668678e+06   1.064415e+06
  -3.561564e+06  -1.585487e+06
  -2.101980e+06  -3.259841e+06
   3.873038e+05  -3.055950e+06
   1.727452e+06  -1.755101e+06
   1.502207e+06  -8.411264e+05
   1.398644e+06  -7.616711e+05
   2.614541e+06  -5.632491e+05
   3.922572e+06   6.766817e+05
   3.141223e+06   2.579643e+06
   1.852207e+04   3.853838e+06
  -3.221651e+06   3.525947e+06
  -4.149653e+06   1.627821e+06
  -2.416244e+06  -8.100764e+05
   1.625312e+05  -2.220972e+06
   1.372867e+06  -1.630014e+06
   4.995301e+05   1.729464e+05
  -1.174019e+06   1.138182e+06
  -1.732944e+06   2.567795e+05
  -6.632920e+05  -1.121052e+06
   6.407928e+05  -1.044393e+06
   5.886035e+05   3.435340e+05
  -7.125746e+05   9.214805e+05
  -1.675712e+06  -5.650896e+05
  -1.086194e+06  -2.794448e+06
   7.750201e+05  -3.434032e+06
   2.668155e+06  -1.725064e+06
   3.428876e+06   9.821580e+05
   2.547440e+06   2.769908e+06
   4.915021e+05   2.727838e+06
  -1.323992e+06   1.375810e+06
  -1.573649e+06   8.561854e+04
  -4.670409e+05  -6.416773e+04
   3.216520e+05   7.200404e+05
  -3.668965e+05   1.175981e+06
  -1.680044e+06   4.667231e+05
  -1.823615e+06  -7.797613e+05
  -3.851978e+05  -1.251030e+06
   1.095084e+06  -5.479536e+05
   9.481554e+05   4.437166e+05
  -7.314910e+05   6.577454e+05
  -2.217404e+06  -1.336523e+05
  -1.909427e+06  -1.334974e+06
   1.469392e+05  -2.062011e+06
   2.281162e+06  -1.653339e+06
   2.682107e+06  -2.113138e+05
   1.095084e+06   1.179363e+06
  -8.798496e+05   1.281090e+06
  -1.358932e+06   9.111102e+04
  -7.893669e+04  -9.662215e+05
   1.442277e+06  -6.201522e+05
   1.618033e+06   7.399932e+05
   3.828014e+05   1.567566e+06
  -9.710260e+05   1.012507e+06
  -1.220953e+06  -1.909771e+05
  -3.176895e+05  -7.027747e+05
   6.875796e+05  -4.990850e+04
   6.339636e+05   1.006204e+06
  -6.287360e+05   1.312908e+06
  -1.941174e+06   4.013520e+05
  -1.875770e+06  -1.095123e+06
  -2.881729e+05  -1.967693e+06
   1.383446e+06  -1.508432e+06
   1.630686e+06  -1.845062e+05
   4.970395e+05   8.197832e+05
  -6.288133e+05   7.761751e+05
  -6.792204e+05   4.571782e+04
   6.032391e+04  -4.650407e+05
   5.718897e+05  -3.173005e+05
   3.209041e+05   9.330011e+04
  -3.119662e+05   8.509118e+04
  -5.264617e+05  -5.111689e+05
   1.349340e+05  -1.094372e+06
   1.307430e+06  -8.329307e+05
   1.967438e+06   4.461703e+05
   1.321037e+06   1.895778e+06
  -2.949854e+05   2.331601e+06
  -1.608542e+06   1.386606e+06
  -1.703744e+06  -1.056021e+05
  -9.322335e+05  -9.721185e+05
  -3.295017e+05  -8.491480e+05
  -3.382009e+05  -3.623639e+05
  -4.507715e+05  -2.733096e+05
  -3.840249e+04  -6.426092e+05
   8.220748e+05  -8.525019e+05
   1.417610e+06  -3.352608e+05
   1.078557e+06   7.467184e+05
  -2.195661e+05   1.497867e+06
  -1.692696e+06   1.049590e+06
  -2.179763e+06  -5.148860e+05
  -1.079483e+06  -2.024270e+06
   9.433709e+05  -2.218432e+06
   2.387887e+06  -9.721735e+05
   2.277384e+06   5.982254e+05
   1.026710e+06   1.306140e+06
  -1.410652e+05   1.031378e+06
  -4.829275e+05   6.018385e+05
  -2.766745e+05   7.066545e+05
  -2.347998e+05   1.141217e+06
  -6.603123e+05   1.126936e+06
  -1.195014e+06   2.302858e+05
  -1.215678e+06  -1.094874e+06
  -4.500664e+05  -1.842355e+06
   6.642466e+05  -1.354899e+06
   1.242902e+06   2.564494e+04
   7.619182e+05   1.205952e+06
  -3.402084e+05   1.312428e+06
  -1.028254e+06   4.446489e+05
  -7.364129e+05  -5.430397e+05
   5.186906e+04  -9.369933e+05
   4.068514e+05  -7.456750e+05
   4.102235e+04  -4.488640e+05
  -3.774127e+05  -3.670165e+05
  -2.703471e+04  -3.809974e+05
   1.059271e+06  -1.760941e+05
   1.896152e+06   3.653717e+05
   1.509073e+06   1.004282e+06
  -6.293145e+03   1.308587e+06
  -1.466088e+06   1.005276e+06
  -1.728147e+06   2.592631e+05
  -8.094617e+05  -3.928355e+05
   2.275826e+05  -4.828318e+05
   4.604351e+05  -5.822598e+04
  -2.148616e+04   3.382664e+05
  -4.696272e+05   2.107914e+05
  -4.347043e+05  -3.484752e+05
  -1.345900e+05  -7.264407e+05
   1.935466e+03  -4.695733e+05
  -1.428915e+05   1.411341e+05
  -3.386101e+05   3.404783e+05
  -2.704476e+05  -2.218581e+05
   2.104501e+05  -9.672424e+05
   8.964401e+05  -9.734648e+05
   1.218280e+06  -6.357314e+04
   6.891008e+05   9.125850e+05
  -4.416939e+05   1.001988e+06
  -1.165695e+06   1.983912e+05
  -6.697915e+05  -6.032618e+05
   6.772269e+05  -6.113906e+05
   1.555511e+06   1.064481e+05
   1.038770e+06   8.435322e+05
  -4.230783e+05   9.963024e+05
  -1.477547e+06   5.161830e+05
  -1.249028e+06  -1.695562e+05
  -1.511740e+05  -5.176456e+05
   6.251269e+05  -2.726915e+05
   3.336795e+05   2.730907e+05
  -6.192190e+05   4.439210e+05
  -1.129304e+06  -1.800577e+05
  -5.321917e+05  -1.193594e+06
   7.161156e+05  -1.589553e+06
   1.504962e+06  -7.446107e+05
   1.178769e+06   8.098140e+05
   1.144276e+05   1.757243e+06
  -7.680130e+05   1.262730e+06
  -9.018529e+05  -1.599892e+05
  -4.201651e+05  -1.163438e+06
   1.876628e+05  -9.645591e+05
   5.286154e+05  -8.623344e+04
   4.821352e+05   3.934946e+05
   2.032038e+05   1.549029e+05
   3.182321e+04  -1.056873e+05
   1.883041e+05   2.637167e+05
   4.293465e+05   9.417937e+05
   2.025660e+05   1.063114e+06
  -6.396669e+05   3.649904e+05
  -1.421160e+06  -5.101038e+05
  -1.263582e+06  -8.601313e+05
  -1.586207e+05  -6.719536e+05
   8.913296e+05  -3.676874e+05
   9.785435e+05  -1.565823e+05
   3.066507e+05   3.758792e+04
  -1.689357e+05   2.080544e+05
   1.317906e+04   2.241660e+05
   3.124683e+05   1.327953e+05
   2.109297e+04   1.348510e+05
  -7.133704e+05   1.799420e+05
  -1.005627e+06  -7.276101e+04
  -3.042780e+05  -6.800958e+05
   9.201607e+05  -1.070177e+06
   1.638884e+06  -6.161306e+05
   1.276630e+06   5.116769e+05
   1.834787e+05   1.382542e+06
  -7.862167e+05   1.278636e+06
  -1.037909e+06   4.375422e+05
  -6.330300e+05  -2.836364e+05
  -9.028952e+04  -3.519853e+05
   1.195737e+05  -2.968868e+04
  -6.045696e+04   4.983300e+04
  -3.003445e+05  -3.513235e+05
  -2.267430e+05  -7.919265e+05
   2.139999e+05  -6.383707e+05
   6.655917e+05   1.821054e+05
   6.433760e+05   9.885717e+05
   9.350065e+03   9.987672e+05
  -7.717746e+05   1.584053e+05
  -9.544853e+05  -7.883987e+05
  -2.563730e+05  -1.067099e+06
   7.282864e+05  -5.872342e+05
   1.054063e+06   1.358628e+05
   4.580952e+05   5.817253e+05
  -3.045158e+05   5.978529e+05
  -3.420690e+05   3.277880e+05
   2.840596e+05   3.596191e+04
   6.418334e+05  -2.866443e+03
   1.125679e+05   2.959201e+05
  -8.278484e+05   6.269547e+05
  -1.202327e+06   5.003867e+05
  -6.839371e+05  -1.708915e+05
   1.356186e+05  -8.189814e+05
   5.328865e+05  -7.845869e+05
   3.752514e+05  -1.045903e+05
   8.110024e+03   4.846732e+05
  -2.593248e+05   3.868847e+05
  -3.377312e+05  -1.968032e+05
  -2.143896e+05  -5.711674e+05
   8.133149e+04  -3.753079e+05
   3.750955e+05   7.758101e+04
   4.331749e+05   2.652561e+05
   2.291047e+05   7.934223e+04
  -5.946995e+03  -1.165206e+05
  -7.554454e+04   1.818699e+04
  -5.756044e+04   3.693780e+05
  -1.508790e+05   4.892970e+05
  -3.450310e+05   1.267431e+05
  -3.761487e+05  -4.350736e+05
  -5.420554e+04  -6.417093e+05
   4.290583e+05  -2.676737e+05
   6.051902e+05   3.260911e+05
   2.009998e+05   5.821056e+05
  -4.953834e+05   3.251678e+05
  -8.280012e+05  -1.299451e+05
  -4.353384e+05  -3.877298e+05
   3.027989e+05  -3.453164e+05
   6.190956e+05  -1.565706e+05
   2.130364e+05   6.172075e+02
  -3.813658e+05   2.138771e+04
  -4.096567e+05  -1.220572e+05
   2.090962e+05  -3.012794e+05
   7.877180e+05  -2.303444e+05
