
 $NMID
 id='ANONYMOUS ', fmtdat='(2E16.6)'
 volume=1.0
 tramp=1.0
 $END
   1.675747e+07  -1.960376e+06
   1.295647e+07   6.134175e+06
   1.973255e+06   1.089580e+07
  -6.727886e+06   8.844433e+06
  -6.932291e+06   1.935823e+06
  -1.065804e+06  -3.339784e+06
   3.764764e+06  -2.353229e+06
   3.436090e+06   2.700856e+06
  -3.309429e+05   5.485009e+06
  -3.303561e+06   2.814378e+06
  -3.115690e+06  -2.093839e+06
  -5.945914e+05  -3.806251e+06
   1.664014e+06  -8.181891e+05
   1.540987e+06   3.270005e+06
  -8.488655e+05   4.040567e+06
  -3.087176e+06   7.701606e+05
  -2.672077e+06  -3.312647e+06
   2.999959e+05  -4.577952e+06
   3.103989e+06  -2.411973e+06
   3.342877e+06   7.117676e+05
   1.473855e+06   2.128431e+06
  -1.578686e+04   1.588920e+06
   4.270341e+05   9.400722e+05
   1.800987e+06   1.616438e+06
   1.805877e+06   2.992560e+06
  -5.912151e+05   3.304473e+06
  -3.827788e+06   1.746819e+06
  -4.983366e+06  -6.853508e+05
  -2.689313e+06  -2.222310e+06
   1.098524e+06  -1.865450e+06
   2.777140e+06  -9.289794e+04
   9.062786e+05   1.543241e+06
  -2.182357e+06   1.551234e+06
  -3.122215e+06  -2.526481e+05
  -1.319177e+06  -2.358854e+06
   8.389639e+05  -2.778050e+06
   1.223888e+06  -1.069466e+06
   2.055478e+05   9.721797e+05
  -5.276825e+05   1.118257e+06
  -1.995028e+05  -7.473163e+05
   6.935471e+05  -2.355527e+06
   1.410131e+06  -1.633737e+06
   1.444793e+06   7.956592e+05
   4.962872e+05   2.249968e+06
  -1.030318e+06   1.083553e+06
  -1.695848e+06  -1.422731e+06
  -2.938585e+05  -2.549397e+06
   2.316755e+06  -1.120606e+06
   3.550158e+06   1.435211e+06
   1.846434e+06   2.803146e+06
  -1.395920e+06   2.042769e+06
  -3.207184e+06   1.157578e+05
  -2.151924e+06  -1.317348e+06
   3.867176e+05  -1.326666e+06
   1.886211e+06  -2.603477e+05
   1.225672e+06   7.154340e+05
  -4.657270e+05   6.554572e+05
  -1.194634e+06  -3.033493e+05
  -2.106893e+05  -1.066071e+06
   1.230962e+06  -7.129438e+05
   1.276728e+06   4.780983e+05
  -3.500900e+05   1.262824e+06
  -1.874621e+06   6.933829e+05
  -1.416961e+06  -9.241693e+05
   8.420719e+05  -2.278104e+06
   2.865070e+06  -2.159987e+06
   3.023065e+06  -4.544535e+05
   1.647997e+06   1.734895e+06
   2.406733e+05   2.959261e+06
  -3.228727e+05   2.663348e+06
  -4.018657e+05   1.613592e+06
  -7.257845e+05   9.326708e+05
  -1.439277e+06   7.641378e+05
  -2.029357e+06   2.584679e+05
  -1.871104e+06  -1.015086e+06
  -7.748312e+05  -2.128443e+06
   7.550928e+05  -1.753213e+06
   1.714095e+06   1.060872e+05
   1.312325e+06   1.871490e+06
  -2.491113e+05   2.014146e+06
  -1.778886e+06   5.752087e+05
  -2.096565e+06  -1.092297e+06
  -1.119673e+06  -1.799224e+06
   1.287284e+05  -1.481112e+06
   6.536707e+05  -8.877800e+05
   5.431974e+05  -6.680307e+05
   7.415615e+05  -7.960431e+05
   1.745603e+06  -6.940613e+05
   2.739502e+06   1.524216e+05
   2.329899e+06   1.582954e+06
   2.104875e+05   2.708704e+06
  -2.177028e+06   2.593150e+06
  -2.934630e+06   1.136272e+06
  -1.630713e+06  -6.913889e+05
   2.939682e+05  -1.589909e+06
   1.067350e+06  -1.049518e+06
   3.127864e+05   1.788524e+05
  -8.440822e+05   7.898121e+05
  -1.141535e+06   2.333764e+05
  -4.051007e+05  -6.945536e+05
   4.880663e+05  -7.516863e+05
   5.793084e+05   2.227049e+05
  -2.847801e+05   9.594532e+05
  -1.316742e+06   2.020777e+05
  -1.427053e+06  -1.663868e+06
  -1.740645e+05  -2.826219e+06
   1.718154e+06  -1.981283e+06
   2.835272e+06   2.481141e+05
   2.281388e+06   2.011569e+06
   5.341273e+05   2.127151e+06
  -9.627044e+05   1.041612e+06
  -1.154031e+06   6.053555e+04
  -3.361368e+05  -2.730068e+04
   2.651189e+05   4.934009e+05
  -1.401571e+05   8.003874e+05
  -1.054775e+06   4.193629e+05
  -1.294701e+06  -3.571518e+05
  -4.007231e+05  -7.985194e+05
   7.299751e+05  -4.748501e+05
   7.814435e+05   2.813381e+05
  -4.620209e+05   6.587087e+05
  -1.749933e+06   1.521981e+05
  -1.644567e+06  -9.162797e+05
  -6.451975e+04  -1.654127e+06
   1.606687e+06  -1.391703e+06
   1.936747e+06  -2.969831e+05
   8.306704e+05   7.357774e+05
  -5.106622e+05   8.701914e+05
  -8.542659e+05   1.243629e+05
  -5.432791e+04  -6.140610e+05
   9.719339e+05  -4.857613e+05
   1.202452e+06   4.083238e+05
   4.366368e+05   1.107202e+06
  -5.888223e+05   8.751284e+05
  -9.304795e+05   2.799137e+04
  -3.512486e+05  -4.647480e+05
   4.333496e+05  -9.391999e+04
   4.697621e+05   6.676224e+05
  -4.153222e+05   9.352994e+05
  -1.365556e+06   3.276638e+05
  -1.356745e+06  -7.150210e+05
  -2.897538e+05  -1.370948e+06
   8.828105e+05  -1.138665e+06
   1.145187e+06  -2.437366e+05
   4.338403e+05   5.481171e+05
  -3.968759e+05   6.093296e+05
  -5.335105e+05   4.486609e+04
  -7.434346e+01  -4.400470e+05
   4.953089e+05  -3.324813e+05
   3.842411e+05   1.159438e+05
  -1.699111e+05   2.291416e+05
  -4.714497e+05  -2.429126e+05
  -3.438567e+04  -7.864713e+05
   8.733945e+05  -6.795268e+05
   1.425822e+06   2.194499e+05
   1.018384e+06   1.290046e+06
  -1.199941e+05   1.700468e+06
  -1.121902e+06   1.130242e+06
  -1.311334e+06   3.690485e+04
  -8.059412e+05  -7.496879e+05
  -2.707691e+05  -7.699184e+05
  -1.475989e+05  -3.302207e+05
  -2.379988e+05  -1.155461e+05
  -5.465621e+04  -3.874335e+05
   5.238331e+05  -6.735951e+05
   1.037326e+06  -3.528233e+05
   8.801953e+05   5.280928e+05
  -6.317097e+04   1.184891e+06
  -1.195174e+06   8.861442e+05
  -1.625732e+06  -2.683435e+05
  -9.147552e+05  -1.400134e+06
   5.006828e+05  -1.640991e+06
   1.621951e+06  -8.692314e+05
   1.718474e+06   2.533219e+05
   9.155693e+05   9.161850e+05
  -1.416479e+04   8.655736e+05
  -4.172465e+05   5.326492e+05
  -3.025376e+05   4.759743e+05
  -1.699493e+05   7.288274e+05
  -3.897899e+05   7.763889e+05
  -7.992196e+05   2.021881e+05
  -8.929617e+05  -7.403143e+05
  -3.838153e+05  -1.305859e+06
   4.345852e+05  -9.952761e+05
   9.048612e+05  -4.718459e+04
   6.280523e+05   7.988473e+05
  -1.234743e+05   9.625525e+05
  -6.602328e+05   4.553232e+05
  -5.672060e+05  -2.376782e+05
  -9.848202e+04  -6.251486e+05
   1.599167e+05  -5.885347e+05
  -2.240185e+04  -3.752904e+05
  -2.610228e+05  -2.674841e+05
  -1.964097e+04  -2.796020e+05
   7.195148e+05  -1.908813e+05
   1.328446e+06   1.530894e+05
   1.129542e+06   6.232496e+05
   1.229739e+05   9.031925e+05
  -9.298406e+05   7.740234e+05
  -1.211272e+06   3.090720e+05
  -6.390987e+05  -1.675289e+05
   1.005596e+05  -3.224472e+05
   3.125530e+05  -1.008622e+05
  -1.707607e+04   1.861880e+05
  -3.534067e+05   1.483292e+05
  -3.147437e+05  -2.326551e+05
  -5.611576e+04  -5.207969e+05
   4.484931e+04  -3.282154e+05
  -1.144505e+05   1.500183e+05
  -2.921506e+05   3.016561e+05
  -2.169945e+05  -1.452347e+05
   1.512202e+05  -7.183916e+05
   6.011641e+05  -7.212182e+05
   7.871790e+05  -6.467238e+04
   4.524762e+05   6.153724e+05
  -2.665120e+05   6.751429e+05
  -7.720828e+05   1.330539e+05
  -4.888758e+05  -4.268675e+05
   4.491526e+05  -4.823266e+05
   1.159649e+06  -1.398585e+04
   8.706716e+05   5.684263e+05
  -2.138164e+05   8.018745e+05
  -1.081724e+06   5.170354e+05
  -9.759080e+05  -3.867385e+04
  -1.592558e+05  -3.900268e+05
   4.386694e+05  -2.532906e+05
   2.335424e+05   1.587939e+05
  -4.532098e+05   3.031907e+05
  -8.018028e+05  -1.369218e+05
  -3.598438e+05  -8.525135e+05
   5.250403e+05  -1.128611e+06
   1.082514e+06  -5.359430e+05
   8.688028e+05   5.684660e+05
   1.294648e+05   1.278795e+06
  -5.213887e+05   9.739460e+05
  -6.795100e+05  -4.665746e+04
  -3.884984e+05  -8.318004e+05
   5.510844e+04  -7.482841e+05
   3.687371e+05  -1.075204e+05
   4.005780e+05   2.869824e+05
   1.934953e+05   1.295205e+05
   5.306820e+03  -9.532962e+04
   8.821104e+04   1.396110e+05
   3.217242e+05   6.487384e+05
   2.345776e+05   7.852163e+05
  -3.913331e+05   3.099193e+05
  -1.055446e+06  -3.253566e+05
  -9.955809e+05  -5.920523e+05
  -1.462051e+05  -4.721290e+05
   6.768532e+05  -2.805873e+05
   7.242198e+05  -1.590954e+05
   1.916562e+05  -1.807396e+04
  -1.318291e+05   1.473179e+05
   6.377556e+04   2.001627e+05
   2.795443e+05   1.295515e+05
  -3.754261e+03   9.555189e+04
  -5.657827e+05   1.159279e+05
  -7.167530e+05  -3.948050e+04
  -1.578735e+05  -4.544114e+05
   6.798571e+05  -7.516749e+05
   1.117288e+06  -4.563615e+05
   8.575564e+05   3.507745e+05
   1.453956e+05   9.966799e+05
  -5.130083e+05   9.274488e+05
  -7.268848e+05   3.050259e+05
  -4.650089e+05  -2.208691e+05
  -5.016918e+04  -2.450574e+05
   1.267457e+05   1.912314e+04
  -3.241832e+04   7.940224e+04
  -2.555772e+05  -2.338707e+05
  -2.069436e+05  -5.689909e+05
   1.462568e+05  -4.507168e+05
   4.866369e+05   1.540669e+05
   4.472928e+05   7.250789e+05
  -2.753817e+04   6.996309e+05
  -5.732084e+05   7.375368e+04
  -6.783745e+05  -5.890228e+05
  -1.759113e+05  -7.513160e+05
   5.101360e+05  -3.987792e+05
   7.320754e+05   8.207134e+04
   3.209809e+05   3.645291e+05
  -1.906924e+05   3.897245e+05
  -1.918927e+05   2.418549e+05
   2.496130e+05   4.779420e+04
   4.730212e+05  -7.035195e+03
   7.347259e+04   1.973255e+05
  -5.818153e+05   4.782639e+05
  -8.193180e+05   4.349849e+05
  -4.561941e+05  -5.780691e+04
   7.791504e+04  -5.723149e+05
   3.178265e+05  -5.666208e+05
   2.117844e+05  -5.945337e+04
  -1.258781e+04   3.631031e+05
  -1.811128e+05   2.562102e+05
  -2.412304e+05  -1.774642e+05
  -1.602487e+05  -4.061229e+05
   5.318469e+04  -2.296114e+05
   2.655996e+05   6.589277e+04
   3.088061e+05   1.471059e+05
   1.719456e+05   2.438209e+04
   7.912643e+03  -4.481734e+04
  -6.810700e+04   8.579481e+04
  -9.957948e+04   2.822920e+05
  -1.734844e+05   2.891227e+05
  -2.561078e+05   1.323851e+04
  -2.110275e+05  -3.444036e+05
   2.608085e+04  -4.508559e+05
   3.204320e+05  -1.754178e+05
   4.067086e+05   2.444227e+05
   1.307787e+05   4.272103e+05
  -3.345204e+05   2.407538e+05
  -5.676841e+05  -8.995293e+04
  -3.078781e+05  -2.676769e+05
   2.032988e+05  -2.215611e+05
   4.211695e+05  -8.767223e+04
   1.170305e+05  -4.346006e+03
  -3.146245e+05  -2.230832e+04
  -3.057127e+05  -1.324060e+05
   1.897729e+05  -2.421494e+05
   6.261304e+05  -1.667405e+05
