
 $NMID
 id='ANONYMOUS ', fmtdat='(2E16.6)'
 volume=1.0
 tramp=1.0
 $END
   2.781745e+07   1.777514e+06
   1.709098e+07   1.507350e+07
  -2.034594e+06   1.767355e+07
  -1.285135e+07   9.867337e+06
  -9.480383e+06  -3.621902e+05
   1.424796e+05  -4.840091e+06
   5.450322e+06  -1.557849e+06
   3.360458e+06   4.634280e+06
  -1.964821e+06   6.856565e+06
  -5.200480e+06   2.631691e+06
  -4.130885e+06  -3.722546e+06
  -2.830606e+05  -5.568389e+06
   2.649936e+06  -1.139662e+06
   1.838287e+06   4.490442e+06
  -1.875184e+06   5.098635e+06
  -4.488157e+06   4.752636e+04
  -2.910431e+06  -5.546285e+06
   1.756909e+06  -6.626634e+06
   5.468413e+06  -2.925622e+06
   5.369207e+06   1.838010e+06
   2.279073e+06   4.099734e+06
  -5.308510e+05   3.363790e+06
  -6.061556e+05   1.848172e+06
   1.336550e+06   1.868476e+06
   2.069422e+06   3.415652e+06
  -6.755826e+05   4.224912e+06
  -5.188863e+06   2.430374e+06
  -7.026901e+06  -1.082485e+06
  -3.901739e+06  -3.480216e+06
   1.367630e+06  -2.983637e+06
   3.756481e+06  -4.776148e+05
   1.517227e+06   1.708375e+06
  -2.295658e+06   1.860939e+06
  -3.669198e+06  -1.326519e+05
  -1.811973e+06  -2.769581e+06
   8.592212e+05  -3.709089e+06
   1.857529e+06  -1.768446e+06
   9.057493e+05   1.276472e+06
  -4.373819e+05   2.033950e+06
  -5.781777e+05  -4.344784e+05
   6.800084e+05  -2.946401e+06
   1.993702e+06  -1.989370e+06
   1.718856e+06   1.540852e+06
  -3.471050e+05   3.224879e+06
  -2.409137e+06   7.569019e+05
  -2.207909e+06  -3.119069e+06
   6.424764e+05  -4.052941e+06
   3.926195e+06  -1.118442e+06
   4.662152e+06   2.676947e+06
   1.900986e+06   4.045223e+06
  -2.183336e+06   2.394450e+06
  -4.133056e+06  -4.114349e+05
  -2.443569e+06  -2.075600e+06
   9.590372e+05  -1.591970e+06
   2.695499e+06   1.764885e+05
   1.437931e+06   1.339937e+06
  -8.785435e+05   8.161488e+05
  -1.483217e+06  -5.742061e+05
   4.592330e+04  -1.129491e+06
   1.525224e+06  -2.532119e+05
   9.080666e+05   1.007989e+06
  -1.331820e+06   1.267895e+06
  -2.764239e+06   1.057696e+05
  -1.603508e+06  -1.814596e+06
   1.507628e+06  -3.236824e+06
   4.154731e+06  -2.897284e+06
   4.394429e+06  -4.714873e+05
   2.410724e+06   2.661075e+06
   9.700073e+04   4.271243e+06
  -9.203262e+05   3.491253e+06
  -7.456707e+05   1.748143e+06
  -6.811863e+05   9.327530e+05
  -1.485048e+06   1.070007e+06
  -2.507777e+06   6.156526e+05
  -2.539926e+06  -1.094348e+06
  -1.166571e+06  -2.657366e+06
   8.212538e+05  -2.254853e+06
   2.067273e+06   7.847752e+04
   1.612024e+06   2.355847e+06
  -3.644703e+05   2.635120e+06
  -2.449153e+06   7.919759e+05
  -2.974080e+06  -1.583879e+06
  -1.562694e+06  -2.764064e+06
   4.054694e+05  -2.335029e+06
   1.285640e+06  -1.276886e+06
   1.041175e+06  -7.400696e+05
   1.113886e+06  -8.304420e+05
   2.337274e+06  -6.612597e+05
   3.570915e+06   4.932116e+05
   2.912261e+06   2.288806e+06
   6.714160e+04   3.550474e+06
  -2.994925e+06   3.264261e+06
  -3.899887e+06   1.408798e+06
  -2.187746e+06  -9.004972e+05
   3.261815e+05  -2.095990e+06
   1.393616e+06  -1.424829e+06
   4.386723e+05   2.140991e+05
  -1.127362e+06   1.022578e+06
  -1.550422e+06   2.293308e+05
  -5.362587e+05  -9.933877e+05
   6.395760e+05  -9.718805e+05
   6.521790e+05   2.963267e+05
  -4.896866e+05   1.033049e+06
  -1.566903e+06  -1.197756e+05
  -1.379055e+06  -2.325280e+06
   2.381389e+05  -3.377048e+06
   2.313470e+06  -2.066626e+06
   3.409843e+06   6.276976e+05
   2.655863e+06   2.618380e+06
   5.504587e+05   2.668979e+06
  -1.275187e+06   1.301985e+06
  -1.496409e+06   4.917017e+04
  -4.359607e+05  -5.663400e+04
   3.076378e+05   6.603528e+05
  -2.855707e+05   1.048111e+06
  -1.466268e+06   4.445607e+05
  -1.659187e+06  -6.251970e+05
  -4.134330e+05  -1.093549e+06
   9.856803e+05  -5.416188e+05
   9.446800e+05   3.958414e+05
  -6.334083e+05   7.232072e+05
  -2.158618e+06   1.977077e+04
  -1.950445e+06  -1.231574e+06
   4.150312e+04  -2.033820e+06
   2.129119e+06  -1.643182e+06
   2.511562e+06  -2.457342e+05
   1.021793e+06   1.044828e+06
  -7.709071e+05   1.133723e+06
  -1.182911e+06   8.576232e+04
  -4.348684e+04  -8.500622e+05
   1.314572e+06  -5.721685e+05
   1.516061e+06   6.352961e+05
   4.397751e+05   1.445722e+06
  -8.360975e+05   1.022284e+06
  -1.159211e+06  -7.933272e+04
  -3.671083e+05  -6.206172e+05
   5.932463e+05  -6.494622e+04
   5.738909e+05   9.157441e+05
  -5.944716e+05   1.205873e+06
  -1.804097e+06   3.572076e+05
  -1.733521e+06  -1.016358e+06
  -2.818245e+05  -1.812134e+06
   1.244620e+06  -1.412181e+06
   1.502759e+06  -2.157042e+05
   5.004545e+05   7.403100e+05
  -5.593428e+05   7.451455e+05
  -6.680032e+05   4.404676e+04
   2.305346e+04  -5.026978e+05
   5.897801e+05  -3.679331e+05
   4.123835e+05   1.109312e+05
  -2.370986e+05   1.843148e+05
  -5.337768e+05  -3.934702e+05
   5.869035e+04  -1.008922e+06
   1.189572e+06  -8.020210e+05
   1.833097e+06   3.892011e+05
   1.238635e+06   1.748928e+06
  -2.590662e+05   2.189381e+06
  -1.499596e+06   1.358603e+06
  -1.646129e+06  -4.494713e+04
  -9.584800e+05  -9.532918e+05
  -3.355262e+05  -9.149230e+05
  -2.504137e+05  -4.098939e+05
  -3.457044e+05  -2.205600e+05
  -3.086190e+04  -5.491449e+05
   7.373623e+05  -8.175908e+05
   1.339259e+06  -3.637215e+05
   1.069645e+06   7.080557e+05
  -1.600411e+05   1.467605e+06
  -1.582094e+06   1.038328e+06
  -2.064726e+06  -4.525112e+05
  -1.060802e+06  -1.867783e+06
   8.021802e+05  -2.072721e+06
   2.174625e+06  -9.702963e+05
   2.161505e+06   4.749410e+05
   1.059621e+06   1.210212e+06
  -7.717151e+04   1.042886e+06
  -5.041430e+05   6.346038e+05
  -3.529935e+05   6.478660e+05
  -2.574070e+05   1.001899e+06
  -5.882620e+05   1.009614e+06
  -1.080042e+06   2.089575e+05
  -1.125518e+06  -1.018886e+06
  -4.232424e+05  -1.718972e+06
   6.196932e+05  -1.267609e+06
   1.166004e+06   2.775742e+03
   7.375902e+05   1.090253e+06
  -2.594209e+05   1.223274e+06
  -9.017383e+05   4.816021e+05
  -6.869961e+05  -4.127686e+05
  -2.107313e+04  -8.270157e+05
   2.972888e+05  -7.114899e+05
   4.278926e+03  -4.514870e+05
  -3.398481e+05  -3.576180e+05
  -1.757712e+04  -3.631139e+05
   9.613267e+05  -1.821751e+05
   1.734518e+06   3.120913e+05
   1.414318e+06   9.005017e+05
   5.112833e+04   1.185204e+06
  -1.304025e+06   9.323499e+05
  -1.590742e+06   2.894451e+05
  -7.774096e+05  -2.971462e+05
   1.829032e+05  -4.229071e+05
   4.131930e+05  -8.403313e+04
  -3.641337e+04   2.778284e+05
  -4.581759e+05   1.882388e+05
  -4.006587e+05  -3.241774e+05
  -8.167789e+04  -6.904738e+05
   4.403398e+04  -4.404456e+05
  -1.397446e+05   1.654866e+05
  -3.528951e+05   3.586528e+05
  -2.626608e+05  -2.023166e+05
   2.170110e+05  -9.207840e+05
   8.306257e+05  -9.035914e+05
   1.080381e+06  -3.376687e+04
   5.911899e+05   8.496489e+05
  -4.069896e+05   8.927738e+05
  -1.054393e+06   1.451857e+05
  -6.207477e+05  -5.758878e+05
   6.174199e+05  -5.853988e+05
   1.477207e+06   6.414246e+04
   1.040864e+06   7.722263e+05
  -3.440293e+05   9.761527e+05
  -1.394427e+06   5.590787e+05
  -1.214287e+06  -1.172259e+05
  -1.690791e+05  -4.956600e+05
   5.777755e+05  -2.818366e+05
   2.977631e+05   2.377744e+05
  -5.992916e+05   3.930021e+05
  -1.050797e+06  -2.005577e+05
  -4.570644e+05  -1.132225e+06
   7.167110e+05  -1.469586e+06
   1.431004e+06  -6.677252e+05
   1.103783e+06   7.741325e+05
   1.049731e+05   1.658852e+06
  -7.186508e+05   1.212926e+06
  -8.569642e+05  -1.173827e+05
  -4.300525e+05  -1.087563e+06
   1.333982e+05  -9.301758e+05
   4.842818e+05  -9.997035e+04
   4.831157e+05   3.758982e+05
   2.235459e+05   1.562722e+05
   1.696912e+04  -1.101022e+05
   1.308109e+05   2.227698e+05
   3.884488e+05   8.723731e+05
   2.334528e+05   1.006155e+06
  -5.538507e+05   3.535623e+05
  -1.342956e+06  -4.762988e+05
  -1.227216e+06  -8.054208e+05
  -1.556600e+05  -6.229869e+05
   8.693006e+05  -3.426497e+05
   9.315293e+05  -1.616370e+05
   2.608357e+05   1.399817e+04
  -1.708343e+05   1.918245e+05
   5.141503e+04   2.315220e+05
   3.341356e+05   1.484960e+05
   2.916151e+03   1.286642e+05
  -7.138271e+05   1.509930e+05
  -9.371748e+05  -8.213049e+04
  -2.231237e+05  -6.295410e+05
   9.034760e+05  -9.756695e+05
   1.508605e+06  -5.445946e+05
   1.143655e+06   5.048959e+05
   1.521831e+05   1.303599e+06
  -7.288213e+05   1.183160e+06
  -9.726488e+05   3.788598e+05
  -5.978374e+05  -2.912280e+05
  -6.536419e+04  -3.289704e+05
   1.475115e+05  -1.970540e+03
  -4.415453e+04   7.491225e+04
  -3.000731e+05  -3.180476e+05
  -2.268578e+05  -7.427377e+05
   2.106043e+05  -5.881570e+05
   6.302096e+05   2.009399e+05
   5.741896e+05   9.551601e+05
  -3.967206e+04   9.304026e+05
  -7.472552e+05   1.061759e+05
  -8.774495e+05  -7.785798e+05
  -2.095749e+05  -9.984698e+05
   6.910287e+05  -5.175750e+05
   9.672802e+05   1.432448e+05
   4.043669e+05   5.197663e+05
  -2.848063e+05   5.227073e+05
  -2.892872e+05   2.973822e+05
   3.016660e+05   4.933554e+04
   6.109336e+05   6.313310e+03
   9.191669e+04   2.707461e+05
  -7.784701e+05   5.889575e+05
  -1.098595e+06   4.913877e+05
  -6.050150e+05  -1.341604e+05
   1.335831e+05  -7.524327e+05
   4.712584e+05  -7.187120e+05
   3.160228e+05  -7.095791e+04
  -1.401674e+04   4.687241e+05
  -2.514879e+05   3.416801e+05
  -3.170108e+05  -2.181511e+05
  -1.927609e+05  -5.375014e+05
   8.639852e+04  -3.217076e+05
   3.493445e+05   8.879313e+04
   3.935362e+05   2.281017e+05
   2.143163e+05   5.539007e+04
   1.097604e+04  -8.360754e+04
  -7.122513e+04   6.898868e+04
  -1.011613e+05   3.657649e+05
  -2.071964e+05   4.210516e+05
  -3.434699e+05   5.746447e+04
  -3.062656e+05  -4.477117e+05
   1.067120e+04  -6.058353e+05
   4.199878e+05  -2.317765e+05
   5.429196e+05   3.307417e+05
   1.675989e+05   5.596012e+05
  -4.564292e+05   2.967605e+05
  -7.552990e+05  -1.415450e+05
  -3.955660e+05  -3.667242e+05
   2.855013e+05  -2.970345e+05
   5.716926e+05  -1.128084e+05
   1.740062e+05   6.703925e+03
  -3.926673e+05  -9.351109e+03
  -3.964456e+05  -1.536906e+05
   2.274948e+05  -3.021330e+05
   7.876412e+05  -2.084060e+05
