
 $NMID
 id='ANONYMOUS ', fmtdat='(2E16.6)'
 volume=1.0
 tramp=1.0
 $END
  -3.778834e+07  -2.202802e+05
  -2.309886e+07  -2.201585e+07
   3.905729e+06  -2.499482e+07
   1.784475e+07  -1.123330e+07
   1.155637e+07   3.064800e+06
  -1.445808e+06   6.306483e+06
  -6.763399e+06   2.732046e+05
  -2.840016e+06  -6.337949e+06
   3.465094e+06  -7.271382e+06
   6.558905e+06  -2.191317e+06
   5.072173e+06   4.344413e+06
   6.356596e+05   6.341546e+06
  -2.956199e+06   1.803414e+06
  -2.135722e+06  -4.406212e+06
   2.378779e+06  -5.262114e+06
   5.521268e+06   4.671368e+05
   3.427002e+06   6.977193e+06
  -2.314770e+06   8.288896e+06
  -6.907589e+06   4.087741e+06
  -7.303780e+06  -1.622652e+06
  -4.084732e+06  -5.162208e+06
  -1.234013e+05  -5.410562e+06
   1.560470e+06  -3.529256e+06
   1.707593e+05  -1.960356e+06
  -1.560825e+06  -2.420517e+06
   4.604405e+04  -3.805133e+06
   4.695689e+06  -3.233080e+06
   7.539719e+06   6.267210e+04
   5.011316e+06   3.321901e+06
  -4.350331e+05   3.670038e+06
  -3.367641e+06   1.485845e+06
  -1.867251e+06  -7.278769e+05
   1.233884e+06  -1.356947e+06
   2.684853e+06  -3.012849e+05
   1.906969e+06   1.826767e+06
   4.751306e+04   3.469857e+06
  -1.602480e+06   2.579737e+06
  -1.904341e+06  -6.178216e+05
  -6.142396e+05  -2.580026e+06
   6.502841e+05  -6.805007e+05
  -4.787041e+04   2.462977e+06
  -1.933613e+06   1.990220e+06
  -1.898673e+06  -2.072193e+06
   1.168778e+06  -4.182148e+06
   4.168810e+06  -8.218852e+05
   3.342389e+06   4.463599e+06
  -1.060761e+06   5.647235e+06
  -5.068177e+06   1.676237e+06
  -5.280437e+06  -3.067819e+06
  -1.795532e+06  -4.457252e+06
   2.463687e+06  -2.348685e+06
   4.216453e+06   7.448708e+05
   2.235818e+06   2.411819e+06
  -1.469966e+06   1.709677e+06
  -3.234839e+06  -4.279041e+05
  -1.543316e+06  -1.777810e+06
   1.146268e+06  -9.969130e+05
   1.459057e+06   6.732702e+05
  -5.738414e+05   9.062022e+05
  -1.763199e+06  -6.300216e+05
  -1.391548e+05  -1.943983e+06
   2.632354e+06  -1.429548e+06
   3.594101e+06   4.921012e+05
   1.795653e+06   2.547954e+06
  -1.398190e+06   3.860720e+06
  -4.036375e+06   3.603293e+06
  -4.749823e+06   1.121572e+06
  -3.219234e+06  -2.555661e+06
  -5.866326e+05  -4.691942e+06
   1.144268e+06  -3.726611e+06
   1.056699e+06  -1.348498e+06
   3.332278e+05  -3.402163e+05
   6.222492e+05  -9.929048e+05
   1.848037e+06  -1.175384e+06
   2.463007e+06   3.069455e+05
   1.532794e+06   2.040090e+06
  -2.860471e+05   2.019144e+06
  -1.639449e+06   1.295575e+05
  -1.562912e+06  -1.945682e+06
   8.041444e+04  -2.523790e+06
   2.330749e+06  -1.176417e+06
   3.403570e+06   1.166689e+06
   2.229457e+06   2.896958e+06
  -1.416728e+05   2.963900e+06
  -1.571070e+06   1.825861e+06
  -1.447968e+06   8.670090e+05
  -1.295498e+06   7.122554e+05
  -2.354102e+06   5.862360e+05
  -3.581696e+06  -4.539977e+05
  -2.953464e+06  -2.187100e+06
  -1.993555e+05  -3.459586e+06
   2.695381e+06  -3.327112e+06
   3.601300e+06  -1.716644e+06
   2.218625e+06   5.302516e+05
   4.389934e+04   1.970979e+06
  -1.083927e+06   1.562260e+06
  -4.602636e+05  -1.018734e+05
   9.709712e+05  -1.089319e+06
   1.555179e+06  -3.276116e+05
   6.865741e+05   9.800406e+05
  -4.941279e+05   9.615088e+05
  -4.956662e+05  -2.889586e+05
   6.683419e+05  -7.897619e+05
   1.537684e+06   5.909701e+05
   9.736888e+05   2.570775e+06
  -7.203280e+05   3.052187e+06
  -2.383368e+06   1.495711e+06
  -3.038176e+06  -8.246115e+05
  -2.303327e+06  -2.334413e+06
  -5.389705e+05  -2.360969e+06
   1.093546e+06  -1.289861e+06
   1.386649e+06  -1.730545e+05
   4.206749e+05   3.278278e+04
  -3.205931e+05  -6.298608e+05
   2.880103e+05  -1.088916e+06
   1.515060e+06  -5.033165e+05
   1.686220e+06   6.393271e+05
   3.882959e+05   1.124079e+06
  -9.618448e+05   5.304063e+05
  -8.395899e+05  -3.571593e+05
   6.474288e+05  -5.782982e+05
   1.954972e+06   7.124422e+04
   1.702277e+06   1.105832e+06
  -6.902116e+04   1.805153e+06
  -1.952738e+06   1.552287e+06
  -2.379693e+06   3.098468e+05
  -1.041604e+06  -1.015675e+06
   7.342065e+05  -1.215818e+06
   1.241015e+06  -1.570481e+05
   1.352840e+05   8.756113e+05
  -1.265572e+06   6.313543e+05
  -1.480264e+06  -5.978738e+05
  -3.899120e+05  -1.386422e+06
   8.432303e+05  -9.226198e+05
   1.091421e+06   1.479915e+05
   2.897171e+05   6.242735e+05
  -6.312217e+05   6.999845e+04
  -6.232468e+05  -8.764859e+05
   4.921487e+05  -1.211763e+06
   1.715483e+06  -4.651860e+05
   1.738464e+06   8.818836e+05
   3.557404e+05   1.751073e+06
  -1.173820e+06   1.418501e+06
  -1.453377e+06   2.347598e+05
  -4.717419e+05  -7.135767e+05
   5.307792e+05  -7.150801e+05
   5.857776e+05  -7.443265e+04
  -4.942622e+04   3.878976e+05
  -4.738069e+05   2.771431e+05
  -2.405936e+05  -6.298127e+04
   3.042818e+05  -4.957380e+04
   4.837153e+05   4.682765e+05
  -9.215813e+04   9.942327e+05
  -1.139458e+06   8.032262e+05
  -1.783012e+06  -3.076585e+05
  -1.277202e+06  -1.632839e+06
   1.474807e+05  -2.091982e+06
   1.364765e+06  -1.295314e+06
   1.504424e+06   2.822826e+04
   8.457101e+05   8.006911e+05
   3.247745e+05   6.886113e+05
   3.480375e+05   2.731869e+05
   4.513723e+05   2.341953e+05
   7.240986e+04   5.960327e+05
  -7.044511e+05   7.985030e+05
  -1.246522e+06   3.516956e+05
  -9.773843e+05  -6.097686e+05
   1.397686e+05  -1.323105e+06
   1.459820e+06  -1.001223e+06
   1.962325e+06   3.593597e+05
   1.046927e+06   1.762118e+06
  -7.605708e+05   2.031025e+06
  -2.105888e+06   9.673520e+05
  -2.050971e+06  -4.510608e+05
  -9.414666e+05  -1.118139e+06
   9.769302e+04  -8.947169e+05
   3.785558e+05  -5.296189e+05
   1.681482e+05  -6.477893e+05
   1.304507e+05  -1.057550e+06
   5.405807e+05  -1.060076e+06
   1.069744e+06  -2.722022e+05
   1.146864e+06   9.144091e+05
   4.972180e+05   1.621103e+06
  -5.216985e+05   1.242701e+06
  -1.108264e+06   3.267850e+04
  -7.325301e+05  -1.052800e+06
   2.601261e+05  -1.191754e+06
   9.217747e+05  -4.231175e+05
   6.887282e+05   4.877971e+05
  -2.652937e+04   8.621916e+05
  -3.610647e+05   6.821213e+05
  -2.846509e+04   3.890328e+05
   3.625114e+05   3.012397e+05
   4.784656e+04   3.362767e+05
  -9.501746e+05   2.063039e+05
  -1.730052e+06  -2.388305e+05
  -1.398744e+06  -8.342405e+05
  -3.797635e+04  -1.185915e+06
   1.284852e+06  -9.785495e+05
   1.539761e+06  -3.021194e+05
   7.348277e+05   3.392637e+05
  -1.903213e+05   4.564342e+05
  -4.165003e+05   6.358751e+04
  -7.614303e+03  -3.206668e+05
   3.990266e+05  -2.178364e+05
   4.097750e+05   2.880982e+05
   1.788967e+05   6.355425e+05
   4.229075e+04   4.175924e+05
   1.185114e+05  -1.189380e+05
   2.698977e+05  -3.025687e+05
   2.494882e+05   1.880551e+05
  -1.288250e+05   8.682441e+05
  -7.535836e+05   9.191777e+05
  -1.110775e+06   1.325971e+05
  -6.870432e+05  -7.794077e+05
   3.435488e+05  -9.376503e+05
   1.045444e+06  -2.576361e+05
   6.323358e+05   4.974591e+05
  -5.792082e+05   5.760663e+05
  -1.384693e+06  -2.842717e+04
  -9.413980e+05  -7.067265e+05
   3.486943e+05  -8.932240e+05
   1.287318e+06  -5.046248e+05
   1.103791e+06   1.048673e+05
   1.495749e+05   4.492497e+05
  -5.467302e+05   2.640614e+05
  -3.183068e+05  -2.338131e+05
   5.199443e+05  -4.379664e+05
   1.018815e+06   8.684416e+04
   5.558038e+05   1.029007e+06
  -5.332191e+05   1.463106e+06
  -1.292192e+06   7.570041e+05
  -1.094131e+06  -6.522761e+05
  -1.962887e+05  -1.555099e+06
   6.187910e+05  -1.153276e+06
   8.078524e+05   1.099189e+05
   4.195548e+05   1.017068e+06
  -1.364756e+05   8.584846e+05
  -4.723011e+05   9.581239e+04
  -4.360854e+05  -3.229360e+05
  -1.737627e+05  -1.229175e+05
  -2.852374e+04   9.103207e+04
  -2.026896e+05  -2.355080e+05
  -4.388527e+05  -8.210448e+05
  -2.169116e+05  -9.328287e+05
   5.716117e+05  -3.546178e+05
   1.288853e+06   3.802847e+05
   1.152612e+06   7.008303e+05
   1.739973e+05   5.941010e+05
  -7.597775e+05   3.755879e+05
  -8.578601e+05   1.844273e+05
  -2.878979e+05  -2.650312e+04
   1.335368e+05  -1.956006e+05
  -5.897800e+03  -1.901992e+05
  -2.664259e+05  -9.206199e+04
  -3.310829e+04  -1.181203e+05
   6.059370e+05  -2.052987e+05
   9.024509e+05   5.561353e+03
   3.353920e+05   5.928195e+05
  -7.444857e+05   1.014361e+06
  -1.440239e+06   6.513586e+05
  -1.188907e+06  -3.762027e+05
  -2.456803e+05  -1.219083e+06
   6.369685e+05  -1.188667e+06
   9.020990e+05  -4.589160e+05
   5.768346e+05   2.083729e+05
   1.074726e+05   3.093189e+05
  -8.871825e+04   4.385441e+04
   5.746092e+04  -3.501967e+04
   2.779475e+05   3.028694e+05
   2.370890e+05   6.938976e+05
  -1.524631e+05   5.844090e+05
  -5.992838e+05  -1.138037e+05
  -6.381154e+05  -8.336257e+05
  -8.329516e+04  -8.914099e+05
   6.678995e+05  -2.009085e+05
   8.997790e+05   6.338628e+05
   2.991010e+05   9.380193e+05
  -6.139034e+05   5.769234e+05
  -9.561167e+05  -5.793990e+04
  -4.507363e+05  -5.058174e+05
   2.399163e+05  -5.661635e+05
   3.018630e+05  -3.148678e+05
  -2.389535e+05  -1.013445e+04
  -5.678506e+05   4.047085e+04
  -1.223863e+05  -2.607542e+05
   7.035981e+05  -6.020693e+05
   1.058441e+06  -4.999318e+05
   6.355054e+05   1.273408e+05
  -7.426354e+04   7.439822e+05
  -4.460485e+05   7.356714e+05
  -3.449342e+05   1.260067e+05
  -4.260900e+04  -4.248079e+05
   2.066139e+05  -3.681440e+05
   3.109007e+05   1.422055e+05
   2.250775e+05   4.967601e+05
  -4.756489e+04   3.524331e+05
  -3.391990e+05  -4.192543e+04
  -4.061186e+05  -2.226124e+05
  -2.089567e+05  -6.716800e+04
   1.929049e+04   1.149628e+05
   6.693421e+04   3.423292e+03
   1.055631e+04  -3.226949e+05
   7.804221e+04  -4.602817e+05
   2.907713e+05  -1.589457e+05
   3.788787e+05   3.490093e+05
   1.102722e+05   5.663279e+05
  -3.599662e+05   2.698281e+05
  -5.675544e+05  -2.469341e+05
  -2.192351e+05  -5.017193e+05
   4.279703e+05  -3.198751e+05
   7.541877e+05   6.277803e+04
   4.141949e+05   3.208933e+05
  -2.504206e+05   3.358816e+05
  -5.468546e+05   1.879735e+05
  -2.015311e+05   1.407928e+04
   3.221713e+05  -5.202415e+04
   3.652269e+05   6.930355e+04
  -1.563370e+05   2.700356e+05
  -6.673080e+05   2.497119e+05
