
 $NMID
 id='ANONYMOUS ', fmtdat='(2E16.6)'
 volume=1.0
 tramp=1.0
 $END
   3.352246e+07   9.475992e+05
   2.081164e+07   1.740775e+07
  -1.912342e+06   2.109077e+07
  -1.473507e+07   1.210462e+07
  -1.096111e+07  -4.652087e+04
   3.996300e+04  -5.592788e+06
   6.209395e+06  -2.002464e+06
   4.065034e+06   5.226081e+06
  -1.929877e+06   8.044601e+06
  -5.925759e+06   3.302581e+06
  -5.093196e+06  -4.181097e+06
  -6.811323e+05  -6.566504e+06
   3.093703e+06  -1.515363e+06
   2.495866e+06   5.170655e+06
  -1.872969e+06   6.085025e+06
  -5.269881e+06   2.631011e+05
  -3.728035e+06  -6.417667e+06
   1.737080e+06  -7.951379e+06
   6.374833e+06  -3.783744e+06
   6.565510e+06   1.916961e+06
   2.978875e+06   4.870993e+06
  -5.398570e+05   4.157884e+06
  -7.843169e+05   2.195872e+06
   1.646543e+06   1.936304e+06
   2.787393e+06   3.759215e+06
  -3.976652e+05   5.072455e+06
  -5.985270e+06   3.342467e+06
  -8.473949e+06  -7.541290e+05
  -4.901312e+06  -3.907948e+06
   1.430211e+06  -3.725042e+06
   4.471417e+06  -9.095610e+05
   2.024350e+06   1.894892e+06
  -2.458108e+06   2.446218e+06
  -4.318843e+06   2.505509e+05
  -2.446611e+06  -3.062051e+06
   6.437943e+05  -4.488012e+06
   2.101447e+06  -2.283105e+06
   1.264845e+06   1.493899e+06
  -3.718110e+05   2.553792e+06
  -8.348158e+05  -4.197809e+05
   4.929142e+05  -3.559199e+06
   2.186365e+06  -2.502468e+06
   2.082828e+06   1.721841e+06
  -3.147716e+05   3.778997e+06
  -2.876087e+06   8.876840e+05
  -2.747442e+06  -3.698554e+06
   6.432698e+05  -4.863705e+06
   4.656936e+06  -1.523994e+06
   5.682202e+06   2.884536e+06
   2.495772e+06   4.623531e+06
  -2.394515e+06   2.941691e+06
  -4.854619e+06  -1.993413e+05
  -2.974109e+06  -2.236103e+06
   1.049412e+06  -1.872713e+06
   3.172193e+06   8.420628e+04
   1.733442e+06   1.490319e+06
  -1.009579e+06   9.927320e+05
  -1.765828e+06  -5.657517e+05
  -1.997743e+04  -1.252736e+06
   1.685676e+06  -3.348705e+05
   9.911798e+05   1.081797e+06
  -1.559464e+06   1.461111e+06
  -3.219049e+06   2.204604e+05
  -1.958594e+06  -2.065712e+06
   1.573613e+06  -3.969647e+06
   4.720388e+06  -3.784299e+06
   5.214880e+06  -8.959379e+05
   3.093247e+06   3.017830e+06
   4.248880e+05   5.079698e+06
  -8.434891e+05   4.154615e+06
  -7.017654e+05   2.057461e+06
  -6.362392e+05   1.165058e+06
  -1.612668e+06   1.471686e+06
  -2.938173e+06   1.017793e+06
  -3.155857e+06  -1.050008e+06
  -1.653098e+06  -3.047028e+06
   7.495429e+05  -2.753424e+06
   2.436442e+06  -1.113212e+05
   2.108086e+06   2.625212e+06
  -2.068266e+05   3.146230e+06
  -2.852709e+06   1.145163e+06
  -3.680969e+06  -1.657340e+06
  -2.070139e+06  -3.200739e+06
   3.447226e+05  -2.832883e+06
   1.478904e+06  -1.601546e+06
   1.196744e+06  -9.207280e+05
   1.242706e+06  -1.041988e+06
   2.695224e+06  -9.545447e+05
   4.248247e+06   3.018951e+05
   3.617311e+06   2.465714e+06
   3.674332e+05   4.182347e+06
  -3.265027e+06   4.107821e+06
  -4.494773e+06   2.003272e+06
  -2.677820e+06  -8.790041e+05
   1.953003e+05  -2.521685e+06
   1.527332e+06  -1.814131e+06
   5.386144e+05   2.209566e+05
  -1.252243e+06   1.304612e+06
  -1.814869e+06   3.836163e+05
  -7.083476e+05  -1.143292e+06
   6.743820e+05  -1.196169e+06
   7.789072e+05   2.920494e+05
  -4.901652e+05   1.220824e+06
  -1.808918e+06  -4.935415e+04
  -1.754811e+06  -2.603559e+06
   1.479492e+04  -3.922194e+06
   2.508264e+06  -2.571650e+06
   4.018244e+06   4.440497e+05
   3.334778e+06   2.820823e+06
   8.841379e+05   3.079599e+06
  -1.386558e+06   1.648477e+06
  -1.759631e+06   1.906270e+05
  -5.166504e+05  -2.922212e+04
   4.141541e+05   7.558254e+05
  -2.653653e+05   1.257320e+06
  -1.702481e+06   6.281923e+05
  -1.995391e+06  -6.192308e+05
  -5.555568e+05  -1.255498e+06
   1.124032e+06  -7.076323e+05
   1.140307e+06   3.908938e+05
  -6.828890e+05   8.968518e+05
  -2.526082e+06   2.047187e+05
  -2.392007e+06  -1.271201e+06
  -1.272551e+05  -2.383983e+06
   2.362215e+06  -2.109378e+06
   2.933617e+06  -4.968318e+05
   1.281567e+06   1.150743e+06
  -8.290384e+05   1.396769e+06
  -1.392828e+06   1.847942e+05
  -1.130616e+05  -1.008127e+06
   1.509327e+06  -7.782839e+05
   1.832136e+06   6.295538e+05
   6.262072e+05   1.658539e+06
  -8.992128e+05   1.255258e+06
  -1.357210e+06  -8.328573e+03
  -4.671766e+05  -6.979350e+05
   7.044781e+05  -1.153693e+05
   7.562500e+05   1.044190e+06
  -6.046441e+05   1.482540e+06
  -2.106928e+06   5.761315e+05
  -2.134299e+06  -1.057422e+06
  -4.798334e+05  -2.115536e+06
   1.353379e+06  -1.762360e+06
   1.746944e+06  -3.720706e+05
   6.397339e+05   8.282936e+05
  -6.014158e+05   9.164746e+05
  -7.804179e+05   1.062693e+05
  -1.564811e+04  -5.896089e+05
   6.571257e+05  -4.853998e+05
   4.923664e+05   8.361297e+04
  -2.573870e+05   2.268859e+05
  -6.537507e+05  -4.191601e+05
  -1.228199e+04  -1.191001e+06
   1.335797e+06  -1.045016e+06
   2.195740e+06   3.056982e+05
   1.608689e+06   1.960576e+06
  -1.195101e+05   2.601266e+06
  -1.645550e+06   1.721980e+06
  -1.932057e+06   8.870636e+04
  -1.206985e+06  -1.024718e+06
  -4.853469e+05  -1.031806e+06
  -3.467234e+05  -4.607629e+05
  -4.332254e+05  -2.418491e+05
  -8.247841e+04  -6.511733e+05
   7.971693e+05  -1.025666e+06
   1.542786e+06  -5.464991e+05
   1.322710e+06   7.323018e+05
  -5.596195e+04   1.735651e+06
  -1.771723e+06   1.359187e+06
  -2.471255e+06  -3.559722e+05
  -1.403363e+06  -2.111945e+06
   7.800270e+05  -2.506585e+06
   2.483299e+06  -1.316425e+06
   2.576723e+06   3.825817e+05
   1.339865e+06   1.327544e+06
   2.793864e+02   1.222238e+06
  -5.267605e+05   7.900773e+05
  -3.523333e+05   8.062096e+05
  -2.213716e+05   1.214259e+06
  -6.158798e+05   1.241862e+06
  -1.261050e+06   3.347485e+05
  -1.415135e+06  -1.108222e+06
  -6.444272e+05  -1.992389e+06
   6.241366e+05  -1.547544e+06
   1.373693e+06  -9.271748e+04
   9.561727e+05   1.225980e+06
  -2.092731e+05   1.459559e+06
  -1.023261e+06   6.309573e+05
  -8.366460e+05  -4.396449e+05
  -8.240712e+04  -9.728351e+05
   2.990491e+05  -8.550327e+05
  -3.212223e+04  -5.250475e+05
  -4.355217e+05  -3.907326e+05
  -5.528035e+04  -4.264283e+05
   1.119854e+06  -2.940906e+05
   2.076067e+06   2.251279e+05
   1.742255e+06   9.459437e+05
   1.501150e+05   1.394455e+06
  -1.468570e+06   1.206132e+06
  -1.850006e+06   4.681177e+05
  -9.325910e+05  -2.915870e+05
   1.855897e+05  -5.153952e+05
   4.794180e+05  -1.298625e+05
  -1.888029e+04   3.360986e+05
  -5.202086e+05   2.643660e+05
  -5.003675e+05  -3.471039e+05
  -1.632106e+05  -8.086098e+05
   8.554241e+03  -5.263847e+05
  -1.459165e+05   2.045456e+05
  -3.780991e+05   4.533528e+05
  -3.289348e+05  -2.152382e+05
   1.700462e+05  -1.106510e+06
   9.042853e+05  -1.140404e+06
   1.283776e+06  -1.322033e+05
   7.783477e+05   9.569750e+05
  -4.078495e+05   1.094129e+06
  -1.239237e+06   2.648253e+05
  -7.834588e+05  -6.239808e+05
   6.777555e+05  -7.401408e+05
   1.740633e+06  -4.977124e+04
   1.283887e+06   8.159954e+05
  -3.231664e+05   1.170327e+06
  -1.587382e+06   7.711781e+05
  -1.432789e+06  -3.475235e+04
  -2.394178e+05  -5.660879e+05
   6.563045e+05  -3.773661e+05
   3.719262e+05   2.595744e+05
  -6.732708e+05   5.202294e+05
  -1.260822e+06  -1.429232e+05
  -6.431636e+05  -1.297847e+06
   7.139710e+05  -1.800788e+06
   1.628693e+06  -9.162291e+05
   1.368952e+06   8.148823e+05
   2.684972e+05   1.944475e+06
  -7.397848e+05   1.487912e+06
  -1.016337e+06  -6.759853e+04
  -5.960600e+05  -1.242875e+06
   8.108341e+04  -1.101934e+06
   5.632796e+05  -1.563679e+05
   5.988915e+05   3.984970e+05
   2.734154e+05   1.613947e+05
   1.137940e+04  -1.282139e+05
   1.777097e+05   2.589164e+05
   5.337938e+05   9.978537e+05
   3.561060e+05   1.160969e+06
  -6.279507e+05   4.588702e+05
  -1.622313e+06  -4.450621e+05
  -1.510274e+06  -8.399548e+05
  -2.362797e+05  -7.213298e+05
   9.903167e+05  -4.822801e+05
   1.081054e+06  -2.702997e+05
   3.107056e+05  -1.143183e+03
  -1.833725e+05   2.417767e+05
   7.738177e+04   2.617890e+05
   4.038393e+05   1.397494e+05
   1.746414e+04   1.533927e+05
  -8.241519e+05   2.462890e+05
  -1.114409e+06  -1.471255e+04
  -3.253441e+05  -7.294095e+05
   9.777181e+05  -1.235201e+06
   1.738022e+06  -7.743993e+05
   1.401267e+06   4.970915e+05
   2.956333e+05   1.524205e+06
  -7.593355e+05   1.459890e+06
  -1.117167e+06   5.355850e+05
  -7.322423e+05  -2.880994e+05
  -1.082489e+05  -3.846786e+05
   1.712406e+05  -2.182872e+04
  -4.502180e+04   8.734705e+04
  -3.780099e+05  -3.493873e+05
  -3.293560e+05  -8.555630e+05
   1.978246e+05  -7.139972e+05
   7.623974e+05   1.784799e+05
   7.653337e+05   1.075556e+06
   3.928220e+04   1.104964e+06
  -8.718722e+05   1.971373e+05
  -1.107002e+06  -8.380329e+05
  -3.374674e+05  -1.161640e+06
   7.713715e+05  -6.752731e+05
   1.157227e+06   8.467983e+04
   5.234436e+05   5.838459e+05
  -2.939853e+05   6.466966e+05
  -3.212967e+05   3.745814e+05
   3.557398e+05   2.667252e+04
   7.203180e+05  -4.770566e+04
   1.333229e+05   3.131579e+05
  -8.664592e+05   7.614546e+05
  -1.254910e+06   6.685474e+05
  -7.276280e+05  -1.124780e+05
   9.296830e+04  -9.010258e+05
   4.987456e+05  -8.879880e+05
   3.735644e+05  -1.120657e+05
   2.828751e+04   5.533741e+05
  -2.673041e+05   4.282941e+05
  -3.952023e+05  -2.248407e+05
  -2.750620e+05  -6.173530e+05
   7.503108e+04  -3.917741e+05
   4.210560e+05   7.254684e+04
   4.835956e+05   2.388952e+05
   2.558843e+05   4.938511e+04
   5.499131e+03  -1.045908e+05
  -7.374835e+04   8.019623e+04
  -7.955876e+04   4.409829e+05
  -2.017201e+05   5.247211e+05
  -4.019310e+05   1.075456e+05
  -4.093136e+05  -4.993987e+05
  -4.878805e+04  -7.193950e+05
   4.740725e+05  -3.137339e+05
   6.741858e+05   3.413371e+05
   2.501451e+05   6.450464e+05
  -5.142366e+05   3.899382e+05
  -9.072895e+05  -1.005496e+05
  -4.999859e+05  -3.987968e+05
   3.129526e+05  -3.785608e+05
   6.680423e+05  -1.861703e+05
   2.094887e+05  -5.964962e+03
  -4.612512e+05   2.944926e+04
  -4.817964e+05  -1.406944e+05
   2.363597e+05  -3.754401e+05
   9.042380e+05  -3.184502e+05
