
 $NMID
 id='ANONYMOUS ', fmtdat='(2E16.6)'
 volume=1.0
 tramp=1.0
 $END
  -4.480346e+07   4.193882e+06
  -3.056897e+07  -2.300937e+07
   1.128562e+06  -3.026931e+07
   2.004511e+07  -1.613853e+07
   1.474799e+07   1.881102e+06
  -7.106080e+05   7.959914e+06
  -8.391293e+06   1.498436e+06
  -4.558932e+06  -7.397352e+06
   3.278633e+06  -9.624026e+06
   7.814251e+06  -3.669455e+06
   6.647337e+06   4.747195e+06
   1.380947e+06   7.717502e+06
  -3.414887e+06   2.429434e+06
  -3.015041e+06  -5.340250e+06
   2.374997e+06  -6.878114e+06
   6.811656e+06  -1.806326e+05
   4.998937e+06   8.048183e+06
  -1.823186e+06   1.028849e+07
  -7.814419e+06   5.643412e+06
  -8.807565e+06  -1.191159e+06
  -5.285681e+06  -5.606777e+06
  -7.695161e+05  -6.186781e+06
   1.169445e+06  -4.310701e+06
  -3.219309e+05  -2.696930e+06
  -2.124241e+06  -3.228946e+06
  -4.992858e+04  -4.785364e+06
   5.612938e+06  -4.198860e+06
   9.208232e+06  -4.121430e+05
   6.316232e+06   3.613776e+06
  -3.347658e+05   4.365660e+06
  -4.050690e+06   1.880671e+06
  -2.184850e+06  -9.313928e+05
   1.773781e+06  -1.775197e+06
   3.528404e+06  -3.420070e+05
   2.372653e+06   2.374404e+06
   7.060015e+04   4.294631e+06
  -1.752667e+06   3.137780e+06
  -2.109426e+06  -6.356039e+05
  -8.251660e+05  -2.901614e+06
   5.626207e+05  -6.475781e+05
  -8.224046e+04   3.120855e+06
  -2.277484e+06   2.652904e+06
  -2.614753e+06  -2.290549e+06
   7.411212e+05  -5.259071e+06
   4.719104e+06  -1.664526e+06
   4.527608e+06   4.797123e+06
  -4.749951e+05   6.852496e+06
  -5.845329e+06   2.589890e+06
  -6.810031e+06  -3.197116e+06
  -2.734027e+06  -5.363119e+06
   2.836990e+06  -3.232046e+06
   5.408443e+06   4.742634e+05
   3.132948e+06   2.810179e+06
  -1.559757e+06   2.358816e+06
  -4.029303e+06  -1.011546e+05
  -2.155493e+06  -1.994646e+06
   1.259185e+06  -1.369495e+06
   1.927089e+06   7.032436e+05
  -5.425666e+05   1.346488e+06
  -2.366181e+06  -3.746666e+05
  -7.017371e+05  -2.329795e+06
   2.830375e+06  -2.198198e+06
   4.452975e+06   3.195774e+04
   2.543458e+06   2.839105e+06
  -1.365752e+06   4.791721e+06
  -4.692316e+06   4.665121e+06
  -5.683693e+06   1.700452e+06
  -4.043266e+06  -2.840959e+06
  -1.078153e+06  -5.674794e+06
   1.038414e+06  -4.769606e+06
   1.217653e+06  -1.932621e+06
   5.830765e+05  -5.323404e+05
   9.197307e+05  -1.168300e+06
   2.284146e+06  -1.390789e+06
   3.011586e+06   3.748361e+05
   1.920077e+06   2.526866e+06
  -3.507026e+05   2.545982e+06
  -2.128812e+06   1.941121e+05
  -2.089973e+06  -2.421640e+06
  -3.145634e+04  -3.170530e+06
   2.801592e+06  -1.570112e+06
   4.209172e+06   1.213689e+06
   2.902990e+06   3.319210e+06
   1.026072e+05   3.541896e+06
  -1.666798e+06   2.332417e+06
  -1.627501e+06   1.238030e+06
  -1.540083e+06   1.059260e+06
  -2.911614e+06   9.580832e+05
  -4.525063e+06  -2.737390e+05
  -3.868909e+06  -2.516440e+06
  -5.003820e+05  -4.331372e+06
   3.165108e+06  -4.345978e+06
   4.407097e+06  -2.341285e+06
   2.774428e+06   5.623037e+05
   1.161328e+05   2.448995e+06
  -1.288725e+06   1.981673e+06
  -5.739624e+05  -1.088130e+05
   1.151132e+06  -1.418152e+06
   1.915883e+06  -5.313870e+05
   9.164371e+05   1.154560e+06
  -5.752789e+05   1.244554e+06
  -6.940476e+05  -3.375880e+05
   7.561877e+05  -1.144113e+06
   2.061017e+06   4.866792e+05
   1.585547e+06   3.147064e+06
  -5.727429e+05   4.059627e+06
  -2.940121e+06   2.239088e+06
  -4.014066e+06  -7.915605e+05
  -3.138519e+06  -2.869803e+06
  -8.327974e+05  -3.001222e+06
   1.314558e+06  -1.687069e+06
   1.740514e+06  -2.859863e+05
   5.336902e+05   1.573664e+04
  -4.525042e+05  -7.675288e+05
   2.552070e+05  -1.385121e+06
   1.838314e+06  -7.626708e+05
   2.177693e+06   6.445413e+05
   6.078095e+05   1.378048e+06
  -1.164610e+06   7.594290e+05
  -1.110286e+06  -3.914414e+05
   7.727396e+05  -8.166798e+05
   2.519960e+06  -7.226146e+04
   2.275158e+06   1.309199e+06
   4.212475e+04   2.334233e+06
  -2.377986e+06   2.114738e+06
  -2.990446e+06   5.577423e+05
  -1.391747e+06  -1.194031e+06
   8.136285e+05  -1.570406e+06
   1.525232e+06  -2.992032e+05
   2.324886e+05   1.069471e+06
  -1.537487e+06   8.849668e+05
  -1.918934e+06  -6.358916e+05
  -6.182276e+05  -1.734558e+06
   9.926113e+05  -1.265987e+06
   1.417612e+06   7.849052e+04
   4.480896e+05   7.700805e+05
  -7.680160e+05   1.537007e+05
  -8.382332e+05  -1.039748e+06
   5.336949e+05  -1.540183e+06
   2.114306e+06  -6.896401e+05
   2.235438e+06   9.899327e+05
   5.703164e+05   2.173470e+06
  -1.370821e+06   1.873316e+06
  -1.821542e+06   4.089738e+05
  -6.650956e+05  -8.704298e+05
   6.137707e+05  -9.543543e+05
   7.494897e+05  -1.304548e+05
  -3.135990e+04   5.215010e+05
  -6.074910e+05   3.960358e+05
  -3.422603e+05  -9.116526e+04
   3.770279e+05  -1.275370e+05
   6.652841e+05   5.356273e+05
  -2.771562e+04   1.260658e+06
  -1.373369e+06   1.093520e+06
  -2.262266e+06  -2.632822e+05
  -1.713482e+06  -1.964393e+06
   5.144463e+04  -2.649090e+06
   1.650029e+06  -1.741496e+06
   1.928972e+06  -6.608994e+04
   1.138347e+06   9.956901e+05
   4.343401e+05   9.038289e+05
   4.109157e+05   3.376431e+05
   5.557519e+05   2.363552e+05
   1.318496e+05   7.210447e+05
  -8.307380e+05   1.056598e+06
  -1.557723e+06   5.298901e+05
  -1.281476e+06  -7.246046e+05
   9.362660e+04  -1.704050e+06
   1.783041e+06  -1.367329e+06
   2.503557e+06   3.247268e+05
   1.452661e+06   2.149775e+06
  -7.951436e+05   2.617549e+06
  -2.577556e+06   1.386232e+06
  -2.640671e+06  -4.117945e+05
  -1.298355e+06  -1.365394e+06
   6.119191e+04  -1.175518e+06
   4.799848e+05  -7.074649e+05
   2.071597e+05  -8.002688e+05
   1.006243e+05  -1.305016e+06
   5.936236e+05  -1.356336e+06
   1.312572e+06  -4.145819e+05
   1.496521e+06   1.074456e+06
   7.290631e+05   2.007480e+06
  -5.777765e+05   1.597494e+06
  -1.398344e+06   1.198751e+05
  -1.005912e+06  -1.267496e+06
   2.274425e+05  -1.526167e+06
   1.121539e+06  -6.300801e+05
   9.150363e+05   5.302067e+05
   5.960998e+04   1.079408e+06
  -3.786318e+05   9.035167e+05
  -3.535137e+03   5.127708e+05
   4.640733e+05   3.613487e+05
   7.395031e+04   4.208277e+05
  -1.173041e+06   3.292393e+05
  -2.177860e+06  -1.745961e+05
  -1.819357e+06  -9.463499e+05
  -1.551666e+05  -1.483274e+06
   1.524127e+06  -1.320860e+06
   1.917972e+06  -5.017029e+05
   9.695998e+05   3.545689e+05
  -1.928865e+05   5.791590e+05
  -5.182665e+05   1.211633e+05
  -2.729582e+04  -3.831152e+05
   4.978726e+05  -2.893262e+05
   5.307594e+05   3.375506e+05
   2.405233e+05   7.856779e+05
   5.956851e+04   5.154916e+05
   1.515973e+05  -1.687287e+05
   3.429284e+05  -4.060388e+05
   3.264602e+05   2.198048e+05
  -1.230672e+05   1.099443e+06
  -8.846511e+05   1.197801e+06
  -1.354420e+06   2.347573e+05
  -8.876559e+05  -9.249366e+05
   3.630341e+05  -1.180955e+06
   1.275173e+06  -3.761464e+05
   8.205353e+05   5.921851e+05
  -6.902979e+05   7.689920e+05
  -1.761379e+06   5.835194e+04
  -1.260473e+06  -8.392369e+05
   3.717191e+05  -1.174423e+06
   1.609892e+06  -7.436545e+05
   1.423258e+06   5.563329e+04
   2.256504e+05   5.666914e+05
  -6.736271e+05   3.798670e+05
  -4.125011e+05  -2.627013e+05
   6.306150e+05  -5.687746e+05
   1.277670e+06   5.937838e+04
   7.409218e+05   1.259266e+06
  -5.995938e+05   1.856627e+06
  -1.585474e+06   1.013418e+06
  -1.413889e+06  -7.629219e+05
  -3.368473e+05  -1.951882e+06
   7.154131e+05  -1.502774e+06
   1.035183e+06   7.740728e+04
   6.064778e+05   1.260474e+06
  -1.048829e+05   1.108688e+06
  -5.863048e+05   1.602987e+05
  -5.810747e+05  -3.887424e+05
  -2.394931e+05  -1.550646e+05
  -2.695999e+04   1.244620e+05
  -2.535983e+05  -2.636822e+05
  -5.985033e+05  -9.997984e+05
  -3.481447e+05  -1.175088e+06
   6.797827e+05  -4.957635e+05
   1.651650e+06   4.025707e+05
   1.513282e+06   8.213721e+05
   2.588203e+05   7.356255e+05
  -9.495239e+05   5.106592e+05
  -1.078449e+06   2.876753e+05
  -3.559171e+05  -1.320853e+03
   1.617654e+05  -2.510796e+05
  -3.178371e+04  -2.570203e+05
  -3.543725e+05  -1.182735e+05
  -4.066543e+04  -1.432449e+05
   7.670549e+05  -2.777016e+05
   1.130963e+06  -4.267042e+04
   4.313134e+05   7.100669e+05
  -8.895302e+05   1.301833e+06
  -1.755271e+06   8.974806e+05
  -1.490351e+06  -4.035270e+05
  -3.718413e+05  -1.519773e+06
   7.234971e+05  -1.528880e+06
   1.100976e+06  -6.175092e+05
   7.351467e+05   2.393932e+05
   1.455158e+05   3.778005e+05
  -1.197314e+05   4.158428e+04
   6.996470e+04  -6.277643e+04
   3.787892e+05   3.626246e+05
   3.475182e+05   8.617715e+05
  -1.582747e+05   7.386627e+05
  -7.582458e+05  -1.212503e+05
  -8.356714e+05  -1.018107e+06
  -1.380478e+05  -1.105639e+06
   8.317878e+05  -2.695095e+05
   1.155803e+06   7.588743e+05
   4.192280e+05   1.156386e+06
  -7.356932e+05   7.464330e+05
  -1.194310e+06  -1.858690e+04
  -5.912648e+05  -5.924384e+05
   2.597164e+05  -7.095090e+05
   3.438421e+05  -4.164746e+05
  -3.150441e+05  -1.320549e+04
  -7.147832e+05   7.881282e+04
  -1.645450e+05  -3.152635e+05
   8.511431e+05  -8.007302e+05
   1.294055e+06  -7.093421e+05
   7.965705e+05   1.031026e+05
  -4.866277e+04   9.333133e+05
  -5.011857e+05   9.510842e+05
  -4.049385e+05   1.737005e+05
  -6.620557e+04  -5.348311e+05
   2.378872e+05  -4.644259e+05
   3.935472e+05   1.761896e+05
   3.090273e+05   6.113219e+05
  -3.749714e+04   4.307494e+05
  -4.255832e+05  -3.924856e+04
  -5.232555e+05  -2.439288e+05
  -2.707281e+05  -6.332907e+04
   2.873161e+04   1.283972e+05
   9.490789e+04  -2.360332e+04
   1.937128e+04  -4.067738e+05
   9.354712e+04  -5.541999e+05
   3.539930e+05  -1.854539e+05
   4.690011e+05   4.261331e+05
   1.436274e+05   6.964754e+05
  -4.415117e+05   3.489667e+05
  -7.131552e+05  -2.836281e+05
  -2.937640e+05  -6.207159e+05
   5.142942e+05  -4.262061e+05
   9.398281e+05   3.859003e+04
   5.345465e+05   3.781235e+05
  -2.905983e+05   4.256262e+05
  -6.669310e+05   2.558806e+05
  -2.402162e+05   3.184639e+04
   4.131003e+05  -6.494709e+04
   4.625322e+05   8.567634e+04
  -1.987768e+05   3.526751e+05
  -8.466338e+05   3.417948e+05
