
 $NMID
 id='ANONYMOUS ', fmtdat='(2E16.6)'
 volume=1.0
 tramp=1.0
 $END
   3.991426e+07  -5.330787e+05
   2.560480e+07   2.185658e+07
  -2.610984e+06   2.643907e+07
  -1.853772e+07   1.349583e+07
  -1.311891e+07  -1.964160e+06
   8.322311e+05  -6.994288e+06
   7.574512e+06  -1.213411e+06
   3.932783e+06   6.746945e+06
  -3.252727e+06   8.698984e+06
  -7.185745e+06   3.071854e+06
  -5.716120e+06  -4.720239e+06
  -7.420571e+05  -7.154509e+06
   3.293794e+06  -1.903161e+06
   2.455732e+06   5.239527e+06
  -2.504771e+06   6.283123e+06
  -6.136288e+06  -1.237960e+05
  -4.062359e+06  -7.516847e+06
   2.220755e+06  -9.141873e+06
   7.357813e+06  -4.519165e+06
   7.740036e+06   1.758809e+06
   4.144032e+06   5.384631e+06
   1.107960e+05   5.361837e+06
  -1.162572e+06   3.505800e+06
   5.610889e+05   2.471737e+06
   2.010251e+06   3.417742e+06
  -3.758962e+05   4.664742e+06
  -5.708178e+06   3.449067e+06
  -8.618762e+06  -4.338859e+05
  -5.456217e+06  -3.857019e+06
   8.487600e+05  -3.946441e+06
   4.074463e+06  -1.281101e+06
   1.953446e+06   1.285085e+06
  -2.038464e+06   1.757819e+06
  -3.635111e+06   5.380900e+04
  -2.129892e+06  -2.627332e+06
   3.980796e+05  -4.160677e+06
   1.929636e+06  -2.660031e+06
   1.713915e+06   9.350652e+05
   3.057939e+05   2.682041e+06
  -6.004608e+05   2.748202e+05
   4.019746e+05  -3.101068e+06
   2.316039e+06  -2.380631e+06
   2.263406e+06   2.170781e+06
  -8.235000e+05   4.622041e+06
  -4.077929e+06   1.201240e+06
  -3.629276e+06  -4.478345e+06
   8.042072e+05  -5.993971e+06
   5.385838e+06  -1.908164e+06
   6.062180e+06   3.330569e+06
   2.286267e+06   5.101604e+06
  -2.780366e+06   2.886432e+06
  -5.036486e+06  -6.673756e+05
  -2.838367e+06  -2.721082e+06
   1.467933e+06  -2.072568e+06
   3.632568e+06   2.818302e+05
   1.868863e+06   1.882906e+06
  -1.200097e+06   1.153187e+06
  -1.777090e+06  -7.422168e+05
   4.350756e+05  -1.268759e+06
   2.101150e+06   2.616818e+05
   6.883973e+05   1.945450e+06
  -2.454775e+06   1.807130e+06
  -3.949621e+06  -1.580462e+05
  -2.155708e+06  -2.634529e+06
   1.615926e+06  -4.288327e+06
   4.756987e+06  -3.961616e+06
   5.397890e+06  -1.096733e+06
   3.446403e+06   2.974975e+06
   5.493445e+05   5.325489e+06
  -1.194683e+06   4.368652e+06
  -1.149922e+06   1.852192e+06
  -6.443256e+05   6.529021e+05
  -1.166756e+06   1.116895e+06
  -2.443817e+06   1.062536e+06
  -2.880183e+06  -7.361121e+05
  -1.597157e+06  -2.677071e+06
   6.091677e+05  -2.468001e+06
   2.142348e+06  -2.387962e+04
   1.864572e+06   2.511102e+06
  -2.212797e+05   3.034685e+06
  -2.781252e+06   1.224437e+06
  -3.808149e+06  -1.514396e+06
  -2.369521e+06  -3.290650e+06
   2.005623e+05  -3.192788e+06
   1.652560e+06  -1.949801e+06
   1.502929e+06  -1.027364e+06
   1.460490e+06  -9.382269e+05
   2.797084e+06  -7.594887e+05
   4.258515e+06   5.254296e+05
   3.506074e+06   2.623808e+06
   1.958337e+05   4.148874e+06
  -3.318842e+06   3.922456e+06
  -4.387380e+06   1.893113e+06
  -2.594017e+06  -7.884103e+05
   1.236404e+05  -2.368073e+06
   1.415657e+06  -1.773186e+06
   5.310544e+05   1.666234e+05
  -1.212791e+06   1.260063e+06
  -1.838727e+06   3.639580e+05
  -7.572018e+05  -1.150512e+06
   6.507385e+05  -1.146869e+06
   6.743708e+05   3.550350e+05
  -7.221630e+05   1.091444e+06
  -1.904381e+06  -4.524699e+05
  -1.415835e+06  -2.977143e+06
   6.255645e+05  -3.863766e+06
   2.857061e+06  -2.097738e+06
   3.836511e+06   9.017813e+05
   2.909838e+06   2.944596e+06
   6.346363e+05   2.962736e+06
  -1.383882e+06   1.531489e+06
  -1.693373e+06   1.447853e+05
  -5.077648e+05  -4.965646e+04
   3.801960e+05   7.593613e+05
  -3.225559e+05   1.280843e+06
  -1.767897e+06   5.953771e+05
  -2.007976e+06  -7.304117e+05
  -4.972080e+05  -1.323670e+06
   1.149243e+06  -6.504082e+05
   1.053131e+06   4.415039e+05
  -7.696682e+05   7.657406e+05
  -2.436450e+06  -4.273025e+04
  -2.146445e+06  -1.389097e+06
   7.563254e+04  -2.266760e+06
   2.408371e+06  -1.894117e+06
   2.892125e+06  -3.464589e+05
   1.241100e+06   1.213185e+06
  -8.703038e+05   1.414184e+06
  -1.442451e+06   1.735873e+05
  -1.311241e+05  -1.018941e+06
   1.517552e+06  -7.327895e+05
   1.785234e+06   7.180149e+05
   4.999632e+05   1.684478e+06
  -1.001880e+06   1.162500e+06
  -1.346146e+06  -1.346006e+05
  -3.962831e+05  -7.468030e+05
   7.261688e+05  -9.492293e+04
   7.204269e+05   1.045890e+06
  -6.217395e+05   1.429079e+06
  -2.066738e+06   5.061625e+05
  -2.060240e+06  -1.098578e+06
  -3.980797e+05  -2.104211e+06
   1.419017e+06  -1.691945e+06
   1.754849e+06  -2.804185e+05
   5.852089e+05   8.632131e+05
  -6.401949e+05   8.727244e+05
  -7.361820e+05   7.436763e+04
   5.032053e+04  -5.201684e+05
   6.252788e+05  -3.673983e+05
   3.658696e+05   1.127798e+05
  -3.415739e+05   1.333017e+05
  -6.103165e+05  -5.220822e+05
   8.739075e+04  -1.193598e+06
   1.373565e+06  -9.584971e+05
   2.140173e+06   3.962773e+05
   1.502970e+06   1.985538e+06
  -2.229781e+05   2.529781e+06
  -1.688663e+06   1.573841e+06
  -1.862947e+06  -4.386827e+04
  -1.055731e+06  -1.037780e+06
  -3.733852e+05  -9.354116e+05
  -3.511082e+05  -3.819101e+05
  -4.850623e+05  -2.565077e+05
  -7.250597e+04  -6.798136e+05
   8.520574e+05  -9.601369e+05
   1.527455e+06  -4.219005e+05
   1.201135e+06   7.786066e+05
  -1.827251e+05   1.645230e+06
  -1.793588e+06   1.207744e+06
  -2.379125e+06  -4.683516e+05
  -1.258525e+06  -2.141123e+06
   9.098310e+05  -2.440616e+06
   2.531764e+06  -1.166587e+06
   2.500289e+06   5.402896e+05
   1.183092e+06   1.381589e+06
  -1.126513e+05   1.144055e+06
  -5.210971e+05   6.740487e+05
  -2.885745e+05   7.528555e+05
  -2.041103e+05   1.218476e+06
  -6.522070e+05   1.236641e+06
  -1.269093e+06   3.011998e+05
  -1.351966e+06  -1.128069e+06
  -5.598292e+05  -1.966534e+06
   6.609295e+05  -1.486865e+06
   1.344200e+06  -2.656768e+04
   8.809231e+05   1.264578e+06
  -3.003891e+05   1.436968e+06
  -1.088011e+06   5.451101e+05
  -8.307574e+05  -5.344667e+05
  -5.167310e+03  -1.012507e+06
   3.922739e+05  -8.366651e+05
   2.363257e+04  -4.985562e+05
  -4.157018e+05  -3.828103e+05
  -4.033439e+04  -4.104336e+05
   1.131658e+06  -2.395774e+05
   2.053844e+06   3.069940e+05
   1.672664e+06   1.014387e+06
   6.452891e+04   1.410220e+06
  -1.523164e+06   1.150494e+06
  -1.854141e+06   3.635186e+05
  -9.043711e+05  -3.781301e+05
   2.149133e+05  -5.278497e+05
   4.951280e+05  -9.019180e+04
  -7.947965e+03   3.551010e+05
  -5.022047e+05   2.411602e+05
  -4.820211e+05  -3.578880e+05
  -1.616897e+05  -7.740860e+05
  -6.745394e+03  -5.000049e+05
  -1.560479e+05   1.639777e+05
  -3.662048e+05   3.823099e+05
  -3.014312e+05  -2.300674e+05
   1.980157e+05  -1.050755e+06
   9.253795e+05  -1.082386e+06
   1.291979e+06  -1.187439e+05
   7.662657e+05   9.471706e+05
  -4.284048e+05   1.087812e+06
  -1.234322e+06   2.558631e+05
  -7.427877e+05  -6.261288e+05
   7.049565e+05  -6.917631e+05
   1.692617e+06   4.924688e+04
   1.171612e+06   8.764782e+05
  -4.128728e+05   1.109520e+06
  -1.588070e+06   6.298723e+05
  -1.370190e+06  -1.317485e+05
  -1.878699e+05  -5.590989e+05
   6.653260e+05  -3.260431e+05
   3.697250e+05   2.741972e+05
  -6.506171e+05   4.941111e+05
  -1.217510e+06  -1.559539e+05
  -6.088079e+05  -1.262608e+06
   7.173416e+05  -1.730616e+06
   1.594281e+06  -8.520372e+05
   1.300854e+06   8.308535e+05
   1.897394e+05   1.893652e+06
  -7.835783e+05   1.399001e+06
  -9.866597e+05  -1.318188e+05
  -5.071359e+05  -1.243193e+06
   1.588872e+05  -1.059657e+06
   5.666095e+05  -1.194291e+05
   5.410229e+05   4.118397e+05
   2.309816e+05   1.664127e+05
   2.879682e+04  -1.200576e+05
   2.064897e+05   2.640676e+05
   4.984670e+05   9.940938e+05
   2.691025e+05   1.147596e+06
  -6.666266e+05   4.285950e+05
  -1.555737e+06  -4.957439e+05
  -1.406601e+06  -8.848873e+05
  -1.997242e+05  -7.181933e+05
   9.548333e+05  -4.256731e+05
   1.054963e+06  -2.082268e+05
   3.293461e+05   1.968125e+04
  -1.763419e+05   2.286713e+05
   2.861366e+04   2.526955e+05
   3.475146e+05   1.430361e+05
   2.330240e+04   1.421167e+05
  -7.699983e+05   2.104605e+05
  -1.083655e+06  -4.156267e+04
  -3.414854e+05  -7.100253e+05
   9.557224e+05  -1.177547e+06
   1.732036e+06  -7.252753e+05
   1.380772e+06   4.998329e+05
   2.459492e+05   1.482821e+06
  -7.940095e+05   1.407134e+06
  -1.097279e+06   5.047018e+05
  -6.904061e+05  -2.878244e+05
  -1.064993e+05  -3.725020e+05
   1.319366e+05  -2.497631e+04
  -6.474008e+04   6.449811e+04
  -3.434700e+05  -3.673335e+05
  -2.787210e+05  -8.470879e+05
   2.061598e+05  -6.926392e+05
   7.213367e+05   1.781147e+05
   7.214945e+05   1.042786e+06
   3.907042e+04   1.067978e+06
  -8.251772e+05   1.877261e+05
  -1.050330e+06  -8.195242e+05
  -3.113230e+05  -1.135866e+06
   7.595640e+05  -6.528133e+05
   1.134754e+06   1.060401e+05
   5.145559e+05   5.996207e+05
  -2.991906e+05   6.476042e+05
  -3.469348e+05   3.691343e+05
   3.139950e+05   3.687944e+04
   6.929646e+05  -2.438267e+04
   1.307248e+05   3.112658e+05
  -8.691423e+05   7.085264e+05
  -1.274006e+06   5.963275e+05
  -7.400402e+05  -1.459756e+05
   1.133249e+05  -8.841818e+05
   5.350008e+05  -8.675384e+05
   3.882702e+05  -1.265259e+05
   2.038267e+04   5.225997e+05
  -2.634808e+05   4.211965e+05
  -3.669543e+05  -2.071041e+05
  -2.512683e+05  -6.069471e+05
   7.084934e+04  -3.994138e+05
   4.046239e+05   7.234596e+04
   4.778703e+05   2.624013e+05
   2.530902e+05   7.218193e+04
  -1.101970e+04  -1.168452e+05
  -8.882787e+04   3.462307e+04
  -6.159186e+04   3.979562e+05
  -1.531453e+05   5.148739e+05
  -3.625353e+05   1.329038e+05
  -4.058901e+05  -4.567930e+05
  -6.852167e+04  -6.816780e+05
   4.536084e+05  -2.982371e+05
   6.559163e+05   3.303017e+05
   2.324064e+05   6.200563e+05
  -5.185677e+05   3.692949e+05
  -8.901865e+05  -1.092590e+05
  -4.812750e+05  -3.999907e+05
   3.093118e+05  -3.778688e+05
   6.544319e+05  -1.866474e+05
   2.230828e+05  -1.021143e+04
  -4.140357e+05   2.593192e+04
  -4.435869e+05  -1.264896e+05
   2.239237e+05  -3.329171e+05
   8.508805e+05  -2.700766e+05
