
 $NMID
 id='ANONYMOUS ', fmtdat='(2E16.6)'
 volume=1.0
 tramp=1.0
 $END
   1.565903e+07  -7.422987e+04
   1.091594e+07   6.867589e+06
   5.472410e+05   9.929518e+06
  -6.722865e+06   7.269735e+06
  -6.146234e+06   1.205635e+06
  -6.534413e+05  -2.975385e+06
   3.416320e+06  -1.823445e+06
   2.827038e+06   2.579567e+06
  -6.032390e+05   4.829052e+06
  -3.103446e+06   2.272411e+06
  -2.697419e+06  -2.145204e+06
  -3.050252e+05  -3.537593e+06
   1.622630e+06  -6.531652e+05
   1.276812e+06   3.069872e+06
  -9.694715e+05   3.590888e+06
  -2.805948e+06   4.543644e+05
  -2.151624e+06  -3.204489e+06
   6.478379e+05  -4.122351e+06
   3.069859e+06  -1.933710e+06
   3.065509e+06   9.847669e+05
   1.171821e+06   2.202468e+06
  -2.810950e+05   1.547033e+06
   1.591124e+05   8.039959e+05
   1.533960e+06   1.393222e+06
   1.609095e+06   2.729104e+06
  -6.239883e+05   3.038228e+06
  -3.630149e+06   1.491147e+06
  -4.617981e+06  -8.702633e+05
  -2.387527e+06  -2.247594e+06
   1.133340e+06  -1.758537e+06
   2.627738e+06  -2.407330e+04
   8.659816e+05   1.461548e+06
  -1.981025e+06   1.418923e+06
  -2.856942e+06  -2.538871e+05
  -1.197825e+06  -2.195283e+06
   8.415092e+05  -2.580188e+06
   1.237876e+06  -9.605893e+05
   2.304005e+05   9.847231e+05
  -5.656489e+05   1.112491e+06
  -2.655540e+05  -6.763980e+05
   6.703543e+05  -2.169847e+06
   1.351072e+06  -1.432317e+06
   1.228890e+06   8.130229e+05
   2.433340e+05   2.000135e+06
  -1.020406e+06   7.623744e+05
  -1.363950e+06  -1.506013e+06
   1.167629e+04  -2.316256e+06
   2.232000e+06  -8.134724e+05
   3.139114e+06   1.526457e+06
   1.516426e+06   2.624578e+06
  -1.356919e+06   1.769348e+06
  -2.889655e+06  -4.539528e+04
  -1.863123e+06  -1.274520e+06
   4.296208e+05  -1.140106e+06
   1.710674e+06  -9.671000e+04
   1.041221e+06   7.217227e+05
  -4.750225e+05   5.522612e+05
  -1.063276e+06  -3.261634e+05
  -1.599254e+05  -9.208615e+05
   1.063655e+06  -5.563840e+05
   1.031665e+06   4.266989e+05
  -4.112123e+05   1.003228e+06
  -1.687555e+06   4.554615e+05
  -1.177582e+06  -9.332243e+05
   9.248720e+05  -2.058207e+06
   2.768188e+06  -1.867138e+06
   2.841900e+06  -2.595888e+05
   1.450009e+06   1.729324e+06
   5.824682e+04   2.759589e+06
  -4.351307e+05   2.389878e+06
  -3.985144e+05   1.411518e+06
  -6.327613e+05   8.427298e+05
  -1.318561e+06   7.212124e+05
  -1.902942e+06   2.265865e+05
  -1.738580e+06  -9.811839e+05
  -6.842484e+05  -1.996114e+06
   7.279891e+05  -1.613838e+06
   1.568931e+06   1.217650e+05
   1.155653e+06   1.746194e+06
  -2.959143e+05   1.848979e+06
  -1.680162e+06   4.664551e+05
  -1.910960e+06  -1.119656e+06
  -9.397629e+05  -1.754988e+06
   2.401615e+05  -1.379630e+06
   6.935676e+05  -7.597634e+05
   5.423991e+05  -5.448599e+05
   6.992401e+05  -6.718919e+05
   1.609839e+06  -5.542639e+05
   2.489588e+06   2.553047e+05
   2.063222e+06   1.541262e+06
   8.809373e+04   2.484880e+06
  -2.091621e+06   2.298231e+06
  -2.744168e+06   9.449043e+05
  -1.492642e+06  -6.950593e+05
   3.157163e+05  -1.469713e+06
   1.024442e+06  -9.435220e+05
   2.889922e+05   1.763961e+05
  -8.055962e+05   6.999530e+05
  -1.058700e+06   1.649992e+05
  -3.430036e+05  -6.643835e+05
   4.725527e+05  -6.779450e+05
   5.158128e+05   2.110399e+05
  -2.778773e+05   8.383451e+05
  -1.157597e+06   1.229676e+05
  -1.195321e+06  -1.536689e+06
  -6.333293e+04  -2.523168e+06
   1.589605e+06  -1.712289e+06
   2.541799e+06   3.113684e+05
   2.012794e+06   1.885629e+06
   4.269422e+05   1.951116e+06
  -9.155569e+05   9.249744e+05
  -1.063156e+06   1.936579e+04
  -3.067676e+05  -3.718368e+04
   2.236370e+05   4.609229e+05
  -1.656836e+05   7.226888e+05
  -9.842582e+05   3.327649e+05
  -1.161743e+06  -3.829590e+05
  -3.271061e+05  -7.415599e+05
   6.827558e+05  -4.034167e+05
   7.012946e+05   2.776088e+05
  -4.334277e+05   5.757886e+05
  -1.585396e+06   8.367480e+04
  -1.465775e+06  -8.755852e+05
  -1.153060e+04  -1.500670e+06
   1.508231e+06  -1.214312e+06
   1.778706e+06  -2.025072e+05
   7.276967e+05   7.062077e+05
  -5.093581e+05   7.751251e+05
  -7.907867e+05   7.206126e+04
  -2.233004e+04  -5.708719e+05
   9.100474e+05  -4.067294e+05
   1.079783e+06   4.182053e+05
   3.554038e+05   1.019683e+06
  -5.627850e+05   7.687046e+05
  -8.395478e+05  -8.297015e+03
  -2.981776e+05  -4.299591e+05
   3.993930e+05  -6.344201e+04
   4.040172e+05   6.315091e+05
  -4.161670e+05   8.437910e+05
  -1.265552e+06   2.511458e+05
  -1.217693e+06  -7.061425e+05
  -2.129193e+05  -1.265923e+06
   8.508654e+05  -1.005679e+06
   1.053242e+06  -1.783991e+05
   3.736347e+05   5.137680e+05
  -3.833980e+05   5.399646e+05
  -4.890752e+05   2.712117e+04
   7.143505e+03  -3.957349e+05
   4.533276e+05  -2.919140e+05
   3.466724e+05   1.032381e+05
  -1.514607e+05   1.920563e+05
  -4.099352e+05  -2.369913e+05
   1.107953e+03  -7.130619e+05
   8.224660e+05  -5.861937e+05
   1.295108e+06   2.535401e+05
   8.841548e+05   1.218596e+06
  -1.694583e+05   1.551458e+06
  -1.059745e+06   9.932075e+05
  -1.193690e+06  -7.329741e+03
  -7.149292e+05  -7.020548e+05
  -2.365273e+05  -7.069155e+05
  -1.358290e+05  -3.142986e+05
  -2.119235e+05  -1.261732e+05
  -2.916476e+04  -3.596550e+05
   5.024692e+05  -5.934255e+05
   9.555698e+05  -2.862157e+05
   7.866271e+05   5.064820e+05
  -9.254744e+04   1.074633e+06
  -1.118751e+06   7.672244e+05
  -1.475158e+06  -3.009409e+05
  -7.833129e+05  -1.309155e+06
   5.200110e+05  -1.475025e+06
   1.510770e+06  -7.288912e+05
   1.553028e+06   2.916186e+05
   8.014070e+05   8.586170e+05
  -3.478719e+04   7.821732e+05
  -3.892818e+05   4.778880e+05
  -2.922812e+05   4.390156e+05
  -1.890842e+05   6.696561e+05
  -3.918656e+05   6.954041e+05
  -7.418581e+05   1.521320e+05
  -7.919045e+05  -7.117065e+05
  -3.050022e+05  -1.210047e+06
   4.333340e+05  -8.965176e+05
   8.277700e+05  -1.106598e+04
   5.411885e+05   7.521284e+05
  -1.499084e+05   8.697330e+05
  -6.142242e+05   3.831800e+05
  -4.982332e+05  -2.416424e+05
  -5.871345e+04  -5.685358e+05
   1.684500e+05  -5.215822e+05
  -1.042959e+04  -3.388349e+05
  -2.321737e+05  -2.557326e+05
  -9.236164e+03  -2.577620e+05
   6.647976e+05  -1.446521e+05
   1.209221e+06   1.938593e+05
   1.007534e+06   6.120755e+05
   7.333723e+04   8.254475e+05
  -8.829748e+05   6.673963e+05
  -1.115365e+06   2.352124e+05
  -5.692606e+05  -1.758274e+05
   1.086701e+05  -2.888224e+05
   2.865275e+05  -7.782246e+04
  -2.710159e+04   1.737837e+05
  -3.298001e+05   1.263980e+05
  -2.802223e+05  -2.253200e+05
  -3.612474e+04  -4.850868e+05
   5.097684e+04  -3.050687e+05
  -1.053476e+05   1.329855e+05
  -2.714011e+05   2.695652e+05
  -1.924331e+05  -1.396420e+05
   1.611549e+05  -6.550929e+05
   5.776262e+05  -6.386544e+05
   7.292719e+05  -2.404513e+04
   3.942214e+05   5.874921e+05
  -2.745359e+05   6.100020e+05
  -7.192081e+05   9.105273e+04
  -4.347522e+05  -4.088939e+05
   4.274170e+05  -4.234117e+05
   1.057516e+06   2.643174e+04
   7.728978e+05   5.427221e+05
  -2.200970e+05   7.184642e+05
  -9.985312e+05   4.344692e+05
  -8.854933e+05  -6.506098e+04
  -1.327450e+05  -3.587722e+05
   4.074389e+05  -2.146979e+05
   2.064685e+05   1.563552e+05
  -4.283543e+05   2.654150e+05
  -7.345858e+05  -1.533838e+05
  -3.033231e+05  -7.990627e+05
   5.217535e+05  -1.022915e+06
   1.014198e+06  -4.571975e+05
   7.784124e+05   5.509359e+05
   7.561025e+04   1.176279e+06
  -5.078221e+05   8.729957e+05
  -6.160592e+05  -6.609954e+04
  -3.251560e+05  -7.708371e+05
   7.455226e+04  -6.768356e+05
   3.393278e+05  -8.335729e+04
   3.568483e+05   2.723467e+05
   1.731225e+05   1.203994e+05
   7.122695e+03  -8.500543e+04
   7.419954e+04   1.382421e+05
   2.712082e+05   6.080251e+05
   1.873055e+05   7.213155e+05
  -3.694846e+05   2.635423e+05
  -9.551456e+05  -3.335993e+05
  -8.899288e+05  -5.714182e+05
  -1.162219e+05  -4.370249e+05
   6.291241e+05  -2.382153e+05
   6.666082e+05  -1.219003e+05
   1.742537e+05  -5.368213e+03
  -1.259463e+05   1.322736e+05
   5.298548e+04   1.794627e+05
   2.534342e+05   1.218589e+05
  -5.881919e+03   8.964182e+04
  -5.233104e+05   9.334474e+04
  -6.575147e+05  -6.148448e+04
  -1.299107e+05  -4.308421e+05
   6.516021e+05  -6.717294e+05
   1.045368e+06  -3.764621e+05
   7.789877e+05   3.579090e+05
   1.001425e+05   9.208712e+05
  -5.049716e+05   8.313013e+05
  -6.810748e+05   2.551449e+05
  -4.217065e+05  -2.171003e+05
  -3.795155e+04  -2.289854e+05
   1.177801e+05   1.609982e+04
  -2.900380e+04   6.885283e+04
  -2.237592e+05  -2.210483e+05
  -1.692888e+05  -5.265710e+05
   1.507952e+05  -4.096488e+05
   4.444961e+05   1.561815e+05
   3.895580e+05   6.830187e+05
  -4.872844e+04   6.471053e+05
  -5.328748e+05   5.241009e+04
  -6.071805e+05  -5.644449e+05
  -1.357781e+05  -6.989725e+05
   4.856939e+05  -3.499207e+05
   6.709068e+05   1.031369e+05
   2.786990e+05   3.496463e+05
  -1.936363e+05   3.516839e+05
  -1.867609e+05   2.108836e+05
   2.279904e+05   4.704783e+04
   4.346088e+05   8.496611e+03
   5.997716e+04   1.855306e+05
  -5.495995e+05   4.182129e+05
  -7.638950e+05   3.651844e+05
  -4.136895e+05  -7.489541e+04
   9.329748e+04  -5.231752e+05
   3.144098e+05  -5.047710e+05
   2.012151e+05  -4.305450e+04
  -2.145242e+04   3.347911e+05
  -1.775546e+05   2.303622e+05
  -2.195259e+05  -1.697921e+05
  -1.332251e+05  -3.788214e+05
   6.059887e+04  -2.110442e+05
   2.434028e+05   6.939770e+04
   2.754221e+05   1.480787e+05
   1.540820e+05   2.910713e+04
   1.179209e+04  -4.401399e+04
  -5.815131e+04   7.442293e+04
  -9.669173e+04   2.610755e+05
  -1.719550e+05   2.694043e+05
  -2.429876e+05   8.187003e+03
  -1.885698e+05  -3.280008e+05
   3.685216e+04  -4.206520e+05
   3.017918e+05  -1.527034e+05
   3.685043e+05   2.407010e+05
   1.075829e+05   3.984394e+05
  -3.163611e+05   2.080878e+05
  -5.205442e+05  -1.044761e+05
  -2.736711e+05  -2.576721e+05
   1.976903e+05  -1.971180e+05
   3.940563e+05  -6.564515e+04
   1.091917e+05   3.475108e+03
  -2.903499e+05  -2.545370e+04
  -2.805527e+05  -1.288530e+05
   1.784631e+05  -2.189467e+05
   5.788537e+05  -1.380532e+05
