
 $NMID
 id='ANONYMOUS ', fmtdat='(2E16.6)'
 volume=1.0
 tramp=1.0
 $END
   2.996267e+07  -8.036382e+05
   2.007605e+07   1.509436e+07
  -6.699743e+05   1.966226e+07
  -1.348016e+07   1.156895e+07
  -1.053528e+07  -1.453022e+05
  -4.075322e+04  -5.418064e+06
   5.981947e+06  -1.790663e+06
   3.803677e+06   5.019973e+06
  -1.983221e+06   7.440777e+06
  -5.561668e+06   3.023660e+06
  -4.605213e+06  -3.662254e+06
  -6.252014e+05  -5.793065e+06
   2.638533e+06  -1.392250e+06
   2.052022e+06   4.529490e+06
  -1.838757e+06   5.427577e+06
  -4.866917e+06   2.733400e+05
  -3.474634e+06  -5.765371e+06
   1.428928e+06  -7.224869e+06
   5.577009e+06  -3.582507e+06
   5.838889e+06   1.395355e+06
   2.902646e+06   4.024878e+06
  -2.499635e+04   3.673250e+06
  -4.331062e+05   2.318847e+06
   1.240029e+06   2.149165e+06
   2.006419e+06   3.412833e+06
  -5.556368e+05   4.225971e+06
  -5.094611e+06   2.694598e+06
  -7.200407e+06  -6.914670e+05
  -4.259904e+06  -3.283405e+06
   1.089080e+06  -3.065760e+06
   3.651572e+06  -6.759822e+05
   1.506034e+06   1.529287e+06
  -2.252099e+06   1.745290e+06
  -3.585978e+06  -1.296975e+05
  -1.812473e+06  -2.657953e+06
   6.899826e+05  -3.672709e+06
   1.697414e+06  -1.953087e+06
   1.003823e+06   1.036419e+06
  -1.576504e+05   2.019749e+06
  -4.393595e+05  -2.631469e+05
   6.071163e+05  -2.893892e+06
   1.993899e+06  -2.104739e+06
   1.930946e+06   1.588423e+06
  -2.285337e+05   3.612150e+06
  -2.707788e+06   1.146210e+06
  -2.750818e+06  -3.168397e+06
   3.485396e+05  -4.503626e+06
   4.098398e+06  -1.534139e+06
   5.048079e+06   2.588531e+06
   2.133555e+06   4.202037e+06
  -2.235054e+06   2.575243e+06
  -4.348680e+06  -3.408911e+05
  -2.608105e+06  -2.154073e+06
   1.000138e+06  -1.768341e+06
   2.906471e+06   5.536685e+04
   1.607165e+06   1.387238e+06
  -8.945971e+05   9.353809e+05
  -1.560346e+06  -5.691963e+05
   1.279100e+05  -1.220924e+06
   1.745184e+06  -2.173426e+05
   1.007848e+06   1.273415e+06
  -1.499243e+06   1.582734e+06
  -3.068074e+06   2.396302e+05
  -1.856279e+06  -1.901268e+06
   1.345653e+06  -3.460108e+06
   4.076591e+06  -3.196907e+06
   4.472191e+06  -7.656444e+05
   2.666111e+06   2.533215e+06
   3.616267e+05   4.390180e+06
  -8.427568e+05   3.702728e+06
  -8.265121e+05   1.821453e+06
  -7.214039e+05   8.446628e+05
  -1.394028e+06   1.000060e+06
  -2.391703e+06   6.818277e+05
  -2.519270e+06  -9.596046e+05
  -1.233089e+06  -2.566908e+06
   7.479196e+05  -2.233165e+06
   2.044702e+06   6.337708e+04
   1.659102e+06   2.339306e+06
  -2.797365e+05   2.671494e+06
  -2.429210e+06   9.234078e+05
  -3.112017e+06  -1.422126e+06
  -1.810958e+06  -2.720907e+06
   2.111092e+05  -2.470451e+06
   1.241675e+06  -1.481458e+06
   1.090620e+06  -8.802085e+05
   1.172002e+06  -9.042097e+05
   2.411913e+06  -7.438342e+05
   3.701283e+06   3.984634e+05
   3.066207e+06   2.259951e+06
   1.760210e+05   3.633908e+06
  -2.948735e+06   3.421545e+06
  -3.897670e+06   1.563932e+06
  -2.230693e+06  -8.108029e+05
   2.452971e+05  -2.097929e+06
   1.333079e+06  -1.480602e+06
   4.433759e+05   1.905410e+05
  -1.103855e+06   1.072914e+06
  -1.580557e+06   2.947488e+05
  -6.007383e+05  -9.853322e+05
   6.153120e+05  -9.960959e+05
   6.589092e+05   3.138299e+05
  -5.429560e+05   1.076663e+06
  -1.697104e+06  -1.511892e+05
  -1.475391e+06  -2.465002e+06
   2.702364e+05  -3.529707e+06
   2.434556e+06  -2.133499e+06
   3.521681e+06   6.378634e+05
   2.724314e+06   2.646055e+06
   5.944511e+05   2.700912e+06
  -1.256094e+06   1.351437e+06
  -1.508847e+06   9.370483e+04
  -4.457743e+05  -4.489517e+04
   3.336231e+05   6.678256e+05
  -2.595636e+05   1.098069e+06
  -1.500806e+06   5.173082e+05
  -1.738630e+06  -5.973572e+05
  -4.585436e+05  -1.127423e+06
   1.003374e+06  -5.818191e+05
   9.670242e+05   3.954126e+05
  -6.605868e+05   7.489909e+05
  -2.218145e+06   3.693120e+04
  -1.996676e+06  -1.239891e+06
   2.554384e+04  -2.076115e+06
   2.143447e+06  -1.718390e+06
   2.559529e+06  -3.138392e+05
   1.083573e+06   1.043110e+06
  -7.460726e+05   1.199132e+06
  -1.216518e+06   1.415157e+05
  -8.572423e+04  -8.663471e+05
   1.326364e+06  -6.292333e+05
   1.574002e+06   6.141773e+05
   4.786166e+05   1.481476e+06
  -8.527988e+05   1.066976e+06
  -1.201928e+06  -7.066376e+04
  -3.856864e+05  -6.449268e+05
   6.176353e+05  -9.091151e+04
   6.212839e+05   9.176837e+05
  -5.643939e+05   1.249247e+06
  -1.825243e+06   4.229246e+05
  -1.800596e+06  -9.807079e+05
  -3.441048e+05  -1.844451e+06
   1.234759e+06  -1.484688e+06
   1.536376e+06  -2.604069e+05
   5.289826e+05   7.518581e+05
  -5.585343e+05   7.768110e+05
  -6.726256e+05   5.447450e+04
   3.273835e+04  -5.094216e+05
   5.986031e+05  -3.658121e+05
   3.979388e+05   1.247605e+05
  -2.716093e+05   1.903642e+05
  -5.692527e+05  -4.095932e+05
   3.776012e+04  -1.048520e+06
   1.199036e+06  -8.563448e+05
   1.886250e+06   3.453984e+05
   1.318071e+06   1.749161e+06
  -2.042746e+05   2.238393e+06
  -1.501868e+06   1.416363e+06
  -1.679594e+06  -1.967136e+04
  -9.766902e+05  -9.538204e+05
  -3.342868e+05  -9.046570e+05
  -2.623947e+05  -3.801669e+05
  -3.818543e+05  -2.020533e+05
  -6.256318e+04  -5.665674e+05
   7.361287e+05  -8.591419e+05
   1.362650e+06  -3.991812e+05
   1.097774e+06   7.011841e+05
  -1.428986e+05   1.498142e+06
  -1.593925e+06   1.094880e+06
  -2.118127e+06  -4.109463e+05
  -1.131768e+06  -1.887727e+06
   7.703352e+05  -2.153857e+06
   2.211059e+06  -1.054525e+06
   2.228613e+06   4.434449e+05
   1.098052e+06   1.226954e+06
  -7.725736e+04   1.062502e+06
  -5.020777e+05   6.347001e+05
  -3.193408e+05   6.492665e+05
  -2.093542e+05   1.030137e+06
  -5.635786e+05   1.060212e+06
  -1.098627e+06   2.548380e+05
  -1.179022e+06  -1.002155e+06
  -4.818667e+05  -1.738647e+06
   5.940629e+05  -1.308681e+06
   1.191600e+06  -2.626643e+04
   7.874097e+05   1.101540e+06
  -2.381584e+05   1.268037e+06
  -9.313172e+05   5.190372e+05
  -7.354055e+05  -4.175148e+05
  -4.485779e+04  -8.678159e+05
   3.011135e+05  -7.509640e+05
   5.478010e+03  -4.618397e+05
  -3.557978e+05  -3.474966e+05
  -2.899762e+04  -3.658153e+05
   9.829775e+05  -2.184001e+05
   1.789996e+06   2.617985e+05
   1.475559e+06   8.829807e+05
   8.548646e+04   1.226848e+06
  -1.310977e+06   1.005815e+06
  -1.627017e+06   3.386732e+05
  -8.134233e+05  -2.982310e+05
   1.721586e+05  -4.488873e+05
   4.287610e+05  -9.662743e+04
  -1.551764e+04   2.869413e+05
  -4.541443e+05   2.022846e+05
  -4.188500e+05  -3.164259e+05
  -1.097279e+05  -6.867850e+05
   2.386493e+04  -4.386402e+05
  -1.442736e+05   1.649266e+05
  -3.519080e+05   3.592338e+05
  -2.738104e+05  -2.014562e+05
   1.928915e+05  -9.361503e+05
   8.186358e+05  -9.485463e+05
   1.104419e+06  -8.660030e+04
   6.387023e+05   8.347866e+05
  -3.777659e+05   9.311948e+05
  -1.065696e+06   1.961801e+05
  -6.471313e+05  -5.637505e+05
   6.172195e+05  -6.155011e+05
   1.509643e+06   3.352720e+04
   1.073215e+06   7.752636e+05
  -3.418404e+05   1.008064e+06
  -1.419106e+06   5.927581e+05
  -1.240872e+06  -1.026867e+05
  -1.785504e+05  -5.041533e+05
   5.878905e+05  -3.003513e+05
   3.172987e+05   2.333472e+05
  -5.890938e+05   4.172020e+05
  -1.068661e+06  -1.654471e+05
  -5.027779e+05  -1.125599e+06
   6.722779e+05  -1.508478e+06
   1.424556e+06  -7.218234e+05
   1.141799e+06   7.518904e+05
   1.528546e+05   1.681438e+06
  -7.031271e+05   1.249519e+06
  -8.812142e+05  -1.035966e+05
  -4.630297e+05  -1.103658e+06
   1.235671e+05  -9.560179e+05
   4.970683e+05  -1.149690e+05
   4.947336e+05   3.749413e+05
   2.226980e+05   1.588036e+05
   1.933862e+04  -1.134319e+05
   1.546765e+05   2.162403e+05
   4.258604e+05   8.747417e+05
   2.556889e+05   1.025764e+06
  -5.650032e+05   3.849949e+05
  -1.378343e+06  -4.484225e+05
  -1.263786e+06  -7.943712e+05
  -1.770691e+05  -6.323248e+05
   8.670763e+05  -3.659447e+05
   9.438761e+05  -1.851982e+05
   2.763505e+05   4.025351e+03
  -1.649176e+05   1.974509e+05
   4.615488e+04   2.394984e+05
   3.303593e+05   1.470540e+05
   9.564978e+03   1.263969e+05
  -7.086042e+05   1.667160e+05
  -9.535305e+05  -5.216061e+04
  -2.595707e+05  -6.199527e+05
   8.757264e+05  -1.013985e+06
   1.515945e+06  -6.114642e+05
   1.182264e+06   4.618515e+05
   1.949577e+05   1.315226e+06
  -7.045827e+05   1.230206e+06
  -9.707959e+05   4.202207e+05
  -6.096826e+05  -2.750419e+05
  -8.017549e+04  -3.283350e+05
   1.366367e+05  -2.558495e+03
  -5.229165e+04   7.515249e+04
  -3.138289e+05  -3.217628e+05
  -2.494689e+05  -7.527072e+05
   1.927909e+05  -6.040185e+05
   6.382682e+05   1.818750e+05
   6.104044e+05   9.422389e+05
  -2.350699e+03   9.365803e+05
  -7.417331e+05   1.320565e+05
  -9.087351e+05  -7.542976e+05
  -2.488895e+05  -1.002209e+06
   6.779193e+05  -5.511405e+05
   9.883964e+05   1.090753e+05
   4.380234e+05   5.158003e+05
  -2.651758e+05   5.478498e+05
  -2.895190e+05   3.208567e+05
   2.972937e+05   4.708688e+04
   6.176373e+05  -1.096815e+04
   1.058359e+05   2.705985e+05
  -7.745735e+05   6.209890e+05
  -1.114482e+06   5.346943e+05
  -6.330212e+05  -1.148372e+05
   1.088306e+05  -7.706693e+05
   4.597424e+05  -7.553169e+05
   3.196208e+05  -9.581846e+04
   1.109371e+02   4.689234e+05
  -2.388667e+05   3.570052e+05
  -3.203029e+05  -2.060778e+05
  -2.129113e+05  -5.386842e+05
   6.889731e+04  -3.331732e+05
   3.543584e+05   7.641809e+04
   4.146075e+05   2.214667e+05
   2.244895e+05   5.368243e+04
  -9.767577e+02  -8.629583e+04
  -8.344142e+04   6.191773e+04
  -8.786676e+04   3.593036e+05
  -1.760498e+05   4.251931e+05
  -3.282826e+05   7.550822e+04
  -3.236917e+05  -4.269493e+05
  -1.789657e+04  -6.002648e+05
   4.121352e+05  -2.473769e+05
   5.605070e+05   3.094859e+05
   1.874906e+05   5.564267e+05
  -4.552034e+05   3.188684e+05
  -7.716785e+05  -1.127874e+05
  -4.147531e+05  -3.577382e+05
   2.747491e+05  -3.153037e+05
   5.713899e+05  -1.402555e+05
   1.806361e+05  -5.966651e+03
  -3.854154e+05  -1.233123e+03
  -3.953641e+05  -1.402344e+05
   2.214433e+05  -3.021337e+05
   7.835762e+05  -2.240125e+05
