
 $NMID
 id='ANONYMOUS ', fmtdat='(2E16.6)'
 volume=1.0
 tramp=1.0
 $END
   3.984368e+07  -1.275354e+05
   2.522787e+07   2.286845e+07
  -3.425045e+06   2.673694e+07
  -1.912132e+07   1.259292e+07
  -1.295400e+07  -2.969684e+06
   1.317511e+06  -6.982692e+06
   7.583006e+06  -5.283261e+05
   3.352543e+06   6.981876e+06
  -3.809416e+06   8.185678e+06
  -7.239759e+06   2.530718e+06
  -5.419564e+06  -4.716545e+06
  -5.477260e+05  -6.848469e+06
   3.151353e+06  -1.831094e+06
   2.105795e+06   4.922497e+06
  -2.745075e+06   5.817639e+06
  -6.045511e+06  -4.357443e+05
  -3.735420e+06  -7.527260e+06
   2.455611e+06  -8.938421e+06
   7.330908e+06  -4.364657e+06
   7.652827e+06   1.712025e+06
   4.242705e+06   5.309312e+06
   2.602504e+05   5.509124e+06
  -1.336735e+06   3.781938e+06
  -4.839644e+02   2.500006e+06
   1.479118e+06   3.038972e+06
  -4.224889e+05   4.142142e+06
  -5.246252e+06   3.127882e+06
  -8.034288e+06  -4.545236e+05
  -5.187134e+06  -3.672629e+06
   6.402690e+05  -3.718218e+06
   3.629908e+06  -1.240448e+06
   1.752442e+06   9.725709e+05
  -1.722903e+06   1.290026e+06
  -3.056614e+06  -8.460160e+04
  -1.801787e+06  -2.248083e+06
   3.076298e+05  -3.682947e+06
   1.747143e+06  -2.595751e+06
   1.765352e+06   6.490859e+05
   5.168673e+05   2.552755e+06
  -4.814096e+05   5.541172e+05
   3.799599e+05  -2.664543e+06
   2.242174e+06  -2.107481e+06
   2.106989e+06   2.249554e+06
  -1.119779e+06   4.612632e+06
  -4.345499e+06   1.122404e+06
  -3.626950e+06  -4.606575e+06
   9.870033e+05  -6.040501e+06
   5.371246e+06  -1.803642e+06
   5.704403e+06   3.425528e+06
   1.907115e+06   4.975842e+06
  -2.797652e+06   2.568491e+06
  -4.705057e+06  -9.353393e+05
  -2.487158e+06  -2.763666e+06
   1.589480e+06  -1.929918e+06
   3.534396e+06   4.484089e+05
   1.717868e+06   1.939929e+06
  -1.226399e+06   1.086451e+06
  -1.615556e+06  -7.987417e+05
   6.370128e+05  -1.139019e+06
   2.090475e+06   5.709303e+05
   4.155021e+05   2.179554e+06
  -2.723968e+06   1.741349e+06
  -3.961419e+06  -4.115003e+05
  -2.015532e+06  -2.736324e+06
   1.596128e+06  -4.089042e+06
   4.493053e+06  -3.671020e+06
   5.106911e+06  -1.005987e+06
   3.296200e+06   2.807511e+06
   4.583797e+05   5.044958e+06
  -1.340585e+06   4.094663e+06
  -1.271442e+06   1.589247e+06
  -5.815297e+05   3.829111e+05
  -8.983452e+05   8.867092e+05
  -2.082969e+06   9.738833e+05
  -2.547972e+06  -5.999270e+05
  -1.405312e+06  -2.348769e+06
   5.501095e+05  -2.142233e+06
   1.847084e+06   6.182747e+04
   1.561017e+06   2.306000e+06
  -2.733987e+05   2.747904e+06
  -2.567137e+06   1.109780e+06
  -3.553908e+06  -1.414930e+06
  -2.262741e+06  -3.134626e+06
   1.873277e+05  -3.113661e+06
   1.648330e+06  -1.928669e+06
   1.546532e+06  -9.698663e+05
   1.464850e+06  -7.942263e+05
   2.650553e+06  -5.622398e+05
   3.940402e+06   6.661839e+05
   3.147826e+06   2.563425e+06
   2.494706e+04   3.829478e+06
  -3.171754e+06   3.490092e+06
  -4.048354e+06   1.623715e+06
  -2.346000e+06  -7.406872e+05
   1.293168e+05  -2.122815e+06
   1.290834e+06  -1.590306e+06
   4.762043e+05   1.463571e+05
  -1.135015e+06   1.117452e+06
  -1.714695e+06   2.798298e+05
  -6.899291e+05  -1.083873e+06
   6.161282e+05  -1.012740e+06
   5.610016e+05   3.787140e+05
  -8.011923e+05   9.277954e+05
  -1.791487e+06  -6.503524e+05
  -1.090963e+06  -2.945246e+06
   9.265227e+05  -3.518415e+06
   2.828412e+06  -1.665756e+06
   3.440924e+06   1.100960e+06
   2.445396e+06   2.819400e+06
   4.243642e+05   2.696359e+06
  -1.303151e+06   1.342273e+06
  -1.535366e+06   8.476042e+04
  -4.622943e+05  -6.235891e+04
   3.183615e+05   7.143485e+05
  -3.572971e+05   1.187866e+06
  -1.679699e+06   4.925994e+05
  -1.839795e+06  -7.738840e+05
  -3.926760e+05  -1.263222e+06
   1.095447e+06  -5.418070e+05
   9.231593e+05   4.632111e+05
  -7.744860e+05   6.393787e+05
  -2.219362e+06  -1.974614e+05
  -1.851085e+06  -1.379690e+06
   2.043673e+05  -2.043107e+06
   2.284252e+06  -1.609524e+06
   2.659696e+06  -1.975617e+05
   1.100338e+06   1.172152e+06
  -8.545291e+05   1.293389e+06
  -1.356489e+06   1.211857e+05
  -1.020111e+05  -9.508878e+05
   1.425252e+06  -6.228605e+05
   1.612123e+06   7.424037e+05
   3.662424e+05   1.575534e+06
  -9.967736e+05   1.004267e+06
  -1.230433e+06  -2.156988e+05
  -3.077650e+05  -7.213472e+05
   6.946357e+05  -5.711373e+04
   6.341059e+05   9.944611e+05
  -6.155292e+05   1.296639e+06
  -1.912598e+06   4.008234e+05
  -1.856556e+06  -1.076267e+06
  -2.905779e+05  -1.950410e+06
   1.374419e+06  -1.503692e+06
   1.625768e+06  -1.820297e+05
   4.906597e+05   8.225912e+05
  -6.311818e+05   7.677916e+05
  -6.591829e+05   3.306447e+04
   9.396816e+04  -4.525878e+05
   5.776975e+05  -2.744328e+05
   2.814010e+05   1.280740e+05
  -3.595627e+05   7.920782e+04
  -5.411380e+05  -5.400242e+05
   1.443381e+05  -1.108619e+06
   1.307418e+06  -8.282335e+05
   1.953010e+06   4.455436e+05
   1.310585e+06   1.877802e+06
  -2.971834e+05   2.303924e+06
  -1.607652e+06   1.355778e+06
  -1.687033e+06  -1.329946e+05
  -8.867396e+05  -9.768210e+05
  -2.799607e+05  -8.187226e+05
  -3.261550e+05  -3.192760e+05
  -4.753194e+05  -2.535229e+05
  -5.731487e+04  -6.470492e+05
   8.268931e+05  -8.499311e+05
   1.416551e+06  -3.150892e+05
   1.049757e+06   7.577105e+05
  -2.505024e+05   1.480763e+06
  -1.692437e+06   1.023432e+06
  -2.155761e+06  -5.248051e+05
  -1.060682e+06  -2.021034e+06
   9.498333e+05  -2.215438e+06
   2.389847e+06  -9.639607e+05
   2.267112e+06   6.200801e+05
   9.932716e+05   1.323761e+06
  -1.782544e+05   1.017288e+06
  -4.883332e+05   5.594849e+05
  -2.463179e+05   6.686437e+05
  -2.001393e+05   1.128467e+06
  -6.427908e+05   1.132045e+06
  -1.185390e+06   2.414029e+05
  -1.203581e+06  -1.077350e+06
  -4.446558e+05  -1.818920e+06
   6.555834e+05  -1.336477e+06
   1.231679e+06   3.199080e+04
   7.577093e+05   1.207099e+06
  -3.482784e+05   1.315177e+06
  -1.050585e+06   4.425988e+05
  -7.586527e+05  -5.583739e+05
   5.169570e+04  -9.595928e+05
   4.264921e+05  -7.595720e+05
   5.883282e+04  -4.460514e+05
  -3.720105e+05  -3.546026e+05
  -2.685752e+04  -3.727794e+05
   1.059188e+06  -1.798733e+05
   1.891691e+06   3.551805e+05
   1.501233e+06   1.001757e+06
  -8.258198e+03   1.319175e+06
  -1.460645e+06   1.015605e+06
  -1.726126e+06   2.529854e+05
  -8.162831e+05  -4.112153e+05
   2.224700e+05  -4.936412e+05
   4.687237e+05  -5.616265e+04
  -3.527776e+03   3.388929e+05
  -4.554804e+05   2.056208e+05
  -4.319851e+05  -3.416647e+05
  -1.413819e+05  -6.999794e+05
  -8.682363e+03  -4.492186e+05
  -1.509135e+05   1.296414e+05
  -3.394251e+05   3.139430e+05
  -2.670931e+05  -2.252844e+05
   2.084577e+05  -9.458991e+05
   8.860016e+05  -9.653170e+05
   1.209925e+06  -8.758056e+04
   6.949493e+05   8.849135e+05
  -4.231906e+05   1.002358e+06
  -1.146696e+06   2.181823e+05
  -6.593467e+05  -5.902592e+05
   6.763384e+05  -6.059561e+05
   1.541558e+06   1.199434e+05
   1.014318e+06   8.589714e+05
  -4.443079e+05   9.899340e+05
  -1.480075e+06   4.872321e+05
  -1.234903e+06  -1.924096e+05
  -1.386606e+05  -5.169329e+05
   6.270391e+05  -2.644187e+05
   3.380560e+05   2.693332e+05
  -5.991048e+05   4.368586e+05
  -1.105297e+06  -1.679601e+05
  -5.305165e+05  -1.160596e+06
   6.885218e+05  -1.558112e+06
   1.469514e+06  -7.355618e+05
   1.158263e+06   7.944721e+05
   1.097677e+05   1.729759e+06
  -7.675899e+05   1.238653e+06
  -8.973433e+05  -1.701463e+05
  -4.057381e+05  -1.160479e+06
   2.051703e+05  -9.583653e+05
   5.308013e+05  -8.311703e+04
   4.650082e+05   3.969403e+05
   1.879781e+05   1.607860e+05
   3.798230e+04  -1.054894e+05
   2.049801e+05   2.517594e+05
   4.299839e+05   9.270008e+05
   1.853137e+05   1.059841e+06
  -6.462277e+05   3.715567e+05
  -1.399479e+06  -5.072284e+05
  -1.235703e+06  -8.626492e+05
  -1.568654e+05  -6.671724e+05
   8.700905e+05  -3.524276e+05
   9.665557e+05  -1.458762e+05
   3.162828e+05   3.401182e+04
  -1.621221e+05   2.019148e+05
  -3.546191e+03   2.283933e+05
   2.898977e+05   1.387099e+05
   2.390211e+04   1.273884e+05
  -6.868494e+05   1.671635e+05
  -9.888107e+05  -6.703833e+04
  -3.182880e+05  -6.530395e+05
   8.885049e+05  -1.049153e+06
   1.613158e+06  -6.247291e+05
   1.264796e+06   4.814393e+05
   1.833814e+05   1.355672e+06
  -7.733290e+05   1.267861e+06
  -1.014400e+06   4.392173e+05
  -6.150555e+05  -2.753949e+05
  -9.380738e+04  -3.415091e+05
   1.007770e+05  -2.435179e+04
  -7.201680e+04   4.596500e+04
  -2.949400e+05  -3.556837e+05
  -2.192194e+05  -7.856896e+05
   2.056171e+05  -6.285862e+05
   6.448386e+05   1.744476e+05
   6.322236e+05   9.585742e+05
   2.326810e+04   9.708138e+05
  -7.414053e+05   1.592564e+05
  -9.330350e+05  -7.620551e+05
  -2.612151e+05  -1.043277e+06
   7.059096e+05  -5.849587e+05
   1.040100e+06   1.236675e+05
   4.662114e+05   5.727541e+05
  -2.889881e+05   5.995405e+05
  -3.425930e+05   3.354656e+05
   2.662524e+05   4.255279e+04
   6.280959e+05  -2.011269e+03
   1.167079e+05   2.893806e+05
  -8.164645e+05   6.171362e+05
  -1.200500e+06   4.966977e+05
  -6.922358e+05  -1.637238e+05
   1.272857e+05  -8.095897e+05
   5.276664e+05  -7.872441e+05
   3.707917e+05  -1.215902e+05
   8.938096e+03   4.675269e+05
  -2.470588e+05   3.844116e+05
  -3.223140e+05  -1.856472e+05
  -2.128281e+05  -5.603386e+05
   6.803579e+04  -3.747083e+05
   3.653456e+05   7.172581e+04
   4.369898e+05   2.629446e+05
   2.322368e+05   8.298582e+04
  -1.822420e+04  -1.162177e+05
  -9.106480e+04   4.444092e+03
  -5.098295e+04   3.441419e+05
  -1.198867e+05   4.711721e+05
  -3.154714e+05   1.343720e+05
  -3.701137e+05  -4.040479e+05
  -6.783052e+04  -6.122152e+05
   4.126306e+05  -2.632281e+05
   5.952404e+05   3.075883e+05
   1.990089e+05   5.641167e+05
  -4.883027e+05   3.252875e+05
  -8.157988e+05  -1.166631e+05
  -4.314728e+05  -3.776975e+05
   2.897161e+05  -3.468069e+05
   6.018883e+05  -1.658622e+05
   2.147715e+05  -9.363522e+03
  -3.575016e+05   1.717454e+04
  -3.880857e+05  -1.142630e+05
   2.044986e+05  -2.817971e+05
   7.618464e+05  -2.131522e+05
