
 $NMID
 id='ANONYMOUS ', fmtdat='(2E16.6)'
 volume=1.0
 tramp=1.0
 $END
   9.768032e+06  -1.297656e+06
   6.869281e+06   4.882072e+06
  -1.022510e+05   6.704164e+06
  -4.381049e+06   3.616719e+06
  -3.265003e+06  -4.702921e+05
   1.832864e+05  -1.873378e+06
   1.922892e+06  -3.906303e+05
   1.072093e+06   1.661361e+06
  -7.002769e+05   2.184056e+06
  -1.746212e+06   8.412266e+05
  -1.503549e+06  -1.060199e+06
  -3.082940e+05  -1.740386e+06
   8.066202e+05  -5.696181e+05
   7.437974e+05   1.165003e+06
  -4.695049e+05   1.523531e+06
  -1.483411e+06   6.532963e+04
  -1.101714e+06  -1.720925e+06
   3.825487e+05  -2.196382e+06
   1.674281e+06  -1.199456e+06
   1.895224e+06   2.491716e+05
   1.165363e+06   1.201165e+06
   1.952935e+05   1.364742e+06
  -2.787729e+05   9.703969e+05
  -5.194887e+03   5.589771e+05
   4.267105e+05   6.105582e+05
   7.097820e+04   9.847560e+05
  -1.134349e+06   9.671084e+05
  -1.994461e+06   1.924108e+05
  -1.446501e+06  -7.564855e+05
   6.355281e+03  -1.025752e+06
   8.786485e+05  -5.135128e+05
   5.191822e+05   1.464774e+05
  -3.305550e+05   3.827134e+05
  -7.136991e+05   9.226262e+04
  -4.747668e+05  -4.941549e+05
   1.118969e+03  -9.129962e+05
   3.889603e+05  -6.699828e+05
   4.896573e+05   1.461911e+05
   2.248559e+05   6.525061e+05
  -1.109213e+05   1.799033e+05
  -1.824669e+04  -6.428709e+05
   4.633118e+05  -5.595648e+05
   5.846253e+05   5.118059e+05
  -1.291181e+05   1.177217e+06
  -1.042941e+06   4.126337e+05
  -1.059352e+06  -1.006747e+06
   2.447002e+04  -1.499851e+06
   1.236012e+06  -6.224326e+05
   1.487279e+06   6.220855e+05
   6.124360e+05   1.130290e+06
  -6.079802e+05   7.186644e+05
  -1.175186e+06  -8.159638e+04
  -6.724876e+05  -6.371311e+05
   3.699190e+05  -5.713063e+05
   9.192699e+05   9.055860e+02
   4.928816e+05   4.756681e+05
  -2.830047e+05   3.444835e+05
  -4.341386e+05  -1.591301e+05
   1.317393e+05  -3.252855e+05
   5.501266e+05   8.814900e+04
   1.743100e+05   5.564918e+05
  -6.177836e+05   5.159376e+05
  -9.733476e+05  -3.356102e+03
  -5.570387e+05  -6.102601e+05
   2.672224e+05  -1.007968e+06
   9.591307e+05  -9.892825e+05
   1.185927e+06  -3.892176e+05
   8.766713e+05   5.766818e+05
   2.544507e+05   1.212619e+06
  -2.318789e+05   1.026876e+06
  -2.925338e+05   3.813792e+05
  -1.216958e+05   5.143348e+04
  -1.378384e+05   2.185632e+05
  -4.228528e+05   3.309031e+05
  -6.286754e+05  -1.747779e+04
  -4.438637e+05  -5.051881e+05
   4.106285e+04  -5.543419e+05
   4.550992e+05  -7.252337e+04
   4.737438e+05   4.973737e+05
   3.356342e+04   6.847072e+05
  -5.900991e+05   3.657953e+05
  -9.093462e+05  -2.271520e+05
  -6.379580e+05  -6.957607e+05
  -3.557660e+04  -7.607085e+05
   3.508203e+05  -5.002604e+05
   3.447052e+05  -2.552169e+05
   3.173501e+05  -2.196345e+05
   5.969023e+05  -2.175340e+05
   9.387792e+05   2.726639e+04
   8.194317e+05   5.031794e+05
   1.369939e+05   9.030592e+05
  -6.236466e+05   9.285550e+05
  -9.071558e+05   5.221408e+05
  -6.013274e+05  -9.511151e+04
  -5.416410e+04  -5.193183e+05
   2.680510e+05  -4.394005e+05
   1.455411e+05   1.730123e+04
  -2.276337e+05   3.250490e+05
  -4.217762e+05   1.400867e+05
  -2.199856e+05  -2.496618e+05
   1.210422e+05  -2.938290e+05
   1.699540e+05   5.638411e+04
  -1.436486e+05   2.595523e+05
  -4.408717e+05  -7.696141e+04
  -3.482176e+05  -6.561824e+05
   1.117569e+05  -8.615386e+05
   6.112087e+05  -4.757332e+05
   8.359412e+05   1.627492e+05
   6.606390e+05   5.925507e+05
   1.877247e+05   6.196542e+05
  -2.664004e+05   3.540170e+05
  -3.683326e+05   6.460419e+04
  -1.138889e+05  -6.065902e+03
   1.093967e+05   1.571383e+05
  -3.428150e+04   3.036769e+05
  -3.879487e+05   1.887680e+05
  -4.855706e+05  -1.177084e+05
  -1.579235e+05  -3.038501e+05
   2.380753e+05  -1.952869e+05
   2.530634e+05   5.600458e+04
  -1.332565e+05   1.750816e+05
  -5.113633e+05   4.244027e+04
  -4.819732e+05  -2.477332e+05
  -2.962790e+04  -4.842755e+05
   4.816390e+05  -4.605348e+05
   6.298134e+05  -1.353755e+05
   3.079570e+05   2.523797e+05
  -1.638826e+05   3.498182e+05
  -3.338541e+05   7.767498e+04
  -6.901017e+04  -2.330568e+05
   3.183006e+05  -2.095814e+05
   4.184009e+05   1.184081e+05
   1.484593e+05   3.716180e+05
  -2.058424e+05   2.877764e+05
  -3.153937e+05  -6.259424e+02
  -1.187645e+05  -1.681973e+05
   1.504642e+05  -5.982814e+04
   1.906534e+05   1.900540e+05
  -8.189620e+04   3.178372e+05
  -4.229139e+05   1.649113e+05
  -4.727484e+05  -1.842648e+05
  -1.375079e+05  -4.523240e+05
   2.788195e+05  -4.070215e+05
   3.926296e+05  -9.535716e+04
   1.575530e+05   1.921531e+05
  -1.220366e+05   2.215699e+05
  -1.695045e+05   4.302278e+04
  -1.639227e+04  -1.096396e+05
   1.103266e+05  -9.686921e+04
   7.232673e+04   2.809823e+03
  -6.466961e+04   2.104707e+04
  -1.285797e+05  -1.026422e+05
  -9.011021e+01  -2.505348e+05
   2.713150e+05  -2.293682e+05
   4.653728e+05   3.765854e+04
   3.665209e+05   3.936680e+05
   2.782385e+03   5.533937e+05
  -3.396073e+05   3.758486e+05
  -4.066847e+05   2.060942e+04
  -2.413145e+05  -2.135538e+05
  -8.801016e+04  -1.975359e+05
  -7.735775e+04  -7.132161e+04
  -1.057852e+05  -4.066851e+04
  -2.239038e+04  -1.377158e+05
   1.659950e+05  -2.102232e+05
   3.072055e+05  -1.091969e+05
   2.547581e+05   1.416929e+05
  -1.291064e+04   3.441745e+05
  -3.532746e+05   2.867893e+05
  -5.148808e+05  -5.065605e+04
  -3.193540e+05  -4.324424e+05
   1.394461e+05  -5.495006e+05
   5.245088e+05  -3.105438e+05
   5.585283e+05   6.578022e+04
   2.870622e+05   2.800387e+05
  -3.109849e+03   2.516272e+05
  -1.000440e+05   1.526308e+05
  -4.494893e+04   1.654634e+05
  -1.713061e+04   2.690901e+05
  -1.154204e+05   2.845826e+05
  -2.690654e+05   9.426713e+04
  -3.177604e+05  -2.143788e+05
  -1.652890e+05  -4.139855e+05
   1.100755e+05  -3.385969e+05
   2.923893e+05  -3.836967e+04
   2.212053e+05   2.532806e+05
  -3.276236e+04   3.198393e+05
  -2.246781e+05   1.455960e+05
  -1.932075e+05  -9.480579e+04
  -2.614653e+04  -2.190865e+05
   6.327672e+04  -1.928619e+05
  -4.854957e+03  -1.128997e+05
  -9.132748e+04  -7.548397e+04
  -1.201374e+04  -8.480608e+04
   2.359023e+05  -7.188289e+04
   4.421463e+05   2.278975e+04
   3.818690e+05   1.805481e+05
   5.163568e+04   3.019086e+05
  -2.989916e+05   2.832936e+05
  -3.961899e+05   1.215715e+05
  -2.094634e+05  -5.980280e+04
   3.356104e+04  -1.167943e+05
   1.041230e+05  -2.998041e+04
  -4.051016e+01   7.278932e+04
  -1.092401e+05   5.568579e+04
  -1.088579e+05  -7.189006e+04
  -4.223822e+04  -1.639475e+05
  -7.301573e+03  -1.073574e+05
  -3.168903e+04   3.647300e+04
  -6.953452e+04   8.896743e+04
  -6.187334e+04  -3.817090e+04
   2.565393e+04  -2.210267e+05
   1.700258e+05  -2.459136e+05
   2.627902e+05  -5.283653e+04
   1.775936e+05   1.831801e+05
  -6.751355e+04   2.373454e+05
  -2.553763e+05   7.540809e+04
  -1.696752e+05  -1.227862e+05
   1.400983e+05  -1.628693e+05
   3.688144e+05  -2.003206e+04
   2.719902e+05   1.691711e+05
  -6.838222e+04   2.498428e+05
  -3.336940e+05   1.690098e+05
  -3.014657e+05  -5.421898e+02
  -5.311662e+04  -1.187157e+05
   1.373870e+05  -8.789710e+04
   8.682686e+04   4.758066e+04
  -1.284074e+05   1.174389e+05
  -2.632233e+05  -9.844188e+03
  -1.525448e+05  -2.593695e+05
   1.254847e+05  -3.842030e+05
   3.303391e+05  -2.097884e+05
   2.957208e+05   1.583814e+05
   7.395028e+04   4.069898e+05
  -1.446131e+05   3.184911e+05
  -2.166804e+05  -7.269084e+03
  -1.365974e+05  -2.580113e+05
   8.308808e+03  -2.347710e+05
   1.168969e+05  -4.023390e+04
   1.273045e+05   7.817821e+04
   5.729859e+04   3.241812e+04
   3.916041e+03  -2.909816e+04
   4.658932e+04   4.789856e+04
   1.269291e+05   2.037736e+05
   8.513281e+04   2.469082e+05
  -1.318727e+05   1.091085e+05
  -3.471581e+05  -7.844306e+04
  -3.242800e+05  -1.665866e+05
  -5.637732e+04  -1.498321e+05
   2.019210e+05  -1.069568e+05
   2.253119e+05  -6.534342e+04
   6.880819e+04  -4.796184e+03
  -3.607710e+04   5.304088e+04
   1.226995e+04   5.806165e+04
   7.980541e+04   2.632993e+04
   6.706486e+03   2.716716e+04
  -1.643435e+05   5.605100e+04
  -2.327550e+05   1.180326e+04
  -8.127822e+04  -1.428646e+05
   1.871919e+05  -2.683382e+05
   3.561244e+05  -1.868816e+05
   3.001474e+05   8.307302e+04
   7.775056e+04   3.147975e+05
  -1.423710e+05   3.154803e+05
  -2.234330e+05   1.259485e+05
  -1.525670e+05  -4.982360e+04
  -2.904770e+04  -7.548334e+04
   2.959783e+04  -3.723255e+03
  -1.218394e+04   1.831862e+04
  -8.338429e+04  -7.111705e+04
  -7.955556e+04  -1.770086e+05
   2.994808e+04  -1.530806e+05
   1.588024e+05   2.592884e+04
   1.731260e+05   2.126825e+05
   2.441488e+04   2.283464e+05
  -1.762455e+05   5.117164e+04
  -2.391415e+05  -1.612109e+05
  -8.482303e+04  -2.379341e+05
   1.511282e+05  -1.505596e+05
   2.428653e+05   2.183603e+03
   1.203530e+05   1.142078e+05
  -4.911771e+04   1.401612e+05
  -6.213475e+04   8.732995e+04
   7.197862e+04   6.919206e+03
   1.487174e+05  -1.629247e+04
   3.208550e+04   6.324551e+04
  -1.746922e+05   1.694337e+05
  -2.616220e+05   1.565542e+05
  -1.596685e+05  -1.361840e+04
   8.145471e+03  -1.915777e+05
   9.559047e+04  -1.963601e+05
   7.602391e+04  -3.235107e+04
   1.061450e+04   1.131335e+05
  -4.916298e+04   9.241966e+04
  -8.139306e+04  -4.207272e+04
  -6.432983e+04  -1.260300e+05
   7.844794e+03  -8.357584e+04
   8.809531e+04   9.656063e+03
   1.078275e+05   4.495161e+04
   5.661354e+04   9.063934e+03
  -4.066000e+03  -2.121377e+04
  -2.068579e+04   1.500985e+04
  -1.179372e+04   8.754504e+04
  -2.956438e+04   1.073919e+05
  -7.605520e+04   2.761523e+04
  -8.936796e+04  -9.405859e+04
  -2.008217e+04  -1.438832e+05
   9.348363e+04  -6.958507e+04
   1.433755e+05   6.086453e+04
   5.859920e+04   1.295970e+05
  -1.033356e+05   8.841502e+04
  -1.906474e+05  -8.076212e+03
  -1.099749e+05  -7.705312e+04
   5.883049e+04  -8.473169e+04
   1.361350e+05  -4.929528e+04
   4.536362e+04  -5.952680e+03
  -9.220953e+04   9.664679e+03
  -9.896985e+04  -2.387341e+04
   4.614989e+04  -7.784592e+04
   1.843047e+05  -7.197580e+04
