
 $NMID
 id='ANONYMOUS ', fmtdat='(2E16.6)'
 volume=1.0
 tramp=1.0
 $END
   5.077510e+07   2.582688e+06
   2.910522e+07   3.224344e+07
  -7.892146e+06   3.369582e+07
  -2.511882e+07   1.263259e+07
  -1.470397e+07  -6.228883e+06
   3.014108e+06  -8.249335e+06
   8.829938e+06   9.948968e+05
   2.536288e+06   8.771513e+06
  -5.609124e+06   8.594531e+06
  -8.781878e+06   1.792523e+06
  -6.226247e+06  -5.964182e+06
  -4.329326e+05  -8.060285e+06
   3.853862e+06  -2.297968e+06
   2.352775e+06   5.361465e+06
  -3.564129e+06   6.146314e+06
  -7.130007e+06  -1.331552e+06
  -3.777574e+06  -9.433327e+06
   3.801224e+06  -1.063604e+07
   9.423506e+06  -4.947711e+06
   9.692186e+06   2.438123e+06
   5.478693e+06   7.124247e+06
   6.389300e+04   7.657539e+06
  -2.728581e+06   5.056670e+06
  -1.268529e+06   2.367882e+06
   1.344795e+06   2.417634e+06
  -4.197562e+03   4.267135e+06
  -5.559745e+06   3.919323e+06
  -9.259310e+06  -1.061578e+05
  -6.338681e+06  -4.277151e+06
   2.659428e+05  -4.738182e+06
   3.894776e+06  -2.089695e+06
   2.369953e+06   4.368115e+05
  -9.475119e+05   1.213534e+06
  -2.635433e+06   3.900707e+05
  -2.172379e+06  -1.782866e+06
  -2.967898e+05  -3.999407e+06
   1.982832e+06  -3.414980e+06
   2.811926e+06   5.115046e+05
   1.135702e+06   3.447194e+06
  -8.764929e+05   1.413267e+06
  -1.100606e+05  -2.637992e+06
   2.432696e+06  -2.199437e+06
   2.188714e+06   2.938842e+06
  -2.228631e+06   5.431900e+06
  -6.061009e+06   6.555996e+05
  -4.257668e+06  -6.380859e+06
   1.991229e+06  -7.554412e+06
   6.837483e+06  -1.885165e+06
   6.373802e+06   4.324074e+06
   1.690323e+06   5.690407e+06
  -3.290702e+06   2.556694e+06
  -4.996020e+06  -1.437484e+06
  -2.334137e+06  -3.257425e+06
   2.188812e+06  -1.983982e+06
   4.128211e+06   9.266689e+05
   1.752586e+06   2.503806e+06
  -1.600829e+06   1.198564e+06
  -1.665891e+06  -9.803364e+05
   1.064715e+06  -8.977982e+05
   2.180770e+06   1.416496e+06
  -4.510771e+05   2.870360e+06
  -4.015216e+06   1.565899e+06
  -4.718312e+06  -1.247405e+06
  -2.027487e+06  -3.615676e+06
   1.932473e+06  -4.836842e+06
   5.040853e+06  -4.352682e+06
   5.953550e+06  -1.308251e+06
   4.085762e+06   3.253691e+06
   5.858884e+05   5.878831e+06
  -1.811564e+06   4.473738e+06
  -1.558727e+06   1.277762e+06
  -2.238894e+05   2.435728e+04
  -3.147315e+05   1.078673e+06
  -1.903149e+06   1.569544e+06
  -2.853939e+06  -1.065106e+05
  -1.868274e+06  -2.187675e+06
   1.897884e+05  -2.238183e+06
   1.705382e+06  -1.435780e+05
   1.666893e+06   2.198690e+06
  -1.384727e+05   2.927893e+06
  -2.800159e+06   1.429857e+06
  -4.201600e+06  -1.430458e+06
  -2.796814e+06  -3.715396e+06
   2.686459e+05  -3.884564e+06
   2.196248e+06  -2.358750e+06
   2.038146e+06  -9.782078e+05
   1.707559e+06  -6.632854e+05
   2.854947e+06  -4.497514e+05
   4.220859e+06   8.233092e+05
   3.345936e+06   2.791000e+06
   2.063516e+04   4.072597e+06
  -3.308201e+06   3.759389e+06
  -4.249404e+06   1.916077e+06
  -2.611772e+06  -5.978107e+05
  -1.057723e+05  -2.272459e+06
   1.237361e+06  -1.849704e+06
   5.532835e+05   9.032806e+04
  -1.150927e+06   1.252596e+06
  -1.877992e+06   3.192413e+05
  -8.243178e+05  -1.213924e+06
   5.791181e+05  -1.098464e+06
   4.718658e+05   3.756219e+05
  -9.616954e+05   7.357014e+05
  -1.753094e+06  -1.109321e+06
  -6.962381e+05  -3.278878e+06
   1.398087e+06  -3.370643e+06
   2.997079e+06  -1.235771e+06
   3.319392e+06   1.354844e+06
   2.331279e+06   2.801380e+06
   4.335906e+05   2.668641e+06
  -1.302761e+06   1.432749e+06
  -1.599311e+06   1.616990e+05
  -4.890917e+05  -6.077726e+04
   3.355573e+05   7.560114e+05
  -4.342052e+05   1.292124e+06
  -1.869666e+06   5.052405e+05
  -1.965370e+06  -9.077145e+05
  -3.546596e+05  -1.384140e+06
   1.169028e+06  -5.434879e+05
   9.034711e+05   4.679138e+05
  -8.236474e+05   5.422795e+05
  -2.191805e+06  -3.049561e+05
  -1.779897e+06  -1.381706e+06
   2.504595e+05  -2.001523e+06
   2.346113e+06  -1.624588e+06
   2.776032e+06  -2.049736e+05
   1.164722e+06   1.277646e+06
  -9.526965e+05   1.431865e+06
  -1.522709e+06   1.250643e+05
  -1.425535e+05  -1.066150e+06
   1.526518e+06  -6.786144e+05
   1.686796e+06   8.119150e+05
   3.182970e+05   1.644162e+06
  -1.081548e+06   9.670273e+05
  -1.243319e+06  -3.056331e+05
  -2.480621e+05  -7.653578e+05
   7.739923e+05  -3.222194e+04
   6.921842e+05   1.068444e+06
  -6.272461e+05   1.397923e+06
  -2.023519e+06   4.688425e+05
  -1.992115e+06  -1.115963e+06
  -3.176969e+05  -2.074072e+06
   1.472788e+06  -1.589902e+06
   1.718501e+06  -1.684049e+05
   4.857438e+05   8.708634e+05
  -6.715688e+05   7.877634e+05
  -6.531356e+05   5.992644e+04
   1.048460e+05  -3.854997e+05
   5.144768e+05  -2.347189e+05
   1.772138e+05   6.441732e+04
  -4.043007e+05  -4.990551e+04
  -5.024337e+05  -6.429118e+05
   2.161588e+05  -1.163274e+06
   1.392821e+06  -8.558387e+05
   2.061291e+06   4.702455e+05
   1.399960e+06   1.980266e+06
  -2.874373e+05   2.415834e+06
  -1.651541e+06   1.386572e+06
  -1.701876e+06  -1.507355e+05
  -8.724302e+05  -9.334553e+05
  -3.236081e+05  -7.139504e+05
  -4.485705e+05  -2.761590e+05
  -5.766700e+05  -3.270783e+05
  -5.663820e+04  -7.426665e+05
   8.875642e+05  -8.758313e+05
   1.456172e+06  -3.017923e+05
   1.053485e+06   7.513551e+05
  -2.679828e+05   1.473941e+06
  -1.747468e+06   1.041159e+06
  -2.239191e+06  -5.399732e+05
  -1.084588e+06  -2.118773e+06
   1.051472e+06  -2.321175e+06
   2.541972e+06  -9.673614e+05
   2.331986e+06   6.949545e+05
   9.546051e+05   1.352111e+06
  -2.022653e+05   9.666504e+05
  -4.197902e+05   5.365253e+05
  -1.468401e+05   7.573414e+05
  -1.717572e+05   1.279170e+06
  -7.052555e+05   1.242829e+06
  -1.288109e+06   2.688894e+05
  -1.297237e+06  -1.122668e+06
  -4.964578e+05  -1.910515e+06
   6.674523e+05  -1.417469e+06
   1.284621e+06   3.394328e+04
   7.768205e+05   1.289924e+06
  -4.105832e+05   1.373723e+06
  -1.140745e+06   3.887009e+05
  -7.750104e+05  -6.819314e+05
   1.339927e+05  -1.040570e+06
   5.234841e+05  -7.599609e+05
   7.973703e+04  -4.225793e+05
  -4.185181e+05  -3.570530e+05
  -4.534601e+04  -3.885977e+05
   1.139832e+06  -1.767828e+05
   2.031237e+06   3.902660e+05
   1.580137e+06   1.071224e+06
  -6.430954e+04   1.409977e+06
  -1.598142e+06   1.077995e+06
  -1.823698e+06   2.353301e+05
  -8.173271e+05  -4.888924e+05
   2.702938e+05  -5.446805e+05
   5.013927e+05  -2.742170e+04
   5.585526e+03   4.078711e+05
  -4.595639e+05   2.430832e+05
  -4.681479e+05  -3.569256e+05
  -2.152828e+05  -7.405499e+05
  -6.510229e+04  -4.880949e+05
  -1.380024e+05   1.040068e+05
  -2.966163e+05   3.041064e+05
  -2.711381e+05  -2.368515e+05
   1.765805e+05  -9.902227e+05
   9.291057e+05  -1.035308e+06
   1.348656e+06  -1.174962e+05
   8.048901e+05   9.454453e+05
  -4.527475e+05   1.110287e+06
  -1.260367e+06   2.809929e+05
  -7.162431e+05  -5.997613e+05
   7.148416e+05  -6.294433e+05
   1.588349e+06   1.302340e+05
   1.000012e+06   8.798430e+05
  -4.920064e+05   9.818958e+05
  -1.507879e+06   4.586738e+05
  -1.236764e+06  -2.098579e+05
  -1.285895e+05  -5.185163e+05
   6.526723e+05  -2.568519e+05
   3.694408e+05   3.025217e+05
  -6.092888e+05   5.026086e+05
  -1.185201e+06  -1.237792e+05
  -6.307738e+05  -1.211098e+06
   6.518840e+05  -1.691108e+06
   1.520360e+06  -8.425173e+05
   1.239930e+06   7.973763e+05
   1.546322e+05   1.804616e+06
  -7.742860e+05   1.283155e+06
  -9.207436e+05  -1.945621e+05
  -4.057200e+05  -1.201628e+06
   2.357483e+05  -9.647341e+05
   5.611929e+05  -7.062535e+04
   4.633660e+05   3.886254e+05
   1.674629e+05   1.398592e+05
   4.779944e+04  -9.439245e+04
   2.614891e+05   3.059655e+05
   4.807341e+05   9.832989e+05
   1.697055e+05   1.082469e+06
  -7.189510e+05   3.718216e+05
  -1.467778e+06  -5.050098e+05
  -1.266773e+06  -8.682887e+05
  -1.664572e+05  -7.037314e+05
   8.714134e+05  -4.021513e+05
   9.916522e+05  -1.599996e+05
   3.546819e+05   6.432325e+04
  -1.536696e+05   2.240019e+05
  -3.477535e+04   2.013269e+05
   2.700201e+05   9.770812e+04
   4.657241e+04   1.373683e+05
  -6.754017e+05   2.254377e+05
  -1.051873e+06  -3.899671e+04
  -4.128810e+05  -7.138123e+05
   8.794098e+05  -1.166080e+06
   1.728095e+06  -7.125533e+05
   1.407903e+06   4.754615e+05
   2.428067e+05   1.421141e+06
  -8.051995e+05   1.360835e+06
  -1.070924e+06   5.146913e+05
  -6.560729e+05  -2.483562e+05
  -1.255891e+05  -3.656791e+05
   7.598553e+04  -7.005582e+04
  -7.787111e+04   1.305585e+04
  -2.910986e+05  -3.738242e+05
  -2.287487e+05  -8.153124e+05
   1.970875e+05  -6.794035e+05
   6.852958e+05   1.350899e+05
   7.256459e+05   9.749406e+05
   9.459978e+04   1.045431e+06
  -7.662376e+05   2.380321e+05
  -1.029881e+06  -7.462331e+05
  -3.275715e+05  -1.106112e+06
   7.350360e+05  -6.680192e+05
   1.125099e+06   1.014865e+05
   5.182020e+05   6.320129e+05
  -3.085923e+05   6.771270e+05
  -3.927338e+05   3.571689e+05
   2.476174e+05   8.297616e+03
   6.535243e+05  -2.718449e+04
   1.405930e+05   3.150322e+05
  -8.435923e+05   6.633742e+05
  -1.275775e+06   5.080757e+05
  -7.609446e+05  -2.026725e+05
   1.175105e+05  -8.730724e+05
   5.784582e+05  -8.449549e+05
   4.383980e+05  -1.508181e+05
   4.791267e+04   4.838521e+05
  -2.516705e+05   4.354932e+05
  -3.551689e+05  -1.514233e+05
  -2.440421e+05  -5.860630e+05
   6.514713e+04  -4.328974e+05
   3.942290e+05   5.147845e+04
   4.701451e+05   2.962047e+05
   2.387608e+05   1.044010e+05
  -2.966115e+04  -1.569717e+05
  -7.467686e+04  -5.164604e+04
   1.337037e+04   3.594430e+05
  -5.845533e+04   5.656468e+05
  -3.309435e+05   2.238085e+05
  -4.642564e+05  -3.915233e+05
  -1.531625e+05  -6.618519e+05
   4.166323e+05  -3.127621e+05
   6.686007e+05   2.940604e+05
   2.482718e+05   5.820060e+05
  -5.194782e+05   3.567251e+05
  -8.908245e+05  -9.381314e+04
  -4.758092e+05  -3.903165e+05
   3.067006e+05  -4.004285e+05
   6.526628e+05  -2.202603e+05
   2.569740e+05  -1.066982e+04
  -3.474327e+05   7.158791e+04
  -4.116183e+05  -6.380068e+04
   1.665148e+05  -2.902692e+05
   7.445967e+05  -2.660898e+05
