
 $NMID
 id='ANONYMOUS ', fmtdat='(2E16.6)'
 volume=1.0
 tramp=1.0
 $END
   4.418277e+07   5.975384e+05
   2.699808e+07   2.609279e+07
  -4.773789e+06   2.939185e+07
  -2.121293e+07   1.300750e+07
  -1.370214e+07  -3.841343e+06
   1.787595e+06  -7.477630e+06
   8.058666e+06  -1.897144e+05
   3.253546e+06   7.584882e+06
  -4.287739e+06   8.527910e+06
  -7.808784e+06   2.455584e+06
  -5.857279e+06  -5.174609e+06
  -6.064047e+05  -7.416890e+06
   3.459664e+06  -2.052566e+06
   2.342191e+06   5.187825e+06
  -2.955802e+06   6.114626e+06
  -6.504107e+06  -6.512750e+05
  -3.904833e+06  -8.252977e+06
   2.852625e+06  -9.691206e+06
   8.137464e+06  -4.692891e+06
   8.497360e+06   1.966419e+06
   4.729216e+06   6.025837e+06
   1.633430e+05   6.305844e+06
  -1.805839e+06   4.196798e+06
  -2.934315e+05   2.434564e+06
   1.627724e+06   2.912459e+06
  -2.169031e+05   4.372109e+06
  -5.509650e+06   3.578579e+06
  -8.715962e+06  -2.664795e+05
  -5.747512e+06  -3.943545e+06
   5.458938e+05  -4.196354e+06
   3.876727e+06  -1.604419e+06
   2.068002e+06   8.586444e+05
  -1.514814e+06   1.428174e+06
  -3.085298e+06   1.704282e+05
  -2.075530e+06  -2.176520e+06
   7.187534e+04  -3.967730e+06
   1.882562e+06  -2.951866e+06
   2.163448e+06   6.789072e+05
   7.030085e+05   2.945645e+06
  -6.768907e+05   8.017735e+05
   1.769458e+05  -2.804112e+06
   2.328960e+06  -2.250052e+06
   2.201783e+06   2.481025e+06
  -1.435303e+06   4.941982e+06
  -4.926825e+06   9.843338e+05
  -3.898651e+06  -5.247366e+06
   1.293081e+06  -6.628828e+06
   5.947265e+06  -1.899262e+06
   6.108075e+06   3.717837e+06
   1.977008e+06   5.288404e+06
  -2.970097e+06   2.684059e+06
  -4.933406e+06  -1.016457e+06
  -2.558254e+06  -2.924514e+06
   1.772975e+06  -2.000877e+06
   3.799535e+06   5.636115e+05
   1.788803e+06   2.129548e+06
  -1.359411e+06   1.155573e+06
  -1.691383e+06  -8.410770e+05
   7.317523e+05  -1.086008e+06
   2.127980e+06   7.906935e+05
   1.717180e+05   2.367506e+06
  -3.134652e+06   1.705542e+06
  -4.256389e+06  -6.341423e+05
  -2.082177e+06  -3.036970e+06
   1.710174e+06  -4.462740e+06
   4.775400e+06  -4.068189e+06
   5.534073e+06  -1.187938e+06
   3.676347e+06   3.020564e+06
   5.699224e+05   5.464657e+06
  -1.450858e+06   4.341699e+06
  -1.329676e+06   1.561863e+06
  -4.551418e+05   3.396350e+05
  -7.534380e+05   1.050302e+06
  -2.131297e+06   1.253011e+06
  -2.786654e+06  -4.370282e+05
  -1.666412e+06  -2.388057e+06
   4.155636e+05  -2.291941e+06
   1.889867e+06  -5.796549e+04
   1.717094e+06   2.322931e+06
  -1.868003e+05   2.915689e+06
  -2.724301e+06   1.289068e+06
  -3.903559e+06  -1.433390e+06
  -2.528561e+06  -3.402600e+06
   2.050478e+05  -3.445778e+06
   1.854372e+06  -2.116057e+06
   1.719820e+06  -1.002656e+06
   1.554349e+06  -8.003388e+05
   2.777891e+06  -6.002981e+05
   4.163440e+06   6.569266e+05
   3.362855e+06   2.654376e+06
   1.036836e+05   4.033170e+06
  -3.254649e+06   3.762070e+06
  -4.232034e+06   1.854805e+06
  -2.538073e+06  -6.865213e+05
   2.237128e+04  -2.265215e+06
   1.301336e+06  -1.760826e+06
   5.241193e+05   1.290920e+05
  -1.161714e+06   1.224358e+06
  -1.818077e+06   3.318553e+05
  -7.702507e+05  -1.153330e+06
   6.072473e+05  -1.092701e+06
   5.643693e+05   3.678300e+05
  -8.340364e+05   9.101705e+05
  -1.817945e+06  -7.567549e+05
  -1.060973e+06  -3.081026e+06
   9.903405e+05  -3.579594e+06
   2.893436e+06  -1.657480e+06
   3.531724e+06   1.111679e+06
   2.573706e+06   2.837484e+06
   5.156971e+05   2.771974e+06
  -1.321291e+06   1.450200e+06
  -1.612441e+06   1.452136e+05
  -4.881361e+05  -5.419166e+04
   3.495103e+05   7.444757e+05
  -3.702813e+05   1.262049e+06
  -1.781757e+06   5.405980e+05
  -1.948783e+06  -8.025161e+05
  -4.177237e+05  -1.328381e+06
   1.140620e+06  -5.831970e+05
   9.609503e+05   4.544398e+05
  -7.903956e+05   6.488752e+05
  -2.284091e+06  -1.750036e+05
  -1.930904e+06  -1.373109e+06
   1.673111e+05  -2.103314e+06
   2.340822e+06  -1.724783e+06
   2.781930e+06  -2.665030e+05
   1.179078e+06   1.220469e+06
  -8.912196e+05   1.392675e+06
  -1.449443e+06   1.475119e+05
  -1.321627e+05  -1.018528e+06
   1.492999e+06  -6.893135e+05
   1.703392e+06   7.526576e+05
   4.004951e+05   1.636315e+06
  -1.026142e+06   1.046960e+06
  -1.274377e+06  -2.180135e+05
  -3.160294e+05  -7.454498e+05
   7.380990e+05  -6.261808e+04
   6.924121e+05   1.039413e+06
  -6.156410e+05   1.386536e+06
  -2.007425e+06   4.749522e+05
  -1.985776e+06  -1.088756e+06
  -3.489792e+05  -2.049382e+06
   1.419126e+06  -1.608807e+06
   1.703492e+06  -2.191729e+05
   5.237870e+05   8.516842e+05
  -6.462788e+05   8.132710e+05
  -6.816745e+05   6.017621e+04
   8.254297e+04  -4.498984e+05
   5.684155e+05  -2.930750e+05
   2.696243e+05   9.709011e+04
  -3.716310e+05   4.942735e+04
  -5.536383e+05  -5.714506e+05
   1.462600e+05  -1.160744e+06
   1.358858e+06  -8.919593e+05
   2.062438e+06   4.266865e+05
   1.422780e+06   1.946912e+06
  -2.539191e+05   2.425877e+06
  -1.643458e+06   1.450678e+06
  -1.752163e+06  -9.946731e+04
  -9.434499e+05  -9.733480e+05
  -3.339388e+05  -8.131368e+05
  -3.859317e+05  -3.203957e+05
  -5.216623e+05  -2.807984e+05
  -6.744255e+04  -6.963283e+05
   8.536425e+05  -9.036450e+05
   1.468333e+06  -3.559143e+05
   1.108206e+06   7.551277e+05
  -2.247384e+05   1.535609e+06
  -1.742391e+06   1.104002e+06
  -2.267972e+06  -4.983009e+05
  -1.149103e+06  -2.094333e+06
   9.639192e+05  -2.339448e+06
   2.492593e+06  -1.047816e+06
   2.374693e+06   6.095807e+05
   1.048974e+06   1.348326e+06
  -1.599479e+05   1.040361e+06
  -4.683188e+05   5.914509e+05
  -2.161038e+05   7.336505e+05
  -1.826779e+05   1.219983e+06
  -6.636969e+05   1.215348e+06
  -1.252995e+06   2.798559e+05
  -1.297388e+06  -1.104927e+06
  -5.151057e+05  -1.902162e+06
   6.539361e+05  -1.423068e+06
   1.290746e+06   5.950277e+03
   8.140205e+05   1.255184e+06
  -3.492931e+05   1.381681e+06
  -1.097007e+06   4.616663e+05
  -7.933002e+05  -5.956157e+05
   5.976987e+04  -1.010641e+06
   4.498242e+05  -7.884698e+05
   5.302310e+04  -4.542919e+05
  -4.078894e+05  -3.621683e+05
  -4.165062e+04  -3.915022e+05
   1.114863e+06  -2.058501e+05
   2.004908e+06   3.407260e+05
   1.596849e+06   1.024652e+06
   1.451552e+03   1.386845e+06
  -1.530851e+06   1.095296e+06
  -1.806580e+06   2.933403e+05
  -8.487045e+05  -4.268493e+05
   2.359463e+05  -5.273612e+05
   4.905617e+05  -5.905481e+04
   1.682403e+03   3.720444e+05
  -4.705824e+05   2.356251e+05
  -4.654082e+05  -3.499376e+05
  -1.829406e+05  -7.394443e+05
  -3.395048e+04  -4.813058e+05
  -1.466190e+05   1.318230e+05
  -3.294808e+05   3.348605e+05
  -2.824847e+05  -2.300045e+05
   1.854755e+05  -1.000479e+06
   9.105886e+05  -1.038995e+06
   1.293442e+06  -1.185554e+05
   7.693763e+05   9.253829e+05
  -4.301024e+05   1.077557e+06
  -1.220201e+06   2.641709e+05
  -7.138795e+05  -6.014093e+05
   6.973519e+05  -6.483883e+05
   1.611310e+06   9.058862e+04
   1.066305e+06   8.668601e+05
  -4.468686e+05   1.029464e+06
  -1.524293e+06   5.324547e+05
  -1.281949e+06  -1.717163e+05
  -1.540711e+05  -5.307907e+05
   6.486877e+05  -2.856172e+05
   3.630921e+05   2.824290e+05
  -6.174855e+05   4.863403e+05
  -1.175846e+06  -1.389099e+05
  -6.046192e+05  -1.211104e+06
   6.726807e+05  -1.673225e+06
   1.526067e+06  -8.269990e+05
   1.243502e+06   7.998200e+05
   1.657832e+05   1.813322e+06
  -7.675722e+05   1.314653e+06
  -9.377426e+05  -1.616622e+05
  -4.467859e+05  -1.202269e+06
   1.965538e+05  -9.961782e+05
   5.548868e+05  -9.352943e+04
   4.919715e+05   3.958430e+05
   1.946364e+05   1.533147e+05
   3.835277e+04  -1.059857e+05
   2.304188e+05   2.763201e+05
   4.792742e+05   9.691565e+05
   2.131737e+05   1.097010e+06
  -6.803330e+05   3.949531e+05
  -1.481997e+06  -4.934334e+05
  -1.310242e+06  -8.644512e+05
  -1.794544e+05  -6.979374e+05
   8.960443e+05  -4.023361e+05
   1.005054e+06  -1.784213e+05
   3.367251e+05   3.932144e+04
  -1.619369e+05   2.205487e+05
  -4.297037e+03   2.255757e+05
   3.015839e+05   1.219428e+05
   3.383177e+04   1.362484e+05
  -7.083687e+05   2.094304e+05
  -1.046198e+06  -4.074973e+04
  -3.689486e+05  -6.940367e+05
   8.997589e+05  -1.144571e+06
   1.694797e+06  -7.045078e+05
   1.364385e+06   4.761692e+05
   2.371776e+05   1.422841e+06
  -7.846870e+05   1.356978e+06
  -1.061768e+06   4.984004e+05
  -6.583595e+05  -2.645324e+05
  -1.132275e+05  -3.609923e+05
   1.005725e+05  -4.364451e+04
  -7.198645e+04   3.921651e+04
  -3.118033e+05  -3.652504e+05
  -2.477139e+05  -8.168295e+05
   1.983038e+05  -6.716626e+05
   6.874615e+05   1.555737e+05
   7.056724e+05   9.886442e+05
   6.396100e+04   1.032601e+06
  -7.776060e+05   2.054121e+05
  -1.015770e+06  -7.681367e+05
  -3.117327e+05  -1.097366e+06
   7.312785e+05  -6.458539e+05
   1.106729e+06   1.017474e+05
   5.074490e+05   6.026576e+05
  -2.961636e+05   6.491362e+05
  -3.624372e+05   3.579413e+05
   2.743472e+05   2.511235e+04
   6.597606e+05  -2.380007e+04
   1.331172e+05   3.061566e+05
  -8.408062e+05   6.713957e+05
  -1.252374e+06   5.421908e+05
  -7.373365e+05  -1.689317e+05
   1.132414e+05  -8.607820e+05
   5.455007e+05  -8.409590e+05
   4.031521e+05  -1.380085e+05
   3.164327e+04   4.920048e+05
  -2.515739e+05   4.190000e+05
  -3.513395e+05  -1.765077e+05
  -2.419216e+05  -5.846898e+05
   6.501612e+04  -4.070005e+05
   3.903632e+05   6.123308e+04
   4.658677e+05   2.733955e+05
   2.424630e+05   8.663921e+04
  -2.152676e+04  -1.328685e+05
  -8.406993e+04  -8.022351e+03
  -2.605173e+04   3.679572e+05
  -1.021923e+05   5.243410e+05
  -3.357535e+05   1.723886e+05
  -4.226689e+05  -4.133304e+05
  -1.070137e+05  -6.543003e+05
   4.257945e+05  -2.975855e+05
   6.470296e+05   3.053309e+05
   2.337711e+05   5.883328e+05
  -5.087992e+05   3.559413e+05
  -8.715509e+05  -9.931358e+04
  -4.684181e+05  -3.872376e+05
   3.005851e+05  -3.808077e+05
   6.384631e+05  -1.989497e+05
   2.345822e+05  -1.186788e+04
  -3.715463e+05   4.424971e+04
  -4.162426e+05  -9.522045e+04
   1.937055e+05  -3.030425e+05
   7.825144e+05  -2.580053e+05
