
 $NMID
 id='ANONYMOUS ', fmtdat='(2E16.6)'
 volume=1.0
 tramp=1.0
 $END
   4.116806e+07  -1.295696e+06
   2.639775e+07   2.320770e+07
  -3.145023e+06   2.769225e+07
  -1.935794e+07   1.308485e+07
  -1.309709e+07  -3.043229e+06
   1.355666e+06  -7.113789e+06
   7.614146e+06  -4.950047e+05
   3.371326e+06   7.032263e+06
  -3.743830e+06   8.198312e+06
  -7.260379e+06   2.607064e+06
  -5.650572e+06  -4.613639e+06
  -8.139054e+05  -6.889375e+06
   3.129782e+06  -2.021719e+06
   2.314730e+06   4.779475e+06
  -2.591572e+06   5.840062e+06
  -6.133801e+06  -3.563875e+05
  -3.975287e+06  -7.571443e+06
   2.283145e+06  -9.175064e+06
   7.392455e+06  -4.705621e+06
   7.971545e+06   1.475977e+06
   4.643609e+06   5.373587e+06
   4.590356e+05   5.826676e+06
  -1.443822e+06   4.022491e+06
  -1.761931e+05   2.394889e+06
   1.543598e+06   2.739472e+06
  -1.270631e+05   4.067261e+06
  -5.021634e+06   3.452196e+06
  -8.094413e+06  -3.797064e+02
  -5.457574e+06  -3.466826e+06
   3.704075e+05  -3.864837e+06
   3.524720e+06  -1.556393e+06
   1.882893e+06   7.427798e+05
  -1.435211e+06   1.310051e+06
  -2.871036e+06   1.658703e+05
  -1.936191e+06  -1.987749e+06
  -1.182594e+04  -3.655356e+06
   1.626999e+06  -2.786111e+06
   1.980298e+06   5.146273e+05
   7.585314e+05   2.656617e+06
  -5.331133e+05   7.572565e+05
   1.353206e+05  -2.595572e+06
   2.123327e+06  -2.167965e+06
   2.162652e+06   2.244417e+06
  -1.136004e+06   4.713025e+06
  -4.561446e+06   1.176060e+06
  -3.870556e+06  -4.716605e+06
   9.189715e+05  -6.255589e+06
   5.469230e+06  -2.010676e+06
   5.843231e+06   3.274607e+06
   2.024516e+06   4.905909e+06
  -2.711057e+06   2.613143e+06
  -4.671667e+06  -8.114608e+05
  -2.500422e+06  -2.678765e+06
   1.592348e+06  -1.950663e+06
   3.582318e+06   3.876783e+05
   1.758542e+06   1.931110e+06
  -1.227265e+06   1.131488e+06
  -1.612435e+06  -7.432787e+05
   6.663563e+05  -1.074694e+06
   2.072157e+06   6.561955e+05
   2.979617e+05   2.253750e+06
  -2.863207e+06   1.770616e+06
  -4.035689e+06  -4.124729e+05
  -2.082117e+06  -2.765762e+06
   1.438884e+06  -4.213159e+06
   4.317048e+06  -3.924720e+06
   5.103818e+06  -1.278827e+06
   3.507689e+06   2.676053e+06
   7.035175e+05   5.063931e+06
  -1.221706e+06   4.118490e+06
  -1.224451e+06   1.527683e+06
  -4.619775e+05   3.178564e+05
  -6.974256e+05   9.477816e+05
  -1.937508e+06   1.176512e+06
  -2.570268e+06  -3.544006e+05
  -1.574744e+06  -2.178039e+06
   3.549455e+05  -2.123223e+06
   1.760836e+06  -6.881294e+04
   1.640734e+06   2.141772e+06
  -1.107750e+05   2.717966e+06
  -2.493117e+06   1.265371e+06
  -3.660283e+06  -1.214796e+06
  -2.460709e+06  -3.071015e+06
   5.809757e+04  -3.206462e+06
   1.636904e+06  -2.046064e+06
   1.569300e+06  -1.014536e+06
   1.441380e+06  -8.075546e+05
   2.594056e+06  -6.396868e+05
   3.918823e+06   5.039850e+05
   3.216212e+06   2.396684e+06
   1.962063e+05   3.770325e+06
  -2.951069e+06   3.592019e+06
  -3.899868e+06   1.825837e+06
  -2.369348e+06  -5.797505e+05
  -2.400230e+04  -2.099102e+06
   1.167059e+06  -1.659310e+06
   4.844886e+05   1.083609e+05
  -1.055067e+06   1.165187e+06
  -1.687379e+06   3.561719e+05
  -7.476294e+05  -1.049906e+06
   5.436760e+05  -1.027396e+06
   5.392035e+05   3.432672e+05
  -7.744301e+05   8.910436e+05
  -1.759546e+06  -6.581153e+05
  -1.100197e+06  -2.885855e+06
   8.492699e+05  -3.420441e+06
   2.707848e+06  -1.644293e+06
   3.359701e+06   9.701971e+05
   2.473202e+06   2.619335e+06
   5.358004e+05   2.589942e+06
  -1.202770e+06   1.382301e+06
  -1.499463e+06   1.697601e+05
  -4.570714e+05  -3.881943e+04
   3.444276e+05   6.886595e+05
  -3.118772e+05   1.192337e+06
  -1.651374e+06   5.554242e+05
  -1.847331e+06  -6.997758e+05
  -4.269441e+05  -1.235309e+06
   1.056510e+06  -5.734052e+05
   9.111766e+05   4.110159e+05
  -7.359057e+05   6.336722e+05
  -2.157277e+06  -1.168196e+05
  -1.841896e+06  -1.256368e+06
   1.172840e+05  -1.982080e+06
   2.157877e+06  -1.667823e+06
   2.597516e+06  -3.133352e+05
   1.134347e+06   1.111262e+06
  -7.933891e+05   1.324292e+06
  -1.347975e+06   1.790417e+05
  -1.501449e+05  -9.442010e+05
   1.378254e+06  -6.805212e+05
   1.613976e+06   6.641153e+05
   4.142336e+05   1.527277e+06
  -9.416478e+05   1.009197e+06
  -1.205436e+06  -1.758851e+05
  -3.153917e+05  -6.963215e+05
   6.913800e+05  -7.981406e+04
   6.738911e+05   9.551199e+05
  -5.422446e+05   1.310502e+06
  -1.864222e+06   4.912440e+05
  -1.881518e+06  -9.697406e+05
  -3.760980e+05  -1.907616e+06
   1.288014e+06  -1.540295e+06
   1.589307e+06  -2.465491e+05
   5.104995e+05   7.864946e+05
  -5.877249e+05   7.766540e+05
  -6.358625e+05   6.665223e+04
   7.497928e+04  -4.284453e+05
   5.349088e+05  -2.826226e+05
   2.548655e+05   9.813011e+04
  -3.567050e+05   6.428929e+04
  -5.418394e+05  -5.233261e+05
   1.058800e+05  -1.095756e+06
   1.251037e+06  -8.700053e+05
   1.940668e+06   3.494120e+05
   1.377648e+06   1.786309e+06
  -1.815129e+05   2.274226e+06
  -1.508092e+06   1.394619e+06
  -1.645487e+06  -5.676428e+04
  -9.004822e+05  -8.964584e+05
  -3.185165e+05  -7.558742e+05
  -3.597957e+05  -2.839269e+05
  -4.974129e+05  -2.412165e+05
  -8.612737e+04  -6.478537e+05
   7.772685e+05  -8.692034e+05
   1.369845e+06  -3.680160e+05
   1.054727e+06   6.856063e+05
  -1.794987e+05   1.446954e+06
  -1.608736e+06   1.074587e+06
  -2.135143e+06  -4.148348e+05
  -1.126047e+06  -1.935987e+06
   8.454606e+05  -2.217409e+06
   2.310750e+06  -1.043982e+06
   2.242317e+06   5.169190e+05
   1.013657e+06   1.246091e+06
  -1.331690e+05   9.828176e+05
  -4.323541e+05   5.589005e+05
  -1.847502e+05   6.800173e+05
  -1.356979e+05   1.138805e+06
  -5.865786e+05   1.153280e+06
  -1.162975e+06   2.944876e+05
  -1.238196e+06  -1.001041e+06
  -5.257082e+05  -1.765610e+06
   5.782778e+05  -1.344821e+06
   1.208656e+06  -2.384300e+04
   7.941284e+05   1.156492e+06
  -2.932157e+05   1.305538e+06
  -1.020994e+06   4.641676e+05
  -7.657976e+05  -5.368411e+05
   2.604415e+04  -9.529990e+05
   4.028524e+05  -7.567163e+05
   4.229374e+04  -4.296093e+05
  -3.881672e+05  -3.270983e+05
  -4.777926e+04  -3.639840e+05
   1.038484e+06  -2.223890e+05
   1.884669e+06   2.664046e+05
   1.520558e+06   9.202284e+05
   3.825684e+04   1.302248e+06
  -1.403633e+06   1.066605e+06
  -1.686053e+06   3.191491e+05
  -8.108327e+05  -3.809496e+05
   2.045291e+05  -5.014384e+05
   4.601496e+05  -6.906390e+04
   1.508898e+04   3.451279e+05
  -4.325545e+05   2.290468e+05
  -4.430401e+05  -3.148672e+05
  -1.869554e+05  -6.812349e+05
  -4.255540e+04  -4.439072e+05
  -1.375504e+05   1.265005e+05
  -3.052179e+05   3.172640e+05
  -2.710395e+05  -2.092920e+05
   1.511097e+05  -9.376232e+05
   8.258952e+05  -9.938116e+05
   1.203137e+06  -1.480074e+05
   7.410115e+05   8.406053e+05
  -3.714587e+05   1.017533e+06
  -1.128968e+06   2.795102e+05
  -6.797281e+05  -5.443427e+05
   6.374966e+05  -6.240234e+05
   1.511492e+06   4.887802e+04
   1.019090e+06   7.923952e+05
  -3.976989e+05   9.785121e+05
  -1.420310e+06   5.324888e+05
  -1.206881e+06  -1.353134e+05
  -1.552334e+05  -4.955595e+05
   6.025612e+05  -2.828111e+05
   3.477420e+05   2.539591e+05
  -5.633962e+05   4.665138e+05
  -1.098309e+06  -1.019842e+05
  -5.911746e+05  -1.112874e+06
   5.875060e+05  -1.573411e+06
   1.402939e+06  -8.055213e+05
   1.178432e+06   7.180914e+05
   1.957623e+05   1.689829e+06
  -6.898102e+05   1.246360e+06
  -8.837586e+05  -1.303636e+05
  -4.459583e+05  -1.117185e+06
   1.634933e+05  -9.405652e+05
   5.187292e+05  -1.017062e+05
   4.682905e+05   3.622409e+05
   1.842290e+05   1.428218e+05
   3.459084e+04  -1.013079e+05
   2.243340e+05   2.475125e+05
   4.712752e+05   8.927096e+05
   2.234813e+05   1.024978e+06
  -6.276093e+05   3.900413e+05
  -1.396164e+06  -4.278196e+05
  -1.244440e+06  -7.820743e+05
  -1.848638e+05  -6.486648e+05
   8.275548e+05  -3.928458e+05
   9.366233e+05  -1.885061e+05
   3.178995e+05   2.565456e+04
  -1.458179e+05   2.081699e+05
  -9.692840e+02   2.153269e+05
   2.821907e+05   1.119134e+05
   3.453764e+04   1.248295e+05
  -6.551878e+05   2.069349e+05
  -9.768789e+05  -1.327097e+04
  -3.615085e+05  -6.326531e+05
   8.110164e+05  -1.085289e+06
   1.563042e+06  -7.006273e+05
   1.282610e+06   4.069882e+05
   2.537846e+05   1.321495e+06
  -6.997140e+05   1.287095e+06
  -9.769325e+05   4.904013e+05
  -6.185274e+05  -2.325577e+05
  -1.142483e+05  -3.326178e+05
   9.016213e+04  -3.896175e+04
  -6.959163e+04   3.992126e+04
  -3.012513e+05  -3.362081e+05
  -2.503140e+05  -7.592561e+05
   1.687658e+05  -6.309349e+05
   6.424981e+05   1.304422e+05
   6.786859e+05   9.041643e+05
   8.410421e+04   9.575075e+05
  -7.168266e+05   2.069402e+05
  -9.620782e+05  -6.921422e+05
  -3.168682e+05  -1.014340e+06
   6.643480e+05  -6.193556e+05
   1.034508e+06   6.692780e+04
   4.911062e+05   5.483646e+05
  -2.572817e+05   6.134827e+05
  -3.292597e+05   3.464907e+05
   2.550556e+05   2.113684e+04
   6.148543e+05  -3.656895e+04
   1.322831e+05   2.812930e+05
  -7.700741e+05   6.464797e+05
  -1.159946e+06   5.389942e+05
  -6.956606e+05  -1.363749e+05
   8.405447e+04  -8.059457e+05
   4.880127e+05  -8.015807e+05
   3.701451e+05  -1.424626e+05
   3.929626e+04   4.564010e+05
  -2.228161e+05   3.963021e+05
  -3.284096e+05  -1.568287e+05
  -2.393618e+05  -5.396639e+05
   4.777945e+04  -3.804735e+05
   3.642106e+05   4.794832e+04
   4.439100e+05   2.430803e+05
   2.307304e+05   7.515942e+04
  -2.612705e+04  -1.216601e+05
  -8.479666e+04  -5.433530e+03
  -1.823903e+04   3.389033e+05
  -7.909301e+04   4.843953e+05
  -3.025116e+05   1.663034e+05
  -3.996459e+05  -3.710025e+05
  -1.145179e+05  -6.015908e+05
   3.886780e+05  -2.858116e+05
   6.086234e+05   2.674055e+05
   2.304376e+05   5.418576e+05
  -4.661164e+05   3.453235e+05
  -8.142205e+05  -7.014848e+04
  -4.461869e+05  -3.494559e+05
   2.688853e+05  -3.624326e+05
   5.878126e+05  -2.015417e+05
   2.179895e+05  -1.955248e+04
  -3.427770e+05   4.564944e+04
  -3.864467e+05  -8.092966e+04
   1.764032e+05  -2.839433e+05
   7.243296e+05  -2.533675e+05
