
 $NMID
 id='ANONYMOUS ', fmtdat='(2E16.6)'
 volume=1.0
 tramp=1.0
 $END
   1.580093e+07  -1.994121e+05
   1.050671e+07   7.621667e+06
  -1.764749e+05   1.010668e+07
  -6.867843e+06   6.391321e+06
  -5.582973e+06   3.852707e+05
  -2.259071e+05  -2.815839e+06
   3.133421e+06  -1.247706e+06
   2.250882e+06   2.531585e+06
  -8.074535e+05   4.157706e+06
  -2.911196e+06   1.821197e+06
  -2.532994e+06  -1.981673e+06
  -3.653584e+05  -3.218838e+06
   1.482924e+06  -7.294175e+05
   1.220522e+06   2.593236e+06
  -8.921135e+05   3.095213e+06
  -2.605522e+06   2.614542e+05
  -1.939664e+06  -3.063295e+06
   7.014302e+05  -3.893111e+06
   2.988299e+06  -1.901924e+06
   3.101717e+06   8.377643e+05
   1.410472e+06   2.204007e+06
  -1.629499e+05   1.843841e+06
  -1.633607e+05   1.034265e+06
   9.680525e+05   1.108088e+06
   1.347451e+06   2.038090e+06
  -3.094737e+05   2.534052e+06
  -2.994113e+06   1.550284e+06
  -4.128937e+06  -4.459740e+05
  -2.349613e+06  -1.895642e+06
   7.482502e+05  -1.732924e+06
   2.200848e+06  -3.279256e+05
   8.981118e+05   1.015985e+06
  -1.387962e+06   1.179094e+06
  -2.230333e+06  -1.549249e+04
  -1.128594e+06  -1.635829e+06
   4.491962e+05  -2.206726e+06
   1.022728e+06  -1.045776e+06
   4.850367e+05   7.321805e+05
  -2.411007e+05   1.142765e+06
  -3.113628e+05  -3.114928e+05
   3.604367e+05  -1.779841e+06
   1.114183e+06  -1.247613e+06
   1.079085e+06   8.086538e+05
  -1.530163e+02   1.888539e+06
  -1.277721e+06   5.953584e+05
  -1.391555e+06  -1.636286e+06
   1.484145e+05  -2.332271e+06
   2.188164e+06  -8.071638e+05
   2.830850e+06   1.371378e+06
   1.292867e+06   2.305410e+06
  -1.191934e+06   1.508790e+06
  -2.470017e+06  -7.226938e+04
  -1.545927e+06  -1.126876e+06
   4.746295e+05  -9.853278e+05
   1.575003e+06  -2.596130e+04
   9.054470e+05   7.089584e+05
  -4.683405e+05   5.106997e+05
  -9.032812e+05  -2.826785e+05
  -3.876611e+04  -7.051710e+05
   9.112125e+05  -2.722022e+05
   6.598372e+05   5.304291e+05
  -6.495179e+05   8.364025e+05
  -1.598829e+06   2.333958e+05
  -1.028867e+06  -9.599395e+05
   7.605934e+05  -1.924092e+06
   2.338231e+06  -1.811689e+06
   2.537070e+06  -4.049088e+05
   1.462978e+06   1.467030e+06
   1.908996e+05   2.478590e+06
  -3.967586e+05   2.091651e+06
  -3.714133e+05   1.100203e+06
  -4.142745e+05   6.050758e+05
  -9.035674e+05   6.614395e+05
  -1.489899e+06   3.917041e+05
  -1.520888e+06  -6.159199e+05
  -7.365729e+05  -1.563109e+06
   4.540158e+05  -1.361291e+06
   1.250139e+06   5.077861e+03
   1.025905e+06   1.370164e+06
  -1.474496e+05   1.571190e+06
  -1.417118e+06   5.243291e+05
  -1.772576e+06  -8.456732e+05
  -9.826537e+05  -1.547090e+06
   1.513773e+05  -1.343686e+06
   6.748084e+05  -7.750389e+05
   5.565877e+05  -4.826415e+05
   6.220195e+05  -5.473215e+05
   1.363497e+06  -4.814304e+05
   2.131886e+06   1.667853e+05
   1.800736e+06   1.257726e+06
   1.535288e+05   2.103164e+06
  -1.676969e+06   2.025798e+06
  -2.269772e+06   9.408021e+05
  -1.311885e+06  -4.811124e+05
   1.497811e+05  -1.248496e+06
   7.918506e+05  -8.714547e+05
   2.613653e+05   1.195878e+05
  -6.411230e+05   6.353112e+05
  -9.070351e+05   1.829114e+05
  -3.411805e+05  -5.655596e+05
   3.564207e+05  -5.927537e+05
   4.077728e+05   1.605498e+05
  -2.517241e+05   6.537307e+05
  -9.541783e+05   1.563170e+04
  -9.375058e+05  -1.327769e+06
   5.776032e+02  -2.050325e+06
   1.314447e+06  -1.349039e+06
   2.075581e+06   2.507424e+05
   1.679984e+06   1.489721e+06
   4.102123e+05   1.583636e+06
  -7.219179e+05   8.107355e+05
  -8.873227e+05   6.934140e+04
  -2.601194e+05  -2.029601e+04
   2.036265e+05   3.825685e+05
  -1.309827e+05   6.290243e+05
  -8.483350e+05   3.128531e+05
  -1.004078e+06  -3.108875e+05
  -2.854673e+05  -6.331971e+05
   5.686375e+05  -3.555129e+05
   5.804747e+05   2.091314e+05
  -3.547553e+05   4.630896e+05
  -1.297204e+06   8.754862e+04
  -1.212708e+06  -6.789751e+05
  -4.084154e+04  -1.224133e+06
   1.219280e+06  -1.049115e+06
   1.486174e+06  -2.250689e+05
   6.394937e+05   5.843778e+05
  -4.166216e+05   6.918003e+05
  -6.912099e+05   8.933146e+04
  -4.990455e+04  -4.974478e+05
   7.605475e+05  -3.795571e+05
   9.220724e+05   3.272645e+05
   3.123976e+05   8.474764e+05
  -4.633961e+05   6.421971e+05
  -6.973327e+05  -4.814287e+03
  -2.442690e+05  -3.585342e+05
   3.479230e+05  -6.093524e+04
   3.689241e+05   5.239012e+05
  -3.160641e+05   7.326823e+05
  -1.058999e+06   2.657833e+05
  -1.058471e+06  -5.497355e+05
  -2.239518e+05  -1.065463e+06
   6.922480e+05  -8.777405e+05
   8.852610e+05  -1.773516e+05
   3.228769e+05   4.243988e+05
  -3.091438e+05   4.622153e+05
  -3.992010e+05   4.359927e+04
  -1.171351e+03  -3.088371e+05
   3.488515e+05  -2.413924e+05
   2.591141e+05   6.141134e+04
  -1.344255e+05   1.305483e+05
  -3.373292e+05  -2.102836e+05
  -3.703226e+03  -6.024937e+05
   6.795346e+05  -5.163171e+05
   1.100851e+06   1.724468e+05
   7.896146e+05   9.987228e+05
  -8.694469e+04   1.308939e+06
  -8.521176e+05   8.573415e+05
  -9.859519e+05   2.515152e+04
  -6.031091e+05  -5.454301e+05
  -2.227412e+05  -5.456452e+05
  -1.508616e+05  -2.388969e+05
  -2.065029e+05  -1.126719e+05
  -3.772389e+04  -3.191287e+05
   4.099962e+05  -5.111884e+05
   7.872462e+05  -2.615246e+05
   6.620546e+05   3.909603e+05
  -4.886084e+04   8.846544e+05
  -9.101376e+05   6.702980e+05
  -1.243463e+06  -2.044815e+05
  -6.924761e+05  -1.077246e+06
   4.060679e+05  -1.258897e+06
   1.259446e+06  -6.503191e+05
   1.304810e+06   2.107304e+05
   6.753751e+05   6.908655e+05
  -1.336557e+04   6.319089e+05
  -2.890170e+05   3.960806e+05
  -1.985715e+05   3.889023e+05
  -1.230648e+05   5.939250e+05
  -3.137835e+05   6.140206e+05
  -6.308664e+05   1.577456e+05
  -6.978483e+05  -5.700003e+05
  -3.032049e+05  -1.007539e+06
   3.298926e+05  -7.712185e+05
   6.939729e+05  -3.506962e+04
   4.751384e+05   6.229018e+05
  -1.113874e+05   7.367533e+05
  -5.186841e+05   3.226269e+05
  -4.253437e+05  -2.149878e+05
  -4.689204e+04  -4.893529e+05
   1.478539e+05  -4.373866e+05
  -1.238899e+04  -2.730409e+05
  -2.103394e+05  -2.023188e+05
  -2.046918e+04  -2.149277e+05
   5.629393e+05  -1.406255e+05
   1.036763e+06   1.275408e+05
   8.691821e+05   4.883058e+05
   7.373972e+04   7.017662e+05
  -7.391542e+05   5.958076e+05
  -9.357661e+05   2.253794e+05
  -4.763403e+05  -1.475717e+05
   9.121988e+04  -2.554166e+05
   2.426102e+05  -6.625165e+04
  -1.246868e+04   1.609113e+05
  -2.671700e+05   1.232469e+05
  -2.467608e+05  -1.796515e+05
  -6.429135e+04  -4.054810e+05
   1.711152e+04  -2.602822e+05
  -8.022832e+04   1.053657e+05
  -2.044147e+05   2.256669e+05
  -1.636856e+05  -1.117010e+05
   1.032886e+05  -5.533548e+05
   4.643146e+05  -5.616058e+05
   6.331342e+05  -5.407908e+04
   3.717704e+05   4.828152e+05
  -2.113159e+05   5.382712e+05
  -6.153925e+05   1.162228e+05
  -3.843776e+05  -3.237392e+05
   3.479203e+05  -3.680908e+05
   8.825432e+05  -8.521539e+03
   6.485352e+05   4.291795e+05
  -1.722034e+05   5.967829e+05
  -8.162104e+05   3.804128e+05
  -7.310415e+05  -3.165584e+04
  -1.172499e+05  -2.918158e+05
   3.354868e+05  -1.876188e+05
   1.836667e+05   1.297829e+05
  -3.445464e+05   2.481216e+05
  -6.273807e+05  -9.017618e+04
  -3.004803e+05  -6.573419e+05
   3.846497e+05  -8.891549e+05
   8.295607e+05  -4.349995e+05
   6.772446e+05   4.278398e+05
   1.110328e+05   9.824233e+05
  -3.918430e+05   7.443849e+05
  -5.153126e+05  -4.150496e+04
  -2.916474e+05  -6.346449e+05
   4.877208e+04  -5.614488e+05
   2.846972e+05  -7.654289e+04
   3.007842e+05   2.112597e+05
   1.399800e+05   8.925410e+04
   6.272540e+03  -6.763706e+04
   8.147467e+04   1.232686e+05
   2.559719e+05   5.044883e+05
   1.721866e+05   5.939311e+05
  -3.145643e+05   2.303099e+05
  -8.125775e+05  -2.430570e+05
  -7.567491e+05  -4.438477e+05
  -1.122290e+05  -3.648441e+05
   5.087967e+05  -2.271750e+05
   5.503837e+05  -1.244480e+05
   1.539734e+05  -3.211849e+03
  -9.674037e+04   1.178281e+05
   3.990176e+04   1.401903e+05
   2.054560e+05   8.289304e+04
   4.004529e+03   7.556995e+04
  -4.224809e+05   1.067029e+05
  -5.575362e+05  -2.165468e+04
  -1.458720e+05  -3.625198e+05
   5.094110e+05  -6.011071e+05
   8.745807e+05  -3.669701e+05
   6.873572e+05   2.646088e+05
   1.270657e+05   7.687615e+05
  -3.953730e+05   7.232880e+05
  -5.641144e+05   2.512293e+05
  -3.626585e+05  -1.576102e+05
  -4.699515e+04  -1.921549e+05
   8.934160e+04  -1.027386e+03
  -2.446810e+04   4.928869e+04
  -1.902072e+05  -1.798704e+05
  -1.583203e+05  -4.351725e+05
   1.078487e+05  -3.539968e+05
   3.790495e+05   1.037409e+05
   3.649730e+05   5.509272e+05
  -6.635387e+01   5.500288e+05
  -4.401433e+05   7.983203e+04
  -5.400770e+05  -4.386712e+05
  -1.514724e+05  -5.843515e+05
   3.934515e+05  -3.242906e+05
   5.755551e+05   5.624248e+04
   2.548913e+05   2.924560e+05
  -1.509845e+05   3.153745e+05
  -1.592991e+05   1.862946e+05
   1.828657e+05   2.391593e+04
   3.631586e+05  -1.319625e+04
   6.179657e+04   1.564482e+05
  -4.448003e+05   3.728916e+05
  -6.360941e+05   3.284691e+05
  -3.612759e+05  -5.682311e+04
   5.648585e+04  -4.487810e+05
   2.544738e+05  -4.408676e+05
   1.803445e+05  -5.121135e+04
   2.768801e+03   2.786754e+05
  -1.385205e+05   2.078339e+05
  -1.926628e+05  -1.232258e+05
  -1.296220e+05  -3.129775e+05
   4.076674e+04  -1.900447e+05
   2.088354e+05   4.367089e+04
   2.404925e+05   1.209065e+05
   1.299775e+05   2.460653e+04
   4.011200e+03  -4.651457e+04
  -4.344512e+04   4.803524e+04
  -5.483452e+04   2.191333e+05
  -1.143953e+05   2.484852e+05
  -2.003071e+05   3.725517e+04
  -1.882924e+05  -2.575713e+05
  -5.654613e+03  -3.565642e+05
   2.428728e+05  -1.472464e+05
   3.283209e+05   1.809365e+05
   1.134426e+05   3.272150e+05
  -2.607778e+05   1.895826e+05
  -4.494052e+05  -6.199053e+04
  -2.444038e+05  -2.054045e+05
   1.591365e+05  -1.822103e+05
   3.330832e+05  -8.130859e+04
   1.005958e+05  -2.191869e+03
  -2.350063e+05   1.181195e+03
  -2.387112e+05  -8.396121e+04
   1.302868e+05  -1.861305e+05
   4.656077e+05  -1.435176e+05
