
 $NMID
 id='ANONYMOUS ', fmtdat='(2E16.6)'
 volume=1.0
 tramp=1.0
 $END
   5.613253e+07   5.594768e+04
   3.409347e+07   3.458119e+07
  -7.112090e+06   3.808870e+07
  -2.762936e+07   1.500324e+07
  -1.682246e+07  -6.751000e+06
   3.150424e+06  -9.450992e+06
   1.002654e+07   1.025472e+06
   3.006914e+06   9.868283e+06
  -6.216363e+06   9.637968e+06
  -9.788913e+06   2.149662e+06
  -7.020734e+06  -6.287089e+06
  -7.345025e+05  -8.709692e+06
   4.029950e+06  -2.683546e+06
   2.569185e+06   5.640459e+06
  -3.876410e+06   6.730005e+06
  -7.974221e+06  -1.289164e+06
  -4.496870e+06  -1.028201e+07
   3.793248e+06  -1.187896e+07
   1.012532e+07  -5.893549e+06
   1.074815e+07   2.102594e+06
   6.511702e+06   7.430554e+06
   6.954968e+05   8.488616e+06
  -2.730771e+06   6.003580e+06
  -1.662578e+06   2.908527e+06
   1.096838e+06   2.488612e+06
   3.798774e+04   4.326312e+06
  -5.648660e+06   4.257271e+06
  -9.778409e+06   2.387871e+05
  -6.991531e+06  -4.272648e+06
  -8.819993e+04  -4.999399e+06
   3.840063e+06  -2.370192e+06
   2.382448e+06   1.670000e+05
  -8.972027e+05   9.413176e+05
  -2.503853e+06   2.856316e+05
  -2.130204e+06  -1.679105e+06
  -4.661435e+05  -4.018989e+06
   1.874159e+06  -3.776675e+06
   3.076108e+06   1.664466e+05
   1.576798e+06   3.560517e+06
  -6.923094e+05   1.772635e+06
  -1.455770e+05  -2.569449e+06
   2.588190e+06  -2.341764e+06
   2.508618e+06   3.214805e+06
  -2.334475e+06   6.211600e+06
  -6.851051e+06   1.130201e+06
  -5.119440e+06  -6.850239e+06
   1.844766e+06  -8.526509e+06
   7.431888e+06  -2.409053e+06
   7.047095e+06   4.561683e+06
   1.886297e+06   6.200447e+06
  -3.588347e+06   2.794178e+06
  -5.441596e+06  -1.585015e+06
  -2.536228e+06  -3.603313e+06
   2.419334e+06  -2.270115e+06
   4.592167e+06   9.138966e+05
   2.005038e+06   2.745428e+06
  -1.724857e+06   1.385541e+06
  -1.801490e+06  -1.072603e+06
   1.302596e+06  -1.035041e+06
   2.590750e+06   1.648563e+06
  -4.284245e+05   3.451550e+06
  -4.539037e+06   2.015887e+06
  -5.369629e+06  -1.267071e+06
  -2.385387e+06  -3.981954e+06
   1.895569e+06  -5.288661e+06
   5.201566e+06  -4.788999e+06
   6.296269e+06  -1.629410e+06
   4.526851e+06   3.267002e+06
   8.380818e+05   6.267931e+06
  -1.926927e+06   4.893355e+06
  -1.827896e+06   1.356413e+06
  -3.040759e+05  -1.822933e+05
  -1.677340e+05   9.358340e+05
  -1.760518e+06   1.647381e+06
  -2.852087e+06   4.178362e+04
  -1.936761e+06  -2.117795e+06
   1.376605e+05  -2.217848e+06
   1.681121e+06  -1.018656e+05
   1.679194e+06   2.271056e+06
  -1.081928e+05   3.041562e+06
  -2.878364e+06   1.589210e+06
  -4.493522e+06  -1.335182e+06
  -3.172992e+06  -3.846861e+06
   7.980499e+04  -4.233168e+06
   2.283119e+06  -2.712610e+06
   2.240279e+06  -1.171077e+06
   1.894213e+06  -7.274037e+05
   3.075390e+06  -4.704282e+05
   4.509914e+06   8.671985e+05
   3.567632e+06   2.952026e+06
   3.302740e+04   4.306394e+06
  -3.456660e+06   3.968495e+06
  -4.408020e+06   2.051581e+06
  -2.715194e+06  -5.483241e+05
  -1.672616e+05  -2.317146e+06
   1.221434e+06  -1.938733e+06
   5.700663e+05   6.511246e+04
  -1.179475e+06   1.318691e+06
  -1.985642e+06   3.667222e+05
  -9.130580e+05  -1.258794e+06
   5.871666e+05  -1.139554e+06
   4.679047e+05   4.349001e+05
  -1.122964e+06   7.749293e+05
  -1.978022e+06  -1.295479e+06
  -7.158030e+05  -3.655018e+06
   1.673056e+06  -3.648343e+06
   3.353306e+06  -1.216301e+06
   3.518042e+06   1.576062e+06
   2.354506e+06   3.015169e+06
   3.921660e+05   2.790343e+06
  -1.356092e+06   1.489540e+06
  -1.658494e+06   1.765473e+05
  -5.147851e+05  -6.266484e+04
   3.550850e+05   7.983038e+05
  -4.541679e+05   1.391298e+06
  -1.995748e+06   5.661888e+05
  -2.111724e+06  -9.649690e+05
  -3.826911e+05  -1.491222e+06
   1.245871e+06  -5.735952e+05
   9.333251e+05   5.150660e+05
  -9.179966e+05   5.508207e+05
  -2.321264e+06  -3.928865e+05
  -1.821171e+06  -1.507142e+06
   3.257203e+05  -2.097521e+06
   2.491038e+06  -1.678969e+06
   2.925959e+06  -2.054745e+05
   1.245170e+06   1.354207e+06
  -9.900638e+05   1.541984e+06
  -1.624525e+06   1.649252e+05
  -1.796864e+05  -1.123805e+06
   1.607277e+06  -7.286130e+05
   1.788305e+06   8.666954e+05
   3.177339e+05   1.756505e+06
  -1.179791e+06   1.015183e+06
  -1.330542e+06  -3.557954e+05
  -2.499599e+05  -8.358223e+05
   8.340194e+05  -4.377905e+04
   7.414993e+05   1.122592e+06
  -6.472232e+05   1.472675e+06
  -2.120119e+06   5.052059e+05
  -2.101667e+06  -1.162109e+06
  -3.435296e+05  -2.187993e+06
   1.557018e+06  -1.687229e+06
   1.822983e+06  -1.751742e+05
   5.084406e+05   9.309518e+05
  -7.174639e+05   8.296474e+05
  -6.726438e+05   5.283833e+04
   1.446769e+05  -3.921967e+05
   5.455299e+05  -2.036444e+05
   1.400057e+05   9.832376e+04
  -4.793109e+05  -6.774330e+04
  -5.443744e+05  -7.164460e+05
   2.419049e+05  -1.249719e+06
   1.478982e+06  -9.050217e+05
   2.175920e+06   4.959228e+05
   1.480629e+06   2.083665e+06
  -3.037250e+05   2.537965e+06
  -1.750761e+06   1.439997e+06
  -1.786237e+06  -1.887014e+05
  -8.749739e+05  -9.905057e+05
  -2.930278e+05  -7.167105e+05
  -4.704222e+05  -2.431713e+05
  -6.435154e+05  -3.289562e+05
  -8.058217e+04  -7.961316e+05
   9.471611e+05  -9.262601e+05
   1.541267e+06  -2.992478e+05
   1.085076e+06   8.040067e+05
  -3.152504e+05   1.541366e+06
  -1.851509e+06   1.078420e+06
  -2.352290e+06  -5.799764e+05
  -1.133968e+06  -2.246147e+06
   1.124169e+06  -2.464854e+06
   2.704376e+06  -1.019875e+06
   2.465405e+06   7.619381e+05
   9.751425e+05   1.452501e+06
  -2.541345e+05   1.006331e+06
  -4.452394e+05   5.225102e+05
  -1.160480e+05   7.681461e+05
  -1.422674e+05   1.351946e+06
  -7.316714e+05   1.330325e+06
  -1.361172e+06   2.999809e+05
  -1.369273e+06  -1.172456e+06
  -5.261138e+05  -2.005128e+06
   6.972626e+05  -1.488861e+06
   1.353270e+06   4.098803e+04
   8.219020e+05   1.372406e+06
  -4.458628e+05   1.462984e+06
  -1.237813e+06   4.079884e+05
  -8.467979e+05  -7.454160e+05
   1.454523e+05  -1.131838e+06
   5.804344e+05  -8.210858e+05
   1.044344e+05  -4.437745e+05
  -4.403599e+05  -3.645215e+05
  -4.922734e+04  -4.032953e+05
   1.211800e+06  -1.923605e+05
   2.155949e+06   4.018839e+05
   1.672395e+06   1.134408e+06
  -7.117262e+04   1.511331e+06
  -1.694592e+06   1.159585e+06
  -1.936625e+06   2.439209e+05
  -8.745814e+05  -5.414515e+05
   2.830802e+05  -5.919622e+05
   5.418669e+05  -2.574191e+04
   2.559677e+04   4.362869e+05
  -4.720108e+05   2.538785e+05
  -4.951967e+05  -3.716488e+05
  -2.399149e+05  -7.584184e+05
  -8.387800e+04  -4.977264e+05
  -1.536291e+05   9.632547e+04
  -3.117508e+05   2.940792e+05
  -2.839200e+05  -2.537537e+05
   1.814135e+05  -1.028337e+06
   9.735922e+05  -1.093770e+06
   1.427433e+06  -1.543488e+05
   8.667020e+05   9.743505e+05
  -4.600439e+05   1.183647e+06
  -1.321228e+06   3.238979e+05
  -7.515706e+05  -6.215123e+05
   7.582337e+05  -6.631905e+05
   1.671098e+06   1.515526e+05
   1.033637e+06   9.489691e+05
  -5.457715e+05   1.033612e+06
  -1.601761e+06   4.551929e+05
  -1.296049e+06  -2.462555e+05
  -1.230063e+05  -5.487987e+05
   6.951566e+05  -2.640454e+05
   3.988063e+05   3.179602e+05
  -6.240432e+05   5.298632e+05
  -1.235288e+06  -1.141267e+05
  -6.738745e+05  -1.250443e+06
   6.576225e+05  -1.766903e+06
   1.575540e+06  -8.906757e+05
   1.297517e+06   8.277812e+05
   1.631266e+05   1.887295e+06
  -8.192252e+05   1.337546e+06
  -9.726021e+05  -2.172594e+05
  -4.162287e+05  -1.272201e+06
   2.687693e+05  -1.016851e+06
   5.986252e+05  -7.193037e+04
   4.734386e+05   4.144688e+05
   1.605816e+05   1.532686e+05
   5.785160e+04  -9.938093e+04
   2.985524e+05   3.139875e+05
   5.142817e+05   1.029078e+06
   1.618930e+05   1.145341e+06
  -7.726790e+05   4.022056e+05
  -1.536999e+06  -5.305783e+05
  -1.315634e+06  -9.220480e+05
  -1.758776e+05  -7.424273e+05
   9.005814e+05  -4.133860e+05
   1.039476e+06  -1.600418e+05
   3.883088e+05   6.546572e+04
  -1.551219e+05   2.322341e+05
  -5.640387e+04   2.165146e+05
   2.611892e+05   1.071978e+05
   5.402430e+04   1.378786e+05
  -6.865118e+05   2.292082e+05
  -1.100462e+06  -3.227566e+04
  -4.585653e+05  -7.303065e+05
   8.965452e+05  -1.220810e+06
   1.809548e+06  -7.712359e+05
   1.487705e+06   4.696300e+05
   2.620185e+05   1.480759e+06
  -8.395701e+05   1.436797e+06
  -1.112121e+06   5.527943e+05
  -6.787025e+05  -2.519610e+05
  -1.392659e+05  -3.774039e+05
   5.890813e+04  -7.105530e+04
  -9.519485e+04   8.104091e+03
  -3.031704e+05  -4.014572e+05
  -2.362044e+05  -8.589818e+05
   1.985788e+05  -7.129312e+05
   7.067222e+05   1.319516e+05
   7.635468e+05   1.001484e+06
   1.201175e+05   1.082223e+06
  -7.808682e+05   2.581960e+05
  -1.074674e+06  -7.609279e+05
  -3.571391e+05  -1.149893e+06
   7.558644e+05  -7.108338e+05
   1.182190e+06   9.189810e+04
   5.616435e+05   6.626122e+05
  -3.104007e+05   7.240438e+05
  -4.189332e+05   3.887674e+05
   2.423503e+05   1.405341e+04
   6.792200e+05  -2.998187e+04
   1.550350e+05   3.280237e+05
  -8.827699e+05   6.961392e+05
  -1.353887e+06   5.368528e+05
  -8.193980e+05  -2.082722e+05
   1.141582e+05  -9.189582e+05
   6.092423e+05  -9.022785e+05
   4.631444e+05  -1.801329e+05
   5.416901e+04   4.952864e+05
  -2.533054e+05   4.618567e+05
  -3.617497e+05  -1.464270e+05
  -2.593244e+05  -6.106931e+05
   5.411200e+04  -4.613069e+05
   4.090526e+05   4.681369e+04
   5.046228e+05   3.127081e+05
   2.569275e+05   1.154274e+05
  -4.546304e+04  -1.681131e+05
  -9.510806e+04  -7.224974e+04
   2.490119e+04   3.547574e+05
  -2.495394e+04   5.850575e+05
  -3.196556e+05   2.503165e+05
  -4.908970e+05  -3.806260e+05
  -1.820677e+05  -6.723017e+05
   4.238614e+05  -3.297753e+05
   7.021560e+05   2.903576e+05
   2.642829e+05   5.982507e+05
  -5.442204e+05   3.805437e+05
  -9.352356e+05  -8.291773e+04
  -5.030417e+05  -4.031109e+05
   3.115285e+05  -4.292586e+05
   6.758660e+05  -2.469942e+05
   2.764170e+05  -2.229083e+04
  -3.422682e+05   7.457714e+04
  -4.145996e+05  -5.632624e+04
   1.693957e+05  -2.875525e+05
   7.605656e+05  -2.672095e+05
