
 $NMID
 id='ANONYMOUS ', fmtdat='(2E16.6)'
 volume=1.0
 tramp=1.0
 $END
   4.460136e+07  -6.379781e+05
   2.789640e+07   2.573186e+07
  -4.135552e+06   2.983521e+07
  -2.109446e+07   1.354478e+07
  -1.385062e+07  -3.668316e+06
   1.677441e+06  -7.574407e+06
   8.084740e+06  -2.966950e+05
   3.380192e+06   7.567690e+06
  -4.148107e+06   8.597633e+06
  -7.785554e+06   2.601356e+06
  -6.015324e+06  -5.029770e+06
  -8.203367e+05  -7.401207e+06
   3.401029e+06  -2.177990e+06
   2.477794e+06   5.076282e+06
  -2.814776e+06   6.150831e+06
  -6.547089e+06  -5.213915e+05
  -4.121211e+06  -8.198882e+06
   2.629836e+06  -9.815205e+06
   8.067600e+06  -4.951011e+06
   8.630021e+06   1.720614e+06
   4.982826e+06   5.941207e+06
   3.716213e+05   6.409044e+06
  -1.758113e+06   4.339028e+06
  -3.454698e+05   2.432148e+06
   1.647380e+06   2.773630e+06
  -5.810573e+04   4.309441e+06
  -5.336378e+06   3.748459e+06
  -8.689715e+06   3.425301e+04
  -5.885883e+06  -3.751525e+06
   3.605970e+05  -4.226565e+06
   3.771100e+06  -1.767123e+06
   2.098268e+06   7.225132e+05
  -1.384758e+06   1.415297e+06
  -2.981045e+06   2.797825e+05
  -2.122955e+06  -2.035848e+06
  -9.983908e+04  -3.921953e+06
   1.773940e+06  -3.040262e+06
   2.241504e+06   5.668853e+05
   8.535366e+05   2.945246e+06
  -6.563346e+05   8.975452e+05
   5.681292e+04  -2.748728e+06
   2.249795e+06  -2.290642e+06
   2.261321e+06   2.445343e+06
  -1.361354e+06   5.010237e+06
  -4.995964e+06   1.105072e+06
  -4.084644e+06  -5.208577e+06
   1.148830e+06  -6.728023e+06
   5.938360e+06  -2.075025e+06
   6.198263e+06   3.564350e+06
   2.085703e+06   5.227474e+06
  -2.898957e+06   2.734037e+06
  -4.925238e+06  -9.086587e+05
  -2.597654e+06  -2.861593e+06
   1.743986e+06  -2.039147e+06
   3.823328e+06   4.804615e+05
   1.838219e+06   2.098942e+06
  -1.337567e+06   1.194337e+06
  -1.697479e+06  -7.979479e+05
   7.368817e+05  -1.078197e+06
   2.148226e+06   7.967788e+05
   1.722220e+05   2.413724e+06
  -3.165088e+06   1.782354e+06
  -4.301983e+06  -5.674469e+05
  -2.156782e+06  -3.016571e+06
   1.577116e+06  -4.518644e+06
   4.627700e+06  -4.210218e+06
   5.488141e+06  -1.366962e+06
   3.785092e+06   2.896436e+06
   7.409726e+05   5.439337e+06
  -1.346386e+06   4.362754e+06
  -1.304121e+06   1.554261e+06
  -4.184291e+05   3.041823e+05
  -6.567242e+05   1.054008e+06
  -2.032085e+06   1.337513e+06
  -2.768145e+06  -3.038591e+05
  -1.740663e+06  -2.278812e+06
   3.126378e+05  -2.265095e+06
   1.839236e+06  -1.214749e+05
   1.757764e+06   2.228452e+06
  -8.943334e+04   2.887868e+06
  -2.660251e+06   1.376951e+06
  -3.941294e+06  -1.291531e+06
  -2.645468e+06  -3.322284e+06
   9.646996e+04  -3.472195e+06
   1.808918e+06  -2.188328e+06
   1.713039e+06  -1.047779e+06
   1.536322e+06  -8.236928e+05
   2.741969e+06  -6.587598e+05
   4.147381e+06   5.451204e+05
   3.405605e+06   2.541477e+06
   2.138411e+05   3.991035e+06
  -3.111645e+06   3.817810e+06
  -4.128705e+06   1.969690e+06
  -2.537054e+06  -5.882300e+05
  -6.327918e+04  -2.237460e+06
   1.222050e+06  -1.790382e+06
   5.243614e+05   1.051279e+05
  -1.108817e+06   1.248266e+06
  -1.794365e+06   3.830638e+05
  -8.047920e+05  -1.122667e+06
   5.621820e+05  -1.098289e+06
   5.559955e+05   3.491162e+05
  -8.175410e+05   9.039965e+05
  -1.818733e+06  -7.416110e+05
  -1.098193e+06  -3.048315e+06
   9.291624e+05  -3.550553e+06
   2.833889e+06  -1.672877e+06
   3.503378e+06   1.029339e+06
   2.597787e+06   2.728459e+06
   5.802163e+05   2.713279e+06
  -1.260684e+06   1.471056e+06
  -1.587685e+06   1.944521e+05
  -4.846682e+05  -3.947602e+04
   3.661157e+05   7.269455e+05
  -3.356174e+05   1.263568e+06
  -1.756761e+06   5.853102e+05
  -1.954576e+06  -7.473145e+05
  -4.460852e+05  -1.308154e+06
   1.113626e+06  -6.055604e+05
   9.552129e+05   4.231426e+05
  -7.692366e+05   6.510496e+05
  -2.253978e+06  -1.243258e+05
  -1.930085e+06  -1.304163e+06
   1.155997e+05  -2.072633e+06
   2.265064e+06  -1.762375e+06
   2.742638e+06  -3.393440e+05
   1.202029e+06   1.178302e+06
  -8.456652e+05   1.410002e+06
  -1.438099e+06   1.886903e+05
  -1.638813e+05  -1.008250e+06
   1.459293e+06  -7.255282e+05
   1.705400e+06   7.005396e+05
   4.348152e+05   1.607869e+06
  -9.912496e+05   1.056432e+06
  -1.263566e+06  -1.889058e+05
  -3.262081e+05  -7.305849e+05
   7.326147e+05  -8.000787e+04
   7.154267e+05   1.010784e+06
  -5.689092e+05   1.390517e+06
  -1.972626e+06   5.288637e+05
  -1.997145e+06  -1.020223e+06
  -4.031306e+05  -2.019309e+06
   1.361670e+06  -1.631958e+06
   1.680334e+06  -2.622160e+05
   5.391036e+05   8.287478e+05
  -6.176520e+05   8.202172e+05
  -6.675641e+05   7.961234e+04
   7.291625e+04  -4.384629e+05
   5.472252e+05  -2.971298e+05
   2.559487e+05   8.593302e+04
  -3.731066e+05   4.730833e+04
  -5.595189e+05  -5.595443e+05
   1.192758e+05  -1.154252e+06
   1.322347e+06  -9.185967e+05
   2.052768e+06   3.658967e+05
   1.462863e+06   1.887118e+06
  -1.825268e+05   2.405486e+06
  -1.583344e+06   1.475566e+06
  -1.729808e+06  -5.316736e+04
  -9.522907e+05  -9.299280e+05
  -3.517026e+05  -7.809289e+05
  -3.989134e+05  -2.981685e+05
  -5.326230e+05  -2.673720e+05
  -8.704654e+04  -6.934367e+05
   8.224444e+05  -9.165212e+05
   1.441305e+06  -3.883814e+05
   1.111390e+06   7.145702e+05
  -1.833902e+05   1.518166e+06
  -1.692029e+06   1.135581e+06
  -2.254509e+06  -4.308772e+05
  -1.190795e+06  -2.040667e+06
   8.948189e+05  -2.341097e+06
   2.440969e+06  -1.101134e+06
   2.362056e+06   5.432907e+05
   1.065176e+06   1.303642e+06
  -1.338799e+05   1.024287e+06
  -4.397825e+05   5.905799e+05
  -1.817618e+05   7.337442e+05
  -1.411097e+05   1.219492e+06
  -6.245166e+05   1.226166e+06
  -1.235302e+06   3.136854e+05
  -1.316326e+06  -1.055696e+06
  -5.642485e+05  -1.866537e+06
   6.054964e+05  -1.426099e+06
   1.275862e+06  -2.909268e+04
   8.381591e+05   1.221830e+06
  -3.121344e+05   1.376625e+06
  -1.077932e+06   4.803870e+05
  -8.013774e+05  -5.770992e+05
   3.821197e+04  -1.006469e+06
   4.315443e+05  -7.904962e+05
   4.282295e+04  -4.468795e+05
  -4.157691e+05  -3.450674e+05
  -5.345256e+04  -3.856235e+05
   1.100283e+06  -2.336478e+05
   1.997325e+06   2.829401e+05
   1.608281e+06   9.717269e+05
   3.451175e+04   1.375367e+06
  -1.490108e+06   1.127820e+06
  -1.780617e+06   3.369692e+05
  -8.487143e+05  -4.053769e+05
   2.218221e+05  -5.315586e+05
   4.853786e+05  -6.904887e+04
   1.412963e+04   3.729155e+05
  -4.566246e+05   2.483358e+05
  -4.714641e+05  -3.328374e+05
  -2.078352e+05  -7.254038e+05
  -5.256627e+04  -4.753306e+05
  -1.404203e+05   1.308931e+05
  -3.118819e+05   3.361336e+05
  -2.848271e+05  -2.204725e+05
   1.524501e+05  -9.936264e+05
   8.720150e+05  -1.054518e+06
   1.283154e+06  -1.566914e+05
   7.938480e+05   8.941694e+05
  -3.954731e+05   1.083370e+06
  -1.203957e+06   3.010222e+05
  -7.244602e+05  -5.728852e+05
   6.726870e+05  -6.599893e+05
   1.593648e+06   4.664375e+04
   1.071781e+06   8.278978e+05
  -4.177789e+05   1.025796e+06
  -1.490197e+06   5.621715e+05
  -1.267227e+06  -1.371087e+05
  -1.646666e+05  -5.189168e+05
   6.337347e+05  -2.980482e+05
   3.686127e+05   2.709534e+05
  -5.945511e+05   5.015372e+05
  -1.167873e+06  -9.969305e+04
  -6.380039e+05  -1.178885e+06
   6.114285e+05  -1.677015e+06
   1.482998e+06  -8.660239e+05
   1.253348e+06   7.529750e+05
   2.171417e+05   1.787095e+06
  -7.207001e+05   1.318980e+06
  -9.303412e+05  -1.363696e+05
  -4.723696e+05  -1.175926e+06
   1.702698e+05  -9.871629e+05
   5.471044e+05  -1.060407e+05
   4.942864e+05   3.760489e+05
   1.930381e+05   1.442501e+05
   3.614720e+04  -1.045008e+05
   2.409002e+05   2.699171e+05
   5.036014e+05   9.457341e+05
   2.377306e+05   1.076872e+06
  -6.664613e+05   4.084617e+05
  -1.478577e+06  -4.449089e+05
  -1.315809e+06  -8.163876e+05
  -1.968267e+05  -6.857945e+05
   8.705118e+05  -4.245895e+05
   9.868931e+05  -2.040463e+05
   3.370535e+05   3.192356e+04
  -1.521941e+05   2.233518e+05
  -1.962846e+03   2.203376e+05
   2.971197e+05   1.086699e+05
   3.924088e+04   1.337074e+05
  -6.893805e+05   2.301756e+05
  -1.036483e+06  -8.414065e+03
  -3.921681e+05  -6.772396e+05
   8.519618e+05  -1.161663e+06
   1.659094e+06  -7.494898e+05
   1.369630e+06   4.288853e+05
   2.782942e+05   1.399530e+06
  -7.378024e+05   1.366408e+06
  -1.035969e+06   5.272453e+05
  -6.584108e+05  -2.395719e+05
  -1.245615e+05  -3.540244e+05
   9.435647e+04  -4.946054e+04
  -7.122162e+04   3.740415e+04
  -3.165748e+05  -3.532814e+05
  -2.668941e+05  -8.002597e+05
   1.755177e+05  -6.711141e+05
   6.837994e+05   1.302959e+05
   7.301822e+05   9.540356e+05
   9.892370e+04   1.020423e+06
  -7.606235e+05   2.310029e+05
  -1.029305e+06  -7.255868e+05
  -3.437693e+05  -1.076704e+06
   7.038269e+05  -6.639039e+05
   1.100030e+06   6.690151e+04
   5.218745e+05   5.845724e+05
  -2.746399e+05   6.548878e+05
  -3.518112e+05   3.651458e+05
   2.681429e+05   1.454094e+04
   6.508170e+05  -4.383518e+04
   1.420673e+05   2.998752e+05
  -8.116322e+05   6.882513e+05
  -1.225756e+06   5.695983e+05
  -7.380034e+05  -1.490909e+05
   8.634746e+04  -8.563706e+05
   5.185220e+05  -8.491208e+05
   3.992310e+05  -1.509548e+05
   4.832123e+04   4.842148e+05
  -2.359011e+05   4.242503e+05
  -3.529529e+05  -1.603778e+05
  -2.572156e+05  -5.710323e+05
   5.163333e+04  -4.080396e+05
   3.882475e+05   4.732819e+04
   4.698591e+05   2.593592e+05
   2.421377e+05   8.086056e+04
  -2.676699e+04  -1.339646e+05
  -8.269955e+04  -1.159414e+04
  -9.275445e+03   3.628769e+05
  -7.850412e+04   5.266975e+05
  -3.253772e+05   1.877197e+05
  -4.359346e+05  -3.922973e+05
  -1.321381e+05  -6.441651e+05
   4.105740e+05  -3.091256e+05
   6.518996e+05   2.805090e+05
   2.508602e+05   5.736421e+05
  -4.938670e+05   3.676126e+05
  -8.674398e+05  -7.083384e+04
  -4.759669e+05  -3.690790e+05
   2.862710e+05  -3.884566e+05
   6.269707e+05  -2.192229e+05
   2.347539e+05  -1.902428e+04
  -3.622656e+05   5.843468e+04
  -4.133549e+05  -7.723690e+04
   1.787656e+05  -3.033182e+05
   7.605687e+05  -2.793622e+05
