
 $NMID
 id='ANONYMOUS ', fmtdat='(2E16.6)'
 volume=1.0
 tramp=1.0
 $END
  -4.727975e+07  -7.901686e+05
  -2.823622e+07  -2.875041e+07
   5.990860e+06  -3.150010e+07
   2.285102e+07  -1.287763e+07
   1.403298e+07   4.988723e+06
  -2.376481e+06   7.802650e+06
  -8.315994e+06  -4.187260e+05
  -2.852416e+06  -8.062842e+06
   4.828354e+06  -8.405546e+06
   8.153805e+06  -2.124905e+06
   6.052844e+06   5.393798e+06
   6.610334e+05   7.599144e+06
  -3.563995e+06   2.241635e+06
  -2.409928e+06  -5.079310e+06
   3.114604e+06  -6.016029e+06
   6.736857e+06   9.246955e+05
   3.907564e+06   8.688878e+06
  -3.152802e+06   1.009656e+07
  -8.628330e+06   4.928170e+06
  -9.090116e+06  -2.002916e+06
  -5.244994e+06  -6.459356e+06
  -2.515731e+05  -7.021571e+06
   2.270533e+06  -4.691662e+06
   8.831187e+05  -2.311663e+06
  -1.465205e+06  -2.435445e+06
  -5.371032e+04  -4.168493e+06
   5.274707e+06  -3.844754e+06
   8.816849e+06  -8.078907e+04
   6.069400e+06   3.896125e+06
  -2.308885e+05   4.447926e+06
  -3.726624e+06   1.986118e+06
  -2.233509e+06  -4.910168e+05
   1.039737e+06  -1.280057e+06
   2.675758e+06  -4.008666e+05
   2.135619e+06   1.780923e+06
   2.890900e+05   3.864141e+06
  -1.812816e+06   3.222548e+06
  -2.554731e+06  -4.885219e+05
  -1.051061e+06  -3.177491e+06
   7.741253e+05  -1.210843e+06
   1.012000e+05   2.607548e+06
  -2.264093e+06   2.205725e+06
  -2.185161e+06  -2.655239e+06
   1.802929e+06  -5.152564e+06
   5.516516e+06  -8.531973e+05
   4.153377e+06   5.752946e+06
  -1.556872e+06   7.081192e+06
  -6.315132e+06   1.983531e+06
  -6.191215e+06  -3.851296e+06
  -1.857526e+06  -5.339243e+06
   3.021677e+06  -2.588147e+06
   4.842707e+06   1.140255e+06
   2.398108e+06   2.987562e+06
  -1.948034e+06   1.968231e+06
  -3.914901e+06  -6.953659e+05
  -1.759572e+06  -2.268846e+06
   1.451323e+06  -1.181839e+06
   1.640652e+06   8.642723e+05
  -9.068600e+05   9.394229e+05
  -2.112953e+06  -1.137455e+06
   2.005206e+05  -2.627485e+06
   3.590293e+06  -1.634250e+06
   4.448779e+06   9.213771e+05
   2.056219e+06   3.278688e+06
  -1.688481e+06   4.620242e+06
  -4.694920e+06   4.259799e+06
  -5.611896e+06   1.379113e+06
  -3.918306e+06  -2.986278e+06
  -7.069161e+05  -5.556775e+06
   1.534724e+06  -4.328572e+06
   1.398572e+06  -1.351213e+06
   2.697575e+05  -1.273480e+05
   4.009193e+05  -1.060351e+06
   1.876348e+06  -1.488850e+06
   2.758161e+06   1.228967e+05
   1.816205e+06   2.131785e+06
  -1.869692e+05   2.194314e+06
  -1.702635e+06   1.656371e+05
  -1.690479e+06  -2.117941e+06
   7.020853e+04  -2.835891e+06
   2.655334e+06  -1.416274e+06
   4.020587e+06   1.282423e+06
   2.720373e+06   3.440550e+06
  -1.516400e+05   3.639977e+06
  -1.972503e+06   2.262004e+06
  -1.854508e+06   9.985745e+05
  -1.586705e+06   7.223718e+05
  -2.724861e+06   5.529288e+05
  -4.086575e+06  -6.373972e+05
  -3.314590e+06  -2.571919e+06
  -1.519826e+05  -3.928048e+06
   3.085883e+06  -3.727638e+06
   4.058923e+06  -1.951126e+06
   2.525997e+06   5.365928e+05
   1.263945e+05   2.199218e+06
  -1.169380e+06   1.799888e+06
  -5.306368e+05  -8.539533e+04
   1.085123e+06  -1.235652e+06
   1.792100e+06  -3.602142e+05
   8.125518e+05   1.137865e+06
  -5.401399e+05   1.077419e+06
  -4.930113e+05  -3.467336e+05
   8.699679e+05  -7.837897e+05
   1.734651e+06   9.246064e+05
   8.596837e+05   3.087247e+06
  -1.140035e+06   3.346429e+06
  -2.824669e+06   1.393541e+06
  -3.301814e+06  -1.145617e+06
  -2.402007e+06  -2.650989e+06
  -5.183520e+05  -2.598254e+06
   1.226928e+06  -1.427543e+06
   1.547714e+06  -1.951752e+05
   4.743472e+05   4.380866e+04
  -3.486714e+05  -7.194193e+05
   3.688342e+05  -1.252103e+06
   1.770603e+06  -5.462039e+05
   1.918666e+06   7.972778e+05
   3.957978e+05   1.312967e+06
  -1.108698e+06   5.676178e+05
  -9.035197e+05  -4.238943e+05
   7.701873e+05  -5.772523e+05
   2.152703e+06   1.959066e+05
   1.803310e+06   1.282477e+06
  -1.616474e+05   1.970860e+06
  -2.222788e+06   1.664171e+06
  -2.681305e+06   2.905926e+05
  -1.163616e+06  -1.188837e+06
   8.678937e+05  -1.398262e+06
   1.449009e+06  -1.654992e+05
   1.616825e+05   1.015291e+06
  -1.450003e+06   6.997163e+05
  -1.657457e+06  -7.236147e+05
  -3.749754e+05  -1.578285e+06
   1.003133e+06  -9.857775e+05
   1.217855e+06   2.372056e+05
   2.788291e+05   7.269767e+05
  -7.381266e+05   5.958242e+04
  -6.986309e+05  -1.007952e+06
   5.665773e+05  -1.367287e+06
   1.941822e+06  -5.099990e+05
   1.956076e+06   1.019132e+06
   3.714083e+05   1.991269e+06
  -1.367146e+06   1.582153e+06
  -1.652849e+06   2.227935e+05
  -5.031921e+05  -8.235275e+05
   6.215146e+05  -7.868697e+05
   6.389409e+05  -7.592179e+04
  -8.303405e+04   3.943210e+05
  -5.057862e+05   2.597260e+05
  -2.011073e+05  -6.420294e+04
   3.802023e+05   9.570207e+03
   5.163922e+05   5.864339e+05
  -1.575878e+05   1.129070e+06
  -1.314235e+06   8.756110e+05
  -2.007188e+06  -3.869530e+05
  -1.414222e+06  -1.868911e+06
   2.032447e+05  -2.347965e+06
   1.557007e+06  -1.404453e+06
   1.663938e+06   8.397150e+04
   8.907040e+05   8.889453e+05
   3.382279e+05   7.098416e+05
   4.252257e+05   2.693604e+05
   5.502680e+05   2.892653e+05
   7.702777e+04   7.036616e+05
  -8.244876e+05   8.788201e+05
  -1.403012e+06   3.478379e+05
  -1.056006e+06  -6.976907e+05
   2.049629e+05  -1.450220e+06
   1.659871e+06  -1.073164e+06
   2.189157e+06   4.492623e+05
   1.124796e+06   2.012960e+06
  -9.298479e+05   2.278078e+06
  -2.418227e+06   1.026368e+06
  -2.285638e+06  -5.844533e+05
  -9.870225e+05  -1.279315e+06
   1.556360e+05  -9.608306e+05
   4.040105e+05  -5.476394e+05
   1.419975e+05  -7.322770e+05
   1.365479e+05  -1.226250e+06
   6.381395e+05  -1.212967e+06
   1.229314e+06  -2.971097e+05
   1.285498e+06   1.046685e+06
   5.371093e+05   1.833058e+06
  -6.039338e+05   1.391259e+06
  -1.245439e+06   9.812361e+03
  -7.963579e+05  -1.216843e+06
   3.427927e+05  -1.341361e+06
   1.079359e+06  -4.265077e+05
   7.714728e+05   6.141764e+05
  -8.135316e+04   1.000369e+06
  -4.645968e+05   7.558972e+05
  -5.744376e+04   4.194033e+05
   4.118803e+05   3.358168e+05
   5.358001e+04   3.757004e+05
  -1.090518e+06   2.096399e+05
  -1.967889e+06  -3.092745e+05
  -1.561989e+06  -9.805204e+05
   6.152962e+03  -1.358395e+06
   1.498327e+06  -1.089800e+06
   1.752493e+06  -2.928927e+05
   8.115638e+05   4.328629e+05
  -2.375802e+05   5.287115e+05
  -4.806329e+05   4.882117e+04
  -1.453025e+04  -3.843943e+05
   4.412979e+05  -2.457609e+05
   4.616708e+05   3.307735e+05
   2.192309e+05   7.112625e+05
   6.720045e+04   4.694587e+05
   1.323637e+05  -1.125420e+05
   2.873926e+05  -3.121025e+05
   2.721674e+05   2.194662e+05
  -1.460341e+05   9.663700e+05
  -8.658387e+05   1.028070e+06
  -1.286662e+06   1.493787e+05
  -7.942096e+05  -8.884726e+05
   4.025171e+05  -1.077116e+06
   1.201268e+06  -3.003735e+05
   7.087793e+05   5.615601e+05
  -6.693496e+05   6.334067e+05
  -1.546190e+06  -7.127141e+04
  -1.010068e+06  -8.190752e+05
   4.355753e+05  -9.758968e+05
   1.449731e+06  -5.060120e+05
   1.214533e+06   1.577187e+05
   1.459848e+05   5.012186e+05
  -6.229987e+05   2.742542e+05
  -3.635138e+05  -2.773935e+05
   5.788954e+05  -4.986254e+05
   1.148272e+06   9.226818e+04
   6.358714e+05   1.155786e+06
  -5.915127e+05   1.649780e+06
  -1.450612e+06   8.522374e+05
  -1.222599e+06  -7.387698e+05
  -2.018167e+05  -1.744495e+06
   7.119813e+05  -1.271540e+06
   9.004159e+05   1.536639e+05
   4.368444e+05   1.151232e+06
  -1.902538e+05   9.481405e+05
  -5.389914e+05   8.992895e+04
  -4.673049e+05  -3.649822e+05
  -1.738862e+05  -1.340583e+05
  -4.079279e+04   9.565807e+04
  -2.519020e+05  -2.814474e+05
  -4.910886e+05  -9.347581e+05
  -2.060668e+05  -1.046165e+06
   6.743492e+05  -3.849037e+05
   1.437930e+06   4.454861e+05
   1.261675e+06   8.039680e+05
   1.837187e+05   6.746166e+05
  -8.394003e+05   4.134136e+05
  -9.587647e+05   1.872124e+05
  -3.393480e+05  -4.599230e+04
   1.451100e+05  -2.201153e+05
   1.902287e+04  -2.018535e+05
  -2.735464e+05  -9.334837e+04
  -4.524654e+04  -1.317343e+05
   6.572749e+05  -2.327734e+05
   1.017591e+06   9.913924e+03
   4.060528e+05   6.751477e+05
  -8.258547e+05   1.146747e+06
  -1.644014e+06   7.333083e+05
  -1.363182e+06  -4.232729e+05
  -2.719142e+05  -1.369442e+06
   7.367351e+05  -1.337321e+06
   1.020366e+06  -5.223780e+05
   6.427978e+05   2.271166e+05
   1.278966e+05   3.495453e+05
  -7.921982e+04   6.301392e+04
   7.273353e+04  -2.200762e+04
   2.975334e+05   3.510322e+05
   2.488473e+05   7.829624e+05
  -1.729642e+05   6.607786e+05
  -6.680712e+05  -1.179824e+05
  -7.233475e+05  -9.283611e+05
  -1.108314e+05  -1.006344e+06
   7.391287e+05  -2.421169e+05
   1.013431e+06   7.008919e+05
   3.422772e+05   1.059546e+06
  -6.927503e+05   6.600743e+05
  -1.086488e+06  -6.825517e+04
  -5.149688e+05  -5.896371e+05
   2.774723e+05  -6.555693e+05
   3.619243e+05  -3.558703e+05
  -2.477478e+05  -5.447226e+03
  -6.335918e+05   4.321928e+04
  -1.422900e+05  -2.987375e+05
   7.975379e+05  -6.670411e+05
   1.213596e+06  -5.353149e+05
   7.344816e+05   1.665929e+05
  -8.921221e+04   8.445764e+05
  -5.277705e+05   8.315165e+05
  -4.105402e+05   1.534108e+05
  -5.506184e+04  -4.696444e+05
   2.321203e+05  -4.236349e+05
   3.473236e+05   1.440947e+05
   2.514198e+05   5.602577e+05
  -5.189604e+04   4.134146e+05
  -3.820692e+05  -4.201373e+04
  -4.612866e+05  -2.676282e+05
  -2.345242e+05  -8.947671e+04
   3.010413e+04   1.445168e+05
   7.531596e+04   3.543454e+04
  -1.172192e+04  -3.508313e+05
   5.458122e+04  -5.383637e+05
   3.167744e+05  -2.111382e+05
   4.486555e+05   3.734790e+05
   1.529380e+05   6.353321e+05
  -3.976894e+05   3.099018e+05
  -6.492180e+05  -2.701712e+05
  -2.521023e+05  -5.586816e+05
   4.901081e+05  -3.588501e+05
   8.593951e+05   6.868632e+04
   4.689007e+05   3.641953e+05
  -2.847427e+05   3.901522e+05
  -6.221861e+05   2.244542e+05
  -2.420340e+05   1.708883e+04
   3.417839e+05  -7.148916e+04
   4.021181e+05   5.941341e+04
  -1.607188e+05   2.896656e+05
  -7.243437e+05   2.762371e+05
