
 $NMID
 id='ANONYMOUS ', fmtdat='(2E16.6)'
 volume=1.0
 tramp=1.0
 $END
   2.938097e+07  -2.834029e+05
   1.947101e+07   1.459895e+07
  -6.265039e+05   1.898715e+07
  -1.305482e+07   1.155111e+07
  -1.036585e+07   2.760859e+05
  -2.213749e+05  -5.268872e+06
   5.859272e+06  -2.038516e+06
   3.956971e+06   4.829159e+06
  -1.748262e+06   7.537407e+06
  -5.457143e+06   3.166769e+06
  -4.598457e+06  -3.685358e+06
  -6.021095e+05  -5.865013e+06
   2.697629e+06  -1.336997e+06
   2.121676e+06   4.683542e+06
  -1.767326e+06   5.561995e+06
  -4.818789e+06   3.545645e+05
  -3.475346e+06  -5.709921e+06
   1.407086e+06  -7.165241e+06
   5.552181e+06  -3.479600e+06
   5.737881e+06   1.530000e+06
   2.679341e+06   4.059341e+06
  -2.185140e+05   3.497273e+06
  -3.697815e+05   2.064483e+06
   1.543089e+06   2.095963e+06
   2.251912e+06   3.630494e+06
  -6.042784e+05   4.473913e+06
  -5.357776e+06   2.734989e+06
  -7.416202e+06  -8.339136e+05
  -4.259039e+06  -3.436227e+06
   1.285722e+06  -3.120005e+06
   3.886052e+06  -5.955823e+05
   1.573546e+06   1.743416e+06
  -2.446856e+06   1.972553e+06
  -3.888367e+06  -1.048746e+05
  -1.941674e+06  -2.881444e+06
   8.044608e+05  -3.891020e+06
   1.821047e+06  -1.917081e+06
   9.244143e+05   1.226936e+06
  -3.460251e+05   2.061346e+06
  -5.133177e+05  -4.527500e+05
   6.682311e+05  -3.110233e+06
   2.044298e+06  -2.197010e+06
   1.947095e+06   1.542505e+06
  -1.225978e+05   3.522913e+06
  -2.499391e+06   1.092506e+06
  -2.604766e+06  -3.091202e+06
   3.417138e+05  -4.365864e+06
   4.061175e+06  -1.465957e+06
   5.112087e+06   2.591239e+06
   2.238554e+06   4.239183e+06
  -2.229879e+06   2.671084e+06
  -4.456277e+06  -2.558445e+05
  -2.726940e+06  -2.126293e+06
   9.371066e+05  -1.783658e+06
   2.895710e+06   1.861869e+04
   1.628328e+06   1.348834e+06
  -8.807594e+05   9.282130e+05
  -1.613509e+06  -5.528561e+05
   1.943061e+04  -1.264359e+06
   1.704747e+06  -3.717760e+05
   1.120334e+06   1.103166e+06
  -1.328470e+06   1.542536e+06
  -2.991027e+06   3.265747e+05
  -1.859411e+06  -1.834095e+06
   1.406913e+06  -3.490199e+06
   4.234108e+06  -3.235600e+06
   4.588397e+06  -7.110316e+05
   2.653387e+06   2.651787e+06
   3.151076e+05   4.487368e+06
  -8.072770e+05   3.777129e+06
  -7.571902e+05   1.934112e+06
  -7.547266e+05   9.976764e+05
  -1.563248e+06   1.113307e+06
  -2.602805e+06   6.791702e+05
  -2.671178e+06  -1.086527e+06
  -1.278346e+06  -2.758460e+06
   8.204393e+05  -2.383456e+06
   2.192844e+06   5.114341e+04
   1.770130e+06   2.459655e+06
  -2.993390e+05   2.794955e+06
  -2.539449e+06   9.235734e+05
  -3.182136e+06  -1.528053e+06
  -1.781348e+06  -2.807149e+06
   2.726061e+05  -2.465145e+06
   1.252310e+06  -1.435233e+06
   1.057254e+06  -8.745385e+05
   1.162659e+06  -9.538878e+05
   2.473424e+06  -8.048855e+05
   3.824297e+06   3.780220e+05
   3.187967e+06   2.317718e+06
   2.050201e+05   3.770695e+06
  -3.058257e+06   3.570765e+06
  -4.072333e+06   1.624218e+06
  -2.328076e+06  -8.747502e+05
   2.830894e+05  -2.210481e+06
   1.418292e+06  -1.538565e+06
   4.626691e+05   2.116437e+05
  -1.157168e+06   1.117596e+06
  -1.632866e+06   3.045493e+05
  -6.065599e+05  -1.021660e+06
   6.473301e+05  -1.044659e+06
   7.090137e+05   3.086448e+05
  -5.049051e+05   1.145304e+06
  -1.728711e+06  -5.950638e+04
  -1.599839e+06  -2.462700e+06
   1.422655e+05  -3.668005e+06
   2.442417e+06  -2.316308e+06
   3.688950e+06   5.649192e+05
   2.914475e+06   2.725075e+06
   6.634847e+05   2.829826e+06
  -1.310138e+06   1.421264e+06
  -1.581191e+06   9.964664e+04
  -4.643185e+05  -4.438573e+04
   3.511401e+05   6.913463e+05
  -2.582968e+05   1.129051e+06
  -1.538784e+06   5.372155e+05
  -1.794966e+06  -5.972332e+05
  -4.871123e+05  -1.151880e+06
   1.032537e+06  -6.141731e+05
   1.021540e+06   3.977893e+05
  -6.626232e+05   8.029358e+05
  -2.316209e+06   8.942678e+04
  -2.121885e+06  -1.263092e+06
  -1.458450e+04  -2.178097e+06
   2.216264e+06  -1.821917e+06
   2.662932e+06  -3.491488e+05
   1.127734e+06   1.070522e+06
  -7.679779e+05   1.234104e+06
  -1.248538e+06   1.438188e+05
  -8.108827e+04  -8.945149e+05
   1.373523e+06  -6.568392e+05
   1.638783e+06   6.207472e+05
   5.214159e+05   1.530004e+06
  -8.612463e+05   1.125696e+06
  -1.247645e+06  -4.486170e+04
  -4.169657e+05  -6.560530e+05
   6.308160e+05  -9.717790e+04
   6.455357e+05   9.499450e+05
  -5.859805e+05   1.300776e+06
  -1.900079e+06   4.441316e+05
  -1.876129e+06  -1.014688e+06
  -3.667145e+05  -1.913970e+06
   1.269929e+06  -1.548559e+06
   1.591510e+06  -2.851456e+05
   5.599807e+05   7.726337e+05
  -5.709052e+05   8.140360e+05
  -7.086413e+05   6.333015e+04
   1.717485e+04  -5.432377e+05
   6.272564e+05  -4.058376e+05
   4.429578e+05   1.218472e+05
  -2.590992e+05   2.173710e+05
  -5.955867e+05  -4.011718e+05
   2.110722e+04  -1.082802e+06
   1.236198e+06  -8.996781e+05
   1.963363e+06   3.460861e+05
   1.379977e+06   1.811865e+06
  -1.986463e+05   2.334561e+06
  -1.552347e+06   1.496228e+06
  -1.757262e+06   3.889532e+03
  -1.045716e+06  -9.913262e+05
  -3.703390e+05  -9.657391e+05
  -2.674871e+05  -4.174777e+05
  -3.784028e+05  -2.085555e+05
  -6.131075e+04  -5.789129e+05
   7.542975e+05  -8.998027e+05
   1.416124e+06  -4.345894e+05
   1.161581e+06   7.217765e+05
  -1.254774e+05   1.572241e+06
  -1.650455e+06   1.160786e+06
  -2.212546e+06  -4.098554e+05
  -1.197064e+06  -1.952039e+06
   7.758427e+05  -2.240288e+06
   2.281180e+06  -1.116771e+06
   2.323833e+06   4.306193e+05
   1.171052e+06   1.261905e+06
  -5.587640e+04   1.119960e+06
  -5.251311e+05   6.850498e+05
  -3.523917e+05   6.847241e+05
  -2.288040e+05   1.063976e+06
  -5.808630e+05   1.094856e+06
  -1.136444e+06   2.652521e+05
  -1.230410e+06  -1.039583e+06
  -5.100452e+05  -1.809270e+06
   6.132232e+05  -1.366861e+06
   1.240871e+06  -3.773056e+04
   8.275687e+05   1.133973e+06
  -2.300179e+05   1.316155e+06
  -9.486665e+05   5.539144e+05
  -7.586010e+05  -4.108757e+05
  -6.124669e+04  -8.864913e+05
   2.905488e+05  -7.791000e+05
  -7.020685e+03  -4.852336e+05
  -3.707361e+05  -3.651446e+05
  -3.071205e+04  -3.833392e+05
   1.015260e+06  -2.328967e+05
   1.855245e+06   2.622280e+05
   1.538841e+06   9.049600e+05
   1.035519e+05   1.264275e+06
  -1.347905e+06   1.045880e+06
  -1.684312e+06   3.681170e+05
  -8.469373e+05  -2.896134e+05
   1.736111e+05  -4.592500e+05
   4.396391e+05  -1.074885e+05
  -2.251218e+04   2.919905e+05
  -4.776806e+05   2.124872e+05
  -4.363540e+05  -3.282914e+05
  -1.083784e+05  -7.222111e+05
   3.239639e+04  -4.617915e+05
  -1.476690e+05   1.805928e+05
  -3.692870e+05   3.886629e+05
  -2.878807e+05  -2.064033e+05
   1.998196e+05  -9.820472e+05
   8.478941e+05  -9.900213e+05
   1.139962e+06  -8.365879e+04
   6.570401e+05   8.716609e+05
  -3.926589e+05   9.617033e+05
  -1.105858e+06   1.964808e+05
  -6.768038e+05  -5.880453e+05
   6.358214e+05  -6.456752e+05
   1.575276e+06   1.834457e+04
   1.135923e+06   7.928942e+05
  -3.360138e+05   1.057066e+06
  -1.471973e+06   6.423683e+05
  -1.300205e+06  -8.781257e+04
  -1.956684e+05  -5.246301e+05
   6.073773e+05  -3.210407e+05
   3.269036e+05   2.392921e+05
  -6.189304e+05   4.344984e+05
  -1.116660e+06  -1.755443e+05
  -5.213908e+05  -1.178719e+06
   7.065466e+05  -1.576090e+06
   1.489959e+06  -7.543462e+05
   1.195333e+06   7.825404e+05
   1.675573e+05   1.755701e+06
  -7.245034e+05   1.312712e+06
  -9.188749e+05  -9.557911e+04
  -4.957597e+05  -1.144652e+06
   1.123552e+05  -9.993141e+05
   5.134372e+05  -1.254394e+05
   5.253984e+05   3.872763e+05
   2.415560e+05   1.638644e+05
   1.572143e+04  -1.196204e+05
   1.496438e+05   2.237735e+05
   4.439311e+05   9.093967e+05
   2.820348e+05   1.066584e+06
  -5.761097e+05   4.021812e+05
  -1.441748e+06  -4.599967e+05
  -1.331108e+06  -8.183835e+05
  -1.884042e+05  -6.563718e+05
   9.104097e+05  -3.883588e+05
   9.852701e+05  -2.021385e+05
   2.801315e+05   7.626847e+02
  -1.742733e+05   2.071669e+05
   6.005239e+04   2.505394e+05
   3.568377e+05   1.531835e+05
   7.039018e+03   1.338854e+05
  -7.500909e+05   1.775168e+05
  -9.948060e+05  -5.371724e+04
  -2.587574e+05  -6.496350e+05
   9.206332e+05  -1.059251e+06
   1.575209e+06  -6.344077e+05
   1.225552e+06   4.871983e+05
   2.055277e+05   1.374386e+06
  -7.288637e+05   1.281864e+06
  -1.013470e+06   4.355939e+05
  -6.405628e+05  -2.892927e+05
  -8.072232e+04  -3.436922e+05
   1.529639e+05  -9.377730e+02
  -4.861003e+04   8.374320e+04
  -3.318392e+05  -3.297708e+05
  -2.668956e+05  -7.825739e+05
   2.015629e+05  -6.295362e+05
   6.708892e+05   1.929461e+05
   6.371661e+05   9.891649e+05
  -9.710632e+03   9.802220e+05
  -7.824768e+05   1.338551e+05
  -9.510860e+05  -7.931717e+05
  -2.569695e+05  -1.046661e+06
   7.095853e+05  -5.712287e+05
   1.028132e+06   1.148759e+05
   4.510330e+05   5.325943e+05
  -2.775520e+05   5.639924e+05
  -2.943604e+05   3.307009e+05
   3.197311e+05   4.788083e+04
   6.470169e+05  -1.310685e+04
   1.078695e+05   2.815387e+05
  -8.054354e+05   6.516448e+05
  -1.151298e+06   5.649209e+05
  -6.500173e+05  -1.145720e+05
   1.129826e+05  -8.014164e+05
   4.713219e+05  -7.832517e+05
   3.274651e+05  -9.177391e+04
  -1.252784e+03   4.943783e+05
  -2.514297e+05   3.694671e+05
  -3.383315e+05  -2.210246e+05
  -2.228247e+05  -5.620947e+05
   7.557332e+04  -3.419746e+05
   3.709677e+05   8.194532e+04
   4.285738e+05   2.256947e+05
   2.324021e+05   5.074432e+04
   4.807000e+03  -8.583213e+04
  -8.177408e+04   7.669834e+04
  -9.875548e+04   3.841184e+05
  -2.001850e+05   4.421579e+05
  -3.525283e+05   6.833965e+04
  -3.329360e+05  -4.573191e+05
  -7.921657e+03  -6.328879e+05
   4.345652e+05  -2.572582e+05
   5.828785e+05   3.282493e+05
   1.947136e+05   5.846018e+05
  -4.722689e+05   3.320102e+05
  -8.025051e+05  -1.206157e+05
  -4.316605e+05  -3.731706e+05
   2.880951e+05  -3.242294e+05
   5.966503e+05  -1.403425e+05
   1.831612e+05  -3.124462e+03
  -4.127810e+05  -2.734191e+03
  -4.196114e+05  -1.521275e+05
   2.347668e+05  -3.236302e+05
   8.280327e+05  -2.402627e+05
