
 $NMID
 id='ANONYMOUS ', fmtdat='(2E16.6)'
 volume=1.0
 tramp=1.0
 $END
   3.043878e+07   2.046622e+05
   1.981074e+07   1.509708e+07
  -8.128021e+05   1.938864e+07
  -1.337982e+07   1.193540e+07
  -1.061628e+07   5.016340e+05
  -3.063283e+05  -5.371055e+06
   5.983331e+06  -2.258048e+06
   4.183880e+06   4.886862e+06
  -1.654834e+06   7.878138e+06
  -5.601398e+06   3.370894e+06
  -4.805335e+06  -3.871929e+06
  -6.281690e+05  -6.183635e+06
   2.874571e+06  -1.377998e+06
   2.300853e+06   4.973471e+06
  -1.768447e+06   5.876104e+06
  -4.981341e+06   4.057499e+05
  -3.608877e+06  -5.931069e+06
   1.481452e+06  -7.436157e+06
   5.814965e+06  -3.552160e+06
   5.960266e+06   1.719188e+06
   2.658714e+06   4.322620e+06
  -4.009985e+05   3.589855e+06
  -4.143178e+05   1.978513e+06
   1.785434e+06   2.079878e+06
   2.556934e+06   3.868174e+06
  -6.026932e+05   4.839800e+06
  -5.752577e+06   2.944385e+06
  -7.917982e+06  -9.107786e+05
  -4.487163e+06  -3.689361e+06
   1.452915e+06  -3.345726e+06
   4.228266e+06  -6.324066e+05
   1.741170e+06   1.938833e+06
  -2.622181e+06   2.252348e+06
  -4.246686e+06  -2.112643e+04
  -2.162707e+06  -3.123720e+06
   8.645104e+05  -4.233838e+06
   1.995030e+06  -2.008759e+06
   9.645304e+05   1.425802e+06
  -4.713414e+05   2.228209e+06
  -6.303736e+05  -5.749340e+05
   6.846354e+05  -3.400175e+06
   2.145781e+06  -2.362778e+06
   2.032076e+06   1.580262e+06
  -8.411252e+04   3.595681e+06
  -2.490774e+06   1.052999e+06
  -2.605783e+06  -3.215465e+06
   3.888333e+05  -4.467044e+06
   4.233570e+06  -1.474625e+06
   5.376453e+06   2.694009e+06
   2.410082e+06   4.425195e+06
  -2.303506e+06   2.848609e+06
  -4.701401e+06  -1.889256e+05
  -2.915993e+06  -2.177934e+06
   9.360933e+05  -1.860419e+06
   3.010272e+06  -7.561750e+02
   1.706161e+06   1.382464e+06
  -9.128848e+05   9.635158e+05
  -1.716100e+06  -5.550468e+05
  -5.987087e+04  -1.323203e+06
   1.717573e+06  -4.764173e+05
   1.200691e+06   1.016892e+06
  -1.288572e+06   1.541780e+06
  -3.052848e+06   3.738157e+05
  -1.924585e+06  -1.873638e+06
   1.505595e+06  -3.676290e+06
   4.516354e+06  -3.436460e+06
   4.879610e+06  -7.308861e+05
   2.789187e+06   2.851128e+06
   3.188986e+05   4.760894e+06
  -8.067951e+05   3.983199e+06
  -7.227692e+05   2.072996e+06
  -7.738063e+05   1.144577e+06
  -1.712010e+06   1.273377e+06
  -2.851262e+06   7.579644e+05
  -2.915906e+06  -1.178181e+06
  -1.410630e+06  -2.991465e+06
   8.657884e+05  -2.603319e+06
   2.381470e+06   8.367626e+03
   1.948919e+06   2.618101e+06
  -2.954920e+05   3.002816e+06
  -2.723038e+06   9.909653e+05
  -3.393187e+06  -1.648617e+06
  -1.859879e+06  -2.996347e+06
   3.286530e+05  -2.586308e+06
   1.328551e+06  -1.469716e+06
   1.085544e+06  -8.986602e+05
   1.196250e+06  -1.023256e+06
   2.606202e+06  -8.920955e+05
   4.064639e+06   3.545998e+05
   3.417817e+06   2.429246e+06
   2.636654e+05   4.016628e+06
  -3.228165e+06   3.847413e+06
  -4.349775e+06   1.774461e+06
  -2.509170e+06  -9.312611e+05
   2.925479e+05  -2.389336e+06
   1.522508e+06  -1.665012e+06
   5.019997e+05   2.290787e+05
  -1.231054e+06   1.208793e+06
  -1.736726e+06   3.376481e+05
  -6.467193e+05  -1.089090e+06
   6.844636e+05  -1.131393e+06
   7.717469e+05   3.051730e+05
  -4.848361e+05   1.230040e+06
  -1.800803e+06   4.459971e+03
  -1.746900e+06  -2.539087e+06
   3.491908e+04  -3.885862e+06
   2.510830e+06  -2.534826e+06
   3.939378e+06   5.053268e+05
   3.181784e+06   2.851156e+06
   7.665576e+05   3.020089e+06
  -1.386589e+06   1.540582e+06
  -1.696386e+06   1.244033e+05
  -4.968136e+05  -4.207504e+04
   3.836152e+05   7.322705e+05
  -2.610402e+05   1.198098e+06
  -1.625899e+06   5.828407e+05
  -1.910509e+06  -6.096663e+05
  -5.339079e+05  -1.211530e+06
   1.087719e+06  -6.699435e+05
   1.101983e+06   4.020065e+05
  -6.785423e+05   8.717220e+05
  -2.466124e+06   1.499158e+05
  -2.299591e+06  -1.302981e+06
  -6.510366e+04  -2.328556e+06
   2.335542e+06  -1.984756e+06
   2.838080e+06  -4.109628e+05
   1.212366e+06   1.125365e+06
  -8.078044e+05   1.316466e+06
  -1.324178e+06   1.592800e+05
  -8.901480e+04  -9.532380e+05
   1.457319e+06  -7.148527e+05
   1.753955e+06   6.367569e+05
   5.835806e+05   1.618314e+06
  -8.902538e+05   1.215310e+06
  -1.325884e+06  -1.865882e+04
  -4.591505e+05  -6.841278e+05
   6.639116e+05  -1.091027e+05
   6.962100e+05   1.005200e+06
  -6.130076e+05   1.394550e+06
  -2.025467e+06   4.940370e+05
  -2.014114e+06  -1.063417e+06
  -4.132544e+05  -2.037147e+06
   1.333612e+06  -1.665634e+06
   1.691655e+06  -3.263556e+05
   6.103005e+05   8.128771e+05
  -5.945083e+05   8.772864e+05
  -7.611254e+05   8.146987e+04
  -1.447200e+03  -5.840919e+05
   6.621344e+05  -4.562013e+05
   4.900715e+05   1.133371e+05
  -2.550759e+05   2.398164e+05
  -6.349339e+05  -4.073957e+05
   4.388927e+03  -1.147251e+06
   1.303990e+06  -9.742545e+05
   2.098146e+06   3.443956e+05
   1.493773e+06   1.917186e+06
  -1.820103e+05   2.497241e+06
  -1.634410e+06   1.624754e+06
  -1.878739e+06   3.702630e+04
  -1.144939e+06  -1.043316e+06
  -4.244158e+05  -1.039747e+06
  -2.910531e+05  -4.595989e+05
  -3.931350e+05  -2.234166e+05
  -6.453357e+04  -6.122354e+05
   7.902251e+05  -9.681908e+05
   1.503584e+06  -4.872570e+05
   1.256962e+06   7.522477e+05
  -1.032490e+05   1.683700e+06
  -1.743380e+06   1.265671e+06
  -2.368890e+06  -4.057915e+05
  -1.305634e+06  -2.063057e+06
   7.932710e+05  -2.394000e+06
   2.411047e+06  -1.221172e+06
   2.483276e+06   4.190464e+05
   1.277524e+06   1.322164e+06
  -3.063793e+04   1.200789e+06
  -5.510647e+05   7.532088e+05
  -3.814922e+05   7.457991e+05
  -2.444834e+05   1.137006e+06
  -6.099775e+05   1.168665e+06
  -1.208089e+06   2.917520e+05
  -1.325657e+06  -1.097565e+06
  -5.665026e+05  -1.927363e+06
   6.390539e+05  -1.468478e+06
   1.323957e+06  -5.827680e+04
   8.966468e+05   1.194738e+06
  -2.237184e+05   1.402174e+06
  -9.923739e+05   6.041845e+05
  -8.040097e+05  -4.188849e+05
  -7.842881e+04  -9.324705e+05
   2.893922e+05  -8.279409e+05
  -2.125031e+04  -5.186267e+05
  -4.003371e+05  -3.896503e+05
  -3.672304e+04  -4.111250e+05
   1.076801e+06  -2.589592e+05
   1.977463e+06   2.600351e+05
   1.651088e+06   9.441505e+05
   1.281691e+05   1.338356e+06
  -1.421079e+06   1.124734e+06
  -1.787573e+06   4.161702e+05
  -9.029950e+05  -2.883798e+05
   1.800692e+05  -4.857026e+05
   4.629439e+05  -1.214275e+05
  -2.789521e+04   3.096804e+05
  -5.121902e+05   2.336560e+05
  -4.693369e+05  -3.468092e+05
  -1.197155e+05  -7.778192e+05
   3.447616e+04  -4.994785e+05
  -1.525522e+05   1.993980e+05
  -3.895264e+05   4.288922e+05
  -3.098907e+05  -2.153192e+05
   2.032393e+05  -1.055933e+06
   8.943959e+05  -1.065714e+06
   1.212685e+06  -9.206125e+04
   7.049956e+05   9.300226e+05
  -4.132325e+05   1.026056e+06
  -1.180278e+06   2.131615e+05
  -7.309565e+05  -6.231573e+05
   6.687956e+05  -6.973250e+05
   1.682871e+06  -5.509032e+03
   1.230019e+06   8.241481e+05
  -3.353696e+05   1.133116e+06
  -1.558495e+06   7.146843e+05
  -1.391643e+06  -6.803053e+04
  -2.201593e+05  -5.566482e+05
   6.413569e+05  -3.529609e+05
   3.483731e+05   2.512824e+05
  -6.616307e+05   4.712800e+05
  -1.198900e+06  -1.792954e+05
  -5.678472e+05  -1.260968e+06
   7.452103e+05  -1.696725e+06
   1.590812e+06  -8.228521e+05
   1.289204e+06   8.249455e+05
   2.008730e+05   1.877365e+06
  -7.556225e+05   1.415797e+06
  -9.811169e+05  -8.584289e+04
  -5.478251e+05  -1.213209e+06
   9.955949e+04  -1.067863e+06
   5.435136e+05  -1.412822e+05
   5.711611e+05   4.048273e+05
   2.658867e+05   1.695732e+05
   1.243434e+04  -1.280428e+05
   1.538363e+05   2.399062e+05
   4.824919e+05   9.675681e+05
   3.210814e+05   1.133186e+06
  -6.040422e+05   4.328041e+05
  -1.548381e+06  -4.733513e+05
  -1.438414e+06  -8.541406e+05
  -2.091228e+05  -6.978900e+05
   9.736185e+05  -4.298125e+05
   1.051186e+06  -2.313703e+05
   2.935036e+05  -1.887624e+03
  -1.859609e+05   2.248375e+05
   7.466529e+04   2.652390e+05
   3.914556e+05   1.574931e+05
   7.201001e+03   1.452094e+05
  -8.078284e+05   2.018555e+05
  -1.065312e+06  -4.807617e+04
  -2.754202e+05  -6.981664e+05
   9.805826e+05  -1.145098e+06
   1.677465e+06  -6.893529e+05
   1.312535e+06   5.163614e+05
   2.342829e+05   1.470654e+06
  -7.651198e+05   1.376179e+06
  -1.082223e+06   4.735812e+05
  -6.918982e+05  -3.043860e+05
  -8.779252e+04  -3.686189e+05
   1.711936e+05  -3.796502e+03
  -4.590593e+04   9.217143e+04
  -3.596855e+05  -3.449085e+05
  -2.966274e+05  -8.318314e+05
   2.104534e+05  -6.755011e+05
   7.241496e+05   2.013311e+05
   6.929252e+05   1.057335e+06
  -5.668629e+03   1.053567e+06
  -8.434563e+05   1.499186e+05
  -1.029074e+06  -8.441943e+05
  -2.829105e+05  -1.119773e+06
   7.571847e+05  -6.159352e+05
   1.099959e+06   1.153396e+05
   4.821482e+05   5.638736e+05
  -2.946055e+05   6.012954e+05
  -3.078666e+05   3.519883e+05
   3.490178e+05   4.522425e+04
   6.939681e+05  -2.153832e+04
   1.160339e+05   3.006147e+05
  -8.537735e+05   7.068004e+05
  -1.218067e+06   6.170670e+05
  -6.886173e+05  -1.159634e+05
   1.140793e+05  -8.571981e+05
   4.932188e+05  -8.374790e+05
   3.478116e+05  -9.405169e+04
   3.420509e+03   5.332061e+05
  -2.682061e+05   3.963226e+05
  -3.685751e+05  -2.367027e+05
  -2.440705e+05  -5.997235e+05
   8.180992e+04  -3.639377e+05
   3.993626e+05   8.559136e+04
   4.568427e+05   2.351826e+05
   2.467310e+05   4.916518e+04
   9.394722e+03  -9.054211e+04
  -8.020977e+04   8.973192e+04
  -1.047491e+05   4.202490e+05
  -2.219741e+05   4.784433e+05
  -3.863400e+05   7.179013e+04
  -3.603553e+05  -4.959827e+05
  -8.497831e+03  -6.848107e+05
   4.663256e+05  -2.799018e+05
   6.270545e+05   3.503979e+05
   2.140904e+05   6.271657e+05
  -5.010522e+05   3.585350e+05
  -8.592754e+05  -1.246329e+05
  -4.647856e+05  -3.959098e+05
   3.077344e+05  -3.469096e+05
   6.394827e+05  -1.517026e+05
   1.933342e+05  -1.507072e+03
  -4.495980e+05   2.571613e+03
  -4.570140e+05  -1.612328e+05
   2.488219e+05  -3.553085e+05
   8.899155e+05  -2.718217e+05
