
 $NMID
 id='ANONYMOUS ', fmtdat='(2E16.6)'
 volume=1.0
 tramp=1.0
 $END
   5.616515e+07  -1.594776e+06
   3.481580e+07   3.444065e+07
  -6.702205e+06   3.860224e+07
  -2.758090e+07   1.495768e+07
  -1.669903e+07  -7.207370e+06
   3.334670e+06  -9.498771e+06
   9.948583e+06   1.366931e+06
   2.723999e+06   9.898469e+06
  -6.332702e+06   9.235867e+06
  -9.673424e+06   1.938845e+06
  -6.981470e+06  -5.990767e+06
  -9.282092e+05  -8.370319e+06
   3.804633e+06  -2.815880e+06
   2.528250e+06   5.146788e+06
  -3.763835e+06   6.350109e+06
  -7.870825e+06  -1.308951e+06
  -4.531418e+06  -1.008086e+07
   3.585611e+06  -1.177075e+07
   9.889192e+06  -6.103939e+06
   1.078172e+07   1.668186e+06
   6.920619e+06   7.181001e+06
   1.113455e+06   8.697663e+06
  -2.797225e+06   6.371176e+06
  -2.181834e+06   2.848506e+06
   7.265626e+05   1.897963e+06
   2.979803e+05   3.769731e+06
  -4.930256e+06   4.276380e+06
  -9.192948e+06   7.475355e+05
  -6.961748e+06  -3.771338e+06
  -5.646660e+05  -4.858563e+06
   3.296775e+06  -2.625455e+06
   2.287010e+06  -3.126409e+05
  -3.968561e+05   5.760462e+05
  -1.851814e+06   3.919599e+05
  -1.949192e+06  -1.127177e+06
  -8.251503e+05  -3.547032e+06
   1.549619e+06  -3.837967e+06
   3.237166e+06  -2.189975e+05
   1.974844e+06   3.449796e+06
  -5.825169e+05   2.136114e+06
  -3.866225e+05  -2.117501e+06
   2.358194e+06  -2.171628e+06
   2.452465e+06   3.183120e+06
  -2.421447e+06   6.234227e+06
  -7.096607e+06   1.231823e+06
  -5.358881e+06  -6.818038e+06
   1.735894e+06  -8.620369e+06
   7.321217e+06  -2.586533e+06
   6.834857e+06   4.314515e+06
   1.754012e+06   5.914609e+06
  -3.433293e+06   2.600806e+06
  -5.101101e+06  -1.582675e+06
  -2.295915e+06  -3.486672e+06
   2.442590e+06  -2.202309e+06
   4.507290e+06   8.948913e+05
   1.946828e+06   2.716270e+06
  -1.692581e+06   1.389628e+06
  -1.668804e+06  -1.029590e+06
   1.446703e+06  -9.054775e+05
   2.573123e+06   1.881899e+06
  -6.475374e+05   3.660452e+06
  -4.746194e+06   2.049820e+06
  -5.379015e+06  -1.351074e+06
  -2.360187e+06  -3.980413e+06
   1.639516e+06  -5.163323e+06
   4.689167e+06  -4.749031e+06
   5.924697e+06  -1.841951e+06
   4.545834e+06   2.898408e+06
   1.045464e+06   5.942949e+06
  -1.844117e+06   4.654453e+06
  -1.852893e+06   1.110120e+06
  -1.752113e+05  -4.538993e+05
   2.208767e+05   7.669864e+05
  -1.289750e+06   1.726720e+06
  -2.545004e+06   3.902718e+05
  -1.915664e+06  -1.652863e+06
  -1.000167e+05  -1.909971e+06
   1.351840e+06  -1.622433e+05
   1.511878e+06   1.916900e+06
   2.944473e+04   2.744487e+06
  -2.575626e+06   1.641987e+06
  -4.319138e+06  -1.002500e+06
  -3.251772e+06  -3.555031e+06
  -1.042675e+05  -4.171882e+06
   2.186223e+06  -2.778849e+06
   2.236688e+06  -1.176605e+06
   1.837162e+06  -6.412476e+05
   2.854556e+06  -4.154376e+05
   4.175319e+06   7.662777e+05
   3.321373e+06   2.668374e+06
   9.923315e+04   3.932621e+06
  -3.044661e+06   3.689003e+06
  -3.915082e+06   2.028028e+06
  -2.500314e+06  -3.311904e+05
  -3.176178e+05  -2.060458e+06
   9.762062e+05  -1.836565e+06
   5.296952e+05   6.229440e+03
  -1.011200e+06   1.242733e+06
  -1.829994e+06   3.920431e+05
  -9.155276e+05  -1.143422e+06
   4.746983e+05  -1.042664e+06
   3.659868e+05   4.070205e+05
  -1.130025e+06   6.279328e+05
  -1.855261e+06  -1.397374e+06
  -5.172121e+05  -3.513978e+06
   1.767056e+06  -3.274186e+06
   3.168561e+06  -8.935851e+05
   3.111786e+06   1.557461e+06
   2.014680e+06   2.681084e+06
   3.462606e+05   2.445001e+06
  -1.169890e+06   1.364241e+06
  -1.476527e+06   2.161376e+05
  -4.682197e+05  -4.672322e+04
   3.353938e+05   7.220971e+05
  -4.116145e+05   1.306468e+06
  -1.859952e+06   5.618022e+05
  -1.970364e+06  -8.869087e+05
  -3.527473e+05  -1.392474e+06
   1.138958e+06  -5.299297e+05
   8.163724e+05   4.617052e+05
  -8.623380e+05   4.497191e+05
  -2.064538e+06  -4.086401e+05
  -1.571989e+06  -1.348920e+06
   3.212149e+05  -1.842544e+06
   2.226008e+06  -1.510131e+06
   2.642927e+06  -2.205528e+05
   1.164254e+06   1.233190e+06
  -8.868885e+05   1.463910e+06
  -1.522289e+06   1.952610e+05
  -2.136195e+05  -1.042923e+06
   1.457171e+06  -7.032283e+05
   1.639229e+06   7.798829e+05
   2.756233e+05   1.600852e+06
  -1.096782e+06   9.013560e+05
  -1.207579e+06  -3.575582e+05
  -2.021424e+05  -7.786551e+05
   7.859913e+05  -4.931472e+04
   7.083704e+05   1.013144e+06
  -5.469547e+05   1.358476e+06
  -1.911072e+06   5.161611e+05
  -1.940176e+06  -1.006766e+06
  -3.545717e+05  -1.989756e+06
   1.401540e+06  -1.564529e+06
   1.662730e+06  -1.745644e+05
   4.605189e+05   8.492678e+05
  -6.490625e+05   7.555800e+05
  -5.837619e+05   5.991011e+04
   1.512043e+05  -3.141790e+05
   4.584975e+05  -1.422854e+05
   5.073888e+04   8.119885e+04
  -4.823593e+05  -1.156577e+05
  -4.889877e+05  -6.969996e+05
   2.350095e+05  -1.152140e+06
   1.341988e+06  -8.390308e+05
   1.985818e+06   4.181045e+05
   1.385565e+06   1.867269e+06
  -2.291136e+05   2.297591e+06
  -1.558993e+06   1.301487e+06
  -1.589738e+06  -1.703197e+05
  -7.531610e+05  -8.544845e+05
  -2.529430e+05  -5.642293e+05
  -4.685082e+05  -1.567589e+05
  -6.428632e+05  -3.002391e+05
  -9.834706e+04  -7.532791e+05
   8.597485e+05  -8.489106e+05
   1.384216e+06  -2.698613e+05
   9.583984e+05   7.034752e+05
  -2.875881e+05   1.361609e+06
  -1.657010e+06   9.787400e+05
  -2.125554e+06  -4.939416e+05
  -1.043661e+06  -2.026921e+06
   1.014196e+06  -2.262026e+06
   2.466456e+06  -9.476148e+05
   2.232810e+06   6.919424e+05
   8.496461e+05   1.307343e+06
  -2.503115e+05   8.684218e+05
  -3.623944e+05   4.302482e+05
  -2.384098e+04   6.975740e+05
  -6.699888e+04   1.265914e+06
  -6.468974e+05   1.251605e+06
  -1.248357e+06   3.096033e+05
  -1.272569e+06  -1.031550e+06
  -5.197694e+05  -1.803904e+06
   5.977099e+05  -1.361624e+06
   1.223608e+06   2.094074e+04
   7.604992e+05   1.249457e+06
  -4.088467e+05   1.340661e+06
  -1.155454e+06   3.581351e+05
  -7.917123e+05  -7.182302e+05
   1.482280e+05  -1.065484e+06
   5.629740e+05  -7.529960e+05
   1.095444e+05  -3.853570e+05
  -4.143035e+05  -3.094813e+05
  -5.807417e+04  -3.589629e+05
   1.113071e+06  -1.919938e+05
   1.987438e+06   3.318905e+05
   1.539023e+06   1.014423e+06
  -6.536792e+04   1.398401e+06
  -1.550313e+06   1.097312e+06
  -1.766400e+06   2.352841e+05
  -7.951712e+05  -5.181563e+05
   2.603285e+05  -5.633690e+05
   5.036922e+05  -1.718466e+04
   4.712493e+04   4.189374e+05
  -4.080780e+05   2.452914e+05
  -4.608059e+05  -3.256233e+05
  -2.629480e+05  -6.699237e+05
  -1.153008e+05  -4.440513e+05
  -1.357831e+05   6.786200e+04
  -2.548021e+05   2.427823e+05
  -2.562255e+05  -2.283146e+05
   1.295505e+05  -9.222133e+05
   8.612352e+05  -1.015871e+06
   1.324948e+06  -1.928631e+05
   8.414414e+05   8.602984e+05
  -3.901577e+05   1.110905e+06
  -1.208553e+06   3.524894e+05
  -6.968303e+05  -5.369952e+05
   6.825858e+05  -6.093945e+05
   1.503052e+06   1.246116e+05
   9.116083e+05   8.518669e+05
  -5.084087e+05   9.220632e+05
  -1.436390e+06   3.960147e+05
  -1.150326e+06  -2.248645e+05
  -1.042327e+05  -4.880791e+05
   6.292612e+05  -2.370666e+05
   3.785120e+05   2.890687e+05
  -5.372470e+05   5.061916e+05
  -1.120623e+06  -5.358852e+04
  -6.634812e+05  -1.101827e+06
   5.221006e+05  -1.620627e+06
   1.386958e+06  -8.586705e+05
   1.190272e+06   7.082095e+05
   1.905183e+05   1.693024e+06
  -7.130402e+05   1.207029e+06
  -8.781352e+05  -1.972045e+05
  -3.803158e+05  -1.144556e+06
   2.506188e+05  -9.100781e+05
   5.480204e+05  -6.615887e+04
   4.152371e+05   3.614955e+05
   1.252537e+05   1.299003e+05
   5.936779e+04  -8.470597e+04
   3.091132e+05   2.896475e+05
   4.977705e+05   9.236035e+05
   1.421082e+05   1.027543e+06
  -7.202529e+05   3.765123e+05
  -1.393002e+06  -4.466351e+05
  -1.180414e+06  -8.070953e+05
  -1.713477e+05  -6.718849e+05
   7.813831e+05  -3.924071e+05
   9.268662e+05  -1.568052e+05
   3.717255e+05   6.261620e+04
  -1.261137e+05   2.144714e+05
  -7.382062e+04   1.856753e+05
   2.086467e+05   7.824465e+04
   6.273477e+04   1.205057e+05
  -5.833464e+05   2.306187e+05
  -9.970821e+05   5.210951e+03
  -4.727350e+05  -6.497806e+05
   7.526469e+05  -1.137947e+06
   1.632929e+06  -7.614619e+05
   1.387855e+06   3.697082e+05
   2.825816e+05   1.324918e+06
  -7.304572e+05   1.327451e+06
  -9.898739e+05   5.450106e+05
  -6.135358e+05  -1.958591e+05
  -1.470240e+05  -3.368586e+05
   2.589909e+04  -7.997979e+04
  -9.641021e+04  -8.496836e+03
  -2.711682e+05  -3.648100e+05
  -2.228286e+05  -7.711834e+05
   1.557903e+05  -6.541916e+05
   6.344461e+05   8.356685e+04
   7.291385e+05   8.658353e+05
   1.658040e+05   9.747503e+05
  -6.801221e+05   2.773164e+05
  -9.962503e+05  -6.351708e+05
  -3.691706e+05  -1.029385e+06
   6.586228e+05  -6.803995e+05
   1.082487e+06   4.428735e+04
   5.407492e+05   6.010900e+05
  -2.617554e+05   6.861116e+05
  -3.898672e+05   3.693558e+05
   1.944169e+05  -5.883884e+02
   6.059433e+05  -4.758766e+04
   1.570334e+05   2.962553e+05
  -7.800629e+05   6.475342e+05
  -1.231462e+06   5.025116e+05
  -7.709568e+05  -1.843282e+05
   7.688188e+04  -8.422644e+05
   5.476281e+05  -8.420247e+05
   4.361896e+05  -1.939989e+05
   7.346359e+04   4.348441e+05
  -2.112135e+05   4.362800e+05
  -3.271918e+05  -1.015922e+05
  -2.532734e+05  -5.437181e+05
   2.938874e+04  -4.372666e+05
   3.707555e+05   2.211075e+04
   4.727495e+05   2.838585e+05
   2.364356e+05   1.111613e+05
  -5.786887e+04  -1.666928e+05
  -9.123200e+04  -9.797007e+04
   6.062857e+04   3.031108e+05
   3.763276e+04   5.491389e+05
  -2.649175e+05   2.729035e+05
  -4.799552e+05  -3.024142e+05
  -2.204574e+05  -5.955270e+05
   3.620411e+05  -3.188405e+05
   6.551289e+05   2.278325e+05
   2.649757e+05   5.234746e+05
  -4.877218e+05   3.619034e+05
  -8.589931e+05  -3.907310e+04
  -4.715103e+05  -3.496007e+05
   2.685042e+05  -4.124261e+05
   6.079977e+05  -2.617602e+05
   2.659550e+05  -3.250614e+04
  -2.814824e+05   9.207244e+04
  -3.643166e+05  -1.607743e+04
   1.268591e+05  -2.478168e+05
   6.472390e+05  -2.597097e+05
