
 $NMID
 id='ANONYMOUS ', fmtdat='(2E16.6)'
 volume=1.0
 tramp=1.0
 $END
   1.968423e+07   8.147800e+05
   1.283597e+07   9.440961e+06
  -2.746693e+05   1.230899e+07
  -8.633591e+06   8.260671e+06
  -7.259149e+06   9.507967e+05
  -5.010553e+05  -3.559753e+06
   4.079192e+06  -1.909189e+06
   3.141926e+06   3.196191e+06
  -9.259235e+05   5.642636e+06
  -3.792490e+06   2.516627e+06
  -3.223563e+06  -2.718377e+06
  -2.970898e+05  -4.318129e+06
   2.028107e+06  -7.982895e+05
   1.535152e+06   3.683811e+06
  -1.239155e+06   4.235533e+06
  -3.387893e+06   3.776621e+05
  -2.450016e+06  -4.006907e+06
   1.007868e+06  -4.998548e+06
   3.907181e+06  -2.247700e+06
   3.836087e+06   1.357539e+06
   1.441606e+06   2.895884e+06
  -4.792874e+05   2.085909e+06
  -6.137632e+04   1.020430e+06
   1.669669e+06   1.535297e+06
   1.942663e+06   3.120702e+06
  -6.671198e+05   3.632241e+06
  -4.361051e+06   1.868801e+06
  -5.632902e+06  -1.023112e+06
  -2.942736e+06  -2.782098e+06
   1.340440e+06  -2.236828e+06
   3.187923e+06  -1.400590e+05
   1.145353e+06   1.689196e+06
  -2.223983e+06   1.729467e+06
  -3.350184e+06  -1.906392e+05
  -1.506539e+06  -2.545899e+06
   9.167733e+05  -3.129291e+06
   1.534544e+06  -1.231451e+06
   4.201384e+05   1.209026e+06
  -6.369742e+05   1.469049e+06
  -4.224826e+05  -7.126850e+05
   7.103642e+05  -2.593351e+06
   1.612627e+06  -1.700516e+06
   1.423672e+06   1.041744e+06
   1.121466e+05   2.392079e+06
  -1.384756e+06   7.414485e+05
  -1.589821e+06  -2.029218e+06
   2.164659e+05  -2.860996e+06
   2.817012e+06  -8.961206e+05
   3.744485e+06   1.931237e+06
   1.738303e+06   3.161390e+06
  -1.648625e+06   2.066430e+06
  -3.415607e+06  -1.120540e+05
  -2.158378e+06  -1.542060e+06
   5.771483e+05  -1.318348e+06
   2.063029e+06  -3.018834e+04
   1.203459e+06   9.169899e+05
  -6.105507e+05   6.463706e+05
  -1.252404e+06  -4.026167e+05
  -1.572346e+05  -1.028471e+06
   1.209275e+06  -5.528886e+05
   1.068515e+06   5.281683e+05
  -6.287743e+05   1.084157e+06
  -2.030566e+06   3.981060e+05
  -1.343283e+06  -1.203318e+06
   1.164307e+06  -2.508937e+06
   3.363405e+06  -2.276500e+06
   3.476951e+06  -3.137407e+05
   1.796124e+06   2.134900e+06
   5.425075e+04   3.369020e+06
  -5.777688e+05   2.841772e+06
  -4.758142e+05   1.611340e+06
  -6.723906e+05   9.764852e+05
  -1.488561e+06   9.222760e+05
  -2.258351e+06   3.690130e+05
  -2.128997e+06  -1.100901e+06
  -8.919152e+05  -2.358927e+06
   8.068743e+05  -1.945150e+06
   1.847662e+06   9.632555e+04
   1.397906e+06   2.044649e+06
  -3.287861e+05   2.215559e+06
  -2.028520e+06   5.895479e+05
  -2.344546e+06  -1.348715e+06
  -1.153603e+06  -2.170189e+06
   3.311721e+05  -1.721825e+06
   9.083755e+05  -9.216584e+05
   6.980441e+05  -6.173088e+05
   8.420200e+05  -7.666660e+05
   1.913837e+06  -6.399598e+05
   2.965196e+06   3.187151e+05
   2.457585e+06   1.843338e+06
   1.080269e+05   2.961898e+06
  -2.483868e+06   2.754048e+06
  -3.274396e+06   1.161096e+06
  -1.809483e+06  -8.070531e+05
   3.406084e+05  -1.770552e+06
   1.211087e+06  -1.157654e+06
   3.558413e+05   2.036993e+05
  -9.555730e+05   8.485775e+05
  -1.271234e+06   1.979323e+05
  -4.189123e+05  -8.062144e+05
   5.531004e+05  -8.171056e+05
   5.995792e+05   2.388993e+05
  -3.292715e+05   9.574451e+05
  -1.331461e+06   9.921036e+04
  -1.352247e+06  -1.820984e+06
  -4.481118e+04  -2.928825e+06
   1.856362e+06  -1.968603e+06
   2.970640e+06   3.715238e+05
   2.376968e+06   2.199709e+06
   5.222792e+05   2.296102e+06
  -1.078667e+06   1.110177e+06
  -1.267343e+06   3.693018e+04
  -3.657720e+05  -4.296658e+04
   2.672093e+05   5.484642e+05
  -2.059024e+05   8.625238e+05
  -1.183588e+06   3.903150e+05
  -1.381564e+06  -4.673672e+05
  -3.796868e+05  -8.854736e+05
   8.118792e+05  -4.773296e+05
   8.272105e+05   3.212381e+05
  -5.067589e+05   6.676940e+05
  -1.859892e+06   9.976729e+04
  -1.727653e+06  -1.017216e+06
  -2.248148e+04  -1.762664e+06
   1.778815e+06  -1.443057e+06
   2.112513e+06  -2.467856e+05
   8.658766e+05   8.449643e+05
  -6.159816e+05   9.301090e+05
  -9.538684e+05   8.139949e+04
  -2.884107e+04  -6.906288e+05
   1.086941e+06  -4.879871e+05
   1.282675e+06   4.983152e+05
   4.172495e+05   1.206176e+06
  -6.663720e+05   9.017312e+05
  -9.869124e+05  -1.517358e+04
  -3.451767e+05  -5.068938e+05
   4.791835e+05  -7.014107e+04
   4.845745e+05   7.547840e+05
  -4.920278e+05   1.011024e+06
  -1.509537e+06   3.081422e+05
  -1.457144e+06  -8.370025e+05
  -2.570396e+05  -1.509429e+06
   1.013861e+06  -1.198255e+06
   1.252368e+06  -2.113545e+05
   4.414376e+05   6.091887e+05
  -4.544855e+05   6.403701e+05
  -5.779848e+05   3.972355e+04
   2.262346e+03  -4.579876e+05
   5.220985e+05  -3.471995e+05
   4.008715e+05   1.044022e+05
  -1.745777e+05   2.087884e+05
  -4.742178e+05  -2.868068e+05
   8.051999e+03  -8.437101e+05
   9.782538e+05  -6.963759e+05
   1.542320e+06   2.987090e+05
   1.057865e+06   1.449388e+06
  -1.934078e+05   1.846832e+06
  -1.250127e+06   1.181627e+06
  -1.409459e+06  -2.321258e+03
  -8.501535e+05  -8.165034e+05
  -2.967454e+05  -8.219725e+05
  -1.807935e+05  -3.720916e+05
  -2.591148e+05  -1.627419e+05
  -3.114486e+04  -4.360331e+05
   5.974094e+05  -7.036134e+05
   1.129345e+06  -3.411736e+05
   9.330529e+05   5.907794e+05
  -1.023941e+05   1.266814e+06
  -1.321987e+06   9.130266e+05
  -1.752635e+06  -3.504565e+05
  -9.317151e+05  -1.552352e+06
   6.211853e+05  -1.751674e+06
   1.796269e+06  -8.631242e+05
   1.838485e+06   3.451796e+05
   9.459858e+05   1.007987e+06
  -3.462614e+04   9.154731e+05
  -4.455434e+05   5.684809e+05
  -3.345311e+05   5.377581e+05
  -2.237147e+05   8.124174e+05
  -4.716730e+05   8.337199e+05
  -8.888318e+05   1.824494e+05
  -9.490879e+05  -8.451013e+05
  -3.703448e+05  -1.440251e+06
   5.107778e+05  -1.070848e+06
   9.832776e+05  -1.613377e+04
   6.418768e+05   8.948043e+05
  -1.814149e+05   1.030983e+06
  -7.296669e+05   4.447151e+05
  -5.841769e+05  -2.976348e+05
  -5.847003e+04  -6.754032e+05
   2.067432e+05  -6.108334e+05
  -1.387197e+04  -3.955517e+05
  -2.816424e+05  -3.031626e+05
  -1.424503e+04  -3.072169e+05
   7.932167e+05  -1.705358e+05
   1.443719e+06   2.322514e+05
   1.199369e+06   7.278673e+05
   8.048418e+04   9.813419e+05
  -1.057732e+06   7.938254e+05
  -1.325466e+06   2.781679e+05
  -6.684714e+05  -2.127053e+05
   1.351084e+05  -3.450652e+05
   3.397713e+05  -8.848048e+04
  -3.383323e+04   2.144551e+05
  -3.910812e+05   1.561645e+05
  -3.360205e+05  -2.678704e+05
  -5.313260e+04  -5.818684e+05
   5.314201e+04  -3.688197e+05
  -1.200299e+05   1.553655e+05
  -3.121295e+05   3.217441e+05
  -2.279326e+05  -1.648941e+05
   1.837537e+05  -7.818218e+05
   6.862672e+05  -7.642886e+05
   8.795430e+05  -2.924220e+04
   4.798065e+05   7.045773e+05
  -3.295599e+05   7.336430e+05
  -8.661167e+05   1.138692e+05
  -5.227997e+05  -4.838382e+05
   5.073088e+05  -5.035799e+05
   1.253380e+06   2.700137e+04
   9.133204e+05   6.360129e+05
  -2.594614e+05   8.456058e+05
  -1.176579e+06   5.153705e+05
  -1.044630e+06  -7.199894e+04
  -1.581658e+05  -4.218980e+05
   4.818337e+05  -2.540875e+05
   2.467532e+05   1.889614e+05
  -5.087674e+05   3.242052e+05
  -8.808534e+05  -1.746407e+05
  -3.736616e+05  -9.531522e+05
   6.113646e+05  -1.230198e+06
   1.206292e+06  -5.577587e+05
   9.330016e+05   6.494698e+05
   9.948319e+04   1.399693e+06
  -5.959606e+05   1.039408e+06
  -7.289263e+05  -7.759671e+04
  -3.872950e+05  -9.121980e+05
   8.676130e+04  -7.982169e+05
   4.027648e+05  -9.763337e+04
   4.236230e+05   3.173995e+05
   2.040431e+05   1.368032e+05
   8.260206e+03  -9.838288e+04
   9.230325e+04   1.728407e+05
   3.277053e+05   7.255824e+05
   2.234459e+05   8.516014e+05
  -4.430070e+05   3.094362e+05
  -1.138503e+06  -3.900864e+05
  -1.058301e+06  -6.699013e+05
  -1.395349e+05  -5.199607e+05
   7.438359e+05  -2.922397e+05
   7.897171e+05  -1.493578e+05
   2.084672e+05  -1.540885e+03
  -1.479240e+05   1.603915e+05
   6.176168e+04   2.060360e+05
   3.001551e+05   1.354179e+05
  -4.020468e+03   1.084834e+05
  -6.190509e+05   1.223076e+05
  -7.860494e+05  -6.776970e+04
  -1.647074e+05  -5.209120e+05
   7.698276e+05  -8.130553e+05
   1.250485e+06  -4.563275e+05
   9.403393e+05   4.244101e+05
   1.288080e+05   1.097822e+06
  -5.990911e+05   9.946295e+05
  -8.134741e+05   3.123834e+05
  -5.061979e+05  -2.520342e+05
  -4.906357e+04  -2.749199e+05
   1.389022e+05   1.081425e+04
  -3.233673e+04   7.702324e+04
  -2.642144e+05  -2.610862e+05
  -2.033284e+05  -6.243510e+05
   1.768049e+05  -4.915148e+05
   5.333231e+05   1.783937e+05
   4.757932e+05   8.108455e+05
  -4.814891e+04   7.778325e+05
  -6.364891e+05   7.434801e+04
  -7.341036e+05  -6.653927e+05
  -1.701200e+05  -8.357808e+05
   5.792282e+05  -4.253280e+05
   8.045415e+05   1.189351e+05
   3.344398e+05   4.210279e+05
  -2.330061e+05   4.249943e+05
  -2.263067e+05   2.499232e+05
   2.692669e+05   4.828501e+04
   5.176994e+05   5.026574e+03
   7.361670e+04   2.231602e+05
  -6.515423e+05   5.019828e+05
  -9.086630e+05   4.337537e+05
  -4.949077e+05  -9.424748e+04
   1.087013e+05  -6.266760e+05
   3.769602e+05  -6.021936e+05
   2.473581e+05  -5.180109e+04
  -1.882660e+04   3.997469e+05
  -2.114808e+05   2.793336e+05
  -2.666575e+05  -1.964350e+05
  -1.625121e+05  -4.511552e+05
   7.312624e+04  -2.569616e+05
   2.926687e+05   7.925156e+04
   3.282545e+05   1.787749e+05
   1.815349e+05   3.619648e+04
   1.469914e+04  -5.782240e+04
  -6.247153e+04   8.234666e+04
  -1.049818e+05   3.148228e+05
  -1.990755e+05   3.349161e+05
  -2.942380e+05   2.175099e+04
  -2.376508e+05  -3.899387e+05
   3.264034e+04  -5.082528e+05
   3.585438e+05  -1.885260e+05
   4.467751e+05   2.840423e+05
   1.351453e+05   4.746675e+05
  -3.775356e+05   2.500465e+05
  -6.259102e+05  -1.210089e+05
  -3.297487e+05  -3.062569e+05
   2.372094e+05  -2.398096e+05
   4.742533e+05  -8.419249e+04
   1.342222e+05   5.724627e+03
  -3.450268e+05  -2.031444e+04
  -3.382228e+05  -1.450281e+05
   2.046704e+05  -2.632574e+05
   6.832078e+05  -1.752127e+05
