
 $NMID
 id='ANONYMOUS ', fmtdat='(2E16.6)'
 volume=1.0
 tramp=1.0
 $END
   2.230977e+07   1.028761e+04
   1.398521e+07   1.349341e+07
  -2.422177e+06   1.527050e+07
  -1.112392e+07   6.467523e+06
  -7.161853e+06  -2.397355e+06
   1.069920e+06  -3.941820e+06
   4.253815e+06   1.744438e+05
   1.480544e+06   4.073015e+06
  -2.505223e+06   4.219294e+06
  -4.088834e+06   1.048521e+06
  -2.858124e+06  -2.615372e+06
  -2.106868e+05  -3.621101e+06
   1.659132e+06  -1.014070e+06
   9.647729e+05   2.488366e+06
  -1.676793e+06   2.913269e+06
  -3.319735e+06  -4.552640e+05
  -1.876693e+06  -4.212904e+06
   1.528145e+06  -4.867769e+06
   4.087237e+06  -2.358834e+06
   4.247582e+06   8.972857e+05
   2.490445e+06   2.914885e+06
   2.863043e+05   3.222404e+06
  -8.841286e+05   2.353824e+06
  -4.470483e+05   1.415602e+06
   4.252209e+05   1.379435e+06
  -2.351787e+05   1.906154e+06
  -2.545398e+06   1.546979e+06
  -4.053366e+06  -1.983660e+05
  -2.744147e+06  -1.875431e+06
   1.478374e+05  -1.931108e+06
   1.673498e+06  -7.196876e+05
   8.462584e+05   2.711846e+05
  -6.910714e+05   3.729652e+05
  -1.254312e+06  -1.252327e+05
  -7.737551e+05  -9.550578e+05
   7.542047e+04  -1.708880e+06
   8.339571e+05  -1.426583e+06
   1.056852e+06   1.348397e+05
   4.830409e+05   1.340614e+06
  -1.792394e+05   5.411173e+05
   1.680001e+05  -1.151482e+06
   1.183564e+06  -9.780059e+05
   1.076699e+06   1.313390e+06
  -8.304402e+05   2.583492e+06
  -2.642042e+06   5.890110e+05
  -2.061059e+06  -2.660192e+06
   6.603241e+05  -3.422507e+06
   2.986015e+06  -9.607897e+05
   2.932944e+06   1.951724e+06
   8.013679e+05   2.672383e+06
  -1.561565e+06   1.211788e+06
  -2.381734e+06  -6.987974e+05
  -1.141000e+06  -1.572157e+06
   9.710059e+05  -9.943827e+05
   1.913930e+06   3.519925e+05
   8.683031e+05   1.127480e+06
  -6.972206e+05   5.744443e+05
  -7.896002e+05  -4.790454e+05
   5.020547e+05  -5.435283e+05
   1.166401e+06   5.476959e+05
   3.413792e+04   1.401604e+06
  -1.727516e+06   9.364897e+05
  -2.232239e+06  -4.122821e+05
  -1.032400e+06  -1.605022e+06
   8.606834e+05  -2.144408e+06
   2.293683e+06  -1.855298e+06
   2.631031e+06  -5.226760e+05
   1.750484e+06   1.425719e+06
   2.188189e+05   2.611557e+06
  -8.441920e+05   2.092720e+06
  -8.058965e+05   6.891096e+05
  -2.771360e+05  -1.811914e+03
  -2.797075e+05   3.175618e+05
  -8.668806e+05   4.947782e+05
  -1.168994e+06  -2.012663e+05
  -6.626553e+05  -1.041721e+06
   2.351273e+05  -9.523689e+05
   8.009326e+05   7.733130e+04
   6.597587e+05   1.111968e+06
  -1.674783e+05   1.318646e+06
  -1.262940e+06   5.563679e+05
  -1.806866e+06  -6.897524e+05
  -1.207206e+06  -1.625814e+06
   7.926589e+04  -1.690092e+06
   9.163838e+05  -1.073370e+06
   9.000490e+05  -5.015541e+05
   8.183051e+05  -3.358523e+05
   1.360622e+06  -1.750231e+05
   1.955345e+06   4.583748e+05
   1.495672e+06   1.365992e+06
  -9.222222e+04   1.889865e+06
  -1.632095e+06   1.634169e+06
  -1.988163e+06   7.287072e+05
  -1.128806e+06  -3.559128e+05
   5.565171e+04  -9.980960e+05
   6.125908e+05  -7.637933e+05
   2.298606e+05   5.739357e+04
  -5.613329e+05   5.254866e+05
  -8.615142e+05   1.098962e+05
  -3.471939e+05  -5.492593e+05
   3.054445e+05  -4.739874e+05
   2.288587e+05   2.179063e+05
  -4.962225e+05   3.934816e+05
  -9.089140e+05  -5.042990e+05
  -3.705402e+05  -1.610706e+06
   7.289013e+05  -1.698678e+06
   1.543347e+06  -6.079931e+05
   1.618820e+06   7.499609e+05
   1.023629e+06   1.460357e+06
   9.273304e+04   1.294485e+06
  -6.571453e+05   6.118801e+05
  -7.372552e+05   1.241139e+04
  -2.249990e+05  -4.216435e+04
   1.362774e+05   3.597728e+05
  -2.152854e+05   5.934655e+05
  -8.651241e+05   2.100887e+05
  -9.052192e+05  -4.489959e+05
  -1.532077e+05  -6.547312e+05
   5.601514e+05  -2.302729e+05
   4.167623e+05   2.610402e+05
  -4.262205e+05   2.578588e+05
  -1.064223e+06  -2.154593e+05
  -8.100875e+05  -7.458027e+05
   1.981931e+05  -9.646402e+05
   1.165588e+06  -6.935543e+05
   1.304607e+06  -1.473767e+04
   5.166555e+05   6.159684e+05
  -4.550644e+05   6.380839e+05
  -6.929190e+05   3.930987e+04
  -4.501787e+04  -4.779152e+05
   7.180678e+05  -2.752540e+05
   7.722651e+05   4.196703e+05
   1.149007e+05   7.923359e+05
  -5.427585e+05   4.475495e+05
  -5.990369e+05  -1.703287e+05
  -1.127128e+05  -3.777680e+05
   3.569576e+05  -8.634732e+03
   2.910321e+05   5.059587e+05
  -3.282099e+05   6.207684e+05
  -9.422711e+05   1.538567e+05
  -8.847444e+05  -5.699838e+05
  -9.307595e+04  -9.675360e+05
   7.224148e+05  -7.046639e+05
   8.090923e+05  -3.856602e+04
   2.109755e+05   4.240893e+05
  -3.363679e+05   3.544511e+05
  -3.081872e+05  -3.581646e+03
   7.855072e+04  -1.959119e+05
   2.774033e+05  -8.460888e+04
   8.919576e+04   7.652790e+04
  -2.119708e+05  -1.308062e+03
  -2.468821e+05  -3.136472e+05
   1.209710e+05  -5.512563e+05
   6.730753e+05  -3.666824e+05
   9.461162e+05   2.751277e+05
   5.935145e+05   9.560673e+05
  -2.081674e+05   1.113978e+06
  -8.253492e+05   6.001961e+05
  -8.071731e+05  -1.313096e+05
  -3.731690e+05  -4.930413e+05
  -9.242488e+04  -3.670787e+05
  -1.657126e+05  -1.308689e+05
  -2.565146e+05  -1.391740e+05
  -1.958599e+04  -3.359386e+05
   4.393868e+05  -3.912073e+05
   7.015758e+05  -9.773190e+04
   4.703555e+05   4.017734e+05
  -1.846139e+05   6.984293e+05
  -8.588493e+05   4.359606e+05
  -1.031639e+06  -3.235227e+05
  -4.510344e+05  -1.025799e+06
   5.455471e+05  -1.065454e+06
   1.215590e+06  -3.960469e+05
   1.087977e+06   3.911156e+05
   4.176140e+05   6.849698e+05
  -1.408330e+05   4.699964e+05
  -2.420623e+05   2.285873e+05
  -1.014114e+05   3.125739e+05
  -1.033943e+05   5.633130e+05
  -3.454607e+05   5.550453e+05
  -5.956400e+05   9.542784e+04
  -5.642569e+05  -5.545447e+05
  -1.714849e+05  -8.981917e+05
   3.524071e+05  -6.345043e+05
   5.997663e+05   5.381936e+04
   3.346404e+05   6.226994e+05
  -2.222886e+05   6.403918e+05
  -5.515899e+05   1.734193e+05
  -3.676450e+05  -3.244418e+05
   6.782004e+04  -4.919524e+05
   2.577651e+05  -3.640164e+05
   5.517194e+04  -2.084842e+05
  -1.759145e+05  -1.758610e+05
  -5.692514e+03  -1.796732e+05
   5.336886e+05  -5.860505e+04
   9.306086e+05   2.264441e+05
   7.098768e+05   5.394221e+05
  -5.274967e+04   6.622906e+05
  -7.595037e+05   4.689668e+05
  -8.612658e+05   6.726485e+04
  -3.881827e+05  -2.474861e+05
   1.280347e+05  -2.488288e+05
   2.396451e+05  -7.215610e+03
   3.167507e+02   1.777665e+05
  -2.196334e+05   9.088794e+04
  -2.050849e+05  -1.770835e+05
  -6.659899e+04  -3.361315e+05
  -8.355020e+03  -2.139611e+05
  -7.887368e+04   4.691922e+04
  -1.652474e+05   1.254672e+05
  -1.213832e+05  -1.206684e+05
   1.206469e+05  -4.483912e+05
   4.585345e+05  -4.512020e+05
   6.101483e+05  -2.762308e+04
   3.360233e+05   4.441695e+05
  -2.284613e+05   4.945290e+05
  -5.728076e+05   9.650683e+04
  -3.078133e+05  -2.991832e+05
   3.518259e+05  -2.759610e+05
   7.447602e+05   1.113516e+05
   4.505927e+05   4.576537e+05
  -2.645243e+05   4.619360e+05
  -7.376971e+05   1.724259e+05
  -5.852647e+05  -1.442882e+05
  -4.364197e+04  -2.542839e+05
   3.172254e+05  -1.044809e+05
   1.647953e+05   1.440923e+05
  -2.930232e+05   2.034252e+05
  -5.325455e+05  -9.708812e+04
  -2.426783e+05  -5.683286e+05
   3.549870e+05  -7.434045e+05
   7.226922e+05  -3.303845e+05
   5.429971e+05   4.096693e+05
   1.030564e+04   8.402296e+05
  -4.079724e+05   5.735153e+05
  -4.319184e+05  -1.181411e+05
  -1.557692e+05  -5.798755e+05
   1.419750e+05  -4.562497e+05
   2.664144e+05  -2.121656e+04
   2.041610e+05   2.056685e+05
   7.413443e+04   8.241216e+04
   2.674468e+04  -4.789149e+04
   1.124288e+05   1.313334e+05
   1.923920e+05   4.637418e+05
   4.736696e+04   5.213552e+05
  -3.411921e+05   1.656561e+05
  -6.647887e+05  -2.831991e+05
  -5.647490e+05  -4.553726e+05
  -5.797624e+04  -3.319814e+05
   4.199279e+05  -1.471123e+05
   4.705229e+05  -4.010250e+04
   1.650193e+05   2.920177e+04
  -7.885193e+04   9.412954e+04
  -2.361498e+04   1.078394e+05
   1.199861e+05   7.078832e+04
   1.389999e+04   5.995073e+04
  -3.203564e+05   6.554485e+04
  -4.797884e+05  -5.169909e+04
  -1.617764e+05  -3.217670e+05
   4.405717e+05  -4.939089e+05
   8.068001e+05  -2.788913e+05
   6.199701e+05   2.508448e+05
   6.189664e+04   6.594823e+05
  -4.092784e+05   6.041684e+05
  -5.013731e+05   1.995382e+05
  -2.879031e+05  -1.408938e+05
  -4.390038e+04  -1.667251e+05
   3.416506e+04  -1.465987e+04
  -4.379216e+04   1.177061e+04
  -1.291099e+05  -1.865134e+05
  -8.177676e+04  -3.889604e+05
   1.108678e+05  -3.030395e+05
   3.035983e+05   9.075122e+04
   2.910187e+05   4.685197e+05
   5.418969e+03   4.696778e+05
  -3.514728e+05   7.183882e+04
  -4.371271e+05  -3.777745e+05
  -1.125408e+05  -5.115345e+05
   3.515470e+05  -2.780982e+05
   5.088364e+05   7.815438e+04
   2.242148e+05   2.968522e+05
  -1.518710e+05   2.980389e+05
  -1.851944e+05   1.613839e+05
   1.143165e+05   2.538656e+04
   3.015130e+05   1.245526e+04
   5.523698e+04   1.447390e+05
  -4.118212e+05   2.793702e+05
  -6.090732e+05   2.069953e+05
  -3.486148e+05  -1.022550e+05
   7.794665e+04  -3.955992e+05
   2.846477e+05  -3.791157e+05
   1.934825e+05  -6.355055e+04
  -9.814231e+02   2.203066e+05
  -1.245636e+05   1.876303e+05
  -1.485528e+05  -8.629186e+04
  -9.240283e+04  -2.763523e+05
   3.551941e+04  -1.904098e+05
   1.750701e+05   3.789477e+04
   2.128380e+05   1.447718e+05
   1.132082e+05   5.290651e+04
  -1.464417e+04  -6.440741e+04
  -4.984822e+04  -1.881248e+04
  -1.843569e+04   1.540889e+05
  -4.227464e+04   2.327957e+05
  -1.430445e+05   7.755353e+04
  -1.825317e+05  -1.864461e+05
  -3.951054e+04  -2.914952e+05
   1.989186e+05  -1.228526e+05
   2.881436e+05   1.528725e+05
   8.878901e+04   2.722559e+05
  -2.477418e+05   1.499030e+05
  -3.994668e+05  -6.770178e+04
  -2.047339e+05  -1.919494e+05
   1.460509e+05  -1.709798e+05
   2.963966e+05  -7.902720e+04
   1.134015e+05  -4.306171e+03
  -1.584238e+05   6.320664e+03
  -1.772765e+05  -5.229369e+04
   9.718966e+04  -1.215149e+05
   3.573990e+05  -8.230360e+04
