
 $NMID
 id='ANONYMOUS ', fmtdat='(2E16.6)'
 volume=1.0
 tramp=1.0
 $END
   9.323476e+06   1.530765e+06
   5.377417e+06   5.022377e+06
  -8.152823e+05   5.604242e+06
  -4.292142e+06   3.460337e+06
  -3.299727e+06   2.684125e+05
  -1.155357e+05  -1.605201e+06
   1.896018e+06  -8.021053e+05
   1.368367e+06   1.528506e+06
  -5.443981e+05   2.615413e+06
  -1.823038e+06   1.071160e+06
  -1.437788e+06  -1.433919e+06
   1.152026e+04  -2.106431e+06
   1.039656e+06  -3.009584e+05
   6.663608e+05   1.851769e+06
  -6.852928e+05   1.999195e+06
  -1.587116e+06   6.268182e+04
  -9.958036e+05  -1.986255e+06
   6.860014e+05  -2.316403e+06
   1.975573e+06  -8.748179e+05
   1.784719e+06   8.787650e+05
   5.054311e+05   1.523652e+06
  -4.382087e+05   9.764738e+05
  -1.301230e+05   3.707655e+05
   8.296905e+05   6.770061e+05
   9.676398e+05   1.561692e+06
  -3.942573e+05   1.813755e+06
  -2.235865e+06   8.251799e+05
  -2.774637e+06  -6.868054e+05
  -1.347037e+06  -1.498408e+06
   7.806743e+05  -1.101319e+06
   1.639840e+06   8.098022e+03
   5.771155e+05   9.063912e+05
  -1.124034e+06   8.864691e+05
  -1.692922e+06  -1.117375e+05
  -7.403592e+05  -1.311591e+06
   5.289532e+05  -1.574330e+06
   8.369246e+05  -5.551556e+05
   1.873478e+05   6.893644e+05
  -4.158909e+05   7.541018e+05
  -2.636097e+05  -4.008091e+05
   3.900059e+05  -1.308893e+06
   8.229489e+05  -7.991628e+05
   6.295749e+05   5.306087e+05
  -3.012752e+04   1.078986e+06
  -6.318301e+05   2.121729e+05
  -6.022464e+05  -1.050269e+06
   2.564534e+05  -1.305122e+06
   1.387996e+06  -2.820719e+05
   1.736763e+06   1.046071e+06
   7.577674e+05   1.554716e+06
  -8.335506e+05   9.554613e+05
  -1.636863e+06  -1.194576e+05
  -1.003708e+06  -7.705456e+05
   2.996166e+05  -5.917113e+05
   9.702011e+05   5.617396e+04
   5.333911e+05   4.640568e+05
  -3.144148e+05   2.779121e+05
  -5.960290e+05  -2.175650e+05
  -8.840085e+04  -4.771968e+05
   5.332031e+05  -2.594020e+05
   4.740083e+05   1.951656e+05
  -2.934421e+05   4.223963e+05
  -9.276220e+05   1.174595e+05
  -5.733285e+05  -6.006905e+05
   6.646858e+05  -1.182913e+06
   1.736947e+06  -1.021871e+06
   1.731145e+06  -3.371337e+04
   8.088214e+05   1.135356e+06
  -8.955347e+04   1.660295e+06
  -3.485780e+05   1.348694e+06
  -2.270665e+05   7.678596e+05
  -3.197225e+05   5.059540e+05
  -7.694607e+05   4.795927e+05
  -1.169332e+06   1.580231e+05
  -1.070736e+06  -6.033232e+05
  -4.142694e+05  -1.215048e+06
   4.372294e+05  -9.759061e+05
   9.281912e+05   6.412113e+04
   6.682383e+05   1.037206e+06
  -2.091503e+05   1.096122e+06
  -1.031039e+06   2.392907e+05
  -1.127040e+06  -7.497224e+05
  -4.840149e+05  -1.121259e+06
   2.488419e+05  -8.269616e+05
   4.880578e+05  -3.911087e+05
   3.464093e+05  -2.543149e+05
   4.114314e+05  -3.482472e+05
   9.400677e+05  -2.740713e+05
   1.440445e+06   2.184016e+05
   1.164700e+06   9.552362e+05
  -7.147700e+03   1.457692e+06
  -1.282070e+06   1.308633e+06
  -1.650916e+06   5.070025e+05
  -8.888874e+05  -4.463630e+05
   2.076000e+05  -8.852731e+05
   6.348405e+05  -5.547151e+05
   1.761657e+05   1.125725e+05
  -4.936209e+05   4.020698e+05
  -6.304656e+05   6.603672e+04
  -1.828667e+05  -4.125334e+05
   2.916176e+05  -3.969435e+05
   2.938196e+05   1.189569e+05
  -1.577247e+05   4.569689e+05
  -6.207922e+05   3.992003e+04
  -6.195284e+05  -8.792998e+05
  -2.351079e+02  -1.407473e+06
   9.044655e+05  -9.367178e+05
   1.439701e+06   2.104432e+05
   1.144212e+06   1.107551e+06
   2.280791e+05   1.139885e+06
  -5.541705e+05   5.311450e+05
  -6.304834e+05  -5.506154e+03
  -1.793911e+05  -2.843029e+04
   1.205622e+05   2.749204e+05
  -1.208879e+05   4.147180e+05
  -5.873497e+05   1.604095e+05
  -6.619603e+05  -2.579902e+05
  -1.654678e+05  -4.371371e+05
   4.061282e+05  -2.181424e+05
   4.033928e+05   1.681638e+05
  -2.502953e+05   3.196692e+05
  -9.097335e+05   2.753728e+04
  -8.384545e+05  -5.191652e+05
   9.032040e+03  -8.659124e+05
   8.969169e+05  -6.816071e+05
   1.043595e+06  -8.298820e+04
   4.055858e+05   4.322593e+05
  -3.264876e+05   4.400689e+05
  -4.693860e+05   1.326078e+04
   5.300672e+03  -3.426811e+05
   5.457345e+05  -2.165836e+05
   6.187064e+05   2.684719e+05
   1.840335e+05   5.954589e+05
  -3.367897e+05   4.288335e+05
  -4.787842e+05  -2.102835e+04
  -1.603129e+05  -2.493160e+05
   2.342508e+05  -2.198568e+04
   2.218942e+05   3.824459e+05
  -2.643640e+05   4.894148e+05
  -7.523188e+05   1.213642e+05
  -7.017044e+05  -4.430065e+05
  -9.552192e+04  -7.480487e+05
   5.218983e+05  -5.674445e+05
   6.177753e+05  -7.946418e+04
   2.052108e+05   3.053960e+05
  -2.340478e+05   3.058415e+05
  -2.878134e+05   1.165676e+04
   1.754231e+03  -2.259142e+05
   2.597835e+05  -1.698138e+05
   2.028875e+05   4.929803e+04
  -7.766866e+04   9.873207e+04
  -2.219545e+05  -1.431604e+05
   1.889253e+04  -4.090832e+05
   4.926941e+05  -3.225416e+05
   7.525904e+05   1.767704e+05
   4.919943e+05   7.347044e+05
  -1.299047e+05   9.068230e+05
  -6.342787e+05   5.611794e+05
  -6.929340e+05  -2.148897e+04
  -4.114066e+05  -4.134837e+05
  -1.428109e+05  -4.140897e+05
  -8.581710e+04  -1.963309e+05
  -1.181432e+05  -9.090575e+04
  -1.692791e+03  -2.138658e+05
   3.052144e+05  -3.332800e+05
   5.595283e+05  -1.497520e+05
   4.522241e+05   3.041710e+05
  -6.691974e+04   6.215637e+05
  -6.646543e+05   4.272342e+05
  -8.566308e+05  -2.032490e+05
  -4.297038e+05  -7.785058e+05
   3.373860e+05  -8.451907e+05
   8.954014e+05  -3.883747e+05
   8.944374e+05   1.996500e+05
   4.506057e+05   5.063051e+05
  -2.521763e+04   4.494803e+05
  -2.264620e+05   2.799320e+05
  -1.808072e+05   2.672938e+05
  -1.340378e+05   3.975665e+05
  -2.520648e+05   3.978425e+05
  -4.414129e+05   6.900986e+04
  -4.512202e+05  -4.365364e+05
  -1.546174e+05  -7.179060e+05
   2.728808e+05  -5.187170e+05
   4.840100e+05   9.826350e+03
   2.971284e+05   4.502758e+05
  -1.074694e+05   4.998190e+05
  -3.601674e+05   2.026187e+05
  -2.736387e+05  -1.543381e+05
  -1.413567e+04  -3.259345e+05
   1.089947e+05  -2.904089e+05
  -3.554875e+03  -1.937850e+05
  -1.337841e+05  -1.569608e+05
  -1.287505e+03  -1.528378e+05
   3.918855e+05  -6.670515e+04
   7.035965e+05   1.450266e+05
   5.744585e+05   3.806259e+05
   1.964818e+04   4.790581e+05
  -5.353879e+05   3.647927e+05
  -6.543674e+05   1.112238e+05
  -3.202848e+05  -1.130708e+05
   7.477730e+04  -1.636492e+05
   1.658960e+05  -3.671022e+04
  -2.530307e+04   1.049496e+05
  -1.978173e+05   7.068251e+04
  -1.601500e+05  -1.393361e+05
  -1.386981e+04  -2.928551e+05
   3.519368e+04  -1.850375e+05
  -5.937559e+04   7.631645e+04
  -1.580442e+05   1.579175e+05
  -1.091277e+05  -8.448132e+04
   1.052424e+05  -3.847256e+05
   3.537264e+05  -3.628755e+05
   4.343819e+05   9.181910e+03
   2.204199e+05   3.618381e+05
  -1.807682e+05   3.531868e+05
  -4.318937e+05   3.419902e+04
  -2.494371e+05  -2.500933e+05
   2.583099e+05  -2.377692e+05
   6.158642e+05   3.418685e+04
   4.398940e+05   3.245741e+05
  -1.381905e+05   4.094461e+05
  -5.842857e+05   2.359743e+05
  -5.124453e+05  -4.975977e+04
  -7.216093e+04  -2.092885e+05
   2.400384e+05  -1.166496e+05
   1.159389e+05   9.860912e+04
  -2.603660e+05   1.510822e+05
  -4.342028e+05  -1.052307e+05
  -1.655954e+05  -4.822837e+05
   3.294658e+05  -5.989885e+05
   6.100997e+05  -2.526908e+05
   4.495043e+05   3.394752e+05
   2.310237e+04   6.937736e+05
  -3.115209e+05   5.029141e+05
  -3.559096e+05  -4.981306e+04
  -1.750362e+05  -4.543544e+05
   5.382810e+04  -3.897089e+05
   1.984399e+05  -4.033809e+04
   2.051327e+05   1.622559e+05
   1.006655e+05   6.889828e+04
   4.410933e+03  -4.773820e+04
   3.798382e+04   9.023790e+04
   1.462933e+05   3.654336e+05
   9.678578e+04   4.212591e+05
  -2.216241e+05   1.405723e+05
  -5.549800e+05  -2.134699e+05
  -5.114845e+05  -3.471707e+05
  -5.854979e+04  -2.584411e+05
   3.746005e+05  -1.329768e+05
   3.920653e+05  -6.052571e+04
   9.979593e+04   4.760373e+03
  -7.702116e+04   7.737261e+04
   3.020324e+04   1.002591e+05
   1.496574e+05   6.984682e+04
  -4.567321e+03   5.509510e+04
  -3.116271e+05   5.186952e+04
  -3.878684e+05  -4.967349e+04
  -6.780991e+04  -2.657478e+05
   4.001416e+05  -3.892164e+05
   6.280513e+05  -1.972318e+05
   4.560855e+05   2.336902e+05
   4.227955e+04   5.467002e+05
  -3.159708e+05   4.781204e+05
  -4.104961e+05   1.371906e+05
  -2.476300e+05  -1.348487e+05
  -1.803180e+04  -1.383931e+05
   7.232167e+04   5.887366e+03
  -1.427617e+04   3.751277e+04
  -1.252384e+05  -1.317596e+05
  -8.911713e+04  -3.108955e+05
   9.811833e+04  -2.398128e+05
   2.630143e+05   9.907053e+04
   2.207187e+05   4.134803e+05
  -4.144303e+04   3.873910e+05
  -3.207069e+05   2.476909e+04
  -3.525553e+05  -3.460629e+05
  -6.636034e+04  -4.187122e+05
   2.975901e+05  -1.981506e+05
   3.954853e+05   7.682049e+04
   1.535729e+05   2.154534e+05
  -1.266290e+05   2.036131e+05
  -1.160278e+05   1.157606e+05
   1.350393e+05   2.650313e+04
   2.567447e+05   1.199497e+04
   3.081816e+04   1.125511e+05
  -3.313747e+05   2.356111e+05
  -4.536957e+05   1.950704e+05
  -2.385410e+05  -5.823433e+04
   6.744389e+04  -3.072663e+05
   1.980046e+05  -2.867289e+05
   1.240162e+05  -1.629760e+04
  -1.664560e+04   1.996535e+05
  -1.121047e+05   1.336728e+05
  -1.309963e+05  -1.036036e+05
  -7.138127e+04  -2.267403e+05
   4.428478e+04  -1.250551e+05
   1.443746e+05   4.569677e+04
   1.561942e+05   9.483138e+04
   8.716443e+04   2.056454e+04
   1.146414e+04  -2.864323e+04
  -2.766366e+04   4.182593e+04
  -5.821445e+04   1.586632e+05
  -1.111703e+05   1.659195e+05
  -1.522689e+05   4.163461e+03
  -1.114335e+05  -2.031857e+05
   2.826966e+04  -2.561903e+05
   1.832242e+05  -8.696104e+04
   2.163414e+05   1.522170e+05
   5.794707e+04   2.395067e+05
  -1.916010e+05   1.151026e+05
  -3.076064e+05  -7.459748e+04
  -1.566714e+05  -1.588681e+05
   1.242820e+05  -1.128131e+05
   2.385566e+05  -3.012067e+04
   6.558113e+04   8.077267e+03
  -1.742867e+05  -1.473055e+04
  -1.684164e+05  -7.874755e+04
   1.057265e+05  -1.298596e+05
   3.436417e+05  -7.757423e+04
