
 $NMID
 id='ANONYMOUS ', fmtdat='(2E16.6)'
 volume=1.0
 tramp=1.0
 $END
   3.031425e+07   1.167261e+06
   1.911116e+07   1.608860e+07
  -1.769268e+06   1.943525e+07
  -1.390095e+07   1.103722e+07
  -1.043423e+07  -3.089843e+05
   9.616491e+04  -5.332639e+06
   5.980102e+06  -1.735129e+06
   3.722497e+06   5.063533e+06
  -2.105979e+06   7.500519e+06
  -5.661695e+06   2.927358e+06
  -4.544547e+06  -3.962060e+06
  -3.937185e+05  -6.012728e+06
   2.827735e+06  -1.281845e+06
   2.019014e+06   4.819058e+06
  -1.998061e+06   5.548428e+06
  -4.905476e+06   1.183402e+05
  -3.273265e+06  -5.987546e+06
   1.778905e+06  -7.250812e+06
   5.867886e+06  -3.312973e+06
   5.863593e+06   1.836578e+06
   2.605981e+06   4.352847e+06
  -4.235778e+05   3.671310e+06
  -5.887004e+05   2.101944e+06
   1.413634e+06   2.082115e+06
   2.197427e+06   3.663024e+06
  -6.960516e+05   4.523212e+06
  -5.529707e+06   2.666753e+06
  -7.562560e+06  -1.058260e+06
  -4.264754e+06  -3.670154e+06
   1.394184e+06  -3.206885e+06
   3.991897e+06  -5.540724e+05
   1.613783e+06   1.785660e+06
  -2.454314e+06   1.957332e+06
  -3.907333e+06  -1.483410e+05
  -1.933878e+06  -2.935859e+06
   8.786891e+05  -3.953720e+06
   1.939964e+06  -1.936645e+06
   9.857250e+05   1.298884e+06
  -3.961614e+05   2.165158e+06
  -5.757747e+05  -4.233607e+05
   7.138513e+05  -3.139110e+06
   2.134387e+06  -2.160974e+06
   1.897706e+06   1.659387e+06
  -3.334936e+05   3.557581e+06
  -2.653479e+06   9.232879e+05
  -2.512239e+06  -3.343671e+06
   6.000211e+05  -4.458512e+06
   4.243947e+06  -1.313146e+06
   5.095809e+06   2.838949e+06
   2.100114e+06   4.372635e+06
  -2.351338e+06   2.612400e+06
  -4.483774e+06  -4.212539e+05
  -2.660533e+06  -2.241933e+06
   1.037161e+06  -1.750583e+06
   2.940694e+06   1.552572e+05
   1.583634e+06   1.444728e+06
  -9.445679e+05   9.045439e+05
  -1.607830e+06  -6.139423e+05
   7.225358e+04  -1.236100e+06
   1.695114e+06  -2.642629e+05
   1.004427e+06   1.151607e+06
  -1.466355e+06   1.448031e+06
  -3.040672e+06   1.558846e+05
  -1.787816e+06  -1.961903e+06
   1.566097e+06  -3.522678e+06
   4.422056e+06  -3.180028e+06
   4.720245e+06  -5.841964e+05
   2.645961e+06   2.809993e+06
   1.751453e+05   4.599454e+06
  -9.619250e+05   3.793239e+06
  -8.189930e+05   1.893516e+06
  -7.422717e+05   9.762314e+05
  -1.568790e+06   1.124387e+06
  -2.654844e+06   6.722171e+05
  -2.711105e+06  -1.139604e+06
  -1.261417e+06  -2.822200e+06
   8.644493e+05  -2.405966e+06
   2.208144e+06   8.465241e+04
   1.735400e+06   2.520771e+06
  -3.703713e+05   2.829578e+06
  -2.615400e+06   8.801382e+05
  -3.216808e+06  -1.651775e+06
  -1.737653e+06  -2.942813e+06
   3.790180e+05  -2.531793e+06
   1.359535e+06  -1.421624e+06
   1.124828e+06  -8.324263e+05
   1.207907e+06  -9.110316e+05
   2.523336e+06  -7.311113e+05
   3.858789e+06   5.020736e+05
   3.159166e+06   2.442640e+06
   1.001269e+05   3.823850e+06
  -3.195172e+06   3.536014e+06
  -4.174332e+06   1.547163e+06
  -2.351257e+06  -9.420471e+05
   3.303264e+05  -2.243209e+06
   1.476527e+06  -1.537096e+06
   4.695528e+05   2.244168e+05
  -1.202019e+06   1.106864e+06
  -1.667736e+06   2.612609e+05
  -5.897400e+05  -1.061168e+06
   6.801055e+05  -1.044988e+06
   7.005285e+05   3.245131e+05
  -5.407148e+05   1.119967e+06
  -1.716692e+06  -1.358885e+05
  -1.505509e+06  -2.529044e+06
   2.640834e+05  -3.660562e+06
   2.512656e+06  -2.233233e+06
   3.683083e+06   6.756050e+05
   2.861363e+06   2.813459e+06
   5.995429e+05   2.867394e+06
  -1.360534e+06   1.406359e+06
  -1.604695e+06   6.337342e+04
  -4.689790e+05  -5.759366e+04
   3.359373e+05   7.096136e+05
  -2.993379e+05   1.135819e+06
  -1.579406e+06   4.949275e+05
  -1.797507e+06  -6.630338e+05
  -4.536156e+05  -1.180702e+06
   1.061823e+06  -5.899398e+05
   1.018112e+06   4.260042e+05
  -6.870934e+05   7.831406e+05
  -2.329749e+06   2.522257e+04
  -2.101606e+06  -1.323279e+06
   4.154676e+04  -2.190538e+06
   2.285064e+06  -1.778929e+06
   2.702006e+06  -2.800387e+05
   1.109694e+06   1.118388e+06
  -8.189957e+05   1.230450e+06
  -1.274798e+06   1.060739e+05
  -5.692743e+04  -9.142665e+05
   1.411193e+06  -6.270245e+05
   1.638623e+06   6.756068e+05
   4.803168e+05   1.558273e+06
  -9.010717e+05   1.106335e+06
  -1.253322e+06  -8.391137e+04
  -3.973657e+05  -6.723462e+05
   6.430272e+05  -7.665402e+04
   6.277380e+05   9.818801e+05
  -6.288597e+05   1.303397e+06
  -1.937778e+06   3.998234e+05
  -1.873820e+06  -1.079223e+06
  -3.177499e+05  -1.948958e+06
   1.330412e+06  -1.530814e+06
   1.617726e+06  -2.419938e+05
   5.424317e+05   7.963497e+05
  -5.999054e+05   8.058634e+05
  -7.167777e+05   4.834040e+04
   2.853821e+04  -5.416440e+05
   6.358154e+05  -3.933628e+05
   4.386407e+05   1.242506e+05
  -2.638416e+05   2.008224e+05
  -5.824613e+05  -4.251720e+05
   5.642785e+04  -1.091537e+06
   1.276283e+06  -8.737790e+05
   1.977177e+06   4.051131e+05
   1.347255e+06   1.872804e+06
  -2.634822e+05   2.356962e+06
  -1.607102e+06   1.469340e+06
  -1.771648e+06  -4.234012e+04
  -1.030033e+06  -1.021686e+06
  -3.570930e+05  -9.770175e+05
  -2.702098e+05  -4.300441e+05
  -3.802365e+05  -2.299247e+05
  -4.267299e+04  -5.920914e+05
   7.886543e+05  -8.870000e+05
   1.440569e+06  -3.995370e+05
   1.153153e+06   7.564098e+05
  -1.670184e+05   1.580202e+06
  -1.697662e+06   1.127218e+06
  -2.225320e+06  -4.737913e+05
  -1.154728e+06  -2.006075e+06
   8.508539e+05  -2.241753e+06
   2.338936e+06  -1.061450e+06
   2.332877e+06   5.011188e+05
   1.144457e+06   1.301747e+06
  -8.391291e+04   1.122603e+06
  -5.403793e+05   6.787928e+05
  -3.691786e+05   6.925649e+05
  -2.623430e+05   1.079246e+06
  -6.228759e+05   1.094298e+06
  -1.161109e+06   2.360223e+05
  -1.218922e+06  -1.086575e+06
  -4.681789e+05  -1.845770e+06
   6.571660e+05  -1.367821e+06
   1.255576e+06  -4.217204e+03
   8.032096e+05   1.170876e+06
  -2.723210e+05   1.322312e+06
  -9.743435e+05   5.262645e+05
  -7.497529e+05  -4.431633e+05
  -2.954683e+04  -8.972630e+05
   3.196673e+05  -7.735099e+05
   5.587100e+03  -4.865795e+05
  -3.678123e+05  -3.797432e+05
  -2.192311e+04  -3.891872e+05
   1.035035e+06  -2.051929e+05
   1.872123e+06   3.201167e+05
   1.530957e+06   9.597189e+05
   6.420417e+04   1.281080e+06
  -1.398070e+06   1.018529e+06
  -1.713445e+06   3.228227e+05
  -8.428777e+05  -3.190348e+05
   1.924809e+05  -4.600871e+05
   4.469215e+05  -9.362281e+04
  -3.262049e+04   2.992751e+05
  -4.889168e+05   2.047144e+05
  -4.335266e+05  -3.447354e+05
  -9.461831e+04  -7.371660e+05
   4.192490e+04  -4.701858e+05
  -1.512305e+05   1.770062e+05
  -3.783531e+05   3.837481e+05
  -2.847062e+05  -2.162983e+05
   2.258340e+05  -9.895795e+05
   8.859898e+05  -9.797400e+05
   1.162791e+06  -5.139027e+04
   6.456514e+05   9.047511e+05
  -4.272143e+05   9.660960e+05
  -1.130970e+06   1.695466e+05
  -6.711680e+05  -6.131422e+05
   6.611027e+05  -6.347615e+05
   1.590374e+06   6.109598e+04
   1.122995e+06   8.286873e+05
  -3.684588e+05   1.054214e+06
  -1.500610e+06   6.070389e+05
  -1.307698e+06  -1.226026e+05
  -1.832143e+05  -5.333905e+05
   6.218511e+05  -3.065797e+05
   3.242790e+05   2.533402e+05
  -6.386206e+05   4.267917e+05
  -1.129141e+06  -2.054978e+05
  -5.009560e+05  -1.209676e+06
   7.553659e+05  -1.582455e+06
   1.529617e+06  -7.284048e+05
   1.191093e+06   8.229188e+05
   1.245218e+05   1.781583e+06
  -7.659041e+05   1.307944e+06
  -9.243960e+05  -1.223597e+05
  -4.689997e+05  -1.169305e+06
   1.409356e+05  -1.003514e+06
   5.223448e+05  -1.111915e+05
   5.201257e+05   4.028878e+05
   2.388386e+05   1.687407e+05
   1.906844e+04  -1.189074e+05
   1.468517e+05   2.359690e+05
   4.257222e+05   9.343715e+05
   2.552492e+05   1.083160e+06
  -5.962198e+05   3.875254e+05
  -1.446854e+06  -5.029849e+05
  -1.323189e+06  -8.602907e+05
  -1.723885e+05  -6.695013e+05
   9.298855e+05  -3.721588e+05
   1.000745e+06  -1.788322e+05
   2.837646e+05   1.185211e+04
  -1.812964e+05   2.064697e+05
   5.317903e+04   2.505943e+05
   3.562835e+05   1.594168e+05
   4.941340e+03   1.369168e+05
  -7.624257e+05   1.649020e+05
  -1.007374e+06  -8.004646e+04
  -2.486242e+05  -6.702480e+05
   9.594449e+05  -1.053619e+06
   1.616361e+06  -6.009549e+05
   1.233933e+06   5.281851e+05
   1.739114e+05   1.398156e+06
  -7.736378e+05   1.279139e+06
  -1.040222e+06   4.165064e+05
  -6.426944e+05  -3.076322e+05
  -7.394407e+04  -3.517324e+05
   1.545126e+05  -1.631122e+03
  -4.999605e+04   8.048581e+04
  -3.250649e+05  -3.419095e+05
  -2.486703e+05  -7.981755e+05
   2.207512e+05  -6.336584e+05
   6.762317e+05   2.103435e+05
   6.235156e+05   1.018683e+06
  -3.267339e+04   9.966680e+05
  -7.976253e+05   1.198931e+05
  -9.466254e+05  -8.268106e+05
  -2.346456e+05  -1.069238e+06
   7.356657e+05  -5.627074e+05
   1.040769e+06   1.439988e+05
   4.423055e+05   5.549969e+05
  -2.990270e+05   5.663241e+05
  -3.097407e+05   3.252036e+05
   3.213101e+05   5.291868e+04
   6.555688e+05   2.401389e+03
   1.022074e+05   2.895126e+05
  -8.324381e+05   6.387356e+05
  -1.180807e+06   5.377925e+05
  -6.555820e+05  -1.379328e+05
   1.362999e+05  -8.101280e+05
   5.012465e+05  -7.795388e+05
   3.387461e+05  -8.325978e+04
  -1.159268e+04   5.013278e+05
  -2.654659e+05   3.696452e+05
  -3.394989e+05  -2.303188e+05
  -2.115629e+05  -5.755538e+05
   8.729113e+04  -3.472357e+05
   3.749531e+05   9.179151e+04
   4.272154e+05   2.422886e+05
   2.324629e+05   5.888465e+04
   8.065422e+03  -8.993853e+04
  -8.052527e+04   7.188290e+04
  -1.051772e+05   3.888466e+05
  -2.127998e+05   4.505029e+05
  -3.623953e+05   6.588988e+04
  -3.316240e+05  -4.728360e+05
   3.966913e+03  -6.458028e+05
   4.471252e+05  -2.518473e+05
   5.853236e+05   3.479730e+05
   1.843593e+05   5.977973e+05
  -4.881674e+05   3.236428e+05
  -8.124916e+05  -1.435937e+05
  -4.284059e+05  -3.900206e+05
   3.023193e+05  -3.227383e+05
   6.112487e+05  -1.280918e+05
   1.878816e+05   3.341623e+03
  -4.178207e+05  -8.651135e+03
  -4.232426e+05  -1.612806e+05
   2.423806e+05  -3.227189e+05
   8.419078e+05  -2.260661e+05
