
 $NMID
 id='ANONYMOUS ', fmtdat='(2E16.6)'
 volume=1.0
 tramp=1.0
 $END
   4.884548e+07   2.707703e+05
   2.964583e+07   2.958147e+07
  -5.872208e+06   3.282290e+07
  -2.372304e+07   1.352009e+07
  -1.472984e+07  -5.222645e+06
   2.443006e+06  -8.196980e+06
   8.725448e+06   4.546058e+05
   2.981473e+06   8.445702e+06
  -5.084750e+06   8.741928e+06
  -8.506854e+06   2.201267e+06
  -6.264314e+06  -5.541346e+06
  -6.902629e+05  -7.813112e+06
   3.632554e+06  -2.332217e+06
   2.424065e+06   5.196969e+06
  -3.273363e+06   6.190797e+06
  -7.005757e+06  -9.523155e+05
  -4.074125e+06  -8.984063e+06
   3.222560e+06  -1.046337e+07
   8.874266e+06  -5.156118e+06
   9.383371e+06   1.959564e+06
   5.507325e+06   6.563900e+06
   4.180976e+05   7.250581e+06
  -2.266991e+06   4.977314e+06
  -1.013093e+06   2.523136e+06
   1.335684e+06   2.511764e+06
  -5.148247e+03   4.182424e+06
  -5.340462e+06   3.869645e+06
  -8.961442e+06   8.853812e+04
  -6.225316e+06  -3.941326e+06
   1.597279e+05  -4.501627e+06
   3.714363e+06  -2.013886e+06
   2.202959e+06   4.348711e+05
  -1.072304e+06   1.161250e+06
  -2.648320e+06   2.997066e+05
  -2.075933e+06  -1.794759e+06
  -2.726987e+05  -3.864335e+06
   1.804808e+06  -3.303032e+06
   2.605731e+06   3.931890e+05
   1.156626e+06   3.193331e+06
  -6.963864e+05   1.301729e+06
  -5.679868e+04  -2.581251e+06
   2.345939e+06  -2.225731e+06
   2.275185e+06   2.760271e+06
  -1.855232e+06   5.397553e+06
  -5.754851e+06   9.933974e+05
  -4.388853e+06  -5.902048e+06
   1.540039e+06  -7.367517e+06
   6.501186e+06  -2.103665e+06
   6.371469e+06   3.980265e+06
   1.874593e+06   5.529301e+06
  -3.148866e+06   2.644534e+06
  -4.990352e+06  -1.236665e+06
  -2.448943e+06  -3.135079e+06
   2.033969e+06  -2.059520e+06
   4.062716e+06   7.146294e+05
   1.832959e+06   2.361780e+06
  -1.495438e+06   1.235034e+06
  -1.682803e+06  -9.130005e+05
   9.902721e+05  -9.966946e+05
   2.258078e+06   1.213328e+06
  -1.792028e+05   2.821650e+06
  -3.753906e+06   1.774939e+06
  -4.658055e+06  -9.472477e+05
  -2.153695e+06  -3.408212e+06
   1.720944e+06  -4.738047e+06
   4.789777e+06  -4.333139e+06
   5.723551e+06  -1.414651e+06
   4.013299e+06   3.021991e+06
   7.263500e+05   5.679993e+06
  -1.616320e+06   4.457681e+06
  -1.513268e+06   1.379637e+06
  -3.248206e+05   5.647892e+04
  -3.851108e+05   9.843752e+05
  -1.844220e+06   1.463427e+06
  -2.737382e+06  -1.233269e+05
  -1.792720e+06  -2.133642e+06
   2.107794e+05  -2.179010e+06
   1.701220e+06  -1.186999e+05
   1.663188e+06   2.172323e+06
  -1.008504e+05   2.871127e+06
  -2.692765e+06   1.429543e+06
  -4.087019e+06  -1.296807e+06
  -2.797011e+06  -3.500717e+06
   1.220530e+05  -3.738472e+06
   2.011314e+06  -2.353977e+06
   1.924859e+06  -1.048300e+06
   1.658383e+06  -7.315738e+05
   2.807797e+06  -5.290906e+05
   4.176014e+06   7.025087e+05
   3.356241e+06   2.668560e+06
   1.045142e+05   4.008712e+06
  -3.186280e+06   3.753419e+06
  -4.136496e+06   1.935452e+06
  -2.546801e+06  -5.563568e+05
  -1.110730e+05  -2.210292e+06
   1.189180e+06  -1.808162e+06
   5.337171e+05   8.334004e+04
  -1.110066e+06   1.241230e+06
  -1.831120e+06   3.556384e+05
  -8.277226e+05  -1.159193e+06
   5.577012e+05  -1.084495e+06
   4.916713e+05   3.741927e+05
  -9.339224e+05   7.968526e+05
  -1.810977e+06  -9.971948e+05
  -8.449022e+05  -3.229810e+06
   1.269979e+06  -3.447819e+06
   2.975312e+06  -1.368379e+06
   3.370355e+06   1.266052e+06
   2.380581e+06   2.768940e+06
   4.662038e+05   2.653860e+06
  -1.267444e+06   1.428378e+06
  -1.571010e+06   1.765300e+05
  -4.830393e+05  -5.121598e+04
   3.463279e+05   7.377085e+05
  -3.881255e+05   1.280637e+06
  -1.816950e+06   5.472243e+05
  -1.960124e+06  -8.366852e+05
  -3.937257e+05  -1.353609e+06
   1.140332e+06  -5.660776e+05
   9.099862e+05   4.515246e+05
  -8.108390e+05   5.729511e+05
  -2.199693e+06  -2.544131e+05
  -1.804262e+06  -1.354756e+06
   2.151525e+05  -2.007111e+06
   2.297993e+06  -1.654552e+06
   2.738241e+06  -2.549351e+05
   1.177224e+06   1.229136e+06
  -8.954426e+05   1.424020e+06
  -1.483431e+06   1.629736e+05
  -1.622439e+05  -1.033939e+06
   1.484869e+06  -6.980653e+05
   1.684135e+06   7.626775e+05
   3.572693e+05   1.623797e+06
  -1.049602e+06   9.942377e+05
  -1.248517e+06  -2.669580e+05
  -2.746507e+05  -7.550666e+05
   7.560940e+05  -5.608063e+04
   7.002846e+05   1.032704e+06
  -5.914336e+05   1.381758e+06
  -1.979261e+06   4.940593e+05
  -1.977601e+06  -1.060919e+06
  -3.537429e+05  -2.034230e+06
   1.416115e+06  -1.598090e+06
   1.692949e+06  -2.048131e+05
   5.030522e+05   8.512079e+05
  -6.465587e+05   7.949002e+05
  -6.477814e+05   6.502063e+04
   1.020498e+05  -3.974704e+05
   5.226363e+05  -2.422281e+05
   1.896123e+05   8.223686e+04
  -4.068837e+05  -1.701502e+04
  -5.253397e+05  -6.177912e+05
   1.805138e+05  -1.157192e+06
   1.355380e+06  -8.744656e+05
   2.040380e+06   4.232494e+05
   1.415312e+06   1.923008e+06
  -2.418818e+05   2.387354e+06
  -1.612512e+06   1.403176e+06
  -1.695398e+06  -1.203448e+05
  -8.810722e+05  -9.261307e+05
  -3.149640e+05  -7.217376e+05
  -4.237982e+05  -2.652797e+05
  -5.663556e+05  -2.944370e+05
  -7.535465e+04  -7.208486e+05
   8.576886e+05  -8.849301e+05
   1.438684e+06  -3.266652e+05
   1.057346e+06   7.338779e+05
  -2.432681e+05   1.473369e+06
  -1.712102e+06   1.062862e+06
  -2.222119e+06  -4.942436e+05
  -1.115185e+06  -2.072129e+06
   9.834127e+05  -2.315229e+06
   2.487031e+06  -1.013838e+06
   2.326316e+06   6.371293e+05
   9.801760e+05   1.329822e+06
  -1.870438e+05   9.766529e+05
  -4.246413e+05   5.381885e+05
  -1.452427e+05   7.305606e+05
  -1.435031e+05   1.245470e+06
  -6.618890e+05   1.232841e+06
  -1.256592e+06   2.910778e+05
  -1.294658e+06  -1.081171e+06
  -5.213831e+05  -1.872445e+06
   6.335050e+05  -1.406910e+06
   1.269330e+06   9.252726e+03
   7.963010e+05   1.255016e+06
  -3.712941e+05   1.368113e+06
  -1.117581e+06   4.219934e+05
  -7.894125e+05  -6.427770e+05
   9.538517e+04  -1.029914e+06
   4.915022e+05  -7.726568e+05
   7.111947e+04  -4.281290e+05
  -4.133122e+05  -3.449015e+05
  -4.855224e+04  -3.816397e+05
   1.117259e+06  -2.003191e+05
   2.004493e+06   3.396653e+05
   1.580034e+06   1.022684e+06
  -2.436258e+04   1.392072e+06
  -1.543282e+06   1.097277e+06
  -1.795086e+06   2.736261e+05
  -8.275417e+05  -4.596308e+05
   2.475898e+05  -5.408426e+05
   4.951105e+05  -4.288386e+04
   1.565135e+04   3.924955e+05
  -4.502535e+05   2.422417e+05
  -4.660620e+05  -3.425716e+05
  -2.149717e+05  -7.202196e+05
  -6.496372e+04  -4.728417e+05
  -1.406130e+05   1.090713e+05
  -2.993686e+05   3.049065e+05
  -2.730307e+05  -2.293667e+05
   1.635950e+05  -9.769274e+05
   8.951399e+05  -1.034512e+06
   1.311744e+06  -1.432206e+05
   7.997571e+05   9.081852e+05
  -4.192407e+05   1.094166e+06
  -1.223744e+06   2.964947e+05
  -7.121418e+05  -5.797373e+05
   6.930659e+05  -6.362478e+05
   1.575341e+06   1.000190e+05
   1.013021e+06   8.583548e+05
  -4.670487e+05   9.904122e+05
  -1.491450e+06   4.867941e+05
  -1.235318e+06  -1.869820e+05
  -1.378032e+05  -5.147613e+05
   6.415426e+05  -2.691849e+05
   3.692444e+05   2.864612e+05
  -5.912175e+05   4.979178e+05
  -1.162730e+06  -1.067286e+05
  -6.316513e+05  -1.177947e+06
   6.189601e+05  -1.665205e+06
   1.482220e+06  -8.459039e+05
   1.231337e+06   7.676836e+05
   1.790085e+05   1.776359e+06
  -7.464866e+05   1.281191e+06
  -9.171169e+05  -1.733047e+05
  -4.253768e+05  -1.182238e+06
   2.137950e+05  -9.650907e+05
   5.527345e+05  -8.360070e+04
   4.665901e+05   3.814630e+05
   1.708682e+05   1.422171e+05
   4.523998e+04  -9.768144e+04
   2.588806e+05   2.856047e+05
   4.886956e+05   9.566437e+05
   1.902389e+05   1.072051e+06
  -6.963608e+05   3.871298e+05
  -1.455771e+06  -4.751926e+05
  -1.268753e+06  -8.415828e+05
  -1.774992e+05  -6.903651e+05
   8.570162e+05  -4.042108e+05
   9.788181e+05  -1.736546e+05
   3.493805e+05   4.980437e+04
  -1.493009e+05   2.205526e+05
  -2.807238e+04   2.087575e+05
   2.703703e+05   1.025298e+05
   4.492487e+04   1.320953e+05
  -6.660817e+05   2.225942e+05
  -1.033353e+06  -2.285638e+04
  -4.091334e+05  -6.848948e+05
   8.496070e+05  -1.151354e+06
   1.680493e+06  -7.286145e+05
   1.381306e+06   4.411606e+05
   2.574489e+05   1.393720e+06
  -7.672202e+05   1.351894e+06
  -1.041207e+06   5.189642e+05
  -6.466870e+05  -2.389113e+05
  -1.265520e+05  -3.547591e+05
   7.533171e+04  -6.015763e+04
  -7.899497e+04   2.080967e+04
  -2.975992e+05  -3.645965e+05
  -2.407471e+05  -8.016320e+05
   1.830963e+05  -6.689690e+05
   6.731931e+05   1.279870e+05
   7.209540e+05   9.484686e+05
   1.029431e+05   1.019231e+06
  -7.478602e+05   2.358888e+05
  -1.016992e+06  -7.220975e+05
  -3.355968e+05  -1.078772e+06
   7.091722e+05  -6.628968e+05
   1.103620e+06   8.109113e+04
   5.205119e+05   6.057452e+05
  -2.867353e+05   6.656499e+05
  -3.741754e+05   3.615593e+05
   2.473323e+05   1.258226e+04
   6.432329e+05  -3.426251e+04
   1.423406e+05   3.046779e+05
  -8.207467e+05   6.667062e+05
  -1.247189e+06   5.292453e+05
  -7.509377e+05  -1.771715e+05
   1.002657e+05  -8.581643e+05
   5.486912e+05  -8.432810e+05
   4.189898e+05  -1.569004e+05
   4.902888e+04   4.746156e+05
  -2.388308e+05   4.280794e+05
  -3.468018e+05  -1.490770e+05
  -2.480637e+05  -5.722631e+05
   5.397922e+04  -4.207377e+05
   3.860967e+05   4.664597e+04
   4.690668e+05   2.787077e+05
   2.398410e+05   9.576848e+04
  -3.317340e+04  -1.471659e+05
  -8.290491e+04  -4.111901e+04
   7.952954e+03   3.493298e+05
  -5.324755e+04   5.410776e+05
  -3.156703e+05   2.123087e+05
  -4.493480e+05  -3.771939e+05
  -1.505890e+05  -6.400588e+05
   4.051189e+05  -3.086445e+05
   6.550601e+05   2.790349e+05
   2.481417e+05   5.680982e+05
  -5.032311e+05   3.596228e+05
  -8.721506e+05  -7.792967e+04
  -4.722738e+05  -3.752458e+05
   2.915412e+05  -3.946162e+05
   6.322808e+05  -2.232112e+05
   2.476697e+05  -1.779624e+04
  -3.420651e+05   6.551813e+04
  -4.020959e+05  -6.474016e+04
   1.677405e+05  -2.867066e+05
   7.359769e+05  -2.647864e+05
