
 $NMID
 id='ANONYMOUS ', fmtdat='(2E16.6)'
 volume=1.0
 tramp=1.0
 $END
   2.246510e+07  -2.331170e+06
   1.677887e+07   8.648133e+06
   2.059469e+06   1.445362e+07
  -8.967841e+06   1.122996e+07
  -8.809217e+06   2.225929e+06
  -1.208040e+06  -4.288032e+06
   4.782820e+06  -2.878561e+06
   4.280410e+06   3.491666e+06
  -4.609282e+05   6.945415e+06
  -4.250237e+06   3.535110e+06
  -4.081902e+06  -2.729119e+06
  -8.339403e+05  -4.953099e+06
   2.187006e+06  -1.131643e+06
   2.090238e+06   4.153009e+06
  -1.042493e+06   5.162994e+06
  -3.987944e+06   9.339368e+05
  -3.441206e+06  -4.345209e+06
   4.485012e+05  -5.978957e+06
   4.135957e+06  -3.166036e+06
   4.497491e+06   9.507525e+05
   2.035119e+06   2.924953e+06
  -7.088851e+04   2.283095e+06
   3.470324e+05   1.284064e+06
   2.185977e+06   1.913754e+06
   2.409134e+06   3.640133e+06
  -5.763417e+05   4.243574e+06
  -4.858060e+06   2.447348e+06
  -6.513678e+06  -6.853406e+05
  -3.616188e+06  -2.839189e+06
   1.314801e+06  -2.551597e+06
   3.584354e+06  -3.205959e+05
   1.307352e+06   1.877762e+06
  -2.605142e+06   2.069289e+06
  -3.931752e+06  -1.249647e+05
  -1.827148e+06  -2.895082e+06
   8.935336e+05  -3.617499e+06
   1.573816e+06  -1.497690e+06
   4.371059e+05   1.248319e+06
  -5.828271e+05   1.576824e+06
  -3.660045e+05  -8.449980e+05
   7.264300e+05  -3.027902e+06
   1.754116e+06  -2.128167e+06
   1.844277e+06   1.045995e+06
   5.383710e+05   2.894395e+06
  -1.467289e+06   1.283781e+06
  -2.213439e+06  -1.992986e+06
  -2.787740e+05  -3.375192e+06
   3.086345e+06  -1.459607e+06
   4.604263e+06   1.827981e+06
   2.389515e+06   3.566943e+06
  -1.755441e+06   2.620566e+06
  -4.078220e+06   1.911811e+05
  -2.737841e+06  -1.646071e+06
   5.193976e+05  -1.678990e+06
   2.438200e+06  -3.157551e+05
   1.562404e+06   9.344452e+05
  -6.182511e+05   8.476746e+05
  -1.524800e+06  -3.648761e+05
  -2.617505e+05  -1.295142e+06
   1.511293e+06  -8.376003e+05
   1.497185e+06   6.122211e+05
  -5.553929e+05   1.539795e+06
  -2.414141e+06   8.117891e+05
  -1.797377e+06  -1.231689e+06
   1.054637e+06  -3.002175e+06
   3.647918e+06  -2.911682e+06
   3.935733e+06  -6.950217e+05
   2.238019e+06   2.225848e+06
   3.996591e+05   3.854212e+06
  -3.846137e+05   3.418019e+06
  -4.730895e+05   2.008988e+06
  -8.245497e+05   1.177792e+06
  -1.728264e+06   1.070753e+06
  -2.563282e+06   4.876903e+05
  -2.468903e+06  -1.165092e+06
  -1.128076e+06  -2.666456e+06
   8.486768e+05  -2.277258e+06
   2.166555e+06   3.801675e+04
   1.751610e+06   2.313221e+06
  -2.298311e+05   2.590825e+06
  -2.275844e+06   8.278634e+05
  -2.781241e+06  -1.333420e+06
  -1.532535e+06  -2.334386e+06
   1.485328e+05  -1.978139e+06
   8.827197e+05  -1.183470e+06
   7.269658e+05  -8.487824e+05
   9.360529e+05  -1.010454e+06
   2.208390e+06  -9.228076e+05
   3.508066e+06   1.215415e+05
   3.029260e+06   1.955993e+06
   3.584380e+05   3.456606e+06
  -2.690254e+06   3.398053e+06
  -3.714526e+06   1.580270e+06
  -2.132817e+06  -8.072282e+05
   2.885647e+05  -2.054909e+06
   1.316823e+06  -1.405891e+06
   4.152443e+05   2.108104e+05
  -1.047651e+06   1.049546e+06
  -1.460664e+06   3.372490e+05
  -5.516440e+05  -8.871764e+05
   5.889981e+05  -9.835267e+05
   7.312333e+05   2.566170e+05
  -3.379610e+05   1.195692e+06
  -1.638233e+06   2.480454e+05
  -1.807361e+06  -2.082592e+06
  -2.721460e+05  -3.538000e+06
   2.107906e+06  -2.513955e+06
   3.577444e+06   2.356284e+05
   2.953473e+06   2.457037e+06
   7.593372e+05   2.672968e+06
  -1.184624e+06   1.368181e+06
  -1.471764e+06   1.275186e+05
  -4.305936e+05  -2.280042e+04
   3.551236e+05   6.214899e+05
  -1.616458e+05   1.030118e+06
  -1.346134e+06   5.652327e+05
  -1.665265e+06  -4.262604e+05
  -5.281643e+05  -1.011077e+06
   9.169754e+05  -6.265204e+05
   9.983069e+05   3.271307e+05
  -5.634243e+05   8.378789e+05
  -2.204638e+06   2.459464e+05
  -2.109785e+06  -1.097052e+06
  -1.396843e+05  -2.087080e+06
   1.992776e+06  -1.823933e+06
   2.458975e+06  -4.456040e+05
   1.084633e+06   9.174858e+05
  -6.326923e+05   1.136068e+06
  -1.099628e+06   1.836270e+05
  -9.253573e+04  -7.927175e+05
   1.228948e+06  -6.553684e+05
   1.546314e+06   4.842784e+05
   5.861544e+05   1.393886e+06
  -7.228645e+05   1.123171e+06
  -1.176384e+06   5.834396e+04
  -4.531773e+05  -5.791439e+05
   5.550354e+05  -1.289012e+05
   6.250668e+05   8.404982e+05
  -4.968707e+05   1.213766e+06
  -1.735622e+06   4.710134e+05
  -1.762504e+06  -8.658229e+05
  -4.173935e+05  -1.743829e+06
   1.092251e+06  -1.483667e+06
   1.453743e+06  -3.465745e+05
   5.679117e+05   6.844140e+05
  -4.861459e+05   7.881691e+05
  -6.747986e+05   8.057884e+04
  -1.782722e+04  -5.487161e+05
   6.056679e+05  -4.374262e+05
   4.805244e+05   1.202373e+05
  -2.074329e+05   2.784779e+05
  -5.977076e+05  -3.018924e+05
  -6.176225e+04  -9.998275e+05
   1.093630e+06  -8.943740e+05
   1.828539e+06   2.320273e+05
   1.346816e+06   1.613650e+06
  -9.132313e+04   2.174721e+06
  -1.386402e+06   1.477032e+06
  -1.661969e+06   9.324067e+04
  -1.049642e+06  -9.137459e+05
  -3.819735e+05  -9.539134e+05
  -2.170203e+05  -4.123080e+05
  -3.161971e+05  -1.510175e+05
  -8.001198e+04  -5.013588e+05
   6.474812e+05  -8.744995e+05
   1.306211e+06  -4.829997e+05
   1.136349e+06   6.356027e+05
  -3.746572e+04   1.502750e+06
  -1.489432e+06   1.168317e+06
  -2.080955e+06  -2.842617e+05
  -1.211337e+06  -1.753890e+06
   5.902464e+05  -2.108446e+06
   2.042945e+06  -1.157165e+06
   2.193128e+06   2.687012e+05
   1.188843e+06   1.128976e+06
   1.350505e+04   1.090189e+06
  -4.990931e+05   6.906031e+05
  -3.562649e+05   6.300731e+05
  -1.903190e+05   9.507539e+05
  -4.773168e+05   1.010556e+06
  -1.019766e+06   2.858021e+05
  -1.169972e+06  -9.143522e+05
  -5.386431e+05  -1.654649e+06
   5.181722e+05  -1.287849e+06
   1.151912e+06  -9.146545e+04
   8.252871e+05   1.000398e+06
  -1.306762e+05   1.229787e+06
  -8.292429e+05   5.914268e+05
  -7.251062e+05  -2.965331e+05
  -1.345051e+05  -7.958838e+05
   1.931122e+05  -7.482037e+05
  -4.073690e+04  -4.709796e+05
  -3.468373e+05  -3.313764e+05
  -3.718944e+04  -3.564462e+05
   9.151220e+05  -2.654307e+05
   1.706247e+06   1.541373e+05
   1.462601e+06   7.596126e+05
   1.789834e+05   1.149708e+06
  -1.169725e+06   1.018664e+06
  -1.535583e+06   4.311488e+05
  -8.134201e+05  -1.983926e+05
   1.235301e+05  -4.171926e+05
   3.954598e+05  -1.346003e+05
  -1.617111e+04   2.459093e+05
  -4.443592e+05   2.059929e+05
  -4.117639e+05  -2.864423e+05
  -9.867001e+04  -6.661659e+05
   3.875106e+04  -4.249537e+05
  -1.367443e+05   1.916694e+05
  -3.530658e+05   3.937742e+05
  -2.806077e+05  -1.775984e+05
   1.622832e+05  -9.232846e+05
   7.432292e+05  -9.441263e+05
   1.014471e+06  -1.099518e+05
   6.084838e+05   7.751623e+05
  -3.205122e+05   8.785638e+05
  -9.908002e+05   2.013108e+05
  -6.426912e+05  -5.261489e+05
   5.570658e+05  -6.297635e+05
   1.474986e+06  -5.816900e+04
   1.122304e+06   6.898735e+05
  -2.466949e+05   1.021514e+06
  -1.354125e+06   6.912488e+05
  -1.237991e+06  -1.464999e+04
  -2.151611e+05  -4.881841e+05
   5.495120e+05  -3.355448e+05
   3.047261e+05   1.980325e+05
  -5.669778e+05   4.094331e+05
  -1.033522e+06  -1.408604e+05
  -4.991208e+05  -1.077536e+06
   6.235776e+05  -1.468908e+06
   1.362740e+06  -7.318366e+05
   1.133034e+06   6.914627e+05
   2.150325e+05   1.627465e+06
  -6.268644e+05   1.259586e+06
  -8.651065e+05  -3.766765e+04
  -5.220766e+05  -1.045035e+06
   4.592893e+04  -9.501531e+05
   4.667831e+05  -1.473292e+05
   5.186463e+05   3.475611e+05
   2.482978e+05   1.533844e+05
   3.970250e+03  -1.192040e+05
   1.222202e+05   1.828859e+05
   4.365131e+05   8.194696e+05
   3.239365e+05   9.887539e+05
  -4.937780e+05   4.046979e+05
  -1.358937e+06  -3.751172e+05
  -1.287967e+06  -7.149525e+05
  -2.028706e+05  -5.980398e+05
   8.495012e+05  -3.874792e+05
   9.157789e+05  -2.297232e+05
   2.460166e+05  -2.468183e+04
  -1.613315e+05   1.948680e+05
   8.540113e+04   2.465751e+05
   3.582526e+05   1.476182e+05
   1.369625e+03   1.234509e+05
  -7.136057e+05   1.762024e+05
  -9.192420e+05  -2.196268e+04
  -2.270212e+05  -5.816317e+05
   8.369064e+05  -9.937936e+05
   1.417344e+06  -6.272685e+05
   1.118893e+06   4.172424e+05
   2.268674e+05   1.268649e+06
  -6.231667e+05   1.205611e+06
  -9.201645e+05   4.214838e+05
  -6.040866e+05  -2.606010e+05
  -7.595614e+04  -3.131155e+05
   1.599748e+05   1.258381e+04
  -3.756337e+04   9.737738e+04
  -3.315285e+05  -2.890224e+05
  -2.837529e+05  -7.176334e+05
   1.693485e+05  -5.836919e+05
   6.293965e+05   1.735024e+05
   6.056371e+05   9.080369e+05
  -2.326625e+03   9.002862e+05
  -7.300939e+05   1.242382e+05
  -8.951391e+05  -7.228630e+05
  -2.573192e+05  -9.564314e+05
   6.386550e+05  -5.342305e+05
   9.428703e+05   7.698919e+04
   4.249374e+05   4.596977e+05
  -2.326557e+05   5.104135e+05
  -2.414812e+05   3.145925e+05
   3.171251e+05   4.602229e+04
   6.035805e+05  -2.895683e+04
   1.026252e+05   2.516099e+05
  -7.248076e+05   6.329875e+05
  -1.032321e+06   5.806514e+05
  -5.877498e+05  -6.386649e+04
   7.848168e+04  -7.369370e+05
   3.903892e+05  -7.356051e+05
   2.761006e+05  -8.443333e+04
   2.094999e+03   4.643598e+05
  -2.225414e+05   3.379849e+05
  -3.180357e+05  -2.127370e+05
  -2.214087e+05  -5.132989e+05
   6.070246e+04  -3.006737e+05
   3.436610e+05   7.205607e+04
   3.999185e+05   1.804572e+05
   2.188574e+05   2.746475e+04
   8.475688e+03  -6.282680e+04
  -7.876623e+04   1.047003e+05
  -1.078869e+05   3.660712e+05
  -2.048080e+05   3.876302e+05
  -3.296516e+05   3.736419e+04
  -2.930970e+05  -4.306964e+05
   7.029583e+03  -5.822328e+05
   4.020284e+05  -2.406410e+05
   5.347205e+05   2.956628e+05
   1.874918e+05   5.408366e+05
  -4.202297e+05   3.205719e+05
  -7.335331e+05  -9.267968e+04
  -4.055376e+05  -3.310900e+05
   2.536665e+05  -2.947364e+05
   5.392512e+05  -1.319894e+05
   1.536801e+05  -8.414000e+03
  -4.004735e+05  -9.016582e+03
  -3.975040e+05  -1.507358e+05
   2.268586e+05  -3.166546e+05
   7.872152e+05  -2.424117e+05
