
 $NMID
 id='ANONYMOUS ', fmtdat='(2E16.6)'
 volume=1.0
 tramp=1.0
 $END
  -2.335831e+07  -1.218453e+06
  -1.327009e+07  -1.507234e+07
   3.846459e+06  -1.556015e+07
   1.164807e+07  -5.556452e+06
   6.653456e+06   3.122527e+06
  -1.513619e+06   3.770485e+06
  -4.017642e+06  -6.317480e+05
  -1.004501e+06  -4.055358e+06
   2.680104e+06  -3.783321e+06
   4.015384e+06  -6.861533e+05
   2.801672e+06   2.717277e+06
   1.847001e+05   3.620110e+06
  -1.733971e+06   1.061750e+06
  -1.031439e+06  -2.349596e+06
   1.655748e+06  -2.689498e+06
   3.235204e+06   6.822688e+05
   1.661141e+06   4.316952e+06
  -1.788346e+06   4.827896e+06
  -4.318664e+06   2.248214e+06
  -4.451429e+06  -1.094410e+06
  -2.568397e+06  -3.268023e+06
  -6.591560e+04  -3.587228e+06
   1.328899e+06  -2.396906e+06
   7.455766e+05  -1.047334e+06
  -5.084657e+05  -9.536911e+05
  -4.218376e+04  -1.815334e+06
   2.396344e+06  -1.771174e+06
   4.106481e+06  -1.696441e+04
   2.876596e+06   1.887439e+06
  -3.302655e+04   2.147709e+06
  -1.666916e+06   1.006499e+06
  -1.070461e+06  -8.961387e+04
   3.012151e+05  -4.611999e+05
   1.039471e+06  -1.994612e+05
   9.460752e+05   6.848337e+05
   2.086269e+05   1.721122e+06
  -8.564139e+05   1.575781e+06
  -1.341124e+06  -1.601072e+05
  -6.008682e+05  -1.574351e+06
   3.951547e+05  -7.430647e+05
   1.025367e+05   1.095887e+06
  -1.071904e+06   9.469884e+05
  -9.635475e+05  -1.361031e+06
   1.099860e+06  -2.478857e+06
   2.860927e+06  -2.653959e+05
   1.961991e+06   2.969657e+06
  -9.595105e+05   3.480787e+06
  -3.134159e+06   8.524812e+05
  -2.836038e+06  -1.974893e+06
  -6.937565e+05  -2.549714e+06
   1.489140e+06  -1.094791e+06
   2.189274e+06   6.987205e+05
   9.793971e+05   1.481034e+06
  -1.028740e+06   8.718591e+05
  -1.865346e+06  -4.573697e+05
  -7.667533e+05  -1.157406e+06
   7.379328e+05  -5.374359e+05
   7.211063e+05   4.510266e+05
  -5.336137e+05   3.633863e+05
  -9.779532e+05  -7.346564e+05
   2.994011e+05  -1.366008e+06
   1.917299e+06  -6.855222e+05
   2.156998e+06   6.410657e+05
   8.906729e+05   1.679784e+06
  -8.610647e+05   2.176809e+06
  -2.217207e+06   1.954478e+06
  -2.652397e+06   6.120104e+05
  -1.861195e+06  -1.433892e+06
  -2.783451e+05  -2.623675e+06
   8.461884e+05  -1.975765e+06
   7.291418e+05  -5.049303e+05
   6.149175e+04   6.159243e+04
   4.491421e+04  -4.561980e+05
   7.629930e+05  -7.362692e+05
   1.235160e+06  -2.658191e+04
   8.434801e+05   8.954820e+05
  -3.579677e+04   9.484182e+05
  -6.964481e+05   7.448681e+04
  -7.081928e+05  -9.251870e+05
   4.634717e+04  -1.266382e+06
   1.218904e+06  -6.524784e+05
   1.877945e+06   6.020001e+05
   1.278923e+06   1.656246e+06
  -1.084526e+05   1.770565e+06
  -1.006935e+06   1.083772e+06
  -9.452289e+05   4.319032e+05
  -7.734093e+05   2.665130e+05
  -1.254677e+06   1.699604e+05
  -1.843116e+06  -3.827014e+05
  -1.450990e+06  -1.230911e+06
   1.877602e+03  -1.771361e+06
   1.436658e+06  -1.630105e+06
   1.835859e+06  -8.460204e+05
   1.141225e+06   2.347904e+05
   7.448056e+04   9.788663e+05
  -5.165253e+05   8.165241e+05
  -2.437170e+05  -2.951413e+04
   4.928583e+05  -5.480254e+05
   8.239833e+05  -1.397257e+05
   3.708312e+05   5.340653e+05
  -2.431926e+05   4.755547e+05
  -1.859272e+05  -1.668444e+05
   4.471700e+05  -2.884489e+05
   7.588845e+05   5.513416e+05
   2.380413e+05   1.470007e+06
  -6.908265e+05   1.431198e+06
  -1.330611e+06   4.559142e+05
  -1.402240e+06  -6.389638e+05
  -9.603690e+05  -1.209863e+06
  -1.699684e+05  -1.135097e+06
   5.583774e+05  -6.165328e+05
   6.878240e+05  -7.454025e+04
   2.119026e+05   2.701862e+04
  -1.434844e+05  -3.292595e+05
   1.980817e+05  -5.674458e+05
   8.266939e+05  -2.165514e+05
   8.577591e+05   4.108603e+05
   1.441094e+05   6.115100e+05
  -5.119311e+05   2.292203e+05
  -3.799002e+05  -2.061105e+05
   3.660836e+05  -2.149729e+05
   9.338427e+05   1.590759e+05
   7.406290e+05   6.025469e+05
  -1.266113e+05   8.478717e+05
  -1.017028e+06   6.847414e+05
  -1.200747e+06   7.902648e+04
  -5.040599e+05  -5.630525e+05
   4.212003e+05  -6.301723e+05
   6.736968e+05  -5.390897e+04
   6.666165e+04   4.699382e+05
  -6.662511e+05   2.940976e+05
  -7.288295e+05  -3.616735e+05
  -1.230514e+05  -7.149353e+05
   4.805844e+05  -4.050411e+05
   5.346925e+05   1.496228e+05
   9.503109e+04   3.370909e+05
  -3.429274e+05   9.961251e+03
  -3.014265e+05  -4.669507e+05
   2.714833e+05  -6.076927e+05
   8.776126e+05  -2.042880e+05
   8.646149e+05   4.854047e+05
   1.342208e+05   9.022934e+05
  -6.463798e+05   6.870138e+05
  -7.475174e+05   6.498024e+04
  -2.039188e+05  -3.811672e+05
   2.954717e+05  -3.370132e+05
   2.764731e+05  -2.551531e+04
  -5.179039e+04   1.545396e+05
  -2.133562e+05   8.822656e+04
  -5.675726e+04  -2.444513e+04
   1.850945e+05   4.001698e+04
   2.101696e+05   2.936830e+05
  -1.061793e+05   5.061505e+05
  -6.092790e+05   3.654374e+05
  -8.928772e+05  -2.098029e+05
  -6.039543e+05  -8.619710e+05
   1.286867e+05  -1.043737e+06
   7.163035e+05  -5.884902e+05
   7.274844e+05   7.548455e+04
   3.622777e+05   3.970278e+05
   1.349175e+05   2.885109e+05
   2.052560e+05   1.075793e+05
   2.624861e+05   1.480643e+05
   2.485166e+04   3.307275e+05
  -3.905406e+05   3.751902e+05
  -6.286061e+05   1.206866e+05
  -4.449852e+05  -3.248236e+05
   1.252014e+05  -6.265010e+05
   7.574971e+05  -4.394613e+05
   9.641830e+05   2.403783e+05
   4.590179e+05   9.219323e+05
  -4.702908e+05   1.004019e+06
  -1.110627e+06   4.065123e+05
  -1.003254e+06  -3.166416e+05
  -3.951529e+05  -5.876159e+05
   9.763984e+04  -4.046804e+05
   1.730440e+05  -2.194561e+05
   4.770928e+04  -3.297536e+05
   6.840085e+04  -5.646819e+05
   3.108435e+05  -5.450908e+05
   5.639852e+05  -1.167478e+05
   5.626002e+05   4.874004e+05
   2.132644e+05   8.276195e+05
  -2.898518e+05   6.127970e+05
  -5.550947e+05  -1.912838e+04
  -3.309693e+05  -5.650960e+05
   1.886375e+05  -5.948906e+05
   5.041976e+05  -1.561284e+05
   3.352449e+05   3.120488e+05
  -7.067595e+04   4.587347e+05
  -2.413950e+05   3.260234e+05
  -4.057846e+04   1.773059e+05
   1.832655e+05   1.524254e+05
   2.068288e+04   1.671871e+05
  -4.986102e+05   7.273383e+04
  -8.855830e+05  -1.754581e+05
  -6.825380e+05  -4.712985e+05
   3.867911e+04  -6.166418e+05
   7.038384e+05  -4.667342e+05
   7.936193e+05  -9.264673e+04
   3.497674e+05   2.241331e+05
  -1.225344e+05   2.405160e+05
  -2.200544e+05   6.410115e+03
  -4.995120e+03  -1.834004e+05
   1.958508e+05  -1.066876e+05
   2.035629e+05   1.550596e+05
   1.004818e+05   3.188703e+05
   3.525230e+04   2.111180e+05
   5.881429e+04  -3.915711e+04
   1.223471e+05  -1.243350e+05
   1.154246e+05   1.038739e+05
  -7.377886e+04   4.258025e+05
  -4.043139e+05   4.484895e+05
  -5.940353e+05   5.414176e+04
  -3.569094e+05  -4.104966e+05
   1.978172e+05  -4.878878e+05
   5.519722e+05  -1.277734e+05
   3.106775e+05   2.580075e+05
  -3.125144e+05   2.696802e+05
  -6.834994e+05  -6.338608e+04
  -4.202783e+05  -3.842572e+05
   2.224628e+05  -4.169961e+05
   6.506478e+05  -1.843949e+05
   5.270665e+05   9.871776e+04
   5.054621e+04   2.224332e+05
  -2.836939e+05   1.060731e+05
  -1.620578e+05  -1.341832e+05
   2.605276e+05  -2.209253e+05
   5.137605e+05   4.875509e+04
   2.793054e+05   5.217978e+05
  -2.749853e+05   7.345406e+05
  -6.544689e+05   3.688084e+05
  -5.360210e+05  -3.428930e+05
  -6.628704e+04  -7.784889e+05
   3.357551e+05  -5.493611e+05
   3.959715e+05   9.035591e+04
   1.683750e+05   5.203213e+05
  -1.099211e+05   4.123407e+05
  -2.446167e+05   2.675273e+04
  -1.946576e+05  -1.670547e+05
  -6.653561e+04  -5.854641e+04
  -2.289900e+04   3.885345e+04
  -1.207652e+05  -1.368100e+05
  -2.097163e+05  -4.272864e+05
  -6.522159e+04  -4.663545e+05
   3.190206e+05  -1.582678e+05
   6.325391e+05   2.195032e+05
   5.398528e+05   3.762667e+05
   7.032333e+04   3.056446e+05
  -3.712156e+05   1.738537e+05
  -4.264128e+05   6.604430e+04
  -1.579442e+05  -3.180285e+04
   6.436594e+04  -9.738587e+04
   2.187955e+04  -8.327459e+04
  -1.095288e+05  -3.818853e+04
  -2.290991e+04  -5.907891e+04
   2.844037e+05  -1.002247e+05
   4.557854e+05   1.510549e+04
   1.889015e+05   3.104469e+05
  -3.738764e+05   5.086130e+05
  -7.525878e+05   3.128010e+05
  -6.178708e+05  -2.021663e+05
  -1.076281e+05  -6.134376e+05
   3.505145e+05  -5.906497e+05
   4.635618e+05  -2.273160e+05
   2.827953e+05   1.034158e+05
   5.737565e+04   1.584103e+05
  -2.680288e+04   3.480692e+04
   3.580675e+04  -6.482870e+02
   1.223670e+05   1.637576e+05
   9.589159e+04   3.525460e+05
  -8.389098e+04   2.954077e+05
  -2.951630e+05  -5.354939e+04
  -3.182853e+05  -4.170688e+05
  -4.875000e+04  -4.532272e+05
   3.274118e+05  -1.099360e+05
   4.480359e+05   3.164252e+05
   1.463674e+05   4.789143e+05
  -3.168936e+05   2.941996e+05
  -4.901337e+05  -4.186362e+04
  -2.279657e+05  -2.781440e+05
   1.341014e+05  -2.991597e+05
   1.755203e+05  -1.557914e+05
  -1.009959e+05  -8.913858e+02
  -2.810552e+05   1.294157e+04
  -6.296853e+04  -1.375299e+05
   3.647441e+05  -2.861603e+05
   5.568687e+05  -2.149988e+05
   3.351697e+05   9.270645e+04
  -5.021821e+04   3.801521e+05
  -2.556077e+05   3.679018e+05
  -1.959873e+05   6.958647e+04
  -2.424908e+04  -2.068269e+05
   1.076970e+05  -1.918643e+05
   1.535315e+05   5.982435e+04
   1.066241e+05   2.532407e+05
  -2.673673e+04   1.924389e+05
  -1.708783e+05  -1.968683e+04
  -2.052589e+05  -1.319639e+05
  -1.032265e+05  -4.859324e+04
   1.554013e+04   7.239800e+04
   3.205120e+04   3.142785e+04
  -1.385657e+04  -1.521601e+05
   1.423360e+04  -2.513047e+05
   1.399098e+05  -1.073515e+05
   2.087262e+05   1.627442e+05
   7.657959e+04   2.857197e+05
  -1.773101e+05   1.383912e+05
  -2.932762e+05  -1.232650e+05
  -1.106712e+05  -2.494628e+05
   2.262690e+05  -1.553292e+05
   3.888518e+05   3.771594e+04
   2.077123e+05   1.685219e+05
  -1.326269e+05   1.776268e+05
  -2.839413e+05   1.007836e+05
  -1.156420e+05   5.489222e+03
   1.441911e+05  -3.597836e+04
   1.758837e+05   2.091852e+04
  -6.661101e+04   1.220540e+05
  -3.135563e+05   1.160822e+05
