
 $NMID
 id='ANONYMOUS ', fmtdat='(2E16.6)'
 volume=1.0
 tramp=1.0
 $END
   1.742378e+05   9.694193e+05
  -1.584255e+05  -1.046071e+05
   1.077848e+04  -2.443648e+05
  -1.718691e+04   4.288062e+05
  -3.021297e+05   5.894761e+05
  -2.836516e+05  -5.650547e+04
   1.438449e+05  -4.530642e+05
   4.118125e+05  -1.268129e+04
   1.914164e+05   5.158150e+05
  -1.416695e+05   3.295391e+05
  -1.457444e+05  -2.404697e+05
   8.774921e+04  -3.684127e+05
   2.085487e+05   6.250827e+04
   1.127842e+05   4.698873e+05
  -5.637288e+04   4.392021e+05
  -1.523518e+05   9.833872e+04
  -9.258413e+04  -1.957441e+05
   1.020424e+05  -1.979478e+05
   2.177324e+05   7.666665e+04
   3.448307e+04   3.205827e+05
  -2.906576e+05   2.005938e+05
  -3.033624e+05  -1.767844e+05
   1.239543e+05  -2.895159e+05
   5.156649e+05   1.096026e+05
   3.647892e+05   5.798425e+05
  -2.198551e+05   5.448234e+05
  -6.667393e+05   4.245546e+04
  -5.923703e+05  -3.921687e+05
  -1.038094e+05  -4.222479e+05
   3.948551e+05  -1.501266e+05
   5.025743e+05   1.959800e+05
   9.374098e+04   4.321921e+05
  -4.836497e+05   3.521459e+05
  -6.349928e+05  -9.359895e+04
  -1.881181e+05  -5.305911e+05
   3.171816e+05  -4.692972e+05
   2.867118e+05   2.578539e+04
  -1.419404e+05   3.361905e+05
  -3.358347e+05   9.723520e+04
  -7.801346e+04  -3.373224e+05
   2.167734e+05  -4.385159e+05
   2.151349e+05  -1.947520e+05
   1.048748e+05   2.057137e+04
   1.470719e+05   3.480372e+04
   2.234403e+05  -8.509064e+03
   1.328492e+05   6.584496e+03
   1.446325e+04   4.046367e+04
   1.052816e+05   8.303126e+04
   2.767159e+05   1.854325e+05
   1.955697e+05   2.866881e+05
  -1.399976e+05   2.381607e+05
  -3.730554e+05   4.313124e+04
  -2.864890e+05  -1.131440e+05
  -3.920199e+04  -1.138240e+05
   1.164420e+05  -3.261077e+04
   1.043158e+05   2.234086e+04
  -1.922781e+04   2.655880e+04
  -1.513972e+05  -2.886214e+04
  -1.458722e+05  -1.528915e+05
   5.655547e+04  -2.505919e+05
   2.610376e+05  -1.757001e+05
   2.056496e+05   3.328566e+04
  -3.368051e+04   1.336443e+05
  -7.859754e+04   4.022322e+03
   2.074018e+05  -1.574725e+05
   4.736476e+05  -9.843092e+04
   3.656468e+05   1.438002e+05
   2.674767e+04   3.237531e+05
  -1.379473e+05   3.311474e+05
  -4.482795e+04   2.769258e+05
   1.647213e+04   2.673997e+05
  -1.431399e+05   2.577649e+05
  -3.719426e+05   1.513249e+05
  -4.373239e+05  -6.707304e+04
  -2.948050e+05  -3.123009e+05
  -4.037515e+04  -4.351692e+05
   2.106484e+05  -3.029645e+05
   3.216316e+05   4.473508e+04
   1.866017e+05   3.359741e+05
  -1.057638e+05   2.990304e+05
  -2.862118e+05  -1.861869e+04
  -1.951261e+05  -2.835176e+05
   2.778618e+04  -2.653588e+05
   1.357603e+05  -7.629348e+04
   7.605210e+04   3.015018e+04
   3.864428e+03  -2.188154e+04
   5.922304e+04  -1.031511e+05
   2.222081e+05  -8.004985e+04
   3.474891e+05   6.467745e+04
   2.758528e+05   2.571584e+05
  -2.848655e+04   3.767673e+05
  -3.783397e+05   3.106789e+05
  -4.745517e+05   6.504221e+04
  -2.207981e+05  -1.869372e+05
   1.248009e+05  -2.517220e+05
   2.237480e+05  -1.169751e+05
   4.274167e+04   4.856093e+04
  -1.526190e+05   8.831862e+04
  -1.541120e+05  -1.410866e+03
  -1.530006e+04  -1.057388e+05
   9.818623e+04  -1.058600e+05
   1.048207e+05   2.182895e+04
   1.012795e+04   1.569351e+05
  -1.403223e+05   1.127294e+05
  -2.293800e+05  -1.491460e+05
  -1.128158e+05  -3.986971e+05
   1.892286e+05  -3.474576e+05
   4.253176e+05   8.957324e+02
   3.622642e+05   3.222782e+05
   6.579157e+04   3.432201e+05
  -1.748254e+05   1.366519e+05
  -1.818018e+05  -2.453347e+04
  -4.857250e+04  -1.175125e+04
   2.762786e+04   7.232448e+04
  -2.820403e+04   9.082816e+04
  -1.320015e+05   2.627048e+04
  -1.550353e+05  -5.718082e+04
  -4.815766e+04  -9.673524e+04
   9.923413e+04  -5.717893e+04
   1.197661e+05   4.240375e+04
  -5.217506e+04   1.044964e+05
  -2.590063e+05   3.019865e+04
  -2.583649e+05  -1.455224e+05
  -9.953087e+03  -2.571918e+05
   2.527075e+05  -1.894359e+05
   2.841615e+05  -1.061908e+04
   9.681744e+04   1.115124e+05
  -8.807588e+04   9.141975e+04
  -1.038811e+05  -1.173406e+04
   1.985028e+04  -7.924093e+04
   1.430595e+05  -4.198962e+04
   1.590860e+05   7.066080e+04
   5.893671e+04   1.553138e+05
  -7.533687e+04   1.266870e+05
  -1.285040e+05   1.437608e+04
  -5.770448e+04  -5.497985e+04
   4.501110e+04  -2.686331e+03
   4.133469e+04   1.005472e+05
  -8.685507e+04   1.171423e+05
  -2.032891e+05   6.512594e+03
  -1.717300e+05  -1.369756e+05
  -8.896308e+03  -1.965320e+05
   1.419341e+05  -1.389807e+05
   1.622492e+05  -1.808915e+04
   5.930193e+04   7.804246e+04
  -5.962026e+04   8.229411e+04
  -8.762966e+04   1.253788e+03
  -9.856971e+03  -7.573926e+04
   8.288384e+04  -6.264245e+04
   8.554468e+04   1.610173e+04
  -5.939672e+02   4.820352e+04
  -6.047397e+04  -1.906188e+04
  -5.470561e+02  -1.008661e+05
   1.313773e+05  -7.729970e+04
   1.948163e+05   6.083036e+04
   1.128610e+05   2.052604e+05
  -5.366172e+04   2.448209e+05
  -1.815584e+05   1.542790e+05
  -2.000659e+05  -4.757343e+03
  -1.301713e+05  -1.310428e+05
  -4.499737e+04  -1.507497e+05
  -3.959018e+03  -8.200014e+04
  -3.999407e+03  -2.414504e+04
   1.261204e+04  -4.391758e+04
   8.316678e+04  -8.463131e+04
   1.562775e+05  -3.841319e+04
   1.311160e+05   9.493967e+04
  -1.871625e+04   1.822977e+05
  -1.877133e+05   1.126416e+05
  -2.318068e+05  -6.846001e+04
  -1.087238e+05  -2.108777e+05
   9.025464e+04  -2.133141e+05
   2.313948e+05  -9.547361e+04
   2.409676e+05   5.025654e+04
   1.378884e+05   1.384321e+05
   3.497628e+03   1.401436e+05
  -7.881185e+04   9.496947e+04
  -8.469478e+04   7.145760e+04
  -6.292731e+04   8.886593e+04
  -7.388723e+04   8.677733e+04
  -1.113905e+05   2.547397e+03
  -1.075517e+05  -1.297948e+05
  -2.381991e+04  -1.976824e+05
   8.686431e+04  -1.340237e+05
   1.303556e+05   8.318443e+03
   7.324426e+04   1.167462e+05
  -2.529356e+04   1.270956e+05
  -8.010438e+04   6.017263e+04
  -6.182156e+04  -2.135294e+04
  -1.160229e+04  -6.864805e+04
   1.133981e+04  -7.316639e+04
  -8.817907e+03  -5.961660e+04
  -2.921386e+04  -5.240698e+04
   6.232487e+03  -4.457038e+04
   9.856895e+04  -9.600500e+03
   1.730838e+05   5.368508e+04
   1.433249e+05   1.070695e+05
   6.501612e+03   1.138310e+05
  -1.356693e+05   7.679164e+04
  -1.694911e+05   2.517352e+04
  -8.440325e+04  -1.626413e+04
   1.846218e+04  -3.141694e+04
   3.852499e+04  -1.256424e+04
  -1.860589e+04   1.846425e+04
  -6.329206e+04   1.306183e+04
  -3.835525e+04  -4.291740e+04
   1.661590e+04  -8.799102e+04
   2.702096e+04  -5.379031e+04
  -1.756792e+04   2.929702e+04
  -5.426986e+04   5.302787e+04
  -2.839465e+04  -2.407760e+04
   4.500368e+04  -1.078295e+05
   1.043584e+05  -8.513879e+04
   1.017081e+05   2.797433e+04
   3.331242e+04   1.080064e+05
  -6.103010e+04   7.710670e+04
  -1.115566e+05  -1.798391e+04
  -6.058072e+04  -7.923814e+04
   7.121770e+04  -6.059759e+04
   1.709388e+05   1.372627e+04
   1.302512e+05   8.972787e+04
  -2.992055e+04   1.166616e+05
  -1.628733e+05   7.219052e+04
  -1.482871e+05  -1.110065e+04
  -2.333259e+04  -5.994033e+04
   6.378550e+04  -3.292831e+04
   2.297889e+04   2.546887e+04
  -8.264817e+04   2.899184e+04
  -1.163473e+05  -5.034528e+04
  -2.130395e+04  -1.441233e+05
   1.216144e+05  -1.535936e+05
   1.830841e+05  -4.603045e+04
   1.155724e+05   1.098613e+05
  -1.178092e+04   1.949383e+05
  -9.595623e+04   1.383544e+05
  -9.671865e+04  -1.241118e+04
  -4.633516e+04  -1.248708e+05
   9.818188e+03  -1.089407e+05
   4.992690e+04  -1.032145e+04
   6.166783e+04   4.898936e+04
   3.668406e+04   2.154776e+04
  -2.451600e+03  -1.532231e+04
  -8.010803e+03   2.240691e+04
   2.544502e+04   1.020671e+05
   2.970040e+04   1.169962e+05
  -4.958772e+04   3.206770e+04
  -1.497847e+05  -7.166185e+04
  -1.439031e+05  -1.047114e+05
  -1.043020e+04  -6.978720e+04
   1.168448e+05  -2.895593e+04
   1.120790e+05  -1.187832e+04
   1.726440e+04   1.291641e+02
  -2.719124e+04   1.961906e+04
   1.921044e+04   3.142212e+04
   5.343626e+04   2.652596e+04
  -7.833029e+03   1.685928e+04
  -1.019170e+05   4.519755e+03
  -1.044199e+05  -2.855538e+04
   7.935668e+03  -7.788217e+04
   1.348382e+05  -9.167401e+04
   1.721967e+05  -2.499833e+04
   1.052537e+05   8.883043e+04
  -8.332137e+03   1.552415e+05
  -9.843958e+04   1.170571e+05
  -1.188210e+05   1.692712e+04
  -6.762009e+04  -5.074614e+04
   4.777701e+03  -3.958980e+04
   3.262978e+04   8.209799e+03
   1.454172e+03   1.718302e+04
  -3.524324e+04  -3.424725e+04
  -2.058779e+04  -8.608378e+04
   3.687476e+04  -6.085270e+04
   7.392344e+04   4.241808e+04
   4.358934e+04   1.302028e+05
  -3.656276e+04   1.078694e+05
  -9.970420e+04  -1.211677e+04
  -8.607293e+04  -1.177865e+05
   2.385256e+03  -1.189674e+05
   9.251641e+04  -3.722121e+04
   1.014966e+05   3.839499e+04
   2.624835e+04   5.764747e+04
  -4.340660e+04   4.072946e+04
  -2.603549e+04   2.263868e+04
   4.870628e+04   1.242929e+04
   7.372165e+04   1.215118e+04
   6.496625e+02   3.101741e+04
  -9.776492e+04   5.646993e+04
  -1.189423e+05   4.562189e+04
  -5.063737e+04  -1.779992e+04
   2.996349e+04  -7.856153e+04
   5.498681e+04  -6.573139e+04
   2.622183e+04   1.041574e+04
  -1.511813e+04   6.075152e+04
  -3.888502e+04   2.807667e+04
  -3.645777e+04  -4.212004e+04
  -1.123258e+04  -6.550710e+04
   2.136076e+04  -2.497739e+04
   3.921752e+04   2.138462e+04
   3.468746e+04   2.507948e+04
   2.150976e+04   2.307579e+03
   1.128204e+04  -1.285270e+03
  -3.999533e+03   2.647573e+04
  -3.259102e+04   5.225782e+04
  -5.824926e+04   3.736730e+04
  -5.369738e+04  -1.952100e+04
  -1.493921e+04  -7.508362e+04
   3.276240e+04  -7.658659e+04
   5.976810e+04  -1.481461e+04
   5.021211e+04   5.741554e+04
   4.442143e+03   7.336046e+04
  -5.397448e+04   2.322494e+04
  -7.787073e+04  -3.655547e+04
  -3.528322e+04  -4.985931e+04
   4.001171e+04  -1.979634e+04
   6.682450e+04   9.017681e+03
   1.073287e+04   8.197626e+03
  -6.069985e+04  -1.411429e+04
  -5.160837e+04  -3.664919e+04
   4.000058e+04  -4.174231e+04
   1.118764e+05  -1.457343e+04
