
 $NMID
 id='ANONYMOUS ', fmtdat='(2E16.6)'
 volume=1.0
 tramp=1.0
 $END
  -3.449064e+07   7.239573e+05
  -2.254151e+07  -1.797676e+07
   1.459671e+06  -2.260693e+07
   1.558515e+07  -1.253887e+07
   1.162564e+07   7.697104e+05
  -2.705341e+05   6.071830e+06
  -6.624749e+06   1.642318e+06
  -3.933641e+06  -5.699086e+06
   2.408031e+06  -8.039979e+06
   6.230630e+06  -3.133377e+06
   5.161454e+06   4.113168e+06
   7.453471e+05   6.444658e+06
  -2.952089e+06   1.648644e+06
  -2.328315e+06  -4.876416e+06
   2.052145e+06  -5.876654e+06
   5.429517e+06  -1.568198e+05
   3.801744e+06   6.530633e+06
  -1.724857e+06   8.116268e+06
  -6.379998e+06   4.045135e+06
  -6.731214e+06  -1.560968e+06
  -3.459081e+06  -4.673879e+06
   1.079158e+04  -4.433868e+06
   7.646369e+05  -2.786654e+06
  -1.038085e+06  -2.227859e+06
  -2.155417e+06  -3.432477e+06
   4.097634e+05  -4.525207e+06
   5.434431e+06  -3.148700e+06
   7.958943e+06   5.138540e+05
   4.871312e+06   3.555212e+06
  -1.001363e+06   3.529393e+06
  -3.926714e+06   1.000322e+06
  -1.780849e+06  -1.459760e+06
   2.165186e+06  -1.875240e+06
   3.705351e+06  -4.499107e+04
   2.065264e+06   2.677735e+06
  -5.175388e+05   3.995436e+06
  -1.829039e+06   2.309277e+06
  -1.347822e+06  -1.049313e+06
  -2.453510e+04  -2.369862e+06
   5.689635e+05   5.868078e+04
  -4.704672e+05   3.076345e+06
  -2.126463e+06   2.292259e+06
  -2.100796e+06  -1.821937e+06
   4.491583e+05  -4.040201e+06
   3.276143e+06  -1.150284e+06
   3.132553e+06   3.749542e+06
  -5.362182e+05   5.157648e+06
  -4.683320e+06   1.721598e+06
  -5.568964e+06  -2.877196e+06
  -2.286954e+06  -4.597869e+06
   2.446932e+06  -2.772982e+06
   4.694989e+06   4.055721e+05
   2.773075e+06   2.363314e+06
  -1.174989e+06   1.913468e+06
  -3.234573e+06  -1.208577e+05
  -1.744320e+06  -1.583472e+06
   1.022874e+06  -1.039605e+06
   1.681233e+06   6.197854e+05
  -2.164495e+05   1.240528e+06
  -1.871532e+06   5.587623e+04
  -8.819299e+05  -1.502912e+06
   1.880154e+06  -1.663443e+06
   3.439934e+06  -1.026046e+05
   2.007307e+06   2.202750e+06
  -1.452126e+06   3.881807e+06
  -4.408533e+06   3.634098e+06
  -4.944205e+06   9.662269e+05
  -3.070917e+06  -2.753051e+06
  -4.944112e+05  -4.862002e+06
   9.451626e+05  -4.041917e+06
   9.183891e+05  -1.872833e+06
   6.654618e+05  -8.200047e+05
   1.318262e+06  -1.131725e+06
   2.480136e+06  -9.128539e+05
   2.765720e+06   8.502996e+05
   1.470969e+06   2.661506e+06
  -6.621834e+05   2.408580e+06
  -2.136130e+06   2.294243e+04
  -1.831366e+06  -2.425109e+06
   2.135934e+05  -2.886057e+06
   2.619534e+06  -1.104577e+06
   3.490185e+06   1.457467e+06
   2.103675e+06   3.000908e+06
  -2.009023e+05   2.818046e+06
  -1.428794e+06   1.700844e+06
  -1.264903e+06   9.547067e+05
  -1.288098e+06   9.474253e+05
  -2.596545e+06   8.042798e+05
  -4.004228e+06  -3.961995e+05
  -3.343734e+06  -2.400523e+06
  -2.512140e+05  -3.913695e+06
   3.101962e+06  -3.750670e+06
   4.159127e+06  -1.802767e+06
   2.449110e+06   7.840701e+05
  -1.633536e+05   2.268382e+06
  -1.374874e+06   1.661754e+06
  -4.942046e+05  -1.785947e+05
   1.154765e+06  -1.192814e+06
   1.712497e+06  -3.533174e+05
   6.902604e+05   1.066543e+06
  -6.241462e+05   1.091679e+06
  -6.831544e+05  -3.178588e+05
   5.942247e+05  -1.104535e+06
   1.792175e+06   2.420949e+05
   1.512359e+06   2.671207e+06
  -3.387788e+05   3.714732e+06
  -2.586633e+06   2.202111e+06
  -3.719934e+06  -6.768759e+05
  -2.912015e+06  -2.755625e+06
  -6.820945e+05  -2.849452e+06
   1.309520e+06  -1.479596e+06
   1.616657e+06  -1.459684e+05
   4.811729e+05   3.931969e+04
  -3.707170e+05  -7.123596e+05
   2.735907e+05  -1.195438e+06
   1.629604e+06  -5.801417e+05
   1.887630e+06   6.338583e+05
   4.997323e+05   1.217161e+06
  -1.070346e+06   6.370394e+05
  -1.027977e+06  -4.010174e+05
   6.984632e+05  -7.809623e+05
   2.344987e+06  -5.233501e+04
   2.123249e+06   1.279625e+06
  -6.162796e+02   2.192999e+06
  -2.258838e+06   1.866388e+06
  -2.740168e+06   3.817093e+05
  -1.185906e+06  -1.113538e+06
   7.937816e+05  -1.321193e+06
   1.330061e+06  -1.741941e+05
   1.177361e+05   9.460571e+05
  -1.420601e+06   7.062044e+05
  -1.700397e+06  -6.396305e+05
  -5.241587e+05  -1.580422e+06
   9.055452e+05  -1.139625e+06
   1.280070e+06   7.374430e+04
   4.077272e+05   6.870081e+05
  -6.713366e+05   1.014533e+05
  -6.888743e+05  -9.797285e+05
   5.794128e+05  -1.359430e+06
   1.956216e+06  -4.976762e+05
   1.961739e+06   1.018247e+06
   4.053421e+05   1.981894e+06
  -1.307896e+06   1.619887e+06
  -1.649593e+06   3.016825e+05
  -5.753744e+05  -7.998932e+05
   5.873560e+05  -8.401642e+05
   7.112266e+05  -7.822444e+04
  -2.711392e+04   5.231398e+05
  -6.115525e+05   3.888797e+05
  -3.980071e+05  -1.084531e+05
   2.955078e+05  -1.735072e+05
   6.007466e+05   4.505938e+05
  -4.009649e+04   1.126503e+06
  -1.278608e+06   9.362640e+05
  -2.034491e+06  -3.394112e+05
  -1.451946e+06  -1.858387e+06
   1.742838e+05  -2.407543e+06
   1.579430e+06  -1.538625e+06
   1.787277e+06  -5.321909e+03
   1.051512e+06   9.845530e+05
   3.830334e+05   9.294577e+05
   3.157446e+05   3.894896e+05
   4.329253e+05   2.268321e+05
   7.485557e+04   6.241748e+05
  -7.820199e+05   9.307804e+05
  -1.449124e+06   4.434300e+05
  -1.178073e+06  -7.240182e+05
   1.298572e+05  -1.590814e+06
   1.685959e+06  -1.194058e+06
   2.275762e+06   4.024775e+05
   1.240647e+06   2.006888e+06
  -8.038317e+05   2.325041e+06
  -2.364773e+06   1.159523e+06
  -2.389196e+06  -4.484683e+05
  -1.178622e+06  -1.288761e+06
   6.790461e+04  -1.116568e+06
   5.043328e+05  -6.777820e+05
   3.033504e+05  -7.176906e+05
   1.975223e+05  -1.134801e+06
   5.949937e+05  -1.162656e+06
   1.186946e+06  -2.966558e+05
   1.292547e+06   1.053940e+06
   5.554985e+05   1.859475e+06
  -6.098794e+05   1.419861e+06
  -1.277087e+06   4.911606e+04
  -8.599265e+05  -1.175007e+06
   2.452101e+05  -1.364078e+06
   1.000432e+06  -5.539847e+05
   7.908923e+05   4.601403e+05
   4.250505e+04   9.392559e+05
  -3.294374e+05   8.015604e+05
  -1.963772e+03   4.844497e+05
   3.953893e+05   3.638783e+05
   4.150419e+04   3.921087e+05
  -1.059382e+06   2.478936e+05
  -1.938554e+06  -2.556320e+05
  -1.600893e+06  -9.279771e+05
  -9.866153e+04  -1.321862e+06
   1.407219e+06  -1.105392e+06
   1.744449e+06  -3.843892e+05
   8.683072e+05   3.203103e+05
  -1.869052e+05   4.915866e+05
  -4.610713e+05   1.029078e+05
   1.012917e+04  -3.223151e+05
   4.803977e+05  -2.324633e+05
   4.594241e+05   3.326651e+05
   1.466935e+05   7.383509e+05
  -3.858194e+03   4.765058e+05
   1.468604e+05  -1.714742e+05
   3.562119e+05  -3.855337e+05
   2.945015e+05   2.121037e+05
  -1.809917e+05   1.008407e+06
  -8.630848e+05   1.037897e+06
  -1.204768e+06   1.172409e+05
  -7.192134e+05  -8.907325e+05
   3.926337e+05  -1.021334e+06
   1.156490e+06  -2.416125e+05
   7.112884e+05   5.897642e+05
  -6.537480e+05   6.701629e+05
  -1.614804e+06  -1.089639e+04
  -1.149865e+06  -8.082776e+05
   3.560419e+05  -1.073949e+06
   1.502056e+06  -6.480815e+05
   1.319316e+06   9.038050e+04
   1.964122e+05   5.321011e+05
  -6.244783e+05   3.276080e+05
  -3.482666e+05  -2.501393e+05
   6.208821e+05  -4.695849e+05
   1.157515e+06   1.460719e+05
   5.784283e+05   1.199295e+06
  -6.786139e+05   1.647042e+06
  -1.513051e+06   8.183024e+05
  -1.246236e+06  -7.789887e+05
  -2.034008e+05  -1.801350e+06
   7.255909e+05  -1.350389e+06
   9.427251e+05   9.998227e+04
   5.113304e+05   1.172991e+06
  -1.209149e+05   1.018016e+06
  -5.325634e+05   1.276220e+05
  -5.317415e+05  -3.866604e+05
  -2.346265e+05  -1.588175e+05
  -2.058833e+04   1.180060e+05
  -1.811428e+05  -2.407516e+05
  -4.799933e+05  -9.351393e+05
  -2.865667e+05  -1.089402e+06
   6.103350e+05  -4.182019e+05
   1.488411e+06   4.508275e+05
   1.363977e+06   8.216349e+05
   2.014123e+05   6.771182e+05
  -9.148940e+05   4.167928e+05
  -1.004931e+06   2.172159e+05
  -3.023490e+05  -7.220648e+03
   1.696310e+05  -2.183593e+05
  -4.622643e+04  -2.464120e+05
  -3.490511e+05  -1.396090e+05
  -1.772649e+04  -1.366538e+05
   7.472319e+05  -2.045000e+05
   1.028958e+06   3.174108e+04
   3.092385e+05   6.696383e+05
  -9.103524e+05   1.121545e+06
  -1.627429e+06   6.970462e+05
  -1.298817e+06  -4.691699e+05
  -2.449091e+05  -1.409610e+06
   7.344199e+05  -1.341197e+06
   1.037726e+06  -4.815509e+05
   6.626298e+05   2.746772e+05
   9.850412e+04   3.533371e+05
  -1.396507e+05   1.676455e+04
   5.501035e+04  -7.257540e+04
   3.378328e+05   3.400515e+05
   2.807162e+05   8.016140e+05
  -1.919627e+05   6.572637e+05
  -6.913419e+05  -1.720860e+05
  -6.881914e+05  -9.942280e+05
  -3.132940e+04  -1.013702e+06
   7.922997e+05  -1.729821e+05
   1.002791e+06   7.814879e+05
   2.981159e+05   1.075781e+06
  -7.179188e+05   6.175414e+05
  -1.072395e+06  -9.338663e+04
  -4.862245e+05  -5.546899e+05
   2.773762e+05  -6.050191e+05
   3.138285e+05  -3.503853e+05
  -3.126381e+05  -3.578775e+04
  -6.621174e+05   2.881663e+04
  -1.227816e+05  -2.920043e+05
   8.180660e+05  -6.845764e+05
   1.191698e+06  -5.900014e+05
   6.903316e+05   1.207465e+05
  -9.976197e+04   8.358850e+05
  -4.873420e+05   8.236978e+05
  -3.545691e+05   1.136582e+05
  -1.811593e+04  -5.024912e+05
   2.489484e+05  -3.958495e+05
   3.525113e+05   2.050131e+05
   2.432724e+05   5.747089e+05
  -6.720032e+04   3.692565e+05
  -3.850178e+05  -7.000875e+04
  -4.518485e+05  -2.360189e+05
  -2.405801e+05  -5.815507e+04
   4.752908e+03   1.017131e+05
   8.247027e+04  -5.386050e+04
   7.106674e+04  -3.878968e+05
   1.655055e+05  -4.788310e+05
   3.524075e+05  -1.079320e+05
   3.748697e+05   4.457306e+05
   5.023429e+04   6.505013e+05
  -4.347345e+05   2.823407e+05
  -6.189556e+05  -3.160434e+05
  -2.211277e+05  -5.923932e+05
   4.854429e+05  -3.541302e+05
   8.400104e+05   1.010042e+05
   4.576084e+05   3.758318e+05
  -2.907973e+05   3.527012e+05
  -6.172959e+05   1.720833e+05
  -2.020662e+05   9.334181e+03
   4.075731e+05  -1.944721e+04
   4.289735e+05   1.294598e+05
  -2.202166e+05   3.276027e+05
  -8.242975e+05   2.657488e+05
