
 $NMID
 id='ANONYMOUS ', fmtdat='(2E16.6)'
 volume=1.0
 tramp=1.0
 $END
   3.261256e+07   1.806141e+05
   2.109605e+07   1.690575e+07
  -1.401807e+06   2.110829e+07
  -1.475384e+07   1.212164e+07
  -1.121938e+07  -2.916727e+05
   6.216891e+04  -5.764438e+06
   6.394264e+06  -1.864851e+06
   4.010653e+06   5.404038e+06
  -2.183236e+06   7.989836e+06
  -6.013650e+06   3.183474e+06
  -4.941732e+06  -4.089664e+06
  -5.831017e+05  -6.350877e+06
   2.943354e+06  -1.465488e+06
   2.228968e+06   4.995833e+06
  -2.029452e+06   5.885027e+06
  -5.248062e+06   2.063006e+05
  -3.637349e+06  -6.323017e+06
   1.721431e+06  -7.799073e+06
   6.175723e+06  -3.733651e+06
   6.342685e+06   1.730733e+06
   3.006945e+06   4.544925e+06
  -2.478285e+05   4.012022e+06
  -6.023824e+05   2.394075e+06
   1.393045e+06   2.217722e+06
   2.292576e+06   3.731329e+06
  -6.061685e+05   4.696456e+06
  -5.676841e+06   2.950356e+06
  -7.956459e+06  -8.627173e+05
  -4.629826e+06  -3.715362e+06
   1.296446e+06  -3.414198e+06
   4.104734e+06  -7.288850e+05
   1.720749e+06   1.744359e+06
  -2.461966e+06   2.016597e+06
  -3.998642e+06  -7.962979e+04
  -2.057986e+06  -2.957110e+06
   7.768422e+05  -4.109621e+06
   1.947528e+06  -2.128598e+06
   1.121723e+06   1.251015e+06
  -2.645589e+05   2.287805e+06
  -5.788935e+05  -3.339489e+05
   6.521918e+05  -3.240214e+06
   2.192544e+06  -2.303110e+06
   2.054561e+06   1.744026e+06
  -3.215730e+05   3.847056e+06
  -2.914908e+06   1.083752e+06
  -2.840426e+06  -3.535856e+06
   5.277027e+05  -4.837716e+06
   4.504538e+06  -1.543024e+06
   5.461768e+06   2.894412e+06
   2.287798e+06   4.584625e+06
  -2.442240e+06   2.788149e+06
  -4.727121e+06  -3.843111e+05
  -2.825019e+06  -2.337129e+06
   1.094149e+06  -1.882461e+06
   3.140943e+06   1.107937e+05
   1.711853e+06   1.518946e+06
  -9.898180e+05   9.906730e+05
  -1.698359e+06  -6.228743e+05
   1.058726e+05  -1.295964e+06
   1.823252e+06  -2.404669e+05
   1.040331e+06   1.296018e+06
  -1.617492e+06   1.604210e+06
  -3.277751e+06   1.968068e+05
  -1.952895e+06  -2.080716e+06
   1.545702e+06  -3.772821e+06
   4.542777e+06  -3.473271e+06
   4.946393e+06  -7.686815e+05
   2.892721e+06   2.859822e+06
   3.262121e+05   4.838386e+06
  -9.491341e+05   4.023128e+06
  -8.644438e+05   1.977014e+06
  -7.509722e+05   9.741384e+05
  -1.552167e+06   1.171056e+06
  -2.694196e+06   7.791015e+05
  -2.829064e+06  -1.079066e+06
  -1.384927e+06  -2.868829e+06
   8.231841e+05  -2.499049e+06
   2.271807e+06   4.454844e+04
   1.847443e+06   2.576330e+06
  -3.148698e+05   2.953600e+06
  -2.701782e+06   1.000493e+06
  -3.425869e+06  -1.620860e+06
  -1.938942e+06  -3.041439e+06
   3.056250e+05  -2.706943e+06
   1.404857e+06  -1.573375e+06
   1.195011e+06  -9.188097e+05
   1.269528e+06  -9.735070e+05
   2.636026e+06  -8.071030e+05
   4.054424e+06   4.513859e+05
   3.357319e+06   2.492219e+06
   1.839991e+05   3.994486e+06
  -3.256251e+06   3.761196e+06
  -4.311050e+06   1.715683e+06
  -2.472182e+06  -9.106808e+05
   2.769310e+05  -2.333988e+06
   1.487558e+06  -1.640074e+06
   4.942181e+05   2.157890e+05
  -1.223576e+06   1.182848e+06
  -1.740232e+06   3.136143e+05
  -6.505254e+05  -1.094909e+06
   6.809512e+05  -1.102077e+06
   7.262316e+05   3.318136e+05
  -5.699829e+05   1.168891e+06
  -1.815737e+06  -1.528018e+05
  -1.598353e+06  -2.658899e+06
   2.621426e+05  -3.830996e+06
   2.618744e+06  -2.340614e+06
   3.848518e+06   6.700914e+05
   3.011585e+06   2.884170e+06
   6.699569e+05   2.968704e+06
  -1.385034e+06   1.492328e+06
  -1.667368e+06   1.032376e+05
  -4.906403e+05  -5.008512e+04
   3.653005e+05   7.345206e+05
  -2.915692e+05   1.199721e+06
  -1.648625e+06   5.548231e+05
  -1.899326e+06  -6.619026e+05
  -4.963075e+05  -1.232546e+06
   1.100256e+06  -6.360705e+05
   1.064384e+06   4.279726e+05
  -7.122654e+05   8.213122e+05
  -2.427381e+06   5.428802e+04
  -2.201678e+06  -1.346170e+06
   1.343040e+04  -2.278277e+06
   2.350491e+06  -1.893193e+06
   2.813811e+06  -3.446724e+05
   1.184845e+06   1.148565e+06
  -8.296321e+05   1.310925e+06
  -1.336927e+06   1.431377e+05
  -8.547908e+04  -9.562650e+05
   1.461380e+06  -6.868251e+05
   1.725853e+06   6.758431e+05
   5.260626e+05   1.621141e+06
  -9.280197e+05   1.168024e+06
  -1.311741e+06  -7.295146e+04
  -4.223627e+05  -7.001892e+05
   6.756528e+05  -9.369957e+04
   6.788672e+05   1.012738e+06
  -6.263343e+05   1.374894e+06
  -2.012743e+06   4.610998e+05
  -1.980137e+06  -1.085006e+06
  -3.734638e+05  -2.029457e+06
   1.359994e+06  -1.627581e+06
   1.686477e+06  -2.837498e+05
   5.800453e+05   8.232425e+05
  -6.123657e+05   8.521922e+05
  -7.421139e+05   6.382216e+04
   2.630899e+04  -5.590427e+05
   6.523196e+05  -4.119916e+05
   4.453717e+05   1.240006e+05
  -2.835902e+05   2.058901e+05
  -6.167632e+05  -4.434301e+05
   4.255095e+04  -1.145398e+06
   1.317650e+06  -9.379800e+05
   2.073198e+06   3.829320e+05
   1.446377e+06   1.927182e+06
  -2.262862e+05   2.463596e+06
  -1.648078e+06   1.560042e+06
  -1.845268e+06  -1.497682e+04
  -1.083856e+06  -1.042608e+06
  -3.839095e+05  -9.983595e+05
  -2.951584e+05  -4.306933e+05
  -4.125899e+05  -2.317615e+05
  -6.084224e+04  -6.228230e+05
   8.084135e+05  -9.418132e+05
   1.495484e+06  -4.411603e+05
   1.211630e+06   7.665401e+05
  -1.492242e+05   1.646613e+06
  -1.749811e+06   1.205645e+06
  -2.329692e+06  -4.511390e+05
  -1.242718e+06  -2.073110e+06
   8.485190e+05  -2.360780e+06
   2.426595e+06  -1.153309e+06
   2.444490e+06   4.839571e+05
   1.210407e+06   1.339520e+06
  -7.406382e+04   1.166199e+06
  -5.465991e+05   7.081934e+05
  -3.581267e+05   7.266376e+05
  -2.421348e+05   1.136882e+06
  -6.269345e+05   1.161534e+06
  -1.209886e+06   2.740286e+05
  -1.296252e+06  -1.106816e+06
  -5.280058e+05  -1.915361e+06
   6.559981e+05  -1.440592e+06
   1.309939e+06  -2.870138e+04
   8.618946e+05   1.209605e+06
  -2.622552e+05   1.388547e+06
  -1.015484e+06   5.652044e+05
  -7.968396e+05  -4.573263e+05
  -4.449166e+04  -9.448002e+05
   3.274682e+05  -8.163440e+05
   1.070668e+03  -5.055436e+05
  -3.927605e+05  -3.857029e+05
  -3.190577e+04  -4.043298e+05
   1.079634e+06  -2.359145e+05
   1.965828e+06   2.949522e+05
   1.619098e+06   9.727266e+05
   8.969857e+04   1.342333e+06
  -1.443754e+06   1.096896e+06
  -1.785465e+06   3.694026e+05
  -8.871607e+05  -3.240392e+05
   1.928760e+05  -4.890883e+05
   4.678185e+05  -1.046918e+05
  -2.337999e+04   3.167323e+05
  -5.026599e+05   2.243472e+05
  -4.605178e+05  -3.499612e+05
  -1.195181e+05  -7.631040e+05
   2.846316e+04  -4.888525e+05
  -1.550172e+05   1.835909e+05
  -3.842408e+05   4.015562e+05
  -3.008334e+05  -2.208538e+05
   2.126604e+05  -1.034184e+06
   9.036866e+05  -1.042217e+06
   1.217561e+06  -8.483003e+04
   6.996007e+05   9.273837e+05
  -4.231119e+05   1.022547e+06
  -1.178119e+06   2.081226e+05
  -7.133810e+05  -6.232097e+05
   6.783745e+05  -6.755909e+05
   1.659199e+06   3.469462e+04
   1.181724e+06   8.456944e+05
  -3.700555e+05   1.104929e+06
  -1.554487e+06   6.557096e+05
  -1.363132e+06  -1.070661e+05
  -1.986422e+05  -5.523990e+05
   6.441380e+05  -3.302429e+05
   3.462558e+05   2.586042e+05
  -6.532388e+05   4.604772e+05
  -1.180975e+06  -1.857755e+05
  -5.526934e+05  -1.246679e+06
   7.469068e+05  -1.666312e+06
   1.575108e+06  -7.950805e+05
   1.259033e+06   8.304350e+05
   1.679405e+05   1.853403e+06
  -7.721102e+05   1.376809e+06
  -9.668227e+05  -1.122580e+05
  -5.099272e+05  -1.211426e+06
   1.319685e+05  -1.048436e+06
   5.446639e+05  -1.253695e+05
   5.467988e+05   4.097282e+05
   2.479972e+05   1.712104e+05
   1.942837e+04  -1.237148e+05
   1.650145e+05   2.434527e+05
   4.662323e+05   9.655750e+05
   2.836559e+05   1.124946e+06
  -6.194602e+05   4.179019e+05
  -1.518202e+06  -4.940509e+05
  -1.393046e+06  -8.708498e+05
  -1.936970e+05  -6.956100e+05
   9.573439e+05  -4.065794e+05
   1.038666e+06  -2.054635e+05
   3.005121e+05   7.430525e+03
  -1.828487e+05   2.189067e+05
   5.501936e+04   2.596180e+05
   3.686353e+05   1.578680e+05
   9.969035e+03   1.415459e+05
  -7.850387e+05   1.881146e+05
  -1.052016e+06  -5.983428e+04
  -2.816301e+05  -6.912076e+05
   9.712540e+05  -1.120422e+06
   1.674020e+06  -6.668848e+05
   1.303124e+06   5.182745e+05
   2.134722e+05   1.452134e+06
  -7.793400e+05   1.352728e+06
  -1.074102e+06   4.604766e+05
  -6.748714e+05  -3.041411e+05
  -8.701303e+04  -3.642903e+05
   1.554268e+05  -6.296012e+03
  -5.341803e+04   8.222374e+04
  -3.446192e+05  -3.518798e+05
  -2.746408e+05  -8.275834e+05
   2.148021e+05  -6.661084e+05
   7.072159e+05   2.014598e+05
   6.740248e+05   1.043720e+06
  -6.396195e+03   1.038023e+06
  -8.239252e+05   1.460902e+05
  -1.004853e+06  -8.359563e+05
  -2.715456e+05  -1.108423e+06
   7.522085e+05  -6.061527e+05
   1.090008e+06   1.247224e+05
   4.775073e+05   5.709986e+05
  -2.977487e+05   6.015636e+05
  -3.192919e+05   3.485477e+05
   3.310495e+05   4.816119e+04
   6.820295e+05  -1.222610e+04
   1.148286e+05   2.997786e+05
  -8.539645e+05   6.836404e+05
  -1.224245e+06   5.849445e+05
  -6.922983e+05  -1.309626e+05
   1.230620e+05  -8.491464e+05
   5.084077e+05  -8.271374e+05
   3.543622e+05  -9.929954e+04
   6.073769e+02   5.200916e+05
  -2.667158e+05   3.932765e+05
  -3.571470e+05  -2.287453e+05
  -2.338851e+05  -5.948804e+05
   8.071727e+04  -3.670777e+05
   3.923548e+05   8.555018e+04
   4.532631e+05   2.452653e+05
   2.447105e+05   5.867261e+04
   3.122282e+03  -9.620659e+04
  -8.508748e+04   7.032954e+04
  -9.655725e+04   4.028420e+05
  -2.021716e+05   4.754443e+05
  -3.707670e+05   8.294925e+04
  -3.595256e+05  -4.785638e+05
  -1.705780e+04  -6.697019e+05
   4.576152e+05  -2.736367e+05
   6.194724e+05   3.458869e+05
   2.069087e+05   6.165646e+05
  -5.025920e+05   3.493721e+05
  -8.517725e+05  -1.287288e+05
  -4.564387e+05  -3.963809e+05
   3.066580e+05  -3.461766e+05
   6.338231e+05  -1.513265e+05
   1.987813e+05  -2.687639e+03
  -4.299734e+05   1.701557e+03
  -4.411733e+05  -1.548929e+05
   2.429602e+05  -3.376289e+05
   8.665452e+05  -2.521757e+05
