
 $NMID
 id='ANONYMOUS ', fmtdat='(2E16.6)'
 volume=1.0
 tramp=1.0
 $END
   3.507333e+07   1.017919e+06
   2.182134e+07   1.961787e+07
  -2.856808e+06   2.290554e+07
  -1.649792e+07   1.166273e+07
  -1.158835e+07  -1.611698e+06
   7.150159e+05  -6.093463e+06
   6.725951e+06  -1.154168e+06
   3.528308e+06   5.973331e+06
  -2.921059e+06   7.839512e+06
  -6.428111e+06   2.725470e+06
  -4.971875e+06  -4.393867e+06
  -4.357577e+05  -6.482297e+06
   3.039458e+06  -1.535258e+06
   2.089570e+06   4.936811e+06
  -2.366533e+06   5.716519e+06
  -5.459762e+06  -1.758717e+05
  -3.460647e+06  -6.780612e+06
   2.180026e+06  -8.079291e+06
   6.653538e+06  -3.766851e+06
   6.755879e+06   1.886750e+06
   3.334472e+06   4.918260e+06
  -2.069594e+05   4.579059e+06
  -1.009333e+06   2.849269e+06
   7.828261e+05   2.230767e+06
   1.940289e+06   3.399636e+06
  -5.604177e+05   4.430855e+06
  -5.500430e+06   2.931273e+06
  -7.912316e+06  -8.162251e+05
  -4.744272e+06  -3.762780e+06
   1.096279e+06  -3.520536e+06
   3.919352e+06  -8.926222e+05
   1.740238e+06   1.451625e+06
  -2.128446e+06   1.724492e+06
  -3.586178e+06  -7.770773e+04
  -1.937703e+06  -2.663232e+06
   6.200699e+05  -3.918377e+06
   1.911853e+06  -2.270401e+06
   1.381492e+06   1.063478e+06
  -8.936895e+03   2.413771e+06
  -5.882329e+05   1.296761e+04
   5.488607e+05  -2.988388e+06
   2.208402e+06  -2.165010e+06
   1.993170e+06   1.955388e+06
  -7.348952e+05   4.044291e+06
  -3.456421e+06   9.494576e+05
  -2.991718e+06  -4.005352e+06
   8.502423e+05  -5.211932e+06
   4.830012e+06  -1.503285e+06
   5.416575e+06   3.164303e+06
   2.020513e+06   4.693614e+06
  -2.579880e+06   2.612508e+06
  -4.623929e+06  -6.623886e+05
  -2.599645e+06  -2.497478e+06
   1.305783e+06  -1.832868e+06
   3.235910e+06   3.126216e+05
   1.645797e+06   1.692498e+06
  -1.091645e+06   9.878345e+05
  -1.627087e+06  -7.041248e+05
   3.196189e+05  -1.184968e+06
   1.857449e+06   1.217151e+05
   7.094765e+05   1.599506e+06
  -2.061621e+06   1.542898e+06
  -3.469386e+06  -1.357419e+05
  -1.880929e+06  -2.345280e+06
   1.625364e+06  -3.826259e+06
   4.537326e+06  -3.445805e+06
   4.980050e+06  -7.675791e+05
   2.977642e+06   2.877197e+06
   2.880800e+05   4.878285e+06
  -1.155772e+06   3.966204e+06
  -1.017751e+06   1.764051e+06
  -6.527344e+05   7.323131e+05
  -1.278721e+06   1.066609e+06
  -2.449778e+06   8.465745e+05
  -2.703366e+06  -9.034001e+05
  -1.369711e+06  -2.656161e+06
   7.207771e+05  -2.338801e+06
   2.079787e+06   5.559004e+04
   1.695849e+06   2.450677e+06
  -3.250490e+05   2.839054e+06
  -2.641356e+06   1.000977e+06
  -3.426861e+06  -1.582001e+06
  -1.991440e+06  -3.093999e+06
   3.237500e+05  -2.837881e+06
   1.530857e+06  -1.656308e+06
   1.335271e+06  -8.866832e+05
   1.333558e+06  -8.607662e+05
   2.607314e+06  -6.627502e+05
   3.942962e+06   5.823415e+05
   3.196087e+06   2.527698e+06
   7.194989e+04   3.877367e+06
  -3.224232e+06   3.570527e+06
  -4.179775e+06   1.614052e+06
  -2.393494e+06  -8.625486e+05
   2.367666e+05  -2.231490e+06
   1.415708e+06  -1.593781e+06
   4.837539e+05   1.922578e+05
  -1.188282e+06   1.132354e+06
  -1.713548e+06   2.735321e+05
  -6.436259e+05  -1.090700e+06
   6.584760e+05  -1.050123e+06
   6.464586e+05   3.454750e+05
  -6.540507e+05   1.038694e+06
  -1.750378e+06  -3.688527e+05
  -1.324956e+06  -2.729963e+06
   5.532183e+05  -3.618734e+06
   2.660605e+06  -1.999425e+06
   3.608282e+06   8.603411e+05
   2.719178e+06   2.834007e+06
   5.409605e+05   2.823121e+06
  -1.349975e+06   1.401922e+06
  -1.597881e+06   7.876761e+04
  -4.726671e+05  -5.984405e+04
   3.336621e+05   7.205599e+05
  -3.303619e+05   1.173047e+06
  -1.646130e+06   4.984138e+05
  -1.838132e+06  -7.217049e+05
  -4.310002e+05  -1.231256e+06
   1.088752e+06  -5.771136e+05
   9.891950e+05   4.424486e+05
  -7.277345e+05   7.264687e+05
  -2.302720e+06  -6.599703e+04
  -2.018402e+06  -1.353000e+06
   1.053760e+05  -2.148230e+06
   2.307363e+06  -1.731304e+06
   2.717764e+06  -2.522235e+05
   1.120401e+06   1.156923e+06
  -8.481460e+05   1.275774e+06
  -1.330447e+06   1.121506e+05
  -7.755729e+04  -9.458759e+05
   1.436679e+06  -6.353604e+05
   1.648076e+06   7.118691e+05
   4.374617e+05   1.582553e+06
  -9.506063e+05   1.073493e+06
  -1.255225e+06  -1.411346e+05
  -3.620403e+05  -6.991576e+05
   6.737729e+05  -6.769341e+04
   6.399647e+05   1.000557e+06
  -6.298133e+05   1.319927e+06
  -1.953456e+06   4.092605e+05
  -1.894105e+06  -1.090333e+06
  -3.123095e+05  -1.975851e+06
   1.366187e+06  -1.540155e+06
   1.641720e+06  -2.201697e+05
   5.271654e+05   8.166054e+05
  -6.195608e+05   7.999818e+05
  -7.007380e+05   4.613693e+04
   5.287765e+04  -5.063393e+05
   6.124450e+05  -3.494151e+05
   3.745141e+05   1.194626e+05
  -3.041370e+05   1.447951e+05
  -5.669615e+05  -4.799857e+05
   9.632824e+04  -1.110383e+06
   1.305234e+06  -8.655474e+05
   1.992945e+06   4.257326e+05
   1.351763e+06   1.898558e+06
  -2.773399e+05   2.365719e+06
  -1.623498e+06   1.441466e+06
  -1.755123e+06  -7.758083e+04
  -9.841117e+05  -1.008702e+06
  -3.362711e+05  -9.166567e+05
  -3.045623e+05  -3.893245e+05
  -4.269076e+05  -2.478781e+05
  -4.746931e+04  -6.255776e+05
   8.144666e+05  -8.817879e+05
   1.445805e+06  -3.697917e+05
   1.123811e+06   7.618403e+05
  -2.005085e+05   1.554390e+06
  -1.713357e+06   1.098713e+06
  -2.223935e+06  -4.977513e+05
  -1.130664e+06  -2.035552e+06
   9.033591e+05  -2.258112e+06
   2.389186e+06  -1.033244e+06
   2.331839e+06   5.556444e+05
   1.093891e+06   1.321781e+06
  -1.209061e+05   1.087366e+06
  -5.185628e+05   6.383876e+05
  -3.179333e+05   6.980354e+05
  -2.396666e+05   1.119849e+06
  -6.413325e+05   1.126466e+06
  -1.188513e+06   2.418425e+05
  -1.231066e+06  -1.095978e+06
  -4.676208e+05  -1.858554e+06
   6.628858e+05  -1.374198e+06
   1.261119e+06   9.292320e+03
   7.939303e+05   1.200622e+06
  -3.082594e+05   1.334658e+06
  -1.017568e+06   4.939584e+05
  -7.593017e+05  -5.003333e+05
   8.210769e+03  -9.338108e+05
   3.701822e+05  -7.735419e+05
   2.686770e+04  -4.730332e+05
  -3.763978e+05  -3.739230e+05
  -2.545997e+04  -3.876523e+05
   1.059089e+06  -1.965984e+05
   1.905994e+06   3.394474e+05
   1.538455e+06   9.890868e+05
   3.248193e+04   1.312624e+06
  -1.444548e+06   1.030132e+06
  -1.739873e+06   2.975863e+05
  -8.390400e+05  -3.623393e+05
   2.097171e+05  -4.802657e+05
   4.610730e+05  -7.767396e+04
  -2.193861e+04   3.225902e+05
  -4.810702e+05   2.100565e+05
  -4.395137e+05  -3.479214e+05
  -1.191122e+05  -7.334190e+05
   1.863224e+04  -4.701031e+05
  -1.508359e+05   1.585905e+05
  -3.626501e+05   3.603827e+05
  -2.804724e+05  -2.222216e+05
   2.184505e+05  -9.851658e+05
   8.968884e+05  -9.879465e+05
   1.201751e+06  -6.694982e+04
   6.784302e+05   9.105514e+05
  -4.323400e+05   9.964694e+05
  -1.156232e+06   1.937776e+05
  -6.771574e+05  -6.105869e+05
   6.753599e+05  -6.309254e+05
   1.588675e+06   8.428566e+04
   1.090096e+06   8.477037e+05
  -4.033418e+05   1.037421e+06
  -1.506581e+06   5.649262e+05
  -1.290791e+06  -1.505705e+05
  -1.673752e+05  -5.313761e+05
   6.306613e+05  -2.926523e+05
   3.345003e+05   2.643143e+05
  -6.302103e+05   4.398283e+05
  -1.136625e+06  -1.895206e+05
  -5.247148e+05  -1.206088e+06
   7.338575e+05  -1.598179e+06
   1.524506e+06  -7.462951e+05
   1.195699e+06   8.194026e+05
   1.238917e+05   1.783241e+06
  -7.730359e+05   1.296520e+06
  -9.233766e+05  -1.431157e+05
  -4.491656e+05  -1.178531e+06
   1.682257e+05  -9.947970e+05
   5.319974e+05  -1.004230e+05
   5.037645e+05   4.027974e+05
   2.202756e+05   1.648943e+05
   2.696354e+04  -1.137984e+05
   1.741478e+05   2.489633e+05
   4.349442e+05   9.442198e+05
   2.301060e+05   1.084679e+06
  -6.257225e+05   3.841485e+05
  -1.446789e+06  -5.083980e+05
  -1.303997e+06  -8.681557e+05
  -1.686697e+05  -6.770952e+05
   9.153901e+05  -3.724550e+05
   9.981063e+05  -1.693568e+05
   3.011368e+05   2.315535e+04
  -1.749902e+05   2.085308e+05
   3.008812e+04   2.415773e+05
   3.330642e+05   1.489509e+05
   1.398211e+04   1.354910e+05
  -7.397466e+05   1.725849e+05
  -1.014179e+06  -7.356594e+04
  -2.844674e+05  -6.752935e+05
   9.405026e+05  -1.070991e+06
   1.638570e+06  -6.217111e+05
   1.267924e+06   5.153792e+05
   1.839101e+05   1.399565e+06
  -7.827892e+05   1.293058e+06
  -1.044269e+06   4.346744e+05
  -6.414055e+05  -2.957784e+05
  -8.461257e+04  -3.530510e+05
   1.339950e+05  -1.443798e+04
  -5.871126e+04   6.532214e+04
  -3.159982e+05  -3.510961e+05
  -2.405523e+05  -8.023200e+05
   2.162992e+05  -6.413812e+05
   6.738784e+05   1.952466e+05
   6.401447e+05   1.006391e+06
  -6.165003e+03   1.002173e+06
  -7.859044e+05   1.425085e+05
  -9.580133e+05  -8.083960e+05
  -2.519902e+05  -1.074055e+06
   7.335342e+05  -5.826807e+05
   1.056392e+06   1.360577e+05
   4.588232e+05   5.714733e+05
  -2.998971e+05   5.898154e+05
  -3.288341e+05   3.330804e+05
   3.020942e+05   4.616219e+04
   6.529499e+05  -1.427703e+03
   1.103389e+05   2.941895e+05
  -8.355937e+05   6.398275e+05
  -1.203865e+06   5.274217e+05
  -6.800384e+05  -1.524808e+05
   1.334707e+05  -8.220117e+05
   5.197384e+05  -7.932462e+05
   3.595317e+05  -1.001598e+05
  -5.858794e+02   4.945208e+05
  -2.614829e+05   3.825688e+05
  -3.390997e+05  -2.126989e+05
  -2.163991e+05  -5.768859e+05
   8.102197e+04  -3.653520e+05
   3.771046e+05   8.340071e+04
   4.368656e+05   2.549569e+05
   2.345687e+05   7.017349e+04
  -2.273570e+03  -1.041191e+05
  -8.301292e+04   4.262641e+04
  -8.016400e+04   3.773207e+05
  -1.752930e+05   4.707663e+05
  -3.500520e+05   9.974430e+04
  -3.571529e+05  -4.506906e+05
  -2.996715e+04  -6.436178e+05
   4.385495e+05  -2.625448e+05
   6.003141e+05   3.350017e+05
   1.956389e+05   5.919358e+05
  -4.949579e+05   3.294147e+05
  -8.269570e+05  -1.331262e+05
  -4.368275e+05  -3.898705e+05
   3.019081e+05  -3.388900e+05
   6.175359e+05  -1.476672e+05
   2.030985e+05  -1.098369e+03
  -3.983341e+05   5.987414e+03
  -4.161580e+05  -1.406650e+05
   2.267757e+05  -3.112769e+05
   8.176414e+05  -2.282398e+05
