
 $NMID
 id='ANONYMOUS ', fmtdat='(2E16.6)'
 volume=1.0
 tramp=1.0
 $END
   1.265975e+07  -5.956860e+05
   9.326406e+06   5.173262e+06
   9.366892e+05   8.172202e+06
  -5.383064e+06   6.305908e+06
  -5.223335e+06   1.198001e+06
  -6.659202e+05  -2.514699e+06
   2.886878e+06  -1.629222e+06
   2.467749e+06   2.134459e+06
  -4.412919e+05   4.098486e+06
  -2.574960e+06   1.982209e+06
  -2.253456e+06  -1.715276e+06
  -2.856167e+05  -2.902395e+06
   1.302847e+06  -5.409905e+05
   1.044780e+06   2.542316e+06
  -7.883219e+05   3.014202e+06
  -2.338648e+06   4.513102e+05
  -1.858626e+06  -2.599425e+06
   4.290739e+05  -3.418075e+06
   2.447795e+06  -1.659659e+06
   2.483015e+06   7.136761e+05
   9.851798e+05   1.696245e+06
  -1.313713e+05   1.189713e+06
   2.602915e+05   6.792594e+05
   1.324165e+06   1.250942e+06
   1.290389e+06   2.334318e+06
  -5.675804e+05   2.503071e+06
  -2.990744e+06   1.183393e+06
  -3.767663e+06  -7.298365e+05
  -1.943199e+06  -1.812435e+06
   9.315693e+05  -1.386286e+06
   2.138130e+06   3.646546e+04
   6.494851e+05   1.225258e+06
  -1.712564e+06   1.128836e+06
  -2.380607e+06  -2.874809e+05
  -9.347457e+05  -1.850949e+06
   7.446451e+05  -2.099381e+06
   9.903374e+05  -7.595920e+05
   1.220155e+05   7.786536e+05
  -4.697825e+05   8.462519e+05
  -1.507368e+05  -5.912406e+05
   6.087320e+05  -1.781523e+06
   1.128868e+06  -1.187103e+06
   1.049005e+06   6.526245e+05
   2.809238e+05   1.687934e+06
  -7.964850e+05   7.375923e+05
  -1.182044e+06  -1.149140e+06
  -9.486999e+04  -1.908310e+06
   1.793490e+06  -7.269322e+05
   2.617519e+06   1.227340e+06
   1.286707e+06   2.182327e+06
  -1.127177e+06   1.489495e+06
  -2.423796e+06  -2.747788e+04
  -1.575846e+06  -1.066754e+06
   3.374622e+05  -9.759802e+05
   1.424133e+06  -1.177899e+05
   8.893372e+05   5.833551e+05
  -3.776699e+05   4.699770e+05
  -8.914955e+05  -2.716913e+05
  -1.335172e+05  -8.051249e+05
   9.328785e+05  -5.014072e+05
   9.368616e+05   3.762681e+05
  -2.969145e+05   9.085574e+05
  -1.418241e+06   4.440235e+05
  -1.018001e+06  -7.462426e+05
   7.386486e+05  -1.688194e+06
   2.268672e+06  -1.523508e+06
   2.317517e+06  -2.148750e+05
   1.175435e+06   1.396369e+06
   5.589317e+04   2.256388e+06
  -3.451029e+05   1.996216e+06
  -3.490281e+05   1.205159e+06
  -5.739026e+05   6.969870e+05
  -1.128554e+06   5.488144e+05
  -1.570156e+06   1.299079e+05
  -1.400926e+06  -8.469224e+05
  -5.189809e+05  -1.658734e+06
   6.381524e+05  -1.317090e+06
   1.305858e+06   1.355678e+05
   9.362722e+05   1.470430e+06
  -2.640004e+05   1.525162e+06
  -1.379891e+06   3.677431e+05
  -1.552118e+06  -9.211575e+05
  -7.689497e+05  -1.418695e+06
   1.715443e+05  -1.114577e+06
   5.373429e+05  -6.332434e+05
   4.331978e+05  -4.739260e+05
   5.852466e+05  -5.728392e+05
   1.345462e+06  -4.622917e+05
   2.070130e+06   2.168069e+05
   1.708507e+06   1.286944e+06
   6.036519e+04   2.063955e+06
  -1.749972e+06   1.890785e+06
  -2.276467e+06   7.559291e+05
  -1.218605e+06  -5.897105e+05
   2.832472e+05  -1.204564e+06
   8.549433e+05  -7.614875e+05
   2.328791e+05   1.491967e+05
  -6.723097e+05   5.702183e+05
  -8.756527e+05   1.332493e+05
  -2.794633e+05  -5.449812e+05
   3.992167e+05  -5.552182e+05
   4.331086e+05   1.861902e+05
  -2.422668e+05   7.153252e+05
  -9.933742e+05   1.122690e+05
  -1.019458e+06  -1.298874e+06
  -4.317507e+04  -2.139532e+06
   1.358700e+06  -1.444025e+06
   2.138687e+06   2.798186e+05
   1.666258e+06   1.602545e+06
   3.343635e+05   1.634865e+06
  -7.696927e+05   7.582965e+05
  -8.809704e+05   4.418525e+03
  -2.543892e+05  -3.299334e+04
   1.832815e+05   3.842353e+05
  -1.365541e+05   6.004695e+05
  -8.151215e+05   2.768262e+05
  -9.667966e+05  -3.185929e+05
  -2.737540e+05  -6.185382e+05
   5.704803e+05  -3.336556e+05
   5.841210e+05   2.397361e+05
  -3.702461e+05   4.837759e+05
  -1.331677e+06   5.753455e+04
  -1.218752e+06  -7.499333e+05
   5.695764e+03  -1.257846e+06
   1.268276e+06  -1.000855e+06
   1.481324e+06  -1.561947e+05
   6.025587e+05   5.887366e+05
  -4.213710e+05   6.400784e+05
  -6.525739e+05   6.029297e+04
  -1.661580e+04  -4.690790e+05
   7.562245e+05  -3.326215e+05
   8.972332e+05   3.530905e+05
   2.922424e+05   8.542770e+05
  -4.755616e+05   6.424731e+05
  -7.050806e+05  -1.031582e+04
  -2.499957e+05  -3.629832e+05
   3.313131e+05  -5.426281e+04
   3.316507e+05   5.247124e+05
  -3.504761e+05   6.956946e+05
  -1.050302e+06   1.987681e+05
  -1.004685e+06  -5.934177e+05
  -1.695985e+05  -1.051751e+06
   7.116512e+05  -8.317006e+05
   8.775182e+05  -1.434807e+05
   3.095237e+05   4.308000e+05
  -3.226840e+05   4.481144e+05
  -4.077372e+05   1.598628e+04
   1.281203e+04  -3.343660e+05
   3.867731e+05  -2.379273e+05
   2.905098e+05   9.828901e+04
  -1.327046e+05   1.676190e+05
  -3.470101e+05  -1.988932e+05
   1.927690e+03  -5.962866e+05
   6.871707e+05  -4.838767e+05
   1.074635e+06   2.184370e+05
   7.263425e+05   1.017091e+06
  -1.524763e+05   1.287730e+06
  -8.915948e+05   8.191466e+05
  -9.970191e+05  -1.689037e+04
  -5.883161e+05  -5.967847e+05
  -1.826022e+05  -5.960687e+05
  -1.016607e+05  -2.599229e+05
  -1.741507e+05  -9.865566e+04
  -2.542848e+04  -2.957628e+05
   4.214180e+05  -4.920400e+05
   7.996060e+05  -2.316920e+05
   6.510630e+05   4.313321e+05
  -8.796840e+04   8.976911e+05
  -9.385446e+05   6.309266e+05
  -1.225294e+06  -2.616603e+05
  -6.443247e+05  -1.095221e+06
   4.389875e+05  -1.226192e+06
   1.261305e+06  -6.006133e+05
   1.294494e+06   2.525280e+05
   6.638435e+05   7.259253e+05
  -3.850324e+04   6.567130e+05
  -3.347716e+05   3.927720e+05
  -2.492863e+05   3.540089e+05
  -1.586972e+05   5.481347e+05
  -3.256726e+05   5.741926e+05
  -6.144816e+05   1.231521e+05
  -6.514683e+05  -5.955338e+05
  -2.441565e+05  -1.006421e+06
   3.664859e+05  -7.406939e+05
   6.888177e+05  -3.460915e+03
   4.474002e+05   6.285211e+05
  -1.280420e+05   7.249627e+05
  -5.150342e+05   3.210010e+05
  -4.190057e+05  -1.997771e+05
  -5.148084e+04  -4.754165e+05
   1.410569e+05  -4.387506e+05
  -5.091434e+03  -2.853810e+05
  -1.889468e+05  -2.135347e+05
  -4.849698e+03  -2.136151e+05
   5.527108e+05  -1.181135e+05
   1.002433e+06   1.656117e+05
   8.345426e+05   5.140580e+05
   6.019769e+04   6.882789e+05
  -7.340884e+05   5.519640e+05
  -9.298350e+05   1.907367e+05
  -4.774997e+05  -1.486734e+05
   8.871027e+04  -2.398634e+05
   2.398703e+05  -6.514754e+04
  -2.146490e+04   1.408387e+05
  -2.746952e+05   1.003932e+05
  -2.305987e+05  -1.885085e+05
  -2.333510e+04  -3.997022e+05
   4.670385e+04  -2.494113e+05
  -9.133370e+04   1.106264e+05
  -2.321507e+05   2.206461e+05
  -1.595800e+05  -1.178079e+05
   1.408381e+05  -5.414973e+05
   4.832584e+05  -5.259055e+05
   6.005833e+05  -1.795515e+04
   3.204908e+05   4.860603e+05
  -2.286405e+05   5.025017e+05
  -5.925605e+05   7.104785e+04
  -3.563845e+05  -3.426670e+05
   3.582057e+05  -3.499168e+05
   8.810589e+05   3.017778e+04
   6.416649e+05   4.609532e+05
  -1.892357e+05   6.005859e+05
  -8.384776e+05   3.553704e+05
  -7.396569e+05  -6.253108e+04
  -1.077478e+05  -3.014460e+05
   3.415637e+05  -1.767858e+05
   1.708738e+05   1.294064e+05
  -3.566490e+05   2.143332e+05
  -6.055519e+05  -1.339727e+05
  -2.423971e+05  -6.628402e+05
   4.415762e+05  -8.401850e+05
   8.437846e+05  -3.683443e+05
   6.403295e+05   4.639638e+05
   5.238220e+04   9.770774e+05
  -4.306058e+05   7.218826e+05
  -5.138560e+05  -5.915333e+04
  -2.656454e+05  -6.450296e+05
   6.736329e+04  -5.657161e+05
   2.833029e+05  -6.828196e+04
   2.948761e+05   2.316647e+05
   1.433595e+05   1.044598e+05
   6.881986e+03  -7.200125e+04
   6.033581e+04   1.105626e+05
   2.204186e+05   5.051550e+05
   1.509197e+05   6.040033e+05
  -3.075370e+05   2.199346e+05
  -7.906284e+05  -2.852043e+05
  -7.360143e+05  -4.846242e+05
  -9.387002e+04  -3.638251e+05
   5.253494e+05  -1.899121e+05
   5.560002e+05  -9.542555e+04
   1.451216e+05  -6.179736e+03
  -1.058931e+05   1.076066e+05
   4.264123e+04   1.534210e+05
   2.093608e+05   1.075248e+05
  -6.518115e+03   7.313081e+04
  -4.356878e+05   6.892723e+04
  -5.438251e+05  -5.644330e+04
  -1.021825e+05  -3.532643e+05
   5.457679e+05  -5.477475e+05
   8.666074e+05  -3.048094e+05
   6.391659e+05   3.001149e+05
   7.429429e+04   7.637589e+05
  -4.240355e+05   6.858314e+05
  -5.647311e+05   2.049534e+05
  -3.464550e+05  -1.850248e+05
  -2.889053e+04  -1.887729e+05
   9.718341e+04   1.829220e+04
  -2.628910e+04   5.920649e+04
  -1.857017e+05  -1.861841e+05
  -1.369359e+05  -4.395188e+05
   1.280611e+05  -3.375095e+05
   3.655385e+05   1.350445e+05
   3.142600e+05   5.689364e+05
  -4.734864e+04   5.324974e+05
  -4.403502e+05   3.541207e+04
  -4.954440e+05  -4.736703e+05
  -1.058687e+05  -5.785892e+05
   4.035882e+05  -2.843661e+05
   5.537350e+05   8.997116e+04
   2.294214e+05   2.892103e+05
  -1.604410e+05   2.886654e+05
  -1.544585e+05   1.755916e+05
   1.891804e+05   4.438531e+04
   3.603060e+05   1.163640e+04
   4.821489e+04   1.530434e+05
  -4.596271e+05   3.425592e+05
  -6.373104e+05   3.002832e+05
  -3.431307e+05  -6.136190e+04
   8.065904e+04  -4.322043e+05
   2.622878e+05  -4.178842e+05
   1.635181e+05  -3.575221e+04
  -2.259507e+04   2.765882e+05
  -1.478746e+05   1.881324e+05
  -1.781581e+05  -1.442156e+05
  -1.070135e+05  -3.148667e+05
   5.002329e+04  -1.724671e+05
   2.000535e+05   6.008198e+04
   2.284518e+05   1.231343e+05
   1.291273e+05   2.446914e+04
   8.847228e+03  -3.394296e+04
  -5.301393e+04   6.364575e+04
  -8.603661e+04   2.130164e+05
  -1.448494e+05   2.152268e+05
  -1.977280e+05   4.503140e+02
  -1.485730e+05  -2.718186e+05
   3.707849e+04  -3.440761e+05
   2.509410e+05  -1.220348e+05
   3.007847e+05   2.018678e+05
   8.406042e+04   3.304821e+05
  -2.631798e+05   1.704478e+05
  -4.286265e+05  -9.006706e+04
  -2.242318e+05  -2.151581e+05
   1.635736e+05  -1.606555e+05
   3.244261e+05  -5.047337e+04
   8.890773e+04   1.981896e+03
  -2.400235e+05  -2.759579e+04
  -2.292269e+05  -1.119623e+05
   1.528668e+05  -1.786678e+05
   4.831263e+05  -1.056874e+05
