
 $NMID
 id='ANONYMOUS ', fmtdat='(2E16.6)'
 volume=1.0
 tramp=1.0
 $END
  -2.211479e+07  -7.196673e+05
  -1.498154e+07  -8.862185e+06
  -1.088879e+06  -1.320595e+07
   8.801621e+06  -1.092796e+07
   8.637572e+06  -2.943288e+06
   1.458042e+06   4.036501e+06
  -4.699689e+06   3.390932e+06
  -4.623862e+06  -3.276862e+06
   1.677102e+05  -7.404640e+06
   4.281611e+06  -3.806167e+06
   4.087804e+06   3.173117e+06
   5.313639e+05   5.449092e+06
  -2.558285e+06   9.137202e+05
  -2.211644e+06  -4.886671e+06
   1.127338e+06  -5.691184e+06
   4.039473e+06  -9.499843e+05
   3.302430e+06   4.578928e+06
  -7.963445e+05   6.021884e+06
  -4.482156e+06   2.732118e+06
  -4.397149e+06  -1.712003e+06
  -1.301658e+06  -3.381277e+06
   8.655812e+05  -1.949728e+06
  -3.499873e+05  -5.825583e+05
  -3.028614e+06  -1.830045e+06
  -3.115318e+06  -4.467531e+06
   8.846380e+05  -5.144305e+06
   5.972043e+06  -2.503119e+06
   7.459854e+06   1.426685e+06
   3.674647e+06   3.635216e+06
  -2.079801e+06   2.841252e+06
  -4.491690e+06  -4.954602e+03
  -1.552577e+06  -2.637019e+06
   3.310989e+06  -2.762112e+06
   4.973215e+06   1.558284e+05
   2.211257e+06   3.731658e+06
  -1.392894e+06   4.416675e+06
  -2.117061e+06   1.416022e+06
  -2.358136e+05  -1.930688e+06
   1.238797e+06  -1.822551e+06
   6.361214e+05   1.426878e+06
  -1.020575e+06   3.780359e+06
  -2.064257e+06   2.408187e+06
  -1.888123e+06  -1.062911e+06
  -6.584695e+05  -2.743911e+06
   1.020856e+06  -9.985464e+05
   1.727045e+06   2.052750e+06
   4.700569e+04   3.130623e+06
  -3.229457e+06   1.120630e+06
  -4.884516e+06  -2.161996e+06
  -2.604352e+06  -3.927038e+06
   1.932351e+06  -2.909436e+06
   4.546395e+06  -2.525061e+05
   3.093407e+06   1.750770e+06
  -4.550458e+05   1.741160e+06
  -2.519014e+06   2.849105e+05
  -1.619535e+06  -9.517180e+05
   6.609837e+05  -8.231192e+05
   1.719690e+06   4.021124e+05
   5.329172e+05   1.448462e+06
  -1.440446e+06   1.218138e+06
  -1.779778e+06  -1.799809e+05
   1.884851e+05  -1.378084e+06
   2.301471e+06  -9.205548e+05
   1.778599e+06   1.194997e+06
  -1.448914e+06   3.182867e+06
  -4.427450e+06   3.000517e+06
  -4.514427e+06   3.785069e+05
  -2.216507e+06  -2.812883e+06
  -9.010829e+04  -4.353823e+06
   4.721582e+05  -3.745783e+06
   3.618214e+05  -2.364553e+06
   9.590801e+05  -1.640609e+06
   2.311023e+06  -1.422162e+06
   3.323906e+06  -4.450916e+05
   3.011306e+06   1.666089e+06
   1.239090e+06   3.393479e+06
  -1.166942e+06   2.802796e+06
  -2.690535e+06  -6.494422e+04
  -2.072073e+06  -2.823381e+06
   3.970818e+05  -3.063545e+06
   2.750184e+06  -7.782752e+05
   3.076865e+06   1.839469e+06
   1.409372e+06   2.796558e+06
  -4.593842e+05   2.067313e+06
  -1.045555e+06   1.048616e+06
  -7.137109e+05   8.077403e+05
  -9.864668e+05   1.138794e+06
  -2.511594e+06   1.037738e+06
  -4.003913e+06  -2.212192e+05
  -3.426466e+06  -2.337195e+06
  -3.140713e+05  -4.016946e+06
   3.264561e+06  -3.872175e+06
   4.457266e+06  -1.682137e+06
   2.493877e+06   1.114710e+06
  -4.840254e+05   2.476132e+06
  -1.684509e+06   1.598098e+06
  -4.891542e+05  -2.985880e+05
   1.292746e+06  -1.189550e+06
   1.695829e+06  -3.176712e+05
   5.571562e+05   1.064488e+06
  -7.470538e+05   1.150770e+06
  -8.949654e+05  -2.727934e+05
   2.799848e+05  -1.413520e+06
   1.775402e+06  -4.467028e+05
   2.125756e+06   2.217193e+06
   5.107515e+05   4.056544e+06
  -2.289787e+06   3.037517e+06
  -4.176272e+06  -1.709297e+05
  -3.528577e+06  -2.887643e+06
  -8.932327e+05  -3.182212e+06
   1.445681e+06  -1.585650e+06
   1.753935e+06  -9.420407e+04
   5.023114e+05   4.032466e+04
  -3.962467e+05  -7.310168e+05
   2.119160e+05  -1.156539e+06
   1.541706e+06  -5.858990e+05
   1.879467e+06   5.186543e+05
   5.871840e+05   1.147258e+06
  -1.065564e+06   7.095926e+05
  -1.185370e+06  -3.819081e+05
   6.172322e+05  -1.000403e+06
   2.578349e+06  -3.248682e+05
   2.514566e+06   1.281362e+06
   1.857300e+05   2.467591e+06
  -2.355591e+06   2.121392e+06
  -2.881076e+06   4.679550e+05
  -1.219397e+06  -1.083981e+06
   7.774385e+05  -1.261170e+06
   1.252730e+06  -1.469040e+05
   4.892398e+04   9.186084e+05
  -1.448072e+06   7.137024e+05
  -1.778842e+06  -5.878761e+05
  -6.765041e+05  -1.613850e+06
   8.202635e+05  -1.306484e+06
   1.355222e+06  -8.756891e+04
   5.369134e+05   6.508795e+05
  -6.220034e+05   1.276539e+05
  -6.885416e+05  -9.964585e+05
   6.296568e+05  -1.397355e+06
   2.048400e+06  -4.841875e+05
   2.024360e+06   1.074190e+06
   4.290859e+05   2.038771e+06
  -1.303498e+06   1.686590e+06
  -1.689617e+06   3.717782e+05
  -6.530493e+05  -7.965289e+05
   5.741359e+05  -9.098459e+05
   8.122613e+05  -8.680066e+04
   4.875393e+04   6.663984e+05
  -7.232097e+05   5.521496e+05
  -6.258298e+05  -1.239180e+05
   1.824117e+05  -3.515195e+05
   6.778769e+05   3.131811e+05
   6.904935e+04   1.138744e+06
  -1.283367e+06   1.011120e+06
  -2.120084e+06  -3.185516e+05
  -1.518392e+06  -1.920175e+06
   1.660052e+05  -2.543663e+06
   1.647868e+06  -1.715776e+06
   1.957694e+06  -1.016938e+05
   1.260223e+06   1.096490e+06
   4.743959e+05   1.182781e+06
   2.324768e+05   5.512028e+05
   3.122834e+05   1.966870e+05
   5.440840e+04   5.633987e+05
  -7.626629e+05   9.999045e+05
  -1.531513e+06   5.531828e+05
  -1.343067e+06  -7.626060e+05
   4.447342e+04  -1.774608e+06
   1.759345e+06  -1.348315e+06
   2.430363e+06   3.751999e+05
   1.380047e+06   2.061363e+06
  -7.183136e+05   2.420755e+06
  -2.378251e+06   1.299971e+06
  -2.546585e+06  -3.306000e+05
  -1.403989e+06  -1.319118e+06
  -3.801135e+04  -1.298213e+06
   6.076136e+05  -8.495429e+05
   4.916098e+05  -7.550425e+05
   2.981685e+05  -1.088283e+06
   5.938105e+05  -1.134943e+06
   1.187276e+06  -2.845534e+05
   1.333636e+06   1.110979e+06
   5.774870e+05   1.953550e+06
  -6.479403e+05   1.492422e+06
  -1.347138e+06   8.274072e+04
  -9.340874e+05  -1.169901e+06
   1.638174e+05  -1.412926e+06
   9.351461e+05  -6.784465e+05
   8.037045e+05   3.216552e+05
   1.499989e+05   8.851621e+05
  -2.014036e+05   8.471179e+05
   6.189783e+04   5.575489e+05
   3.931313e+05   4.119526e+05
   2.984297e+04   4.246171e+05
  -1.058268e+06   2.789092e+05
  -1.961559e+06  -2.348434e+05
  -1.676025e+06  -9.156620e+05
  -1.888348e+05  -1.311394e+06
   1.370822e+06  -1.126841e+06
   1.782925e+06  -4.706715e+05
   9.318337e+05   2.143627e+05
  -1.531429e+05   4.583679e+05
  -4.473389e+05   1.537740e+05
   5.071901e+04  -2.727848e+05
   5.412098e+05  -2.281131e+05
   4.688001e+05   3.509372e+05
   7.370186e+04   8.058604e+05
  -8.145636e+04   5.129955e+05
   1.571174e+05  -2.395118e+05
   4.298956e+05  -4.844423e+05
   3.251161e+05   2.096842e+05
  -2.248998e+05   1.090835e+06
  -8.986306e+05   1.074776e+06
  -1.169019e+06   6.079849e+04
  -6.575532e+05  -9.449877e+05
   4.170186e+05  -9.926483e+05
   1.162865e+06  -1.684695e+05
   7.366695e+05   6.459320e+05
  -6.600285e+05   7.205655e+05
  -1.728605e+06   4.633358e+04
  -1.322384e+06  -8.106144e+05
   2.789942e+05  -1.192679e+06
   1.587425e+06  -8.102872e+05
   1.458942e+06   1.863950e+04
   2.550936e+05   5.748913e+05
  -6.412984e+05   3.872210e+05
  -3.368509e+05  -2.375899e+05
   6.961319e+05  -4.569847e+05
   1.215207e+06   2.175680e+05
   5.337936e+05   1.302114e+06
  -8.101735e+05   1.708704e+06
  -1.643863e+06   8.057816e+05
  -1.311468e+06  -8.560879e+05
  -2.026965e+05  -1.922722e+06
   7.642769e+05  -1.472098e+06
   1.007451e+06   5.027334e+04
   5.970681e+05   1.227217e+06
  -5.163715e+04   1.111121e+06
  -5.388032e+05   1.642522e+05
  -6.164442e+05  -4.162139e+05
  -3.082828e+05  -1.814621e+05
   2.256770e+03   1.409754e+05
  -1.042754e+05  -2.220112e+05
  -4.746009e+05  -9.747626e+05
  -3.751340e+05  -1.159496e+06
   5.635682e+05  -4.482839e+05
   1.586955e+06   4.787086e+05
   1.510067e+06   8.637661e+05
   2.197950e+05   7.014647e+05
  -1.027541e+06   4.382711e+05
  -1.083491e+06   2.531655e+05
  -2.671989e+05   2.261405e+04
   2.035337e+05  -2.263679e+05
  -1.206526e+05  -2.890089e+05
  -4.461609e+05  -1.819607e+05
   1.028719e+04  -1.518405e+05
   8.728728e+05  -1.908954e+05
   1.079527e+06   6.441267e+04
   2.115861e+05   7.078467e+05
  -1.045385e+06   1.139119e+06
  -1.679748e+06   6.624759e+05
  -1.279660e+06  -5.582441e+05
  -2.174816e+05  -1.506382e+06
   7.705838e+05  -1.382510e+06
   1.103611e+06  -4.480496e+05
   7.116800e+05   3.365485e+05
   6.863197e+04   3.759346e+05
  -2.154507e+05  -2.068726e+04
   3.008843e+04  -1.234579e+05
   3.853720e+05   3.365957e+05
   3.179217e+05   8.456336e+05
  -2.261560e+05   6.776057e+05
  -7.471977e+05  -2.371774e+05
  -6.765016e+05  -1.110194e+06
   5.956049e+04  -1.070643e+06
   8.886375e+05  -1.084437e+05
   1.031951e+06   9.040852e+05
   2.539220e+05   1.140262e+06
  -7.826278e+05   5.914274e+05
  -1.097888e+06  -1.365643e+05
  -4.609157e+05  -5.480067e+05
   3.023914e+05  -5.706478e+05
   2.798813e+05  -3.446796e+05
  -3.950804e+05  -5.983312e+04
  -7.169002e+05   1.312725e+04
  -1.024696e+05  -2.997480e+05
   8.712581e+05  -7.207203e+05
   1.205993e+06  -6.494614e+05
   6.584392e+05   9.310460e+04
  -1.247899e+05   8.560516e+05
  -4.724908e+05   8.308594e+05
  -3.172317e+05   6.249953e+04
   1.884028e+04  -5.602734e+05
   2.840084e+05  -3.809776e+05
   3.786452e+05   2.776374e+05
   2.395390e+05   6.132039e+05
  -9.730934e+04   3.382586e+05
  -4.054621e+05  -1.049718e+05
  -4.490719e+05  -2.180866e+05
  -2.485862e+05  -2.928723e+04
  -3.013331e+04   6.572720e+04
   7.695610e+04  -1.482376e+05
   1.564047e+05  -4.536386e+05
   3.016797e+05  -4.520086e+05
   4.210786e+05  -7.681638e+03
   3.196973e+05   5.529208e+05
  -5.834079e+04   7.074262e+05
  -4.957371e+05   2.655297e+05
  -6.136658e+05  -3.862448e+05
  -1.964766e+05  -6.553026e+05
   5.017513e+05  -3.552278e+05
   8.533331e+05   1.503928e+05
   4.595222e+05   4.076448e+05
  -3.176376e+05   3.239319e+05
  -6.446068e+05   1.161500e+05
  -1.690448e+05  -7.890457e+03
   4.991256e+05   2.615994e+04
   4.825628e+05   2.060635e+05
  -2.858685e+05   3.863264e+05
  -9.602658e+05   2.731069e+05
