
 $NMID
 id='ANONYMOUS ', fmtdat='(2E16.6)'
 volume=1.0
 tramp=1.0
 $END
  -5.419332e+07  -1.024605e+06
  -3.201532e+07  -3.395315e+07
   7.683495e+06  -3.644739e+07
   2.668938e+07  -1.380382e+07
   1.578627e+07   6.790446e+06
  -3.233204e+06   8.917293e+06
  -9.447482e+06  -1.185476e+06
  -2.642880e+06  -9.404758e+06
   6.014472e+06  -9.015601e+06
   9.321484e+06  -1.878362e+06
   6.678528e+06   6.110153e+06
   6.559922e+05   8.372283e+06
  -3.928879e+06   2.569929e+06
  -2.500888e+06  -5.384916e+06
   3.705292e+06  -6.358214e+06
   7.580748e+06   1.358792e+06
   4.162494e+06   9.909814e+06
  -3.807399e+06   1.133571e+07
  -9.841269e+06   5.527339e+06
  -1.037513e+07  -2.194400e+06
  -6.194814e+06  -7.341401e+06
  -4.666001e+05  -8.282467e+06
   2.855328e+06  -5.696350e+06
   1.675765e+06  -2.572255e+06
  -1.156720e+06  -2.225040e+06
  -1.556188e+05  -4.169113e+06
   5.423691e+06  -4.192833e+06
   9.463361e+06  -2.713460e+05
   6.758664e+06   4.167797e+06
   7.423959e+04   4.923459e+06
  -3.751563e+06   2.389889e+06
  -2.421655e+06  -1.319115e+05
   7.114960e+05  -1.011057e+06
   2.373253e+06  -4.448476e+05
   2.164574e+06   1.537612e+06
   5.512100e+05   3.923492e+06
  -1.856719e+06   3.683044e+06
  -3.076834e+06  -2.376480e+05
  -1.508977e+06  -3.554132e+06
   8.048826e+05  -1.749958e+06
   2.572613e+05   2.495480e+06
  -2.443731e+06   2.245847e+06
  -2.339105e+06  -3.101949e+06
   2.370016e+06  -5.865436e+06
   6.626917e+06  -8.743156e+05
   4.790716e+06   6.724235e+06
  -1.952306e+06   8.157844e+06
  -7.198930e+06   2.208015e+06
  -6.706497e+06  -4.408062e+06
  -1.760729e+06  -5.894784e+06
   3.408640e+06  -2.632253e+06
   5.139553e+06   1.512419e+06
   2.368014e+06   3.406393e+06
  -2.338729e+06   2.108547e+06
  -4.370344e+06  -9.357216e+05
  -1.865964e+06  -2.643325e+06
   1.675145e+06  -1.301436e+06
   1.702557e+06   1.014372e+06
  -1.237314e+06   9.052440e+05
  -2.366774e+06  -1.643271e+06
   5.659528e+05  -3.239558e+06
   4.408900e+06  -1.773071e+06
   5.080985e+06   1.328605e+06
   2.199134e+06   3.845136e+06
  -1.852334e+06   5.088622e+06
  -5.006243e+06   4.636505e+06
  -6.084944e+06   1.572677e+06
  -4.383358e+06  -3.184627e+06
  -8.010595e+05  -6.045110e+06
   1.854191e+06  -4.643691e+06
   1.696684e+06  -1.228764e+06
   1.866372e+05   1.642058e+05
   8.758013e+04  -1.001670e+06
   1.697450e+06  -1.700380e+06
   2.811977e+06  -1.156256e+05
   1.958520e+06   2.013101e+06
  -5.378127e+04   2.166344e+06
  -1.598544e+06   1.765945e+05
  -1.659820e+06  -2.117370e+06
   5.470125e+04  -2.922689e+06
   2.772233e+06  -1.565150e+06
   4.360555e+06   1.278154e+06
   3.058361e+06   3.738615e+06
  -1.235519e+05   4.098601e+06
  -2.248605e+06   2.584812e+06
  -2.165821e+06   1.076340e+06
  -1.791550e+06   6.682151e+05
  -2.910497e+06   4.554401e+05
  -4.295242e+06  -8.001467e+05
  -3.420803e+06  -2.786112e+06
  -7.376852e+04  -4.103851e+06
   3.253704e+06  -3.832718e+06
   4.200876e+06  -2.031436e+06
   2.635279e+06   4.882843e+05
   2.111797e+05   2.243457e+06
  -1.150465e+06   1.899132e+06
  -5.593265e+05  -5.521705e+04
   1.113465e+06  -1.284989e+06
   1.899508e+06  -3.640568e+05
   8.855886e+05   1.211782e+06
  -5.423936e+05   1.105486e+06
  -4.387327e+05  -3.893668e+05
   1.041605e+06  -7.029933e+05
   1.820822e+06   1.246662e+06
   6.393397e+05   3.430234e+06
  -1.558737e+06   3.389119e+06
  -3.107481e+06   1.126350e+06
  -3.299793e+06  -1.442669e+06
  -2.267692e+06  -2.787603e+06
  -4.273978e+05  -2.628085e+06
   1.267845e+06  -1.445636e+06
   1.584836e+06  -1.984400e+05
   4.916581e+05   5.361585e+04
  -3.466501e+05  -7.567278e+05
   4.301396e+05  -1.327069e+06
   1.905071e+06  -5.454968e+05
   2.011999e+06   9.112217e+05
   3.657048e+05   1.414536e+06
  -1.178395e+06   5.546820e+05
  -8.888832e+05  -4.678164e+05
   8.500596e+05  -5.173025e+05
   2.182094e+06   3.392815e+05
   1.739398e+06   1.381000e+06
  -2.695554e+05   1.976425e+06
  -2.335020e+06   1.626014e+06
  -2.779681e+06   2.316345e+05
  -1.195184e+06  -1.281842e+06
   9.421823e+05  -1.480703e+06
   1.556682e+06  -1.613716e+05
   1.789490e+05   1.081516e+06
  -1.528772e+06   7.111472e+05
  -1.706775e+06  -8.074976e+05
  -3.155826e+05  -1.657432e+06
   1.103390e+06  -9.636352e+05
   1.253142e+06   3.267061e+05
   2.367408e+05   7.833658e+05
  -7.954581e+05   4.183843e+04
  -7.192818e+05  -1.066596e+06
   6.011478e+05  -1.416864e+06
   2.020593e+06  -5.099706e+05
   2.021377e+06   1.085533e+06
   3.504252e+05   2.083489e+06
  -1.467587e+06   1.621056e+06
  -1.731123e+06   1.831503e+05
  -4.897055e+05  -8.771183e+05
   6.720010e+05  -7.944235e+05
   6.383813e+05  -6.670989e+04
  -1.210507e+05   3.629111e+05
  -4.974508e+05   2.067326e+05
  -1.293850e+05  -6.602859e+04
   4.412453e+05   7.958662e+04
   5.072158e+05   6.755726e+05
  -2.235446e+05   1.182750e+06
  -1.397311e+06   8.741000e+05
  -2.077590e+06  -4.481037e+05
  -1.435407e+06  -1.970000e+06
   2.557202e+05  -2.421843e+06
   1.639400e+06  -1.391167e+06
   1.691472e+06   1.503670e+05
   8.494998e+05   9.121855e+05
   3.114597e+05   6.639336e+05
   4.724697e+05   2.331423e+05
   6.176708e+05   3.241069e+05
   7.676986e+04   7.640841e+05
  -8.903317e+05   8.876121e+05
  -1.454783e+06   3.037551e+05
  -1.041956e+06  -7.394284e+05
   2.708935e+05  -1.459254e+06
   1.740550e+06  -1.048014e+06
   2.243777e+06   5.193048e+05
   1.102327e+06   2.119756e+06
  -1.047153e+06   2.350739e+06
  -2.559649e+06   9.919499e+05
  -2.342774e+06  -6.951140e+05
  -9.389559e+05  -1.353638e+06
   2.177260e+05  -9.455072e+05
   3.984457e+05  -5.090070e+05
   9.484697e+04  -7.552112e+05
   1.279385e+05  -1.305758e+06
   6.922899e+05  -1.277256e+06
   1.299636e+06  -2.972795e+05
   1.322344e+06   1.103374e+06
   5.278863e+05   1.906337e+06
  -6.454772e+05   1.429870e+06
  -1.287279e+06  -2.198770e+04
  -7.927511e+05  -1.296724e+06
   4.119232e+05  -1.390293e+06
   1.167388e+06  -3.877637e+05
   7.984434e+05   7.086665e+05
  -1.399756e+05   1.071888e+06
  -5.471762e+05   7.728291e+05
  -9.012524e+04   4.151763e+05
   4.289990e+05   3.435854e+05
   5.420046e+04   3.851476e+05
  -1.152698e+06   1.918804e+05
  -2.059700e+06  -3.655488e+05
  -1.602676e+06  -1.062930e+06
   6.054441e+04  -1.434594e+06
   1.608966e+06  -1.115938e+06
   1.837409e+06  -2.493370e+05
   8.256095e+05   5.068245e+05
  -2.708119e+05   5.648874e+05
  -5.120976e+05   2.553843e+04
  -2.338193e+04  -4.227117e+05
   4.475426e+05  -2.530894e+05
   4.776198e+05   3.496611e+05
   2.449180e+05   7.288845e+05
   9.048946e+04   4.825701e+05
   1.378902e+05  -9.220528e+04
   2.819499e+05  -2.887059e+05
   2.719996e+05   2.366823e+05
  -1.545692e+05   9.861704e+05
  -9.164074e+05   1.055365e+06
  -1.370137e+06   1.561571e+05
  -8.436150e+05  -9.295655e+05
   4.329897e+05  -1.138034e+06
   1.267917e+06  -3.225215e+05
   7.283179e+05   5.833989e+05
  -7.134207e+05   6.384338e+05
  -1.587517e+06  -1.209757e+05
  -9.895044e+05  -8.790124e+05
   5.024544e+05  -9.790503e+05
   1.505629e+06  -4.516381e+05
   1.227516e+06   2.117677e+05
   1.247083e+05   5.153517e+05
  -6.548658e+05   2.575919e+05
  -3.824153e+05  -3.024760e+05
   5.912472e+05  -5.199877e+05
   1.187414e+06   9.081524e+04
   6.664328e+05   1.191398e+06
  -6.037237e+05   1.706085e+06
  -1.495780e+06   8.781344e+05
  -1.252579e+06  -7.711603e+05
  -1.839735e+05  -1.798070e+06
   7.574445e+05  -1.284629e+06
   9.231564e+05   1.943683e+05
   4.108147e+05   1.200813e+06
  -2.406196e+05   9.627597e+05
  -5.670219e+05   7.288074e+04
  -4.561970e+05  -3.818082e+05
  -1.548694e+05  -1.361440e+05
  -5.264837e+04   9.205560e+04
  -2.879299e+05  -3.070456e+05
  -5.038284e+05  -9.786524e+05
  -1.685204e+05  -1.080769e+06
   7.332255e+05  -3.838661e+05
   1.472508e+06   4.831726e+05
   1.264109e+06   8.529815e+05
   1.758686e+05   7.050813e+05
  -8.512455e+05   4.138899e+05
  -9.853094e+05   1.685979e+05
  -3.691868e+05  -6.451783e+04
   1.444863e+05  -2.266349e+05
   4.976307e+04  -1.974503e+05
  -2.521348e+05  -8.802860e+04
  -5.532293e+04  -1.340229e+05
   6.517119e+05  -2.389341e+05
   1.053751e+06   1.567796e+04
   4.510853e+05   7.041325e+05
  -8.410292e+05   1.187944e+06
  -1.725232e+06   7.576023e+05
  -1.435602e+06  -4.367337e+05
  -2.734426e+05  -1.412746e+06
   7.853215e+05  -1.381884e+06
   1.060010e+06  -5.451660e+05
   6.558506e+05   2.280050e+05
   1.394712e+05   3.621973e+05
  -5.760000e+04   7.814474e+04
   8.588330e+04  -4.036441e+03
   2.908255e+05   3.759423e+05
   2.360515e+05   8.132775e+05
  -1.809249e+05   6.859197e+05
  -6.818723e+05  -1.122919e+05
  -7.506519e+05  -9.487059e+05
  -1.322958e+05  -1.041574e+06
   7.483760e+05  -2.655732e+05
   1.045505e+06   7.116469e+05
   3.586540e+05   1.098852e+06
  -7.176503e+05   6.930317e+05
  -1.134240e+06  -7.453613e+04
  -5.416884e+05  -6.318505e+05
   2.941343e+05  -6.980464e+05
   3.990121e+05  -3.709709e+05
  -2.317457e+05  -1.478306e+03
  -6.487245e+05   4.053747e+04
  -1.521296e+05  -3.142572e+05
   8.323140e+05  -6.766871e+05
   1.282202e+06  -5.229370e+05
   7.822805e+05   1.972493e+05
  -9.901377e+04   8.810286e+05
  -5.748535e+05   8.647325e+05
  -4.480815e+05   1.729906e+05
  -6.323865e+04  -4.751395e+05
   2.390634e+05  -4.476177e+05
   3.541330e+05   1.318838e+05
   2.568846e+05   5.806782e+05
  -5.075960e+04   4.455270e+05
  -3.944852e+05  -3.819847e+04
  -4.825350e+05  -2.958071e+05
  -2.428035e+05  -1.083255e+05
   4.173214e+04   1.653659e+05
   8.087315e+04   7.190315e+04
  -3.663615e+04  -3.463599e+05
   1.815495e+04  -5.754439e+05
   3.127080e+05  -2.525219e+05
   4.857860e+05   3.628008e+05
   1.889351e+05   6.514462e+05
  -4.024208e+05   3.257369e+05
  -6.811659e+05  -2.704424e+05
  -2.649665e+05  -5.703565e+05
   5.163965e+05  -3.695233e+05
   8.993251e+05   6.903282e+04
   4.872144e+05   3.800833e+05
  -2.967948e+05   4.164282e+05
  -6.493293e+05   2.459609e+05
  -2.668982e+05   2.017663e+04
   3.287447e+05  -8.567713e+04
   4.035429e+05   4.218317e+04
  -1.509303e+05   2.816223e+05
  -7.194918e+05   2.762664e+05
