
 $NMID
 id='ANONYMOUS ', fmtdat='(2E16.6)'
 volume=1.0
 tramp=1.0
 $END
   3.997895e+07  -2.979433e+05
   2.489022e+07   2.208214e+07
  -3.148255e+06   2.607393e+07
  -1.818388e+07   1.289105e+07
  -1.239202e+07  -2.097241e+06
   1.010858e+06  -6.636372e+06
   7.153808e+06  -9.983947e+05
   3.615750e+06   6.461700e+06
  -3.091739e+06   8.235772e+06
  -6.873869e+06   2.892154e+06
  -5.643963e+06  -4.578092e+06
  -8.607332e+05  -6.986632e+06
   3.247872e+06  -1.939592e+06
   2.584531e+06   5.019178e+06
  -2.280925e+06   6.071560e+06
  -5.941395e+06  -1.423125e+05
  -4.002034e+06  -7.346814e+06
   2.137783e+06  -8.985147e+06
   7.275222e+06  -4.522669e+06
   7.787346e+06   1.711311e+06
   4.217760e+06   5.483174e+06
   3.053857e+03   5.521391e+06
  -1.411970e+06   3.422762e+06
   4.674024e+05   2.063516e+06
   2.232470e+06   3.001959e+06
  -2.076417e+04   4.600983e+06
  -5.484541e+06   3.742707e+06
  -8.590564e+06  -8.013115e+04
  -5.544789e+06  -3.717843e+06
   7.275131e+05  -4.083677e+06
   4.046869e+06  -1.551738e+06
   2.158968e+06   1.138842e+06
  -1.683084e+06   1.924101e+06
  -3.471557e+06   4.426990e+05
  -2.352250e+06  -2.331607e+06
   5.341117e+04  -4.146220e+06
   1.859688e+06  -2.774927e+06
   1.911616e+06   9.448586e+05
   4.031596e+05   2.836270e+06
  -7.988294e+05   4.037738e+05
   9.595436e+04  -3.076418e+06
   2.127138e+06  -2.405895e+06
   2.171767e+06   2.098373e+06
  -9.120188e+05   4.442220e+06
  -4.114570e+06   9.756232e+05
  -3.545760e+06  -4.576114e+06
   9.106839e+05  -5.938197e+06
   5.376837e+06  -1.898203e+06
   5.985232e+06   3.149923e+06
   2.314946e+06   4.861112e+06
  -2.594578e+06   2.821865e+06
  -4.821950e+06  -5.087440e+05
  -2.735231e+06  -2.495609e+06
   1.430576e+06  -1.937537e+06
   3.516309e+06   2.849784e+05
   1.774842e+06   1.807386e+06
  -1.191730e+06   1.109254e+06
  -1.707127e+06  -6.568747e+05
   4.030706e+05  -1.096092e+06
   1.882656e+06   3.354566e+05
   4.430381e+05   1.811016e+06
  -2.492458e+06   1.600628e+06
  -3.791860e+06  -2.272399e+05
  -2.063640e+06  -2.575649e+06
   1.480777e+06  -4.300188e+06
   4.537105e+06  -4.130435e+06
   5.327170e+06  -1.292388e+06
   3.561558e+06   2.869845e+06
   7.195542e+05   5.249275e+06
  -1.042954e+06   4.229998e+06
  -9.728100e+05   1.716794e+06
  -4.161595e+05   6.640838e+05
  -9.606035e+05   1.303434e+06
  -2.361821e+06   1.327602e+06
  -2.964670e+06  -4.929534e+05
  -1.806218e+06  -2.525494e+06
   3.921976e+05  -2.477860e+06
   2.057918e+06  -2.034685e+05
   1.963535e+06   2.297824e+06
  -4.630758e+04   2.974427e+06
  -2.695942e+06   1.353001e+06
  -3.862288e+06  -1.343161e+06
  -2.469322e+06  -3.217455e+06
   1.516912e+05  -3.207721e+06
   1.647324e+06  -1.958535e+06
   1.473221e+06  -9.941422e+05
   1.367588e+06  -9.207074e+05
   2.660165e+06  -8.382795e+05
   4.146169e+06   3.271925e+05
   3.517840e+06   2.383161e+06
   3.895647e+05   4.013915e+06
  -3.022828e+06   3.990749e+06
  -4.181136e+06   2.098098e+06
  -2.605550e+06  -6.247039e+05
  -3.788871e+04  -2.347927e+06
   1.285790e+06  -1.833686e+06
   5.362537e+05   1.408051e+05
  -1.123294e+06   1.298696e+06
  -1.779708e+06   4.220571e+05
  -7.868928e+05  -1.111103e+06
   5.725358e+05  -1.146748e+06
   6.454766e+05   2.989671e+05
  -6.398571e+05   1.019756e+06
  -1.771828e+06  -4.187052e+05
  -1.391626e+06  -2.770595e+06
   4.459737e+05  -3.619152e+06
   2.570878e+06  -2.057965e+06
   3.653030e+06   6.609600e+05
   2.937131e+06   2.616480e+06
   7.910632e+05   2.793848e+06
  -1.245697e+06   1.568195e+06
  -1.633964e+06   2.432471e+05
  -4.915218e+05  -2.068246e+04
   4.026256e+05   7.210064e+05
  -2.754970e+05   1.255740e+06
  -1.705223e+06   6.366878e+05
  -1.963720e+06  -6.426758e+05
  -5.104626e+05  -1.261383e+06
   1.091494e+06  -6.697471e+05
   1.032088e+06   3.732521e+05
  -6.941047e+05   7.609131e+05
  -2.322715e+06   8.717279e+04
  -2.127661e+06  -1.195987e+06
  -5.732652e+04  -2.162851e+06
   2.212608e+06  -1.948450e+06
   2.772072e+06  -4.809816e+05
   1.248096e+06   1.121847e+06
  -7.993374e+05   1.411765e+06
  -1.403670e+06   2.157490e+05
  -1.661135e+05  -1.001405e+06
   1.446311e+06  -7.804649e+05
   1.753110e+06   6.160212e+05
   5.481352e+05   1.589999e+06
  -9.085624e+05   1.142341e+06
  -1.282387e+06  -8.141153e+04
  -3.926393e+05  -6.974955e+05
   7.158549e+05  -1.123770e+05
   7.588558e+05   9.952225e+05
  -5.331197e+05   1.435948e+06
  -1.991700e+06   6.070085e+05
  -2.063749e+06  -9.633625e+05
  -4.885829e+05  -2.023497e+06
   1.295639e+06  -1.701933e+06
   1.675850e+06  -3.479249e+05
   5.915937e+05   8.028358e+05
  -5.818028e+05   8.652867e+05
  -7.042043e+05   1.113056e+05
   1.574588e+04  -4.940285e+05
   5.667883e+05  -3.934484e+05
   3.516040e+05   6.111179e+04
  -3.087026e+05   1.220848e+05
  -5.973599e+05  -4.748700e+05
   3.071650e+04  -1.151456e+06
   1.280654e+06  -9.973192e+05
   2.095923e+06   2.730339e+05
   1.562451e+06   1.849006e+06
  -7.934991e+04   2.459484e+06
  -1.537510e+06   1.602770e+06
  -1.783112e+06   6.135878e+04
  -1.071103e+06  -9.149031e+05
  -4.360585e+05  -8.512162e+05
  -3.932459e+05  -3.496613e+05
  -4.953482e+05  -2.450934e+05
  -1.026432e+05  -6.662515e+05
   7.694931e+05  -9.708508e+05
   1.443801e+06  -4.952060e+05
   1.204275e+06   6.667602e+05
  -7.379608e+04   1.584215e+06
  -1.659794e+06   1.265130e+06
  -2.324944e+06  -3.208854e+05
  -1.323237e+06  -2.004235e+06
   7.682024e+05  -2.402109e+06
   2.392228e+06  -1.243362e+06
   2.428068e+06   3.995219e+05
   1.197896e+06   1.255541e+06
  -4.082820e+04   1.086919e+06
  -4.407294e+05   6.797752e+05
  -2.217686e+05   7.704237e+05
  -1.386017e+05   1.214469e+06
  -5.815392e+05   1.236760e+06
  -1.224138e+06   3.538096e+05
  -1.374335e+06  -1.024701e+06
  -6.483151e+05  -1.878232e+06
   5.616334e+05  -1.477746e+06
   1.298230e+06  -9.372480e+04
   9.101322e+05   1.182718e+06
  -2.270521e+05   1.398581e+06
  -1.025151e+06   5.606116e+05
  -8.157423e+05  -4.942570e+05
  -3.477724e+04  -9.782640e+05
   3.509531e+05  -8.129171e+05
  -2.676513e+03  -4.697533e+05
  -4.312347e+05  -3.455458e+05
  -6.730910e+04  -3.950429e+05
   1.086425e+06  -2.870773e+05
   2.013122e+06   1.964911e+05
   1.670904e+06   9.001672e+05
   1.184339e+05   1.363561e+06
  -1.432402e+06   1.188272e+06
  -1.774448e+06   4.369807e+05
  -8.782966e+05  -3.301706e+05
   1.915074e+05  -5.243735e+05
   4.728526e+05  -1.053194e+05
   1.003178e+04   3.550692e+05
  -4.677085e+05   2.670678e+05
  -4.870195e+05  -3.199382e+05
  -2.130350e+05  -7.457992e+05
  -4.422689e+04  -4.917904e+05
  -1.327454e+05   1.623078e+05
  -3.183771e+05   3.915888e+05
  -3.062895e+05  -2.040022e+05
   1.216687e+05  -1.032240e+06
   8.405948e+05  -1.105301e+06
   1.268113e+06  -1.838685e+05
   8.094277e+05   8.874917e+05
  -3.647123e+05   1.089080e+06
  -1.198626e+06   3.202444e+05
  -7.584459e+05  -5.631283e+05
   6.450326e+05  -7.030702e+05
   1.630120e+06  -4.328607e+04
   1.165288e+06   7.734664e+05
  -3.404299e+05   1.077640e+06
  -1.485935e+06   6.840975e+05
  -1.317225e+06  -5.192131e+04
  -2.088586e+05  -5.236063e+05
   6.243948e+05  -3.447218e+05
   3.739487e+05   2.538929e+05
  -6.041191e+05   5.252772e+05
  -1.197792e+06  -7.756996e+04
  -6.731672e+05  -1.195005e+06
   5.914387e+05  -1.730314e+06
   1.497195e+06  -9.254591e+05
   1.309181e+06   7.281901e+05
   2.927953e+05   1.820770e+06
  -6.751096e+05   1.392001e+06
  -9.547327e+05  -7.779954e+04
  -5.522550e+05  -1.170707e+06
   1.005382e+05  -1.022760e+06
   5.428428e+05  -1.413121e+05
   5.419080e+05   3.619201e+05
   2.272822e+05   1.404549e+05
   2.243619e+04  -1.122363e+05
   2.216452e+05   2.593160e+05
   5.395347e+05   9.410276e+05
   3.150557e+05   1.086505e+06
  -6.313467e+05   4.408684e+05
  -1.531685e+06  -3.919285e+05
  -1.401679e+06  -7.706711e+05
  -2.314521e+05  -6.848950e+05
   8.927702e+05  -4.728313e+05
   1.004254e+06  -2.601034e+05
   3.228659e+05   1.037510e+04
  -1.557214e+05   2.337358e+05
   3.665267e+04   2.299629e+05
   3.402003e+05   1.057666e+05
   3.585866e+04   1.400360e+05
  -7.269161e+05   2.604761e+05
  -1.057058e+06   2.261832e+04
  -3.845326e+05  -6.826011e+05
   8.554329e+05  -1.208573e+06
   1.650478e+06  -8.025602e+05
   1.383471e+06   4.101453e+05
   3.280435e+05   1.424586e+06
  -6.950137e+05   1.411045e+06
  -1.041374e+06   5.591697e+05
  -6.898346e+05  -2.332951e+05
  -1.290809e+05  -3.597404e+05
   1.228001e+05  -4.490576e+04
  -5.699783e+04   5.710016e+04
  -3.472083e+05  -3.363871e+05
  -3.139025e+05  -8.035170e+05
   1.614931e+05  -6.874966e+05
   7.137291e+05   1.244116e+05
   7.694679e+05   9.692525e+05
   1.078135e+05   1.042918e+06
  -7.909176e+05   2.423810e+05
  -1.074715e+06  -7.287069e+05
  -3.725822e+05  -1.089005e+06
   7.031327e+05  -6.849276e+05
   1.113877e+06   3.874933e+04
   5.343817e+05   5.634690e+05
  -2.607470e+05   6.543991e+05
  -3.259877e+05   3.742670e+05
   2.996537e+05   7.431553e+03
   6.694522e+05  -6.691530e+04
   1.465256e+05   2.981673e+05
  -8.016452e+05   7.351941e+05
  -1.204065e+06   6.382388e+05
  -7.292111e+05  -1.130056e+05
   6.165977e+04  -8.677466e+05
   4.797151e+05  -8.694715e+05
   3.827393e+05  -1.448497e+05
   5.716036e+04   5.053383e+05
  -2.331227e+05   4.297482e+05
  -3.730780e+05  -1.714057e+05
  -2.799854e+05  -5.749064e+05
   4.913753e+04  -4.002740e+05
   3.995101e+05   4.401119e+04
   4.769285e+05   2.349676e+05
   2.457918e+05   6.042087e+04
  -1.667484e+04  -1.221567e+05
  -7.459742e+04   2.567580e+04
  -2.225107e+04   3.927456e+05
  -1.100889e+05   5.285235e+05
  -3.497742e+05   1.677796e+05
  -4.373969e+05  -4.182500e+05
  -1.206969e+05  -6.665694e+05
   4.217132e+05  -3.224764e+05
   6.647711e+05   2.812579e+05
   2.678996e+05   5.881364e+05
  -4.851546e+05   3.876834e+05
  -8.775541e+05  -5.482278e+04
  -4.923968e+05  -3.621523e+05
   2.831233e+05  -3.902029e+05
   6.318074e+05  -2.239942e+05
   2.226043e+05  -1.924927e+04
  -3.965437e+05   6.148150e+04
  -4.406250e+05  -8.612080e+04
   1.873230e+05  -3.357827e+05
   7.985020e+05  -3.197698e+05
