
 $NMID
 id='ANONYMOUS ', fmtdat='(2E16.6)'
 volume=1.0
 tramp=1.0
 $END
   5.919774e+07   9.562094e+04
   3.509965e+07   3.722470e+07
  -8.458607e+06   4.005924e+07
  -2.905243e+07   1.464234e+07
  -1.682327e+07  -7.967060e+06
   3.800484e+06  -9.642160e+06
   1.007944e+07   1.712471e+06
   2.474225e+06   1.019701e+07
  -6.648522e+06   9.288001e+06
  -9.970712e+06   1.751098e+06
  -7.206588e+06  -6.401057e+06
  -8.883539e+05  -8.798957e+06
   4.098120e+06  -2.927284e+06
   2.725730e+06   5.371563e+06
  -3.892385e+06   6.506088e+06
  -8.102415e+06  -1.555199e+06
  -4.485402e+06  -1.060738e+07
   4.027689e+06  -1.219719e+07
   1.055450e+07  -6.149637e+06
   1.136577e+07   2.074905e+06
   7.101226e+06   7.882052e+06
   7.788090e+05   9.294719e+06
  -3.312222e+06   6.496808e+06
  -2.346852e+06   2.593127e+06
   9.997095e+05   1.757461e+06
   5.074180e+05   4.034112e+06
  -5.224912e+06   4.672281e+06
  -9.807692e+06   8.264861e+05
  -7.371679e+06  -4.094199e+06
  -5.295556e+05  -5.312194e+06
   3.617505e+06  -2.928285e+06
   2.641581e+06  -3.265411e+05
  -2.037973e+05   8.426134e+05
  -1.959042e+06   7.116393e+05
  -2.279807e+06  -1.104426e+06
  -1.018767e+06  -3.878824e+06
   1.748491e+06  -4.111007e+06
   3.583949e+06  -5.240822e+04
   2.016836e+06   3.854941e+06
  -8.680917e+05   2.274575e+06
  -5.938380e+05  -2.318619e+06
   2.409788e+06  -2.293897e+06
   2.454658e+06   3.347152e+06
  -2.728671e+06   6.338996e+06
  -7.466033e+06   9.177509e+05
  -5.366016e+06  -7.372682e+06
   2.124236e+06  -8.946668e+06
   7.766752e+06  -2.515492e+06
   7.073321e+06   4.564568e+06
   1.778901e+06   6.101895e+06
  -3.529486e+06   2.661772e+06
  -5.222427e+06  -1.617736e+06
  -2.320139e+06  -3.551073e+06
   2.567859e+06  -2.188521e+06
   4.650961e+06   1.025781e+06
   1.943907e+06   2.845980e+06
  -1.800720e+06   1.404332e+06
  -1.714237e+06  -1.046239e+06
   1.465079e+06  -8.063940e+05
   2.477715e+06   2.036226e+06
  -9.156486e+05   3.664117e+06
  -5.016177e+06   1.859624e+06
  -5.487561e+06  -1.583859e+06
  -2.318157e+06  -4.189175e+06
   1.784647e+06  -5.435383e+06
   4.967517e+06  -5.053054e+06
   6.301027e+06  -1.934013e+06
   4.823868e+06   3.144064e+06
   1.081544e+06   6.293836e+06
  -1.926555e+06   4.800055e+06
  -1.822370e+06   1.064901e+06
  -1.059184e+04  -4.188999e+05
   3.169260e+05   1.008412e+06
  -1.413348e+06   2.012582e+06
  -2.828510e+06   5.093340e+05
  -2.188452e+06  -1.741008e+06
  -2.236087e+05  -2.099614e+06
   1.424075e+06  -3.092692e+05
   1.692913e+06   1.926595e+06
   1.125954e+05   2.907870e+06
  -2.737722e+06   1.788962e+06
  -4.620743e+06  -1.066208e+06
  -3.421556e+06  -3.819923e+06
  -1.628788e+04  -4.427299e+06
   2.388122e+06  -2.867202e+06
   2.359775e+06  -1.149877e+06
   1.875045e+06  -6.327553e+05
   2.931726e+06  -4.578050e+05
   4.343370e+06   7.395235e+05
   3.501823e+06   2.723829e+06
   1.855277e+05   4.098653e+06
  -3.101128e+06   3.940091e+06
  -4.087293e+06   2.247152e+06
  -2.690939e+06  -2.948543e+05
  -4.118828e+05  -2.216925e+06
   1.003074e+06  -2.002931e+06
   5.796282e+05  -1.515252e+03
  -1.038376e+06   1.345069e+06
  -1.916491e+06   4.345369e+05
  -9.761504e+05  -1.210877e+06
   4.670036e+05  -1.123120e+06
   3.768761e+05   3.762573e+05
  -1.111135e+06   6.036031e+05
  -1.816309e+06  -1.445850e+06
  -4.909140e+05  -3.543472e+06
   1.736011e+06  -3.267380e+06
   3.126850e+06  -9.102185e+05
   3.166169e+06   1.490179e+06
   2.169776e+06   2.640812e+06
   4.683709e+05   2.503770e+06
  -1.178627e+06   1.473197e+06
  -1.550710e+06   2.787277e+05
  -4.904242e+05  -3.711775e+04
   3.655750e+05   7.449108e+05
  -4.199971e+05   1.360678e+06
  -1.937522e+06   5.972467e+05
  -2.050523e+06  -9.013616e+05
  -3.738572e+05  -1.433919e+06
   1.168736e+06  -5.696985e+05
   8.553989e+05   4.378571e+05
  -8.499178e+05   4.642964e+05
  -2.105964e+06  -3.492681e+05
  -1.661390e+06  -1.303927e+06
   2.515255e+05  -1.889926e+06
   2.250431e+06  -1.631823e+06
   2.741709e+06  -3.002651e+05
   1.230091e+06   1.265624e+06
  -9.186784e+05   1.542313e+06
  -1.596413e+06   2.111937e+05
  -2.341580e+05  -1.103045e+06
   1.512152e+06  -7.637351e+05
   1.715026e+06   7.749786e+05
   3.179177e+05   1.637863e+06
  -1.099441e+06   9.394087e+05
  -1.233596e+06  -3.419571e+05
  -2.137254e+05  -7.847854e+05
   8.172409e+05  -5.272749e+04
   7.606581e+05   1.049511e+06
  -5.428044e+05   1.440554e+06
  -1.993727e+06   5.894865e+05
  -2.056865e+06  -1.009592e+06
  -4.133633e+05  -2.070757e+06
   1.428275e+06  -1.656636e+06
   1.721385e+06  -2.156572e+05
   4.927834e+05   8.650554e+05
  -6.531693e+05   7.966422e+05
  -6.068324e+05   9.266402e+04
   1.240698e+05  -3.135227e+05
   4.417946e+05  -1.778542e+05
   5.511532e+04   3.566024e+04
  -4.699766e+05  -1.394836e+05
  -4.924478e+05  -7.068010e+05
   2.265905e+05  -1.185862e+06
   1.375182e+06  -8.989387e+05
   2.078922e+06   3.887698e+05
   1.491017e+06   1.917502e+06
  -1.753863e+05   2.404038e+06
  -1.572519e+06   1.398043e+06
  -1.643202e+06  -1.186047e+05
  -8.222764e+05  -8.363859e+05
  -3.260860e+05  -5.635628e+05
  -5.281769e+05  -1.722980e+05
  -6.725912e+05  -3.301520e+05
  -1.021868e+05  -7.917322e+05
   8.717022e+05  -8.967399e+05
   1.419763e+06  -3.203428e+05
   1.020099e+06   6.853453e+05
  -2.415229e+05   1.408751e+06
  -1.684865e+06   1.063688e+06
  -2.224069e+06  -4.512951e+05
  -1.133229e+06  -2.074508e+06
   1.007082e+06  -2.363254e+06
   2.536173e+06  -1.030678e+06
   2.319848e+06   6.576500e+05
   9.126733e+05   1.306521e+06
  -2.112762e+05   8.876693e+05
  -3.346690e+05   4.755415e+05
  -3.777665e+03   7.698050e+05
  -5.913309e+04   1.347559e+06
  -6.634482e+05   1.319661e+06
  -1.304002e+06   3.434485e+05
  -1.359078e+06  -1.050247e+06
  -5.914099e+05  -1.873622e+06
   5.885262e+05  -1.441104e+06
   1.272653e+06  -1.136279e+04
   8.130277e+05   1.280009e+06
  -3.977888e+05   1.391219e+06
  -1.177955e+06   3.770983e+05
  -8.100044e+05  -7.383884e+05
   1.515020e+05  -1.095101e+06
   5.694931e+05  -7.688841e+05
   9.404123e+04  -3.903551e+05
  -4.485820e+05  -3.171254e+05
  -7.350063e+04  -3.766952e+05
   1.155086e+06  -2.176147e+05
   2.080082e+06   3.117254e+05
   1.622553e+06   1.021842e+06
  -5.019368e+04   1.445387e+06
  -1.601202e+06   1.164248e+06
  -1.825844e+06   2.804869e+05
  -8.167257e+05  -5.178818e+05
   2.711349e+05  -5.868241e+05
   5.161637e+05  -2.223675e+04
   4.596374e+04   4.468073e+05
  -4.231225e+05   2.759179e+05
  -4.909059e+05  -3.312350e+05
  -3.008805e+05  -7.113447e+05
  -1.363248e+05  -4.787567e+05
  -1.263963e+05   7.442140e+04
  -2.409215e+05   2.723975e+05
  -2.709410e+05  -2.283775e+05
   1.029614e+05  -9.752601e+05
   8.770885e+05  -1.083590e+06
   1.395975e+06  -2.157194e+05
   9.062608e+05   8.994426e+05
  -3.967085e+05   1.174095e+06
  -1.274500e+06   3.900170e+05
  -7.490221e+05  -5.448667e+05
   6.939450e+05  -6.488670e+05
   1.560913e+06   8.366783e+04
   9.652470e+05   8.405392e+05
  -4.934738e+05   9.547345e+05
  -1.461253e+06   4.525858e+05
  -1.190057e+06  -1.888011e+05
  -1.249046e+05  -4.960751e+05
   6.419460e+05  -2.605480e+05
   3.980692e+05   2.992591e+05
  -5.559828e+05   5.541670e+05
  -1.187820e+06  -2.548286e+04
  -7.337580e+05  -1.150668e+06
   5.062504e+05  -1.730865e+06
   1.438714e+06  -9.478830e+05
   1.271837e+06   7.076316e+05
   2.513821e+05   1.766968e+06
  -7.010040e+05   1.280570e+06
  -9.105068e+05  -1.796655e+05
  -4.260611e+05  -1.172836e+06
   2.293674e+05  -9.402827e+05
   5.646281e+05  -7.859152e+04
   4.452311e+05   3.534946e+05
   1.368558e+05   1.181214e+05
   5.627115e+04  -8.437172e+04
   3.250674e+05   3.148255e+05
   5.436466e+05   9.593056e+05
   1.782196e+05   1.053264e+06
  -7.421012e+05   3.948337e+05
  -1.469038e+06  -4.244525e+05
  -1.254565e+06  -7.946486e+05
  -1.946708e+05  -6.961335e+05
   8.053598e+05  -4.462971e+05
   9.586983e+05  -1.946246e+05
   3.841168e+05   6.757447e+04
  -1.264652e+05   2.334003e+05
  -6.636614e+04   1.790485e+05
   2.271977e+05   5.749259e+04
   7.116345e+04   1.308841e+05
  -6.079493e+05   2.771978e+05
  -1.049482e+06   3.210905e+04
  -5.142198e+05  -6.927018e+05
   7.642563e+05  -1.230734e+06
   1.703387e+06  -8.337138e+05
   1.477071e+06   3.680521e+05
   3.371715e+05   1.386398e+06
  -7.344151e+05   1.407483e+06
  -1.033492e+06   6.001414e+05
  -6.574940e+05  -1.841579e+05
  -1.643057e+05  -3.562434e+05
   3.273231e+04  -1.006753e+05
  -9.059608e+04  -1.336615e+04
  -2.880435e+05  -3.675151e+05
  -2.539431e+05  -7.950436e+05
   1.481097e+05  -6.939251e+05
   6.781963e+05   6.488314e+04
   8.010997e+05   8.955404e+05
   2.019399e+05   1.035803e+06
  -7.196506e+05   3.220155e+05
  -1.077836e+06  -6.412433e+05
  -4.165657e+05  -1.079812e+06
   6.831853e+05  -7.362617e+05
   1.142169e+06   2.348701e+04
   5.741530e+05   6.260189e+05
  -2.701420e+05   7.278219e+05
  -4.039303e+05   3.854722e+05
   2.073141e+05  -2.143481e+04
   6.358525e+05  -7.105682e+04
   1.708607e+05   3.117267e+05
  -7.977727e+05   7.004348e+05
  -1.267978e+06   5.471501e+05
  -8.041675e+05  -1.880176e+05
   6.273717e+04  -8.875173e+05
   5.586129e+05  -8.863456e+05
   4.647370e+05  -2.026171e+05
   9.638444e+04   4.608588e+05
  -2.168582e+05   4.674297e+05
  -3.589342e+05  -9.465040e+04
  -2.816776e+05  -5.652365e+05
   3.007769e+04  -4.648057e+05
   3.953973e+05   1.255970e+04
   4.953274e+05   2.905133e+05
   2.429039e+05   1.113446e+05
  -5.602549e+04  -1.814177e+05
  -7.710279e+04  -1.035899e+05
   8.325577e+04   3.333484e+05
   4.416181e+04   6.031895e+05
  -2.931850e+05   3.056076e+05
  -5.303557e+05  -3.191272e+05
  -2.535176e+05  -6.418694e+05
   3.765598e+05  -3.524038e+05
   7.039837e+05   2.283248e+05
   2.990748e+05   5.479586e+05
  -5.042450e+05   3.897209e+05
  -9.097024e+05  -2.400486e+04
  -5.055160e+05  -3.576298e+05
   2.802554e+05  -4.418034e+05
   6.435611e+05  -2.899033e+05
   2.818680e+05  -3.140825e+04
  -3.014738e+05   1.207026e+05
  -3.968961e+05   1.236458e+03
   1.155622e+05  -2.743359e+05
   6.697475e+05  -3.104598e+05
