
 $NMID
 id='ANONYMOUS ', fmtdat='(2E16.6)'
 volume=1.0
 tramp=1.0
 $END
  -1.836410e+07  -3.429182e+04
  -1.227021e+07  -9.000968e+06
   2.476534e+05  -1.183976e+07
   8.207909e+06  -7.471094e+06
   6.701911e+06  -3.927673e+05
   2.503922e+05   3.364041e+06
  -3.794269e+06   1.439732e+06
  -2.652784e+06  -3.076780e+06
   1.079632e+06  -4.953556e+06
   3.513196e+06  -2.107363e+06
   2.913441e+06   2.398677e+06
   3.134429e+05   3.790237e+06
  -1.748990e+06   7.896049e+05
  -1.315709e+06  -3.120321e+06
   1.174336e+06  -3.650655e+06
   3.094628e+06  -2.599323e+05
   2.217482e+06   3.649103e+06
  -9.052594e+05   4.560342e+06
  -3.524684e+06   2.156562e+06
  -3.568644e+06  -1.042916e+06
  -1.569374e+06  -2.554218e+06
   1.962755e+05  -2.082497e+06
   1.276101e+05  -1.211858e+06
  -1.151945e+06  -1.426687e+06
  -1.476388e+06  -2.533352e+06
   5.201796e+05  -2.975315e+06
   3.598208e+06  -1.656105e+06
   4.812204e+06   7.220051e+05
   2.657771e+06   2.305970e+06
  -9.639215e+05   1.954431e+06
  -2.590058e+06   2.375895e+05
  -9.609466e+05  -1.260735e+06
   1.757549e+06  -1.300839e+06
   2.654398e+06   1.793429e+05
   1.216158e+06   2.013943e+06
  -6.711756e+05   2.558365e+06
  -1.226804e+06   1.155572e+06
  -4.773553e+05  -8.621281e+05
   3.446268e+05  -1.276020e+06
   2.991667e+05   4.149630e+05
  -5.503593e+05   2.079614e+06
  -1.378647e+06   1.427447e+06
  -1.262979e+06  -9.819306e+05
   1.328892e+04  -2.250249e+06
   1.484475e+06  -7.323436e+05
   1.607481e+06   1.906985e+06
  -1.899043e+05   2.731567e+06
  -2.569419e+06   8.981443e+05
  -3.296987e+06  -1.711258e+06
  -1.454020e+06  -2.784662e+06
   1.475019e+06  -1.750694e+06
   2.939825e+06   1.822420e+05
   1.804594e+06   1.404495e+06
  -5.867137e+05   1.166624e+06
  -1.864106e+06  -7.126687e+03
  -1.058203e+06  -8.624937e+05
   5.623409e+05  -5.910746e+05
   1.063468e+06   3.742462e+05
   1.888312e+04   8.700687e+05
  -1.128110e+06   3.202410e+05
  -8.270293e+05  -6.672292e+05
   7.599361e+05  -1.021220e+06
   1.909550e+06  -2.646306e+05
   1.207165e+06   1.151895e+06
  -9.598885e+05   2.223401e+06
  -2.822186e+06   2.017241e+06
  -2.984007e+06   3.647229e+05
  -1.639355e+06  -1.768700e+06
  -1.208943e+05  -2.910603e+06
   5.451846e+05  -2.465589e+06
   4.980213e+05  -1.315219e+06
   5.564465e+05  -7.012044e+05
   1.131526e+06  -7.059438e+05
   1.779018e+06  -3.493871e+05
   1.741487e+06   8.270738e+05
   7.621489e+05   1.889100e+06
  -6.284569e+05   1.575676e+06
  -1.486269e+06  -9.005088e+04
  -1.136755e+06  -1.686951e+06
   2.600435e+05  -1.846593e+06
   1.689457e+06  -5.403514e+05
   2.030712e+06   1.074375e+06
   1.081918e+06   1.841686e+06
  -2.168201e+05   1.553943e+06
  -7.985577e+05   8.858953e+05
  -6.620664e+05   5.638696e+05
  -7.620170e+05   6.344376e+05
  -1.642143e+06   5.138914e+05
  -2.519475e+06  -2.930174e+05
  -2.073925e+06  -1.572983e+06
  -7.988576e+04  -2.498182e+06
   2.085760e+06  -2.312096e+06
   2.728541e+06  -9.905828e+05
   1.515403e+06   6.397528e+05
  -2.514276e+05   1.460264e+06
  -9.813621e+05   9.782523e+05
  -2.982143e+05  -1.568097e+05
   7.911507e+05  -7.151491e+05
   1.079365e+06  -1.727469e+05
   3.734727e+05   6.795693e+05
  -4.551699e+05   6.797100e+05
  -4.811641e+05  -2.175471e+05
   3.348800e+05  -7.808649e+05
   1.157347e+06   1.103680e+04
   1.077742e+06   1.629123e+06
  -9.309613e+04   2.465661e+06
  -1.645036e+06   1.562952e+06
  -2.471786e+06  -4.015321e+05
  -1.923277e+06  -1.867702e+06
  -4.013848e+05  -1.906895e+06
   8.984329e+05  -9.209998e+05
   1.052645e+06  -3.333407e+04
   3.067144e+05   3.714615e+04
  -2.225154e+05  -4.635492e+05
   1.818106e+05  -7.394312e+05
   1.016340e+06  -3.334921e+05
   1.176939e+06   4.126198e+05
   3.118235e+05   7.646745e+05
  -6.927104e+05   3.952674e+05
  -6.810861e+05  -2.812343e+05
   4.484916e+05  -5.396254e+05
   1.554225e+06  -3.925767e+04
   1.410332e+06   8.757410e+05
  -1.646868e+04   1.462743e+06
  -1.503229e+06   1.184414e+06
  -1.773833e+06   1.920647e+05
  -7.300394e+05  -7.217744e+05
   5.225690e+05  -7.974182e+05
   8.185535e+05  -7.524990e+04
   3.493545e+04   5.873015e+05
  -9.181686e+05   4.118844e+05
  -1.078455e+06  -4.326698e+05
  -3.309520e+05  -1.023695e+06
   5.835287e+05  -7.442491e+05
   8.325593e+05   3.869393e+04
   2.758138e+05   4.405125e+05
  -4.149325e+05   5.858432e+04
  -4.115263e+05  -6.372542e+05
   4.104002e+05  -8.506336e+05
   1.265917e+06  -2.608567e+05
   1.224661e+06   7.032238e+05
   2.128413e+05   1.272255e+06
  -8.623009e+05   1.006516e+06
  -1.058400e+06   1.674889e+05
  -3.630427e+05  -5.203513e+05
   3.903157e+05  -5.338634e+05
   4.767668e+05  -2.830375e+04
  -1.750768e+04   3.720036e+05
  -4.332533e+05   2.682699e+05
  -3.081137e+05  -9.461712e+04
   1.697808e+05  -1.570158e+05
   3.964685e+05   2.641900e+05
  -2.158750e+04   7.171138e+05
  -8.304096e+05   5.801677e+05
  -1.295977e+06  -2.582630e+05
  -8.855869e+05  -1.221501e+06
   1.695994e+05  -1.546276e+06
   1.056301e+06  -9.742007e+05
   1.174080e+06   2.164746e+04
   6.867107e+05   6.839599e+05
   2.287378e+05   6.643377e+05
   1.585040e+05   2.890812e+05
   2.376842e+05   1.367948e+05
   3.216156e+04   3.765327e+05
  -5.105245e+05   5.873803e+05
  -9.488029e+05   2.716758e+05
  -7.662664e+05  -5.002807e+05
   1.046269e+05  -1.050789e+06
   1.114915e+06  -7.502778e+05
   1.464741e+06   3.055070e+05
   7.689954e+05   1.312863e+06
  -5.410877e+05   1.474977e+06
  -1.525488e+06   7.122766e+05
  -1.540839e+06  -3.144315e+05
  -7.693769e+05  -8.585590e+05
   5.091758e+04  -7.546801e+05
   3.696200e+05  -4.538579e+05
   2.584212e+05  -4.431109e+05
   1.733675e+05  -6.909298e+05
   3.984092e+05  -7.105402e+05
   7.525766e+05  -1.567042e+05
   7.966826e+05   7.093419e+05
   3.077452e+05   1.208089e+06
  -4.299711e+05   8.961173e+05
  -8.249872e+05   6.680714e+03
  -5.343984e+05  -7.616514e+05
   1.664826e+05  -8.702534e+05
   6.322537e+05  -3.626082e+05
   4.990872e+05   2.716004e+05
   3.724102e+04   5.841936e+05
  -1.945031e+05   5.167250e+05
  -3.199387e+01   3.276177e+05
   2.370108e+05   2.496673e+05
   1.261944e+04   2.550213e+05
  -6.731401e+05   1.407990e+05
  -1.220891e+06  -1.993925e+05
  -1.006831e+06  -6.206682e+05
  -5.685209e+04  -8.368440e+05
   9.016848e+05  -6.719701e+05
   1.121242e+06  -2.228240e+05
   5.621725e+05   1.973127e+05
  -1.175100e+05   2.984455e+05
  -2.917585e+05   6.871452e+04
   2.082528e+04  -1.866038e+05
   3.224163e+05  -1.303113e+05
   2.825472e+05   2.245483e+05
   5.259543e+04   4.802636e+05
  -3.559223e+04   3.041195e+05
   1.028351e+05  -1.217789e+05
   2.579721e+05  -2.561891e+05
   1.892129e+05   1.406859e+05
  -1.520710e+05   6.489648e+05
  -5.771378e+05   6.416434e+05
  -7.476775e+05   3.516874e+04
  -4.134087e+05  -5.862641e+05
   2.739441e+05  -6.247693e+05
   7.295831e+05  -1.070194e+05
   4.372410e+05   4.027501e+05
  -4.306643e+05   4.195842e+05
  -1.048299e+06  -3.484304e+04
  -7.500013e+05  -5.450511e+05
   2.348957e+05  -7.031575e+05
   9.913174e+05  -4.112410e+05
   8.686714e+05   7.609935e+04
   1.243235e+05   3.538698e+05
  -4.083397e+05   2.066433e+05
  -2.114538e+05  -1.612465e+05
   4.197973e+05  -2.737311e+05
   7.354297e+05   1.397844e+05
   3.191109e+05   7.910724e+05
  -5.014508e+05   1.028422e+06
  -1.002813e+06   4.694169e+05
  -7.783923e+05  -5.416614e+05
  -8.009668e+04  -1.168725e+06
   5.039512e+05  -8.623537e+05
   6.107068e+05   7.484929e+04
   3.146102e+05   7.686413e+05
  -8.646269e+04   6.664609e+05
  -3.418812e+05   7.780330e+04
  -3.461853e+05  -2.680930e+05
  -1.618436e+05  -1.158270e+05
  -1.115314e+04   8.112411e+04
  -8.986830e+04  -1.456589e+05
  -2.772060e+05  -6.087919e+05
  -1.745329e+05  -7.154654e+05
   3.829268e+05  -2.603169e+05
   9.498826e+05   3.300651e+05
   8.749061e+05   5.671908e+05
   1.150162e+05   4.377293e+05
  -6.151583e+05   2.402266e+05
  -6.595252e+05   1.187405e+05
  -1.827499e+05  -1.133908e+03
   1.209083e+05  -1.333695e+05
  -4.025002e+04  -1.717201e+05
  -2.391417e+05  -1.127301e+05
  -4.771002e+01  -8.858577e+04
   5.062660e+05  -1.006107e+05
   6.575909e+05   5.441791e+04
   1.518703e+05   4.316474e+05
  -6.336016e+05   6.810901e+05
  -1.050270e+06   3.900460e+05
  -7.957008e+05  -3.456167e+05
  -1.095739e+05  -9.152592e+05
   5.034501e+05  -8.357799e+05
   6.782553e+05  -2.671667e+05
   4.196101e+05   2.065734e+05
   4.505376e+04   2.284527e+05
  -1.055107e+05  -7.087312e+03
   3.298540e+04  -5.930111e+04
   2.176331e+05   2.235060e+05
   1.657275e+05   5.243522e+05
  -1.455738e+05   4.123398e+05
  -4.414842e+05  -1.440899e+05
  -4.003382e+05  -6.700341e+05
   3.009455e+04  -6.471922e+05
   5.230140e+05  -6.821643e+04
   6.130155e+05   5.474127e+05
   1.480768e+05   6.970183e+05
  -4.802228e+05   3.615709e+05
  -6.762478e+05  -9.520298e+04
  -2.875288e+05  -3.562184e+05
   1.920260e+05  -3.639682e+05
   1.960156e+05  -2.142739e+05
  -2.155733e+05  -4.098375e+04
  -4.302428e+05  -4.028966e+03
  -6.501742e+04  -1.870000e+05
   5.457754e+05  -4.184176e+05
   7.700753e+05  -3.592656e+05
   4.249572e+05   8.193356e+04
  -8.904470e+04   5.270883e+05
  -3.212591e+05   5.100792e+05
  -2.124364e+05   5.280846e+04
   1.303618e+04  -3.290012e+05
   1.733951e+05  -2.373247e+05
   2.192310e+05   1.572487e+05
   1.368623e+05   3.765528e+05
  -5.621637e+04   2.207299e+05
  -2.436441e+05  -6.296439e+04
  -2.793875e+05  -1.535899e+05
  -1.539424e+05  -3.488662e+04
  -5.978986e+03   5.248710e+04
   5.773964e+04  -5.693916e+04
   7.971534e+04  -2.539468e+05
   1.483297e+05  -2.816645e+05
   2.353461e+05  -2.955661e+04
   2.045978e+05   3.128767e+05
  -1.467156e+04   4.179428e+05
  -2.943750e+05   1.596589e+05
  -3.763726e+05  -2.302794e+05
  -1.155591e+05  -3.921832e+05
   3.173992e+05  -2.112688e+05
   5.263409e+05   9.573759e+04
   2.779391e+05   2.548683e+05
  -1.958134e+05   2.061689e+05
  -3.954965e+05   7.823236e+04
  -1.175192e+05  -9.547588e+02
   2.776637e+05   1.461205e+04
   2.758763e+05   1.143488e+05
  -1.666641e+05   2.121866e+05
  -5.601229e+05   1.419933e+05
