
 $NMID
 id='ANONYMOUS ', fmtdat='(2E16.6)'
 volume=1.0
 tramp=1.0
 $END
  -5.428166e+07  -1.530406e+06
  -3.177428e+07  -3.429984e+07
   8.018932e+06  -3.644490e+07
   2.686943e+07  -1.360163e+07
   1.576947e+07   6.935329e+06
  -3.314451e+06   8.909237e+06
  -9.463931e+06  -1.265754e+06
  -2.571954e+06  -9.451836e+06
   6.109934e+06  -8.991882e+06
   9.363250e+06  -1.803356e+06
   6.636111e+06   6.187899e+06
   5.758140e+05   8.399677e+06
  -3.962174e+06   2.535021e+06
  -2.453033e+06  -5.429001e+06
   3.776399e+06  -6.345793e+06
   7.587865e+06   1.428736e+06
   4.082256e+06   9.971085e+06
  -3.919227e+06   1.132680e+07
  -9.912094e+06   5.447012e+06
  -1.037214e+07  -2.296904e+06
  -6.133364e+06  -7.410422e+06
  -3.903526e+05  -8.294849e+06
   2.904742e+06  -5.677468e+06
   1.692020e+06  -2.571158e+06
  -1.139754e+06  -2.256502e+06
  -1.072525e+05  -4.187328e+06
   5.486197e+06  -4.144983e+06
   9.491277e+06  -1.715200e+05
   6.730650e+06   4.246231e+06
   1.965040e+04   4.931023e+06
  -3.788152e+06   2.349590e+06
  -2.421174e+06  -1.643478e+05
   7.366847e+05  -1.007592e+06
   2.393667e+06  -4.145096e+05
   2.152145e+06   1.572547e+06
   5.052371e+05   3.940802e+06
  -1.897909e+06   3.669266e+06
  -3.072811e+06  -2.701998e+05
  -1.471864e+06  -3.571803e+06
   8.192611e+05  -1.738204e+06
   2.254113e+05   2.508905e+06
  -2.475296e+06   2.229935e+06
  -2.317699e+06  -3.130422e+06
   2.424536e+06  -5.858462e+06
   6.643129e+06  -8.197603e+05
   4.737654e+06   6.778517e+06
  -2.028614e+06   8.155915e+06
  -7.234050e+06   2.145395e+06
  -6.684002e+06  -4.483926e+06
  -1.712166e+06  -5.930485e+06
   3.444696e+06  -2.609920e+06
   5.144233e+06   1.565168e+06
   2.346397e+06   3.439678e+06
  -2.362917e+06   2.093879e+06
  -4.373012e+06  -9.776836e+05
  -1.847308e+06  -2.666593e+06
   1.690971e+06  -1.288875e+06
   1.699255e+06   1.034097e+06
  -1.247095e+06   9.006522e+05
  -2.360975e+06  -1.663428e+06
   5.887486e+05  -3.240641e+06
   4.429737e+06  -1.740661e+06
   5.081473e+06   1.373908e+06
   2.171039e+06   3.873016e+06
  -1.907011e+06   5.082869e+06
  -5.067792e+06   4.597437e+06
  -6.116375e+06   1.514399e+06
  -4.360127e+06  -3.236545e+06
  -7.419555e+05  -6.068793e+06
   1.903282e+06  -4.641098e+06
   1.713494e+06  -1.221732e+06
   1.913321e+05   1.623987e+05
   1.062528e+05  -1.001628e+06
   1.724403e+06  -1.681768e+06
   2.820787e+06  -8.044968e+04
   1.939493e+06   2.044083e+06
  -8.168787e+04   2.173450e+06
  -1.609285e+06   1.572978e+05
  -1.643477e+06  -2.145759e+06
   8.702469e+04  -2.932567e+06
   2.797181e+06  -1.539321e+06
   4.357986e+06   1.327676e+06
   3.027194e+06   3.777941e+06
  -1.637387e+05   4.105208e+06
  -2.276853e+06   2.568439e+06
  -2.179788e+06   1.059878e+06
  -1.803525e+06   6.551755e+05
  -2.926011e+06   4.294146e+05
  -4.303118e+06  -8.455129e+05
  -3.405304e+06  -2.830721e+06
  -3.204905e+04  -4.120055e+06
   3.305965e+06  -3.813054e+06
   4.237735e+06  -1.993370e+06
   2.638091e+06   5.194586e+05
   1.857026e+05   2.253285e+06
  -1.175671e+06   1.891881e+06
  -5.599583e+05  -6.207823e+04
   1.131554e+06  -1.277334e+06
   1.909585e+06  -3.455521e+05
   8.752522e+05   1.224443e+06
  -5.568647e+05   1.103380e+06
  -4.379037e+05  -3.962107e+05
   1.052067e+06  -6.984973e+05
   1.817988e+06   1.265019e+06
   6.130118e+05   3.448849e+06
  -1.594810e+06   3.391610e+06
  -3.132053e+06   1.105720e+06
  -3.302206e+06  -1.480160e+06
  -2.250660e+06  -2.824400e+06
  -4.018515e+05  -2.644954e+06
   1.288427e+06  -1.437814e+06
   1.592996e+06  -1.819144e+05
   4.929175e+05   5.891551e+04
  -3.401786e+05  -7.632483e+05
   4.447094e+05  -1.327409e+06
   1.916844e+06  -5.283281e+05
   2.010197e+06   9.343250e+05
   3.532557e+05   1.423269e+06
  -1.188742e+06   5.449776e+05
  -8.884243e+05  -4.794345e+05
   8.590209e+05  -5.125081e+05
   2.189420e+06   3.620477e+05
   1.734127e+06   1.405652e+06
  -2.908243e+05   1.983472e+06
  -2.361788e+06   1.609123e+06
  -2.793143e+06   2.039038e+05
  -1.186555e+06  -1.298508e+06
   9.602646e+05  -1.475866e+06
   1.563084e+06  -1.461339e+05
   1.680825e+05   1.086640e+06
  -1.541704e+06   6.978719e+05
  -1.705274e+06  -8.278971e+05
  -3.005045e+05  -1.667467e+06
   1.117464e+06  -9.571907e+05
   1.255496e+06   3.401054e+05
   2.304576e+05   7.890458e+05
  -7.986944e+05   3.425164e+04
  -7.109576e+05  -1.077961e+06
   6.182833e+05  -1.415887e+06
   2.033562e+06  -4.906651e+05
   2.017603e+06   1.110685e+06
   3.302466e+05   2.094902e+06
  -1.489605e+06   1.612189e+06
  -1.739607e+06   1.663131e+05
  -4.828478e+05  -8.855853e+05
   6.828612e+05  -7.908022e+05
   6.420301e+05  -5.981725e+04
  -1.255114e+05   3.644393e+05
  -5.030399e+05   2.029528e+05
  -1.307106e+05  -6.893100e+04
   4.421552e+05   8.245314e+04
   5.034423e+05   6.825195e+05
  -2.356135e+05   1.185321e+06
  -1.411533e+06   8.635055e+05
  -2.081065e+06  -4.711068e+05
  -1.420555e+06  -1.992306e+06
   2.819301e+05  -2.428671e+06
   1.660687e+06  -1.380122e+06
   1.697453e+06   1.683705e+05
   8.439268e+05   9.257834e+05
   3.050541e+05   6.714832e+05
   4.703938e+05   2.393354e+05
   6.159834e+05   3.306601e+05
   6.956517e+04   7.670307e+05
  -9.026223e+05   8.823040e+05
  -1.464099e+06   2.904695e+05
  -1.039085e+06  -7.536344e+05
   2.869828e+05  -1.463320e+06
   1.758610e+06  -1.034735e+06
   2.247599e+06   5.445461e+05
   1.085284e+06   2.139572e+06
  -1.074747e+06   2.349484e+06
  -2.579621e+06   9.702250e+05
  -2.345577e+06  -7.215059e+05
  -9.297465e+05  -1.369361e+06
   2.284073e+05  -9.483542e+05
   4.065988e+05  -5.073098e+05
   1.042723e+05  -7.561438e+05
   1.420781e+05  -1.308199e+06
   7.075710e+05  -1.274518e+06
   1.307177e+06  -2.850148e+05
   1.315734e+06   1.121311e+06
   5.099751e+05   1.919160e+06
  -6.629579e+05   1.428598e+06
  -1.292243e+06  -3.535283e+04
  -7.828603e+05  -1.309754e+06
   4.272716e+05  -1.391761e+06
   1.175723e+06  -3.783990e+05
   7.949020e+05   7.184767e+05
  -1.503878e+05   1.074497e+06
  -5.564182e+05   7.709929e+05
  -9.467660e+04   4.165198e+05
   4.267606e+05   3.494021e+05
   5.027053e+04   3.871795e+05
  -1.158859e+06   1.810914e+05
  -2.063538e+06  -3.877053e+05
  -1.598097e+06  -1.083302e+06
   7.472408e+04  -1.439515e+06
   1.625899e+06  -1.103878e+06
   1.847144e+06  -2.318478e+05
   8.243467e+05   5.167141e+05
  -2.771008e+05   5.641124e+05
  -5.143536e+05   2.083627e+04
  -1.923258e+04  -4.238720e+05
   4.519840e+05  -2.490644e+05
   4.756888e+05   3.558729e+05
   2.375708e+05   7.339152e+05
   8.522508e+04   4.849705e+05
   1.397293e+05  -9.151653e+04
   2.868964e+05  -2.871141e+05
   2.708407e+05   2.404013e+05
  -1.657778e+05   9.883821e+05
  -9.307762e+05   1.049897e+06
  -1.376072e+06   1.427057e+05
  -8.365137e+05  -9.413981e+05
   4.460458e+05  -1.137366e+06
   1.275286e+06  -3.103290e+05
   7.248069e+05   5.933154e+05
  -7.227151e+05   6.337139e+05
  -1.592883e+06  -1.377767e+05
  -9.851298e+05  -8.931031e+05
   5.143190e+05  -9.785589e+05
   1.516939e+06  -4.384890e+05
   1.230966e+06   2.253006e+05
   1.200401e+05   5.190286e+05
  -6.602459e+05   2.521177e+05
  -3.807022e+05  -3.073105e+05
   5.990217e+05  -5.153412e+05
   1.190657e+06   1.039545e+05
   6.558470e+05   1.202753e+06
  -6.243146e+05   1.705609e+06
  -1.510678e+06   8.652364e+05
  -1.249122e+06  -7.874131e+05
  -1.656981e+05  -1.806996e+06
   7.740593e+05  -1.281999e+06
   9.251225e+05   2.044731e+05
   4.003119e+05   1.210042e+06
  -2.513463e+05   9.647011e+05
  -5.700317e+05   6.758688e+04
  -4.542986e+05  -3.884540e+05
  -1.543575e+05  -1.387685e+05
  -5.376297e+04   9.210477e+04
  -2.854759e+05  -3.105085e+05
  -4.954143e+05  -9.874361e+05
  -1.582750e+05  -1.087222e+06
   7.396003e+05  -3.782260e+05
   1.473236e+06   5.005440e+05
   1.260564e+06   8.698927e+05
   1.693250e+05   7.096016e+05
  -8.592402e+05   4.062110e+05
  -9.911769e+05   1.589775e+05
  -3.697933e+05  -6.810169e+04
   1.475483e+05  -2.258112e+05
   5.172583e+04  -1.983093e+05
  -2.525001e+05  -9.170693e+04
  -5.391766e+04  -1.350084e+05
   6.571260e+05  -2.323856e+05
   1.057447e+06   2.690713e+04
   4.447315e+05   7.108737e+05
  -8.569675e+05   1.182944e+06
  -1.739125e+06   7.422727e+05
  -1.435617e+06  -4.532553e+05
  -2.593731e+05  -1.420933e+06
   8.025530e+05  -1.378859e+06
   1.069499e+06  -5.357837e+05
   6.558198e+05   2.361154e+05
   1.359906e+05   3.648742e+05
  -5.884629e+04   7.718624e+04
   8.636624e+04  -3.633582e+03
   2.883562e+05   3.804741e+05
   2.286108e+05   8.190401e+05
  -1.888610e+05   6.864443e+05
  -6.831232e+05  -1.203286e+05
  -7.429452e+05  -9.603191e+05
  -1.213148e+05  -1.046420e+06
   7.539257e+05  -2.579739e+05
   1.041450e+06   7.256689e+05
   3.481448e+05   1.106502e+06
  -7.274488e+05   6.876789e+05
  -1.137404e+06  -8.669990e+04
  -5.370930e+05  -6.393959e+05
   3.022060e+05  -6.971959e+05
   4.039616e+05  -3.684034e+05
  -2.328957e+05  -4.442600e+03
  -6.516677e+05   3.370567e+04
  -1.493185e+05  -3.168357e+05
   8.426421e+05  -6.705498e+05
   1.292459e+06  -5.120571e+05
   7.830049e+05   2.055283e+05
  -1.085660e+05   8.831100e+05
  -5.856002e+05   8.620844e+05
  -4.508971e+05   1.689686e+05
  -5.809429e+04  -4.775914e+05
   2.445666e+05  -4.464871e+05
   3.537872e+05   1.365223e+05
   2.516640e+05   5.855427e+05
  -5.545863e+04   4.462266e+05
  -3.954132e+05  -4.266334e+04
  -4.813230e+05  -3.016223e+05
  -2.427735e+05  -1.110392e+05
   4.019854e+04   1.659601e+05
   8.093626e+04   7.237721e+04
  -3.236146e+04  -3.478625e+05
   2.472139e+04  -5.763481e+05
   3.162095e+05  -2.492433e+05
   4.828741e+05   3.693357e+05
   1.820190e+05   6.553813e+05
  -4.074132e+05   3.223592e+05
  -6.803986e+05  -2.786919e+05
  -2.596165e+05  -5.752960e+05
   5.220703e+05  -3.655109e+05
   9.016019e+05   7.876701e+04
   4.849108e+05   3.865696e+05
  -3.020652e+05   4.145600e+05
  -6.539587e+05   2.397463e+05
  -2.677396e+05   1.762668e+04
   3.310697e+05  -8.183916e+04
   4.044201e+05   4.719928e+04
  -1.550574e+05   2.810627e+05
  -7.256965e+05   2.692075e+05
