
 $NMID
 id='ANONYMOUS ', fmtdat='(2E16.6)'
 volume=1.0
 tramp=1.0
 $END
   5.944669e+07   5.620044e+05
   3.505883e+07   3.790070e+07
  -8.901264e+06   4.036550e+07
  -2.954475e+07   1.436916e+07
  -1.695396e+07  -8.399648e+06
   3.996921e+06  -9.734513e+06
   1.020986e+07   1.956059e+06
   2.305137e+06   1.039730e+07
  -6.950857e+06   9.227918e+06
  -1.011378e+07   1.562980e+06
  -7.120561e+06  -6.508859e+06
  -7.472288e+05  -8.786601e+06
   4.102452e+06  -2.882022e+06
   2.565679e+06   5.365455e+06
  -4.077460e+06   6.412717e+06
  -8.144632e+06  -1.708870e+06
  -4.348798e+06  -1.072691e+07
   4.216536e+06  -1.219906e+07
   1.065308e+07  -6.061290e+06
   1.136831e+07   2.154212e+06
   7.097981e+06   7.921023e+06
   7.909211e+05   9.355111e+06
  -3.371026e+06   6.608721e+06
  -2.528247e+06   2.685552e+06
   7.817032e+05   1.744093e+06
   3.928596e+05   3.909094e+06
  -5.186294e+06   4.497922e+06
  -9.685404e+06   6.826170e+05
  -7.276488e+06  -4.136139e+06
  -5.337207e+05  -5.240637e+06
   3.523482e+06  -2.846317e+06
   2.549912e+06  -3.750500e+05
  -1.892247e+05   6.647788e+05
  -1.828843e+06   5.759505e+05
  -2.133702e+06  -1.069559e+06
  -9.523448e+05  -3.757667e+06
   1.741472e+06  -4.073800e+06
   3.573844e+06  -1.197883e+05
   2.044900e+06   3.813367e+06
  -8.079756e+05   2.338606e+06
  -5.226205e+05  -2.203783e+06
   2.453771e+06  -2.199170e+06
   2.414915e+06   3.419336e+06
  -2.857042e+06   6.387289e+06
  -7.583428e+06   8.967458e+05
  -5.360547e+06  -7.463036e+06
   2.227378e+06  -9.002950e+06
   7.818558e+06  -2.446442e+06
   6.983397e+06   4.701549e+06
   1.623690e+06   6.155626e+06
  -3.609435e+06   2.566148e+06
  -5.179960e+06  -1.777417e+06
  -2.220130e+06  -3.644522e+06
   2.641261e+06  -2.165591e+06
   4.660747e+06   1.113369e+06
   1.906535e+06   2.906355e+06
  -1.829347e+06   1.387274e+06
  -1.679969e+06  -1.098732e+06
   1.547704e+06  -7.969782e+05
   2.519542e+06   2.143106e+06
  -9.771173e+05   3.777438e+06
  -5.128368e+06   1.859401e+06
  -5.540740e+06  -1.691268e+06
  -2.278005e+06  -4.268523e+06
   1.851043e+06  -5.385420e+06
   4.989018e+06  -4.918734e+06
   6.268609e+06  -1.832251e+06
   4.755114e+06   3.161131e+06
   9.806112e+05   6.260052e+06
  -2.044962e+06   4.754488e+06
  -1.912939e+06   1.005001e+06
  -3.627190e+04  -5.068624e+05
   3.511686e+05   9.048137e+05
  -1.339661e+06   1.929249e+06
  -2.724957e+06   4.831357e+05
  -2.083097e+06  -1.694933e+06
  -1.820680e+05  -2.008072e+06
   1.359805e+06  -2.357693e+05
   1.572761e+06   1.929614e+06
   3.989734e+04   2.846552e+06
  -2.714687e+06   1.716129e+06
  -4.545341e+06  -1.107621e+06
  -3.358259e+06  -3.827734e+06
   1.891231e+04  -4.420596e+06
   2.417770e+06  -2.856845e+06
   2.398083e+06  -1.129428e+06
   1.909302e+06  -5.828747e+05
   2.932904e+06  -3.630414e+05
   4.285146e+06   8.573369e+05
   3.387415e+06   2.792566e+06
   6.510633e+04   4.049684e+06
  -3.159748e+06   3.790375e+06
  -4.060805e+06   2.103716e+06
  -2.622468e+06  -3.345588e+05
  -3.626636e+05  -2.158702e+06
   1.010373e+06  -1.935877e+06
   5.641224e+05   2.075940e+03
  -1.047730e+06   1.292174e+06
  -1.902958e+06   3.849407e+05
  -9.452839e+05  -1.211183e+06
   4.832505e+05  -1.083470e+06
   3.473644e+05   4.005728e+05
  -1.163130e+06   5.640984e+05
  -1.809604e+06  -1.533497e+06
  -3.746976e+05  -3.598323e+06
   1.897741e+06  -3.217126e+06
   3.200407e+06  -7.687926e+05
   3.088200e+06   1.631250e+06
   2.012940e+06   2.699102e+06
   3.555298e+05   2.472512e+06
  -1.198379e+06   1.406029e+06
  -1.523546e+06   2.300922e+05
  -4.817779e+05  -5.065738e+04
   3.384367e+05   7.453940e+05
  -4.520883e+05   1.341237e+06
  -1.937199e+06   5.465072e+05
  -2.011831e+06  -9.519729e+05
  -3.304974e+05  -1.438289e+06
   1.174487e+06  -5.268222e+05
   8.211881e+05   4.675309e+05
  -8.749943e+05   4.234180e+05
  -2.071415e+06  -4.403508e+05
  -1.573635e+06  -1.359746e+06
   3.335645e+05  -1.850586e+06
   2.275617e+06  -1.525129e+06
   2.710547e+06  -2.085990e+05
   1.182324e+06   1.286752e+06
  -9.437993e+05   1.506646e+06
  -1.587147e+06   1.761423e+05
  -2.112431e+05  -1.092753e+06
   1.511403e+06  -7.130913e+05
   1.671451e+06   8.196721e+05
   2.566263e+05   1.634480e+06
  -1.129703e+06   8.918150e+05
  -1.215209e+06  -3.886965e+05
  -1.826231e+05  -7.930891e+05
   8.145583e+05  -3.225825e+04
   7.229172e+05   1.054806e+06
  -5.718715e+05   1.401917e+06
  -1.975752e+06   5.253021e+05
  -1.996484e+06  -1.050005e+06
  -3.490414e+05  -2.053164e+06
   1.458737e+06  -1.594679e+06
   1.707903e+06  -1.601732e+05
   4.584244e+05   8.730168e+05
  -6.716806e+05   7.651726e+05
  -5.935005e+05   6.799901e+04
   1.478739e+05  -2.993525e+05
   4.432790e+05  -1.416191e+05
   3.232428e+04   5.222026e+04
  -4.839595e+05  -1.571772e+05
  -4.718270e+05  -7.288654e+05
   2.649100e+05  -1.172894e+06
   1.387005e+06  -8.458627e+05
   2.038025e+06   4.457385e+05
   1.413461e+06   1.932318e+06
  -2.457154e+05   2.359478e+06
  -1.596574e+06   1.320563e+06
  -1.612825e+06  -1.802020e+05
  -7.647872e+05  -8.531589e+05
  -2.812732e+05  -5.500421e+05
  -5.127618e+05  -1.637579e+05
  -6.686805e+05  -3.373623e+05
  -8.672534e+04  -7.888273e+05
   8.913289e+05  -8.590682e+05
   1.412150e+06  -2.641917e+05
   9.730953e+05   7.124843e+05
  -2.960028e+05   1.376099e+06
  -1.697162e+06   9.886807e+05
  -2.174344e+06  -5.169223e+05
  -1.050105e+06  -2.084182e+06
   1.070161e+06  -2.306828e+06
   2.541247e+06  -9.399340e+05
   2.270053e+06   7.310418e+05
   8.464087e+05   1.328108e+06
  -2.540421e+05   8.635796e+05
  -3.465390e+05   4.387518e+05
  -9.925958e+03   7.434038e+05
  -8.085674e+04   1.326518e+06
  -6.874043e+05   1.289276e+06
  -1.296217e+06   3.068593e+05
  -1.307999e+06  -1.070586e+06
  -5.273593e+05  -1.859702e+06
   6.204440e+05  -1.399541e+06
   1.253947e+06   2.950954e+04
   7.642504e+05   1.291349e+06
  -4.393879e+05   1.365968e+06
  -1.188224e+06   3.362486e+05
  -7.902727e+05  -7.633110e+05
   1.832314e+05  -1.090585e+06
   5.968504e+05  -7.503507e+05
   1.137721e+05  -3.815631e+05
  -4.317750e+05  -3.206187e+05
  -6.153027e+04  -3.704925e+05
   1.149275e+06  -1.826413e+05
   2.046657e+06   3.650988e+05
   1.571121e+06   1.057891e+06
  -9.388000e+04   1.434126e+06
  -1.616624e+06   1.109805e+06
  -1.814031e+06   2.199111e+05
  -7.957730e+05  -5.464337e+05
   2.835102e+05  -5.781550e+05
   5.154684e+05  -5.261615e+03
   4.103422e+04   4.440935e+05
  -4.196379e+05   2.577914e+05
  -4.744485e+05  -3.390122e+05
  -2.804308e+05  -6.994881e+05
  -1.264748e+05  -4.677441e+05
  -1.309239e+05   6.363769e+04
  -2.458940e+05   2.488980e+05
  -2.592587e+05  -2.352293e+05
   1.291874e+05  -9.506473e+05
   8.941893e+05  -1.042118e+06
   1.383796e+06  -1.845217e+05
   8.735897e+05   9.028701e+05
  -4.180351e+05   1.150505e+06
  -1.263451e+06   3.583908e+05
  -7.197800e+05  -5.546149e+05
   7.054625e+05  -6.184477e+05
   1.534408e+06   1.360482e+05
   9.169524e+05   8.676793e+05
  -5.274663e+05   9.259475e+05
  -1.459803e+06   3.892931e+05
  -1.164033e+06  -2.335476e+05
  -1.024436e+05  -4.938865e+05
   6.437762e+05  -2.344971e+05
   3.874373e+05   3.061463e+05
  -5.561420e+05   5.287883e+05
  -1.162696e+06  -5.376002e+04
  -6.917415e+05  -1.143605e+06
   5.377916e+05  -1.682227e+06
   1.433643e+06  -8.911396e+05
   1.227191e+06   7.299283e+05
   1.941795e+05   1.741735e+06
  -7.310447e+05   1.233848e+06
  -8.929604e+05  -2.099709e+05
  -3.793643e+05  -1.171259e+06
   2.636030e+05  -9.199949e+05
   5.619767e+05  -5.942308e+04
   4.212670e+05   3.642942e+05
   1.241160e+05   1.235675e+05
   6.138737e+04  -8.158266e+04
   3.210636e+05   3.154875e+05
   5.100312e+05   9.579571e+05
   1.362412e+05   1.045523e+06
  -7.495861e+05   3.717627e+05
  -1.429957e+06  -4.618839e+05
  -1.203371e+06  -8.243443e+05
  -1.710434e+05  -6.920522e+05
   7.990144e+05  -4.102244e+05
   9.480209e+05  -1.588024e+05
   3.829881e+05   7.671895e+04
  -1.285728e+05   2.242222e+05
  -7.969944e+04   1.769105e+05
   2.114800e+05   6.602762e+04
   6.821831e+04   1.278029e+05
  -5.959408e+05   2.502905e+05
  -1.030965e+06   3.854319e+03
  -4.959129e+05  -6.872783e+05
   7.763467e+05  -1.185028e+06
   1.697420e+06  -7.790766e+05
   1.445141e+06   3.925908e+05
   2.928064e+05   1.368122e+06
  -7.617556e+05   1.365500e+06
  -1.028453e+06   5.644319e+05
  -6.361176e+05  -1.970966e+05
  -1.540773e+05  -3.520791e+05
   2.566118e+04  -9.637945e+04
  -9.500824e+04  -1.815824e+04
  -2.712307e+05  -3.742693e+05
  -2.239892e+05  -7.908959e+05
   1.626975e+05  -6.775187e+05
   6.588109e+05   7.996557e+04
   7.610579e+05   8.945109e+05
   1.766310e+05   1.017077e+06
  -7.062969e+05   2.982774e+05
  -1.037039e+06  -6.527872e+05
  -3.829434e+05  -1.068834e+06
   6.864846e+05  -7.074391e+05
   1.122554e+06   5.074455e+04
   5.537941e+05   6.320737e+05
  -2.810325e+05   7.132915e+05
  -4.115415e+05   3.733524e+05
   1.965315e+05  -1.198576e+04
   6.241998e+05  -5.121676e+04
   1.619857e+05   3.102718e+05
  -8.042509e+05   6.645240e+05
  -1.269927e+06   5.017477e+05
  -7.944568e+05  -2.065715e+05
   8.412037e+04  -8.717169e+05
   5.765603e+05  -8.617942e+05
   4.639503e+05  -1.953442e+05
   8.239662e+04   4.501565e+05
  -2.222025e+05   4.550097e+05
  -3.447024e+05  -9.835620e+04
  -2.612882e+05  -5.621206e+05
   3.684694e+04  -4.589821e+05
   3.860401e+05   2.103200e+04
   4.834451e+05   3.011405e+05
   2.385217e+05   1.193487e+05
  -5.629555e+04  -1.812865e+05
  -8.079514e+04  -1.121205e+05
   7.633264e+04   3.196410e+05
   4.184324e+04   5.896099e+05
  -2.843613e+05   2.981445e+05
  -5.128434e+05  -3.156905e+05
  -2.392570e+05  -6.279517e+05
   3.746334e+05  -3.355405e+05
   6.850677e+05   2.372678e+05
   2.789664e+05   5.418739e+05
  -5.069191e+05   3.707849e+05
  -8.934674e+05  -4.383793e+04
  -4.877848e+05  -3.637453e+05
   2.838681e+05  -4.298497e+05
   6.369108e+05  -2.727458e+05
   2.809345e+05  -2.765989e+04
  -2.897219e+05   1.088487e+05
  -3.819973e+05  -6.205462e+03
   1.197726e+05  -2.582372e+05
   6.584508e+05  -2.790503e+05
