
 $NMID
 id='ANONYMOUS ', fmtdat='(2E16.6)'
 volume=1.0
 tramp=1.0
 $END
   3.578728e+07  -1.316741e+06
   2.383902e+07   1.802081e+07
  -8.921701e+05   2.342484e+07
  -1.588463e+07   1.357602e+07
  -1.223220e+07  -3.054145e+05
   3.524139e+04  -6.338671e+06
   6.919947e+06  -2.012231e+06
   4.368767e+06   5.844423e+06
  -2.270943e+06   8.598411e+06
  -6.459686e+06   3.514373e+06
  -5.489535e+06  -4.226620e+06
  -8.792330e+05  -6.781602e+06
   3.083262e+06  -1.740718e+06
   2.538066e+06   5.178019e+06
  -2.034844e+06   6.303839e+06
  -5.694582e+06   3.295588e+05
  -4.141242e+06  -6.752657e+06
   1.616156e+06  -8.534282e+06
   6.576341e+06  -4.332785e+06
   7.013875e+06   1.546213e+06
   3.601141e+06   4.800717e+06
   1.851794e+04   4.514738e+06
  -6.492558e+05   2.819478e+06
   1.315217e+06   2.362283e+06
   2.416838e+06   3.739246e+06
  -4.249354e+05   4.886000e+06
  -5.799453e+06   3.375893e+06
  -8.453616e+06  -5.110525e+05
  -5.147219e+06  -3.720750e+06
   1.105804e+06  -3.706585e+06
   4.214194e+06  -1.024023e+06
   1.883396e+06   1.632709e+06
  -2.398116e+06   2.088711e+06
  -4.060123e+06   6.283128e+04
  -2.238931e+06  -2.918593e+06
   5.752050e+05  -4.292459e+06
   1.928444e+06  -2.411899e+06
   1.344440e+06   1.156985e+06
  -3.982002e+04   2.464576e+06
  -5.932849e+05  -1.702042e+05
   5.172426e+05  -3.343350e+06
   2.236202e+06  -2.489693e+06
   2.261536e+06   1.850296e+06
  -3.142026e+05   4.231568e+06
  -3.295237e+06   1.295375e+06
  -3.307029e+06  -3.802244e+06
   4.235600e+05  -5.360413e+06
   4.851262e+06  -1.876451e+06
   5.944495e+06   2.928684e+06
   2.543387e+06   4.830206e+06
  -2.535581e+06   3.013710e+06
  -5.018167e+06  -3.128462e+05
  -3.028664e+06  -2.438171e+06
   1.167766e+06  -2.052246e+06
   3.401828e+06   4.261586e+04
   1.880709e+06   1.611686e+06
  -1.046513e+06   1.109331e+06
  -1.809131e+06  -6.219284e+05
   1.570264e+05  -1.354875e+06
   1.979365e+06  -1.868071e+05
   1.054796e+06   1.497358e+06
  -1.842071e+06   1.804935e+06
  -3.590986e+06   2.431290e+05
  -2.171699e+06  -2.237640e+06
   1.484379e+06  -4.109870e+06
   4.649027e+06  -3.892345e+06
   5.223268e+06  -1.060061e+06
   3.247188e+06   2.889312e+06
   5.699860e+05   5.137245e+06
  -9.086844e+05   4.311834e+06
  -9.135923e+05   2.062370e+06
  -7.339039e+05   9.507557e+05
  -1.479754e+06   1.238733e+06
  -2.702276e+06   9.584578e+05
  -2.975731e+06  -9.430539e+05
  -1.576516e+06  -2.881471e+06
   7.241419e+05  -2.606415e+06
   2.326643e+06  -3.598416e+04
   2.002201e+06   2.603520e+06
  -2.077301e+05   3.097385e+06
  -2.789066e+06   1.185864e+06
  -3.707875e+06  -1.534128e+06
  -2.234341e+06  -3.147892e+06
   1.845048e+05  -2.946139e+06
   1.459468e+06  -1.789106e+06
   1.288941e+06  -1.035075e+06
   1.340791e+06  -1.051618e+06
   2.760346e+06  -9.166100e+05
   4.287411e+06   3.526168e+05
   3.614211e+06   2.514057e+06
   3.261145e+05   4.187969e+06
  -3.277984e+06   4.058552e+06
  -4.441412e+06   1.968907e+06
  -2.625138e+06  -8.328143e+05
   1.739995e+05  -2.437980e+06
   1.470624e+06  -1.782659e+06
   5.269370e+05   1.952603e+05
  -1.229927e+06   1.287141e+06
  -1.822619e+06   3.964694e+05
  -7.396248e+05  -1.128031e+06
   6.641124e+05  -1.175882e+06
   7.520008e+05   3.318553e+05
  -6.002666e+05   1.218898e+06
  -1.929072e+06  -1.777692e+05
  -1.711042e+06  -2.805639e+06
   2.458937e+05  -4.014981e+06
   2.721801e+06  -2.462621e+06
   4.029327e+06   6.359909e+05
   3.198161e+06   2.923694e+06
   7.805879e+05   3.065805e+06
  -1.391023e+06   1.605751e+06
  -1.735021e+06   1.718367e+05
  -5.159121e+05  -3.557299e+04
   4.073507e+05   7.585425e+05
  -2.711551e+05   1.278960e+06
  -1.726589e+06   6.432079e+05
  -2.025921e+06  -6.430272e+05
  -5.570651e+05  -1.289626e+06
   1.137348e+06  -7.002294e+05
   1.117417e+06   4.172866e+05
  -7.335942e+05   8.649973e+05
  -2.530082e+06   1.073402e+05
  -2.319376e+06  -1.344940e+06
  -4.043257e+04  -2.369448e+06
   2.400093e+06  -2.044933e+06
   2.935102e+06  -4.502595e+05
   1.284746e+06   1.171369e+06
  -8.281066e+05   1.417046e+06
  -1.411363e+06   2.024946e+05
  -1.324936e+05  -1.006016e+06
   1.511154e+06  -7.736399e+05
   1.832566e+06   6.576964e+05
   5.928683e+05   1.686532e+06
  -9.481895e+05   1.244257e+06
  -1.377178e+06  -5.040383e+04
  -4.548735e+05  -7.283094e+05
   7.140815e+05  -1.201803e+05
   7.502578e+05   1.040172e+06
  -6.054355e+05   1.464390e+06
  -2.091711e+06   5.568562e+05
  -2.114988e+06  -1.066639e+06
  -4.614015e+05  -2.117204e+06
   1.375824e+06  -1.754024e+06
   1.762010e+06  -3.496523e+05
   6.308760e+05   8.477505e+05
  -6.170468e+05   9.109528e+05
  -7.672583e+05   9.112110e+04
   1.889357e+04  -5.735523e+05
   6.612825e+05  -4.358663e+05
   4.460473e+05   1.162188e+05
  -3.072710e+05   2.072637e+05
  -6.578509e+05  -4.625293e+05
   1.748524e+04  -1.207598e+06
   1.354734e+06  -1.025189e+06
   2.186548e+06   3.336292e+05
   1.582246e+06   1.971646e+06
  -1.540864e+05   2.585983e+06
  -1.674570e+06   1.678981e+06
  -1.924721e+06   3.564906e+04
  -1.151867e+06  -1.049282e+06
  -4.251264e+05  -1.009075e+06
  -3.335032e+05  -4.228121e+05
  -4.572306e+05  -2.313261e+05
  -8.925334e+04  -6.605448e+05
   8.212819e+05  -1.012273e+06
   1.550878e+06  -5.030642e+05
   1.282698e+06   7.621958e+05
  -1.117471e+05   1.718493e+06
  -1.793336e+06   1.311895e+06
  -2.450965e+06  -3.981455e+05
  -1.364464e+06  -2.134363e+06
   8.213906e+05  -2.505516e+06
   2.514563e+06  -1.283322e+06
   2.574012e+06   4.392690e+05
   1.294782e+06   1.367198e+06
  -5.183156e+04   1.210571e+06
  -5.407406e+05   7.432306e+05
  -3.297021e+05   7.706517e+05
  -2.022123e+05   1.209657e+06
  -6.187808e+05   1.248443e+06
  -1.263984e+06   3.327207e+05
  -1.398281e+06  -1.113386e+06
  -6.197173e+05  -1.987207e+06
   6.362896e+05  -1.530877e+06
   1.370397e+06  -7.158589e+04
   9.415489e+05   1.244747e+06
  -2.373345e+05   1.466641e+06
  -1.058660e+06   6.172290e+05
  -8.555713e+05  -4.698714e+05
  -6.830965e+04  -1.001084e+06
   3.316671e+05  -8.675035e+05
  -8.199529e+03  -5.246090e+05
  -4.267474e+05  -3.865737e+05
  -4.875975e+04  -4.206186e+05
   1.128996e+06  -2.828565e+05
   2.077791e+06   2.439309e+05
   1.730393e+06   9.694788e+05
   1.313891e+05   1.412613e+06
  -1.485932e+06   1.203883e+06
  -1.863515e+06   4.413419e+05
  -9.395282e+05  -3.231841e+05
   1.893259e+05  -5.261563e+05
   4.912009e+05  -1.209384e+05
  -7.985753e+03   3.396246e+05
  -5.141535e+05   2.536568e+05
  -4.959083e+05  -3.502136e+05
  -1.604486e+05  -7.903194e+05
   4.061809e+03  -5.103527e+05
  -1.564974e+05   1.906028e+05
  -3.830696e+05   4.236412e+05
  -3.209016e+05  -2.226670e+05
   1.834338e+05  -1.086057e+06
   9.110170e+05  -1.124349e+06
   1.282356e+06  -1.394051e+05
   7.758336e+05   9.444895e+05
  -4.061229e+05   1.094599e+06
  -1.231333e+06   2.692473e+05
  -7.693646e+05  -6.247342e+05
   6.903750e+05  -7.292730e+05
   1.735607e+06  -1.373820e+04
   1.253747e+06   8.508373e+05
  -3.613563e+05   1.163541e+06
  -1.605766e+06   7.249945e+05
  -1.423559e+06  -7.498221e+04
  -2.211542e+05  -5.703737e+05
   6.653711e+05  -3.632125e+05
   3.752108e+05   2.613490e+05
  -6.624760e+05   5.083271e+05
  -1.242199e+06  -1.462678e+05
  -6.297880e+05  -1.280369e+06
   7.129262e+05  -1.771759e+06
   1.614785e+06  -8.924422e+05
   1.346231e+06   8.217306e+05
   2.406841e+05   1.931230e+06
  -7.614650e+05   1.462044e+06
  -1.014988e+06  -9.080745e+04
  -5.688241e+05  -1.252288e+06
   1.113624e+05  -1.098520e+06
   5.687957e+05  -1.468192e+05
   5.797934e+05   4.097701e+05
   2.581716e+05   1.698397e+05
   1.908723e+04  -1.285646e+05
   1.916408e+05   2.516449e+05
   5.250868e+05   9.954360e+05
   3.270112e+05   1.167394e+06
  -6.433812e+05   4.589876e+05
  -1.603977e+06  -4.646413e+05
  -1.479708e+06  -8.647756e+05
  -2.259950e+05  -7.229577e+05
   9.806732e+05  -4.578139e+05
   1.077599e+06  -2.476916e+05
   3.212180e+05   2.486995e+02
  -1.809046e+05   2.355471e+05
   5.774739e+04   2.674308e+05
   3.816760e+05   1.495519e+05
   1.856582e+04   1.464935e+05
  -8.049407e+05   2.256463e+05
  -1.103359e+06  -2.270131e+04
  -3.318999e+05  -7.119817e+05
   9.674071e+05  -1.210061e+06
   1.732386e+06  -7.646222e+05
   1.391389e+06   4.889352e+05
   2.779315e+05   1.509644e+06
  -7.691193e+05   1.446425e+06
  -1.106436e+06   5.257778e+05
  -7.146643e+05  -2.897923e+05
  -1.076724e+05  -3.774023e+05
   1.539862e+05  -1.547673e+04
  -5.697284e+04   8.280803e+04
  -3.697146e+05  -3.593793e+05
  -3.134040e+05  -8.569706e+05
   1.988816e+05  -7.060505e+05
   7.442525e+05   1.802387e+05
   7.463172e+05   1.061299e+06
   3.984629e+04   1.085203e+06
  -8.501218e+05   1.891935e+05
  -1.082414e+06  -8.306612e+05
  -3.293630e+05  -1.149273e+06
   7.626244e+05  -6.669579e+05
   1.148469e+06   8.810765e+04
   5.259821e+05   5.847767e+05
  -2.888451e+05   6.475817e+05
  -3.277768e+05   3.793825e+05
   3.402424e+05   3.732312e+04
   7.110121e+05  -3.804022e+04
   1.337676e+05   3.103961e+05
  -8.692298e+05   7.449722e+05
  -1.267477e+06   6.519194e+05
  -7.376764e+05  -1.162618e+05
   9.691588e+04  -8.956936e+05
   5.079426e+05  -8.882011e+05
   3.732973e+05  -1.235914e+05
   2.255903e+04   5.402781e+05
  -2.626138e+05   4.247643e+05
  -3.800468e+05  -2.200498e+05
  -2.671706e+05  -6.135081e+05
   6.805961e+04  -3.925801e+05
   4.132444e+05   7.238444e+04
   4.864722e+05   2.443044e+05
   2.591816e+05   5.664460e+04
  -4.706999e+03  -1.051596e+05
  -8.904584e+04   6.602279e+04
  -7.829590e+04   4.186535e+05
  -1.796838e+05   5.090260e+05
  -3.779983e+05   1.112893e+05
  -4.004687e+05  -4.778139e+05
  -5.360344e+04  -6.963402e+05
   4.647524e+05  -3.054094e+05
   6.641110e+05   3.339806e+05
   2.416569e+05   6.341307e+05
  -5.149380e+05   3.852402e+05
  -8.991246e+05  -9.983555e+04
  -4.939160e+05  -3.975118e+05
   3.070996e+05  -3.783350e+05
   6.580263e+05  -1.879250e+05
   2.128589e+05  -1.232932e+04
  -4.412513e+05   2.109474e+04
  -4.626254e+05  -1.392192e+05
   2.369606e+05  -3.562568e+05
   8.875729e+05  -2.933885e+05
