
 $NMID
 id='ANONYMOUS ', fmtdat='(2E16.6)'
 volume=1.0
 tramp=1.0
 $END
   2.316276e+07  -2.656990e+05
   1.562557e+07   1.100357e+07
  -1.823895e+04   1.485122e+07
  -1.010929e+07   9.666328e+06
  -8.434269e+06   7.790032e+05
  -4.504801e+05  -4.197843e+06
   4.724314e+06  -1.967525e+06
   3.462197e+06   3.776766e+06
  -1.185600e+06   6.310625e+06
  -4.364398e+06   2.788366e+06
  -3.747000e+06  -2.962064e+06
  -4.946460e+05  -4.801114e+06
   2.197554e+06  -1.029715e+06
   1.753266e+06   3.951963e+06
  -1.381655e+06   4.683195e+06
  -3.904924e+06   4.255117e+05
  -2.907415e+06  -4.559960e+06
   1.022421e+06  -5.801122e+06
   4.410766e+06  -2.812922e+06
   4.536720e+06   1.257067e+06
   2.009013e+06   3.209238e+06
  -2.409385e+05   2.606962e+06
  -1.140224e+05   1.478733e+06
   1.577262e+06   1.767414e+06
   2.002451e+06   3.232165e+06
  -5.970555e+05   3.850412e+06
  -4.588824e+06   2.199480e+06
  -6.170338e+06  -8.314900e+05
  -3.420546e+06  -2.889714e+06
   1.222842e+06  -2.504111e+06
   3.329067e+06  -3.379090e+05
   1.261579e+06   1.627699e+06
  -2.241989e+06   1.748627e+06
  -3.444457e+06  -1.494837e+05
  -1.634593e+06  -2.570465e+06
   8.001196e+05  -3.313671e+06
   1.549355e+06  -1.494523e+06
   6.082616e+05   1.120300e+06
  -4.504298e+05   1.634476e+06
  -4.108789e+05  -5.647420e+05
   6.582987e+05  -2.705231e+06
   1.724667e+06  -1.870844e+06
   1.627832e+06   1.198164e+06
   5.974336e+04   2.826908e+06
  -1.815465e+06   9.454010e+05
  -2.044007e+06  -2.366408e+06
   1.814430e+05  -3.437361e+06
   3.232839e+06  -1.182629e+06
   4.239308e+06   2.093471e+06
   1.938757e+06   3.504440e+06
  -1.822005e+06   2.277170e+06
  -3.754389e+06  -1.357537e+05
  -2.352691e+06  -1.719472e+06
   6.930186e+05  -1.486650e+06
   2.352957e+06  -4.527275e+04
   1.364537e+06   1.048630e+06
  -6.924784e+05   7.542996e+05
  -1.366824e+06  -4.403678e+05
  -7.369801e+04  -1.104499e+06
   1.404473e+06  -4.702461e+05
   1.084439e+06   7.766306e+05
  -8.995047e+05   1.297720e+06
  -2.395451e+06   4.043046e+05
  -1.560945e+06  -1.414626e+06
   1.174744e+06  -2.858594e+06
   3.567767e+06  -2.649244e+06
   3.808185e+06  -5.297653e+05
   2.125835e+06   2.231002e+06
   2.199434e+05   3.712281e+06
  -6.146278e+05   3.158169e+06
  -5.742956e+05   1.711361e+06
  -6.924671e+05   9.491237e+05
  -1.461586e+06   9.587349e+05
  -2.304886e+06   4.882212e+05
  -2.269410e+06  -1.038337e+06
  -1.024833e+06  -2.423007e+06
   7.741665e+05  -2.047713e+06
   1.919811e+06   7.499064e+04
   1.508721e+06   2.137737e+06
  -2.871646e+05   2.375814e+06
  -2.154447e+06   7.278909e+05
  -2.621297e+06  -1.335545e+06
  -1.415312e+06  -2.329218e+06
   2.483057e+05  -1.977492e+06
   9.933704e+05  -1.136473e+06
   8.187167e+05  -7.338974e+05
   9.495297e+05  -8.375917e+05
   2.087177e+06  -7.083096e+05
   3.236769e+06   3.030766e+05
   2.703026e+06   1.956942e+06
   1.718668e+05   3.201280e+06
  -2.615140e+06   3.024468e+06
  -3.478557e+06   1.342743e+06
  -1.960691e+06  -7.874439e+05
   2.911281e+05  -1.885241e+06
   1.237415e+06  -1.278807e+06
   3.829000e+05   1.962152e+05
  -9.987257e+05   9.353510e+05
  -1.373944e+06   2.465001e+05
  -4.898198e+05  -8.594515e+05
   5.656849e+05  -8.806007e+05
   6.231007e+05   2.642444e+05
  -3.983067e+05   1.011364e+06
  -1.474718e+06   3.204630e+04
  -1.436632e+06  -2.039461e+06
   2.440231e+04  -3.160564e+06
   2.047869e+06  -2.067521e+06
   3.186455e+06   4.259988e+05
   2.534836e+06   2.336075e+06
   5.758467e+05   2.439568e+06
  -1.128325e+06   1.210089e+06
  -1.350951e+06   7.258126e+04
  -3.942240e+05  -3.793533e+04
   2.967196e+05   5.883173e+05
  -2.137204e+05   9.486277e+05
  -1.289632e+06   4.509178e+05
  -1.513253e+06  -4.946626e+05
  -4.177237e+05  -9.651967e+05
   8.762488e+05  -5.216676e+05
   8.807430e+05   3.433414e+05
  -5.601889e+05   7.084429e+05
  -1.996616e+06   9.952118e+04
  -1.841350e+06  -1.082257e+06
  -2.491727e+04  -1.880647e+06
   1.894568e+06  -1.565442e+06
   2.269221e+06  -2.979227e+05
   9.539811e+05   9.019546e+05
  -6.475757e+05   1.031429e+06
  -1.042201e+06   1.161758e+05
  -5.617632e+04  -7.496923e+05
   1.165667e+06  -5.504790e+05
   1.392829e+06   5.235748e+05
   4.545403e+05   1.299818e+06
  -7.225972e+05   9.697954e+05
  -1.064783e+06  -2.345448e+04
  -3.645098e+05  -5.529323e+05
   5.303612e+05  -8.219342e+04
   5.431783e+05   8.100651e+05
  -5.074909e+05   1.104148e+06
  -1.620502e+06   3.678774e+05
  -1.590888e+06  -8.703686e+05
  -3.076317e+05  -1.625619e+06
   1.076239e+06  -1.313711e+06
   1.349478e+06  -2.458656e+05
   4.788818e+05   6.534305e+05
  -4.847102e+05   6.929853e+05
  -6.101106e+05   4.842685e+04
   1.265579e+04  -4.799093e+05
   5.517102e+05  -3.588488e+05
   4.032176e+05   1.135725e+05
  -2.111899e+05   2.105803e+05
  -5.183783e+05  -3.245930e+05
   4.993684e+03  -9.212904e+05
   1.049531e+06  -7.694586e+05
   1.671571e+06   2.950112e+05
   1.171166e+06   1.543458e+06
  -1.731884e+05   1.989755e+06
  -1.326131e+06   1.282072e+06
  -1.507826e+06   9.291153e+03
  -9.055725e+05  -8.562082e+05
  -3.176757e+05  -8.484638e+05
  -2.125835e+05  -3.704626e+05
  -3.072322e+05  -1.703582e+05
  -5.210303e+04  -4.826871e+05
   6.373656e+05  -7.711401e+05
   1.212377e+06  -3.796245e+05
   1.003444e+06   6.199691e+05
  -1.008044e+05   1.355602e+06
  -1.410796e+06   9.983248e+05
  -1.891044e+06  -3.497958e+05
  -1.024801e+06  -1.663072e+06
   6.522373e+05  -1.907011e+06
   1.935662e+06  -9.570430e+05
   1.985242e+06   3.572756e+05
   1.013948e+06   1.077346e+06
  -4.067935e+04   9.709772e+05
  -4.614045e+05   5.967244e+05
  -3.222200e+05   5.783749e+05
  -2.056173e+05   8.909046e+05
  -4.916002e+05   9.212464e+05
  -9.608920e+05   2.210833e+05
  -1.042241e+06  -8.886189e+05
  -4.286708e+05  -1.542253e+06
   5.270459e+05  -1.162146e+06
   1.058359e+06  -3.167313e+04
   7.067951e+05   9.617334e+05
  -1.881817e+05   1.120325e+06
  -7.986231e+05   4.830212e+05
  -6.461439e+05  -3.328820e+05
  -6.440453e+04  -7.463851e+05
   2.334970e+05  -6.670138e+05
  -1.076161e+04  -4.199695e+05
  -3.124654e+05  -3.142362e+05
  -2.427753e+04  -3.279382e+05
   8.598917e+05  -2.002805e+05
   1.573132e+06   2.216679e+05
   1.309766e+06   7.681364e+05
   9.585711e+04   1.071098e+06
  -1.138354e+06   8.862691e+05
  -1.431297e+06   3.176854e+05
  -7.254635e+05  -2.358547e+05
   1.425937e+05  -3.855265e+05
   3.718317e+05  -9.684363e+04
  -2.162896e+04   2.402502e+05
  -4.099357e+05   1.777742e+05
  -3.694280e+05  -2.796025e+05
  -8.175632e+04  -6.163045e+05
   3.734299e+04  -3.924535e+05
  -1.278429e+05   1.606185e+05
  -3.243993e+05   3.381967e+05
  -2.484950e+05  -1.758752e+05
   1.762541e+05  -8.401524e+05
   7.241434e+05  -8.411531e+05
   9.605030e+05  -6.445708e+04
   5.473392e+05   7.430021e+05
  -3.352258e+05   8.098900e+05
  -9.347134e+05   1.572989e+05
  -5.735646e+05  -5.046632e+05
   5.400718e+05  -5.511688e+05
   1.346514e+06   1.298965e+04
   9.797191e+05   6.761419e+05
  -2.791718e+05   9.093292e+05
  -1.259415e+06   5.582380e+05
  -1.117418e+06  -7.111615e+04
  -1.703985e+05  -4.502889e+05
   5.177119e+05  -2.767795e+05
   2.751539e+05   2.016083e+05
  -5.325643e+05   3.636893e+05
  -9.492991e+05  -1.593511e+05
  -4.323203e+05  -1.008066e+06
   6.151798e+05  -1.335991e+06
   1.274881e+06  -6.321278e+05
   1.015595e+06   6.728589e+05
   1.372522e+05   1.498507e+06
  -6.213184e+05   1.122340e+06
  -7.858488e+05  -7.789341e+04
  -4.264087e+05  -9.773275e+05
   9.127412e+04  -8.576388e+05
   4.366889e+05  -1.093942e+05
   4.527294e+05   3.339414e+05
   2.114610e+05   1.435625e+05
   1.145697e+04  -1.040614e+05
   1.185276e+05   1.856296e+05
   3.729045e+05   7.740271e+05
   2.451079e+05   9.123817e+05
  -4.835490e+05   3.440496e+05
  -1.229200e+06  -3.960291e+05
  -1.140239e+06  -7.018761e+05
  -1.604340e+05  -5.587270e+05
   7.832154e+05  -3.273610e+05
   8.432991e+05  -1.720851e+05
   2.341056e+05  -3.348782e+03
  -1.513788e+05   1.748508e+05
   5.779451e+04   2.184223e+05
   3.114720e+05   1.373104e+05
   2.425927e+03   1.146737e+05
  -6.483039e+05   1.449304e+05
  -8.464861e+05  -5.139563e+04
  -2.068139e+05  -5.515917e+05
   7.949653e+05  -8.936914e+05
   1.338084e+06  -5.302708e+05
   1.032219e+06   4.222639e+05
   1.673772e+05   1.172836e+06
  -6.228825e+05   1.087831e+06
  -8.645332e+05   3.625393e+05
  -5.457371e+05  -2.535678e+05
  -6.412991e+04  -2.929217e+05
   1.367928e+05   5.290447e+03
  -3.989516e+04   7.701191e+04
  -2.857713e+05  -2.803902e+05
  -2.277312e+05  -6.684006e+05
   1.757367e+05  -5.337049e+05
   5.718763e+05   1.727241e+05
   5.336690e+05   8.499125e+05
  -2.054416e+04   8.329908e+05
  -6.707638e+05   1.029650e+05
  -8.038650e+05  -6.858436e+05
  -2.101493e+05  -8.915753e+05
   6.071548e+05  -4.783394e+05
   8.716492e+05   1.033892e+05
   3.787656e+05   4.499388e+05
  -2.373462e+05   4.729101e+05
  -2.459479e+05   2.797867e+05
   2.785712e+05   4.526204e+04
   5.530814e+05  -7.566305e+03
   8.877883e+04   2.386076e+05
  -6.887276e+05   5.531316e+05
  -9.777499e+05   4.829371e+05
  -5.471711e+05  -9.367000e+04
   9.951249e+04  -6.794188e+05
   3.980434e+05  -6.635109e+05
   2.718443e+05  -7.299464e+04
  -6.863403e+03   4.235054e+05
  -2.163758e+05   3.100120e+05
  -2.870188e+05  -1.956754e+05
  -1.867002e+05  -4.798451e+05
   6.662602e+04  -2.852128e+05
   3.150494e+05   7.396940e+04
   3.625536e+05   1.893586e+05
   1.982088e+05   4.019398e+04
   6.971290e+03  -6.791791e+04
  -7.114219e+04   7.505999e+04
  -9.478305e+04   3.297081e+05
  -1.836070e+05   3.674606e+05
  -3.029787e+05   4.499160e+04
  -2.725770e+05  -3.971999e+05
   6.892343e+03  -5.387450e+05
   3.740055e+05  -2.139765e+05
   4.906155e+05   2.855884e+05
   1.600424e+05   5.010006e+05
  -4.017248e+05   2.803054e+05
  -6.791439e+05  -1.084019e+05
  -3.642808e+05  -3.196166e+05
   2.461901e+05  -2.702409e+05
   5.063287e+05  -1.114570e+05
   1.508689e+05  -1.605017e+03
  -3.578381e+05  -1.015157e+04
  -3.584797e+05  -1.387508e+05
   2.075851e+05  -2.780751e+05
   7.155433e+05  -1.996832e+05
