
 $NMID
 id='ANONYMOUS ', fmtdat='(2E16.6)'
 volume=1.0
 tramp=1.0
 $END
  -6.088762e+07  -7.954209e+05
  -3.572369e+07  -3.910145e+07
   9.385758e+06  -4.137002e+07
   3.038826e+07  -1.446243e+07
   1.728710e+07   8.832901e+06
  -4.206665e+06   9.949670e+06
  -1.043247e+07  -2.153336e+06
  -2.222281e+06  -1.068042e+07
   7.226314e+06  -9.323744e+06
   1.035752e+07  -1.476023e+06
   7.229549e+06   6.675702e+06
   7.225259e+05   8.944997e+06
  -4.183263e+06   2.939782e+06
  -2.566779e+06  -5.429498e+06
   4.218916e+06  -6.464909e+06
   8.312965e+06   1.826372e+06
   4.367433e+06   1.099379e+07
  -4.390729e+06   1.244416e+07
  -1.092500e+07   6.155590e+06
  -1.163221e+07  -2.226639e+06
  -7.275723e+06  -8.127374e+06
  -8.087602e+05  -9.624316e+06
   3.516092e+06  -6.810763e+06
   2.706715e+06  -2.730033e+06
  -7.097501e+05  -1.696562e+06
  -4.049540e+05  -3.905506e+06
   5.224674e+06  -4.554641e+06
   9.816247e+06  -6.971488e+05
   7.406340e+06   4.209698e+06
   5.862933e+05   5.338984e+06
  -3.530849e+06   2.922060e+06
  -2.589551e+06   4.472254e+05
   1.163446e+05  -6.054051e+05
   1.761293e+06  -5.826168e+05
   2.137775e+06   1.019222e+06
   1.001889e+06   3.770032e+06
  -1.760175e+06   4.167080e+06
  -3.686401e+06   1.650941e+05
  -2.132512e+06  -3.897935e+06
   8.223104e+05  -2.452162e+06
   5.517945e+05   2.178181e+06
  -2.495777e+06   2.198571e+06
  -2.435034e+06  -3.518950e+06
   2.997685e+06  -6.524785e+06
   7.820052e+06  -8.750943e+05
   5.469359e+06   7.683656e+06
  -2.340476e+06   9.220175e+06
  -8.010305e+06   2.468182e+06
  -7.072641e+06  -4.838133e+06
  -1.582151e+06  -6.273101e+06
   3.695444e+06  -2.561328e+06
   5.231379e+06   1.870662e+06
   2.200226e+06   3.735674e+06
  -2.727819e+06   2.184039e+06
  -4.749444e+06  -1.177886e+06
  -1.918624e+06  -2.988329e+06
   1.879094e+06  -1.405247e+06
   1.687503e+06   1.133808e+06
  -1.619339e+06   7.816683e+05
  -2.563010e+06  -2.258805e+06
   1.069315e+06  -3.901417e+06
   5.307118e+06  -1.869789e+06
   5.666389e+06   1.795382e+06
   2.293272e+06   4.393987e+06
  -1.900320e+06   5.477251e+06
  -5.065484e+06   4.982888e+06
  -6.370756e+06   1.855379e+06
  -4.843305e+06  -3.214700e+06
  -9.831954e+05  -6.362325e+06
   2.124738e+06  -4.811291e+06
   1.977168e+06  -9.715653e+05
   1.540933e+04   5.686902e+05
  -4.169386e+05  -8.937062e+05
   1.304840e+06  -1.970456e+06
   2.735461e+06  -5.277093e+05
   2.107976e+06   1.671874e+06
   2.069250e+05   1.999645e+06
  -1.334782e+06   2.351581e+05
  -1.558837e+06  -1.929781e+06
  -3.632172e+04  -2.861462e+06
   2.741272e+06  -1.739562e+06
   4.611724e+06   1.117616e+06
   3.418115e+06   3.898215e+06
  -2.541132e+04   4.516377e+06
  -2.484239e+06   2.917562e+06
  -2.467128e+06   1.138121e+06
  -1.953386e+06   5.645805e+05
  -2.970574e+06   3.327706e+05
  -4.322909e+06  -9.038572e+05
  -3.398741e+06  -2.844992e+06
  -3.697079e+04  -4.082820e+06
   3.202533e+06  -3.800044e+06
   4.092176e+06  -2.108321e+06
   2.642220e+06   3.299788e+05
   3.755095e+05   2.166587e+06
  -1.009326e+06   1.952851e+06
  -5.692038e+05   3.492598e+03
   1.055701e+06  -1.298127e+06
   1.924215e+06  -3.800633e+05
   9.565806e+05   1.227930e+06
  -4.850478e+05   1.086394e+06
  -3.327793e+05  -4.098562e+05
   1.200443e+06  -5.409078e+05
   1.820164e+06   1.608091e+06
   3.147049e+05   3.668905e+06
  -1.995380e+06   3.214976e+06
  -3.258755e+06   6.994339e+05
  -3.078323e+06  -1.701689e+06
  -1.973758e+06  -2.729359e+06
  -3.290493e+05  -2.476122e+06
   1.209249e+06  -1.405356e+06
   1.530206e+06  -2.270389e+05
   4.848252e+05   5.378280e+04
  -3.352642e+05  -7.533035e+05
   4.688202e+05  -1.354114e+06
   1.965225e+06  -5.398495e+05
   2.026085e+06   9.809872e+05
   3.190113e+05   1.458575e+06
  -1.189079e+06   5.191959e+05
  -8.146036e+05  -4.787013e+05
   8.928101e+05  -4.065822e+05
   2.073380e+06   4.771824e+05
   1.553337e+06   1.383345e+06
  -3.616353e+05   1.847790e+06
  -2.300737e+06   1.508435e+06
  -2.728593e+06   1.884301e+05
  -1.184056e+06  -1.308153e+06
   9.627177e+05  -1.519855e+06
   1.608761e+06  -1.707024e+05
   2.116118e+05   1.106085e+06
  -1.528291e+06   7.102648e+05
  -1.677274e+06  -8.412646e+05
  -2.387237e+05  -1.649544e+06
   1.151923e+06  -8.819956e+05
   1.219249e+06   4.110268e+05
   1.703665e+05   8.040767e+05
  -8.260679e+05   2.519189e+04
  -7.231039e+05  -1.068726e+06
   5.830423e+05  -1.409401e+06
   1.992116e+06  -5.190629e+05
   2.005330e+06   1.068649e+06
   3.384433e+05   2.071440e+06
  -1.482814e+06   1.596999e+06
  -1.722705e+06   1.469473e+05
  -4.522751e+05  -8.840933e+05
   6.835312e+05  -7.633928e+05
   5.920917e+05  -6.439934e+04
  -1.571613e+05   2.910243e+05
  -4.410192e+05   1.281545e+05
  -1.595251e+04  -5.252743e+04
   4.965505e+05   1.740683e+05
   4.671680e+05   7.491018e+05
  -2.824427e+05   1.182595e+06
  -1.405921e+06   8.407085e+05
  -2.049698e+06  -4.641387e+05
  -1.411147e+06  -1.955824e+06
   2.628996e+05  -2.371860e+06
   1.615489e+06  -1.311629e+06
   1.615858e+06   1.984041e+05
   7.527446e+05   8.583136e+05
   2.744232e+05   5.393347e+05
   5.228265e+05   1.570503e+05
   6.820225e+05   3.470048e+05
   8.440914e+04   8.019105e+05
  -9.070833e+05   8.578005e+05
  -1.422668e+06   2.505169e+05
  -9.672080e+05  -7.232626e+05
   3.135697e+05  -1.375530e+06
   1.715378e+06  -9.774164e+05
   2.182157e+06   5.373780e+05
   1.037973e+06   2.107563e+06
  -1.100950e+06   2.316514e+06
  -2.571278e+06   9.239689e+05
  -2.277068e+06  -7.603226e+05
  -8.308380e+05  -1.344255e+06
   2.693649e+05  -8.577813e+05
   3.454121e+05  -4.288187e+05
   1.132682e+03  -7.480071e+05
   8.236785e+04  -1.342488e+06
   7.019740e+05  -1.299961e+06
   1.310905e+06  -3.029974e+05
   1.311619e+06   1.085055e+06
   5.197978e+05   1.874659e+06
  -6.323250e+05   1.404486e+06
  -1.261173e+06  -3.982811e+04
  -7.587244e+05  -1.309210e+06
   4.578094e+05  -1.373452e+06
   1.206764e+06  -3.235398e+05
   7.926710e+05   7.856274e+05
  -1.993286e+05   1.104264e+06
  -6.165289e+05   7.509470e+05
  -1.217145e+05   3.794113e+05
   4.344879e+05   3.230634e+05
   6.080511e+04   3.724121e+05
  -1.162128e+06   1.753845e+05
  -2.063498e+06  -3.826823e+05
  -1.575082e+06  -1.078918e+06
   1.100766e+05  -1.448597e+06
   1.642148e+06  -1.109532e+06
   1.830642e+06  -2.050109e+05
   7.957873e+05   5.642420e+05
  -2.922775e+05   5.846509e+05
  -5.216992e+05  -1.424111e+03
  -4.178704e+04  -4.525125e+05
   4.210225e+05  -2.584094e+05
   4.766426e+05   3.438855e+05
   2.844407e+05   7.034538e+05
   1.305687e+05   4.706151e+05
   1.319437e+05  -5.869508e+04
   2.447100e+05  -2.427784e+05
   2.583443e+05   2.396221e+05
  -1.331778e+05   9.537947e+05
  -9.071799e+05   1.044554e+06
  -1.401592e+06   1.818680e+05
  -8.813757e+05  -9.134890e+05
   4.275253e+05  -1.161662e+06
   1.277982e+06  -3.596629e+05
   7.219580e+05   5.604749e+05
  -7.157822e+05   6.168782e+05
  -1.540887e+06  -1.506186e+05
  -9.086564e+05  -8.816968e+05
   5.438025e+05  -9.236264e+05
   1.470664e+06  -3.728581e+05
   1.164290e+06   2.480206e+05
   9.629664e+04   4.963604e+05
  -6.503782e+05   2.286334e+05
  -3.901983e+05  -3.124877e+05
   5.595775e+05  -5.316277e+05
   1.169928e+06   5.620607e+04
   6.950506e+05   1.151917e+06
  -5.438018e+05   1.691572e+06
  -1.444010e+06   8.925314e+05
  -1.230560e+06  -7.390129e+05
  -1.858544e+05  -1.751723e+06
   7.429581e+05  -1.233171e+06
   8.960116e+05   2.210221e+05
   3.699463e+05   1.181409e+06
  -2.768191e+05   9.208699e+05
  -5.675566e+05   5.390325e+04
  -4.171818e+05  -3.683600e+05
  -1.192595e+05  -1.238709e+05
  -6.408563e+04   8.034684e+04
  -3.278919e+05  -3.220369e+05
  -5.097821e+05  -9.677976e+05
  -1.249743e+05  -1.051676e+06
   7.627055e+05  -3.687511e+05
   1.434484e+06   4.730342e+05
   1.200038e+06   8.367335e+05
   1.672983e+05   6.983349e+05
  -8.014067e+05   4.081355e+05
  -9.528515e+05   1.521607e+05
  -3.889224e+05  -8.199564e+04
   1.287141e+05  -2.251538e+05
   8.685260e+04  -1.750963e+05
  -2.062292e+05  -6.489614e+04
  -7.009898e+04  -1.284815e+05
   5.944505e+05  -2.502877e+05
   1.037749e+06  -2.297297e+01
   5.038311e+05   6.945432e+05
  -7.815460e+05   1.191130e+06
  -1.715484e+06   7.792337e+05
  -1.458841e+06  -3.988549e+05
  -2.895837e+05  -1.376752e+06
   7.750893e+05  -1.371746e+06
   1.037575e+06  -5.663550e+05
   6.378487e+05   1.984867e+05
   1.556187e+05   3.549856e+05
  -2.109087e+04   9.995311e+04
   9.762252e+04   2.261444e+04
   2.682459e+05   3.799159e+05
   2.187566e+05   7.969971e+05
  -1.659681e+05   6.818593e+05
  -6.609447e+05  -8.004586e+04
  -7.642269e+05  -8.997363e+05
  -1.788961e+05  -1.024331e+06
   7.082910e+05  -3.017801e+05
   1.041569e+06   6.567217e+05
   3.836226e+05   1.077318e+06
  -6.930466e+05   7.123958e+05
  -1.131793e+06  -5.491788e+04
  -5.573566e+05  -6.423494e+05
   2.864659e+05  -7.212920e+05
   4.204357e+05  -3.749473e+05
  -1.926799e+05   1.278993e+04
  -6.268995e+05   4.914883e+04
  -1.632363e+05  -3.138603e+05
   8.124884e+05  -6.638099e+05
   1.284662e+06  -4.948503e+05
   8.035020e+05   2.154724e+05
  -8.838736e+04   8.785590e+05
  -5.886450e+05   8.664809e+05
  -4.725838e+05   1.981819e+05
  -8.325578e+04  -4.510684e+05
   2.246850e+05  -4.593899e+05
   3.457911e+05   9.614811e+04
   2.608431e+05   5.665993e+05
  -3.784700e+04   4.656690e+05
  -3.883566e+05  -2.102223e+04
  -4.866782e+05  -3.083885e+05
  -2.396072e+05  -1.240641e+05
   5.823982e+04   1.860938e+05
   8.123042e+04   1.205698e+05
  -8.141256e+04  -3.186556e+05
  -4.853419e+04  -5.978925e+05
   2.841617e+05  -3.067699e+05
   5.202212e+05   3.142689e+05
   2.457990e+05   6.317373e+05
  -3.760560e+05   3.379519e+05
  -6.910185e+05  -2.387403e+05
  -2.803517e+05  -5.445232e+05
   5.131114e+05  -3.714033e+05
   9.013104e+05   4.610395e+04
   4.903979e+05   3.680586e+05
  -2.874078e+05   4.345697e+05
  -6.430452e+05   2.757326e+05
  -2.863433e+05   2.748276e+04
   2.866964e+05  -1.115768e+05
   3.819931e+05   2.959979e+03
  -1.177217e+05   2.559159e+05
  -6.569165e+05   2.774959e+05
