
 $NMID
 id='ANONYMOUS ', fmtdat='(2E16.6)'
 volume=1.0
 tramp=1.0
 $END
  -7.394402e+06   1.413742e+06
  -5.465849e+06  -2.542150e+06
  -8.014609e+05  -4.605796e+06
   2.501207e+06  -3.617068e+06
   2.473982e+06  -8.161733e+05
   4.056451e+05   1.236302e+06
  -1.277868e+06   9.460817e+05
  -1.321779e+06  -8.926517e+05
  -1.141876e+05  -2.028384e+06
   1.140286e+06  -1.169491e+06
   1.398347e+06   6.940777e+05
   5.000533e+05   1.511486e+06
  -6.573761e+05   4.896032e+05
  -8.857370e+05  -1.133466e+06
   6.775923e+04  -1.575241e+06
   1.176909e+06  -3.953278e+05
   1.210411e+06   1.240066e+06
   4.879323e+04   1.888680e+06
  -1.237308e+06   1.161781e+06
  -1.547994e+06  -1.451063e+05
  -8.314952e+05  -9.551537e+05
  -1.896157e+04  -8.783452e+05
   7.952838e+03  -4.241005e+05
  -6.380507e+05  -3.533058e+05
  -9.480200e+05  -8.391266e+05
  -1.417242e+05  -1.304695e+06
   1.323763e+06  -1.093803e+06
   2.083089e+06  -2.044993e+05
   1.330470e+06   7.044343e+05
  -2.232619e+05   9.488115e+05
  -1.087745e+06   3.999718e+05
  -5.869187e+05  -4.351254e+05
   5.465663e+05  -7.953506e+05
   1.132536e+06  -2.803726e+05
   7.740255e+05   6.968270e+05
   1.756226e+04   1.169676e+06
  -4.210117e+05   6.100564e+05
  -3.184784e+05  -3.659480e+05
   4.285332e+04  -6.130918e+05
   2.352445e+05   1.527683e+05
   3.268169e+04   9.475009e+05
  -3.980134e+05   7.350080e+05
  -5.862095e+05  -2.599476e+05
  -1.994443e+05  -8.484964e+05
   4.990007e+05  -3.537975e+05
   7.668417e+05   6.422701e+05
   1.377912e+05   1.078529e+06
  -9.568346e+05   5.740073e+05
  -1.492493e+06  -3.541026e+05
  -8.762413e+05  -9.504665e+05
   3.934771e+05  -8.571313e+05
   1.187685e+06  -2.556558e+05
   8.695543e+05   3.492564e+05
  -1.071105e+05   5.062596e+05
  -7.329849e+05   1.769776e+05
  -4.973422e+05  -2.317707e+05
   1.685584e+05  -2.844040e+05
   4.668358e+05   2.930121e+04
   1.261817e+05   3.209606e+05
  -3.633289e+05   2.532348e+05
  -3.625048e+05  -1.178957e+05
   1.853719e+05  -4.162342e+05
   6.947861e+05  -2.775830e+05
   5.693739e+05   3.327196e+05
  -1.790537e+05   1.004541e+06
  -9.599803e+05   1.129230e+06
  -1.200695e+06   4.512663e+05
  -8.568665e+05  -5.825303e+05
  -3.428325e+05  -1.188177e+06
  -4.392609e+04  -1.041458e+06
   2.620881e+04  -5.733033e+05
   1.149358e+05  -3.739557e+05
   3.841976e+05  -4.655510e+05
   7.219829e+05  -3.742454e+05
   8.458856e+05   1.437445e+05
   5.538418e+05   7.083766e+05
  -6.910709e+04   7.439645e+05
  -6.294422e+05   1.547551e+05
  -6.753575e+05  -5.564460e+05
  -1.056250e+05  -7.949594e+05
   6.476548e+05  -4.107005e+05
   9.617439e+05   2.384022e+05
   6.269797e+05   6.628379e+05
   4.408423e+04   6.607244e+05
  -2.539624e+05   4.226166e+05
  -2.071209e+05   2.749056e+05
  -2.271135e+05   3.318960e+05
  -6.008656e+05   3.917461e+05
  -1.052975e+06   1.629713e+05
  -1.020144e+06  -4.069738e+05
  -3.165419e+05  -1.009890e+06
   5.911190e+05  -1.185897e+06
   1.014549e+06  -7.209067e+05
   7.070905e+05   9.508597e+04
   6.544527e+04   6.429895e+05
  -2.995923e+05   5.233469e+05
  -1.453628e+05  -3.240103e+04
   2.453449e+05  -3.870196e+05
   4.231856e+05  -1.899992e+05
   2.266380e+05   2.422938e+05
  -1.088078e+05   3.357504e+05
  -2.218361e+05  -2.374554e+04
   2.976535e+04  -3.455614e+05
   4.399742e+05  -1.339722e+05
   6.085097e+05   5.090526e+05
   2.654558e+05   9.816011e+05
  -4.532891e+05   8.193697e+05
  -1.036709e+06   1.402047e+05
  -1.008962e+06  -5.213068e+05
  -3.952816e+05  -7.289617e+05
   2.615600e+05  -4.842708e+05
   4.310348e+05  -1.366464e+05
   1.299279e+05  -1.990779e+04
  -1.438744e+05  -1.634203e+05
  -7.400949e+03  -3.186412e+05
   3.762248e+05  -2.454843e+05
   5.212051e+05   3.575297e+04
   2.110239e+05   2.722048e+05
  -2.347861e+05   2.397665e+05
  -3.107926e+05  -3.051258e+04
   1.109185e+05  -2.691391e+05
   6.201960e+05  -2.042186e+05
   6.791147e+05   1.816427e+05
   1.721555e+05   5.941247e+05
  -4.711711e+05   6.594965e+05
  -7.011839e+05   2.840534e+05
  -3.778893e+05  -2.115293e+05
   1.271742e+05  -3.824556e+05
   3.262961e+05  -1.180112e+05
   7.764516e+04   2.388437e+05
  -3.290078e+05   2.720783e+05
  -4.874159e+05  -5.188551e+04
  -2.533126e+05  -3.744216e+05
   1.459227e+05  -3.675953e+05
   3.377608e+05  -8.332932e+04
   1.623149e+05   1.421665e+05
  -1.603660e+05   6.822637e+04
  -2.394770e+05  -2.142792e+05
   7.176773e+04  -3.956004e+05
   4.897205e+05  -2.514612e+05
   5.819111e+05   1.486930e+05
   2.316637e+05   4.956074e+05
  -2.368740e+05   5.079807e+05
  -4.111047e+05   1.893822e+05
  -2.076310e+05  -1.682831e+05
   9.609252e+04  -2.621312e+05
   1.926651e+05  -7.007652e+04
   4.264561e+04   1.519480e+05
  -1.404124e+05   1.655177e+05
  -1.402494e+05   6.720023e+03
   4.147183e+04  -7.977074e+04
   1.854594e+05   5.819901e+04
   7.287397e+04   2.900093e+05
  -2.710980e+05   3.303843e+05
  -5.581285e+05   4.300239e+04
  -5.013981e+05  -3.980977e+05
  -1.094050e+05  -6.521202e+05
   3.155350e+05  -5.215074e+05
   4.799663e+05  -1.314831e+05
   3.653326e+05   1.947237e+05
   1.811296e+05   2.455660e+05
   1.034454e+05   1.071784e+05
   1.087475e+05   3.502909e+04
   5.135997e+04   1.503182e+05
  -1.398334e+05   2.965252e+05
  -3.531968e+05   2.216797e+05
  -3.726669e+05  -1.119656e+05
  -8.406190e+04  -4.392990e+05
   3.655528e+05  -4.359654e+05
   6.330437e+05  -4.588613e+04
   4.647288e+05   4.445683e+05
  -5.091744e+04   6.596516e+05
  -5.370489e+05   4.633052e+05
  -6.609147e+05   5.250703e+04
  -4.147433e+05  -2.544742e+05
  -7.371904e+04  -3.114932e+05
   9.368422e+04  -2.341939e+05
   5.741573e+04  -2.195556e+05
  -2.113341e+03  -3.057301e+05
   8.509055e+04  -3.340199e+05
   2.905315e+05  -1.474804e+05
   4.076517e+05   1.999961e+05
   2.649621e+05   4.595292e+05
  -7.295541e+04   4.167840e+05
  -3.355537e+05   9.848573e+04
  -3.037830e+05  -2.478318e+05
  -3.245002e+04  -3.706209e+05
   2.106519e+05  -2.170864e+05
   2.272742e+05   5.261251e+04
   7.913054e+04   2.281963e+05
  -1.766066e+04   2.269485e+05
   4.108901e+04   1.318334e+05
   1.268239e+05   7.664307e+04
   3.478524e+04   1.038931e+05
  -2.577334e+05   1.325770e+05
  -5.199689e+05   5.549751e+04
  -4.806125e+05  -1.376853e+05
  -1.171354e+05  -3.306328e+05
   2.918490e+05  -3.730397e+05
   4.294428e+05  -2.189182e+05
   2.472521e+05   1.317822e+04
  -1.598254e+04   1.326850e+05
  -1.087623e+05   6.055722e+04
  -8.964462e+03  -7.983000e+04
   1.185779e+05  -9.200459e+04
   1.414408e+05   6.026062e+04
   7.693164e+04   1.951554e+05
   1.978313e+04   1.326706e+05
   2.530426e+04  -6.271708e+04
   7.311791e+04  -1.384380e+05
   9.304107e+04   3.495619e+04
   1.313930e+04   2.853459e+05
  -1.631879e+05   3.282585e+05
  -3.035105e+05   9.449453e+04
  -2.354929e+05  -1.975004e+05
   4.438706e+04  -2.862232e+05
   2.898492e+05  -1.237352e+05
   2.265022e+05   1.156459e+05
  -1.269286e+05   2.203155e+05
  -4.310395e+05   1.087340e+05
  -3.697270e+05  -1.307946e+05
   1.073109e+04  -3.113353e+05
   3.524895e+05  -2.848958e+05
   3.618691e+05  -7.351270e+04
   9.316798e+04   1.284659e+05
  -1.410488e+05   1.315719e+05
  -1.034117e+05  -4.266326e+04
   1.428684e+05  -1.619006e+05
   3.203266e+05  -2.628207e+04
   2.225363e+05   2.915478e+05
  -8.971992e+04   4.832868e+05
  -3.602702e+05   3.093846e+05
  -3.829966e+05  -1.328463e+05
  -1.685006e+05  -4.704926e+05
   1.046407e+05  -4.120679e+05
   2.562598e+05  -4.128020e+04
   2.179101e+05   2.755273e+05
   4.452735e+04   2.797478e+05
  -1.291660e+05   7.060739e+04
  -1.739838e+05  -6.725171e+04
  -8.131375e+04  -2.595420e+04
   5.999115e+03   3.362918e+04
  -5.061563e+04  -5.304410e+04
  -1.826919e+05  -2.187519e+05
  -1.557437e+05  -2.695018e+05
   1.251609e+05  -1.469618e+05
   4.276035e+05   2.486221e+04
   4.248016e+05   1.278780e+05
   9.704355e+04   1.654776e+05
  -2.253897e+05   1.723977e+05
  -2.556525e+05   1.262292e+05
  -7.265207e+04   1.852487e+04
   3.473352e+04  -6.976416e+04
  -3.887507e+04  -6.265692e+04
  -1.138793e+05  -1.530182e+04
  -1.010530e+04  -3.778568e+04
   1.983525e+05  -1.033376e+05
   2.770270e+05  -5.275939e+04
   1.101914e+05   1.649689e+05
  -1.845275e+05   3.555552e+05
  -3.882256e+05   2.778851e+05
  -3.674551e+05  -5.532798e+04
  -1.507079e+05  -3.646130e+05
   1.113861e+05  -3.996349e+05
   2.500926e+05  -1.870682e+05
   1.981624e+05   3.635371e+04
   4.436100e+04   9.013019e+04
  -4.702585e+04   1.198816e+04
   3.900076e+03  -2.746427e+04
   1.142748e+05   6.464405e+04
   1.287156e+05   1.945391e+05
  -1.318552e+04   1.865781e+05
  -2.004570e+05  -8.087355e+03
  -2.435036e+05  -2.316840e+05
  -6.090250e+04  -2.731722e+05
   2.108889e+05  -8.969357e+04
   3.177705e+05   1.561081e+05
   1.403169e+05   2.715278e+05
  -1.584020e+05   2.037504e+05
  -2.893006e+05   3.670304e+04
  -1.561366e+05  -1.147028e+05
   4.018419e+04  -1.705681e+05
   5.593440e+04  -1.074125e+05
  -9.522264e+04   1.092535e+04
  -1.778527e+05   4.856983e+04
  -4.733331e+04  -7.031573e+04
   1.755094e+05  -2.347241e+05
   2.718262e+05  -2.338892e+05
   1.806943e+05  -1.255052e+04
   2.272969e+04   2.267339e+05
  -7.398011e+04   2.433093e+05
  -8.285065e+04   4.236760e+04
  -3.346979e+04  -1.386510e+05
   4.583297e+04  -1.176633e+05
   1.110885e+05   3.980840e+04
   9.954576e+04   1.394219e+05
  -5.454499e+02   9.736958e+04
  -1.085946e+05   1.772226e+03
  -1.301826e+05  -3.154857e+04
  -6.541538e+04   3.722279e+03
   9.720371e+02   2.324106e+04
   1.239434e+04  -3.097820e+04
   2.488995e+03  -1.179720e+05
   3.297724e+04  -1.379157e+05
   9.906519e+04  -3.996553e+04
   1.227582e+05   1.096710e+05
   4.141842e+04   1.787555e+05
  -1.043818e+05   1.006528e+05
  -1.826943e+05  -5.374069e+04
  -9.345254e+04  -1.496333e+05
   1.063895e+05  -1.223182e+05
   2.282666e+05  -1.914099e+04
   1.434165e+05   7.367234e+04
  -5.898458e+04   1.067929e+05
  -1.561159e+05   7.628101e+04
  -4.842901e+04   1.068843e+04
   1.188488e+05  -2.872455e+04
   1.301361e+05   1.465004e+04
  -4.263520e+04   1.094592e+05
  -2.148957e+05   1.271501e+05
