
 $NMID
 id='ANONYMOUS ', fmtdat='(2E16.6)'
 volume=1.0
 tramp=1.0
 $END
   2.439637e+07  -1.427750e+06
   1.727743e+07   1.064184e+07
   9.767431e+05   1.572211e+07
  -1.025346e+07   1.102455e+07
  -9.153687e+06   1.439034e+06
  -8.115806e+05  -4.533236e+06
   5.053527e+06  -2.488201e+06
   4.042551e+06   3.895298e+06
  -9.337484e+05   6.979096e+06
  -4.587508e+06   3.298600e+06
  -4.156053e+06  -3.018903e+06
  -7.137258e+05  -5.160849e+06
   2.318953e+06  -1.170899e+06
   2.034189e+06   4.245875e+06
  -1.295412e+06   5.172143e+06
  -4.189430e+06   6.860235e+05
  -3.349220e+06  -4.742174e+06
   8.082889e+05  -6.256232e+06
   4.558791e+06  -3.183354e+06
   4.830549e+06   1.156555e+06
   2.203268e+06   3.272216e+06
  -1.349994e+05   2.663500e+06
   7.405578e+04   1.531995e+06
   1.895305e+06   1.939286e+06
   2.281141e+06   3.557631e+06
  -5.890337e+05   4.220875e+06
  -4.928698e+06   2.470896e+06
  -6.674587e+06  -7.479946e+05
  -3.746250e+06  -2.996921e+06
   1.281110e+06  -2.686600e+06
   3.604331e+06  -3.977166e+05
   1.363799e+06   1.788296e+06
  -2.491319e+06   1.975531e+06
  -3.820801e+06  -1.277946e+05
  -1.816385e+06  -2.827372e+06
   8.512564e+05  -3.627320e+06
   1.631267e+06  -1.607732e+06
   5.986002e+05   1.212449e+06
  -4.903313e+05   1.710690e+06
  -4.088038e+05  -6.859827e+05
   6.988159e+05  -2.981750e+06
   1.823936e+06  -2.094119e+06
   1.831124e+06   1.204464e+06
   2.756915e+05   3.046842e+06
  -1.804526e+06   1.173315e+06
  -2.286295e+06  -2.347382e+06
  -3.166743e+04  -3.645124e+06
   3.366033e+06  -1.409873e+06
   4.663590e+06   2.076194e+06
   2.261623e+06   3.728958e+06
  -1.891150e+06   2.566901e+06
  -4.112826e+06   1.125091e+04
  -2.661417e+06  -1.786506e+06
   6.597088e+05  -1.671852e+06
   2.541195e+06  -1.792750e+05
   1.544366e+06   1.063908e+06
  -6.987217e+05   8.521119e+05
  -1.517526e+06  -4.277895e+05
  -1.520048e+05  -1.251353e+06
   1.543528e+06  -6.452984e+05
   1.321654e+06   7.746320e+05
  -8.238687e+05   1.496810e+06
  -2.563170e+06   6.072266e+05
  -1.769130e+06  -1.424589e+06
   1.169055e+06  -3.100403e+06
   3.783071e+06  -2.943063e+06
   4.078207e+06  -6.672631e+05
   2.323723e+06   2.334971e+06
   3.441697e+05   3.989481e+06
  -5.393794e+05   3.461725e+06
  -5.700365e+05   1.932353e+06
  -7.841352e+05   1.083701e+06
  -1.632766e+06   1.054734e+06
  -2.518366e+06   5.341167e+05
  -2.477277e+06  -1.118914e+06
  -1.144635e+06  -2.638792e+06
   8.255496e+05  -2.256556e+06
   2.122129e+06   4.907098e+04
   1.706838e+06   2.314725e+06
  -2.584328e+05   2.599536e+06
  -2.317961e+06   8.332438e+05
  -2.852367e+06  -1.382171e+06
  -1.575049e+06  -2.454216e+06
   1.983876e+05  -2.104563e+06
   9.998397e+05  -1.241006e+06
   8.318136e+05  -8.337524e+05
   9.984821e+05  -9.612881e+05
   2.252895e+06  -8.486512e+05
   3.535175e+06   2.251134e+05
   3.004454e+06   2.050184e+06
   2.809050e+05   3.486018e+06
  -2.770269e+06   3.366331e+06
  -3.758732e+06   1.543268e+06
  -2.147816e+06  -8.196383e+05
   2.873085e+05  -2.059516e+06
   1.325939e+06  -1.414705e+06
   4.208488e+05   2.067463e+05
  -1.064908e+06   1.043774e+06
  -1.486947e+06   3.118295e+05
  -5.542764e+05  -9.151801e+05
   5.979611e+05  -9.789142e+05
   7.032312e+05   2.708069e+05
  -3.932346e+05   1.145470e+06
  -1.629203e+06   1.248449e+05
  -1.679501e+06  -2.173705e+06
  -1.042449e+05  -3.497457e+06
   2.184479e+06  -2.373007e+06
   3.528860e+06   3.609167e+05
   2.858669e+06   2.503603e+06
   6.966066e+05   2.666738e+06
  -1.206152e+06   1.349722e+06
  -1.475815e+06   1.092805e+05
  -4.322674e+05  -3.140742e+04
   3.422832e+05   6.323856e+05
  -1.964562e+05   1.038932e+06
  -1.383782e+06   5.355584e+05
  -1.668289e+06  -4.830446e+05
  -4.963996e+05  -1.037442e+06
   9.373060e+05  -6.022567e+05
   9.796718e+05   3.479169e+05
  -5.887172e+05   8.015223e+05
  -2.191082e+06   1.746366e+05
  -2.057810e+06  -1.137672e+06
  -8.342332e+04  -2.068699e+06
   2.030901e+06  -1.770751e+06
   2.473478e+06  -3.909199e+05
   1.070032e+06   9.536075e+05
  -6.698126e+05   1.140629e+06
  -1.126376e+06   1.607165e+05
  -8.294846e+04  -8.096472e+05
   1.252822e+06  -6.347169e+05
   1.539207e+06   5.270091e+05
   5.433462e+05   1.409983e+06
  -7.581404e+05   1.093279e+06
  -1.172259e+06   1.585089e+04
  -4.264959e+05  -5.930400e+05
   5.685311e+05  -1.110203e+05
   6.127492e+05   8.620567e+05
  -5.223334e+05   1.212966e+06
  -1.754338e+06   4.423886e+05
  -1.756636e+06  -9.052935e+05
  -3.820970e+05  -1.763724e+06
   1.134773e+06  -1.466306e+06
   1.468564e+06  -3.109211e+05
   5.486175e+05   7.005491e+05
  -5.069993e+05   7.757033e+05
  -6.699685e+05   7.019308e+04
  -2.475674e+03  -5.324540e+05
   5.999432e+05  -4.124472e+05
   4.543122e+05   1.195731e+05
  -2.222324e+05   2.483091e+05
  -5.809569e+05  -3.330280e+05
  -2.607896e+04  -1.005601e+06
   1.122041e+06  -8.699471e+05
   1.831444e+06   2.748487e+05
   1.319408e+06   1.650956e+06
  -1.359164e+05   2.178749e+06
  -1.417356e+06   1.442648e+06
  -1.655798e+06   5.297130e+04
  -1.019786e+06  -9.226833e+05
  -3.659905e+05  -9.361391e+05
  -2.290543e+05  -4.054927e+05
  -3.302641e+05  -1.701799e+05
  -6.898126e+04  -5.180481e+05
   6.739698e+05  -8.599833e+05
   1.316264e+06  -4.485526e+05
   1.115637e+06   6.558442e+05
  -7.404565e+04   1.491120e+06
  -1.515829e+06   1.131180e+06
  -2.076404e+06  -3.307775e+05
  -1.169387e+06  -1.786819e+06
   6.510584e+05  -2.101381e+06
   2.082839e+06  -1.105906e+06
   2.184849e+06   3.286033e+05
   1.148877e+06   1.152945e+06
  -1.547592e+04   1.073774e+06
  -4.983711e+05   6.701241e+05
  -3.485207e+05   6.337293e+05
  -2.034657e+05   9.679861e+05
  -5.070711e+05   1.014302e+06
  -1.038037e+06   2.672740e+05
  -1.159610e+06  -9.416567e+05
  -5.087946e+05  -1.671876e+06
   5.445911e+05  -1.282739e+06
   1.155802e+06  -6.541382e+04
   8.016409e+05   1.027075e+06
  -1.681244e+05   1.229842e+06
  -8.538144e+05   5.595980e+05
  -7.175130e+05  -3.335665e+05
  -1.011483e+05  -8.091449e+05
   2.264881e+05  -7.394735e+05
  -2.609138e+04  -4.643347e+05
  -3.460811e+05  -3.370232e+05
  -3.268367e+04  -3.578823e+05
   9.300758e+05  -2.434418e+05
   1.717801e+06   1.964992e+05
   1.451080e+06   7.992404e+05
   1.423401e+05   1.163070e+06
  -1.209572e+06   9.984125e+05
  -1.552849e+06   3.917432e+05
  -8.040685e+05  -2.294533e+05
   1.405537e+05  -4.215566e+05
   4.021121e+05  -1.197844e+05
  -1.921203e+04   2.570047e+05
  -4.464109e+05   2.021632e+05
  -4.097327e+05  -2.961267e+05
  -9.767142e+04  -6.710676e+05
   3.689027e+04  -4.281740e+05
  -1.378721e+05   1.825210e+05
  -3.514910e+05   3.810637e+05
  -2.756473e+05  -1.850986e+05
   1.754438e+05  -9.218275e+05
   7.669282e+05  -9.346676e+05
   1.036059e+06  -9.308650e+04
   6.083141e+05   7.941333e+05
  -3.426606e+05   8.860382e+05
  -1.009593e+06   1.906910e+05
  -6.375997e+05  -5.381239e+05
   5.741940e+05  -6.179656e+05
   1.475144e+06  -2.379623e+04
   1.096993e+06   7.138806e+05
  -2.764969e+05   1.008001e+06
  -1.365518e+06   6.515863e+05
  -1.229657e+06  -4.507366e+04
  -2.010605e+05  -4.899137e+05
   5.579214e+05  -3.198249e+05
   3.042711e+05   2.094365e+05
  -5.736582e+05   4.065241e+05
  -1.038086e+06  -1.538642e+05
  -4.912066e+05  -1.090035e+06
   6.438148e+05  -1.470037e+06
   1.378409e+06  -7.174756e+05
   1.125592e+06   7.115982e+05
   1.868254e+05   1.634925e+06
  -6.512116e+05   1.245663e+06
  -8.629129e+05  -6.091107e+04
  -4.957162e+05  -1.057117e+06
   7.231509e+04  -9.439095e+05
   4.726424e+05  -1.337551e+05
   5.070149e+05   3.550379e+05
   2.391386e+05   1.539179e+05
   8.425727e+03  -1.162469e+05
   1.283157e+05   1.942623e+05
   4.254096e+05   8.337194e+05
   2.971946e+05   9.933254e+05
  -5.129785e+05   3.915022e+05
  -1.354248e+06  -4.015059e+05
  -1.269335e+06  -7.391685e+05
  -1.903684e+05  -6.052961e+05
   8.521476e+05  -3.756435e+05
   9.191992e+05  -2.108565e+05
   2.523276e+05  -1.356956e+04
  -1.627066e+05   1.941280e+05
   7.339633e+04   2.418378e+05
   3.485197e+05   1.468872e+05
   2.899681e+03   1.244356e+05
  -7.101139e+05   1.702596e+05
  -9.241787e+05  -3.638418e+04
  -2.309147e+05  -5.936019e+05
   8.505524e+05  -9.906572e+05
   1.442609e+06  -6.091105e+05
   1.129131e+06   4.370041e+05
   2.090887e+05   1.276989e+06
  -6.509259e+05   1.201418e+06
  -9.334323e+05   4.129235e+05
  -6.017918e+05  -2.668003e+05
  -7.462767e+04  -3.170458e+05
   1.536792e+05   7.513294e+03
  -4.074391e+04   8.967322e+04
  -3.222333e+05  -2.977878e+05
  -2.679342e+05  -7.244312e+05
   1.791085e+05  -5.854338e+05
   6.286181e+05   1.784833e+05
   5.992588e+05   9.176040e+05
  -8.124735e+03   9.077207e+05
  -7.320207e+05   1.224389e+05
  -8.913752e+05  -7.339571e+05
  -2.474909e+05  -9.670342e+05
   6.510608e+05  -5.324448e+05
   9.506792e+05   9.251948e+04
   4.220423e+05   4.768469e+05
  -2.456219e+05   5.165708e+05
  -2.561197e+05   3.114185e+05
   3.102562e+05   4.621296e+04
   6.047756e+05  -2.041131e+04
   1.010743e+05   2.568853e+05
  -7.385691e+05   6.216266e+05
  -1.052116e+06   5.565507e+05
  -5.955245e+05  -8.332154e+04
   9.188831e+04  -7.420973e+05
   4.131466e+05  -7.331803e+05
   2.887361e+05  -8.369933e+04
  -6.111397e+02   4.641041e+05
  -2.290396e+05   3.405001e+05
  -3.172461e+05  -2.115774e+05
  -2.146791e+05  -5.193307e+05
   6.602453e+04  -3.082904e+05
   3.450655e+05   7.509451e+04
   3.996523e+05   1.940982e+05
   2.181049e+05   3.609318e+04
   7.427796e+03  -6.987104e+04
  -7.770151e+04   9.152650e+04
  -1.028806e+05   3.637293e+05
  -1.997308e+05   3.980544e+05
  -3.306485e+05   4.693884e+04
  -2.994274e+05  -4.312640e+05
   3.294028e+03  -5.870291e+05
   4.050379e+05  -2.395850e+05
   5.383975e+05   3.024108e+05
   1.837614e+05   5.443652e+05
  -4.301236e+05   3.152633e+05
  -7.405397e+05  -1.034122e+05
  -4.039407e+05  -3.398512e+05
   2.612998e+05  -2.973843e+05
   5.477350e+05  -1.298520e+05
   1.608083e+05  -5.490991e+03
  -3.952667e+05  -7.477360e+03
  -3.956217e+05  -1.486853e+05
   2.249664e+05  -3.108692e+05
   7.835089e+05  -2.334245e+05
