
 $NMID
 id='ANONYMOUS ', fmtdat='(2E16.6)'
 volume=1.0
 tramp=1.0
 $END
   6.219968e+06   1.110756e+06
   3.787379e+06   2.361399e+06
   2.323364e+05   3.257398e+06
  -2.242541e+06   3.210755e+06
  -2.387705e+06   1.388684e+06
  -6.254236e+05  -9.036407e+05
   1.215513e+06  -1.174754e+06
   1.454130e+06   7.705457e+05
   1.418275e+05   2.247188e+06
  -1.154855e+06   1.241647e+06
  -1.160119e+06  -9.587811e+05
  -1.184711e+05  -1.645876e+06
   7.612526e+05  -1.548968e+05
   6.300641e+05   1.654459e+06
  -3.352739e+05   1.845240e+06
  -1.189010e+06   3.468442e+05
  -1.010265e+06  -1.369805e+06
   2.052531e+05  -1.830355e+06
   1.345482e+06  -7.869455e+05
   1.262232e+06   6.366764e+05
   1.737041e+05   1.069610e+06
  -4.730832e+05   3.979639e+05
   2.047073e+05  -1.129657e+05
   1.321149e+06   5.260825e+05
   1.252731e+06   1.675676e+06
  -3.745676e+05   1.888204e+06
  -2.186926e+06   7.581656e+05
  -2.510054e+06  -6.898091e+05
  -1.033189e+06  -1.301156e+06
   9.239520e+05  -8.339502e+05
   1.620455e+06   2.116232e+05
   4.925863e+05   1.090638e+06
  -1.267309e+06   1.074815e+06
  -1.874692e+06  -3.492464e+04
  -8.491394e+05  -1.364204e+06
   5.080121e+05  -1.567329e+06
   7.415810e+05  -4.057712e+05
  -5.302636e+04   7.633644e+05
  -6.183674e+05   5.723389e+05
  -2.825157e+05  -6.631860e+05
   4.059866e+05  -1.410441e+06
   7.089673e+05  -8.538637e+05
   5.701044e+05   2.629932e+05
   2.635742e+05   7.213652e+05
  -9.974473e+04   1.992757e+05
  -3.134264e+05  -6.051209e+05
   6.346255e+04  -8.324434e+05
   1.000653e+06  -2.233842e+05
   1.565950e+06   7.437072e+05
   8.887730e+05   1.278711e+06
  -5.967272e+05   9.639186e+05
  -1.496711e+06   1.365838e+05
  -1.062073e+06  -4.692945e+05
   5.495517e+04  -4.658973e+05
   7.094393e+05  -8.866927e+04
   4.732402e+05   2.049737e+05
  -1.886322e+05   1.845288e+05
  -5.544515e+05  -1.025883e+05
  -2.733317e+05  -4.421519e+05
   3.589264e+05  -5.210482e+05
   6.164564e+05  -1.609909e+05
   1.032092e+05   3.434622e+05
  -6.231011e+05   3.677820e+05
  -5.479495e+05  -3.041640e+05
   5.183230e+05  -1.047245e+06
   1.558188e+06  -1.000920e+06
   1.546381e+06  -5.892642e+04
   6.771067e+05   1.011594e+06
  -3.011679e+04   1.445172e+06
  -9.346835e+04   1.223128e+06
   2.752026e+03   8.708353e+05
  -3.141468e+05   7.270512e+05
  -9.334910e+05   6.000235e+05
  -1.311709e+06   1.162543e+05
  -1.109750e+06  -7.008199e+05
  -3.977509e+05  -1.277603e+06
   4.703974e+05  -1.004156e+06
   9.796526e+05   4.578122e+04
   7.207626e+05   1.017224e+06
  -1.711258e+05   1.063040e+06
  -9.705705e+05   2.124016e+05
  -1.018901e+06  -7.005143e+05
  -4.014348e+05  -9.608770e+05
   2.061492e+05  -6.360245e+05
   3.341740e+05  -2.885640e+05
   1.891361e+05  -2.643050e+05
   3.091929e+05  -4.156861e+05
   8.710364e+05  -3.766084e+05
   1.402529e+06   7.051215e+04
   1.201209e+06   8.117432e+05
   1.023631e+05   1.409548e+06
  -1.170995e+06   1.361969e+06
  -1.588485e+06   5.694090e+05
  -8.607637e+05  -4.328031e+05
   2.157462e+05  -8.845477e+05
   6.107582e+05  -5.331391e+05
   1.426958e+05   1.255758e+05
  -4.771683e+05   3.906227e+05
  -5.664969e+05   7.464146e+04
  -1.498523e+05  -3.655045e+05
   2.703237e+05  -3.683025e+05
   3.027072e+05   1.062047e+05
  -7.870434e+04   4.916246e+05
  -5.927240e+05   1.925653e+05
  -7.756851e+05  -7.097693e+05
  -2.704369e+05  -1.402000e+06
   7.381586e+05  -1.126217e+06
   1.482783e+06  -1.848555e+04
   1.293730e+06   9.878358e+05
   3.398929e+05   1.135293e+06
  -5.112379e+05   5.710711e+05
  -6.155309e+05   3.449753e+04
  -1.722805e+05  -7.646401e+03
   1.269905e+05   2.603885e+05
  -8.936306e+04   3.853758e+05
  -5.265123e+05   1.738586e+05
  -6.184439e+05  -1.880160e+05
  -1.736505e+05  -3.753368e+05
   3.805263e+05  -2.147856e+05
   4.080880e+05   1.587601e+05
  -2.327712e+05   3.714726e+05
  -9.338579e+05   1.280250e+05
  -9.134435e+05  -4.547602e+05
  -7.682474e+04  -8.849311e+05
   8.306832e+05  -7.556114e+05
   1.005176e+06  -1.659026e+05
   4.094216e+05   3.659104e+05
  -2.750240e+05   4.109889e+05
  -4.122615e+05   3.158225e+04
   1.217220e+04  -3.109321e+05
   5.104330e+05  -2.277936e+05
   6.084734e+05   2.094869e+05
   2.318776e+05   5.491120e+05
  -2.741155e+05   4.423355e+05
  -4.532910e+05   2.909221e+04
  -1.671964e+05  -2.149830e+05
   2.308245e+05  -1.804973e+04
   2.341845e+05   3.809289e+05
  -2.485632e+05   5.064082e+05
  -7.446674e+05   1.612758e+05
  -7.145007e+05  -3.926342e+05
  -1.426162e+05  -7.157909e+05
   4.531718e+05  -5.812237e+05
   5.729825e+05  -1.305798e+05
   2.117139e+05   2.627373e+05
  -2.050677e+05   2.989100e+05
  -2.781884e+05   1.424414e+04
  -1.587266e+03  -2.479351e+05
   2.788746e+05  -1.997959e+05
   2.418919e+05   5.663070e+04
  -6.361506e+04   1.479132e+05
  -2.570182e+05  -9.893515e+04
  -3.777674e+04  -4.109554e+05
   4.567981e+05  -3.689449e+05
   7.579994e+05   1.125831e+05
   5.398958e+05   6.829872e+05
  -5.460487e+04   8.981998e+05
  -5.724700e+05   6.084316e+05
  -6.881538e+05   4.995078e+04
  -4.580112e+05  -3.717599e+05
  -1.854459e+05  -4.154825e+05
  -9.012794e+04  -2.015714e+05
  -1.138816e+05  -7.336279e+04
  -3.004942e+04  -2.044077e+05
   2.609022e+05  -3.725552e+05
   5.544837e+05  -2.202738e+05
   5.046346e+05   2.639110e+05
   2.368653e+03   6.464601e+05
  -6.286693e+05   4.979362e+05
  -8.728823e+05  -1.278766e+05
  -4.900066e+05  -7.330181e+05
   2.579346e+05  -8.549363e+05
   8.378563e+05  -4.565098e+05
   8.935987e+05   1.120949e+05
   4.971234e+05   4.577004e+05
   2.031003e+04   4.588966e+05
  -2.126562e+05   3.092610e+05
  -1.786262e+05   2.731058e+05
  -1.096618e+05   3.822798e+05
  -2.098099e+05   3.956466e+05
  -4.184401e+05   9.725762e+04
  -4.705548e+05  -3.945895e+05
  -2.018532e+05  -6.915390e+05
   2.315182e+05  -5.254452e+05
   4.754144e+05  -2.493120e+04
   3.273259e+05   4.151487e+05
  -5.823792e+04   4.965800e+05
  -3.278164e+05   2.363552e+05
  -2.814438e+05  -1.143519e+05
  -5.104658e+04  -3.111470e+05
   7.320213e+04  -2.961466e+05
  -2.325696e+04  -1.924815e+05
  -1.465852e+05  -1.426758e+05
  -1.793574e+04  -1.527967e+05
   3.765031e+05  -1.051696e+05
   7.029109e+05   7.946773e+04
   5.959619e+05   3.257957e+05
   6.010960e+04   4.663308e+05
  -4.904441e+05   3.972681e+05
  -6.270999e+05   1.633758e+05
  -3.235807e+05  -7.767023e+04
   5.482533e+04  -1.635605e+05
   1.584408e+05  -5.584738e+04
  -1.084049e+04   9.850616e+04
  -1.833969e+05   8.762463e+04
  -1.679475e+05  -1.175923e+05
  -3.568586e+04  -2.837009e+05
   2.448799e+04  -1.816879e+05
  -5.287443e+04   8.862922e+04
  -1.543420e+05   1.761252e+05
  -1.269447e+05  -7.749240e+04
   7.054426e+04  -3.982345e+05
   3.238936e+05  -3.920099e+05
   4.288270e+05  -2.453037e+04
   2.424173e+05   3.391010e+05
  -1.481779e+05   3.587736e+05
  -4.164139e+05   6.699328e+04
  -2.651170e+05  -2.240344e+05
   2.293807e+05  -2.569437e+05
   6.087902e+05  -2.437795e+04
   4.696252e+05   2.795770e+05
  -9.289342e+04   4.212240e+05
  -5.566173e+05   2.905933e+05
  -5.146963e+05  -3.208781e+03
  -9.047911e+04  -2.015923e+05
   2.268102e+05  -1.342077e+05
   1.184288e+05   8.854122e+04
  -2.487478e+05   1.658610e+05
  -4.341464e+05  -7.473524e+04
  -1.952949e+05  -4.613575e+05
   2.785182e+05  -6.095078e+05
   5.764003e+05  -2.938137e+05
   4.668888e+05   2.949243e+05
   8.068114e+04   6.774499e+05
  -2.637669e+05   5.221230e+05
  -3.562992e+05  -1.655128e+04
  -2.126114e+05  -4.340993e+05
   2.083351e+04  -3.923817e+05
   1.945146e+05  -5.702589e+04
   2.177726e+05   1.468189e+05
   1.057617e+05   6.369918e+04
  -1.031115e+03  -4.707312e+04
   4.067328e+04   8.300410e+04
   1.702039e+05   3.450900e+05
   1.306252e+05   4.057741e+05
  -2.020181e+05   1.569420e+05
  -5.611043e+05  -1.638412e+05
  -5.336842e+05  -2.991484e+05
  -8.107401e+04  -2.488761e+05
   3.582184e+05  -1.610295e+05
   3.815088e+05  -9.279692e+04
   9.727305e+04  -6.920814e+03
  -6.918311e+04   7.962441e+04
   4.261618e+04   9.797733e+04
   1.573255e+05   6.181876e+04
  -1.672353e+03   5.741341e+04
  -3.066762e+05   7.411603e+04
  -3.846892e+05  -1.974921e+04
  -8.275181e+04  -2.530878e+05
   3.634109e+05  -4.095350e+05
   5.957916e+05  -2.423735e+05
   4.612420e+05   1.912876e+05
   8.526722e+04   5.327858e+05
  -2.700978e+05   4.958167e+05
  -3.930460e+05   1.665072e+05
  -2.554853e+05  -1.164027e+05
  -2.676322e+04  -1.361986e+05
   7.485187e+04   2.868956e+03
  -1.114108e+04   4.121841e+04
  -1.359124e+05  -1.200197e+05
  -1.119470e+05  -2.999611e+05
   8.007295e+04  -2.411069e+05
   2.657892e+05   8.135852e+04
   2.444910e+05   3.901219e+05
  -1.424949e+04   3.798471e+05
  -3.120788e+05   4.510626e+04
  -3.702386e+05  -3.126184e+05
  -9.726442e+04  -4.035092e+05
   2.749561e+05  -2.163780e+05
   3.930491e+05   4.355254e+04
   1.677926e+05   1.976760e+05
  -1.077988e+05   2.087457e+05
  -1.040520e+05   1.226769e+05
   1.359402e+05   1.544496e+04
   2.540545e+05  -9.251151e+03
   3.947720e+04   1.067817e+05
  -3.056746e+05   2.577542e+05
  -4.271595e+05   2.305463e+05
  -2.362500e+05  -3.393840e+04
   4.095157e+04  -3.044496e+05
   1.674891e+05  -2.969660e+05
   1.166425e+05  -2.610403e+04
  -1.469641e+03   1.972085e+05
  -9.849663e+04   1.390786e+05
  -1.360055e+05  -9.276710e+04
  -8.815609e+04  -2.163308e+05
   3.272489e+04  -1.236481e+05
   1.441387e+05   3.434276e+04
   1.601140e+05   7.814446e+04
   8.768861e+04   1.106663e+04
   9.584875e+03  -2.685962e+04
  -2.550862e+04   4.717418e+04
  -4.861663e+04   1.599016e+05
  -9.889271e+04   1.660766e+05
  -1.476207e+05   1.112422e+04
  -1.206797e+05  -1.909223e+05
   1.118497e+04  -2.513847e+05
   1.730749e+05  -9.861631e+04
   2.224297e+05   1.323122e+05
   7.480753e+04   2.309340e+05
  -1.778425e+05   1.287618e+05
  -3.057597e+05  -4.885412e+04
  -1.653052e+05  -1.428729e+05
   1.118594e+05  -1.180557e+05
   2.286649e+05  -4.621006e+04
   6.183234e+04   1.386694e+03
  -1.733518e+05  -5.077672e+03
  -1.698411e+05  -6.723121e+04
   9.669949e+04  -1.354093e+05
   3.335399e+05  -1.009966e+05
