
 $NMID
 id='ANONYMOUS ', fmtdat='(2E16.6)'
 volume=1.0
 tramp=1.0
 $END
  -2.314681e+07   1.169453e+06
  -1.438136e+07  -1.358950e+07
   2.391938e+06  -1.563052e+07
   1.080316e+07  -6.432724e+06
   6.623149e+06   2.496675e+06
  -1.176905e+06   3.767086e+06
  -3.872903e+06  -2.995154e+05
  -1.280308e+06  -3.795376e+06
   2.202820e+06  -3.818156e+06
   3.774880e+06  -1.010563e+06
   3.018288e+06   2.330717e+06
   6.061251e+05   3.481784e+06
  -1.578531e+06   1.256323e+06
  -1.307174e+06  -2.095301e+06
   1.270013e+06  -2.716297e+06
   3.180640e+06   3.575867e+05
   2.044326e+06   4.018109e+06
  -1.250633e+06   4.872774e+06
  -3.999061e+06   2.652696e+06
  -4.518101e+06  -5.999727e+05
  -2.908256e+06  -2.989080e+06
  -4.112411e+05  -3.602870e+06
   1.167043e+06  -2.496621e+06
   7.098936e+05  -9.644761e+05
  -6.370025e+05  -7.004986e+05
  -3.638977e+05  -1.716425e+06
   2.048635e+06  -2.086583e+06
   3.991226e+06  -5.925835e+05
   3.061728e+06   1.483883e+06
   2.720263e+05   2.164355e+06
  -1.487810e+06   1.284535e+06
  -1.131544e+06   1.122132e+05
   8.747371e+04  -5.156134e+05
   9.002981e+05  -4.410606e+05
   1.063834e+06   4.473787e+05
   5.168289e+05   1.646641e+06
  -6.486529e+05   1.685584e+06
  -1.426271e+06  -2.978580e+03
  -8.163134e+05  -1.540026e+06
   3.748251e+05  -8.433326e+05
   3.335766e+05   1.026796e+06
  -8.814676e+05   1.033202e+06
  -1.053673e+06  -1.219218e+06
   8.681489e+05  -2.490844e+06
   2.819274e+06  -4.778118e+05
   2.217475e+06   2.754618e+06
  -6.239199e+05   3.504718e+06
  -2.986203e+06   1.159953e+06
  -2.944149e+06  -1.578951e+06
  -9.366218e+05  -2.337275e+06
   1.281580e+06  -1.194285e+06
   2.129423e+06   4.126033e+05
   1.065493e+06   1.281128e+06
  -9.113124e+05   9.218752e+05
  -1.841613e+06  -2.572650e+05
  -8.438873e+05  -1.038875e+06
   6.639536e+05  -5.952067e+05
   7.264573e+05   3.386592e+05
  -4.837365e+05   3.476213e+05
  -9.631235e+05  -6.636038e+05
   2.513268e+05  -1.343756e+06
   1.844563e+06  -7.983510e+05
   2.136048e+06   4.480939e+05
   1.009946e+06   1.547137e+06
  -5.727055e+05   2.222407e+06
  -1.882789e+06   2.195149e+06
  -2.501763e+06   9.443642e+05
  -2.015425e+06  -1.167471e+06
  -6.073010e+05  -2.510565e+06
   5.822843e+05  -1.969998e+06
   6.165767e+05  -5.070518e+05
  -1.375778e+04   7.491797e+04
  -9.993925e+04  -4.986358e+05
   6.099270e+05  -8.949960e+05
   1.216425e+06  -2.606070e+05
   9.924320e+05   7.091331e+05
   1.556198e+05   9.203585e+05
  -6.248288e+05   2.138789e+05
  -8.149780e+05  -7.386774e+05
  -1.537480e+05  -1.211077e+06
   1.084161e+06  -8.145977e+05
   1.916705e+06   3.235505e+05
   1.463998e+06   1.460993e+06
   9.653602e+04   1.757363e+06
  -8.791168e+05   1.173803e+06
  -8.805492e+05   5.049088e+05
  -6.996394e+05   3.241922e+05
  -1.153410e+06   3.128094e+05
  -1.786671e+06  -1.207771e+05
  -1.534739e+06  -9.658906e+05
  -2.450248e+05  -1.669140e+06
   1.120374e+06  -1.747961e+06
   1.617089e+06  -1.083601e+06
   1.137265e+06   4.378246e+04
   2.392783e+05   9.307498e+05
  -3.649756e+05   8.725877e+05
  -2.446970e+05   1.192961e+04
   3.846051e+05  -5.979818e+05
   7.659520e+05  -2.460424e+05
   4.323007e+05   4.660858e+05
  -1.538323e+05   4.902802e+05
  -1.833609e+05  -1.190439e+05
   3.789505e+05  -2.925197e+05
   7.428731e+05   4.602453e+05
   3.562615e+05   1.340351e+06
  -4.820961e+05   1.366236e+06
  -1.152056e+06   5.430344e+05
  -1.351574e+06  -4.080624e+05
  -1.050703e+06  -9.604970e+05
  -3.300113e+05  -1.017476e+06
   4.289882e+05  -6.654398e+05
   6.380570e+05  -1.784505e+05
   2.034828e+05  -5.080163e+03
  -1.810871e+05  -2.895392e+05
   1.167616e+05  -5.627033e+05
   7.589555e+05  -3.113722e+05
   8.611907e+05   2.795337e+05
   2.098539e+05   5.574599e+05
  -4.487708e+05   2.828396e+05
  -3.778512e+05  -1.324246e+05
   3.054998e+05  -2.349694e+05
   8.727288e+05   2.080595e+04
   7.622227e+05   4.396691e+05
   6.393903e+03   7.910116e+05
  -8.453708e+05   7.812082e+05
  -1.112965e+06   2.451795e+05
  -5.508174e+05  -4.640549e+05
   3.187450e+05  -6.574411e+05
   6.380595e+05  -1.389355e+05
   1.293999e+05   4.434177e+05
  -5.893646e+05   3.717623e+05
  -7.320776e+05  -2.401534e+05
  -2.082727e+05  -6.473967e+05
   3.923512e+05  -4.335818e+05
   5.106834e+05   7.227168e+04
   1.259442e+05   2.987743e+05
  -3.246922e+05   5.104955e+04
  -3.510807e+05  -4.006107e+05
   1.684119e+05  -6.151232e+05
   7.999553e+05  -3.217703e+05
   8.870304e+05   3.338564e+05
   2.538039e+05   8.321112e+05
  -5.140032e+05   7.357376e+05
  -6.922035e+05   1.629570e+05
  -2.407563e+05  -3.277320e+05
   2.294545e+05  -3.549473e+05
   2.521495e+05  -6.932905e+04
  -2.130936e+04   1.394727e+05
  -1.711649e+05   1.120192e+05
  -4.514510e+04   3.076030e+03
   1.738161e+05   3.166532e+04
   2.244207e+05   2.517332e+05
  -3.677853e+04   4.853680e+05
  -5.216768e+05   4.259729e+05
  -8.688374e+05  -7.131640e+04
  -6.916316e+05  -7.259861e+05
  -3.088564e+04  -9.988158e+05
   5.810292e+05  -6.510975e+05
   6.828375e+05  -3.557481e+04
   3.944051e+05   3.042632e+05
   1.816922e+05   2.333340e+05
   2.266969e+05   7.094646e+04
   2.738666e+05   1.155360e+05
   6.534990e+04   3.153259e+05
  -3.147490e+05   4.037463e+05
  -5.663059e+05   2.005067e+05
  -4.598456e+05  -2.321052e+05
   2.370866e+04  -5.939683e+05
   6.419750e+05  -5.171513e+05
   9.361364e+05   8.558859e+04
   5.575965e+05   7.974819e+05
  -3.060988e+05   1.004308e+06
  -9.859038e+05   5.304062e+05
  -9.764582e+05  -1.576180e+05
  -4.444022e+05  -4.839585e+05
   2.931712e+04  -3.783811e+05
   1.147839e+05  -2.297914e+05
  -1.372403e+04  -3.315969e+05
  -1.469535e+04  -5.553103e+05
   2.223531e+05  -5.609655e+05
   5.197462e+05  -1.886443e+05
   6.022405e+05   3.786854e+05
   3.215174e+05   7.484532e+05
  -1.831576e+05   6.195023e+05
  -5.223370e+05   6.130357e+04
  -3.865072e+05  -4.851315e+05
   9.840030e+04  -5.808214e+05
   4.509302e+05  -2.048020e+05
   3.491882e+05   2.570728e+05
  -1.464334e+04   4.395278e+05
  -1.882024e+05   3.296754e+05
  -1.227612e+04   1.645090e+05
   1.984988e+05   1.168268e+05
   4.569446e+04   1.547169e+05
  -4.605310e+05   1.353491e+05
  -8.608596e+05  -4.457070e+04
  -7.064418e+05  -3.483968e+05
  -4.168915e+04  -5.836944e+05
   6.040003e+05  -5.348945e+05
   7.309896e+05  -1.944537e+05
   3.504871e+05   1.659136e+05
  -8.779529e+04   2.441758e+05
  -2.046654e+05   3.218954e+04
  -2.838555e+04  -1.792389e+05
   1.679078e+05  -1.329286e+05
   2.151249e+05   1.173803e+05
   1.483961e+05   2.903263e+05
   6.965968e+04   1.992393e+05
   4.455968e+04  -4.202301e+04
   8.707992e+04  -1.345982e+05
   1.217191e+05   8.047267e+04
  -2.743199e+03   4.124816e+05
  -3.170882e+05   4.812546e+05
  -5.623399e+05   1.331955e+05
  -4.024257e+05  -3.420078e+05
   1.215868e+05  -4.932879e+05
   5.112043e+05  -2.014795e+05
   3.327906e+05   1.969019e+05
  -2.551709e+05   2.960697e+05
  -6.457869e+05   3.892684e+04
  -4.412979e+05  -2.933868e+05
   1.491775e+05  -4.130325e+05
   5.742627e+05  -2.610957e+05
   4.996651e+05   1.484528e+04
   7.827538e+04   1.969908e+05
  -2.489210e+05   1.372568e+05
  -1.717417e+05  -1.066708e+05
   2.134067e+05  -2.517093e+05
   4.960293e+05  -3.271218e+04
   3.468277e+05   4.540390e+05
  -1.477905e+05   7.407636e+05
  -5.634840e+05   4.501571e+05
  -5.573964e+05  -2.422533e+05
  -1.788482e+05  -7.221422e+05
   2.315326e+05  -5.628221e+05
   3.802610e+05   2.936499e+04
   2.301029e+05   4.605875e+05
  -4.462666e+04   3.953041e+05
  -2.251148e+05   5.721167e+04
  -2.048179e+05  -1.235095e+05
  -6.857465e+04  -3.940947e+04
  -1.595128e+04   3.687851e+04
  -1.362729e+05  -1.202242e+05
  -2.607380e+05  -3.745877e+05
  -1.259526e+05  -4.223923e+05
   2.812505e+05  -1.883979e+05
   6.262942e+05   1.123242e+05
   5.581998e+05   2.691695e+05
   1.093426e+05   2.773730e+05
  -3.200037e+05   2.231292e+05
  -3.879724e+05   1.249807e+05
  -1.538703e+05  -1.298133e+04
   4.511465e+04  -1.033101e+05
   1.038638e+04  -7.373953e+04
  -1.067162e+05  -1.126040e+04
  -3.261621e+04  -5.416814e+04
   2.497169e+05  -1.444678e+05
   4.338619e+05  -5.387850e+04
   2.302613e+05   2.738438e+05
  -2.756977e+05   5.428921e+05
  -6.704630e+05   4.057046e+05
  -6.215796e+05  -1.034167e+05
  -1.951102e+05  -5.634629e+05
   2.462285e+05  -6.084784e+05
   4.072198e+05  -2.860592e+05
   2.842523e+05   5.196674e+04
   7.957785e+04   1.433555e+05
  -1.913458e+04   4.470540e+04
   3.138804e+04  -6.349802e+02
   1.354272e+05   1.350673e+05
   1.404314e+05   3.157542e+05
  -3.555258e+04   2.930709e+05
  -2.890052e+05  -2.275381e+03
  -3.685518e+05  -3.460821e+05
  -1.179572e+05  -4.268145e+05
   2.948049e+05  -1.602622e+05
   4.759488e+05   2.293396e+05
   2.119105e+05   4.337656e+05
  -2.584769e+05   3.288813e+05
  -4.723651e+05   3.188371e+04
  -2.552123e+05  -2.348905e+05
   8.740642e+04  -3.059776e+05
   1.475297e+05  -1.694763e+05
  -9.295389e+04   2.074391e+04
  -2.627717e+05   5.589250e+04
  -8.032001e+04  -1.229125e+05
   3.008184e+05  -3.232986e+05
   4.932110e+05  -2.777629e+05
   3.302469e+05   4.609323e+04
   7.436288e+03   3.681233e+05
  -1.923293e+05   3.823047e+05
  -1.824428e+05   9.291353e+04
  -5.792014e+04  -1.923008e+05
   7.496716e+04  -2.002563e+05
   1.578660e+05   2.946937e+04
   1.389681e+05   2.235941e+05
   3.512799e+02   1.902725e+05
  -1.662447e+05   8.336735e+03
  -2.114864e+05  -9.829440e+04
  -1.018463e+05  -3.300804e+04
   2.389965e+04   7.131157e+04
   2.773290e+04   3.132850e+04
  -4.400821e+04  -1.451560e+05
  -2.675715e+04  -2.523245e+05
   1.217193e+05  -1.320835e+05
   2.316922e+05   1.237747e+05
   1.224437e+05   2.655261e+05
  -1.469419e+05   1.611944e+05
  -3.007092e+05  -7.306283e+04
  -1.453899e+05  -2.196524e+05
   1.922669e+05  -1.794685e+05
   3.769404e+05  -2.137212e+04
   2.223848e+05   1.293706e+05
  -1.021086e+05   1.903414e+05
  -2.581855e+05   1.398044e+05
  -1.121579e+05   1.949071e+04
   1.300036e+05  -6.357535e+04
   1.724455e+05  -1.283317e+04
  -3.810630e+04   1.265121e+05
  -2.729708e+05   1.630714e+05
