
 $NMID
 id='ANONYMOUS ', fmtdat='(2E16.6)'
 volume=1.0
 tramp=1.0
 $END
  -1.392196e+07   2.329911e+06
  -1.112056e+07  -4.809569e+06
  -1.985511e+06  -9.172936e+06
   5.446002e+06  -7.532641e+06
   5.762612e+06  -1.661847e+06
   9.253746e+05   2.793020e+06
  -3.103853e+06   1.971800e+06
  -2.874273e+06  -2.211092e+06
   2.088308e+05  -4.520644e+06
   2.694641e+06  -2.374485e+06
   2.629415e+06   1.628899e+06
   6.005696e+05   3.094261e+06
  -1.322155e+06   7.362053e+05
  -1.324074e+06  -2.604839e+06
   6.234700e+05  -3.315634e+06
   2.549159e+06  -6.987094e+05
   2.303203e+06   2.676349e+06
  -1.194626e+05   3.808386e+06
  -2.491164e+06   2.117085e+06
  -2.801039e+06  -4.347402e+05
  -1.352115e+06  -1.680493e+06
  -1.173203e+05  -1.354919e+06
  -3.810263e+05  -8.592467e+05
  -1.429860e+06  -1.330195e+06
  -1.467198e+06  -2.364165e+06
   4.006013e+05  -2.650381e+06
   3.018788e+06  -1.509779e+06
   4.039726e+06   3.943263e+05
   2.266579e+06   1.702129e+06
  -7.886912e+05   1.531052e+06
  -2.196846e+06   1.609756e+05
  -7.465979e+05  -1.177954e+06
   1.708941e+06  -1.242507e+06
   2.478193e+06   1.572358e+05
   1.088801e+06   1.841503e+06
  -5.927600e+05   2.227496e+06
  -9.317723e+05   9.183410e+05
  -2.071402e+05  -7.207215e+05
   3.408925e+05  -9.044439e+05
   1.416590e+05   5.509600e+05
  -5.042761e+05   1.880466e+06
  -1.107889e+06   1.350353e+06
  -1.212936e+06  -6.327172e+05
  -4.441382e+05  -1.882907e+06
   8.874279e+05  -9.613900e+05
   1.497481e+06   1.138880e+06
   3.247899e+05   2.143569e+06
  -1.885959e+06   1.017243e+06
  -2.945921e+06  -1.088560e+06
  -1.561817e+06  -2.256657e+06
   1.104136e+06  -1.691063e+06
   2.611965e+06  -1.463129e+05
   1.773293e+06   1.046129e+06
  -3.043477e+05   1.105354e+06
  -1.555151e+06   2.564658e+05
  -1.027463e+06  -5.702322e+05
   3.693776e+05  -5.573052e+05
   9.766028e+05   2.268444e+05
   1.619045e+05   8.678923e+05
  -1.023618e+06   5.724450e+05
  -1.042921e+06  -4.283300e+05
   3.093711e+05  -1.081607e+06
   1.562028e+06  -6.017880e+05
   1.200299e+06   7.461265e+05
  -6.112831e+05   1.886921e+06
  -2.250334e+06   1.834753e+06
  -2.434770e+06   4.689660e+05
  -1.401979e+06  -1.341301e+06
  -2.898667e+05  -2.395416e+06
   2.100121e+05  -2.183218e+06
   3.206068e+05  -1.309610e+06
   5.750952e+05  -7.332877e+05
   1.116969e+06  -6.152743e+05
   1.592134e+06  -2.513656e+05
   1.506447e+06   7.541491e+05
   6.651390e+05   1.670283e+06
  -5.617356e+05   1.407338e+06
  -1.365458e+06  -5.736199e+04
  -1.084718e+06  -1.474347e+06
   1.531040e+05  -1.622772e+06
   1.411952e+06  -5.143368e+05
   1.725533e+06   8.107292e+05
   9.770270e+05   1.419082e+06
  -4.184667e+04   1.221515e+06
  -5.059212e+05   7.663537e+05
  -4.405069e+05   5.717961e+05
  -5.972618e+05   6.610575e+05
  -1.404419e+06   5.945087e+05
  -2.222714e+06  -6.710600e+04
  -1.918355e+06  -1.230933e+06
  -2.271114e+05  -2.182834e+06
   1.697900e+06  -2.137642e+06
   2.332538e+06  -9.826377e+05
   1.324129e+06   5.106493e+05
  -1.947801e+05   1.276350e+06
  -8.258442e+05   8.673708e+05
  -2.540002e+05  -1.329170e+05
   6.592230e+05  -6.543604e+05
   9.171498e+05  -2.163725e+05
   3.482142e+05   5.489425e+05
  -3.743201e+05   6.134163e+05
  -4.666107e+05  -1.738594e+05
   2.277244e+05  -7.785505e+05
   1.077760e+06  -1.683367e+05
   1.180437e+06   1.344670e+06
   1.654192e+05   2.289490e+06
  -1.375628e+06   1.617652e+06
  -2.293713e+06  -1.658148e+05
  -1.864341e+06  -1.584640e+06
  -4.643096e+05  -1.700517e+06
   7.521196e+05  -8.568050e+05
   9.251958e+05  -7.381078e+04
   2.715535e+05   1.485085e+04
  -2.241418e+05  -3.927994e+05
   9.640218e+04  -6.532029e+05
   8.465236e+05  -3.650145e+05
   1.057913e+06   2.632599e+05
   3.405860e+05   6.410957e+05
  -5.813290e+05   3.978432e+05
  -6.327619e+05  -2.143711e+05
   3.671115e+05  -5.370389e+05
   1.409573e+06  -1.470487e+05
   1.336014e+06   7.130106e+05
   7.615116e+04   1.330367e+06
  -1.269978e+06   1.149976e+06
  -1.555907e+06   2.776213e+05
  -6.878130e+05  -5.777435e+05
   3.920636e+05  -7.177133e+05
   6.898821e+05  -1.229592e+05
   6.109376e+04   4.944421e+05
  -7.738441e+05   4.138698e+05
  -9.797870e+05  -3.065467e+05
  -3.717715e+05  -8.876675e+05
   4.633563e+05  -7.168250e+05
   7.527778e+05  -3.598741e+04
   2.905925e+05   3.722351e+05
  -3.507514e+05   8.597161e+04
  -3.945950e+05  -5.285239e+05
   3.136086e+05  -7.630408e+05
   1.092861e+06  -2.942576e+05
   1.109507e+06   5.466228e+05
   2.632441e+05   1.100227e+06
  -6.895213e+05   9.383381e+05
  -9.204636e+05   2.196184e+05
  -3.603916e+05  -4.352171e+05
   3.091883e+05  -4.993363e+05
   4.267071e+05  -4.553865e+04
   3.605716e+03   3.523765e+05
  -3.928949e+05   2.712329e+05
  -3.044934e+05  -9.017464e+04
   1.408429e+05  -1.854424e+05
   3.873735e+05   1.926465e+05
   4.144684e+04   6.374033e+05
  -6.923277e+05   5.664906e+05
  -1.155151e+06  -1.477705e+05
  -8.488204e+05  -1.019102e+06
   6.186020e+04  -1.372683e+06
   8.830708e+05  -9.311128e+05
   1.055409e+06  -5.199093e+04
   6.581885e+05   5.886970e+05
   2.268141e+05   6.091160e+05
   1.259595e+05   2.555084e+05
   2.003406e+05   8.609200e+04
   5.538202e+04   3.137750e+05
  -4.105521e+05   5.545659e+05
  -8.303612e+05   3.028988e+05
  -7.167076e+05  -4.095379e+05
   3.172912e+04  -9.547978e+05
   9.472155e+05  -7.362455e+05
   1.315504e+06   1.846871e+05
   7.650071e+05   1.112583e+06
  -3.729114e+05   1.336745e+06
  -1.294485e+06   7.342428e+05
  -1.392223e+06  -1.738664e+05
  -7.519992e+05  -7.242966e+05
   1.599316e+02  -6.960151e+05
   3.256209e+05  -4.312096e+05
   2.276517e+05  -3.856362e+05
   1.158337e+05  -5.923331e+05
   2.967424e+05  -6.376559e+05
   6.412202e+05  -1.821646e+05
   7.359024e+05   5.770406e+05
   3.369629e+05   1.044049e+06
  -3.290238e+05   8.109305e+05
  -7.287196e+05   5.579415e+04
  -5.233797e+05  -6.335699e+05
   8.209676e+04  -7.812488e+05
   5.289412e+05  -3.801936e+05
   4.670053e+05   1.846951e+05
   9.124618e+04   5.078925e+05
  -1.217761e+05   4.809825e+05
   2.247493e+04   3.017624e+05
   2.160614e+05   2.084315e+05
   2.192081e+04   2.241164e+05
  -5.781969e+05   1.696696e+05
  -1.077249e+06  -9.475283e+04
  -9.249919e+05  -4.804372e+05
  -1.169299e+05  -7.300826e+05
   7.360054e+05  -6.471523e+05
   9.729590e+05  -2.733657e+05
   5.207995e+05   1.263994e+05
  -7.436250e+04   2.650916e+05
  -2.521860e+05   8.714165e+04
   6.758148e+03  -1.517658e+05
   2.799240e+05  -1.266707e+05
   2.589902e+05   1.804317e+05
   5.834709e+04   4.154222e+05
  -2.675746e+04   2.630759e+05
   9.042066e+04  -1.211245e+05
   2.290540e+05  -2.450385e+05
   1.777280e+05   1.133432e+05
  -1.062386e+05   5.801510e+05
  -4.691874e+05   5.946219e+05
  -6.349413e+05   7.329195e+04
  -3.808723e+05  -4.836351e+05
   1.984181e+05  -5.524352e+05
   6.191357e+05  -1.278235e+05
   4.026739e+05   3.324690e+05
  -3.531292e+05   3.981958e+05
  -9.344318e+05   3.285147e+04
  -7.104352e+05  -4.438882e+05
   1.603784e+05  -6.507006e+05
   8.636203e+05  -4.345601e+05
   7.864846e+05   1.513594e+04
   1.344064e+05   3.115639e+05
  -3.497419e+05   2.121485e+05
  -1.931840e+05  -1.232484e+05
   3.563744e+05  -2.540844e+05
   6.474527e+05   9.114594e+04
   3.095298e+05   6.760736e+05
  -3.952989e+05   9.188959e+05
  -8.577397e+05   4.552725e+05
  -7.110599e+05  -4.384706e+05
  -1.309176e+05  -1.026383e+06
   4.008653e+05  -7.938394e+05
   5.492796e+05   2.566993e+04
   3.285516e+05   6.637582e+05
  -3.239183e+04   6.045033e+05
  -2.963700e+05   9.382547e+04
  -3.265169e+05  -2.238915e+05
  -1.560651e+05  -1.012957e+05
  -3.539992e+03   7.689852e+04
  -7.786685e+04  -1.096493e+05
  -2.741564e+05  -5.155363e+05
  -2.025244e+05  -6.290698e+05
   3.118226e+05  -2.595558e+05
   8.563804e+05   2.403368e+05
   8.119402e+05   4.579860e+05
   1.277132e+05   3.779307e+05
  -5.371313e+05   2.387203e+05
  -5.798554e+05   1.418788e+05
  -1.566153e+05   1.875569e+04
   1.021380e+05  -1.209673e+05
  -5.228799e+04  -1.606332e+05
  -2.242783e+05  -9.919941e+04
   1.795212e+02  -7.608551e+04
   4.497420e+05  -1.040402e+05
   5.776988e+05   1.557595e+04
   1.407486e+05   3.599163e+05
  -5.278536e+05   6.192482e+05
  -8.900812e+05   3.945155e+05
  -6.998679e+05  -2.601671e+05
  -1.389621e+05  -7.981887e+05
   3.932475e+05  -7.591443e+05
   5.774251e+05  -2.628566e+05
   3.776371e+05   1.668550e+05
   4.672027e+04   1.954023e+05
  -9.913357e+04  -1.304919e+04
   2.660620e+04  -6.365145e+04
   2.102871e+05   1.845703e+05
   1.778189e+05   4.545915e+05
  -1.071815e+05   3.661329e+05
  -3.932510e+05  -1.124014e+05
  -3.757541e+05  -5.713654e+05
   4.279068e+03  -5.618757e+05
   4.565235e+05  -7.275236e+04
   5.577828e+05   4.568411e+05
   1.594597e+05   5.999009e+05
  -4.002503e+05   3.334540e+05
  -5.917425e+05  -4.863075e+04
  -2.689766e+05  -2.870177e+05
   1.434756e+05  -3.201356e+05
   1.507649e+05  -2.009919e+05
  -1.992051e+05  -3.408221e+04
  -3.798389e+05   1.572911e+04
  -6.449084e+04  -1.570630e+05
   4.583759e+05  -3.972996e+05
   6.534374e+05  -3.678328e+05
   3.720535e+05   3.654742e+04
  -4.947155e+04   4.631222e+05
  -2.447492e+05   4.654947e+05
  -1.699994e+05   5.577383e+04
   1.925741e+03  -2.907661e+05
   1.388830e+05  -2.109796e+05
   1.963007e+05   1.358857e+05
   1.380306e+05   3.231536e+05
  -3.584215e+04   1.872760e+05
  -2.146046e+05  -4.639896e+04
  -2.535906e+05  -1.124820e+05
  -1.399997e+05  -1.706568e+04
  -3.162239e+03   3.690004e+04
   5.567090e+04  -6.751123e+04
   7.249111e+04  -2.259082e+05
   1.278597e+05  -2.353315e+05
   2.016729e+05  -1.861500e+04
   1.778907e+05   2.682176e+05
  -8.113787e+03   3.602662e+05
  -2.523495e+05   1.482657e+05
  -3.328688e+05  -1.855469e+05
  -1.148627e+05  -3.394381e+05
   2.643775e+05  -2.018574e+05
   4.593077e+05   5.822382e+04
   2.541786e+05   2.082341e+05
  -1.575762e+05   1.841942e+05
  -3.360899e+05   8.193501e+04
  -9.533017e+04   7.667295e+03
   2.503038e+05   1.142175e+04
   2.462657e+05   9.852141e+04
  -1.468988e+05   1.962672e+05
  -4.974932e+05   1.454507e+05
