
 $NMID
 id='ANONYMOUS ', fmtdat='(2E16.6)'
 volume=1.0
 tramp=1.0
 $END
  -3.435246e+07   1.130804e+06
  -2.269422e+07  -1.763765e+07
   1.168942e+06  -2.254820e+07
   1.538958e+07  -1.269202e+07
   1.161081e+07   6.227102e+05
  -1.988615e+05   6.053593e+06
  -6.596098e+06   1.709432e+06
  -3.988394e+06  -5.645347e+06
   2.319921e+06  -8.048807e+06
   6.181194e+06  -3.194489e+06
   5.183399e+06   4.040859e+06
   8.076259e+05   6.408221e+06
  -2.918134e+06   1.665973e+06
  -2.361112e+06  -4.842472e+06
   1.990069e+06  -5.885355e+06
   5.414954e+06  -2.202251e+05
   3.868177e+06   6.466063e+06
  -1.619032e+06   8.111791e+06
  -6.303379e+06   4.109312e+06
  -6.718580e+06  -1.470436e+06
  -3.498852e+06  -4.605484e+06
  -4.829326e+04  -4.406907e+06
   7.148614e+05  -2.785614e+06
  -1.069898e+06  -2.222793e+06
  -2.182608e+06  -3.413358e+06
   3.709207e+05  -4.518360e+06
   5.390105e+06  -3.186858e+06
   7.935341e+06   4.390442e+05
   4.883098e+06   3.493166e+06
  -9.699211e+05   3.516295e+06
  -3.903779e+06   1.021404e+06
  -1.779454e+06  -1.444697e+06
   2.152878e+06  -1.885633e+06
   3.697530e+06  -7.172202e+04
   2.078992e+06   2.650544e+06
  -4.805208e+05   3.979956e+06
  -1.792152e+06   2.314595e+06
  -1.340832e+06  -1.026803e+06
  -4.494834e+04  -2.351377e+06
   5.593756e+05   5.798693e+04
  -4.462038e+05   3.071685e+06
  -2.098695e+06   2.308812e+06
  -2.115150e+06  -1.792453e+06
   3.997318e+05  -4.037723e+06
   3.250433e+06  -1.192631e+06
   3.167532e+06   3.698458e+06
  -4.716276e+05   5.150869e+06
  -4.648779e+06   1.770804e+06
  -5.586923e+06  -2.811341e+06
  -2.331066e+06  -4.564865e+06
   2.413720e+06  -2.791268e+06
   4.689649e+06   3.577831e+05
   2.790722e+06   2.327919e+06
  -1.152019e+06   1.918286e+06
  -3.225537e+06  -8.681259e+04
  -1.754185e+06  -1.558169e+06
   1.009594e+06  -1.045047e+06
   1.681980e+06   6.021557e+05
  -2.055866e+05   1.242315e+06
  -1.871086e+06   7.758961e+04
  -9.017042e+05  -1.492877e+06
   1.854319e+06  -1.687305e+06
   3.431710e+06  -1.461597e+05
   2.029968e+06   2.172542e+06
  -1.403218e+06   3.885022e+06
  -4.354902e+06   3.668158e+06
  -4.916268e+06   1.015147e+06
  -3.087464e+06  -2.709146e+06
  -5.431341e+05  -4.838630e+06
   8.985595e+05  -4.040642e+06
   8.959187e+05  -1.881298e+06
   6.586789e+05  -8.269102e+05
   1.308598e+06  -1.139060e+06
   2.467004e+06  -9.288101e+05
   2.763956e+06   8.266374e+05
   1.486185e+06   2.642307e+06
  -6.434583e+05   2.405571e+06
  -2.131601e+06   3.709500e+04
  -1.846285e+06  -2.405258e+06
   1.884007e+05  -2.879138e+06
   2.600269e+06  -1.123952e+06
   3.490919e+06   1.418015e+06
   2.126917e+06   2.966006e+06
  -1.673943e+05   2.807942e+06
  -1.401324e+06   1.711835e+06
  -1.248498e+06   9.694656e+05
  -1.275868e+06   9.613957e+05
  -2.584535e+06   8.296544e+05
  -4.000718e+06  -3.547814e+05
  -3.360364e+06  -2.361844e+06
  -2.881766e+05  -3.902877e+06
   3.059388e+06  -3.771906e+06
   4.131074e+06  -1.836442e+06
   2.447475e+06   7.604767e+05
  -1.443110e+05   2.262654e+06
  -1.355663e+06   1.666741e+06
  -4.923916e+05  -1.753355e+05
   1.142177e+06  -1.199200e+06
   1.704330e+06  -3.667270e+05
   6.966955e+05   1.056681e+06
  -6.142341e+05   1.091864e+06
  -6.847788e+05  -3.143465e+05
   5.856230e+05  -1.110644e+06
   1.796747e+06   2.236933e+05
   1.539752e+06   2.653776e+06
  -3.024475e+05   3.715398e+06
  -2.564086e+06   2.226285e+06
  -3.721770e+06  -6.397047e+05
  -2.932060e+06  -2.724140e+06
  -7.065671e+05  -2.838046e+06
   1.292267e+06  -1.488232e+06
   1.610296e+06  -1.602294e+05
   4.798604e+05   3.445133e+04
  -3.762014e+05  -7.079869e+05
   2.621760e+05  -1.195769e+06
   1.620649e+06  -5.940011e+05
   1.889069e+06   6.154932e+05
   5.086146e+05   1.210401e+06
  -1.064252e+06   6.445893e+05
  -1.030181e+06  -3.936826e+05
   6.921829e+05  -7.887803e+05
   2.343341e+06  -7.421716e+04
   2.132404e+06   1.259541e+06
   1.886415e+04   2.190486e+06
  -2.237738e+06   1.883786e+06
  -2.730330e+06   4.062224e+05
  -1.193005e+06  -1.099388e+06
   7.792200e+05  -1.324693e+06
   1.324186e+06  -1.860260e+05
   1.253460e+05   9.423173e+05
  -1.411251e+06   7.172832e+05
  -1.702631e+06  -6.229779e+05
  -5.370766e+05  -1.572682e+06
   8.942726e+05  -1.145430e+06
   1.278677e+06   6.304012e+04
   4.121617e+05   6.832751e+05
  -6.710612e+05   1.076426e+05
  -6.978381e+05  -9.725269e+05
   5.656242e+05  -1.363410e+06
   1.948041e+06  -5.156332e+05
   1.967392e+06   9.974877e+05
   4.231362e+05   1.973676e+06
  -1.289563e+06   1.628403e+06
  -1.642371e+06   3.160982e+05
  -5.802613e+05  -7.930555e+05
   5.795564e+05  -8.431407e+05
   7.089838e+05  -8.256432e+04
  -2.419548e+04   5.244539e+05
  -6.094346e+05   3.937070e+05
  -3.993730e+05  -1.071285e+05
   2.946697e+05  -1.787385e+05
   6.062888e+05   4.433214e+05
  -2.770841e+04   1.125807e+06
  -1.266900e+06   9.478596e+05
  -2.034066e+06  -3.187050e+05
  -1.467106e+06  -1.840325e+06
   1.509910e+05  -2.403610e+06
   1.561860e+06  -1.549765e+06
   1.783456e+06  -2.169081e+04
   1.057358e+06   9.728575e+05
   3.889160e+05   9.233825e+05
   3.176698e+05   3.840003e+05
   4.352759e+05   2.203443e+05
   8.280505e+04   6.216736e+05
  -7.704236e+05   9.375804e+05
  -1.442431e+06   4.579235e+05
  -1.183512e+06  -7.109635e+05
   1.141277e+05  -1.589791e+06
   1.671478e+06  -1.208877e+06
   2.275511e+06   3.796353e+05
   1.257720e+06   1.991733e+06
  -7.800113e+05   2.329234e+06
  -2.349546e+06   1.180394e+06
  -2.389238e+06  -4.254416e+05
  -1.188038e+06  -1.276387e+06
   5.864801e+04  -1.115636e+06
   4.979778e+05  -6.801218e+05
   2.955418e+05  -7.170800e+05
   1.850094e+05  -1.133018e+06
   5.816312e+05  -1.165889e+06
   1.181172e+06  -3.079014e+05
   1.299611e+06   1.038994e+06
   5.718388e+05   1.849951e+06
  -5.951806e+05   1.422265e+06
  -1.274229e+06   6.074928e+04
  -8.698725e+05  -1.164853e+06
   2.316793e+05  -1.364443e+06
   9.943734e+05  -5.633537e+05
   7.956139e+05   4.515980e+05
   5.239133e+04   9.383018e+05
  -3.216210e+05   8.047417e+05
   1.747155e+03   4.838266e+05
   3.978771e+05   3.584095e+05
   4.553334e+04   3.904280e+05
  -1.054774e+06   2.586210e+05
  -1.937495e+06  -2.349778e+05
  -1.607152e+06  -9.105768e+05
  -1.116842e+05  -1.319628e+06
   1.393527e+06  -1.117981e+06
   1.737714e+06  -4.003763e+05
   8.707581e+05   3.121460e+05
  -1.810318e+05   4.930481e+05
  -4.596763e+05   1.075960e+05
   5.551878e+03  -3.210342e+05
   4.760241e+05  -2.360800e+05
   4.613805e+05   3.268547e+05
   1.536100e+05   7.335892e+05
   9.132575e+02   4.741748e+05
   1.453823e+05  -1.724475e+05
   3.526505e+05  -3.875072e+05
   2.968364e+05   2.087231e+05
  -1.702818e+05   1.007600e+06
  -8.508369e+05   1.044822e+06
  -1.200932e+06   1.307456e+05
  -7.268673e+05  -8.803022e+05
   3.805768e+05  -1.023272e+06
   1.150401e+06  -2.535996e+05
   7.149954e+05   5.809805e+05
  -6.458049e+05   6.751387e+05
  -1.611440e+06   4.323017e+03
  -1.155061e+06  -7.966173e+05
   3.457365e+05  -1.075794e+06
   1.493749e+06  -6.605742e+05
   1.317852e+06   7.860341e+04
   2.006663e+05   5.295424e+05
  -6.206600e+05   3.327775e+05
  -3.504031e+05  -2.461751e+05
   6.143592e+05  -4.742284e+05
   1.155507e+06   1.342652e+05
   5.884782e+05   1.189686e+06
  -6.601977e+05   1.648352e+06
  -1.500252e+06   8.304686e+05
  -1.250097e+06  -7.646964e+05
  -2.201062e+05  -1.794518e+06
   7.113464e+05  -1.353876e+06
   9.421842e+05   9.102768e+04
   5.213859e+05   1.166198e+06
  -1.118164e+05   1.017877e+06
  -5.308500e+05   1.327494e+05
  -5.339324e+05  -3.814768e+05
  -2.350807e+05  -1.571636e+05
  -1.980096e+04   1.180620e+05
  -1.840110e+05  -2.374225e+05
  -4.881078e+05  -9.279289e+05
  -2.956479e+05  -1.085005e+06
   6.054261e+05  -4.241432e+05
   1.488921e+06   4.356096e+05
   1.368227e+06   8.074637e+05
   2.077521e+05   6.736702e+05
  -9.081440e+05   4.237513e+05
  -1.000605e+06   2.259793e+05
  -3.024344e+05  -3.615163e+03
   1.669305e+05  -2.189793e+05
  -4.773879e+04  -2.461115e+05
  -3.488135e+05  -1.368785e+05
  -1.919725e+04  -1.358833e+05
   7.426738e+05  -2.102634e+05
   1.026496e+06   2.148736e+04
   3.156186e+05   6.633810e+05
  -8.962157e+05   1.126578e+06
  -1.615866e+06   7.120276e+05
  -1.299767e+06  -4.536882e+05
  -2.579764e+05  -1.403070e+06
   7.191404e+05  -1.345456e+06
   1.029727e+06  -4.908277e+05
   6.631322e+05   2.675471e+05
   1.019232e+05   3.511710e+05
  -1.382481e+05   1.736572e+04
   5.503068e+04  -7.311692e+04
   3.405503e+05   3.365801e+05
   2.876310e+05   7.974782e+05
  -1.849772e+05   6.573486e+05
  -6.905481e+05  -1.650825e+05
  -6.954407e+05  -9.842470e+05
  -4.144337e+04  -1.009546e+06
   7.872899e+05  -1.797725e+05
   1.006805e+06   7.690477e+05
   3.080843e+05   1.069310e+06
  -7.091147e+05   6.230010e+05
  -1.070398e+06  -8.200501e+04
  -4.914028e+05  -5.481598e+05
   2.697980e+05  -6.066645e+05
   3.097853e+05  -3.535661e+05
  -3.113684e+05  -3.344774e+04
  -6.598718e+05   3.508218e+04
  -1.256452e+05  -2.897088e+05
   8.093915e+05  -6.906867e+05
   1.183820e+06  -6.006641e+05
   6.907146e+05   1.129303e+05
  -9.096711e+04   8.346295e+05
  -4.778443e+05   8.272494e+05
  -3.520562e+05   1.180655e+05
  -2.273732e+04  -5.002990e+05
   2.437779e+05  -3.972237e+05
   3.526587e+05   2.007856e+05
   2.482606e+05   5.706467e+05
  -6.251815e+04   3.689188e+05
  -3.842814e+05  -6.594488e+04
  -4.536344e+05  -2.308665e+05
  -2.410468e+05  -5.577591e+04
   6.562049e+03   1.011781e+05
   8.318672e+04  -5.412201e+04
   6.734327e+04  -3.861432e+05
   1.589115e+05  -4.776368e+05
   3.485703e+05  -1.109458e+05
   3.774435e+05   4.393575e+05
   5.677231e+04   6.465967e+05
  -4.302086e+05   2.855185e+05
  -6.199762e+05  -3.083327e+05
  -2.261389e+05  -5.880876e+05
   4.806166e+05  -3.582817e+05
   8.385129e+05   9.186229e+04
   4.600989e+05   3.700917e+05
  -2.859181e+05   3.547521e+05
  -6.131589e+05   1.780613e+05
  -2.013972e+05   1.203975e+04
   4.053148e+05  -2.248403e+04
   4.278976e+05   1.251060e+05
  -2.168781e+05   3.278547e+05
  -8.190768e+05   2.716831e+05
