
 $NMID
 id='ANONYMOUS ', fmtdat='(2E16.6)'
 volume=1.0
 tramp=1.0
 $END
  -3.482506e+07  -1.116266e+06
  -2.144005e+07  -1.974602e+07
   3.126001e+06  -2.274375e+07
   1.643262e+07  -1.125697e+07
   1.131675e+07   1.859393e+06
  -8.472812e+05   5.985505e+06
  -6.584328e+06   9.614673e+05
  -3.314855e+06  -5.913669e+06
   2.973152e+06  -7.571230e+06
   6.323570e+06  -2.555296e+06
   4.870075e+06   4.326834e+06
   4.302662e+05   6.340704e+06
  -2.980032e+06   1.533874e+06
  -2.043025e+06  -4.769778e+06
   2.340536e+06  -5.522966e+06
   5.355747e+06   2.460257e+05
   3.350368e+06   6.696349e+06
  -2.203523e+06   7.942294e+06
  -6.590643e+06   3.705576e+06
  -6.707203e+06  -1.855470e+06
  -3.355896e+06  -4.894855e+06
   1.940005e+05  -4.625222e+06
   1.104130e+06  -2.881070e+06
  -6.168564e+05  -2.128371e+06
  -1.850379e+06  -3.184987e+06
   4.785130e+05  -4.258259e+06
   5.292107e+06  -2.911616e+06
   7.714653e+06   7.157033e+05
   4.684191e+06   3.651167e+06
  -9.941240e+05   3.483757e+06
  -3.775691e+06   9.589431e+05
  -1.734833e+06  -1.323777e+06
   1.949777e+06  -1.644492e+06
   3.386756e+06   1.471250e+04
   1.902656e+06   2.491786e+06
  -5.132759e+05   3.786312e+06
  -1.845264e+06   2.272530e+06
  -1.440354e+06  -9.925617e+05
  -7.127878e+04  -2.406581e+06
   6.020496e+05  -1.108245e+05
  -4.639710e+05   2.858759e+06
  -2.130365e+06   2.091846e+06
  -1.927539e+06  -1.942750e+06
   8.110585e+05  -3.972776e+06
   3.500682e+06  -8.770347e+05
   2.956174e+06   4.021638e+06
  -9.033259e+05   5.168591e+06
  -4.784989e+06   1.470480e+06
  -5.276907e+06  -3.112688e+06
  -1.928688e+06  -4.571376e+06
   2.518607e+06  -2.510950e+06
   4.466156e+06   6.757369e+05
   2.483277e+06   2.439650e+06
  -1.310955e+06   1.767295e+06
  -3.167963e+06  -3.402169e+05
  -1.587728e+06  -1.677610e+06
   1.083481e+06  -9.627296e+05
   1.566678e+06   6.895003e+05
  -3.515076e+05   1.110923e+06
  -1.793842e+06  -2.044299e+05
  -5.916617e+05  -1.610863e+06
   2.114546e+06  -1.471434e+06
   3.412438e+06   2.080804e+05
   1.815057e+06   2.338527e+06
  -1.579043e+06   3.755374e+06
  -4.393874e+06   3.393124e+06
  -4.860909e+06   7.878633e+05
  -2.950646e+06  -2.792752e+06
  -3.087383e+05  -4.763728e+06
   1.145317e+06  -3.847295e+06
   1.002732e+06  -1.660717e+06
   5.856628e+05  -6.629601e+05
   1.157351e+06  -1.043900e+06
   2.322302e+06  -8.821086e+05
   2.623456e+06   8.026153e+05
   1.369083e+06   2.520614e+06
  -6.441681e+05   2.250499e+06
  -1.975430e+06  -2.633688e+04
  -1.641777e+06  -2.330720e+06
   2.879180e+05  -2.739401e+06
   2.551375e+06  -1.002545e+06
   3.358808e+06   1.504046e+06
   1.978941e+06   3.019375e+06
  -3.064200e+05   2.805229e+06
  -1.519766e+06   1.642131e+06
  -1.331005e+06   8.575374e+05
  -1.303000e+06   8.156074e+05
  -2.519759e+06   6.308733e+05
  -3.811578e+06  -5.629253e+05
  -3.092464e+06  -2.437003e+06
  -8.032838e+04  -3.741588e+06
   3.093097e+06  -3.460294e+06
   4.020570e+06  -1.591236e+06
   2.323551e+06   8.025624e+05
  -1.941954e+05   2.153473e+06
  -1.344199e+06   1.558688e+06
  -4.715059e+05  -1.763316e+05
   1.136494e+06  -1.102606e+06
   1.658224e+06  -2.715406e+05
   6.346945e+05   1.056498e+06
  -6.232663e+05   1.016276e+06
  -6.097883e+05  -3.298492e+05
   6.431533e+05  -9.762238e+05
   1.676549e+06   4.002150e+05
   1.235147e+06   2.651268e+06
  -5.731366e+05   3.454802e+06
  -2.564824e+06   1.876362e+06
  -3.447569e+06  -8.428663e+05
  -2.600310e+06  -2.706187e+06
  -5.268735e+05  -2.700185e+06
   1.288868e+06  -1.356985e+06
   1.537061e+06  -8.886099e+04
   4.558835e+05   5.555471e+04
  -3.235189e+05  -6.940130e+05
   3.215455e+05  -1.136519e+06
   1.596606e+06  -4.840600e+05
   1.777097e+06   7.007343e+05
   4.121165e+05   1.191692e+06
  -1.049840e+06   5.557139e+05
  -9.463264e+05  -4.224751e+05
   7.019769e+05  -6.876195e+05
   2.204430e+06   6.938803e+04
   1.929616e+06   1.291823e+06
  -1.007119e+05   2.054231e+06
  -2.212784e+06   1.666900e+06
  -2.615755e+06   2.505068e+05
  -1.084053e+06  -1.116408e+06
   8.191111e+05  -1.240101e+06
   1.292339e+06  -1.123154e+05
   8.167929e+04   9.182918e+05
  -1.385595e+06   6.190128e+05
  -1.589269e+06  -6.849339e+05
  -4.182188e+05  -1.522622e+06
   9.174044e+05  -1.026965e+06
   1.204505e+06   1.420025e+05
   3.418040e+05   6.739501e+05
  -6.546530e+05   6.383726e+04
  -6.226012e+05  -9.653488e+05
   6.010034e+05  -1.277880e+06
   1.882739e+06  -4.054880e+05
   1.832972e+06   1.043267e+06
   3.082127e+05   1.905679e+06
  -1.315026e+06   1.489251e+06
  -1.582262e+06   2.144278e+05
  -5.066069e+05  -7.859956e+05
   5.958646e+05  -7.700859e+05
   6.700580e+05  -4.867069e+04
  -5.147828e+04   4.779463e+05
  -5.794933e+05   3.313743e+05
  -3.472086e+05  -1.074413e+05
   2.971265e+05  -1.257778e+05
   5.412508e+05   4.700820e+05
  -9.680275e+04   1.070961e+06
  -1.257677e+06   8.366361e+05
  -1.922959e+06  -4.045982e+05
  -1.310910e+06  -1.826245e+06
   2.574435e+05  -2.279622e+06
   1.556059e+06  -1.389029e+06
   1.683365e+06   7.134598e+04
   9.437134e+05   9.586762e+05
   3.289832e+05   8.650532e+05
   3.064219e+05   3.664605e+05
   4.217458e+05   2.439310e+05
   4.802640e+04   6.101232e+05
  -7.844623e+05   8.507087e+05
  -1.389026e+06   3.573339e+05
  -1.079597e+06  -7.261073e+05
   1.897343e+05  -1.489430e+06
   1.644793e+06  -1.059903e+06
   2.141665e+06   4.720269e+05
   1.091992e+06   1.958061e+06
  -8.702606e+05   2.178363e+06
  -2.303247e+06   9.976123e+05
  -2.243145e+06  -5.340720e+05
  -1.047265e+06  -1.266759e+06
   1.159886e+05  -1.036488e+06
   4.875336e+05  -6.099543e+05
   2.909085e+05  -6.788739e+05
   2.223360e+05  -1.090175e+06
   6.176109e+05  -1.093729e+06
   1.149315e+06  -2.386481e+05
   1.193134e+06   1.051139e+06
   4.593568e+05   1.789216e+06
  -6.322014e+05   1.327397e+06
  -1.214144e+06  -5.506932e+03
  -7.664707e+05  -1.157364e+06
   2.984128e+05  -1.286461e+06
   9.841114e+05  -4.704262e+05
   7.315082e+05   4.911889e+05
  -1.412184e+04   9.043939e+05
  -3.636234e+05   7.427734e+05
  -2.702933e+04   4.506546e+05
   3.670025e+05   3.570863e+05
   2.776859e+04   3.730103e+05
  -1.023296e+06   1.915353e+05
  -1.843083e+06  -3.230075e+05
  -1.485957e+06  -9.508049e+05
  -2.878435e+04  -1.268172e+06
   1.396351e+06  -9.987547e+05
   1.677117e+06  -2.883460e+05
   8.053622e+05   3.537440e+05
  -2.046672e+05   4.668289e+05
  -4.454415e+05   7.265725e+04
   1.843726e+04  -3.168771e+05
   4.603160e+05  -2.069133e+05
   4.262268e+05   3.334614e+05
   1.249063e+05   7.062755e+05
  -9.841657e+03   4.543521e+05
   1.427893e+05  -1.494057e+05
   3.417820e+05  -3.448221e+05
   2.700693e+05   2.135276e+05
  -2.025833e+05   9.493847e+05
  -8.611042e+05   9.572855e+05
  -1.166873e+06   7.181066e+04
  -6.654228e+05  -8.766104e+05
   4.140810e+05  -9.683433e+05
   1.119624e+06  -1.968189e+05
   6.569151e+05   5.837063e+05
  -6.494338e+05   6.092004e+05
  -1.527500e+06  -7.722796e+04
  -1.045117e+06  -8.115983e+05
   3.890423e+05  -9.943738e+05
   1.445118e+06  -5.422015e+05
   1.237298e+06   1.427795e+05
   1.606072e+05   5.088479e+05
  -6.063674e+05   2.812930e+05
  -3.249328e+05  -2.559340e+05
   6.032735e+05  -4.305917e+05
   1.098144e+06   1.729227e+05
   5.176899e+05   1.158986e+06
  -6.934943e+05   1.547816e+06
  -1.463319e+06   7.316099e+05
  -1.156939e+06  -7.813809e+05
  -1.291966e+05  -1.716076e+06
   7.374582e+05  -1.249199e+06
   8.878116e+05   1.372507e+05
   4.337236e+05   1.132521e+06
  -1.620367e+05   9.544031e+05
  -5.130121e+05   9.639238e+04
  -4.833922e+05  -3.836367e+05
  -2.088921e+05  -1.551829e+05
  -2.672629e+04   1.078556e+05
  -1.743840e+05  -2.438218e+05
  -4.253735e+05  -9.093920e+05
  -2.216409e+05  -1.041113e+06
   6.067174e+05  -3.702237e+05
   1.395050e+06   4.823628e+05
   1.255041e+06   8.285547e+05
   1.647957e+05   6.522952e+05
  -8.756179e+05   3.649564e+05
  -9.584355e+05   1.667082e+05
  -2.931947e+05  -2.454143e+04
   1.659021e+05  -2.026496e+05
  -2.570583e+04  -2.284582e+05
  -3.168730e+05  -1.373032e+05
  -1.642599e+04  -1.307890e+05
   7.064251e+05  -1.738938e+05
   9.787382e+05   6.409843e+04
   2.856264e+05   6.523598e+05
  -8.961121e+05   1.041745e+06
  -1.580458e+06   6.108884e+05
  -1.232331e+06  -4.884789e+05
  -1.872492e+05  -1.347233e+06
   7.493569e+05  -1.251701e+06
   1.005124e+06  -4.282884e+05
   6.197334e+05   2.782491e+05
   8.581266e+04   3.405482e+05
  -1.251320e+05   1.924007e+04
   5.701329e+04  -5.900551e+04
   3.033410e+05   3.376316e+05
   2.338384e+05   7.712852e+05
  -2.041738e+05   6.207087e+05
  -6.503690e+05  -1.804656e+05
  -6.266799e+05  -9.635002e+05
  -5.512539e+03  -9.679848e+05
   7.546522e+05  -1.478188e+05
   9.308163e+05   7.692314e+05
   2.523678e+05   1.034867e+06
  -7.037985e+05   5.698955e+05
  -1.021911e+06  -1.243056e+05
  -4.474920e+05  -5.526438e+05
   2.873818e+05  -5.748975e+05
   3.197578e+05  -3.228149e+05
  -2.870680e+05  -3.959082e+04
  -6.282086e+05   6.213390e+03
  -1.094457e+05  -2.842731e+05
   8.014773e+05  -6.206363e+05
   1.160362e+06  -5.103126e+05
   6.600275e+05   1.481796e+05
  -1.240418e+05   7.949700e+05
  -5.011328e+05   7.682825e+05
  -3.516760e+05   1.008208e+05
  -5.374032e+03  -4.752670e+05
   2.495767e+05  -3.730869e+05
   3.288970e+05   1.986353e+05
   2.126205e+05   5.547410e+05
  -7.583896e+04   3.568597e+05
  -3.646020e+05  -7.633572e+04
  -4.232240e+05  -2.466268e+05
  -2.258051e+05  -6.899949e+04
   4.091189e+03   1.043323e+05
   7.797638e+04  -3.446764e+04
   6.827386e+04  -3.628839e+05
   1.588354e+05  -4.617715e+05
   3.360944e+05  -1.068819e+05
   3.540318e+05   4.285622e+05
   4.063078e+04   6.214616e+05
  -4.194555e+05   2.583922e+05
  -5.842740e+05  -3.171614e+05
  -1.947881e+05  -5.681765e+05
   4.765945e+05  -3.207381e+05
   8.009550e+05   1.221060e+05
   4.246687e+05   3.734023e+05
  -2.898249e+05   3.317154e+05
  -5.965332e+05   1.497408e+05
  -1.993714e+05   2.098793e+03
   3.799438e+05  -1.293310e+04
   4.012831e+05   1.276577e+05
  -2.119835e+05   2.994197e+05
  -7.802014e+05   2.267232e+05
