
 $NMID
 id='ANONYMOUS ', fmtdat='(2E16.6)'
 volume=1.0
 tramp=1.0
 $END
   6.017406e+07  -7.941729e+05
   3.643968e+07   3.737195e+07
  -7.918503e+06   4.100859e+07
  -2.950760e+07   1.542145e+07
  -1.744712e+07  -7.909025e+06
   3.721109e+06  -9.965803e+06
   1.041910e+07   1.606671e+06
   2.702250e+06   1.045885e+07
  -6.749442e+06   9.640011e+06
  -1.022501e+07   1.923562e+06
  -7.403644e+06  -6.450785e+06
  -9.630434e+05  -8.948740e+06
   4.119010e+06  -3.003801e+06
   2.755624e+06   5.470915e+06
  -3.973284e+06   6.696665e+06
  -8.320438e+06  -1.489662e+06
  -4.705378e+06  -1.077923e+07
   3.961804e+06  -1.249579e+07
   1.065917e+07  -6.396477e+06
   1.155845e+07   1.947061e+06
   7.321267e+06   7.862577e+06
   9.827405e+05   9.394821e+06
  -3.199216e+06   6.707637e+06
  -2.364901e+06   2.814926e+06
   9.166761e+05   1.882810e+06
   4.439967e+05   4.068468e+06
  -5.282468e+06   4.689756e+06
  -9.911374e+06   8.490075e+05
  -7.486991e+06  -4.089990e+06
  -5.827599e+05  -5.315156e+06
   3.603946e+06  -2.918076e+06
   2.584835e+06  -3.437503e+05
  -2.916627e+05   7.532176e+05
  -1.980866e+06   6.016751e+05
  -2.223212e+06  -1.148588e+06
  -9.845375e+05  -3.877615e+06
   1.716848e+06  -4.156095e+06
   3.572046e+06  -1.407543e+05
   2.089726e+06   3.820062e+06
  -7.686785e+05   2.307388e+06
  -5.314646e+05  -2.314554e+06
   2.475122e+06  -2.333109e+06
   2.557155e+06   3.399935e+06
  -2.686284e+06   6.547349e+06
  -7.595124e+06   1.110639e+06
  -5.591214e+06  -7.403461e+06
   2.015234e+06  -9.158046e+06
   7.867283e+06  -2.663644e+06
   7.252452e+06   4.615948e+06
   1.849132e+06   6.252332e+06
  -3.618231e+06   2.744973e+06
  -5.374006e+06  -1.654699e+06
  -2.406644e+06  -3.655949e+06
   2.607458e+06  -2.285649e+06
   4.770826e+06   9.971637e+05
   2.027811e+06   2.895000e+06
  -1.819310e+06   1.456708e+06
  -1.762460e+06  -1.075578e+06
   1.513594e+06  -8.840430e+05
   2.621750e+06   2.043996e+06
  -8.260037e+05   3.809960e+06
  -5.090956e+06   2.028396e+06
  -5.658834e+06  -1.531478e+06
  -2.436894e+06  -4.256228e+06
   1.776877e+06  -5.530965e+06
   5.024361e+06  -5.126527e+06
   6.374135e+06  -1.984022e+06
   4.896557e+06   3.144961e+06
   1.123271e+06   6.379978e+06
  -1.954584e+06   4.926400e+06
  -1.905974e+06   1.129394e+06
  -8.499536e+04  -4.529893e+05
   2.914239e+05   9.377548e+05
  -1.405380e+06   1.967020e+06
  -2.808918e+06   4.848708e+05
  -2.155860e+06  -1.761111e+06
  -1.839442e+05  -2.093863e+06
   1.443736e+06  -2.592650e+05
   1.680925e+06   1.991029e+06
   8.734403e+04   2.946181e+06
  -2.766389e+06   1.799935e+06
  -4.668632e+06  -1.067029e+06
  -3.489377e+06  -3.842376e+06
  -6.722984e+04  -4.487280e+06
   2.385383e+06  -2.946559e+06
   2.395729e+06  -1.212263e+06
   1.930465e+06  -6.645386e+05
   3.009952e+06  -4.621597e+05
   4.437985e+06   7.711750e+05
   3.562521e+06   2.796861e+06
   1.630902e+05   4.182125e+06
  -3.186500e+06   3.986730e+06
  -4.162287e+06   2.245875e+06
  -2.710236e+06  -3.149794e+05
  -3.919343e+05  -2.230898e+06
   1.023866e+06  -2.008693e+06
   5.795161e+05  -2.267815e+02
  -1.062589e+06   1.353490e+06
  -1.950575e+06   4.369826e+05
  -9.900385e+05  -1.224987e+06
   4.849525e+05  -1.131311e+06
   3.862237e+05   4.035554e+05
  -1.162114e+06   6.387440e+05
  -1.906756e+06  -1.478693e+06
  -5.272502e+05  -3.667720e+06
   1.812478e+06  -3.399260e+06
   3.265266e+06  -9.420042e+05
   3.266208e+06   1.572423e+06
   2.188393e+06   2.755447e+06
   4.368921e+05   2.572095e+06
  -1.216549e+06   1.483913e+06
  -1.576466e+06   2.654318e+05
  -4.995517e+05  -4.163579e+04
   3.677007e+05   7.624896e+05
  -4.296194e+05   1.389873e+06
  -1.976455e+06   6.087421e+05
  -2.095716e+06  -9.252548e+05
  -3.818091e+05  -1.469723e+06
   1.198919e+06  -5.759944e+05
   8.709490e+05   4.634610e+05
  -8.877818e+05   4.764369e+05
  -2.168705e+06  -3.858808e+05
  -1.687005e+06  -1.370745e+06
   2.888738e+05  -1.941267e+06
   2.322432e+06  -1.644629e+06
   2.802321e+06  -2.822637e+05
   1.251039e+06   1.297174e+06
  -9.363578e+05   1.569115e+06
  -1.624625e+06   2.160951e+05
  -2.367846e+05  -1.118139e+06
   1.544017e+06  -7.694989e+05
   1.748753e+06   8.032984e+05
   3.145364e+05   1.683531e+06
  -1.138615e+06   9.604672e+05
  -1.269814e+06  -3.597625e+05
  -2.180136e+05  -8.115983e+05
   8.347001e+05  -5.457246e+04
   7.686515e+05   1.072196e+06
  -5.625537e+05   1.460480e+06
  -2.032310e+06   5.837799e+05
  -2.086229e+06  -1.042649e+06
  -4.076342e+05  -2.113444e+06
   1.467721e+06  -1.682512e+06
   1.760986e+06  -2.094854e+05
   4.991584e+05   8.899953e+05
  -6.745658e+05   8.101146e+05
  -6.190952e+05   8.307492e+04
   1.407226e+05  -3.253445e+05
   4.654561e+05  -1.689332e+05
   5.429736e+04   5.725930e+04
  -4.946252e+05  -1.340216e+05
  -5.112580e+05  -7.294209e+05
   2.370516e+05  -1.217264e+06
   1.411709e+06  -9.096962e+05
   2.118342e+06   4.124806e+05
   1.505602e+06   1.965772e+06
  -2.007473e+05   2.449418e+06
  -1.623772e+06   1.411942e+06
  -1.682512e+06  -1.428000e+05
  -8.245611e+05  -8.743946e+05
  -3.073032e+05  -5.839492e+05
  -5.228812e+05  -1.703882e+05
  -6.865597e+05  -3.284540e+05
  -1.061665e+05  -8.054701e+05
   8.983787e+05  -9.118992e+05
   1.458071e+06  -3.128673e+05
   1.033084e+06   7.177543e+05
  -2.686948e+05   1.442199e+06
  -1.735156e+06   1.070047e+06
  -2.266603e+06  -4.830469e+05
  -1.141051e+06  -2.130756e+06
   1.044366e+06  -2.411187e+06
   2.600720e+06  -1.038462e+06
   2.371445e+06   6.935816e+05
   9.218770e+05   1.355049e+06
  -2.351708e+05   9.130629e+05
  -3.584097e+05   4.738893e+05
  -1.041401e+04   7.673934e+05
  -6.157606e+04   1.363677e+06
  -6.788241e+05   1.341927e+06
  -1.328864e+06   3.445461e+05
  -1.375234e+06  -1.079287e+06
  -5.864138e+05  -1.913279e+06
   6.119895e+05  -1.462385e+06
   1.299595e+06  -8.549670e+01
   8.234842e+05   1.314061e+06
  -4.153564e+05   1.423055e+06
  -1.212785e+06   3.851950e+05
  -8.345770e+05  -7.567843e+05
   1.540442e+05  -1.124697e+06
   5.874408e+05  -7.924112e+05
   1.038822e+05  -4.030365e+05
  -4.514879e+05  -3.248856e+05
  -7.037553e+04  -3.831856e+05
   1.180651e+06  -2.169904e+05
   2.119918e+06   3.284247e+05
   1.649964e+06   1.054573e+06
  -5.623822e+04   1.480355e+06
  -1.638092e+06   1.182727e+06
  -1.869062e+06   2.748471e+05
  -8.393965e+05  -5.366041e+05
   2.757405e+05  -5.997778e+05
   5.305584e+05  -2.173011e+04
   4.937212e+04   4.519431e+05
  -4.319725e+05   2.740886e+05
  -4.972800e+05  -3.403860e+05
  -2.976256e+05  -7.196456e+05
  -1.336745e+05  -4.814899e+05
  -1.352328e+05   7.441335e+04
  -2.554820e+05   2.698848e+05
  -2.752373e+05  -2.367548e+05
   1.165162e+05  -9.894335e+05
   9.015951e+05  -1.097088e+06
   1.418197e+06  -2.169396e+05
   9.147068e+05   9.148015e+05
  -4.066109e+05   1.192403e+06
  -1.293742e+06   3.914564e+05
  -7.559515e+05  -5.605716e+05
   7.142481e+05  -6.577342e+05
   1.595225e+06   1.018242e+05
   9.798481e+05   8.758134e+05
  -5.173343e+05   9.776492e+05
  -1.505205e+06   4.475052e+05
  -1.218142e+06  -2.097363e+05
  -1.214075e+05  -5.111758e+05
   6.603894e+05  -2.612949e+05
   4.053788e+05   3.055109e+05
  -5.676829e+05   5.555547e+05
  -1.203749e+06  -3.607957e+04
  -7.336548e+05  -1.171498e+06
   5.285125e+05  -1.749792e+06
   1.468768e+06  -9.482262e+05
   1.286138e+06   7.320900e+05
   2.380319e+05   1.801394e+06
  -7.303944e+05   1.298452e+06
  -9.313728e+05  -1.926045e+05
  -4.243846e+05  -1.204372e+06
   2.458896e+05  -9.631729e+05
   5.788411e+05  -7.710212e+04
   4.495114e+05   3.695448e+05
   1.369188e+05   1.274204e+05
   5.968528e+04  -8.777015e+04
   3.315032e+05   3.153136e+05
   5.463921e+05   9.791874e+05
   1.710328e+05   1.081709e+06
  -7.603881e+05   4.033312e+05
  -1.492569e+06  -4.473106e+05
  -1.271255e+06  -8.278371e+05
  -1.932704e+05  -7.117573e+05
   8.243896e+05  -4.414166e+05
   9.808259e+05  -1.873419e+05
   3.937297e+05   6.735617e+04
  -1.305133e+05   2.343034e+05
  -7.210076e+04   1.887848e+05
   2.274837e+05   6.816387e+04
   7.054576e+04   1.311732e+05
  -6.194311e+05   2.687346e+05
  -1.066524e+06   2.382029e+04
  -5.176127e+05  -6.993027e+05
   7.854078e+05  -1.238836e+06
   1.735993e+06  -8.376996e+05
   1.495560e+06   3.795226e+05
   3.291656e+05   1.411610e+06
  -7.578802e+05   1.427785e+06
  -1.052593e+06   6.012587e+05
  -6.636383e+05  -1.947781e+05
  -1.638611e+05  -3.610083e+05
   3.048513e+04  -9.570367e+04
  -9.675139e+04  -1.178899e+04
  -2.922340e+05  -3.798691e+05
  -2.514932e+05  -8.143794e+05
   1.555997e+05  -7.033358e+05
   6.849347e+05   7.390419e+04
   8.022006e+05   9.147558e+05
   1.963851e+05   1.048163e+06
  -7.288888e+05   3.165695e+05
  -1.084687e+06  -6.604569e+05
  -4.142065e+05  -1.098066e+06
   6.968930e+05  -7.415808e+05
   1.159828e+06   3.100228e+04
   5.829198e+05   6.380200e+05
  -2.752933e+05   7.381823e+05
  -4.126465e+05   3.940083e+05
   2.092526e+05  -1.369592e+04
   6.468036e+05  -6.487167e+04
   1.720918e+05   3.165538e+05
  -8.189724e+05   7.056322e+05
  -1.299461e+06   5.509257e+05
  -8.210067e+05  -1.921057e+05
   6.941187e+04  -9.018095e+05
   5.735053e+05  -9.020634e+05
   4.698499e+05  -2.077782e+05
   9.116414e+04   4.667287e+05
  -2.216223e+05   4.722539e+05
  -3.589203e+05  -1.002736e+05
  -2.812263e+05  -5.767769e+05
   2.986525e+04  -4.707936e+05
   3.997249e+05   1.626045e+04
   5.050479e+05   2.978157e+05
   2.495852e+05   1.151645e+05
  -5.948603e+04  -1.819820e+05
  -8.645775e+04  -1.053583e+05
   7.760854e+04   3.324672e+05
   4.481246e+04   6.027367e+05
  -2.911654e+05   3.040736e+05
  -5.295641e+05  -3.225258e+05
  -2.505650e+05  -6.454858e+05
   3.836868e+05  -3.520903e+05
   7.101237e+05   2.351492e+05
   2.968530e+05   5.574065e+05
  -5.155122e+05   3.935203e+05
  -9.224193e+05  -2.946682e+04
  -5.107517e+05  -3.666746e+05
   2.848535e+05  -4.465938e+05
   6.519866e+05  -2.902721e+05
   2.858080e+05  -3.374920e+04
  -3.036407e+05   1.136300e+05
  -3.976382e+05  -5.130699e+03
   1.240781e+05  -2.732382e+05
   6.843635e+05  -3.015190e+05
