
 $NMID
 id='ANONYMOUS ', fmtdat='(2E16.6)'
 volume=1.0
 tramp=1.0
 $END
   4.954725e+07   6.354422e+04
   2.984373e+07   3.018691e+07
  -6.209116e+06   3.327045e+07
  -2.395857e+07   1.332120e+07
  -1.457036e+07  -5.584577e+06
   2.643566e+06  -8.179527e+06
   8.638457e+06   6.938658e+05
   2.762544e+06   8.461827e+06
  -5.157726e+06   8.513020e+06
  -8.465617e+06   2.050602e+06
  -6.292091e+06  -5.490753e+06
  -7.848641e+05  -7.751710e+06
   3.604731e+06  -2.420606e+06
   2.485154e+06   5.014166e+06
  -3.209708e+06   6.041755e+06
  -6.979668e+06  -1.016083e+06
  -4.066967e+06  -8.992317e+06
   3.227175e+06  -1.048922e+07
   8.921427e+06  -5.247818e+06
   9.539989e+06   1.878650e+06
   5.718165e+06   6.648988e+06
   4.791167e+05   7.496832e+06
  -2.457503e+06   5.128579e+06
  -1.264554e+06   2.362514e+06
   1.302274e+06   2.174659e+06
   2.123954e+05   4.019326e+06
  -5.089356e+06   4.026857e+06
  -8.873940e+06   3.738764e+05
  -6.328378e+06  -3.793348e+06
  -4.157844e+04  -4.579643e+06
   3.574019e+06  -2.237434e+06
   2.289200e+06   2.191395e+05
  -7.679201e+05   1.118630e+06
  -2.395453e+06   4.911928e+05
  -2.129472e+06  -1.525006e+06
  -5.216397e+05  -3.763133e+06
   1.715065e+06  -3.413324e+06
   2.787096e+06   2.876922e+05
   1.337527e+06   3.274422e+06
  -7.590793e+05   1.495274e+06
  -2.566404e+05  -2.452135e+06
   2.233018e+06  -2.194987e+06
   2.238462e+06   2.769593e+06
  -1.971221e+06   5.392775e+06
  -5.935365e+06   9.171348e+05
  -4.464284e+06  -6.030744e+06
   1.605319e+06  -7.462372e+06
   6.555769e+06  -2.153340e+06
   6.329716e+06   3.904206e+06
   1.838147e+06   5.414380e+06
  -3.072948e+06   2.574908e+06
  -4.847271e+06  -1.208469e+06
  -2.347081e+06  -3.060064e+06
   2.059939e+06  -2.007254e+06
   4.040323e+06   7.335064e+05
   1.795369e+06   2.363760e+06
  -1.503521e+06   1.233001e+06
  -1.630749e+06  -8.817598e+05
   1.039259e+06  -8.922140e+05
   2.186293e+06   1.347505e+06
  -3.679535e+05   2.872068e+06
  -3.897596e+06   1.703970e+06
  -4.654440e+06  -1.043542e+06
  -2.117097e+06  -3.442165e+06
   1.630690e+06  -4.755148e+06
   4.616833e+06  -4.421384e+06
   5.655122e+06  -1.555173e+06
   4.107080e+06   2.917660e+06
   8.484728e+05   5.622676e+06
  -1.571898e+06   4.375055e+06
  -1.481152e+06   1.251706e+06
  -1.958152e+05  -3.517126e+04
  -1.769601e+05   1.011658e+06
  -1.677564e+06   1.610306e+06
  -2.702041e+06   8.427495e+04
  -1.889630e+06  -1.947178e+06
   4.786158e+04  -2.108610e+06
   1.576450e+06  -2.127687e+05
   1.662886e+06   1.996941e+06
   6.909047e+03   2.784611e+06
  -2.597828e+06   1.510029e+06
  -4.101314e+06  -1.150573e+06
  -2.886164e+06  -3.436184e+06
   6.245856e+04  -3.776723e+06
   2.019796e+06  -2.400868e+06
   1.945865e+06  -1.037542e+06
   1.626788e+06  -6.936909e+05
   2.714086e+06  -5.341172e+05
   4.065208e+06   6.181342e+05
   3.307269e+06   2.525483e+06
   1.890010e+05   3.878215e+06
  -2.983588e+06   3.719170e+06
  -3.948324e+06   2.018617e+06
  -2.512039e+06  -4.322006e+05
  -2.225716e+05  -2.145025e+06
   1.076139e+06  -1.821034e+06
   5.313538e+05   5.285318e+04
  -1.033553e+06   1.244100e+06
  -1.779689e+06   3.883845e+05
  -8.495528e+05  -1.122216e+06
   4.962169e+05  -1.067513e+06
   4.499952e+05   3.436155e+05
  -9.138970e+05   7.214722e+05
  -1.727955e+06  -1.038205e+06
  -7.602729e+05  -3.140725e+06
   1.260068e+06  -3.256741e+06
   2.837844e+06  -1.244015e+06
   3.193931e+06   1.194458e+06
   2.295034e+06   2.567857e+06
   5.089720e+05   2.503408e+06
  -1.171686e+06   1.413813e+06
  -1.507985e+06   2.260885e+05
  -4.676803e+05  -3.707191e+04
   3.505829e+05   7.058409e+05
  -3.634500e+05   1.255517e+06
  -1.769770e+06   5.628753e+05
  -1.916397e+06  -7.909760e+05
  -3.915710e+05  -1.312133e+06
   1.093394e+06  -5.632449e+05
   8.700374e+05   4.105862e+05
  -7.710485e+05   5.361871e+05
  -2.088589e+06  -2.204246e+05
  -1.726895e+06  -1.245218e+06
   1.700954e+05  -1.900622e+06
   2.163607e+06  -1.630229e+06
   2.630043e+06  -3.069494e+05
   1.164090e+06   1.171936e+06
  -8.485002e+05   1.412457e+06
  -1.453843e+06   1.876367e+05
  -1.876132e+05  -1.013050e+06
   1.425603e+06  -7.124959e+05
   1.638952e+06   7.071435e+05
   3.620196e+05   1.554097e+06
  -9.988692e+05   9.568085e+05
  -1.195119e+06  -2.517723e+05
  -2.596310e+05  -7.238017e+05
   7.415208e+05  -6.240503e+04
   7.065273e+05   9.886030e+05
  -5.347663e+05   1.357741e+06
  -1.903579e+06   5.348576e+05
  -1.943800e+06  -9.754064e+05
  -3.900505e+05  -1.961459e+06
   1.338140e+06  -1.575427e+06
   1.630252e+06  -2.286685e+05
   4.948334e+05   8.112046e+05
  -6.087375e+05   7.752703e+05
  -6.128043e+05   8.372706e+04
   9.072377e+04  -3.616706e+05
   4.733725e+05  -2.322181e+05
   1.536142e+05   5.450954e+04
  -3.984892e+05  -4.348112e+04
  -5.021590e+05  -6.035454e+05
   1.650411e+05  -1.119422e+06
   1.292682e+06  -8.707132e+05
   1.980826e+06   3.624743e+05
   1.415474e+06   1.825310e+06
  -1.721994e+05   2.307177e+06
  -1.512571e+06   1.379623e+06
  -1.617898e+06  -7.978370e+04
  -8.551400e+05  -8.461382e+05
  -3.301098e+05  -6.479653e+05
  -4.452759e+05  -2.306228e+05
  -5.743305e+05  -2.887160e+05
  -8.817172e+04  -7.109994e+05
   8.114735e+05  -8.686897e+05
   1.371051e+06  -3.412490e+05
   1.024239e+06   6.699995e+05
  -2.006703e+05   1.404238e+06
  -1.618349e+06   1.055925e+06
  -2.148145e+06  -4.224529e+05
  -1.114688e+06  -1.972274e+06
   9.112718e+05  -2.253612e+06
   2.384502e+06  -1.021265e+06
   2.243921e+06   5.736750e+05
   9.509593e+05   1.248841e+06
  -1.614459e+05   9.176351e+05
  -3.707478e+05   5.155146e+05
  -9.282952e+04   7.245357e+05
  -1.004585e+05   1.231068e+06
  -6.194767e+05   1.218693e+06
  -1.217651e+06   3.130046e+05
  -1.282596e+06  -1.011431e+06
  -5.534568e+05  -1.794673e+06
   5.735964e+05  -1.375406e+06
   1.222176e+06  -1.959535e+04
   7.910068e+05   1.198695e+06
  -3.396647e+05   1.325509e+06
  -1.078255e+06   4.106619e+05
  -7.691496e+05  -6.286444e+05
   9.123297e+04  -1.004099e+06
   4.775194e+05  -7.452694e+05
   6.364799e+04  -4.014345e+05
  -4.145517e+05  -3.188801e+05
  -6.065882e+04  -3.662058e+05
   1.080560e+06  -2.153004e+05
   1.953690e+06   2.868960e+05
   1.548250e+06   9.559779e+05
  -7.812972e+03   1.350036e+06
  -1.481938e+06   1.096187e+06
  -1.728038e+06   2.958376e+05
  -7.969070e+05  -4.404333e+05
   2.369355e+05  -5.344012e+05
   4.788632e+05  -4.380081e+04
   2.654752e+04   3.926144e+05
  -4.232287e+05   2.515782e+05
  -4.612276e+05  -3.191137e+05
  -2.425752e+05  -6.914671e+05
  -8.901881e+04  -4.594418e+05
  -1.269815e+05   9.967472e+04
  -2.649470e+05   2.944777e+05
  -2.665447e+05  -2.148049e+05
   1.230834e+05  -9.456692e+05
   8.396192e+05  -1.024820e+06
   1.284438e+06  -1.750111e+05
   8.133216e+05   8.628002e+05
  -3.821105e+05   1.081198e+06
  -1.189627e+06   3.282008e+05
  -7.068575e+05  -5.373010e+05
   6.550670e+05  -6.273969e+05
   1.512869e+06   6.149265e+04
   9.784357e+05   7.979499e+05
  -4.344732e+05   9.494312e+05
  -1.413904e+06   4.889406e+05
  -1.178824e+06  -1.539870e+05
  -1.399802e+05  -4.864094e+05
   6.110146e+05  -2.683135e+05
   3.666310e+05   2.737307e+05
  -5.537410e+05   5.062661e+05
  -1.131235e+06  -6.190893e+04
  -6.567969e+05  -1.120100e+06
   5.393884e+05  -1.635943e+06
   1.404174e+06  -8.693711e+05
   1.211787e+06   7.020388e+05
   2.242430e+05   1.705913e+06
  -6.816930e+05   1.247868e+06
  -8.823604e+05  -1.505877e+05
  -4.316065e+05  -1.125746e+06
   1.898075e+05  -9.240259e+05
   5.323671e+05  -8.858154e+04
   4.519327e+05   3.493196e+05
   1.597661e+05   1.250996e+05
   4.358303e+04  -9.050240e+04
   2.690308e+05   2.815890e+05
   5.012042e+05   9.145384e+05
   2.008609e+05   1.020943e+06
  -6.741453e+05   3.837947e+05
  -1.414425e+06  -4.174279e+05
  -1.234302e+06  -7.720488e+05
  -1.874699e+05  -6.626676e+05
   8.055283e+05  -4.186134e+05
   9.335517e+05  -1.918257e+05
   3.443305e+05   4.820400e+04
  -1.343829e+05   2.194597e+05
  -3.084035e+04   1.908702e+05
   2.537861e+05   7.907816e+04
   5.247441e+04   1.276423e+05
  -6.247259e+05   2.442260e+05
  -1.001239e+06   1.022656e+04
  -4.322353e+05  -6.595813e+05
   7.784684e+05  -1.148152e+06
   1.614105e+06  -7.567186e+05
   1.364885e+06   3.858964e+05
   2.942437e+05   1.337878e+06
  -7.073589e+05   1.329784e+06
  -9.943560e+05   5.394093e+05
  -6.323788e+05  -2.042653e+05
  -1.377939e+05  -3.415283e+05
   6.312394e+04  -7.247137e+04
  -7.618493e+04   1.196163e+04
  -2.901388e+05  -3.449253e+05
  -2.500502e+05  -7.650764e+05
   1.563029e+05  -6.549725e+05
   6.548242e+05   9.471542e+04
   7.344295e+05   8.898683e+05
   1.420406e+05   9.883294e+05
  -7.127813e+05   2.644694e+05
  -1.011615e+06  -6.583224e+05
  -3.632002e+05  -1.036012e+06
   6.673531e+05  -6.706990e+05
   1.075722e+06   4.520481e+04
   5.238405e+05   5.811891e+05
  -2.630728e+05   6.620459e+05
  -3.621084e+05   3.585283e+05
   2.298772e+05  -3.945045e+03
   6.180209e+05  -5.485159e+04
   1.492914e+05   2.938115e+05
  -7.726158e+05   6.660625e+05
  -1.195072e+06   5.349215e+05
  -7.377321e+05  -1.626123e+05
   7.275279e+04  -8.364658e+05
   5.169504e+05  -8.308504e+05
   4.144440e+05  -1.672130e+05
   6.900247e+04   4.547759e+05
  -2.185145e+05   4.273380e+05
  -3.427634e+05  -1.236520e+05
  -2.580942e+05  -5.457113e+05
   4.087155e+04  -4.181652e+05
   3.765219e+05   2.954806e+04
   4.618171e+05   2.638670e+05
   2.319679e+05   9.173804e+04
  -3.816182e+04  -1.511078e+05
  -7.474742e+04  -5.356872e+04
   3.447899e+04   3.364784e+05
  -2.033545e+04   5.433203e+05
  -2.998598e+05   2.352539e+05
  -4.634040e+05  -3.446399e+05
  -1.828395e+05  -6.195755e+05
   3.791426e+05  -3.172375e+05
   6.505650e+05   2.462139e+05
   2.634182e+05   5.395260e+05
  -4.791291e+05   3.625766e+05
  -8.527250e+05  -4.736427e+04
  -4.704692e+05  -3.495062e+05
   2.730829e+05  -3.974237e+05
   6.107408e+05  -2.425285e+05
   2.472774e+05  -2.290085e+04
  -3.207944e+05   8.612576e+04
  -3.906407e+05  -3.752102e+04
   1.416893e+05  -2.789336e+05
   6.883735e+05  -2.842295e+05
