
 $NMID
 id='ANONYMOUS ', fmtdat='(2E16.6)'
 volume=1.0
 tramp=1.0
 $END
  -5.746624e+07   3.799835e+05
  -3.467234e+07  -3.566021e+07
   7.596588e+06  -3.903338e+07
   2.817170e+07  -1.481450e+07
   1.672824e+07   7.374831e+06
  -3.475407e+06   9.516518e+06
  -9.985769e+06  -1.404915e+06
  -2.694592e+06  -9.979372e+06
   6.393258e+06  -9.352799e+06
   9.802615e+06  -1.926193e+06
   7.098094e+06   6.239919e+06
   8.766394e+05   8.652643e+06
  -3.998814e+06   2.835664e+06
  -2.654820e+06  -5.376356e+06
   3.818711e+06  -6.525676e+06
   7.985158e+06   1.398647e+06
   4.507753e+06   1.035009e+07
  -3.822146e+06   1.197913e+07
  -1.024094e+07   6.067279e+06
  -1.103300e+07  -1.969800e+06
  -6.882278e+06  -7.570217e+06
  -8.305979e+05  -8.904769e+06
   3.017987e+06  -6.300589e+06
   2.090714e+06  -2.716567e+06
  -9.922913e+05  -1.983914e+06
  -3.485067e+05  -4.058647e+06
   5.261131e+06  -4.482062e+06
   9.647653e+06  -6.703562e+05
   7.168390e+06   4.048307e+06
   4.181156e+05   5.118252e+06
  -3.605825e+06   2.712591e+06
  -2.495784e+06   1.830787e+05
   4.362875e+05  -8.315852e+05
   2.094706e+06  -5.416126e+05
   2.179152e+06   1.266408e+06
   8.332123e+05   3.847485e+06
  -1.732158e+06   3.952643e+06
  -3.358997e+06   2.248921e+04
  -1.879496e+06  -3.677060e+06
   7.610932e+05  -2.091566e+06
   4.344910e+05   2.350104e+06
  -2.432427e+06   2.286374e+06
  -2.468117e+06  -3.252918e+06
   2.524029e+06  -6.255157e+06
   7.176163e+06  -1.048464e+06
   5.283801e+06   7.068846e+06
  -1.937449e+06   8.724124e+06
  -7.543596e+06   2.506734e+06
  -7.004511e+06  -4.472082e+06
  -1.820569e+06  -6.059576e+06
   3.500622e+06  -2.690370e+06
   5.244859e+06   1.571722e+06
   2.381818e+06   3.525789e+06
  -2.479709e+06   2.211184e+06
  -4.587065e+06  -9.485702e+05
  -1.961778e+06  -2.771215e+06
   1.745287e+06  -1.394553e+06
   1.727614e+06   1.038200e+06
  -1.400071e+06   8.898900e+05
  -2.516816e+06  -1.873977e+06
   7.103462e+05  -3.578304e+06
   4.794070e+06  -1.940538e+06
   5.407407e+06   1.423827e+06
   2.345739e+06   4.061321e+06
  -1.765838e+06   5.325480e+06
  -4.948929e+06   4.918062e+06
  -6.199899e+06   1.840941e+06
  -4.676672e+06  -3.108688e+06
  -1.020392e+06  -6.193060e+06
   1.883876e+06  -4.785158e+06
   1.812216e+06  -1.160316e+06
   1.241928e+05   3.486964e+05
  -1.580057e+05  -9.455423e+05
   1.485037e+06  -1.854737e+06
   2.776501e+06  -3.585795e+05
   2.067295e+06   1.823571e+06
   1.038390e+05   2.095112e+06
  -1.481777e+06   2.298480e+05
  -1.660649e+06  -2.010670e+06
  -4.494958e+04  -2.906847e+06
   2.733479e+06  -1.707358e+06
   4.515119e+06   1.114213e+06
   3.315656e+06   3.753796e+06
   1.634072e+04   4.304689e+06
  -2.301988e+06   2.798943e+06
  -2.286935e+06   1.161782e+06
  -1.861112e+06   6.659251e+05
  -2.944058e+06   4.643145e+05
  -4.345792e+06  -7.602704e+05
  -3.485182e+06  -2.754299e+06
  -1.422338e+05  -4.111808e+06
   3.166005e+06  -3.901006e+06
   4.126003e+06  -2.159259e+06
   2.655979e+06   3.643103e+05
   3.307021e+05   2.209987e+06
  -1.051309e+06   1.951742e+06
  -5.660769e+05  -1.735691e+04
   1.065422e+06  -1.318358e+06
   1.911389e+06  -4.129388e+05
   9.471482e+05   1.204389e+06
  -4.968983e+05   1.111684e+06
  -4.019474e+05  -3.941844e+05
   1.107581e+06  -6.592935e+05
   1.864435e+06   1.377006e+06
   5.735635e+05   3.548344e+06
  -1.696861e+06   3.369706e+06
  -3.177452e+06   1.007422e+06
  -3.251151e+06  -1.503322e+06
  -2.201217e+06  -2.734471e+06
  -4.353625e+05  -2.564830e+06
   1.218015e+06  -1.458425e+06
   1.562255e+06  -2.434729e+05
   4.918081e+05   4.399648e+04
  -3.587828e+05  -7.516912e+05
   4.211349e+05  -1.355283e+06
   1.929576e+06  -5.866737e+05
   2.048300e+06   9.046664e+05
   3.769242e+05   1.434679e+06
  -1.178081e+06   5.662453e+05
  -8.697325e+05  -4.582836e+05
   8.650154e+05  -4.887419e+05
   2.153395e+06   3.602275e+05
   1.692026e+06   1.356874e+06
  -2.745571e+05   1.935243e+06
  -2.299210e+06   1.627775e+06
  -2.765262e+06   2.694416e+05
  -1.222726e+06  -1.274997e+06
   9.239256e+05  -1.525085e+06
   1.583579e+06  -1.999297e+05
   2.176298e+05   1.092959e+06
  -1.520655e+06   7.457460e+05
  -1.718810e+06  -7.916868e+05
  -3.165230e+05  -1.656891e+06
   1.112522e+06  -9.554525e+05
   1.252725e+06   3.411089e+05
   2.248600e+05   7.933308e+05
  -8.124181e+05   5.224995e+04
  -7.466800e+05  -1.056985e+06
   5.660733e+05  -1.431783e+06
   2.005635e+06  -5.577173e+05
   2.045127e+06   1.041005e+06
   3.895417e+05   2.080262e+06
  -1.447950e+06   1.648229e+06
  -1.732224e+06   2.032048e+05
  -4.934046e+05  -8.752412e+05
   6.646518e+05  -7.984076e+05
   6.192709e+05  -7.795126e+04
  -1.320343e+05   3.358206e+05
  -4.719884e+05   1.813011e+05
  -8.000801e+04  -6.047854e+04
   4.720700e+05   1.117737e+05
   5.073147e+05   7.019923e+05
  -2.263771e+05   1.193910e+06
  -1.389852e+06   8.921242e+05
  -2.083753e+06  -4.147596e+05
  -1.471283e+06  -1.942940e+06
   2.111636e+05  -2.415360e+06
   1.609141e+06  -1.394769e+06
   1.669221e+06   1.396951e+05
   8.269401e+05   8.770224e+05
   3.063069e+05   6.053065e+05
   4.998109e+05   1.886328e+05
   6.566131e+05   3.210632e+05
   9.745336e+04   7.824040e+05
  -8.839656e+05   8.968237e+05
  -1.441511e+06   3.104545e+05
  -1.027554e+06  -7.155740e+05
   2.631961e+05  -1.434507e+06
   1.716729e+06  -1.056236e+06
   2.236976e+06   4.846658e+05
   1.121949e+06   2.102297e+06
  -1.027907e+06   2.368865e+06
  -2.557281e+06   1.019251e+06
  -2.339701e+06  -6.806444e+05
  -9.222722e+05  -1.338871e+06
   2.247186e+05  -9.161425e+05
   3.679840e+05  -4.819173e+05
   3.761392e+04  -7.545647e+05
   7.985683e+04  -1.329311e+06
   6.724929e+05  -1.307664e+06
   1.304008e+06  -3.284715e+05
   1.345683e+06   1.072735e+06
   5.652883e+05   1.889629e+06
  -6.133659e+05   1.437739e+06
  -1.282134e+06  -4.048733e+03
  -8.082465e+05  -1.292431e+06
   4.059006e+05  -1.398624e+06
   1.183912e+06  -3.859925e+05
   8.162328e+05   7.298540e+05
  -1.440244e+05   1.095667e+06
  -5.652363e+05   7.797250e+05
  -9.712779e+04   4.037063e+05
   4.397922e+05   3.267354e+05
   6.501634e+04   3.796911e+05
  -1.158306e+06   2.095072e+05
  -2.078280e+06  -3.318329e+05
  -1.619756e+06  -1.042117e+06
   5.274618e+04  -1.449779e+06
   1.607763e+06  -1.152328e+06
   1.838433e+06  -2.685106e+05
   8.280112e+05   5.185074e+05
  -2.692951e+05   5.824278e+05
  -5.188333e+05   2.445644e+04
  -4.133981e+04  -4.368200e+05
   4.321530e+05  -2.649938e+05
   4.862690e+05   3.387053e+05
   2.780609e+05   7.143271e+05
   1.185300e+05   4.762311e+05
   1.348289e+05  -8.020884e+04
   2.616897e+05  -2.741380e+05
   2.719954e+05   2.336148e+05
  -1.259973e+05   9.783305e+05
  -8.944330e+05   1.073832e+06
  -1.386056e+06   1.978667e+05
  -8.830475e+05  -9.076310e+05
   4.080043e+05  -1.162349e+06
   1.270046e+06  -3.672177e+05
   7.400110e+05   5.606592e+05
  -7.049092e+05   6.463584e+05
  -1.576740e+06  -1.032042e+05
  -9.757594e+05  -8.657636e+05
   5.044438e+05  -9.699668e+05
   1.489275e+06  -4.484661e+05
   1.209847e+06   2.052609e+05
   1.226530e+05   5.072758e+05
  -6.511714e+05   2.592137e+05
  -3.941790e+05  -3.000807e+05
   5.683913e+05  -5.388453e+05
   1.185551e+06   5.146276e+04
   7.057622e+05   1.164094e+06
  -5.443958e+05   1.717679e+06
  -1.460297e+06   9.179019e+05
  -1.263128e+06  -7.346778e+05
  -2.215858e+05  -1.781090e+06
   7.290002e+05  -1.282344e+06
   9.197433e+05   1.887568e+05
   4.186501e+05   1.189893e+06
  -2.390635e+05   9.541733e+05
  -5.687141e+05   7.652662e+04
  -4.482127e+05  -3.690479e+05
  -1.420597e+05  -1.290474e+05
  -5.645486e+04   8.863422e+04
  -3.139291e+05  -3.079150e+05
  -5.286973e+05  -9.673414e+05
  -1.713210e+05  -1.070160e+06
   7.420660e+05  -3.948528e+05
   1.471508e+06   4.512185e+05
   1.258027e+06   8.249593e+05
   1.872305e+05   7.016471e+05
  -8.240943e+05   4.292853e+05
  -9.719393e+05   1.814722e+05
  -3.814634e+05  -6.437313e+04
   1.333880e+05  -2.294820e+05
   6.319116e+04  -1.903854e+05
  -2.337775e+05  -7.410775e+04
  -6.484400e+04  -1.305013e+05
   6.234925e+05  -2.569208e+05
   1.050952e+06  -1.275714e+04
   4.910379e+05   6.919055e+05
  -7.931658e+05   1.210194e+06
  -1.711858e+06   8.061242e+05
  -1.460115e+06  -3.910840e+05
  -3.101540e+05  -1.396473e+06
   7.556348e+05  -1.399263e+06
   1.042491e+06  -5.783965e+05
   6.544561e+05   2.026016e+05
   1.546582e+05   3.571219e+05
  -3.919030e+04   8.838874e+04
   9.221214e+04   5.766383e+03
   2.898875e+05   3.739391e+05
   2.457661e+05   8.050647e+05
  -1.608369e+05   6.903879e+05
  -6.768122e+05  -8.472795e+04
  -7.782581e+05  -9.148079e+05
  -1.749041e+05  -1.034192e+06
   7.270255e+05  -2.973200e+05
   1.061385e+06   6.684518e+05
   3.935876e+05   1.085698e+06
  -6.946985e+05   7.188656e+05
  -1.138954e+06  -4.253515e+04
  -5.644925e+05  -6.275137e+05
   2.767228e+05  -7.173480e+05
   4.024819e+05  -3.833008e+05
  -2.148141e+05   8.552499e+03
  -6.405970e+05   5.741579e+04
  -1.642758e+05  -3.119228e+05
   8.133000e+05  -6.905255e+05
   1.278755e+06  -5.393121e+05
   7.997828e+05   1.893784e+05
  -7.643623e+04   8.854394e+05
  -5.654684e+05   8.815713e+05
  -4.566330e+05   1.950635e+05
  -8.164343e+04  -4.644649e+05
   2.239781e+05  -4.593458e+05
   3.535816e+05   1.093103e+05
   2.714120e+05   5.713867e+05
  -3.532707e+04   4.571344e+05
  -3.937144e+05  -2.264196e+04
  -4.929829e+05  -2.925637e+05
  -2.451228e+05  -1.108968e+05
   5.337120e+04   1.740112e+05
   8.431690e+04   9.234096e+04
  -6.325062e+04  -3.333340e+05
  -2.429409e+04  -5.863737e+05
   2.943927e+05  -2.835760e+05
   5.094057e+05   3.314765e+05
   2.281961e+05   6.397791e+05
  -3.851814e+05   3.401884e+05
  -6.931731e+05  -2.429249e+05
  -2.840934e+05  -5.552381e+05
   5.093850e+05  -3.825847e+05
   9.048154e+05   4.028479e+04
   4.982746e+05   3.660936e+05
  -2.846647e+05   4.322415e+05
  -6.433041e+05   2.736721e+05
  -2.761225e+05   2.964971e+04
   3.087639e+05  -1.032530e+05
   3.953336e+05   1.703382e+04
  -1.315963e+05   2.734666e+05
  -6.887414e+05   2.911059e+05
