
 $NMID
 id='ANONYMOUS ', fmtdat='(2E16.6)'
 volume=1.0
 tramp=1.0
 $END
  -3.632558e+07   1.564453e+06
  -2.397865e+07  -1.882886e+07
   1.377497e+06  -2.396530e+07
   1.628199e+07  -1.311978e+07
   1.205747e+07   1.001634e+06
  -3.780971e+05   6.350764e+06
  -6.858240e+06   1.559503e+06
  -3.976158e+06  -5.949048e+06
   2.532611e+06  -8.208545e+06
   6.441686e+06  -3.191919e+06
   5.415885e+06   4.155340e+06
   9.129372e+05   6.600000e+06
  -2.992798e+06   1.811093e+06
  -2.470168e+06  -4.864844e+06
   2.052011e+06  -5.984222e+06
   5.633918e+06  -1.694941e+05
   4.026286e+06   6.742789e+06
  -1.683968e+06   8.472832e+06
  -6.583914e+06   4.372220e+06
  -7.113888e+06  -1.420076e+06
  -3.851404e+06  -4.815034e+06
  -1.705020e+05  -4.788835e+06
   8.697117e+05  -3.086010e+06
  -8.502501e+05  -2.244211e+06
  -2.151623e+06  -3.269479e+06
   2.393148e+05  -4.503571e+06
   5.349266e+06  -3.390209e+06
   8.111121e+06   2.266302e+05
   5.140512e+06   3.477512e+06
  -8.075396e+05   3.678407e+06
  -3.880793e+06   1.226894e+06
  -1.871777e+06  -1.290054e+06
   1.986826e+06  -1.845652e+06
   3.579387e+06  -1.741879e+05
   2.140261e+06   2.513755e+06
  -3.111953e+05   3.993923e+06
  -1.760835e+06   2.484426e+06
  -1.529159e+06  -9.291326e+05
  -2.287370e+05  -2.471590e+06
   5.844607e+05  -1.252583e+05
  -3.244464e+05   3.032653e+06
  -2.095444e+06   2.347349e+06
  -2.175859e+06  -1.884243e+06
   5.146426e+05  -4.232190e+06
   3.560847e+06  -1.226634e+06
   3.400750e+06   3.939323e+06
  -5.188315e+05   5.461942e+06
  -4.872821e+06   1.903629e+06
  -5.761361e+06  -2.869226e+06
  -2.366719e+06  -4.662409e+06
   2.464877e+06  -2.828365e+06
   4.752847e+06   3.835725e+05
   2.800959e+06   2.387335e+06
  -1.233897e+06   1.963964e+06
  -3.346367e+06  -1.087873e+05
  -1.798946e+06  -1.634698e+06
   1.056923e+06  -1.091595e+06
   1.699975e+06   6.127111e+05
  -2.824058e+05   1.218134e+06
  -1.923453e+06  -5.243350e+04
  -7.921967e+05  -1.648722e+06
   2.072964e+06  -1.735446e+06
   3.597086e+06  -6.872913e+04
   2.092099e+06   2.301525e+06
  -1.378818e+06   4.036339e+06
  -4.361901e+06   3.850083e+06
  -5.022662e+06   1.161178e+06
  -3.269343e+06  -2.705214e+06
  -6.578820e+05  -4.957387e+06
   9.188545e+05  -4.126368e+06
   9.414640e+05  -1.840589e+06
   6.009656e+05  -7.456627e+05
   1.174480e+06  -1.151881e+06
   2.382447e+06  -1.049718e+06
   2.790538e+06   6.881599e+05
   1.583373e+06   2.561945e+06
  -5.449956e+05   2.400839e+06
  -2.085781e+06   8.927502e+04
  -1.877341e+06  -2.350760e+06
   1.236004e+05  -2.894681e+06
   2.603197e+06  -1.216783e+06
   3.609447e+06   1.344529e+06
   2.276171e+06   3.008925e+06
  -1.119973e+05   2.942138e+06
  -1.454695e+06   1.825851e+06
  -1.322001e+06   1.005355e+06
  -1.311297e+06   9.593495e+05
  -2.607731e+06   8.433112e+05
  -4.046313e+06  -3.253718e+05
  -3.418408e+06  -2.347654e+06
  -3.396388e+05  -3.927541e+06
   3.017509e+06  -3.843711e+06
   4.115464e+06  -1.935324e+06
   2.485942e+06   6.918204e+05
  -6.941585e+04   2.269475e+06
  -1.309364e+06   1.718242e+06
  -5.034850e+05  -1.552612e+05
   1.120583e+06  -1.231615e+06
   1.721121e+06  -3.987936e+05
   7.361690e+05   1.061683e+06
  -5.891627e+05   1.107578e+06
  -6.690678e+05  -3.098683e+05
   6.106484e+05  -1.085701e+06
   1.808499e+06   2.892096e+05
   1.506546e+06   2.707652e+06
  -3.559753e+05   3.700531e+06
  -2.583089e+06   2.174080e+06
  -3.703563e+06  -6.508548e+05
  -2.926069e+06  -2.684704e+06
  -7.333126e+05  -2.812963e+06
   1.266423e+06  -1.511659e+06
   1.609383e+06  -1.935699e+05
   4.829651e+05   2.768831e+04
  -3.873969e+05  -7.077059e+05
   2.569897e+05  -1.216500e+06
   1.641474e+06  -6.207881e+05
   1.917518e+06   6.108898e+05
   5.187173e+05   1.224126e+06
  -1.066280e+06   6.574359e+05
  -1.026799e+06  -3.829316e+05
   6.947086e+05  -7.775876e+05
   2.332976e+06  -7.754647e+04
   2.123581e+06   1.235843e+06
   3.117059e+04   2.175730e+06
  -2.218925e+06   1.905073e+06
  -2.735232e+06   4.403765e+05
  -1.216664e+06  -1.098180e+06
   7.727224e+05  -1.357616e+06
   1.346767e+06  -2.084746e+05
   1.481739e+05   9.559385e+05
  -1.413251e+06   7.445257e+05
  -1.719193e+06  -6.112584e+05
  -5.461426e+05  -1.575479e+06
   8.959353e+05  -1.147714e+06
   1.281132e+06   6.503400e+04
   4.092128e+05   6.873130e+05
  -6.826987e+05   1.141004e+05
  -7.195478e+05  -9.712262e+05
   5.455589e+05  -1.382413e+06
   1.950736e+06  -5.520066e+05
   1.996063e+06   9.727095e+05
   4.533527e+05   1.981871e+06
  -1.280469e+06   1.655751e+06
  -1.649762e+06   3.342072e+05
  -5.878147e+05  -7.928220e+05
   5.745928e+05  -8.515331e+05
   7.027659e+05  -9.428162e+04
  -2.386377e+04   5.108805e+05
  -5.931551e+05   3.880085e+05
  -3.765576e+05  -9.621765e+04
   3.062395e+05  -1.598621e+05
   6.065037e+05   4.557198e+05
  -2.603619e+04   1.134788e+06
  -1.265530e+06   9.664085e+05
  -2.049523e+06  -2.948956e+05
  -1.501563e+06  -1.830990e+06
   1.176894e+05  -2.414686e+06
   1.545433e+06  -1.567313e+06
   1.779250e+06  -3.768566e+04
   1.058057e+06   9.506808e+05
   3.992128e+05   8.941876e+05
   3.401562e+05   3.648386e+05
   4.578215e+05   2.228383e+05
   9.370994e+04   6.353821e+05
  -7.669696e+05   9.492828e+05
  -1.439163e+06   4.705494e+05
  -1.185990e+06  -6.941748e+05
   1.006153e+05  -1.583686e+06
   1.660625e+06  -1.227121e+06
   2.285539e+06   3.526319e+05
   1.282596e+06   1.986487e+06
  -7.651734e+05   2.351887e+06
  -2.354552e+06   1.208477e+06
  -2.399187e+06  -4.088625e+05
  -1.190804e+06  -1.265739e+06
   5.374576e+04  -1.103598e+06
   4.775557e+05  -6.746661e+05
   2.641722e+05  -7.279507e+05
   1.594138e+05  -1.155917e+06
   5.725250e+05  -1.190311e+06
   1.190082e+06  -3.292592e+05
   1.324236e+06   1.024308e+06
   6.028850e+05   1.849973e+06
  -5.757105e+05   1.437721e+06
  -1.277868e+06   7.624702e+04
  -8.861399e+05  -1.164769e+06
   2.246438e+05  -1.374902e+06
   1.003365e+06  -5.663292e+05
   8.063420e+05   4.628187e+05
   5.133554e+04   9.526762e+05
  -3.293194e+05   8.098233e+05
   1.784286e+03   4.786383e+05
   4.083837e+05   3.507607e+05
   5.352515e+04   3.901445e+05
  -1.062269e+06   2.721277e+05
  -1.958646e+06  -2.128168e+05
  -1.627679e+06  -8.983238e+05
  -1.196694e+05  -1.332155e+06
   1.397461e+06  -1.146231e+06
   1.744721e+06  -4.187399e+05
   8.746004e+05   3.156832e+05
  -1.810838e+05   5.045297e+05
  -4.639790e+05   1.084406e+05
  -2.992157e+03  -3.316672e+05
   4.703785e+05  -2.469435e+05
   4.701195e+05   3.215731e+05
   1.759847e+05   7.323442e+05
   1.803076e+04   4.762318e+05
   1.419689e+05  -1.678970e+05
   3.398455e+05  -3.855253e+05
   2.989955e+05   2.065401e+05
  -1.510050e+05   1.011315e+06
  -8.403572e+05   1.064073e+06
  -1.217815e+06   1.553664e+05
  -7.559033e+05  -8.741182e+05
   3.679694e+05  -1.043860e+06
   1.160062e+06  -2.817366e+05
   7.287470e+05   5.698270e+05
  -6.417640e+05   6.852322e+05
  -1.613533e+06   2.165011e+04
  -1.156952e+06  -7.857180e+05
   3.420942e+05  -1.075852e+06
   1.487028e+06  -6.696324e+05
   1.314323e+06   6.757000e+04
   2.036110e+05   5.260182e+05
  -6.195735e+05   3.378451e+05
  -3.588978e+05  -2.457926e+05
   6.051872e+05  -4.910111e+05
   1.164098e+06   1.094976e+05
   6.190864e+05   1.182376e+06
  -6.267029e+05   1.670302e+06
  -1.488851e+06   8.644858e+05
  -1.267632e+06  -7.447269e+05
  -2.498340e+05  -1.795782e+06
   6.931206e+05  -1.363919e+06
   9.446236e+05   8.399049e+04
   5.334901e+05   1.163218e+06
  -1.058619e+05   1.017476e+06
  -5.333105e+05   1.370821e+05
  -5.349319e+05  -3.728607e+05
  -2.309678e+05  -1.513379e+05
  -2.084020e+04   1.162975e+05
  -1.987040e+05  -2.412953e+05
  -5.078021e+05  -9.264081e+05
  -3.041029e+05  -1.082246e+06
   6.115152e+05  -4.325156e+05
   1.499358e+06   4.142952e+05
   1.376752e+06   7.891896e+05
   2.175167e+05   6.747226e+05
  -8.975465e+05   4.404276e+05
  -9.977984e+05   2.393036e+05
  -3.096696e+05  -3.899403e+03
   1.612879e+05  -2.233401e+05
  -4.305807e+04  -2.413373e+05
  -3.430494e+05  -1.263008e+05
  -2.514183e+04  -1.356937e+05
   7.322339e+05  -2.270020e+05
   1.032261e+06   2.345844e+03
   3.413817e+05   6.632839e+05
  -8.729622e+05   1.151729e+06
  -1.617717e+06   7.476526e+05
  -1.324424e+06  -4.296988e+05
  -2.856049e+05  -1.403129e+06
   7.029486e+05  -1.365636e+06
   1.026466e+06  -5.160079e+05
   6.690790e+05   2.524793e+05
   1.121425e+05   3.512944e+05
  -1.306343e+05   2.566043e+04
   5.679743e+04  -6.776859e+04
   3.428797e+05   3.350554e+05
   2.980158e+05   7.959330e+05
  -1.731377e+05   6.652136e+05
  -6.945878e+05  -1.479748e+05
  -7.204439e+05  -9.709154e+05
  -6.851399e+04  -1.014570e+06
   7.824677e+05  -2.026851e+05
   1.027171e+06   7.474246e+05
   3.331317e+05   1.069428e+06
  -7.005355e+05   6.442084e+05
  -1.080851e+06  -6.207792e+04
  -5.074778e+05  -5.486466e+05
   2.617954e+05  -6.218754e+05
   3.126513e+05  -3.618321e+05
  -3.052733e+05  -2.489359e+04
  -6.599712e+05   4.765897e+04
  -1.337571e+05  -2.905406e+05
   8.012455e+05  -7.059420e+05
   1.185503e+06  -6.164482e+05
   7.033591e+05   1.086763e+05
  -7.681909e+04   8.429672e+05
  -4.733276e+05   8.417606e+05
  -3.599641e+05   1.300051e+05
  -3.570666e+04  -4.988573e+05
   2.367770e+05  -4.075033e+05
   3.573841e+05   1.884057e+05
   2.601120e+05   5.686482e+05
  -5.485924e+04   3.783204e+05
  -3.874899e+05  -5.651600e+04
  -4.618247e+05  -2.294142e+05
  -2.428989e+05  -5.653968e+04
   1.177088e+04   1.074087e+05
   8.224756e+04  -4.382974e+04
   5.066992e+04  -3.846203e+05
   1.373059e+05  -4.910631e+05
   3.440741e+05  -1.309885e+05
   3.967005e+05   4.264228e+05
   8.119075e+04   6.477569e+05
  -4.235569e+05   2.979073e+05
  -6.330509e+05  -2.943163e+05
  -2.411012e+05  -5.838935e+05
   4.788142e+05  -3.690530e+05
   8.482259e+05   7.471430e+04
   4.706464e+05   3.636914e+05
  -2.812746e+05   3.667647e+05
  -6.150187e+05   1.961269e+05
  -2.079442e+05   1.651189e+04
   3.987380e+05  -3.588191e+04
   4.290133e+05   1.098235e+05
  -2.052759e+05   3.282905e+05
  -8.069425e+05   2.877022e+05
