
 $NMID
 id='ANONYMOUS ', fmtdat='(2E16.6)'
 volume=1.0
 tramp=1.0
 $END
  -5.208187e+07  -3.634482e+05
  -3.151855e+07  -3.196019e+07
   6.570335e+06  -3.516936e+07
   2.554899e+07  -1.406031e+07
   1.564928e+07   6.006215e+06
  -2.812268e+06   8.751409e+06
  -9.314965e+06  -7.758944e+05
  -2.936310e+06  -9.111247e+06
   5.657519e+06  -9.104719e+06
   9.096193e+06  -2.120673e+06
   6.563406e+06   5.898720e+06
   6.658670e+05   8.198881e+06
  -3.809813e+06   2.467096e+06
  -2.444305e+06  -5.392890e+06
   3.584599e+06  -6.398922e+06
   7.433395e+06   1.143611e+06
   4.214653e+06   9.579884e+06
  -3.525719e+06   1.107392e+07
  -9.446222e+06   5.445365e+06
  -9.975627e+06  -2.052377e+06
  -5.934468e+06  -6.959664e+06
  -5.278871e+05  -7.805112e+06
   2.492542e+06  -5.442106e+06
   1.337569e+06  -2.702644e+06
  -1.186861e+06  -2.496656e+06
   1.287372e+04  -4.220228e+06
   5.472983e+06  -3.997492e+06
   9.293790e+06  -1.112969e+05
   6.532627e+06   4.105626e+06
  -6.038018e+04   4.704900e+06
  -3.755140e+06   2.146641e+06
  -2.263932e+06  -3.121352e+05
   9.917444e+05  -1.029185e+06
   2.557484e+06  -2.658647e+05
   2.068958e+06   1.735856e+06
   3.411887e+05   3.905384e+06
  -1.837233e+06   3.499347e+06
  -2.808853e+06  -2.850508e+05
  -1.340073e+06  -3.348689e+06
   6.872809e+05  -1.520472e+06
   7.994837e+04   2.552905e+06
  -2.462142e+06   2.253720e+06
  -2.362113e+06  -2.976650e+06
   2.102439e+06  -5.757813e+06
   6.260441e+06  -1.035624e+06
   4.695442e+06   6.345015e+06
  -1.709051e+06   7.883365e+06
  -6.922959e+06   2.211636e+06
  -6.641291e+06  -4.272104e+06
  -1.838796e+06  -5.834338e+06
   3.360093e+06  -2.683399e+06
   5.173945e+06   1.429066e+06
   2.458531e+06   3.359577e+06
  -2.221767e+06   2.139526e+06
  -4.292770e+06  -8.284087e+05
  -1.893193e+06  -2.543877e+06
   1.604702e+06  -1.292932e+06
   1.724373e+06   9.958827e+05
  -1.146099e+06   1.006934e+06
  -2.406780e+06  -1.431173e+06
   3.099910e+05  -3.118360e+06
   4.124093e+06  -1.870963e+06
   4.975925e+06   1.117773e+06
   2.239695e+06   3.677867e+06
  -1.816431e+06   4.965754e+06
  -4.977968e+06   4.499269e+06
  -5.968523e+06   1.480706e+06
  -4.219801e+06  -3.137887e+06
  -7.465662e+05  -5.929717e+06
   1.781840e+06  -4.633258e+06
   1.668137e+06  -1.352440e+06
   3.168390e+05   6.557025e+04
   2.822362e+05  -9.449786e+05
   1.795427e+06  -1.527489e+06
   2.768209e+06   5.893473e+04
   1.832611e+06   2.119541e+06
  -1.896024e+05   2.177063e+06
  -1.679011e+06   9.454294e+04
  -1.642536e+06  -2.217332e+06
   1.226084e+05  -2.932168e+06
   2.770939e+06  -1.480703e+06
   4.247434e+06   1.327322e+06
   2.943286e+06   3.657134e+06
  -1.164320e+05   3.952756e+06
  -2.139471e+06   2.505214e+06
  -2.071298e+06   1.094489e+06
  -1.768411e+06   7.169927e+05
  -2.924684e+06   4.806760e+05
  -4.308183e+06  -8.029180e+05
  -3.421292e+06  -2.809277e+06
  -4.412857e+04  -4.127890e+06
   3.319654e+06  -3.812860e+06
   4.250900e+06  -1.952279e+06
   2.605446e+06   5.640048e+05
   1.231649e+05   2.245326e+06
  -1.206673e+06   1.849525e+06
  -5.459758e+05  -7.756008e+04
   1.144179e+06  -1.262679e+06
   1.896072e+06  -3.469356e+05
   8.563908e+05   1.204171e+06
  -5.757379e+05   1.098751e+06
  -4.743335e+05  -4.069563e+05
   1.028458e+06  -7.770933e+05
   1.880330e+06   1.148556e+06
   7.592597e+05   3.426276e+06
  -1.483170e+06   3.520340e+06
  -3.154738e+06   1.267745e+06
  -3.414695e+06  -1.432912e+06
  -2.332741e+06  -2.888548e+06
  -4.081887e+05  -2.706116e+06
   1.310863e+06  -1.439755e+06
   1.603056e+06  -1.649524e+05
   4.946624e+05   5.944267e+04
  -3.435205e+05  -7.648294e+05
   4.257013e+05  -1.324380e+06
   1.895799e+06  -5.421577e+05
   2.016490e+06   9.063039e+05
   3.770216e+05   1.415167e+06
  -1.189024e+06   5.585420e+05
  -9.126235e+05  -4.871362e+05
   8.634266e+05  -5.544176e+05
   2.244991e+06   3.355261e+05
   1.791806e+06   1.433986e+06
  -2.821996e+05   2.037551e+06
  -2.388452e+06   1.640320e+06
  -2.813056e+06   2.112732e+05
  -1.194771e+06  -1.289243e+06
   9.439707e+05  -1.466507e+06
   1.543023e+06  -1.541130e+05
   1.633286e+05   1.071487e+06
  -1.539110e+06   6.988795e+05
  -1.719150e+06  -8.194605e+05
  -3.247760e+05  -1.680892e+06
   1.113904e+06  -9.913440e+05
   1.279563e+06   3.175886e+05
   2.555962e+05   7.926078e+05
  -7.905668e+05   4.546066e+04
  -7.099696e+05  -1.074360e+06
   6.231359e+05  -1.413557e+06
   2.037703e+06  -4.840721e+05
   2.018175e+06   1.115319e+06
   3.336892e+05   2.097769e+06
  -1.485433e+06   1.622034e+06
  -1.746326e+06   1.780350e+05
  -4.963970e+05  -8.881412e+05
   6.826779e+05  -8.022847e+05
   6.558643e+05  -5.331161e+04
  -1.262350e+05   3.925361e+05
  -5.333878e+05   2.176533e+05
  -1.634458e+05  -9.276184e+04
   4.410827e+05   4.294748e+04
   5.288024e+05   6.654458e+05
  -2.159689e+05   1.194490e+06
  -1.412199e+06   8.756719e+05
  -2.090454e+06  -4.684138e+05
  -1.425856e+06  -1.997138e+06
   2.855894e+05  -2.442929e+06
   1.678600e+06  -1.400944e+06
   1.727705e+06   1.645568e+05
   8.649083e+05   9.576288e+05
   2.953491e+05   7.159611e+05
   4.410502e+05   2.537384e+05
   5.993418e+05   3.114145e+05
   7.425714e+04   7.530247e+05
  -9.008891e+05   8.943654e+05
  -1.481558e+06   3.023420e+05
  -1.059068e+06  -7.701118e+05
   2.866801e+05  -1.495526e+06
   1.775791e+06  -1.052727e+06
   2.267790e+06   5.468857e+05
   1.104009e+06   2.150846e+06
  -1.060202e+06   2.367632e+06
  -2.583621e+06   9.948981e+05
  -2.375341e+06  -7.092236e+05
  -9.622493e+05  -1.388446e+06
   2.262470e+05  -9.838573e+05
   4.361640e+05  -5.229773e+05
   1.339890e+05  -7.412965e+05
   1.484544e+05  -1.287360e+06
   6.984316e+05  -1.268280e+06
   1.300764e+06  -2.861531e+05
   1.315412e+06   1.126210e+06
   5.083035e+05   1.927591e+06
  -6.691978e+05   1.433156e+06
  -1.301893e+06  -3.293844e+04
  -7.959833e+05  -1.309324e+06
   4.139115e+05  -1.403694e+06
   1.172681e+06  -4.060233e+05
   8.097485e+05   6.937338e+05
  -1.249754e+05   1.073461e+06
  -5.370389e+05   7.894113e+05
  -9.040004e+04   4.327813e+05
   4.213343e+05   3.541447e+05
   4.625420e+04   3.895918e+05
  -1.157263e+06   1.887317e+05
  -2.063200e+06  -3.793444e+05
  -1.608567e+06  -1.080224e+06
   5.532677e+04  -1.441918e+06
   1.613538e+06  -1.111799e+06
   1.854422e+06  -2.461286e+05
   8.430944e+05   5.023954e+05
  -2.661073e+05   5.612185e+05
  -5.153873e+05   3.138918e+04
  -1.896040e+04  -4.109413e+05
   4.586960e+05  -2.430450e+05
   4.748531e+05   3.570092e+05
   2.212365e+05   7.340543e+05
   7.098751e+04   4.811716e+05
   1.471851e+05  -1.010050e+05
   3.058917e+05  -2.949092e+05
   2.754180e+05   2.414383e+05
  -1.771010e+05   9.938363e+05
  -9.335064e+05   1.051180e+06
  -1.359965e+06   1.410536e+05
  -8.217350e+05  -9.380520e+05
   4.421189e+05  -1.128055e+06
   1.263957e+06  -3.012334e+05
   7.225808e+05   6.002309e+05
  -7.242514e+05   6.408475e+05
  -1.610905e+06  -1.348380e+05
  -1.010630e+06  -9.042406e+05
   5.094080e+05  -1.002423e+06
   1.539283e+06  -4.580731e+05
   1.255767e+06   2.234094e+05
   1.260249e+05   5.291350e+05
  -6.655632e+05   2.607474e+05
  -3.797802e+05  -3.020595e+05
   6.057211e+05  -5.061425e+05
   1.188812e+06   1.165633e+05
   6.404319e+05   1.208131e+06
  -6.432212e+05   1.698430e+06
  -1.521834e+06   8.522627e+05
  -1.249807e+06  -7.991592e+05
  -1.586750e+05  -1.818941e+06
   7.853276e+05  -1.294869e+06
   9.373056e+05   1.996824e+05
   4.104266e+05   1.221324e+06
  -2.459979e+05   9.830867e+05
  -5.723515e+05   7.403613e+04
  -4.640038e+05  -3.984758e+05
  -1.633353e+05  -1.483898e+05
  -5.201782e+04   9.769666e+04
  -2.754576e+05  -2.982974e+05
  -4.920345e+05  -9.881475e+05
  -1.678040e+05  -1.102353e+06
   7.316970e+05  -3.882794e+05
   1.482152e+06   5.082480e+05
   1.277197e+06   8.837675e+05
   1.713030e+05   7.122074e+05
  -8.744759e+05   3.997983e+05
  -1.002855e+06   1.592974e+05
  -3.662367e+05  -5.882009e+04
   1.523382e+05  -2.234632e+05
   4.368083e+04  -2.115303e+05
  -2.626694e+05  -1.065097e+05
  -4.834912e+04  -1.339809e+05
   6.721343e+05  -2.193096e+05
   1.058510e+06   3.355960e+04
   4.266791e+05   7.035598e+05
  -8.729250e+05   1.171142e+06
  -1.735704e+06   7.345793e+05
  -1.420566e+06  -4.592672e+05
  -2.491560e+05  -1.427533e+06
   8.052820e+05  -1.379381e+06
   1.071127e+06  -5.256139e+05
   6.558025e+05   2.475828e+05
   1.298360e+05   3.637822e+05
  -6.640846e+04   6.402840e+04
   8.715663e+04  -1.407313e+04
   2.961101e+05   3.823782e+05
   2.317208e+05   8.258858e+05
  -1.933515e+05   6.844754e+05
  -6.834112e+05  -1.332342e+05
  -7.303010e+05  -9.714665e+05
  -1.046096e+05  -1.042462e+06
   7.591352e+05  -2.401659e+05
   1.032721e+06   7.417149e+05
   3.372519e+05   1.107339e+06
  -7.303448e+05   6.772533e+05
  -1.133532e+06  -9.211853e+04
  -5.339118e+05  -6.321559e+05
   2.996291e+05  -6.880160e+05
   3.957162e+05  -3.707369e+05
  -2.424585e+05  -1.538752e+04
  -6.562398e+05   2.781615e+04
  -1.458842e+05  -3.145530e+05
   8.494328e+05  -6.711867e+05
   1.294482e+06  -5.218956e+05
   7.787456e+05   1.951932e+05
  -1.113516e+05   8.811204e+05
  -5.794744e+05   8.634319e+05
  -4.382136e+05   1.654867e+05
  -4.807035e+04  -4.810972e+05
   2.463611e+05  -4.400322e+05
   3.499937e+05   1.486707e+05
   2.482577e+05   5.883524e+05
  -5.557289e+04   4.372220e+05
  -3.939602e+05  -4.867158e+04
  -4.818949e+05  -2.961504e+05
  -2.462969e+05  -1.062941e+05
   3.867938e+04   1.563899e+05
   8.913759e+04   5.689357e+04
  -1.386487e+04  -3.484286e+05
   4.120867e+04  -5.572225e+05
   3.152556e+05  -2.273509e+05
   4.635402e+05   3.777588e+05
   1.612104e+05   6.508726e+05
  -4.128078e+05   3.140085e+05
  -6.713295e+05  -2.859853e+05
  -2.505851e+05  -5.798371e+05
   5.218227e+05  -3.644064e+05
   8.960491e+05   8.468264e+04
   4.816371e+05   3.888772e+05
  -3.011426e+05   4.070557e+05
  -6.498213e+05   2.296778e+05
  -2.600709e+05   1.890898e+04
   3.393265e+05  -6.673583e+04
   4.040188e+05   6.273655e+04
  -1.694126e+05   2.832387e+05
  -7.439828e+05   2.584678e+05
