
 $NMID
 id='ANONYMOUS ', fmtdat='(2E16.6)'
 volume=1.0
 tramp=1.0
 $END
   3.305152e+07   6.768373e+04
   2.111189e+07   1.757109e+07
  -1.857570e+06   2.147815e+07
  -1.503803e+07   1.169964e+07
  -1.100752e+07  -8.425449e+05
   3.602287e+05  -5.739792e+06
   6.321255e+06  -1.494489e+06
   3.680717e+06   5.468918e+06
  -2.379899e+06   7.660327e+06
  -5.980440e+06   2.916103e+06
  -4.872701e+06  -4.041054e+06
  -6.007371e+05  -6.207302e+06
   2.885463e+06  -1.509472e+06
   2.190168e+06   4.760413e+06
  -2.028376e+06   5.634051e+06
  -5.185701e+06   7.997353e+04
  -3.539190e+06  -6.303030e+06
   1.770549e+06  -7.731391e+06
   6.173393e+06  -3.750421e+06
   6.415313e+06   1.643897e+06
   3.189336e+06   4.572165e+06
  -1.585225e+05   4.231100e+06
  -7.995771e+05   2.574952e+06
   1.040462e+06   2.078575e+06
   2.126683e+06   3.339431e+06
  -4.309878e+05   4.414900e+06
  -5.332685e+06   2.995980e+06
  -7.715473e+06  -6.255940e+05
  -4.635777e+06  -3.540033e+06
   1.078939e+06  -3.419889e+06
   3.874775e+06  -9.049748e+05
   1.741580e+06   1.485462e+06
  -2.125187e+06   1.861057e+06
  -3.631351e+06   4.361956e+04
  -2.004862e+06  -2.629517e+06
   5.551687e+05  -3.887092e+06
   1.822057e+06  -2.187512e+06
   1.275511e+06   1.094312e+06
  -6.391899e+04   2.316272e+06
  -5.976775e+05  -1.034309e+05
   4.786068e+05  -3.013426e+06
   2.069920e+06  -2.201131e+06
   1.978375e+06   1.767339e+06
  -4.852375e+05   3.832792e+06
  -3.119626e+06   1.004940e+06
  -2.901278e+06  -3.657064e+06
   6.130737e+05  -4.913271e+06
   4.526086e+06  -1.560968e+06
   5.323985e+06   2.837330e+06
   2.159798e+06   4.440390e+06
  -2.377174e+06   2.644352e+06
  -4.513164e+06  -4.254131e+05
  -2.640496e+06  -2.281728e+06
   1.150733e+06  -1.802057e+06
   3.093222e+06   1.687893e+05
   1.635915e+06   1.536500e+06
  -1.004617e+06   9.733007e+05
  -1.610806e+06  -6.123957e+05
   2.002822e+05  -1.178630e+06
   1.760811e+06  -5.129218e+04
   8.166418e+05   1.398534e+06
  -1.795891e+06   1.530309e+06
  -3.265385e+06   5.644558e+04
  -1.881993e+06  -2.123809e+06
   1.455604e+06  -3.718521e+06
   4.310059e+06  -3.457427e+06
   4.793358e+06  -8.607579e+05
   2.920096e+06   2.717449e+06
   4.027789e+05   4.701059e+06
  -9.468061e+05   3.870047e+06
  -8.661179e+05   1.793780e+06
  -6.234778e+05   8.216346e+05
  -1.302353e+06   1.130723e+06
  -2.453604e+06   8.798946e+05
  -2.708168e+06  -8.658544e+05
  -1.414474e+06  -2.623911e+06
   6.723072e+05  -2.354278e+06
   2.091497e+06  -1.247433e+04
   1.767984e+06   2.373947e+06
  -2.381128e+05   2.802633e+06
  -2.561480e+06   1.035632e+06
  -3.361191e+06  -1.468350e+06
  -1.977433e+06  -2.935460e+06
   2.511891e+05  -2.705607e+06
   1.402081e+06  -1.598663e+06
   1.214826e+06  -8.912169e+05
   1.237106e+06  -9.036777e+05
   2.510443e+06  -7.626872e+05
   3.867171e+06   4.099105e+05
   3.215677e+06   2.345977e+06
   2.140280e+05   3.792069e+06
  -3.035853e+06   3.613418e+06
  -4.053754e+06   1.712502e+06
  -2.374091e+06  -7.934321e+05
   1.844822e+05  -2.211911e+06
   1.360105e+06  -1.599249e+06
   4.797307e+05   1.870935e+05
  -1.137340e+06   1.148498e+06
  -1.664277e+06   3.194203e+05
  -6.507712e+05  -1.046275e+06
   6.228818e+05  -1.053551e+06
   6.659857e+05   3.121793e+05
  -5.703361e+05   1.066952e+06
  -1.716501e+06  -2.299415e+05
  -1.446359e+06  -2.566467e+06
   3.256891e+05  -3.576056e+06
   2.487848e+06  -2.125176e+06
   3.589779e+06   6.565373e+05
   2.814417e+06   2.676100e+06
   6.516738e+05   2.766939e+06
  -1.279658e+06   1.426965e+06
  -1.569708e+06   1.278730e+05
  -4.644327e+05  -4.210510e+04
   3.538954e+05   6.948473e+05
  -2.772035e+05   1.153920e+06
  -1.583090e+06   5.430188e+05
  -1.818311e+06  -6.324911e+05
  -4.690270e+05  -1.182691e+06
   1.046256e+06  -6.091932e+05
   1.000136e+06   3.969222e+05
  -6.744602e+05   7.602538e+05
  -2.272916e+06   4.880694e+04
  -2.058957e+06  -1.245988e+06
   5.553406e+03  -2.127477e+06
   2.199048e+06  -1.797765e+06
   2.656872e+06  -3.503161e+05
   1.135350e+06   1.087990e+06
  -7.843801e+05   1.268176e+06
  -1.287858e+06   1.501039e+05
  -1.000653e+05  -9.205382e+05
   1.384946e+06  -6.713361e+05
   1.641459e+06   6.330607e+05
   4.961273e+05   1.532717e+06
  -8.829764e+05   1.096324e+06
  -1.237638e+06  -7.984561e+04
  -3.891019e+05  -6.685646e+05
   6.539332e+05  -9.389246e+04
   6.638737e+05   9.569251e+05
  -5.713537e+05   1.317964e+06
  -1.902462e+06   4.702866e+05
  -1.895089e+06  -1.002155e+06
  -3.770547e+05  -1.923511e+06
   1.279150e+06  -1.557197e+06
   1.597647e+06  -2.775795e+05
   5.486043e+05   7.797884e+05
  -5.777528e+05   8.096347e+05
  -6.943763e+05   6.901413e+04
   2.495914e+04  -5.133693e+05
   5.971127e+05  -3.824745e+05
   3.952944e+05   1.031832e+05
  -2.774469e+05   1.714738e+05
  -5.777925e+05  -4.314572e+05
   4.139478e+04  -1.086942e+06
   1.241645e+06  -8.998126e+05
   1.968817e+06   3.407428e+05
   1.394340e+06   1.810001e+06
  -1.852288e+05   2.331492e+06
  -1.539325e+06   1.481334e+06
  -1.731046e+06  -3.520295e+03
  -1.015576e+06  -9.589513e+05
  -3.695110e+05  -9.061270e+05
  -3.030661e+05  -3.842425e+05
  -4.137924e+05  -2.225307e+05
  -6.797754e+04  -6.010037e+05
   7.583980e+05  -8.961336e+05
   1.403225e+06  -4.261565e+05
   1.140669e+06   7.033198e+05
  -1.286370e+05   1.541039e+06
  -1.637587e+06   1.150597e+06
  -2.203382e+06  -4.014939e+05
  -1.191054e+06  -1.951300e+06
   7.919830e+05  -2.246295e+06
   2.296125e+06  -1.107891e+06
   2.310832e+06   4.475633e+05
   1.136638e+06   1.253940e+06
  -6.855277e+04   1.083371e+06
  -4.930084e+05   6.586390e+05
  -3.038432e+05   6.963459e+05
  -2.041255e+05   1.096514e+06
  -5.857057e+05   1.119091e+06
  -1.151266e+06   2.771952e+05
  -1.244706e+06  -1.031196e+06
  -5.250110e+05  -1.806542e+06
   6.018728e+05  -1.372129e+06
   1.238621e+06  -3.922417e+04
   8.255383e+05   1.143039e+06
  -2.450004e+05   1.318549e+06
  -9.692301e+05   5.310935e+05
  -7.607049e+05  -4.470650e+05
  -3.653245e+04  -9.064779e+05
   3.209038e+05  -7.733972e+05
   3.536423e+03  -4.699256e+05
  -3.800632e+05  -3.550895e+05
  -3.802149e+04  -3.796595e+05
   1.025418e+06  -2.335963e+05
   1.874013e+06   2.592084e+05
   1.544698e+06   9.082982e+05
   8.838057e+04   1.279758e+06
  -1.368977e+06   1.060110e+06
  -1.691414e+06   3.610970e+05
  -8.386841e+05  -3.135713e+05
   1.835481e+05  -4.729802e+05
   4.456596e+05  -9.772225e+04
  -1.328130e+04   3.093766e+05
  -4.668538e+05   2.206719e+05
  -4.413992e+05  -3.250715e+05
  -1.349359e+05  -7.165611e+05
   9.212564e+03  -4.621730e+05
  -1.421832e+05   1.668390e+05
  -3.482302e+05   3.749432e+05
  -2.855728e+05  -2.050732e+05
   1.805879e+05  -9.764436e+05
   8.418523e+05  -1.000955e+06
   1.166198e+06  -1.050891e+05
   6.890674e+05   8.680768e+05
  -3.873104e+05   9.850292e+05
  -1.120597e+06   2.240454e+05
  -6.845473e+05  -5.764706e+05
   6.366610e+05  -6.445237e+05
   1.563779e+06   1.977707e+04
   1.110838e+06   7.883170e+05
  -3.486871e+05   1.038373e+06
  -1.458308e+06   6.211408e+05
  -1.278900e+06  -9.374312e+04
  -1.880404e+05  -5.169588e+05
   6.071106e+05  -3.141926e+05
   3.353374e+05   2.447252e+05
  -6.061983e+05   4.506590e+05
  -1.121213e+06  -1.509166e+05
  -5.506390e+05  -1.167339e+06
   6.712892e+05  -1.590518e+06
   1.472555e+06  -7.807413e+05
   1.201472e+06   7.639579e+05
   1.843893e+05   1.746517e+06
  -7.116337e+05   1.304253e+06
  -9.127185e+05  -1.015320e+05
  -4.892640e+05  -1.139387e+06
   1.217542e+05  -9.867907e+05
   5.164724e+05  -1.213598e+05
   5.145008e+05   3.782595e+05
   2.281516e+05   1.560040e+05
   2.033193e+04  -1.143385e+05
   1.717717e+05   2.340074e+05
   4.577321e+05   9.093058e+05
   2.716987e+05   1.057693e+06
  -5.922776e+05   4.009117e+05
  -1.439105e+06  -4.470793e+05
  -1.317432e+06  -8.048789e+05
  -1.909163e+05  -6.566802e+05
   8.903775e+05  -3.975377e+05
   9.754233e+05  -2.043822e+05
   2.913773e+05   8.204614e+03
  -1.667142e+05   2.100427e+05
   4.493495e+04   2.391761e+05
   3.397445e+05   1.380721e+05
   1.613785e+04   1.329687e+05
  -7.274033e+05   1.930037e+05
  -9.968524e+05  -3.835723e+04
  -2.922629e+05  -6.511351e+05
   8.918999e+05  -1.079341e+06
   1.580473e+06  -6.622408e+05
   1.252678e+06   4.649111e+05
   2.268280e+05   1.367550e+06
  -7.200732e+05   1.293694e+06
  -1.008804e+06   4.585592e+05
  -6.409587e+05  -2.714543e+05
  -9.260868e+04  -3.433572e+05
   1.371948e+05  -1.469814e+04
  -5.292768e+04   7.116491e+04
  -3.259502e+05  -3.310930e+05
  -2.673113e+05  -7.788829e+05
   1.913440e+05  -6.355450e+05
   6.696579e+05   1.728675e+05
   6.589066e+05   9.699131e+05
   2.084932e+04   9.825700e+05
  -7.702794e+05   1.601988e+05
  -9.654501e+05  -7.660141e+05
  -2.799516e+05  -1.044262e+06
   7.002054e+05  -5.919006e+05
   1.037493e+06   9.848265e+04
   4.663039e+05   5.397163e+05
  -2.728796e+05   5.829255e+05
  -3.053699e+05   3.370638e+05
   3.038789e+05   3.732245e+04
   6.419444e+05  -2.325574e+04
   1.163191e+05   2.833496e+05
  -7.973672e+05   6.575557e+05
  -1.157179e+06   5.640555e+05
  -6.660394e+05  -1.208981e+05
   1.029684e+05  -8.083808e+05
   4.766285e+05  -7.935692e+05
   3.427159e+05  -1.062789e+05
   1.321614e+04   4.875465e+05
  -2.442412e+05   3.808519e+05
  -3.402050e+05  -2.024375e+05
  -2.313737e+05  -5.585029e+05
   6.827100e+04  -3.559518e+05
   3.725211e+05   7.129004e+04
   4.353649e+05   2.310284e+05
   2.324113e+05   5.714506e+04
  -3.053103e+03  -9.762345e+04
  -7.994114e+04   5.390139e+04
  -7.354028e+04   3.764900e+05
  -1.668808e+05   4.614204e+05
  -3.433975e+05   9.940832e+04
  -3.581643e+05  -4.364715e+05
  -4.145581e+04  -6.310158e+05
   4.239103e+05  -2.697873e+05
   5.964923e+05   3.115686e+05
   2.094287e+05   5.760896e+05
  -4.723145e+05   3.393918e+05
  -8.122989e+05  -1.045862e+05
  -4.401896e+05  -3.675130e+05
   2.845090e+05  -3.384749e+05
   5.990806e+05  -1.606838e+05
   1.945232e+05  -7.065913e+03
  -3.969688e+05   1.481198e+04
  -4.154824e+05  -1.302927e+05
   2.170672e+05  -3.169830e+05
   8.027270e+05  -2.516077e+05
