
 $NMID
 id='ANONYMOUS ', fmtdat='(2E16.6)'
 volume=1.0
 tramp=1.0
 $END
  -1.816170e+07   2.330646e+06
  -1.358797e+07  -7.357482e+06
  -1.421150e+06  -1.195244e+07
   7.415189e+06  -8.639095e+06
   6.919834e+06  -1.209122e+06
   7.046494e+05   3.469329e+06
  -3.789098e+06   1.943280e+06
  -3.116162e+06  -2.879217e+06
   5.809067e+05  -5.227085e+06
   3.375085e+06  -2.565976e+06
   3.190330e+06   2.086675e+06
   7.009772e+05   3.771572e+06
  -1.648879e+06   9.679973e+05
  -1.599686e+06  -3.018203e+06
   8.385776e+05  -3.832397e+06
   3.120158e+06  -6.281272e+05
   2.654880e+06   3.418957e+06
  -3.827854e+05   4.685274e+06
  -3.253245e+06   2.558710e+06
  -3.628540e+06  -6.069809e+05
  -1.840183e+06  -2.278057e+06
  -1.259245e+05  -2.017100e+06
  -1.320863e+05  -1.271717e+06
  -1.325669e+06  -1.464008e+06
  -1.635936e+06  -2.497227e+06
   3.186021e+05  -3.007241e+06
   3.435924e+06  -1.924700e+06
   4.831036e+06   2.926617e+05
   2.854318e+06   2.013921e+06
  -7.638838e+05   1.975246e+06
  -2.524907e+06   4.198649e+05
  -9.965944e+05  -1.182392e+06
   1.730002e+06  -1.394824e+06
   2.689041e+06   4.502575e+04
   1.321005e+06   1.956344e+06
  -5.091013e+05   2.584765e+06
  -1.090506e+06   1.232115e+06
  -4.836709e+05  -7.718541e+05
   2.182038e+05  -1.223645e+06
   2.445868e+05   4.163976e+05
  -4.326115e+05   2.109715e+06
  -1.272561e+06   1.553834e+06
  -1.403608e+06  -8.572859e+05
  -2.859773e+05  -2.318254e+06
   1.382370e+06  -1.013007e+06
   1.870989e+06   1.653815e+06
   1.905425e+05   2.762963e+06
  -2.438094e+06   1.208090e+06
  -3.492518e+06  -1.379370e+06
  -1.746023e+06  -2.684839e+06
   1.336098e+06  -1.924657e+06
   3.014608e+06  -8.730901e+04
   1.982241e+06   1.278833e+06
  -4.685830e+05   1.280395e+06
  -1.897081e+06   2.097608e+05
  -1.185073e+06  -7.656819e+05
   4.935176e+05  -6.705958e+05
   1.120742e+06   2.859910e+05
   9.326980e+04   9.332900e+05
  -1.182705e+06   4.679524e+05
  -9.981450e+05  -6.424907e+05
   6.284807e+05  -1.201620e+06
   1.934382e+06  -5.146081e+05
   1.372882e+06   1.025701e+06
  -7.353174e+05   2.300186e+06
  -2.627784e+06   2.246368e+06
  -2.921412e+06   6.323927e+05
  -1.776606e+06  -1.585387e+06
  -3.919022e+05  -2.882772e+06
   3.176715e+05  -2.554176e+06
   4.217149e+05  -1.407794e+06
   5.653195e+05  -7.380797e+05
   1.110737e+06  -7.359339e+05
   1.733621e+06  -4.361726e+05
   1.765761e+06   7.098267e+05
   8.754615e+05   1.828031e+06
  -5.293395e+05   1.611896e+06
  -1.505069e+06   1.255151e+03
  -1.266029e+06  -1.620218e+06
   1.178911e+05  -1.870595e+06
   1.633140e+06  -6.740627e+05
   2.100074e+06   8.876255e+05
   1.243690e+06   1.712637e+06
  -4.402363e+04   1.551517e+06
  -6.811639e+05   9.700990e+05
  -6.008477e+05   6.528312e+05
  -7.198189e+05   7.221291e+05
  -1.618187e+06   6.626892e+05
  -2.563816e+06  -8.052056e+04
  -2.219062e+06  -1.410588e+06
  -2.849559e+05  -2.507307e+06
   1.909882e+06  -2.487097e+06
   2.654517e+06  -1.202606e+06
   1.557381e+06   5.221313e+05
  -1.464946e+05   1.470744e+06
  -9.055122e+05   1.047434e+06
  -3.086995e+05  -1.315624e+05
   7.340659e+05  -7.785204e+05
   1.068929e+06  -2.695851e+05
   4.343688e+05   6.426078e+05
  -4.044961e+05   7.197747e+05
  -5.110505e+05  -1.867006e+05
   2.814899e+05  -8.399513e+05
   1.206370e+06  -1.031197e+05
   1.259894e+06   1.577317e+06
   1.060533e+05   2.547711e+06
  -1.571118e+06   1.741770e+06
  -2.557756e+06  -2.198609e+05
  -2.090359e+06  -1.759611e+06
  -5.445340e+05  -1.901221e+06
   8.355276e+05  -9.925107e+05
   1.055249e+06  -1.115168e+05
   3.124503e+05   1.374907e+04
  -2.631317e+05  -4.476623e+05
   1.139239e+05  -7.617721e+05
   9.906898e+05  -4.294629e+05
   1.227406e+06   3.096251e+05
   3.890154e+05   7.467110e+05
  -6.637461e+05   4.613232e+05
  -7.127395e+05  -2.299375e+05
   4.137763e+05  -5.863090e+05
   1.575546e+06  -1.603357e+05
   1.495457e+06   7.844723e+05
   9.276415e+04   1.486145e+06
  -1.427611e+06   1.314313e+06
  -1.774605e+06   3.349626e+05
  -7.987801e+05  -6.660204e+05
   4.526468e+05  -8.473638e+05
   8.145107e+05  -1.511845e+05
   8.805003e+04   5.821851e+05
  -8.872618e+05   4.915412e+05
  -1.125829e+06  -3.462997e+05
  -4.216236e+05  -1.011743e+06
   5.317648e+05  -8.082925e+05
   8.532446e+05  -3.235474e+04
   3.230499e+05   4.262033e+05
  -4.084802e+05   9.998185e+04
  -4.645851e+05  -6.011587e+05
   3.417954e+05  -8.826559e+05
   1.247001e+06  -3.614182e+05
   1.285164e+06   6.073270e+05
   3.179971e+05   1.262026e+06
  -7.856484e+05   1.085959e+06
  -1.056480e+06   2.569005e+05
  -4.135067e+05  -4.979147e+05
   3.493958e+05  -5.738856e+05
   4.799315e+05  -6.534193e+04
   9.207229e+03   3.806019e+05
  -4.217334e+05   3.019104e+05
  -3.193210e+05  -8.167991e+04
   1.651001e+05  -1.798379e+05
   4.276504e+05   2.349209e+05
   3.798806e+04   7.271011e+05
  -7.894722e+05   6.509938e+05
  -1.324066e+06  -1.563210e+05
  -9.875265e+05  -1.157211e+06
   4.991998e+04  -1.570219e+06
   9.924429e+05  -1.066586e+06
   1.191380e+06  -6.715461e+04
   7.446352e+05   6.471131e+05
   2.707999e+05   6.614620e+05
   1.700369e+05   2.765634e+05
   2.471466e+05   1.095985e+05
   6.438930e+04   3.719269e+05
  -4.689834e+05   6.324087e+05
  -9.372879e+05   3.456648e+05
  -8.089984e+05  -4.510404e+05
   2.910911e+04  -1.071261e+06
   1.067237e+06  -8.422141e+05
   1.499205e+06   1.943074e+05
   8.808485e+05   1.262277e+06
  -4.228180e+05   1.532088e+06
  -1.479888e+06   8.449565e+05
  -1.584304e+06  -1.933840e+05
  -8.483588e+05  -8.122890e+05
  -3.549480e+03  -7.729979e+05
   3.465899e+05  -4.841945e+05
   2.298895e+05  -4.555170e+05
   1.164215e+05  -7.006976e+05
   3.390272e+05  -7.458744e+05
   7.413952e+05  -2.196949e+05
   8.561175e+05   6.493410e+05
   4.045197e+05   1.190308e+06
  -3.618534e+05   9.348799e+05
  -8.309698e+05   7.280957e+04
  -6.020437e+05  -7.234489e+05
   9.502844e+04  -8.932306e+05
   6.094315e+05  -4.241225e+05
   5.315984e+05   2.274846e+05
   9.232735e+04   5.874878e+05
  -1.505757e+05   5.433356e+05
   2.499901e+04   3.351380e+05
   2.547838e+05   2.329677e+05
   3.043842e+04   2.551153e+05
  -6.653317e+05   1.969303e+05
  -1.242022e+06  -1.005668e+05
  -1.063826e+06  -5.429656e+05
  -1.304332e+05  -8.388034e+05
   8.481670e+05  -7.513398e+05
   1.112659e+06  -3.174441e+05
   5.888443e+05   1.511781e+05
  -9.030298e+04   3.097658e+05
  -2.894495e+05   9.515493e+04
   5.032297e+03  -1.852593e+05
   3.157351e+05  -1.533328e+05
   3.013329e+05   2.039813e+05
   8.529320e+04   4.760967e+05
  -1.550164e+04   3.050170e+05
   9.773738e+04  -1.317270e+05
   2.451804e+05  -2.764519e+05
   2.006403e+05   1.272132e+05
  -1.066134e+05   6.623430e+05
  -5.286921e+05   6.886170e+05
  -7.409164e+05   9.627523e+04
  -4.567694e+05  -5.519180e+05
   2.225205e+05  -6.461079e+05
   7.188362e+05  -1.639093e+05
   4.692050e+05   3.717865e+05
  -4.009680e+05   4.576511e+05
  -1.061888e+06   4.623989e+04
  -8.026507e+05  -4.954368e+05
   1.824925e+05  -7.330560e+05
   9.728725e+05  -4.944351e+05
   8.862647e+05   1.042098e+04
   1.534594e+05   3.495018e+05
  -3.962064e+05   2.423620e+05
  -2.257112e+05  -1.425663e+05
   3.998820e+05  -3.040894e+05
   7.466166e+05   8.521054e+04
   3.776301e+05   7.680000e+05
  -4.266681e+05   1.067459e+06
  -9.715411e+05   5.453197e+05
  -8.233751e+05  -4.861459e+05
  -1.692209e+05  -1.170252e+06
   4.430728e+05  -9.084617e+05
   6.236153e+05   2.679436e+04
   3.786160e+05   7.514901e+05
  -3.424076e+04   6.823368e+05
  -3.381308e+05   1.070665e+05
  -3.704477e+05  -2.459066e+05
  -1.733969e+05  -1.074597e+05
  -4.953736e+03   8.467092e+04
  -1.001849e+05  -1.334150e+05
  -3.257924e+05  -5.887477e+05
  -2.336116e+05  -7.108254e+05
   3.623990e+05  -2.964421e+05
   9.819596e+05   2.595404e+05
   9.270875e+05   5.068077e+05
   1.503133e+05   4.314104e+05
  -6.028475e+05   2.857337e+05
  -6.565563e+05   1.700734e+05
  -1.835781e+05   1.684932e+04
   1.120912e+05  -1.423730e+05
  -5.468726e+04  -1.749384e+05
  -2.499995e+05  -1.002758e+05
  -5.235911e+03  -8.733641e+04
   5.031892e+05  -1.346437e+05
   6.636479e+05   4.501928e+03
   1.817857e+05   4.161971e+05
  -5.854935e+05   7.281461e+05
  -1.021153e+06   4.730832e+05
  -8.204293e+05  -2.837620e+05
  -1.783309e+05  -9.109146e+05
   4.399249e+05  -8.785182e+05
   6.584380e+05  -3.182421e+05
   4.356919e+05   1.776263e+05
   6.144944e+04   2.241379e+05
  -1.070474e+05  -4.261979e+03
   3.005832e+04  -6.545128e+04
   2.384579e+05   2.085728e+05
   2.083776e+05   5.155384e+05
  -1.141101e+05   4.242180e+05
  -4.528063e+05  -1.134776e+05
  -4.497053e+05  -6.424832e+05
  -1.648517e+04  -6.486017e+05
   5.190077e+05  -1.036162e+05
   6.539930e+05   5.049814e+05
   2.002901e+05   6.868160e+05
  -4.529400e+05   3.971866e+05
  -6.842272e+05  -4.313787e+04
  -3.166797e+05  -3.316379e+05
   1.615758e+05  -3.775862e+05
   1.768833e+05  -2.325355e+05
  -2.216234e+05  -2.918005e+04
  -4.328852e+05   2.739323e+04
  -7.917023e+04  -1.813750e+05
   5.169706e+05  -4.627997e+05
   7.464695e+05  -4.250142e+05
   4.331446e+05   4.444101e+04
  -4.809442e+04   5.352863e+05
  -2.801079e+05   5.388858e+05
  -2.043573e+05   7.030749e+04
  -9.160207e+03  -3.312143e+05
   1.550233e+05  -2.495321e+05
   2.296872e+05   1.441040e+05
   1.657706e+05   3.676235e+05
  -3.774864e+04   2.230062e+05
  -2.483483e+05  -4.560734e+04
  -2.936745e+05  -1.301781e+05
  -1.591600e+05  -2.171810e+04
  -1.038715e+03   4.967725e+04
   5.825286e+04  -6.587176e+04
   6.607271e+04  -2.590167e+05
   1.295047e+05  -2.860059e+05
   2.307658e+05  -4.119430e+04
   2.227134e+05   2.981380e+05
   1.207060e+04   4.164925e+05
  -2.835531e+05   1.801022e+05
  -3.920427e+05  -2.025481e+05
  -1.434600e+05  -3.847758e+05
   3.015740e+05  -2.368889e+05
   5.332692e+05   5.549978e+04
   2.978948e+05   2.340564e+05
  -1.788247e+05   2.202193e+05
  -3.881661e+05   1.072733e+05
  -1.158095e+05   9.781827e+03
   2.806435e+05  -1.457034e+03
   2.839928e+05   9.790198e+04
  -1.554168e+05   2.251852e+05
  -5.557318e+05   1.811904e+05
