
 $NMID
 id='ANONYMOUS ', fmtdat='(2E16.6)'
 volume=1.0
 tramp=1.0
 $END
   3.280751e+07   2.963466e+05
   2.065559e+07   1.795180e+07
  -2.317442e+06   2.140853e+07
  -1.513491e+07   1.111593e+07
  -1.074037e+07  -1.313442e+06
   5.771061e+05  -5.655732e+06
   6.188820e+06  -1.176290e+06
   3.360768e+06   5.462337e+06
  -2.545097e+06   7.301854e+06
  -5.899903e+06   2.642516e+06
  -4.725689e+06  -3.982930e+06
  -5.604435e+05  -6.023614e+06
   2.803326e+06  -1.509271e+06
   2.077309e+06   4.525721e+06
  -2.057067e+06   5.347038e+06
  -5.070739e+06  -6.276024e+04
  -3.353178e+06  -6.240491e+06
   1.871164e+06  -7.565238e+06
   6.135926e+06  -3.648685e+06
   6.362657e+06   1.625572e+06
   3.228636e+06   4.551706e+06
  -1.208737e+05   4.317333e+06
  -9.358773e+05   2.674998e+06
   7.473077e+05   1.999298e+06
   1.909447e+06   3.058913e+06
  -3.727998e+05   4.131448e+06
  -5.033167e+06   2.897489e+06
  -7.398127e+06  -5.381345e+05
  -4.527050e+06  -3.391946e+06
   9.223992e+05  -3.337049e+06
   3.631140e+06  -9.674708e+05
   1.691008e+06   1.287217e+06
  -1.885071e+06   1.677592e+06
  -3.316381e+06   6.605399e+04
  -1.900000e+06  -2.397068e+06
   4.404847e+05  -3.671431e+06
   1.731146e+06  -2.182290e+06
   1.353173e+06   9.654313e+05
   6.282511e+04   2.283565e+06
  -5.827813e+05   5.116199e+04
   3.983261e+05  -2.793120e+06
   1.987155e+06  -2.067164e+06
   1.885896e+06   1.776553e+06
  -6.232947e+05   3.762122e+06
  -3.220163e+06   9.159411e+05
  -2.861153e+06  -3.699676e+06
   7.107221e+05  -4.875242e+06
   4.480074e+06  -1.497373e+06
   5.104913e+06   2.816771e+06
   1.981618e+06   4.301212e+06
  -2.325530e+06   2.479325e+06
  -4.293053e+06  -5.006235e+05
  -2.459883e+06  -2.245327e+06
   1.176184e+06  -1.718893e+06
   3.010613e+06   2.265622e+05
   1.558325e+06   1.537402e+06
  -9.969780e+05   9.396458e+05
  -1.522530e+06  -6.102735e+05
   2.692686e+05  -1.083794e+06
   1.700725e+06   9.133005e+04
   6.515849e+05   1.459347e+06
  -1.904481e+06   1.445771e+06
  -3.218042e+06  -7.399361e+04
  -1.786064e+06  -2.146148e+06
   1.421687e+06  -3.607124e+06
   4.132664e+06  -3.334642e+06
   4.623632e+06  -8.478626e+05
   2.858260e+06   2.610428e+06
   3.950450e+05   4.538235e+06
  -9.775883e+05   3.704139e+06
  -8.898716e+05   1.642616e+06
  -5.579033e+05   6.940101e+05
  -1.134129e+06   1.049006e+06
  -2.250538e+06   8.842128e+05
  -2.552957e+06  -7.443039e+05
  -1.368639e+06  -2.422193e+06
   5.852606e+05  -2.198186e+06
   1.925279e+06  -2.276787e+04
   1.648930e+06   2.214243e+06
  -2.150922e+05   2.645874e+06
  -2.430424e+06   1.010805e+06
  -3.241158e+06  -1.378623e+06
  -1.939162e+06  -2.838514e+06
   2.384861e+05  -2.661494e+06
   1.398800e+06  -1.579196e+06
   1.227240e+06  -8.470805e+05
   1.213123e+06  -8.245904e+05
   2.396275e+06  -6.814071e+05
   3.670761e+06   4.338099e+05
   3.033367e+06   2.255844e+06
   1.762195e+05   3.593082e+06
  -2.887419e+06   3.405825e+06
  -3.833005e+06   1.624141e+06
  -2.253554e+06  -7.276700e+05
   1.471451e+05  -2.083123e+06
   1.266364e+06  -1.527865e+06
   4.573583e+05   1.632527e+05
  -1.069338e+06   1.087478e+06
  -1.583578e+06   3.012897e+05
  -6.293438e+05  -9.979065e+05
   5.782140e+05  -9.949381e+05
   6.046030e+05   2.975854e+05
  -5.745670e+05   9.682388e+05
  -1.615589e+06  -3.052187e+05
  -1.283125e+06  -2.486692e+06
   4.165191e+05  -3.344535e+06
   2.394890e+06  -1.908180e+06
   3.351439e+06   6.931750e+05
   2.596463e+06   2.535193e+06
   5.864733e+05   2.593945e+06
  -1.208828e+06   1.340804e+06
  -1.479965e+06   1.222085e+05
  -4.400001e+05  -4.171851e+04
   3.296333e+05   6.584583e+05
  -2.762401e+05   1.096530e+06
  -1.514971e+06   5.054489e+05
  -1.722460e+06  -6.208360e+05
  -4.305333e+05  -1.129067e+06
   9.924426e+05  -5.641099e+05
   9.270148e+05   3.793251e+05
  -6.507120e+05   6.886682e+05
  -2.127836e+06   4.715093e+03
  -1.904682e+06  -1.188859e+06
   3.351549e+04  -1.987147e+06
   2.084717e+06  -1.669459e+06
   2.510530e+06  -3.121121e+05
   1.070443e+06   1.041955e+06
  -7.535934e+05   1.207799e+06
  -1.233361e+06   1.392151e+05
  -9.835622e+04  -8.778670e+05
   1.315011e+06  -6.299683e+05
   1.546410e+06   6.135629e+05
   4.483504e+05   1.451591e+06
  -8.489953e+05   1.017408e+06
  -1.162876e+06  -9.666001e+04
  -3.520704e+05  -6.356004e+05
   6.235844e+05  -7.938012e+04
   6.220202e+05   9.108922e+05
  -5.463324e+05   1.243368e+06
  -1.800729e+06   4.367073e+05
  -1.788713e+06  -9.568324e+05
  -3.458389e+05  -1.823477e+06
   1.223307e+06  -1.466027e+06
   1.514720e+06  -2.499591e+05
   5.104191e+05   7.408865e+05
  -5.510341e+05   7.578989e+05
  -6.470080e+05   6.481147e+04
   3.249960e+04  -4.669800e+05
   5.525691e+05  -3.416660e+05
   3.477191e+05   9.406729e+04
  -2.752507e+05   1.369591e+05
  -5.346465e+05  -4.298234e+05
   5.994017e+04  -1.030143e+06
   1.185302e+06  -8.385818e+05
   1.859618e+06   3.377858e+05
   1.307968e+06   1.721747e+06
  -1.880038e+05   2.200899e+06
  -1.460595e+06   1.381961e+06
  -1.625606e+06  -1.994909e+04
  -9.412309e+05  -9.010471e+05
  -3.433176e+05  -8.346875e+05
  -2.994616e+05  -3.526155e+05
  -4.043087e+05  -2.221425e+05
  -6.017071e+04  -5.809869e+05
   7.298141e+05  -8.395769e+05
   1.327421e+06  -3.840538e+05
   1.062870e+06   6.706733e+05
  -1.390980e+05   1.443065e+06
  -1.554328e+06   1.067008e+06
  -2.074749e+06  -3.963596e+05
  -1.105126e+06  -1.853114e+06
   7.745321e+05  -2.116896e+06
   2.184597e+06  -1.023332e+06
   2.173702e+06   4.484576e+05
   1.049098e+06   1.189513e+06
  -7.864079e+04   1.006603e+06
  -4.570489e+05   6.070293e+05
  -2.715858e+05   6.613872e+05
  -1.910035e+05   1.049573e+06
  -5.647365e+05   1.063687e+06
  -1.096690e+06   2.576425e+05
  -1.173916e+06  -9.809451e+05
  -4.878539e+05  -1.709815e+06
   5.744432e+05  -1.293663e+06
   1.168608e+06  -2.774427e+04
   7.687895e+05   1.090311e+06
  -2.490349e+05   1.244173e+06
  -9.282915e+05   4.827785e+05
  -7.145072e+05  -4.452474e+05
  -1.498268e+04  -8.648007e+05
   3.229768e+05  -7.238427e+05
   1.079409e+04  -4.367298e+05
  -3.612066e+05  -3.358536e+05
  -3.556962e+04  -3.589253e+05
   9.767188e+05  -2.113907e+05
   1.777593e+06   2.618294e+05
   1.453784e+06   8.734274e+05
   6.471064e+04   1.215047e+06
  -1.312199e+06   9.947997e+05
  -1.603468e+06   3.241215e+05
  -7.847055e+05  -3.129965e+05
   1.828166e+05  -4.511993e+05
   4.245965e+05  -8.367491e+04
  -1.204018e+04   3.020280e+05
  -4.397075e+05   2.101975e+05
  -4.179902e+05  -3.100826e+05
  -1.341354e+05  -6.783373e+05
   1.875735e+03  -4.384146e+05
  -1.335035e+05   1.505838e+05
  -3.226273e+05   3.450038e+05
  -2.660265e+05  -1.977293e+05
   1.723049e+05  -9.204520e+05
   8.034872e+05  -9.423367e+05
   1.115885e+06  -9.542743e+04
   6.575959e+05   8.271841e+05
  -3.740319e+05   9.381062e+05
  -1.069781e+06   2.134200e+05
  -6.466597e+05  -5.462242e+05
   6.077553e+05  -6.037068e+05
   1.473343e+06   3.179446e+04
   1.032521e+06   7.515814e+05
  -3.434530e+05   9.699409e+05
  -1.376624e+06   5.658964e+05
  -1.197866e+06  -1.011630e+05
  -1.703255e+05  -4.861668e+05
   5.752547e+05  -2.885751e+05
   3.176159e+05   2.366077e+05
  -5.718455e+05   4.280705e+05
  -1.061294e+06  -1.415240e+05
  -5.241844e+05  -1.104405e+06
   6.327501e+05  -1.506436e+06
   1.392366e+06  -7.389748e+05
   1.133649e+06   7.241276e+05
   1.680160e+05   1.649643e+06
  -6.773656e+05   1.223897e+06
  -8.585240e+05  -1.061999e+05
  -4.497077e+05  -1.078066e+06
   1.270959e+05  -9.244668e+05
   4.898882e+05  -1.075132e+05
   4.781541e+05   3.569951e+05
   2.083911e+05   1.444725e+05
   2.159298e+04  -1.053162e+05
   1.693321e+05   2.287621e+05
   4.311268e+05   8.637871e+05
   2.441588e+05   9.966357e+05
  -5.700532e+05   3.720772e+05
  -1.356082e+06  -4.284076e+05
  -1.233144e+06  -7.646979e+05
  -1.757558e+05  -6.228522e+05
   8.367445e+05  -3.739814e+05
   9.193493e+05  -1.865371e+05
   2.799187e+05   1.463365e+04
  -1.558010e+05   1.992230e+05
   3.459503e+04   2.205407e+05
   3.128288e+05   1.255455e+05
   1.764039e+04   1.259432e+05
  -6.800739e+05   1.845427e+05
  -9.434480e+05  -3.813624e+04
  -2.855529e+05  -6.210157e+05
   8.403814e+05  -1.023717e+06
   1.503691e+06  -6.246521e+05
   1.194044e+06   4.421463e+05
   2.128103e+05   1.293058e+06
  -6.888692e+05   1.222273e+06
  -9.570477e+05   4.349128e+05
  -6.044845e+05  -2.542918e+05
  -8.948159e+04  -3.258319e+05
   1.237458e+05  -1.992057e+04
  -5.166877e+04   6.068146e+04
  -3.021381e+05  -3.158284e+05
  -2.461423e+05  -7.362135e+05
   1.818119e+05  -6.019256e+05
   6.317833e+05   1.598318e+05
   6.255890e+05   9.146714e+05
   2.528725e+04   9.319506e+05
  -7.256624e+05   1.579440e+05
  -9.146361e+05  -7.207754e+05
  -2.663266e+05  -9.900585e+05
   6.642942e+05  -5.635059e+05
   9.851028e+05   9.547832e+04
   4.419922e+05   5.185441e+05
  -2.625457e+05   5.571026e+05
  -2.967399e+05   3.174100e+05
   2.809389e+05   3.167252e+04
   6.055311e+05  -2.129807e+04
   1.111670e+05   2.704427e+05
  -7.558613e+05   6.179708e+05
  -1.100813e+06   5.223576e+05
  -6.351951e+05  -1.240182e+05
   1.000434e+05  -7.670365e+05
   4.604257e+05  -7.501684e+05
   3.330314e+05  -1.027839e+05
   1.548151e+04   4.590740e+05
  -2.318930e+05   3.636197e+05
  -3.222727e+05  -1.860005e+05
  -2.180441e+05  -5.288866e+05
   6.541426e+04  -3.427563e+05
   3.529737e+05   6.575211e+04
   4.121048e+05   2.248977e+05
   2.187136e+05   5.888321e+04
  -4.576857e+03  -9.819443e+04
  -7.327880e+04   4.008404e+04
  -6.058523e+04   3.537358e+05
  -1.480339e+05   4.461550e+05
  -3.237972e+05   1.059897e+05
  -3.480206e+05  -4.081120e+05
  -4.919138e+04  -5.986638e+05
   3.991856e+05  -2.579007e+05
   5.686007e+05   2.932049e+05
   2.002480e+05   5.436118e+05
  -4.499534e+05   3.199550e+05
  -7.724417e+05  -9.936606e+04
  -4.171530e+05  -3.491338e+05
   2.711649e+05  -3.241902e+05
   5.701901e+05  -1.559547e+05
   1.895338e+05  -6.031396e+03
  -3.692661e+05   1.999752e+04
  -3.914139e+05  -1.161563e+05
   1.990426e+05  -2.960600e+05
   7.500139e+05  -2.382898e+05
