
 $NMID
 id='ANONYMOUS ', fmtdat='(2E16.6)'
 volume=1.0
 tramp=1.0
 $END
   5.205505e+07  -2.009465e+06
   3.311871e+07   3.065843e+07
  -4.964964e+06   3.563825e+07
  -2.513170e+07   1.521700e+07
  -1.610469e+07  -5.461368e+06
   2.465511e+06  -8.976222e+06
   9.479393e+06   4.412563e+05
   3.317728e+06   9.115829e+06
  -5.416505e+06   9.387805e+06
  -9.103795e+06   2.469895e+06
  -6.782801e+06  -5.637115e+06
  -9.589832e+05  -8.143220e+06
   3.673748e+06  -2.606871e+06
   2.566135e+06   5.280632e+06
  -3.416612e+06   6.524769e+06
  -7.525210e+06  -8.645858e+05
  -4.602957e+06  -9.437909e+06
   3.087123e+06  -1.123835e+07
   9.207381e+06  -5.848036e+06
   1.003173e+07   1.591697e+06
   6.252830e+06   6.633489e+06
   9.549575e+05   7.758699e+06
  -2.198740e+06   5.639499e+06
  -1.301481e+06   2.896419e+06
   1.119541e+06   2.490767e+06
   5.882277e+04   4.128180e+06
  -5.260498e+06   4.084774e+06
  -9.167093e+06   4.183564e+05
  -6.626749e+06  -3.809708e+06
  -1.564670e+05  -4.608542e+06
   3.568774e+06  -2.216739e+06
   2.166654e+06   1.897736e+05
  -9.889565e+05   9.194856e+05
  -2.469556e+06   2.313194e+05
  -2.007140e+06  -1.645736e+06
  -4.352656e+05  -3.783511e+06
   1.653097e+06  -3.531370e+06
   2.766009e+06   8.812241e+04
   1.506734e+06   3.207476e+06
  -5.294307e+05   1.571668e+06
  -1.056532e+05  -2.461498e+06
   2.400535e+06  -2.300060e+06
   2.490506e+06   2.906320e+06
  -1.877359e+06   5.907115e+06
  -6.259880e+06   1.375154e+06
  -5.010670e+06  -6.128756e+06
   1.355552e+06  -7.991131e+06
   6.822164e+06  -2.509556e+06
   6.783694e+06   4.045885e+06
   2.014667e+06   5.797403e+06
  -3.298465e+06   2.785739e+06
  -5.232015e+06  -1.300895e+06
  -2.564942e+06  -3.322599e+06
   2.162648e+06  -2.245832e+06
   4.341931e+06   6.699614e+05
   2.001167e+06   2.490285e+06
  -1.555048e+06   1.361604e+06
  -1.753726e+06  -9.559688e+05
   1.156083e+06  -1.082021e+06
   2.536182e+06   1.367222e+06
  -1.536090e+05   3.224990e+06
  -4.086224e+06   2.109556e+06
  -5.077683e+06  -9.220306e+05
  -2.406902e+06  -3.614239e+06
   1.623031e+06  -5.002430e+06
   4.778731e+06  -4.613793e+06
   5.857434e+06  -1.676004e+06
   4.295053e+06   2.938244e+06
   9.464977e+05   5.854917e+06
  -1.646039e+06   4.695465e+06
  -1.683734e+06   1.413339e+06
  -3.740698e+05  -1.108208e+05
  -2.449339e+05   8.525785e+05
  -1.674896e+06   1.508385e+06
  -2.673250e+06   2.023169e+04
  -1.820851e+06  -2.012064e+06
   1.468816e+05  -2.109907e+06
   1.636293e+06  -9.402037e+04
   1.644691e+06   2.164746e+06
  -5.568413e+04   2.892452e+06
  -2.682213e+06   1.540976e+06
  -4.234428e+06  -1.163576e+06
  -3.056486e+06  -3.508435e+06
  -5.431263e+04  -3.934528e+06
   2.022804e+06  -2.596689e+06
   2.038173e+06  -1.189178e+06
   1.765130e+06  -7.735874e+05
   2.914218e+06  -5.482017e+05
   4.311937e+06   6.966637e+05
   3.469204e+06   2.713353e+06
   1.358911e+05   4.098630e+06
  -3.205076e+06   3.850447e+06
  -4.151063e+06   2.024533e+06
  -2.572111e+06  -4.859394e+05
  -1.733457e+05  -2.191981e+06
   1.134696e+06  -1.843817e+06
   5.341401e+05   5.776899e+04
  -1.098582e+06   1.270771e+06
  -1.870906e+06   3.949969e+05
  -8.856550e+05  -1.162723e+06
   5.434792e+05  -1.093064e+06
   4.763550e+05   4.105447e+05
  -1.038203e+06   8.109015e+05
  -1.951835e+06  -1.117696e+06
  -8.536858e+05  -3.449855e+06
   1.443844e+06  -3.589216e+06
   3.180021e+06  -1.330922e+06
   3.451198e+06   1.393629e+06
   2.355052e+06   2.855510e+06
   4.377702e+05   2.681768e+06
  -1.269466e+06   1.447329e+06
  -1.578395e+06   1.947387e+05
  -4.919399e+05  -4.824450e+04
   3.575532e+05   7.519206e+05
  -3.885258e+05   1.331599e+06
  -1.871931e+06   5.925646e+05
  -2.034066e+06  -8.524565e+05
  -4.124320e+05  -1.404541e+06
   1.171839e+06  -5.815711e+05
   9.132035e+05   4.740739e+05
  -8.646257e+05   5.697260e+05
  -2.250732e+06  -3.069251e+05
  -1.799799e+06  -1.411136e+06
   2.588749e+05  -2.034936e+06
   2.347717e+06  -1.670743e+06
   2.789543e+06  -2.654500e+05
   1.219846e+06   1.253735e+06
  -8.959047e+05   1.483130e+06
  -1.528542e+06   1.992469e+05
  -1.938587e+05  -1.054692e+06
   1.509876e+06  -7.296766e+05
   1.728455e+06   7.787305e+05
   3.562925e+05   1.671636e+06
  -1.097451e+06   1.012828e+06
  -1.288323e+06  -2.950500e+05
  -2.717755e+05  -7.917258e+05
   7.871646e+05  -6.734466e+04
   7.295610e+05   1.048356e+06
  -5.851678e+05   1.413007e+06
  -2.006592e+06   5.238617e+05
  -2.024509e+06  -1.060263e+06
  -3.780778e+05  -2.074237e+06
   1.439823e+06  -1.645478e+06
   1.733623e+06  -2.148939e+05
   5.127107e+05   8.753565e+05
  -6.634357e+05   8.118906e+05
  -6.463356e+05   6.105054e+04
   1.302300e+05  -3.931203e+05
   5.331441e+05  -2.136896e+05
   1.544259e+05   1.061373e+05
  -4.581059e+05  -2.940408e+04
  -5.499306e+05  -6.594283e+05
   1.901254e+05  -1.200031e+06
   1.386627e+06  -9.012790e+05
   2.085816e+06   4.210754e+05
   1.457853e+06   1.950758e+06
  -2.340741e+05   2.428446e+06
  -1.643562e+06   1.420844e+06
  -1.721193e+06  -1.376142e+05
  -8.662011e+05  -9.420737e+05
  -2.875341e+05  -7.016976e+05
  -4.343980e+05  -2.284706e+05
  -6.097450e+05  -2.860101e+05
  -9.791251e+04  -7.468663e+05
   8.790773e+05  -9.096110e+05
   1.469911e+06  -3.259697e+05
   1.061608e+06   7.508366e+05
  -2.658731e+05   1.492446e+06
  -1.747237e+06   1.077566e+06
  -2.261875e+06  -5.004505e+05
  -1.139885e+06  -2.117424e+06
   1.004857e+06  -2.380363e+06
   2.551357e+06  -1.045672e+06
   2.379754e+06   6.621160e+05
   9.791886e+05   1.371585e+06
  -2.186958e+05   9.842569e+05
  -4.300822e+05   5.154641e+05
  -1.106438e+05   7.229173e+05
  -1.078964e+05   1.275652e+06
  -6.597570e+05   1.277838e+06
  -1.283464e+06   3.168752e+05
  -1.327969e+06  -1.086743e+06
  -5.442149e+05  -1.899557e+06
   6.332120e+05  -1.433843e+06
   1.293464e+06   7.240109e+03
   8.204191e+05   1.286397e+06
  -3.830784e+05   1.408704e+06
  -1.166648e+06   4.327923e+05
  -8.317721e+05  -6.749818e+05
   9.720619e+04  -1.079567e+06
   5.220842e+05  -8.055791e+05
   8.714208e+04  -4.343102e+05
  -4.235172e+05  -3.393888e+05
  -5.339932e+04  -3.837421e+05
   1.147134e+06  -2.149797e+05
   2.059009e+06   3.283475e+05
   1.622146e+06   1.039262e+06
  -2.184110e+04   1.440562e+06
  -1.577691e+06   1.145947e+06
  -1.840603e+06   2.841487e+05
  -8.555852e+05  -4.868764e+05
   2.489967e+05  -5.678096e+05
   5.155925e+05  -4.311023e+04
   3.446253e+04   4.064266e+05
  -4.469528e+05   2.482683e+05
  -4.787381e+05  -3.428160e+05
  -2.353507e+05  -7.152892e+05
  -8.247378e+04  -4.685881e+05
  -1.487611e+05   1.006244e+05
  -3.016204e+05   2.907612e+05
  -2.784402e+05  -2.357520e+05
   1.563922e+05  -9.848849e+05
   9.027748e+05  -1.062594e+06
   1.343894e+06  -1.783935e+05
   8.371555e+05   9.043808e+05
  -4.080242e+05   1.130248e+06
  -1.241751e+06   3.326254e+05
  -7.270890e+05  -5.780841e+05
   7.070818e+05  -6.520076e+05
   1.603364e+06   1.050687e+05
   1.019412e+06   8.864815e+05
  -4.933023e+05   1.009783e+06
  -1.526855e+06   4.802240e+05
  -1.252974e+06  -2.044743e+05
  -1.326802e+05  -5.253353e+05
   6.584498e+05  -2.718192e+05
   3.859190e+05   2.900769e+05
  -5.851657e+05   5.120523e+05
  -1.175544e+06  -8.823337e+04
  -6.594159e+05  -1.176475e+06
   5.965941e+05  -1.689873e+06
   1.484258e+06  -8.742507e+05
   1.252455e+06   7.648634e+05
   1.931439e+05   1.797790e+06
  -7.559221e+05   1.297728e+06
  -9.372007e+05  -1.820599e+05
  -4.302740e+05  -1.207358e+06
   2.299065e+05  -9.841874e+05
   5.691503e+05  -8.572231e+04
   4.650720e+05   3.897708e+05
   1.612768e+05   1.482058e+05
   5.185031e+04  -9.924497e+04
   2.852240e+05   2.840771e+05
   5.101416e+05   9.671290e+05
   1.851414e+05   1.094765e+06
  -7.210578e+05   4.062054e+05
  -1.478530e+06  -4.746714e+05
  -1.281414e+06  -8.558686e+05
  -1.851197e+05  -7.035802e+05
   8.559901e+05  -4.090579e+05
   9.918140e+05  -1.754950e+05
   3.688083e+05   4.773456e+04
  -1.450569e+05   2.227447e+05
  -4.423085e+04   2.154171e+05
   2.564755e+05   1.053400e+05
   5.109789e+04   1.290948e+05
  -6.562856e+05   2.250366e+05
  -1.047473e+06  -9.913855e+03
  -4.417519e+05  -6.790292e+05
   8.341694e+05  -1.173344e+06
   1.700767e+06  -7.696022e+05
   1.415804e+06   4.161073e+05
   2.761827e+05   1.405685e+06
  -7.674915e+05   1.385301e+06
  -1.045613e+06   5.444733e+05
  -6.506314e+05  -2.312175e+05
  -1.372076e+05  -3.548440e+05
   5.860926e+04  -6.066628e+04
  -9.112500e+04   1.616703e+04
  -3.019588e+05  -3.762498e+05
  -2.456439e+05  -8.156116e+05
   1.753702e+05  -6.809738e+05
   6.746880e+05   1.173478e+05
   7.405706e+05   9.413228e+05
   1.286432e+05   1.023335e+06
  -7.392255e+05   2.521737e+05
  -1.033208e+06  -7.086703e+05
  -3.589138e+05  -1.085426e+06
   7.040633e+05  -6.865233e+05
   1.123587e+06   6.385256e+04
   5.472458e+05   6.128445e+05
  -2.769553e+05   6.899250e+05
  -3.846061e+05   3.807354e+05
   2.362342e+05   1.479632e+04
   6.477324e+05  -4.013665e+04
   1.528050e+05   3.069010e+05
  -8.277387e+05   6.820117e+05
  -1.276651e+06   5.469318e+05
  -7.815076e+05  -1.731081e+05
   8.940181e+04  -8.750238e+05
   5.552003e+05  -8.726472e+05
   4.284941e+05  -1.799996e+05
   5.651198e+04   4.715251e+05
  -2.313092e+05   4.408896e+05
  -3.446015e+05  -1.383064e+05
  -2.582113e+05  -5.763903e+05
   4.082899e+04  -4.343652e+05
   3.889178e+05   3.886770e+04
   4.873641e+05   2.826120e+05
   2.491759e+05   1.011662e+05
  -4.638198e+04  -1.529604e+05
  -9.749609e+04  -5.739571e+04
   2.045320e+04   3.365279e+05
  -1.993645e+04   5.447381e+05
  -2.970378e+05   2.319736e+05
  -4.633643e+05  -3.553363e+05
  -1.758109e+05  -6.317546e+05
   3.985823e+05  -3.178998e+05
   6.684502e+05   2.643669e+05
   2.591759e+05   5.653348e+05
  -5.086673e+05   3.734496e+05
  -8.875437e+05  -6.113680e+04
  -4.853383e+05  -3.732112e+05
   2.857124e+05  -4.106453e+05
   6.342095e+05  -2.441303e+05
   2.577005e+05  -2.845704e+04
  -3.282857e+05   6.922898e+04
  -3.947561e+05  -5.359144e+04
   1.633308e+05  -2.781133e+05
   7.278675e+05  -2.641849e+05
