
 $NMID
 id='ANONYMOUS ', fmtdat='(2E16.6)'
 volume=1.0
 tramp=1.0
 $END
  -3.420066e+07   6.646371e+04
  -2.189073e+07  -1.777639e+07
   1.652155e+06  -2.203185e+07
   1.526161e+07  -1.238457e+07
   1.135212e+07   4.761089e+05
  -2.032678e+05   5.886918e+06
  -6.481977e+06   1.788659e+06
  -3.996583e+06  -5.526900e+06
   2.221957e+06  -8.068126e+06
   6.122602e+06  -3.207764e+06
   5.141110e+06   4.161473e+06
   7.082035e+05   6.513902e+06
  -3.032374e+06   1.585721e+06
  -2.413940e+06  -5.027380e+06
   1.976799e+06  -5.987745e+06
   5.374059e+06  -2.074103e+05
   3.785396e+06   6.488494e+06
  -1.718708e+06   8.054157e+06
  -6.374651e+06   3.942257e+06
  -6.667855e+06  -1.707069e+06
  -3.264838e+06  -4.762796e+06
   2.356097e+05  -4.328402e+06
   7.817553e+05  -2.536533e+06
  -1.297493e+06  -2.087581e+06
  -2.443834e+06  -3.558346e+06
   3.855358e+05  -4.770898e+06
   5.677004e+06  -3.261064e+06
   8.209666e+06   6.014335e+05
   4.905879e+06   3.720983e+06
  -1.193435e+06   3.640523e+06
  -4.186144e+06   9.762099e+05
  -1.904109e+06  -1.650136e+06
   2.286380e+06  -2.133111e+06
   3.969944e+06  -1.462916e+05
   2.230351e+06   2.834136e+06
  -5.697808e+05   4.204738e+06
  -1.945356e+06   2.297588e+06
  -1.315373e+06  -1.247763e+06
   1.435770e+05  -2.462886e+06
   6.894028e+05   2.063319e+05
  -4.687054e+05   3.290010e+06
  -2.146803e+06   2.390193e+06
  -2.095628e+06  -1.785839e+06
   3.934600e+05  -3.945085e+06
   3.121036e+06  -1.044253e+06
   2.990268e+06   3.741856e+06
  -5.724465e+05   5.056347e+06
  -4.685077e+06   1.655748e+06
  -5.641682e+06  -2.874601e+06
  -2.390451e+06  -4.613677e+06
   2.429378e+06  -2.853396e+06
   4.774248e+06   3.138933e+05
   2.856879e+06   2.312872e+06
  -1.138414e+06   1.899860e+06
  -3.221982e+06  -1.107313e+05
  -1.736622e+06  -1.555472e+06
   1.029173e+06  -1.025110e+06
   1.720402e+06   6.011465e+05
  -1.239360e+05   1.249105e+06
  -1.798113e+06   1.678697e+05
  -9.233511e+05  -1.335603e+06
   1.752703e+06  -1.584671e+06
   3.351402e+06  -1.541709e+05
   1.992036e+06   2.146062e+06
  -1.493844e+06   3.926436e+06
  -4.533511e+06   3.713397e+06
  -5.063488e+06   9.514015e+05
  -3.092953e+06  -2.863075e+06
  -4.733701e+05  -4.962398e+06
   9.004176e+05  -4.093092e+06
   8.219184e+05  -1.944125e+06
   6.399838e+05  -9.618812e+05
   1.430898e+06  -1.287048e+06
   2.675904e+06  -9.778889e+05
   2.946195e+06   9.232209e+05
   1.563348e+06   2.829769e+06
  -6.962172e+05   2.566675e+06
  -2.272958e+06   6.616299e+04
  -1.960931e+06  -2.514289e+06
   2.063430e+05  -3.006129e+06
   2.725084e+06  -1.130698e+06
   3.583190e+06   1.538242e+06
   2.098794e+06   3.087503e+06
  -2.581043e+05   2.829227e+06
  -1.448251e+06   1.662428e+06
  -1.232770e+06   9.421453e+05
  -1.265721e+06   9.919840e+05
  -2.639513e+06   8.790404e+05
  -4.115154e+06  -3.419634e+05
  -3.472167e+06  -2.420795e+06
  -3.136480e+05  -4.034827e+06
   3.163614e+06  -3.920414e+06
   4.304134e+06  -1.903822e+06
   2.555543e+06   8.216162e+05
  -1.706807e+05   2.384035e+06
  -1.441936e+06   1.732707e+06
  -5.177317e+05  -2.005375e+05
   1.198518e+06  -1.249184e+06
   1.764282e+06  -3.689734e+05
   7.018978e+05   1.104782e+06
  -6.507939e+05   1.141579e+06
  -7.311682e+05  -3.091833e+05
   5.500973e+05  -1.161910e+06
   1.807404e+06   1.542364e+05
   1.625421e+06   2.642925e+06
  -1.938270e+05   3.809080e+06
  -2.550643e+06   2.368540e+06
  -3.850309e+06  -5.686284e+05
  -3.101148e+06  -2.778447e+06
  -7.775662e+05  -2.948995e+06
   1.338857e+06  -1.556431e+06
   1.679120e+06  -1.678726e+05
   4.961421e+05   3.485778e+04
  -3.933458e+05  -7.329572e+05
   2.680543e+05  -1.228356e+06
   1.666165e+06  -6.071552e+05
   1.942625e+06   6.278214e+05
   5.268573e+05   1.241102e+06
  -1.099170e+06   6.752700e+05
  -1.085155e+06  -3.959781e+05
   6.878045e+05  -8.388997e+05
   2.426848e+06  -1.290638e+05
   2.247573e+06   1.270240e+06
   6.184957e+04   2.279186e+06
  -2.301571e+06   1.980766e+06
  -2.826925e+06   4.379513e+05
  -1.230774e+06  -1.130928e+06
   8.097657e+05  -1.359160e+06
   1.361507e+06  -1.803211e+05
   1.182385e+05   9.777474e+05
  -1.461930e+06   7.437242e+05
  -1.763480e+06  -6.336552e+05
  -5.717120e+05  -1.618196e+06
   9.053149e+05  -1.194513e+06
   1.319265e+06   4.511081e+04
   4.363737e+05   6.972241e+05
  -6.899273e+05   1.145293e+05
  -7.274720e+05  -1.005728e+06
   5.828475e+05  -1.419062e+06
   2.021712e+06  -5.418619e+05
   2.043162e+06   1.029323e+06
   4.440389e+05   2.041910e+06
  -1.326327e+06   1.687217e+06
  -1.694301e+06   3.339850e+05
  -6.048043e+05  -8.161493e+05
   5.956011e+05  -8.782116e+05
   7.457128e+05  -9.080783e+04
  -5.135859e+03   5.568400e+05
  -6.314927e+05   4.367415e+05
  -4.423406e+05  -9.548947e+04
   2.760394e+05  -1.996160e+05
   6.253259e+05   4.324637e+05
  -1.172320e+04   1.153974e+06
  -1.299391e+06   9.889953e+05
  -2.107031e+06  -3.170223e+05
  -1.527527e+06  -1.898821e+06
   1.441937e+05  -2.493722e+06
   1.606627e+06  -1.623040e+06
   1.851357e+06  -4.470879e+04
   1.119370e+06   1.001313e+06
   4.262734e+05   9.732715e+05
   3.282650e+05   4.175987e+05
   4.340276e+05   2.288187e+05
   8.163715e+04   6.327434e+05
  -7.833849e+05   9.734077e+05
  -1.485844e+06   4.942808e+05
  -1.241997e+06  -7.213349e+05
   9.168978e+04  -1.653242e+06
   1.718181e+06  -1.272537e+06
   2.363006e+06   3.740268e+05
   1.320091e+06   2.050670e+06
  -7.859445e+05   2.410581e+06
  -2.415858e+06   1.237373e+06
  -2.475795e+06  -4.142155e+05
  -1.253567e+06  -1.305880e+06
   3.660636e+04  -1.165029e+06
   5.138211e+05  -7.275285e+05
   3.228300e+05  -7.553530e+05
   2.040651e+05  -1.169362e+06
   6.005594e+05  -1.199735e+06
   1.218939e+06  -3.175260e+05
   1.349940e+06   1.074302e+06
   6.001522e+05   1.917290e+06
  -6.127706e+05   1.478619e+06
  -1.321252e+06   7.203437e+04
  -9.074984e+05  -1.195957e+06
   2.252771e+05  -1.408842e+06
   1.010883e+06  -5.930488e+05
   8.153076e+05   4.479962e+05
   6.484663e+04   9.557309e+05
  -3.135599e+05   8.292391e+05
   1.306929e+04   5.038841e+05
   4.125463e+05   3.733481e+05
   4.840897e+04   4.055795e+05
  -1.084247e+06   2.722877e+05
  -1.999228e+06  -2.339919e+05
  -1.667266e+06  -9.305430e+05
  -1.276987e+05  -1.355890e+06
   1.430187e+06  -1.156596e+06
   1.791899e+06  -4.270035e+05
   9.005893e+05   3.058403e+05
  -1.834636e+05   5.030879e+05
  -4.692263e+05   1.169587e+05
   1.231423e+04  -3.259846e+05
   4.966015e+05  -2.453262e+05
   4.770717e+05   3.376167e+05
   1.542050e+05   7.662849e+05
  -5.544761e+03   4.966102e+05
   1.464626e+05  -1.861265e+05
   3.655780e+05  -4.162386e+05
   3.105695e+05   2.105362e+05
  -1.724584e+05   1.049666e+06
  -8.757788e+05   1.086152e+06
  -1.236444e+06   1.309932e+05
  -7.474146e+05  -9.145249e+05
   3.938816e+05  -1.053821e+06
   1.189169e+06  -2.558881e+05
   7.433175e+05   6.024602e+05
  -6.626019e+05   7.026667e+05
  -1.670569e+06   1.919394e+04
  -1.211439e+06  -8.104342e+05
   3.395764e+05  -1.118671e+06
   1.540027e+06  -7.062200e+05
   1.371124e+06   6.340014e+04
   2.166071e+05   5.476456e+05
  -6.388795e+05   3.520278e+05
  -3.605574e+05  -2.526181e+05
   6.416036e+05  -4.929733e+05
   1.202007e+06   1.412873e+05
   6.089800e+05   1.239258e+06
  -6.896486e+05   1.713556e+06
  -1.560295e+06   8.631419e+05
  -1.300555e+06  -7.917655e+05
  -2.355263e+05  -1.862854e+06
   7.293314e+05  -1.412380e+06
   9.764833e+05   8.313726e+04
   5.524364e+05   1.203378e+06
  -1.007438e+05   1.057625e+06
  -5.462137e+05   1.431133e+05
  -5.626945e+05  -3.916105e+05
  -2.524870e+05  -1.610982e+05
  -1.685530e+04   1.232218e+05
  -1.808757e+05  -2.457297e+05
  -5.062519e+05  -9.607018e+05
  -3.198587e+05  -1.122387e+06
   6.168703e+05  -4.398458e+05
   1.548123e+06   4.450769e+05
   1.430427e+06   8.278944e+05
   2.188597e+05   6.956382e+05
  -9.468731e+05   4.458755e+05
  -1.038242e+06   2.426343e+05
  -3.063310e+05  -1.096905e+03
   1.754892e+05  -2.282746e+05
  -5.985582e+04  -2.547825e+05
  -3.731749e+05  -1.405388e+05
  -1.822131e+04  -1.430167e+05
   7.798608e+05  -2.226451e+05
   1.065717e+06   2.124881e+04
   3.174680e+05   6.918399e+05
  -9.362829e+05   1.171141e+06
  -1.671732e+06   7.356639e+05
  -1.342311e+06  -4.758256e+05
  -2.700295e+05  -1.457782e+06
   7.403447e+05  -1.394862e+06
   1.069178e+06  -5.077592e+05
   6.928374e+05   2.788832e+05
   1.039288e+05   3.657775e+05
  -1.526500e+05   1.748050e+04
   5.144121e+04  -8.026369e+04
   3.573057e+05   3.437066e+05
   3.047109e+05   8.252657e+05
  -1.924658e+05   6.823976e+05
  -7.219554e+05  -1.736395e+05
  -7.229285e+05  -1.027286e+06
  -3.673970e+04  -1.051279e+06
   8.251453e+05  -1.836301e+05
   1.047988e+06   8.034984e+05
   3.175374e+05   1.110781e+06
  -7.379889e+05   6.435062e+05
  -1.108338e+06  -8.581259e+04
  -5.049466e+05  -5.641866e+05
   2.807847e+05  -6.234395e+05
   3.150793e+05  -3.635508e+05
  -3.310639e+05  -3.319977e+04
  -6.868435e+05   3.832395e+04
  -1.281536e+05  -2.999412e+05
   8.374461e+05  -7.200779e+05
   1.218232e+06  -6.290715e+05
   7.073806e+05   1.132242e+05
  -9.413768e+04   8.639215e+05
  -4.888003e+05   8.538966e+05
  -3.604159e+05   1.150790e+05
  -2.271958e+04  -5.236873e+05
   2.549050e+05  -4.097195e+05
   3.698877e+05   2.133218e+05
   2.583615e+05   5.921808e+05
  -6.837091e+04   3.781419e+05
  -4.001236e+05  -7.033925e+04
  -4.670395e+05  -2.351848e+05
  -2.481902e+05  -5.336308e+04
   1.562420e+03   1.017299e+05
   8.101730e+04  -6.647261e+04
   7.556041e+04  -4.093426e+05
   1.795135e+05  -4.953812e+05
   3.711480e+05  -1.064817e+05
   3.881811e+05   4.666767e+05
   4.992545e+04   6.774099e+05
  -4.504212e+05   2.959020e+05
  -6.420804e+05  -3.245881e+05
  -2.343530e+05  -6.138424e+05
   4.963555e+05  -3.712494e+05
   8.682003e+05   9.786054e+04
   4.766805e+05   3.840900e+05
  -2.983622e+05   3.641839e+05
  -6.372668e+05   1.794938e+05
  -2.044060e+05   9.300895e+03
   4.303994e+05  -2.266812e+04
   4.507825e+05   1.347407e+05
  -2.280298e+05   3.480148e+05
  -8.590832e+05   2.883341e+05
