
 $NMID
 id='ANONYMOUS ', fmtdat='(2E16.6)'
 volume=1.0
 tramp=1.0
 $END
  -8.018078e+06   1.747222e+04
  -5.563855e+06  -3.072910e+06
  -5.099297e+05  -4.820628e+06
   3.159561e+06  -4.036711e+06
   3.132708e+06  -1.058787e+06
   4.944323e+05   1.543812e+06
  -1.776132e+06   1.281102e+06
  -1.739995e+06  -1.221493e+06
   4.394628e+04  -2.759193e+06
   1.579141e+06  -1.415943e+06
   1.513009e+06   1.177514e+06
   1.835494e+05   2.019925e+06
  -9.852449e+05   3.396737e+05
  -8.722126e+05  -1.802990e+06
   3.674026e+05  -2.102662e+06
   1.460881e+06  -3.765927e+05
   1.216724e+06   1.622459e+06
  -2.542307e+05   2.138803e+06
  -1.580487e+06   9.659617e+05
  -1.560182e+06  -6.100294e+05
  -4.660588e+05  -1.204868e+06
   3.085003e+05  -7.020757e+05
  -1.135913e+05  -2.035732e+05
  -1.077237e+06  -6.185278e+05
  -1.145176e+06  -1.557531e+06
   2.643649e+05  -1.853355e+06
   2.127016e+06  -9.701333e+05
   2.730376e+06   4.458909e+05
   1.387921e+06   1.318693e+06
  -7.378673e+05   1.102383e+06
  -1.667175e+06   6.870174e+04
  -6.120580e+05  -9.419375e+05
   1.174234e+06  -1.029858e+06
   1.789203e+06   2.849527e+04
   7.832575e+05   1.341839e+06
  -5.219527e+05   1.593108e+06
  -7.759747e+05   4.942961e+05
  -9.503404e+04  -7.274667e+05
   4.362755e+05  -6.857460e+05
   2.348799e+05   5.027673e+05
  -3.389769e+05   1.367129e+06
  -7.202397e+05   8.740803e+05
  -6.935826e+05  -3.911595e+05
  -2.699535e+05  -1.016117e+06
   3.695600e+05  -3.958422e+05
   6.786431e+05   7.175460e+05
   8.294987e+04   1.142499e+06
  -1.145843e+06   4.562713e+05
  -1.794233e+06  -7.215025e+05
  -9.766785e+05  -1.396726e+06
   6.926004e+05  -1.075774e+06
   1.657295e+06  -1.190328e+05
   1.116984e+06   6.453534e+05
  -1.944972e+05   6.679815e+05
  -9.459977e+05   1.146900e+05
  -5.956811e+05  -3.759335e+05
   2.548797e+05  -3.302955e+05
   6.362926e+05   1.513546e+05
   1.849449e+05   5.502715e+05
  -5.433484e+05   4.437507e+05
  -6.618931e+05  -9.184178e+04
   5.899819e+04  -5.260467e+05
   8.277859e+05  -3.474299e+05
   6.498171e+05   4.172910e+05
  -4.940317e+05   1.132514e+06
  -1.556672e+06   1.083587e+06
  -1.604539e+06   1.609434e+05
  -8.066262e+05  -9.913212e+05
  -5.106386e+04  -1.567176e+06
   1.659264e+05  -1.350270e+06
   1.344222e+05  -8.297369e+05
   3.308210e+05  -5.600101e+05
   7.956484e+05  -5.117962e+05
   1.170937e+06  -1.992554e+05
   1.096681e+06   5.589142e+05
   4.817330e+05   1.216306e+06
  -4.025320e+05   1.035194e+06
  -9.878243e+05   2.014402e+03
  -7.808967e+05  -1.013848e+06
   1.233968e+05  -1.120605e+06
   9.938168e+05  -3.043585e+05
   1.120845e+06   6.428328e+05
   5.178842e+05   9.964831e+05
  -1.567019e+05   7.397483e+05
  -3.647001e+05   3.719765e+05
  -2.419556e+05   2.842250e+05
  -3.385032e+05   4.136772e+05
  -8.871598e+05   3.983251e+05
  -1.431167e+06  -3.977935e+04
  -1.244076e+06  -8.085923e+05
  -1.489117e+05  -1.440679e+06
   1.134296e+06  -1.416773e+06
   1.589168e+06  -6.365148e+05
   9.143388e+05   3.870577e+05
  -1.531508e+05   9.014077e+05
  -6.087941e+05   5.914140e+05
  -1.955475e+05  -1.104088e+05
   4.585332e+05  -4.521840e+05
   6.270567e+05  -1.334309e+05
   2.178404e+05   3.913845e+05
  -2.756467e+05   4.386139e+05
  -3.472974e+05  -9.020157e+04
   8.422445e+04  -5.318287e+05
   6.474656e+05  -1.957606e+05
   7.921378e+05   7.795009e+05
   2.138009e+05   1.467061e+06
  -8.034726e+05   1.115585e+06
  -1.499657e+06  -3.683433e+04
  -1.284810e+06  -1.020644e+06
  -3.431259e+05  -1.138160e+06
   5.086706e+05  -5.744684e+05
   6.327912e+05  -3.916336e+04
   1.807351e+05   1.584015e+04
  -1.558296e+05  -2.614614e+05
   6.023986e+04  -4.279196e+05
   5.566380e+05  -2.346406e+05
   6.991064e+05   1.723467e+05
   2.338553e+05   4.261905e+05
  -3.836174e+05   2.865759e+05
  -4.499115e+05  -1.189470e+05
   1.959295e+05  -3.742131e+05
   9.200032e+05  -1.529030e+05
   9.204636e+05   4.333825e+05
   9.294280e+04   8.887668e+05
  -8.303379e+05   7.861940e+05
  -1.037965e+06   1.890555e+05
  -4.506926e+05  -3.892634e+05
   2.742618e+05  -4.683830e+05
   4.598029e+05  -6.284207e+04
   3.138343e+04   3.391251e+05
  -5.191656e+05   2.778484e+05
  -6.546322e+05  -1.974633e+05
  -2.610630e+05  -5.866968e+05
   2.923372e+05  -4.899999e+05
   5.037031e+05  -4.524374e+04
   2.133261e+05   2.422142e+05
  -2.199892e+05   7.150102e+04
  -2.668991e+05  -3.372145e+05
   1.985196e+05  -5.052570e+05
   7.221495e+05  -1.981931e+05
   7.359840e+05   3.633633e+05
   1.731568e+05   7.304349e+05
  -4.585793e+05   6.200711e+05
  -6.141472e+05   1.428990e+05
  -2.481115e+05  -2.949858e+05
   2.032132e+05  -3.459155e+05
   3.055376e+05  -4.160645e+04
   3.768914e+04   2.473948e+05
  -2.504416e+05   2.171907e+05
  -2.334192e+05  -3.140469e+04
   4.987058e+04  -1.295972e+05
   2.391504e+05   9.718863e+04
   3.791022e+04   3.981378e+05
  -4.435150e+05   3.703180e+05
  -7.576353e+05  -9.261881e+04
  -5.585727e+05  -6.715754e+05
   4.230205e+04  -9.138026e+05
   5.841423e+05  -6.303158e+05
   7.063095e+05  -4.739808e+04
   4.578129e+05   3.957349e+05
   1.693077e+05   4.322714e+05
   7.536301e+04   1.976975e+05
   1.036347e+05   5.896784e+04
   2.006782e+04   1.881181e+05
  -2.604797e+05   3.541093e+05
  -5.324452e+05   2.071678e+05
  -4.771600e+05  -2.588795e+05
   1.557535e+03  -6.299134e+05
   6.113800e+05  -4.945178e+05
   8.692576e+05   1.119162e+05
   5.168516e+05   7.242544e+05
  -2.283885e+05   8.762285e+05
  -8.398619e+05   4.924300e+05
  -9.230478e+05  -9.523637e+04
  -5.223973e+05  -4.679634e+05
  -2.468139e+04  -4.742046e+05
   2.182388e+05  -3.118055e+05
   1.784320e+05  -2.690482e+05
   1.016662e+05  -3.857244e+05
   2.023413e+05  -4.087012e+05
   4.205338e+05  -1.114757e+05
   4.856542e+05   3.875649e+05
   2.225607e+05   6.963262e+05
  -2.212602e+05   5.417324e+05
  -4.853472e+05   4.369744e+04
  -3.491834e+05  -4.087818e+05
   4.198272e+04  -5.100461e+05
   3.267419e+05  -2.604508e+05
   2.937425e+05   9.783263e+04
   7.048262e+04   3.129072e+05
  -5.582069e+04   3.111383e+05
   2.753967e+04   2.062587e+05
   1.367978e+05   1.454153e+05
   9.625744e+03   1.487401e+05
  -3.704232e+05   1.076994e+05
  -6.942871e+05  -6.434489e+04
  -6.074661e+05  -3.093172e+05
  -8.954043e+04  -4.659516e+05
   4.720756e+05  -4.165680e+05
   6.363730e+05  -1.882764e+05
   3.434322e+05   6.267148e+04
  -4.630599e+04   1.617151e+05
  -1.569531e+05   6.182670e+04
   2.059771e+04  -8.914697e+04
   1.964079e+05  -7.752863e+04
   1.663238e+05   1.247974e+05
   2.055990e+04   2.861695e+05
  -3.334165e+04   1.821053e+05
   5.612325e+04  -8.824199e+04
   1.533851e+05  -1.795713e+05
   1.143838e+05   6.638831e+04
  -7.618259e+04   3.846596e+05
  -3.060417e+05   3.868477e+05
  -4.012968e+05   3.174148e+04
  -2.320426e+05  -3.265040e+05
   1.377225e+05  -3.493137e+05
   4.048377e+05  -6.195008e+04
   2.636696e+05   2.284753e+05
  -2.310966e+05   2.625072e+05
  -6.215010e+05   2.784937e+04
  -4.856457e+05  -2.835485e+05
   8.898229e+04  -4.346375e+05
   5.676588e+05  -3.075729e+05
   5.295121e+05  -5.821445e+03
   9.812968e+04   2.071909e+05
  -2.278086e+05   1.483975e+05
  -1.228820e+05  -7.811286e+04
   2.457170e+05  -1.640859e+05
   4.327452e+05   7.319064e+04
   1.917279e+05   4.615588e+05
  -2.866095e+05   6.094667e+05
  -5.856000e+05   2.897556e+05
  -4.715788e+05  -3.029266e+05
  -7.996028e+04  -6.879497e+05
   2.672353e+05  -5.341699e+05
   3.635081e+05   7.638722e+03
   2.268036e+05   4.358914e+05
  -4.632954e+03   4.044635e+05
  -1.893944e+05   6.737531e+04
  -2.279715e+05  -1.468681e+05
  -1.174906e+05  -6.649236e+04
   2.131381e+03   5.362701e+04
  -3.309822e+04  -7.110953e+04
  -1.743182e+05  -3.437221e+05
  -1.476726e+05  -4.184684e+05
   1.924730e+05  -1.689600e+05
   5.722183e+05   1.635702e+05
   5.512809e+05   3.035579e+05
   8.332792e+04   2.477530e+05
  -3.705022e+05   1.584359e+05
  -3.888170e+05   9.771449e+04
  -9.158949e+04   1.484134e+04
   7.462387e+04  -8.117575e+04
  -4.848562e+04  -1.086527e+05
  -1.655732e+05  -6.763721e+04
   4.577982e+03  -5.186588e+04
   3.160557e+05  -6.716807e+04
   3.841387e+05   1.785293e+04
   6.972634e+04   2.459072e+05
  -3.728060e+05   4.057768e+05
  -5.899300e+05   2.420036e+05
  -4.487991e+05  -1.936971e+05
  -8.141731e+04  -5.364945e+05
   2.642583e+05  -4.950391e+05
   3.878338e+05  -1.611189e+05
   2.548173e+05   1.192037e+05
   2.460029e+04   1.312953e+05
  -8.065813e+04  -1.281742e+04
   9.482730e+03  -4.989363e+04
   1.437947e+05   1.166012e+05
   1.223731e+05   3.012169e+05
  -7.695638e+04   2.423944e+05
  -2.682211e+05  -8.474142e+04
  -2.424326e+05  -3.961585e+05
   2.326086e+04  -3.797038e+05
   3.190326e+05  -3.476341e+04
   3.681455e+05   3.238102e+05
   9.124088e+04   4.036500e+05
  -2.754542e+05   2.087379e+05
  -3.876003e+05  -4.378009e+04
  -1.653001e+05  -1.858233e+05
   1.007451e+05  -1.986049e+05
   9.079503e+04  -1.263525e+05
  -1.463885e+05  -2.580610e+04
  -2.562144e+05   6.115727e+03
  -3.579216e+04  -1.041173e+05
   3.081552e+05  -2.623634e+05
   4.242237e+05  -2.446623e+05
   2.312671e+05   2.295062e+04
  -4.040174e+04   3.038274e+05
  -1.583749e+05   2.982511e+05
  -1.044029e+05   2.131810e+04
   9.021268e+03  -2.012062e+05
   9.937295e+04  -1.327811e+05
   1.341150e+05   1.034562e+05
   8.710089e+04   2.174787e+05
  -3.271943e+04   1.151880e+05
  -1.441871e+05  -3.807870e+04
  -1.610893e+05  -7.118435e+04
  -9.008168e+04  -5.997891e+03
  -1.126511e+04   1.783911e+04
   3.044967e+04  -6.262421e+04
   6.320319e+04  -1.633102e+05
   1.147625e+05  -1.519787e+05
   1.500577e+05   7.587425e+03
   1.060504e+05   2.001004e+05
  -2.863070e+04   2.495129e+05
  -1.774262e+05   9.258795e+04
  -2.147992e+05  -1.373846e+05
  -6.897496e+04  -2.336516e+05
   1.750087e+05  -1.285464e+05
   3.004371e+05   5.101611e+04
   1.640700e+05   1.428994e+05
  -1.103776e+05   1.129092e+05
  -2.264325e+05   3.945881e+04
  -5.564599e+04  -1.935070e+03
   1.834086e+05   1.378003e+04
   1.737935e+05   7.919382e+04
  -1.071163e+05   1.415851e+05
  -3.504698e+05   9.820767e+04
