
 $NMID
 id='ANONYMOUS ', fmtdat='(2E16.6)'
 volume=1.0
 tramp=1.0
 $END
  -5.183895e+07  -5.771888e+04
  -3.122322e+07  -3.138052e+07
   6.371688e+06  -3.469575e+07
   2.491862e+07  -1.408776e+07
   1.523675e+07   5.622586e+06
  -2.666451e+06   8.536390e+06
  -9.011693e+06  -5.810625e+05
  -3.003583e+06  -8.783176e+06
   5.263569e+06  -8.999748e+06
   8.829306e+06  -2.255799e+06
   6.641276e+06   5.746759e+06
   8.617666e+05   8.175684e+06
  -3.806476e+06   2.545185e+06
  -2.682688e+06  -5.315714e+06
   3.297353e+06  -6.418215e+06
   7.311459e+06   9.980754e+05
   4.316642e+06   9.400890e+06
  -3.330443e+06   1.100805e+07
  -9.341837e+06   5.512483e+06
  -9.998135e+06  -1.989339e+06
  -5.948872e+06  -6.986038e+06
  -4.474521e+05  -7.812390e+06
   2.546841e+06  -5.288131e+06
   1.192384e+06  -2.443417e+06
  -1.499197e+06  -2.350858e+06
  -2.431522e+05  -4.329571e+06
   5.432627e+06  -4.295458e+06
   9.423653e+06  -3.977917e+05
   6.682400e+06   4.016293e+06
  -9.603940e+03   4.851692e+06
  -3.849282e+06   2.356341e+06
  -2.452375e+06  -3.030538e+05
   8.663759e+05  -1.291175e+06
   2.640886e+06  -5.615767e+05
   2.315606e+06   1.678090e+06
   5.331732e+05   4.053327e+06
  -1.840753e+06   3.588232e+06
  -2.910757e+06  -3.759435e+05
  -1.346124e+06  -3.465382e+06
   8.345810e+05  -1.499767e+06
   2.729304e+05   2.671186e+06
  -2.348547e+06   2.360376e+06
  -2.370901e+06  -2.877417e+06
   2.001526e+06  -5.630854e+06
   6.144818e+06  -9.586352e+05
   4.655843e+06   6.287400e+06
  -1.651040e+06   7.787900e+06
  -6.863044e+06   2.266624e+06
  -6.698025e+06  -4.061967e+06
  -2.008179e+06  -5.685586e+06
   3.205218e+06  -2.763183e+06
   5.139207e+06   1.198579e+06
   2.531475e+06   3.183251e+06
  -2.125829e+06   2.124714e+06
  -4.243042e+06  -7.328050e+05
  -1.906701e+06  -2.457354e+06
   1.567486e+06  -1.301376e+06
   1.740562e+06   9.069497e+05
  -1.037166e+06   9.553427e+05
  -2.276907e+06  -1.340105e+06
   3.335956e+05  -2.939309e+06
   4.014572e+06  -1.782486e+06
   4.856079e+06   1.039701e+06
   2.238910e+06   3.575696e+06
  -1.711858e+06   5.020202e+06
  -4.890609e+06   4.695930e+06
  -5.985327e+06   1.648614e+06
  -4.332909e+06  -3.094466e+06
  -9.084832e+05  -5.947345e+06
   1.608135e+06  -4.634194e+06
   1.513050e+06  -1.365333e+06
   2.098267e+05  -2.997645e+04
   2.434636e+05  -1.122905e+06
   1.842181e+06  -1.715192e+06
   2.911574e+06  -6.124757e+04
   2.029730e+06   2.113315e+06
  -5.811333e+04   2.285659e+06
  -1.717738e+06   2.491730e+05
  -1.814959e+06  -2.131864e+06
  -2.350873e+04  -2.979991e+06
   2.768090e+06  -1.609083e+06
   4.352470e+06   1.226593e+06
   3.043797e+06   3.633410e+06
  -7.239930e+04   3.969954e+06
  -2.117085e+06   2.513358e+06
  -2.024728e+06   1.094674e+06
  -1.697246e+06   7.575070e+05
  -2.869248e+06   6.062783e+05
  -4.323776e+06  -6.094679e+05
  -3.543488e+06  -2.650561e+06
  -2.421975e+05  -4.128753e+06
   3.149164e+06  -3.994297e+06
   4.206609e+06  -2.180360e+06
   2.687974e+06   4.603452e+05
   2.380331e+05   2.303082e+06
  -1.153135e+06   1.950480e+06
  -5.692628e+05  -5.991372e+04
   1.097998e+06  -1.336218e+06
   1.889634e+06  -4.266091e+05
   9.045343e+05   1.189571e+06
  -5.255746e+05   1.148531e+06
  -4.965186e+05  -3.517422e+05
   9.338334e+05  -7.899573e+05
   1.827199e+06   1.038520e+06
   8.687967e+05   3.284440e+06
  -1.240948e+06   3.477789e+06
  -2.964014e+06   1.400858e+06
  -3.427406e+06  -1.194438e+06
  -2.511583e+06  -2.705141e+06
  -5.870819e+05  -2.676839e+06
   1.241259e+06  -1.524970e+06
   1.613628e+06  -2.532908e+05
   4.995064e+05   3.506117e+04
  -3.817012e+05  -7.480898e+05
   3.714987e+05  -1.334168e+06
   1.870632e+06  -6.129135e+05
   2.042236e+06   8.156648e+05
   4.336383e+05   1.384874e+06
  -1.155017e+06   6.147679e+05
  -9.401658e+05  -4.224332e+05
   8.027496e+05  -5.903340e+05
   2.232240e+06   1.900423e+05
   1.875804e+06   1.298690e+06
  -1.433116e+05   2.037756e+06
  -2.287076e+06   1.773900e+06
  -2.802798e+06   3.595028e+05
  -1.250481e+06  -1.233447e+06
   8.903184e+05  -1.505396e+06
   1.540128e+06  -2.086903e+05
   2.032924e+05   1.075692e+06
  -1.511560e+06   7.720062e+05
  -1.754012e+06  -7.315876e+05
  -4.111470e+05  -1.648379e+06
   1.043198e+06  -1.036987e+06
   1.274983e+06   2.429111e+05
   2.918870e+05   7.613708e+05
  -7.829248e+05   7.405492e+04
  -7.602412e+05  -1.045498e+06
   5.590661e+05  -1.452022e+06
   2.026271e+06  -5.867491e+05
   2.081594e+06   1.022649e+06
   4.352950e+05   2.086172e+06
  -1.407387e+06   1.692225e+06
  -1.733473e+06   2.637964e+05
  -5.397112e+05  -8.563777e+05
   6.374493e+05  -8.352246e+05
   6.584466e+05  -9.838442e+04
  -8.324538e+04   3.934999e+05
  -5.045275e+05   2.660759e+05
  -1.806545e+05  -5.119736e+04
   4.108437e+05   3.333117e+04
   5.406707e+05   6.255248e+05
  -1.578586e+05   1.189521e+06
  -1.365454e+06   9.423606e+05
  -2.115112e+06  -3.646081e+05
  -1.527446e+06  -1.931612e+06
   1.590401e+05  -2.465037e+06
   1.597183e+06  -1.495365e+06
   1.731564e+06   5.934159e+04
   9.352476e+05   8.956685e+05
   3.700634e+05   7.030205e+05
   4.734296e+05   2.558405e+05
   6.031153e+05   3.031394e+05
   9.619468e+04   7.512520e+05
  -8.525492e+05   9.348534e+05
  -1.458007e+06   3.842946e+05
  -1.107543e+06  -7.024562e+05
   1.905303e+05  -1.506013e+06
   1.713107e+06  -1.149674e+06
   2.298458e+06   4.247339e+05
   1.214175e+06   2.087850e+06
  -9.404821e+05   2.409093e+06
  -2.524070e+06   1.117519e+06
  -2.399913e+06  -5.776120e+05
  -1.039853e+06  -1.316113e+06
   1.509468e+05  -9.879866e+05
   3.929561e+05  -5.669704e+05
   1.055721e+05  -7.791371e+05
   1.050355e+05  -1.309338e+06
   6.489638e+05  -1.299316e+06
   1.292547e+06  -3.424843e+05
   1.377284e+06   1.067661e+06
   6.082741e+05   1.910147e+06
  -5.989231e+05   1.474107e+06
  -1.303818e+06   3.595022e+04
  -8.569425e+05  -1.265374e+06
   3.423038e+05  -1.413938e+06
   1.134730e+06  -4.536154e+05
   8.204421e+05   6.510650e+05
  -8.175781e+04   1.061471e+06
  -4.903798e+05   7.965264e+05
  -5.737199e+04   4.313092e+05
   4.445313e+05   3.394099e+05
   6.741038e+04   3.916716e+05
  -1.146258e+06   2.402712e+05
  -2.080892e+06  -2.863594e+05
  -1.659780e+06  -1.000263e+06
  -9.937725e+03  -1.432216e+06
   1.562968e+06  -1.178939e+06
   1.835613e+06  -3.371003e+05
   8.531794e+05   4.516399e+05
  -2.457656e+05   5.667985e+05
  -5.063863e+05   5.407560e+04
  -2.688651e+04  -4.146885e+05
   4.529419e+05  -2.723875e+05
   4.944145e+05   3.367429e+05
   2.599680e+05   7.405110e+05
   9.362572e+04   4.927775e+05
   1.331625e+05  -1.124015e+05
   2.819719e+05  -3.247712e+05
   2.871056e+05   2.251088e+05
  -1.241985e+05   1.013817e+06
  -8.856457e+05   1.100314e+06
  -1.362798e+06   1.915833e+05
  -8.687767e+05  -9.163083e+05
   3.997851e+05  -1.151279e+06
   1.264684e+06  -3.535594e+05
   7.596582e+05   5.690253e+05
  -6.904340e+05   6.767268e+05
  -1.616440e+06  -4.515951e+04
  -1.060378e+06  -8.357342e+05
   4.449209e+05  -1.020202e+06
   1.501425e+06  -5.465898e+05
   1.263461e+06   1.444191e+05
   1.586549e+05   5.176825e+05
  -6.470192e+05   2.956087e+05
  -3.909799e+05  -2.871708e+05
   5.905055e+05  -5.441053e+05
   1.209726e+06   6.003873e+04
   7.073282e+05   1.194540e+06
  -5.680836e+05   1.752536e+06
  -1.496221e+06   9.390019e+05
  -1.301685e+06  -7.404395e+05
  -2.561533e+05  -1.821488e+06
   7.139508e+05  -1.343096e+06
   9.430826e+05   1.470538e+05
   4.765459e+05   1.195110e+06
  -1.860014e+05   9.892963e+05
  -5.646619e+05   1.016857e+05
  -4.908045e+05  -3.674541e+05
  -1.772675e+05  -1.312820e+05
  -4.318228e+04   9.779394e+04
  -2.820044e+05  -2.977823e+05
  -5.414324e+05  -9.713813e+05
  -2.310902e+05  -1.086861e+06
   7.091237e+05  -4.148711e+05
   1.515942e+06   4.312938e+05
   1.331436e+06   8.097000e+05
   2.069811e+05   7.044009e+05
  -8.611323e+05   4.566916e+05
  -9.960944e+05   2.168081e+05
  -3.629818e+05  -4.704567e+04
   1.434421e+05  -2.361219e+05
   2.430655e+04  -2.044882e+05
  -2.791084e+05  -8.245845e+04
  -5.510803e+04  -1.371197e+05
   6.722316e+05  -2.673719e+05
   1.069297e+06  -1.827397e+04
   4.587091e+05   7.033184e+05
  -8.279561e+05   1.232575e+06
  -1.714903e+06   8.170900e+05
  -1.455560e+06  -4.062238e+05
  -3.247304e+05  -1.428329e+06
   7.425368e+05  -1.424077e+06
   1.058684e+06  -5.811554e+05
   6.795623e+05   2.152125e+05
   1.477224e+05   3.644668e+05
  -7.336406e+04   7.678483e+04
   7.756061e+04  -1.658180e+04
   3.149746e+05   3.626765e+05
   2.765001e+05   8.136802e+05
  -1.626267e+05   7.002816e+05
  -7.031687e+05  -9.855155e+04
  -7.908416e+05  -9.492077e+05
  -1.540175e+05  -1.056652e+06
   7.649263e+05  -2.849822e+05
   1.086931e+06   7.001099e+05
   3.933289e+05   1.104757e+06
  -7.096682e+05   7.185666e+05
  -1.147338e+06  -4.160578e+04
  -5.597340e+05  -6.136840e+05
   2.769816e+05  -7.041490e+05
   3.794426e+05  -3.828953e+05
  -2.514895e+05   6.522268e+03
  -6.613346e+05   6.382194e+04
  -1.598441e+05  -3.123236e+05
   8.190005e+05  -7.190542e+05
   1.265651e+06  -5.839114e+05
   7.825910e+05   1.654232e+05
  -7.164775e+04   8.923197e+05
  -5.413115e+05   8.879645e+05
  -4.378079e+05   1.762779e+05
  -7.594912e+04  -4.884964e+05
   2.318797e+05  -4.560441e+05
   3.695526e+05   1.334955e+05
   2.798220e+05   5.811591e+05
  -4.312220e+04   4.434221e+05
  -4.031744e+05  -3.035834e+04
  -4.925866e+05  -2.753500e+05
  -2.472505e+05  -9.314162e+04
   3.815988e+04   1.585231e+05
   7.687563e+04   4.917664e+04
  -3.474732e+04  -3.649584e+05
   2.831375e+04  -5.796253e+05
   3.249825e+05  -2.468477e+05
   4.943872e+05   3.723853e+05
   1.928294e+05   6.646940e+05
  -4.056576e+05   3.409129e+05
  -6.953607e+05  -2.618917e+05
  -2.844824e+05  -5.769940e+05
   5.076197e+05  -3.900993e+05
   9.095003e+05   4.659992e+04
   5.042484e+05   3.700533e+05
  -2.898791e+05   4.234333e+05
  -6.510471e+05   2.595074e+05
  -2.607001e+05   2.417456e+04
   3.487266e+05  -9.336414e+04
   4.220069e+05   4.100050e+04
  -1.517141e+05   3.041886e+05
  -7.398690e+05   3.124378e+05
