
 $NMID
 id='ANONYMOUS ', fmtdat='(2E16.6)'
 volume=1.0
 tramp=1.0
 $END
  -1.711310e+07   1.578295e+06
  -1.219148e+07  -7.683234e+06
  -5.630671e+05  -1.123707e+07
   7.226841e+06  -7.367010e+06
   6.167972e+06  -5.477944e+05
   3.331511e+05   3.111288e+06
  -3.421107e+06   1.378817e+06
  -2.499751e+06  -2.741137e+06
   8.096216e+05  -4.492531e+06
   3.111446e+06  -2.049910e+06
   2.803936e+06   1.952982e+06
   5.608337e+05   3.353153e+06
  -1.477837e+06   8.624814e+05
  -1.342973e+06  -2.640424e+06
   8.736885e+05  -3.303585e+06
   2.829906e+06  -3.946360e+05
   2.275269e+06   3.201974e+06
  -5.077238e+05   4.258760e+06
  -3.062603e+06   2.293215e+06
  -3.388094e+06  -5.925567e+05
  -1.763965e+06  -2.181587e+06
  -1.049208e+05  -2.023253e+06
   6.534440e+04  -1.281742e+06
  -9.539680e+05  -1.256584e+06
  -1.359443e+06  -2.062904e+06
   2.388984e+05  -2.580189e+06
   2.987890e+06  -1.722460e+06
   4.276488e+06   2.384777e+05
   2.560724e+06   1.809790e+06
  -6.210614e+05   1.789369e+06
  -2.177936e+06   4.278625e+05
  -9.049438e+05  -9.432632e+05
   1.382442e+06  -1.146559e+06
   2.222230e+06  -3.085633e+03
   1.161794e+06   1.585917e+06
  -3.446826e+05   2.214566e+06
  -9.386726e+05   1.160809e+06
  -5.381079e+05  -6.123986e+05
   1.015599e+05  -1.148517e+06
   2.504754e+05   2.299543e+05
  -3.174853e+05   1.783923e+06
  -1.121400e+06   1.335086e+06
  -1.201271e+06  -8.329803e+05
  -6.464761e+04  -2.106422e+06
   1.444327e+06  -8.015895e+05
   1.689118e+06   1.684259e+06
   2.850145e+03   2.598789e+06
  -2.307946e+06   1.039377e+06
  -3.077014e+06  -1.335039e+06
  -1.443508e+06  -2.410803e+06
   1.224133e+06  -1.624118e+06
   2.610370e+06   2.359582e+04
   1.653739e+06   1.162055e+06
  -4.944117e+05   1.074872e+06
  -1.694100e+06   9.104251e+04
  -9.978170e+05  -7.285013e+05
   4.813251e+05  -5.705110e+05
   9.505906e+05   2.771920e+05
   1.587292e+02   7.515627e+05
  -1.025434e+06   2.598548e+05
  -7.123095e+05  -6.621730e+05
   7.413015e+05  -1.005953e+06
   1.771186e+06  -3.156796e+05
   1.177892e+06   1.009368e+06
  -6.723146e+05   2.075241e+06
  -2.317608e+06   2.014174e+06
  -2.612247e+06   5.816668e+05
  -1.625911e+06  -1.412646e+06
  -3.463015e+05  -2.570336e+06
   3.433043e+05  -2.226914e+06
   3.995992e+05  -1.156912e+06
   4.290927e+05  -5.817754e+05
   8.694028e+05  -6.518747e+05
   1.459882e+06  -4.426111e+05
   1.541923e+06   5.517043e+05
   7.885825e+05   1.538548e+06
  -4.185690e+05   1.370284e+06
  -1.255919e+06   5.631898e+03
  -1.069191e+06  -1.376530e+06
   9.907740e+04  -1.610719e+06
   1.423807e+06  -6.048317e+05
   1.873131e+06   7.643076e+05
   1.134120e+06   1.538975e+06
  -4.361764e+04   1.431966e+06
  -6.545029e+05   8.969405e+05
  -5.847279e+05   5.685376e+05
  -6.571850e+05   5.998850e+05
  -1.421303e+06   5.409679e+05
  -2.235315e+06  -1.058218e+05
  -1.917135e+06  -1.249390e+06
  -2.248591e+05  -2.177790e+06
   1.667129e+06  -2.150221e+06
   2.296699e+06  -1.049657e+06
   1.353962e+06   4.355722e+05
  -1.051150e+05   1.268852e+06
  -7.656588e+05   9.140626e+05
  -2.636025e+05  -1.104683e+05
   6.375321e+05  -6.713539e+05
   9.322562e+05  -2.193272e+05
   3.778955e+05   5.672779e+05
  -3.468525e+05   6.092694e+05
  -4.144944e+05  -1.743599e+05
   2.832465e+05  -6.850330e+05
   1.036645e+06  -8.292923e+02
   1.008918e+06   1.413864e+06
  -3.605584e+03   2.156520e+06
  -1.386272e+06   1.412014e+06
  -2.165132e+06  -2.421432e+05
  -1.750632e+06  -1.511655e+06
  -4.503678e+05  -1.620857e+06
   7.161311e+05  -8.543461e+05
   9.044610e+05  -9.993057e+04
   2.680792e+05   1.180622e+04
  -2.206594e+05  -3.921873e+05
   1.190916e+05  -6.641947e+05
   8.777320e+05  -3.563458e+05
   1.057745e+06   2.986518e+05
   3.103304e+05   6.573707e+05
  -5.877898e+05   3.794063e+05
  -6.003213e+05  -2.144999e+05
   3.762927e+05  -4.882004e+05
   1.351343e+06  -1.048861e+05
   1.260442e+06   6.880901e+05
   5.629772e+04   1.265345e+06
  -1.239190e+06   1.111014e+06
  -1.530273e+06   2.723726e+05
  -6.817786e+05  -5.870332e+05
   4.067186e+05  -7.353947e+05
   7.159622e+05  -1.211664e+05
   7.194048e+04   5.125466e+05
  -7.769640e+05   4.165721e+05
  -9.657589e+05  -3.174789e+05
  -3.392562e+05  -8.752379e+05
   4.759223e+05  -6.736423e+05
   7.270659e+05  -1.353935e+02
   2.543259e+05   3.755069e+05
  -3.702171e+05   7.395080e+04
  -4.033608e+05  -5.360307e+05
   3.035896e+05  -7.722382e+05
   1.088067e+06  -3.111036e+05
   1.114048e+06   5.342342e+05
   2.654802e+05   1.097118e+06
  -6.919363e+05   9.312849e+05
  -9.118302e+05   2.075142e+05
  -3.408197e+05  -4.333718e+05
   3.126804e+05  -4.838434e+05
   4.056370e+05  -4.833116e+04
  -6.199279e+03   3.189467e+05
  -3.611194e+05   2.453402e+05
  -2.570034e+05  -7.085681e+04
   1.557441e+05  -1.394036e+05
   3.656343e+05   2.194669e+05
   2.028106e+04   6.347347e+05
  -6.923642e+05   5.593505e+05
  -1.148444e+06  -1.447649e+05
  -8.508316e+05  -1.009577e+06
   5.058848e+04  -1.354365e+06
   8.595968e+05  -9.045655e+05
   1.016402e+06  -4.544237e+04
   6.238726e+05   5.469602e+05
   2.291128e+05   5.432459e+05
   1.628808e+05   2.237084e+05
   2.325614e+05   1.031099e+05
   6.038919e+04   3.343090e+05
  -4.106769e+05   5.464931e+05
  -8.113137e+05   2.929045e+05
  -6.927439e+05  -3.872724e+05
   3.288615e+04  -9.160428e+05
   9.266963e+05  -7.188364e+05
   1.293475e+06   1.770694e+05
   7.470611e+05   1.101299e+06
  -3.895379e+05   1.324480e+06
  -1.295045e+06   7.116120e+05
  -1.360244e+06  -1.906316e+05
  -7.077986e+05  -7.059751e+05
   1.095936e+04  -6.505568e+05
   2.889343e+05  -4.027296e+05
   1.793655e+05  -3.965199e+05
   9.440091e+04  -6.189057e+05
   3.014160e+05  -6.523666e+05
   6.495785e+05  -1.886088e+05
   7.403610e+05   5.652524e+05
   3.448579e+05   1.031161e+06
  -3.167489e+05   8.061402e+05
  -7.178239e+05   5.408977e+04
  -5.121876e+05  -6.366534e+05
   9.843508e+04  -7.726340e+05
   5.420804e+05  -3.493951e+05
   4.599362e+05   2.202510e+05
   6.223903e+04   5.199876e+05
  -1.518667e+05   4.663596e+05
   1.238444e+04   2.814580e+05
   2.244427e+05   1.971127e+05
   2.971170e+04   2.192239e+05
  -5.828525e+05   1.669507e+05
  -1.085118e+06  -9.494651e+04
  -9.188680e+05  -4.817046e+05
  -9.590536e+04  -7.363399e+05
   7.522801e+05  -6.497033e+05
   9.682258e+05  -2.595212e+05
   5.032106e+05   1.497955e+05
  -8.541549e+04   2.750091e+05
  -2.549025e+05   7.539611e+04
  -1.907203e+03  -1.687910e+05
   2.658075e+05  -1.349649e+05
   2.614379e+05   1.752429e+05
   8.518574e+04   4.073300e+05
  -3.276415e+03   2.623046e+05
   8.293599e+04  -1.068546e+05
   2.055536e+05  -2.300141e+05
   1.749072e+05   1.121737e+05
  -8.609610e+04   5.713900e+05
  -4.617489e+05   5.993984e+05
  -6.583116e+05   8.987394e+04
  -4.087996e+05  -4.791663e+05
   1.945498e+05  -5.704317e+05
   6.303218e+05  -1.520662e+05
   4.066333e+05   3.182050e+05
  -3.503249e+05   3.918775e+05
  -9.119540e+05   3.069242e+04
  -6.767484e+05  -4.331736e+05
   1.706728e+05  -6.231493e+05
   8.388813e+05  -4.076832e+05
   7.554047e+05   2.091358e+04
   1.250114e+05   2.997690e+05
  -3.453332e+05   2.013838e+05
  -1.982799e+05  -1.291361e+05
   3.420045e+05  -2.678271e+05
   6.468615e+05   6.741925e+04
   3.352011e+05   6.602931e+05
  -3.579547e+05   9.254008e+05
  -8.331585e+05   4.769960e+05
  -7.099569e+05  -4.160515e+05
  -1.456556e+05  -1.006845e+06
   3.838905e+05  -7.764854e+05
   5.362297e+05   3.222845e+04
   3.169492e+05   6.512478e+05
  -4.260055e+04   5.838572e+05
  -2.965030e+05   8.719615e+04
  -3.117945e+05  -2.122661e+05
  -1.405908e+05  -9.142314e+04
  -7.762650e+03   6.990379e+04
  -9.846006e+04  -1.214335e+05
  -2.837063e+05  -5.114024e+05
  -1.885647e+05  -6.117893e+05
   3.253872e+05  -2.527567e+05
   8.442599e+05   2.258944e+05
   7.887130e+05   4.393042e+05
   1.281550e+05   3.746709e+05
  -5.115850e+05   2.463671e+05
  -5.636624e+05   1.421886e+05
  -1.659558e+05   9.472520e+03
   9.344017e+04  -1.227851e+05
  -3.712339e+04  -1.456814e+05
  -2.054211e+05  -8.180434e+04
  -8.931257e+03  -7.566663e+04
   4.231940e+05  -1.199643e+05
   5.747315e+05   1.430247e+03
   1.727259e+05   3.609721e+05
  -4.954327e+05   6.342248e+05
  -8.888449e+05   4.161370e+05
  -7.215502e+05  -2.382220e+05
  -1.583177e+05  -7.844204e+05
   3.828191e+05  -7.629275e+05
   5.693174e+05  -2.827062e+05
   3.752373e+05   1.478795e+05
   5.780691e+04   1.944625e+05
  -8.316325e+04   2.597676e+03
   2.982009e+04  -4.947118e+04
   2.011910e+05   1.840327e+05
   1.750218e+05   4.462302e+05
  -9.725632e+04   3.685732e+05
  -3.889830e+05  -9.163963e+04
  -3.939712e+05  -5.479259e+05
  -2.570439e+04  -5.604793e+05
   4.411169e+05  -9.915733e+04
   5.676330e+05   4.260224e+05
   1.803337e+05   5.930722e+05
  -3.887231e+05   3.511286e+05
  -5.963220e+05  -3.346363e+04
  -2.803858e+05  -2.935839e+05
   1.399289e+05  -3.364122e+05
   1.619556e+05  -2.036398e+05
  -1.813470e+05  -2.134329e+04
  -3.714354e+05   2.575657e+04
  -7.212095e+04  -1.581488e+05
   4.462351e+05  -3.984839e+05
   6.528181e+05  -3.604851e+05
   3.836944e+05   4.505164e+04
  -4.024698e+04   4.657400e+05
  -2.495182e+05   4.698002e+05
  -1.854798e+05   6.847220e+04
  -1.319319e+04  -2.817050e+05
   1.314023e+05  -2.208844e+05
   1.975110e+05   1.155732e+05
   1.449354e+05   3.168913e+05
  -2.960465e+04   2.002908e+05
  -2.145828e+05  -3.547736e+04
  -2.568780e+05  -1.179718e+05
  -1.377714e+05  -2.378464e+04
   3.760153e+03   4.951767e+04
   5.111884e+04  -4.307059e+04
   4.530371e+04  -2.175546e+05
   9.411722e+04  -2.554420e+05
   1.927536e+05  -5.110650e+04
   2.033926e+05   2.461996e+05
   2.621421e+04   3.573415e+05
  -2.399440e+05   1.600655e+05
  -3.444548e+05  -1.681845e+05
  -1.288660e+05  -3.284973e+05
   2.626791e+05  -2.066413e+05
   4.656637e+05   4.299382e+04
   2.601166e+05   2.014131e+05
  -1.538247e+05   1.967438e+05
  -3.367258e+05   1.010468e+05
  -1.063316e+05   1.053578e+04
   2.324969e+05  -7.626483e+03
   2.407550e+05   7.489599e+04
  -1.267080e+05   1.882415e+05
  -4.667932e+05   1.566457e+05
