
 $NMID
 id='ANONYMOUS ', fmtdat='(2E16.6)'
 volume=1.0
 tramp=1.0
 $END
   2.378650e+07   2.606643e+06
   1.304038e+07   1.470347e+07
  -3.706611e+06   1.505946e+07
  -1.142116e+07   6.366880e+06
  -6.981515e+06  -1.928025e+06
   9.885928e+05  -3.742526e+06
   4.127970e+06  -1.885406e+05
   1.714577e+06   3.900999e+06
  -2.191403e+06   4.603866e+06
  -4.137450e+06   1.304203e+06
  -3.091959e+06  -3.042564e+06
  -1.437166e+05  -4.219306e+06
   2.070654e+06  -9.843291e+05
   1.329440e+06   3.118510e+06
  -1.620806e+06   3.458463e+06
  -3.459736e+06  -4.356922e+05
  -1.913183e+06  -4.578260e+06
   1.824203e+06  -5.182374e+06
   4.632654e+06  -2.219501e+06
   4.563180e+06   1.558474e+06
   2.139094e+06   3.619235e+06
  -4.569561e+05   3.322204e+06
  -1.140958e+06   1.852967e+06
   2.103126e+05   1.100918e+06
   1.310033e+06   1.857985e+06
  -1.829106e+05   2.812004e+06
  -3.518396e+06   2.024878e+06
  -5.203500e+06  -4.864626e+05
  -3.138971e+06  -2.559195e+06
   6.859011e+05  -2.475744e+06
   2.575131e+06  -7.726149e+05
   1.326406e+06   8.202014e+05
  -1.052148e+06   1.190939e+06
  -2.152723e+06   2.081622e+05
  -1.405314e+06  -1.521915e+06
   1.950118e+05  -2.575360e+06
   1.316329e+06  -1.593557e+06
   1.153180e+06   7.549119e+05
   4.617778e+04   1.802302e+06
  -6.061809e+05   1.761906e+05
   1.523507e+05  -1.903315e+06
   1.374697e+06  -1.348981e+06
   1.148515e+06   1.347902e+06
  -8.147163e+05   2.498573e+06
  -2.461985e+06   2.192816e+05
  -1.748709e+06  -2.966227e+06
   9.589276e+05  -3.417968e+06
   3.319087e+06  -7.660407e+05
   3.373286e+06   2.191691e+06
   1.128642e+06   2.976457e+06
  -1.652701e+06   1.542538e+06
  -2.813186e+06  -5.089257e+05
  -1.499442e+06  -1.572610e+06
   9.254615e+05  -1.038721e+06
   2.041503e+06   3.645374e+05
   9.389644e+05   1.147690e+06
  -7.632452e+05   5.774773e+05
  -9.799206e+05  -4.552804e+05
   2.467558e+05  -5.830963e+05
   1.007744e+06   2.828429e+05
   1.072603e+05   9.923179e+05
  -1.542081e+06   7.056964e+05
  -2.172435e+06  -3.715029e+05
  -1.040141e+06  -1.629745e+06
   1.138042e+06  -2.502032e+06
   2.963491e+06  -2.267804e+06
   3.294848e+06  -4.909347e+05
   1.995947e+06   1.951266e+06
   1.527989e+05   3.203711e+06
  -8.199759e+05   2.452584e+06
  -6.069562e+05   9.642738e+05
  -2.285494e+05   4.306448e+05
  -6.439172e+05   8.242879e+05
  -1.536113e+06   7.407239e+05
  -1.824882e+06  -4.315144e+05
  -1.022804e+06  -1.629802e+06
   3.232041e+05  -1.516589e+06
   1.260559e+06  -7.441096e+04
   1.113695e+06   1.452430e+06
  -1.469121e+05   1.799847e+06
  -1.704426e+06   6.959180e+05
  -2.279251e+06  -1.018198e+06
  -1.308700e+06  -2.091241e+06
   2.980194e+05  -1.922781e+06
   1.119701e+06  -1.058419e+06
   9.295393e+05  -4.856334e+05
   8.411540e+05  -4.727921e+05
   1.614188e+06  -3.822173e+05
   2.461237e+06   3.790047e+05
   2.003561e+06   1.580294e+06
   6.455983e+04   2.423854e+06
  -1.987836e+06   2.276058e+06
  -2.620219e+06   1.094992e+06
  -1.562514e+06  -4.927048e+05
   7.221369e+04  -1.439691e+06
   8.622306e+05  -1.068112e+06
   3.226774e+05   1.076258e+05
  -7.326842e+05   7.382208e+05
  -1.084641e+06   1.742756e+05
  -4.199126e+05  -7.082423e+05
   3.868706e+05  -6.729651e+05
   3.713693e+05   1.868517e+05
  -3.949049e+05   5.619817e+05
  -9.849679e+05  -3.160097e+05
  -6.902462e+05  -1.663996e+06
   3.778230e+05  -2.092675e+06
   1.560037e+06  -1.118658e+06
   2.137258e+06   5.092682e+05
   1.675684e+06   1.654947e+06
   3.830595e+05   1.704202e+06
  -8.132126e+05   9.009694e+05
  -9.998515e+05   8.511669e+04
  -2.956035e+05  -3.158854e+04
   2.106389e+05   4.475722e+05
  -2.221928e+05   7.326881e+05
  -1.045950e+06   2.986964e+05
  -1.137461e+06  -4.673985e+05
  -2.474929e+05  -7.655255e+05
   6.742678e+05  -3.516296e+05
   6.000266e+05   2.554716e+05
  -4.331273e+05   4.204062e+05
  -1.380990e+06  -2.929834e+04
  -1.231671e+06  -7.821118e+05
   3.614186e+04  -1.291471e+06
   1.396193e+06  -1.084522e+06
   1.681256e+06  -1.802895e+05
   6.987113e+05   7.230266e+05
  -5.443826e+05   8.082670e+05
  -8.502843e+05   6.219692e+04
  -5.165988e+04  -6.103558e+05
   9.005103e+05  -4.054803e+05
   1.020952e+06   4.383841e+05
   2.658500e+05   9.645717e+05
  -5.771750e+05   6.415099e+05
  -7.516578e+05  -9.368549e+04
  -2.042353e+05  -4.203069e+05
   4.286344e+05  -2.814158e+04
   4.080283e+05   6.326518e+05
  -3.855130e+05   8.409296e+05
  -1.226559e+06   2.797618e+05
  -1.200995e+06  -6.676205e+05
  -2.082100e+05  -1.235250e+06
   8.466828e+05  -9.653516e+05
   1.015697e+06  -1.417410e+05
   3.220266e+05   4.982325e+05
  -3.787987e+05   4.922104e+05
  -4.261483e+05   4.518448e+04
   1.981686e+04  -2.895779e+05
   3.466424e+05  -2.205491e+05
   2.125301e+05   3.524553e+04
  -1.761683e+05   5.282586e+04
  -3.284674e+05  -3.050989e+05
   6.827438e+04  -6.829938e+05
   8.096294e+05  -5.431977e+05
   1.247049e+06   2.517051e+05
   8.618050e+05   1.177193e+06
  -1.456159e+05   1.476383e+06
  -9.807496e+05   9.044424e+05
  -1.069883e+06  -2.508333e+04
  -6.189142e+05  -5.815718e+05
  -2.498289e+05  -5.290837e+05
  -2.337295e+05  -2.395976e+05
  -2.815857e+05  -1.811420e+05
  -2.535793e+04  -4.078582e+05
   5.019634e+05  -5.501308e+05
   8.853360e+05  -2.409811e+05
   7.019677e+05   4.444351e+05
  -9.944059e+04   9.471446e+05
  -1.044833e+06   6.945526e+05
  -1.383915e+06  -2.848220e+05
  -7.113941e+05  -1.252633e+06
   5.600104e+05  -1.401802e+06
   1.480387e+06  -6.428783e+05
   1.432995e+06   3.321087e+05
   6.707744e+05   7.878412e+05
  -5.476504e+04   6.452802e+05
  -2.823518e+05   4.015960e+05
  -1.685893e+05   4.706852e+05
  -1.438492e+05   7.315522e+05
  -4.070930e+05   7.162379e+05
  -7.522529e+05   1.572292e+05
  -7.853051e+05  -6.748914e+05
  -3.136590e+05  -1.157159e+06
   3.978897e+05  -8.669286e+05
   7.817108e+05  -4.653297e+03
   4.938490e+05   7.445631e+05
  -1.934181e+05   8.232497e+05
  -6.281907e+05   2.866753e+05
  -4.550009e+05  -3.302210e+05
   2.651870e+04  -5.782832e+05
   2.410461e+05  -4.610165e+05
   1.108234e+04  -2.775841e+05
  -2.487939e+05  -2.290653e+05
  -2.541129e+04  -2.432463e+05
   6.640619e+05  -1.237864e+05
   1.200361e+06   2.077728e+05
   9.633850e+05   6.098696e+05
   9.279502e+03   8.154208e+05
  -9.120806e+05   6.454711e+05
  -1.078109e+06   1.877058e+05
  -5.034779e+05  -2.297956e+05
   1.416129e+05  -3.028118e+05
   2.842188e+05  -4.145902e+04
  -1.521326e+04   2.180121e+05
  -2.951346e+05   1.464713e+05
  -2.811418e+05  -2.137028e+05
  -1.001519e+05  -4.670236e+05
  -6.740926e+03  -3.059903e+05
  -8.138233e+04   9.411582e+04
  -2.017550e+05   2.292084e+05
  -1.751671e+05  -1.354676e+05
   1.141622e+05  -6.221154e+05
   5.542699e+05  -6.298284e+05
   7.763095e+05  -4.689768e+04
   4.502162e+05   5.781944e+05
  -2.726059e+05   6.401423e+05
  -7.430737e+05   1.373760e+05
  -4.368548e+05  -3.716637e+05
   4.149491e+05  -3.954390e+05
   9.791010e+05   3.542314e+04
   6.693569e+05   5.014213e+05
  -2.407027e+05   6.277221e+05
  -9.105039e+05   3.553075e+05
  -7.851746e+05  -7.628016e+04
  -1.070076e+05  -3.192635e+05
   3.851337e+05  -1.813075e+05
   2.112302e+05   1.704635e+05
  -3.898650e+05   2.950315e+05
  -7.244241e+05  -9.699258e+04
  -3.596506e+05  -7.553223e+05
   4.302807e+05  -1.027793e+06
   9.458411e+05  -5.016813e+05
   7.633742e+05   4.919731e+05
   1.057858e+05   1.110613e+06
  -4.577993e+05   8.125612e+05
  -5.668066e+05  -8.305362e+04
  -2.854148e+05  -7.215946e+05
   9.694363e+04  -6.046865e+05
   3.293405e+05  -6.090672e+04
   3.134152e+05   2.345034e+05
   1.333959e+05   8.766332e+04
   1.564846e+04  -6.456542e+04
   1.180934e+05   1.735030e+05
   2.854038e+05   5.913961e+05
   1.486654e+05   6.595324e+05
  -3.957327e+05   2.320615e+05
  -9.077134e+05  -2.957233e+05
  -8.146358e+05  -5.131847e+05
  -1.107410e+05  -4.212604e+05
   5.582693e+05  -2.556908e+05
   6.135485e+05  -1.192073e+05
   1.902288e+05   2.410185e+04
  -1.037240e+05   1.371082e+05
   1.735628e+04   1.333724e+05
   2.054510e+05   7.034888e+04
   1.575806e+04   8.908271e+04
  -4.526939e+05   1.358005e+05
  -6.406983e+05  -3.023988e+04
  -2.022979e+05  -4.385814e+05
   5.698195e+05  -7.017730e+05
   1.033471e+06  -4.122280e+05
   8.222360e+05   3.131319e+05
   1.417641e+05   8.762429e+05
  -4.790531e+05   8.212977e+05
  -6.565559e+05   2.946033e+05
  -4.111148e+05  -1.681848e+05
  -6.261215e+04  -2.256767e+05
   8.106273e+04  -2.833502e+04
  -3.138110e+04   3.000650e+04
  -1.937100e+05  -2.133636e+05
  -1.568593e+05  -4.942645e+05
   1.269641e+05  -4.094327e+05
   4.306787e+05   1.029143e+05
   4.298870e+05   6.207857e+05
   2.173490e+04   6.420461e+05
  -4.946535e+05   1.185622e+05
  -6.261247e+05  -4.860986e+05
  -1.803599e+05  -6.775231e+05
   4.579159e+05  -3.861011e+05
   6.730094e+05   7.237863e+04
   2.943472e+05   3.659247e+05
  -1.909148e+05   3.835120e+05
  -2.131923e+05   2.062452e+05
   1.839107e+05   9.870181e+03
   4.083547e+05  -1.497049e+04
   7.503823e+04   1.883382e+05
  -5.127500e+05   4.116233e+05
  -7.473070e+05   3.313533e+05
  -4.300940e+05  -1.039586e+05
   7.486827e+04  -5.219076e+05
   3.271750e+05  -4.996848e+05
   2.415606e+05  -6.503688e+04
   1.671985e+04   3.113275e+05
  -1.619881e+05   2.512697e+05
  -2.245285e+05  -1.185957e+05
  -1.460605e+05  -3.595788e+05
   5.147401e+04  -2.411100e+05
   2.421248e+05   4.310857e+04
   2.742123e+05   1.629866e+05
   1.423072e+05   4.623327e+04
  -1.385248e+02  -7.719680e+04
  -3.626695e+04   1.298820e+04
  -2.590233e+04   2.449394e+05
  -9.516257e+04   3.263761e+05
  -2.293493e+05   9.048447e+04
  -2.541535e+05  -2.788007e+05
  -4.633559e+04  -4.184793e+05
   2.710977e+05  -1.807274e+05
   3.941541e+05   2.012245e+05
   1.402849e+05   3.695665e+05
  -3.097153e+05   2.126977e+05
  -5.305508e+05  -7.249039e+04
  -2.828760e+05  -2.405541e+05
   1.913647e+05  -2.240118e+05
   3.962439e+05  -1.079022e+05
   1.360572e+05   2.062563e+03
  -2.472036e+05   2.752688e+04
  -2.696623e+05  -6.745646e+04
   1.228960e+05  -2.009369e+05
   4.960894e+05  -1.699737e+05
