
 $NMID
 id='ANONYMOUS ', fmtdat='(2E16.6)'
 volume=1.0
 tramp=1.0
 $END
  -5.188453e+07  -2.810449e+05
  -3.140471e+07  -3.135852e+07
   6.249427e+06  -3.477407e+07
   2.508868e+07  -1.433993e+07
   1.554257e+07   5.485798e+06
  -2.584923e+06   8.656251e+06
  -9.205274e+06  -4.554509e+05
  -3.169460e+06  -8.907669e+06
   5.327922e+06  -9.259809e+06
   8.983377e+06  -2.356587e+06
   6.667505e+06   5.866524e+06
   7.653655e+05   8.300883e+06
  -3.867682e+06   2.488537e+06
  -2.628225e+06  -5.514367e+06
   3.419220e+06  -6.583021e+06
   7.416476e+06   9.870476e+05
   4.343708e+06   9.511363e+06
  -3.389883e+06   1.109988e+07
  -9.411560e+06   5.484421e+06
  -9.975975e+06  -2.079609e+06
  -5.848971e+06  -6.992004e+06
  -4.129889e+05  -7.711463e+06
   2.433591e+06  -5.248125e+06
   1.045192e+06  -2.610280e+06
  -1.498013e+06  -2.630701e+06
  -5.654376e+04  -4.474742e+06
   5.673584e+06  -4.185164e+06
   9.563366e+06  -1.537571e+05
   6.650763e+06   4.180975e+06
  -1.680464e+05   4.826575e+06
  -3.981040e+06   2.188705e+06
  -2.391897e+06  -4.649303e+05
   1.108716e+06  -1.300422e+06
   2.835102e+06  -3.914962e+05
   2.264768e+06   1.892365e+06
   3.326771e+05   4.141683e+06
  -1.923048e+06   3.528902e+06
  -2.794145e+06  -4.462077e+05
  -1.225657e+06  -3.428131e+06
   7.808845e+05  -1.379481e+06
   1.074195e+05   2.773980e+06
  -2.466736e+06   2.389947e+06
  -2.415247e+06  -2.914351e+06
   1.957469e+06  -5.705782e+06
   6.094129e+06  -1.027828e+06
   4.650246e+06   6.270495e+06
  -1.633124e+06   7.810891e+06
  -6.901921e+06   2.243239e+06
  -6.784898e+06  -4.187480e+06
  -2.028209e+06  -5.843453e+06
   3.313657e+06  -2.826126e+06
   5.294647e+06   1.265090e+06
   2.613444e+06   3.292336e+06
  -2.146423e+06   2.180910e+06
  -4.307018e+06  -7.451695e+05
  -1.945069e+06  -2.494401e+06
   1.585815e+06  -1.312627e+06
   1.790768e+06   9.523517e+05
  -1.030195e+06   1.044554e+06
  -2.366385e+06  -1.273842e+06
   2.042476e+05  -2.957614e+06
   3.968862e+06  -1.859522e+06
   4.920285e+06   9.953000e+05
   2.284114e+06   3.600844e+06
  -1.807364e+06   5.047894e+06
  -5.072360e+06   4.650296e+06
  -6.089571e+06   1.540246e+06
  -4.291621e+06  -3.206027e+06
  -8.051604e+05  -6.043064e+06
   1.681447e+06  -4.734574e+06
   1.570136e+06  -1.463996e+06
   3.139940e+05  -8.173682e+04
   3.969509e+05  -1.093025e+06
   1.973923e+06  -1.604763e+06
   2.948259e+06   1.021666e+05
   1.954239e+06   2.269462e+06
  -1.941790e+05   2.344500e+06
  -1.819481e+06   1.627295e+05
  -1.808982e+06  -2.290835e+06
   7.472771e+04  -3.064645e+06
   2.864556e+06  -1.548679e+06
   4.370031e+06   1.358338e+06
   2.994192e+06   3.718865e+06
  -1.235290e+05   3.978184e+06
  -2.135028e+06   2.501606e+06
  -2.034815e+06   1.111646e+06
  -1.745065e+06   7.858894e+05
  -2.971154e+06   5.915981e+05
  -4.442263e+06  -7.015523e+05
  -3.595527e+06  -2.799671e+06
  -1.569854e+05  -4.261857e+06
   3.347481e+06  -4.032993e+06
   4.387911e+06  -2.110668e+06
   2.727947e+06   5.688687e+05
   1.445631e+05   2.365100e+06
  -1.253650e+06   1.945668e+06
  -5.736691e+05  -8.641147e+04
   1.170995e+06  -1.337470e+06
   1.946887e+06  -3.948264e+05
   8.902683e+05   1.231106e+06
  -5.836149e+05   1.164628e+06
  -5.289298e+05  -3.859628e+05
   9.710316e+05  -8.501856e+05
   1.912026e+06   1.034712e+06
   9.217448e+05   3.398806e+06
  -1.294002e+06   3.652104e+06
  -3.115981e+06   1.483851e+06
  -3.582745e+06  -1.289374e+06
  -2.571241e+06  -2.898951e+06
  -5.378053e+05  -2.813568e+06
   1.330652e+06  -1.538121e+06
   1.672351e+06  -2.077206e+05
   5.142054e+05   4.907037e+04
  -3.772305e+05  -7.810249e+05
   4.009205e+05  -1.364429e+06
   1.927105e+06  -5.974723e+05
   2.090040e+06   8.704208e+05
   4.304103e+05   1.433716e+06
  -1.206330e+06   6.153351e+05
  -9.754635e+05  -4.656580e+05
   8.468555e+05  -6.189086e+05
   2.335334e+06   2.348953e+05
   1.938323e+06   1.407611e+06
  -1.955672e+05   2.133687e+06
  -2.419105e+06   1.790169e+06
  -2.908477e+06   3.048982e+05
  -1.263505e+06  -1.294610e+06
   9.409909e+05  -1.522695e+06
   1.577046e+06  -1.844284e+05
   1.810098e+05   1.101476e+06
  -1.573271e+06   7.590668e+05
  -1.798645e+06  -7.912392e+05
  -3.990268e+05  -1.719145e+06
   1.100377e+06  -1.067124e+06
   1.326635e+06   2.675589e+05
   2.999394e+05   7.967992e+05
  -8.033977e+05   6.719599e+04
  -7.578232e+05  -1.091385e+06
   6.129582e+05  -1.479170e+06
   2.101726e+06  -5.502767e+05
   2.117630e+06   1.106120e+06
   3.995363e+05   2.160120e+06
  -1.487833e+06   1.714811e+06
  -1.796702e+06   2.364850e+05
  -5.439487e+05  -8.985943e+05
   6.780549e+05  -8.529588e+05
   6.903221e+05  -7.897472e+04
  -9.780586e+04   4.240710e+05
  -5.490296e+05   2.702678e+05
  -2.067258e+05  -7.698453e+04
   4.241757e+05   1.526881e+04
   5.609452e+05   6.461463e+05
  -1.775152e+05   1.228281e+06
  -1.429106e+06   9.454607e+05
  -2.174688e+06  -4.250841e+05
  -1.528447e+06  -2.028586e+06
   2.276777e+05  -2.542716e+06
   1.695206e+06  -1.513215e+06
   1.802658e+06   1.036225e+05
   9.522058e+05   9.697908e+05
   3.517257e+05   7.637437e+05
   4.578911e+05   2.820794e+05
   6.029208e+05   3.104278e+05
   8.567130e+04   7.649401e+05
  -8.992494e+05   9.497528e+05
  -1.522555e+06   3.672577e+05
  -1.135097e+06  -7.628171e+05
   2.351053e+05  -1.567958e+06
   1.804253e+06  -1.153013e+06
   2.369133e+06   4.960805e+05
   1.211637e+06   2.187908e+06
  -1.017171e+06   2.471209e+06
  -2.629948e+06   1.106536e+06
  -2.478702e+06  -6.467611e+05
  -1.059932e+06  -1.396991e+06
   1.813330e+05  -1.039247e+06
   4.412714e+05  -5.823246e+05
   1.477688e+05  -7.852855e+05
   1.425172e+05  -1.328870e+06
   6.921139e+05  -1.317618e+06
   1.333838e+06  -3.225513e+05
   1.390682e+06   1.135628e+06
   5.775752e+05   1.986444e+06
  -6.571678e+05   1.505210e+06
  -1.350073e+06   6.235449e+03
  -8.609809e+05  -1.323923e+06
   3.779123e+05  -1.456872e+06
   1.179310e+06  -4.599821e+05
   8.419828e+05   6.730657e+05
  -9.096187e+04   1.092135e+06
  -5.114787e+05   8.234491e+05
  -6.814842e+04   4.549285e+05
   4.444542e+05   3.627576e+05
   5.663411e+04   4.057189e+05
  -1.184602e+06   2.252505e+05
  -2.134573e+06  -3.385829e+05
  -1.691741e+06  -1.068113e+06
   1.015226e+04  -1.477915e+06
   1.628450e+06  -1.182565e+06
   1.904001e+06  -3.121417e+05
   8.824597e+05   4.768758e+05
  -2.581266e+05   5.762235e+05
  -5.241352e+05   5.107274e+04
  -1.866332e+04  -4.174365e+05
   4.769112e+05  -2.637445e+05
   4.995602e+05   3.592734e+05
   2.372181e+05   7.664032e+05
   7.415307e+04   5.049255e+05
   1.461118e+05  -1.185567e+05
   3.126595e+05  -3.312518e+05
   2.932018e+05   2.392997e+05
  -1.609778e+05   1.042563e+06
  -9.395916e+05   1.111468e+06
  -1.394481e+06   1.650266e+05
  -8.611540e+05  -9.595218e+05
   4.351391e+05  -1.168353e+06
   1.300242e+06  -3.276110e+05
   7.652987e+05   6.087396e+05
  -7.286920e+05   6.845491e+05
  -1.675592e+06  -8.550786e+04
  -1.088346e+06  -8.965118e+05
   4.814082e+05  -1.056959e+06
   1.576646e+06  -5.380742e+05
   1.315057e+06   1.804147e+05
   1.540613e+05   5.446458e+05
  -6.778553e+05   2.944035e+05
  -3.953793e+05  -3.009468e+05
   6.246635e+05  -5.381050e+05
   1.240563e+06   1.001431e+05
   6.868321e+05   1.248507e+06
  -6.402779e+05   1.781966e+06
  -1.569082e+06   9.188768e+05
  -1.320450e+06  -8.022527e+05
  -2.127709e+05  -1.888353e+06
   7.769004e+05  -1.372863e+06
   9.763217e+05   1.718658e+05
   4.677391e+05   1.250630e+06
  -2.132296e+05   1.027744e+06
  -5.858394e+05   9.566524e+04
  -5.023111e+05  -3.984221e+05
  -1.849559e+05  -1.475510e+05
  -4.618130e+04   1.039378e+05
  -2.768622e+05  -3.029803e+05
  -5.309743e+05  -1.012765e+06
  -2.168588e+05  -1.136292e+06
   7.349025e+05  -4.180778e+05
   1.555065e+06   4.872501e+05
   1.361112e+06   8.775205e+05
   1.970865e+05   7.318274e+05
  -9.076774e+05   4.424787e+05
  -1.038821e+06   1.978964e+05
  -3.706496e+05  -4.984831e+04
   1.567060e+05  -2.371682e+05
   2.548604e+04  -2.205022e+05
  -2.911753e+05  -1.036655e+05
  -4.946806e+04  -1.409784e+05
   7.078043e+05  -2.474469e+05
   1.100702e+06   1.209831e+04
   4.422771e+05   7.272555e+05
  -8.923443e+05   1.237538e+06
  -1.780787e+06   7.937702e+05
  -1.475770e+06  -4.560123e+05
  -2.911448e+05  -1.481162e+06
   8.004403e+05  -1.447268e+06
   1.103304e+06  -5.646085e+05
   6.927271e+05   2.463250e+05
   1.387999e+05   3.770431e+05
  -8.149704e+04   6.659799e+04
   8.192513e+04  -2.290306e+04
   3.209167e+05   3.830123e+05
   2.664531e+05   8.493660e+05
  -1.873971e+05   7.147135e+05
  -7.199698e+05  -1.280382e+05
  -7.800842e+05  -1.002745e+06
  -1.208058e+05  -1.086136e+06
   7.958726e+05  -2.607780e+05
   1.093032e+06   7.576994e+05
   3.696733e+05   1.145563e+06
  -7.485221e+05   7.139846e+05
  -1.175919e+06  -7.415408e+04
  -5.595184e+05  -6.391134e+05
   2.989755e+05  -7.112196e+05
   3.937347e+05  -3.875333e+05
  -2.647761e+05  -8.694986e+03
  -6.846703e+05   4.476000e+04
  -1.545643e+05  -3.230803e+05
   8.652064e+05  -7.196955e+05
   1.318939e+06  -5.772560e+05
   7.991251e+05   1.809585e+05
  -9.721380e+04   9.145476e+05
  -5.739997e+05   9.021571e+05
  -4.447952e+05   1.695645e+05
  -5.840384e+04  -5.059130e+05
   2.502091e+05  -4.585321e+05
   3.727604e+05   1.549618e+05
   2.709608e+05   6.064110e+05
  -5.418175e+04   4.484130e+05
  -4.123302e+05  -4.534063e+04
  -5.011791e+05  -2.912096e+05
  -2.552770e+05  -9.866716e+04
   3.537366e+04   1.566966e+05
   8.576902e+04   4.178479e+04
  -1.300500e+04  -3.747050e+05
   5.339101e+04  -5.795134e+05
   3.371930e+05  -2.297999e+05
   4.842119e+05   3.992648e+05
   1.672170e+05   6.828349e+05
  -4.287046e+05   3.340671e+05
  -7.014642e+05  -2.907074e+05
  -2.714724e+05  -6.028925e+05
   5.313730e+05  -3.882712e+05
   9.297983e+05   7.375181e+04
   5.071416e+05   3.943053e+05
  -3.069897e+05   4.231330e+05
  -6.719315e+05   2.441353e+05
  -2.631978e+05   2.032657e+04
   3.656059e+05  -7.540187e+04
   4.311939e+05   6.402596e+04
  -1.744683e+05   3.093594e+05
  -7.813094e+05   2.934617e+05
