
 $NMID
 id='ANONYMOUS ', fmtdat='(2E16.6)'
 volume=1.0
 tramp=1.0
 $END
  -4.418833e+03  -6.198847e+01
  -2.962619e+03  -2.487942e+03
   5.824976e+02  -2.740011e+03
   1.976439e+03  -9.140621e+02
   1.034639e+03   7.429299e+02
  -7.389901e+02   7.889533e+02
  -8.472339e+02  -4.199611e+02
  -4.100243e+00  -1.115888e+03
   7.629516e+02  -9.091522e+02
   9.548287e+02   1.512244e+02
   6.178815e+02   9.293264e+02
  -1.998626e+02   8.846696e+02
  -6.679266e+02   9.734513e+01
  -3.644216e+02  -7.507666e+02
   2.667466e+02  -8.341091e+02
   6.712383e+02   2.154697e+01
   3.061269e+02   7.273212e+02
  -3.638895e+02   7.248449e+02
  -6.492186e+02   1.185398e+02
  -4.265520e+02  -3.770745e+02
  -5.867137e+00  -4.712944e+02
   2.616206e+02  -2.877405e+02
   2.335804e+02  -3.473162e+01
  -1.236702e+02   1.032896e+02
  -4.547247e+02  -9.188983e+01
  -2.452980e+02  -4.837126e+02
   4.655563e+02  -3.824517e+02
   9.446501e+02  -1.238064e+00
   5.158962e+02   5.374469e+02
  -4.013561e+02   4.831524e+02
  -8.292282e+02  -3.574898e+01
  -3.932467e+02  -4.772544e+02
   3.090863e+02  -5.180104e+02
   5.858000e+02  -2.392979e+02
   4.793617e+02   2.152036e+02
   1.046255e+02   4.822519e+02
  -2.117916e+02   2.796739e+02
  -1.802939e+02  -1.677856e+02
   1.732074e+02  -4.015351e+02
   4.256619e+02  -1.707958e+01
   2.293989e+02   7.393148e+02
  -3.323422e+02   6.505558e+02
  -6.644627e+02   1.158512e+01
  -2.919960e+02  -5.390386e+02
   3.105661e+02  -3.579361e+02
   4.225117e+02   3.357942e+02
  -8.256327e+01   5.690067e+02
  -5.810103e+02   1.472110e+02
  -6.311249e+02  -4.219158e+02
  -1.717287e+02  -6.187297e+02
   3.871818e+02  -3.877016e+02
   6.784964e+02   1.023270e+02
   4.228913e+02   4.105113e+02
  -1.829660e+02   4.141392e+02
  -4.862562e+02   6.090982e+01
  -2.641318e+02  -1.933394e+02
   1.535165e+02  -1.179613e+02
   1.775485e+02   1.480660e+02
  -1.702456e+02   2.080352e+02
  -4.030000e+02  -6.770615e+01
  -1.516309e+02  -3.210812e+02
   2.051135e+02  -2.885616e+02
   3.519414e+02  -6.027749e+01
   1.896728e+02   9.228048e+01
  -3.583906e+01   2.225950e+02
  -2.395531e+02   3.203285e+02
  -3.369093e+02   2.115419e+02
  -2.810278e+02  -1.536300e+02
  -6.106027e+01  -4.495314e+02
   1.128635e+02  -3.897429e+02
   1.294154e+02  -1.103815e+02
   2.276576e+01  -5.384730e-02
   3.934640e+01  -1.042515e+02
   1.676859e+02  -1.268690e+02
   3.114534e+02   3.089528e+01
   1.705211e+02   2.760899e+02
  -4.566087e+01   2.671799e+02
  -2.266931e+02   2.523558e+01
  -2.298373e+02  -2.491139e+02
   1.661962e+01  -3.005150e+02
   2.759442e+02  -1.309795e+02
   3.799172e+02   1.670123e+02
   1.925973e+02   3.519259e+02
  -1.058227e+02   3.329230e+02
  -2.352452e+02   1.393637e+02
  -1.776294e+02   8.043941e+00
  -1.027615e+02   2.862003e+01
  -2.148790e+02   8.119599e+01
  -4.119454e+02  -3.907508e+01
  -3.381388e+02  -3.217660e+02
  -1.332163e+01  -4.642844e+02
   3.675294e+02  -4.261450e+02
   4.835603e+02  -1.986986e+02
   3.635851e+02   7.123467e+01
   4.616606e+01   2.842257e+02
  -1.380168e+02   2.323238e+02
  -9.467629e+01   3.127412e+01
   1.193372e+02  -1.271215e+02
   1.966743e+02  -7.853787e-01
   6.715540e+01   2.144397e+02
  -1.652857e+02   1.787676e+02
  -1.792763e+02  -6.139388e+01
  -7.030574e+00  -2.252575e+02
   2.085475e+02  -4.142403e+01
   1.751067e+02   2.502962e+02
  -2.522456e+01   3.598030e+02
  -2.391755e+02   2.051998e+02
  -3.228032e+02  -5.230091e+01
  -2.721152e+02  -2.326694e+02
  -1.051380e+02  -2.697084e+02
   1.125940e+02  -1.568626e+02
   1.933180e+02  -3.384987e+01
   6.346326e+01   3.238494e+01
  -7.772536e+01  -4.019979e+01
  -3.457536e+01  -1.322372e+02
   1.239682e+02  -1.298420e+02
   1.781065e+02   7.557331e+00
   6.428517e+01   7.350122e+01
  -8.614529e+01   2.294503e+01
  -5.532062e+01  -7.919281e+01
   1.254332e+02  -8.564398e+01
   2.774478e+02   2.655754e+00
   2.767351e+02   1.254901e+02
   6.780005e+01   2.586722e+02
  -1.833043e+02   2.792081e+02
  -2.838846e+02   1.459076e+02
  -1.645030e+02  -4.411706e+01
   2.343565e+01  -1.195168e+02
   9.802620e+01  -1.471892e+01
  -3.010579e+01   1.091567e+02
  -2.017752e+02   7.408963e+01
  -2.182943e+02  -1.207243e+02
  -9.120782e+01  -2.089615e+02
   8.715639e+01  -1.680988e+02
   1.336783e+02  -4.127343e+01
   7.472049e+01   2.820917e+01
  -2.406474e+01   1.630960e-01
  -4.281227e+01  -8.372666e+01
   7.525049e+01  -1.133361e+02
   2.011131e+02  -2.922118e+01
   1.987323e+02   1.214735e+02
   3.544749e+01   2.228140e+02
  -1.687209e+02   1.707046e+02
  -2.038461e+02   8.643820e+00
  -7.505212e+01  -1.204117e+02
   7.394060e+01  -1.175740e+02
   8.633496e+01  -3.682419e+01
   2.017561e+01   2.406148e+01
  -2.132505e+01   1.507987e+01
   9.486685e+00  -5.898898e+00
   6.709364e+01   1.289295e+01
   8.036276e+01   7.747565e+01
   1.287219e+01   1.633026e+02
  -1.180420e+02   1.562498e+02
  -2.460064e+02   3.407269e+01
  -2.096127e+02  -1.441969e+02
  -4.205397e+01  -2.477687e+02
   1.121126e+02  -1.752081e+02
   1.452616e+02  -3.271529e+01
   7.332053e+01   5.114892e+01
   2.911947e+01   3.359035e+01
   5.281015e+01  -9.155015e+00
   8.184818e+01  -7.626489e+00
   3.849512e+01   4.584312e+01
  -4.197171e+01   9.211089e+01
  -9.787797e+01   5.030801e+01
  -8.288089e+01  -3.786391e+01
   1.877514e+01  -1.060337e+02
   1.445062e+02  -9.477048e+01
   2.095504e+02   3.782103e+01
   1.020545e+02   2.147380e+02
  -1.108390e+02   2.412966e+02
  -2.619633e+02   1.100281e+02
  -2.758588e+02  -8.246838e+01
  -1.145084e+02  -1.791640e+02
   3.747314e+01  -1.462182e+02
   9.908880e+01  -9.396775e+01
   8.280048e+01  -7.580763e+01
   7.294300e+01  -9.420177e+01
   9.668544e+01  -8.039208e+01
   1.265564e+02   2.286402e+01
   1.278101e+02   1.619790e+02
   2.918854e+01   2.271732e+02
  -9.591550e+01   1.911914e+02
  -1.760265e+02   2.901436e+01
  -1.416652e+02  -1.265716e+02
  -2.753153e+01  -1.683133e+02
   6.577655e+01  -9.244997e+01
   5.950921e+01   4.433712e-01
   4.717287e+00   4.414692e+01
  -6.762494e+00   3.860132e+01
   3.792368e+01   1.698926e+01
   8.085099e+01   2.550837e+01
   4.731412e+01   3.508314e+01
  -6.110147e+01   3.654303e+01
  -1.653262e+02  -3.276392e+00
  -1.435998e+02  -5.076027e+01
  -1.903648e+01  -8.716692e+01
   1.219616e+02  -6.549432e+01
   1.503944e+02  -1.050023e+01
   4.963891e+01   3.830093e+01
  -6.439408e+01   3.915429e+01
  -7.491626e+01  -1.844222e+01
  -6.536497e+00  -7.053518e+01
   5.711676e+01  -5.731094e+01
   6.241930e+01   1.410850e+00
   4.171612e+01   4.997331e+01
   4.502670e+01   4.037268e+01
   6.124864e+01   1.778717e-01
   6.905362e+01   2.246453e+00
   3.415508e+01   6.726531e+01
  -2.883194e+01   1.440019e+02
  -1.153637e+02   1.412812e+02
  -1.670546e+02   2.414530e+01
  -1.290081e+02  -9.827801e+01
  -1.376496e+01  -1.252724e+02
   8.797552e+01  -6.001714e+01
   5.781662e+01   1.993327e+01
  -6.163109e+01   2.158616e+01
  -1.340328e+02  -4.427382e+01
  -7.518930e+01  -1.010101e+02
   7.998851e+01  -1.188634e+02
   1.985704e+02  -4.911674e+01
   1.644718e+02   3.239623e+01
   3.601231e+01   9.077374e+01
  -5.895011e+01   7.125852e+01
  -5.004782e+01   8.802270e+00
   3.737026e+01  -2.856974e+01
   8.789212e+01   1.874311e+01
   3.161517e+01   1.201334e+02
  -8.477220e+01   1.609966e+02
  -1.689445e+02   6.000094e+01
  -1.290287e+02  -1.049948e+02
  -1.652208e+01  -2.004897e+02
   8.258370e+01  -1.396107e+02
   1.035182e+02   6.412578e+00
   6.549793e+01   1.238874e+02
   4.687691e+00   1.059302e+02
  -4.366780e+01   2.159776e+01
  -5.278453e+01  -3.168692e+01
  -2.887327e+01  -1.148401e+01
  -4.164838e+00   2.174439e+01
  -1.762081e+01  -1.360094e+01
  -5.766636e+01  -9.177751e+01
  -4.577134e+01  -1.151601e+02
   4.768543e+01  -4.700912e+01
   1.403737e+02   4.137945e+01
   1.279008e+02   7.095791e+01
   1.673849e+01   4.868552e+01
  -9.072311e+01   2.133713e+01
  -9.261652e+01   8.550040e+00
  -1.044895e+01  -6.768348e+00
   4.205338e+01  -2.219977e+01
   1.592200e+01  -1.788030e+01
  -2.286277e+01   2.183911e+00
   7.112193e+00   9.839696e+00
   7.435503e+01   8.775779e+00
   9.457666e+01   2.219592e+01
   1.166647e+01   8.372154e+01
  -1.101788e+02   1.172890e+02
  -1.842417e+02   5.593727e+01
  -1.431768e+02  -6.393931e+01
  -1.632865e+01  -1.651988e+02
   7.945772e+01  -1.445311e+02
   1.223324e+02  -6.238176e+01
   8.365953e+01   1.843439e+01
   2.391937e+01   3.550855e+01
  -2.916256e+00   7.602406e+00
   9.746077e+00   1.676785e+00
   3.588688e+01   4.703672e+01
   2.259721e+01   8.804934e+01
  -2.897233e+01   7.382551e+01
  -8.005071e+01  -2.045572e+01
  -8.443916e+01  -1.051103e+02
  -2.047089e+00  -1.123750e+02
   8.128880e+01  -2.520159e+01
   1.005487e+02   7.248686e+01
   3.765366e+01   1.029645e+02
  -7.011725e+01   5.496686e+01
  -1.057002e+02  -1.358458e+01
  -4.049303e+01  -4.974166e+01
   2.822499e+01  -5.004621e+01
   3.289406e+01  -2.593911e+01
  -3.651803e+01   9.038445e-01
  -7.102305e+01   5.615592e+00
  -1.535592e+01  -2.528921e+01
   7.832357e+01  -6.635107e+01
   1.201230e+02  -6.383079e+01
   6.285887e+01   1.086798e+01
  -1.369600e+01   8.657703e+01
  -5.259377e+01   8.301608e+01
  -3.834130e+01   8.423068e+00
  -4.164657e+00  -5.613486e+01
   2.460552e+01  -4.013548e+01
   3.540562e+01   1.656138e+01
   2.514098e+01   5.386935e+01
  -1.602406e+00   3.397934e+01
  -3.575982e+01  -7.526035e+00
  -4.033409e+01  -2.103858e+01
  -2.121465e+01  -8.568203e-01
   4.388670e-02   1.544782e+01
   8.129843e+00  -7.430790e+00
   7.897734e+00  -4.061914e+01
   1.881246e+01  -4.523177e+01
   3.494891e+01  -8.094864e+00
   3.212255e+01   4.437899e+01
   6.534212e-01   6.138390e+01
  -4.809390e+01   1.859826e+01
  -5.719245e+01  -4.005061e+01
  -1.295680e+01  -6.428662e+01
   5.484463e+01  -3.428952e+01
   9.111776e+01   2.150653e+01
   4.358953e+01   4.566412e+01
  -2.840756e+01   3.929427e+01
  -6.603213e+01   1.997256e+01
  -2.278088e+01   1.778237e+00
   4.026861e+01   1.420055e+00
   3.962827e+01   1.222077e+01
  -3.047545e+01   3.085138e+01
  -9.713100e+01   2.201302e+01
