
 $NMID
 id='ANONYMOUS ', fmtdat='(2E16.6)'
 volume=1.0
 tramp=1.0
 $END
   4.607919e+03   1.322910e+02
   2.795579e+03   2.637370e+03
  -6.247661e+02   3.010888e+03
  -2.223374e+03   9.010364e+02
  -8.280457e+02  -9.221033e+02
   7.366443e+02  -7.445908e+02
   1.022790e+03   5.032294e+02
   8.825741e+01   1.230066e+03
  -9.801264e+02   8.626477e+02
  -8.765978e+02  -1.358301e+02
  -4.183701e+02  -9.538890e+02
   1.993257e+02  -9.220443e+02
   6.846215e+02  -2.047976e+02
   3.357786e+02   7.465199e+02
  -3.188025e+02   7.629473e+02
  -6.772529e+02  -9.896697e-01
  -3.245650e+02  -7.038311e+02
   3.544762e+02  -6.626212e+02
   6.694218e+02  -1.606121e+02
   3.802299e+02   3.832369e+02
   3.252249e+01   4.573455e+02
  -2.896383e+02   2.723513e+02
  -2.469569e+02   2.292513e+01
   1.031576e+02  -6.967833e+01
   4.298768e+02   7.274282e+01
   2.331635e+02   4.415846e+02
  -4.369700e+02   4.349379e+02
  -9.422458e+02  -3.400403e+01
  -5.031485e+02  -6.021005e+02
   3.608515e+02  -5.677469e+02
   7.434226e+02  -9.879967e+01
   4.169761e+02   5.219122e+02
  -2.820765e+02   5.022157e+02
  -5.851042e+02   2.190802e+02
  -4.574992e+02  -2.190634e+02
  -1.042490e+02  -5.114625e+02
   1.797929e+02  -3.100064e+02
   2.336605e+02   2.063115e+02
  -2.029499e+02   4.252970e+02
  -4.804126e+02  -2.101568e+01
  -2.860448e+02  -7.086646e+02
   3.160908e+02  -7.093140e+02
   6.756610e+02  -1.574348e+01
   3.193781e+02   6.018665e+02
  -3.304120e+02   3.143627e+02
  -4.277688e+02  -3.459093e+02
   7.742398e+01  -5.505171e+02
   5.365009e+02  -1.521994e+02
   6.001958e+02   4.463342e+02
   1.853849e+02   5.872297e+02
  -4.140469e+02   3.579010e+02
  -6.616983e+02  -4.813949e+01
  -4.004965e+02  -4.169248e+02
   1.878725e+02  -3.701657e+02
   4.536223e+02  -4.682341e+01
   2.161209e+02   2.162357e+02
  -1.472889e+02   1.032974e+02
  -1.594552e+02  -2.096945e+02
   1.465314e+02  -2.129827e+02
   3.515636e+02   1.081823e+02
   1.301503e+02   3.104227e+02
  -2.003513e+02   2.682894e+02
  -3.248786e+02   5.360722e+01
  -1.926620e+02  -9.036223e+01
   1.986653e+01  -1.965699e+02
   1.874871e+02  -3.127937e+02
   3.303445e+02  -2.297931e+02
   2.986110e+02   1.274665e+02
   9.286301e+01   4.424958e+02
  -1.119146e+02   3.943608e+02
  -1.242019e+02   1.222757e+02
  -3.093677e+01  -3.405758e+00
  -4.948247e+01   8.958870e+01
  -1.813144e+02   1.353202e+02
  -3.056329e+02  -4.175540e+01
  -1.846681e+02  -2.684014e+02
   6.104659e+01  -2.710765e+02
   2.329437e+02  -1.431867e+01
   2.214264e+02   2.335430e+02
   3.326026e+00   2.796321e+02
  -2.889363e+02   1.214556e+02
  -3.640245e+02  -1.473733e+02
  -2.070556e+02  -3.294584e+02
   8.143000e+01  -3.268322e+02
   2.469965e+02  -1.376678e+02
   1.576460e+02  -1.678689e+00
   8.716803e+01  -2.873913e+01
   2.205717e+02  -8.754778e+01
   4.047017e+02   5.894010e+01
   3.438519e+02   2.835342e+02
   1.844992e+01   4.453229e+02
  -3.582722e+02   4.149302e+02
  -4.783306e+02   2.357946e+02
  -3.565470e+02  -8.790261e+01
  -7.988097e+01  -2.850500e+02
   1.180379e+02  -2.594025e+02
   8.326500e+01  -3.770408e+01
  -9.327183e+01   1.147863e+02
  -2.149921e+02   1.650980e+01
  -4.353979e+01  -2.060103e+02
   1.614748e+02  -1.825392e+02
   1.857696e+02   4.462715e+01
   5.519863e+00   2.049146e+02
  -2.010187e+02   4.848287e+01
  -1.709475e+02  -2.429880e+02
   5.476796e+00  -3.705346e+02
   2.307529e+02  -1.878283e+02
   3.233561e+02   7.452806e+01
   2.846293e+02   2.246788e+02
   1.192904e+02   2.618105e+02
  -1.009046e+02   1.587407e+02
  -2.004492e+02   3.217204e+01
  -6.199137e+01  -3.941922e+01
   7.128696e+01   2.905207e+01
   3.924713e+01   1.199415e+02
  -1.258211e+02   1.163746e+02
  -1.863303e+02   3.677411e+00
  -6.196800e+01  -6.942334e+01
   8.377135e+01  -1.883928e+01
   6.569127e+01   6.980751e+01
  -1.221320e+02   8.996382e+01
  -2.565459e+02   1.062042e+01
  -2.813599e+02  -1.292748e+02
  -7.665145e+01  -2.502250e+02
   1.788368e+02  -2.634594e+02
   2.765238e+02  -1.358801e+02
   1.838433e+02   3.849296e+01
  -2.224275e+01   1.131343e+02
  -9.718073e+01   1.369328e+01
   2.905384e+01  -1.054545e+02
   2.120540e+02  -6.661535e+01
   2.187527e+02   9.101471e+01
   8.530701e+01   2.111985e+02
  -9.266079e+01   1.700418e+02
  -1.472936e+02   4.494940e+01
  -8.154652e+01  -4.435945e+01
   2.676839e+01  -1.203272e+01
   3.052891e+01   6.768738e+01
  -6.291070e+01   1.202798e+02
  -1.998112e+02   2.923548e+01
  -1.902259e+02  -1.202330e+02
  -4.423794e+01  -2.149650e+02
   1.645335e+02  -1.575978e+02
   2.009251e+02  -1.812556e+01
   6.953019e+01   1.198115e+02
  -6.636010e+01   1.142274e+02
  -8.720194e+01   3.311909e+01
  -2.129424e+01  -2.407232e+01
   1.890724e+01  -1.957178e+01
  -1.051224e+01   5.822606e+00
  -6.657015e+01  -1.043441e+01
  -7.513835e+01  -6.747692e+01
  -1.661713e+01  -1.542440e+02
   1.258885e+02  -1.511376e+02
   2.304147e+02  -2.193325e+01
   2.138494e+02   1.473809e+02
   4.907259e+01   2.364291e+02
  -1.080631e+02   1.830645e+02
  -1.363215e+02   3.675222e+01
  -7.331385e+01  -5.197230e+01
  -3.057176e+01  -3.590631e+01
  -5.164350e+01   1.159742e+01
  -7.748702e+01   6.445861e+00
  -3.566134e+01  -4.422097e+01
   4.334672e+01  -8.515400e+01
   9.059516e+01  -5.064416e+01
   8.367984e+01   3.750027e+01
  -1.009342e+01   1.029959e+02
  -1.368879e+02   7.695090e+01
  -2.024621e+02  -4.726550e+01
  -1.043213e+02  -2.073345e+02
   1.035548e+02  -2.412047e+02
   2.751697e+02  -9.689455e+01
   2.662751e+02   9.654681e+01
   1.079980e+02   1.714379e+02
  -3.137537e+01   1.457718e+02
  -9.082694e+01   8.853492e+01
  -7.949071e+01   7.485638e+01
  -6.769049e+01   8.718177e+01
  -8.891265e+01   7.249381e+01
  -1.327425e+02  -1.832378e+01
  -1.269083e+02  -1.584381e+02
  -4.123888e+01  -2.207218e+02
   9.479873e+01  -1.893361e+02
   1.738952e+02  -3.071768e+01
   1.405718e+02   1.111174e+02
   2.693405e+01   1.631211e+02
  -7.001146e+01   9.399164e+01
  -5.912700e+01   5.187074e+00
  -4.578413e+00  -3.771215e+01
   7.873214e+00  -3.559837e+01
  -3.898069e+01  -1.916536e+01
  -7.697698e+01  -1.627435e+01
  -4.484686e+01  -3.774847e+01
   5.557711e+01  -3.415989e+01
   1.510404e+02  -1.513488e+00
   1.460446e+02   5.122805e+01
   1.986091e+01   8.302174e+01
  -1.095773e+02   7.420357e+01
  -1.384912e+02   1.481334e+01
  -4.864167e+01  -4.021032e+01
   5.723546e+01  -3.957621e+01
   7.311877e+01   1.631273e+01
   7.725788e+00   6.715338e+01
  -5.708988e+01   6.045394e+01
  -5.960899e+01  -3.544546e+00
  -4.357545e+01  -5.187292e+01
  -4.002257e+01  -3.961132e+01
  -6.216287e+01   2.121213e-01
  -6.624266e+01   3.322662e+00
  -3.215066e+01  -6.353260e+01
   2.898324e+01  -1.456600e+02
   1.177629e+02  -1.435425e+02
   1.557919e+02  -3.377532e+01
   1.234941e+02   9.101922e+01
   4.350584e+00   1.239691e+02
  -7.606694e+01   6.098232e+01
  -5.593112e+01  -1.174440e+01
   6.186526e+01  -2.286218e+01
   1.290583e+02   4.595131e+01
   7.157469e+01   1.063546e+02
  -7.824591e+01   1.140036e+02
  -1.815196e+02   5.423971e+01
  -1.634038e+02  -3.212406e+01
  -3.922291e+01  -8.748448e+01
   5.917171e+01  -7.390353e+01
   4.709198e+01  -1.195742e+01
  -3.697614e+01   2.631259e+01
  -9.301115e+01  -1.982991e+01
  -3.146331e+01  -1.166204e+02
   8.475711e+01  -1.639811e+02
   1.634350e+02  -6.590488e+01
   1.273433e+02   9.774557e+01
   1.937320e+01   1.949240e+02
  -8.481416e+01   1.492644e+02
  -1.005846e+02  -7.084723e+00
  -6.193599e+01  -1.193837e+02
  -3.236742e+00  -1.055618e+02
   4.423576e+01  -2.296463e+01
   5.237506e+01   3.271887e+01
   2.676215e+01   1.240433e+01
   3.294949e+00  -2.131336e+01
   1.926076e+01   1.407980e+01
   5.567042e+01   8.766350e+01
   3.988569e+01   1.065990e+02
  -4.448089e+01   5.023269e+01
  -1.399107e+02  -4.427957e+01
  -1.271075e+02  -6.712991e+01
  -1.665064e+01  -4.978932e+01
   9.371766e+01  -2.001171e+01
   8.913933e+01  -8.891898e+00
   1.004954e+01   7.957285e+00
  -3.719000e+01   2.161920e+01
  -1.315416e+01   1.870652e+01
   2.108492e+01  -2.930115e+00
  -7.453316e+00  -9.485343e+00
  -7.303531e+01  -5.941572e+00
  -8.997391e+01  -2.104398e+01
  -9.556399e+00  -8.129954e+01
   1.224499e+02  -1.122234e+02
   1.794082e+02  -6.290470e+01
   1.488468e+02   7.146295e+01
   3.245381e+01   1.584876e+02
  -7.549407e+01   1.433169e+02
  -1.208324e+02   5.756168e+01
  -8.133494e+01  -2.600417e+01
  -2.311689e+01  -3.088883e+01
   4.539002e+00  -9.024321e+00
  -1.075944e+01  -3.281844e+00
  -3.277113e+01  -4.556332e+01
  -2.409171e+01  -9.044073e+01
   2.872153e+01  -7.211142e+01
   8.003017e+01   1.382707e+01
   7.467911e+01   1.088658e+02
   5.579688e+00   1.100960e+02
  -8.139659e+01   2.352078e+01
  -1.027461e+02  -7.539482e+01
  -2.956865e+01  -1.003817e+02
   6.743275e+01  -5.652711e+01
   1.002539e+02   6.441871e+00
   4.334640e+01   4.757010e+01
  -3.437702e+01   5.191047e+01
  -3.053836e+01   2.830006e+01
   3.485564e+01  -2.344537e-01
   6.940926e+01  -5.098552e+00
   1.297028e+01   2.398542e+01
  -7.279861e+01   6.473161e+01
  -1.124873e+02   5.752501e+01
  -6.279803e+01  -9.848434e+00
   1.510788e+01  -8.457577e+01
   5.511666e+01  -8.454535e+01
   3.617282e+01  -6.607928e+00
   2.629579e+00   5.813022e+01
  -2.255589e+01   4.272890e+01
  -3.717688e+01  -1.800698e+01
  -2.476025e+01  -5.252081e+01
   1.531956e+00  -3.394798e+01
   3.282990e+01   8.365445e+00
   4.056906e+01   1.889806e+01
   2.038123e+01   2.181659e-01
  -8.592781e-01  -1.307186e+01
  -1.015065e+01   7.651474e+00
  -6.363949e+00   3.712186e+01
  -1.818958e+01   4.188571e+01
  -3.263025e+01   5.431026e+00
  -3.135017e+01  -4.432890e+01
   1.824895e+00  -6.308501e+01
   3.970385e+01  -2.044851e+01
   5.164723e+01   4.101018e+01
   1.640432e+01   5.866094e+01
  -5.336412e+01   3.357793e+01
  -8.863760e+01  -9.634090e+00
  -4.746385e+01  -4.230931e+01
   2.785641e+01  -3.970011e+01
   6.146979e+01  -2.172253e+01
   2.075798e+01  -4.302102e+00
  -3.781463e+01  -6.034770e-01
  -3.855539e+01  -1.381451e+01
   2.848919e+01  -3.059220e+01
   9.726904e+01  -2.153630e+01
