
 $NMID
 id='ANONYMOUS ', fmtdat='(2E16.6)'
 volume=1.0
 tramp=1.0
 $END
   2.879271e+03  -1.414923e+02
   1.864437e+03   1.311452e+03
   1.699761e+02   1.887859e+03
  -1.120671e+03   1.198474e+03
  -1.015804e+03   2.772064e+02
   1.085491e+02  -2.833115e+02
   3.570832e+02   7.289109e+01
  -6.602116e+00   4.797352e+02
  -3.605571e+02   5.650250e+02
  -6.630770e+02   6.249891e+01
  -3.709414e+02  -5.044374e+02
  -5.463475e+01  -6.504009e+02
   2.231209e+02  -1.774762e+02
   1.829656e+02   4.167399e+02
  -7.761007e+01   4.855323e+02
  -4.125450e+02   9.312191e+01
  -2.909750e+02  -4.256627e+02
   7.009517e+01  -6.049516e+02
   3.530447e+02  -2.705133e+02
   3.940563e+02   1.881154e+02
   1.700600e+02   3.426808e+02
  -8.377755e+01   2.108575e+02
  -5.073184e+01   7.359285e+01
   1.876587e+02   1.241978e+02
   2.419163e+02   2.377760e+02
  -3.026469e+01   3.274131e+02
  -4.534427e+02   1.630266e+02
  -5.833579e+02  -2.015886e+02
  -1.581067e+02  -3.075210e+02
   3.254756e+02  -1.774333e+02
   4.867944e+02   1.572321e+02
   2.370703e+02   3.102421e+02
  -2.258438e+02   3.328662e+02
  -4.208786e+02   1.360606e+02
  -2.868599e+02  -1.436613e+02
  -1.290667e+02  -2.964269e+02
   5.054234e+01  -1.487330e+02
  -3.255882e+01   1.440641e+02
  -1.546331e+02   1.439196e+02
  -1.814984e+02  -9.126126e+01
  -8.319345e+00  -5.183230e+02
   2.819633e+02  -4.243451e+02
   3.466939e+02  -4.097797e+01
   1.236731e+02   2.783179e+02
  -1.999061e+02   8.920141e+01
  -9.870350e+01  -2.755242e+02
   1.283906e+02  -3.297503e+02
   4.146721e+02  -2.224286e+01
   4.832570e+02   3.611951e+02
   1.267606e+02   4.732364e+02
  -2.608309e+02   2.870359e+02
  -4.974426e+02  -4.364256e+01
  -3.367164e+02  -2.546329e+02
   9.720498e+01  -1.608171e+02
   2.548627e+02  -9.204955e+01
   2.155550e+02   2.200079e+01
  -2.482224e+01   1.163228e+01
  -4.695445e+01  -3.314472e+01
   9.638919e+01  -3.131160e+01
   2.454997e+02   4.426660e+01
   1.331293e+02   1.741876e+02
  -1.426963e+02   2.365954e+02
  -3.335283e+02   1.337053e+02
  -2.724829e+02  -9.117308e+01
   1.179245e+01  -3.063611e+02
   2.816117e+02  -3.553195e+02
   3.649100e+02  -1.391913e+02
   2.211946e+02   1.647345e+02
   7.956717e+00   3.802557e+02
  -6.274920e+01   3.057883e+02
   5.144775e+00   1.717494e+02
  -1.348418e+01   1.305662e+02
  -1.563150e+02   1.082698e+02
  -2.591768e+02   5.971720e+01
  -2.415984e+02  -1.235772e+02
  -1.030405e+02  -2.233535e+02
   9.685411e+01  -1.740100e+02
   1.922741e+02   3.414212e+01
   1.184226e+02   2.408629e+02
  -4.980225e+01   2.319791e+02
  -2.399231e+02   5.599508e+01
  -2.637820e+02  -1.727990e+02
  -1.472295e+02  -2.857321e+02
   4.644931e+01  -2.551517e+02
   1.475009e+02  -1.412715e+02
   1.469556e+02  -9.071763e+01
   1.523976e+02  -7.580592e+01
   2.654198e+02  -3.752547e+01
   3.917715e+02   7.874375e+01
   3.033256e+02   2.870801e+02
  -1.118401e+01   4.211568e+02
  -3.502525e+02   3.794277e+02
  -4.513241e+02   1.729148e+02
  -3.033637e+02  -9.852471e+01
  -7.453554e+00  -2.462819e+02
   1.143095e+02  -1.622935e+02
   1.819589e+00  -2.453128e+01
  -1.072991e+02   4.643170e+01
  -1.222299e+02  -6.473481e+01
  -1.807110e+01  -1.383475e+02
   1.243324e+02  -1.001200e+02
   9.832051e+01   4.478106e+01
  -3.057849e+01   1.381550e+02
  -1.505643e+02   1.710845e+00
  -1.442236e+02  -2.342349e+02
   2.153939e+01  -3.299377e+02
   2.424356e+02  -2.028081e+02
   3.432563e+02   6.087913e+01
   2.661848e+02   2.439824e+02
   5.665038e+01   2.786216e+02
  -1.338542e+02   1.328569e+02
  -1.387207e+02   1.024940e+01
  -2.189855e+01  -2.023934e+01
   4.161634e+01   5.712483e+01
  -8.022787e+00   1.109113e+02
  -1.230282e+02   5.418152e+01
  -1.524564e+02  -1.288236e+01
  -2.301440e+01  -5.373308e+01
   8.207070e+01   1.553107e+01
   4.283358e+01   9.401229e+01
  -1.416324e+02   9.106002e+01
  -3.063443e+02  -3.566308e+01
  -2.523279e+02  -1.397205e+02
  -2.482758e+01  -2.557816e+02
   1.962224e+02  -2.335625e+02
   2.722986e+02  -9.738450e+01
   1.260909e+02   5.220714e+01
  -4.175250e+01   7.370820e+01
  -6.410195e+01  -6.625538e+00
   5.626296e+01  -7.651759e+01
   1.783349e+02  -3.348573e+01
   1.685795e+02   1.020927e+02
   5.643836e+01   1.721005e+02
  -8.933727e+01   1.262382e+02
  -1.251070e+02   1.625070e+01
  -3.869780e+01  -3.129697e+01
   4.204131e+01   1.947339e+01
   2.500861e+01   1.164770e+02
  -8.937963e+01   1.211208e+02
  -2.167854e+02   7.531513e+00
  -1.689303e+02  -1.354005e+02
  -2.651931e+00  -2.114264e+02
   1.502432e+02  -1.450981e+02
   1.788493e+02  -2.348857e+01
   5.510153e+01   7.864142e+01
  -5.712992e+01   9.074727e+01
  -6.615006e+01   1.821981e+01
   6.302690e+00  -2.484872e+01
   3.605710e+01  -4.867285e+00
  -8.614556e+00   2.780881e+01
  -8.895507e+01   4.452222e+00
  -1.029070e+02  -9.182309e+01
  -1.687997e+01  -1.702530e+02
   1.522455e+02  -1.490141e+02
   2.360568e+02   1.685101e+00
   1.846330e+02   1.503886e+02
   3.989922e+01   2.316721e+02
  -9.284782e+01   1.408115e+02
  -1.253280e+02   2.810890e+01
  -6.767380e+01  -4.355136e+01
  -3.323045e+01  -2.795406e+01
  -5.396388e+01   1.243339e+01
  -8.948054e+01   4.741962e+00
  -5.419834e+01  -5.391660e+01
   3.363785e+01  -1.051819e+02
   1.166011e+02  -6.861769e+01
   1.088371e+02   4.567756e+01
  -1.611354e+01   1.306741e+02
  -1.631906e+02   8.359967e+01
  -2.049819e+02  -6.747186e+01
  -8.145433e+01  -2.197567e+02
   1.191644e+02  -2.323874e+02
   2.700135e+02  -8.402437e+01
   2.359420e+02   9.368863e+01
   9.648415e+01   1.648251e+02
  -4.273811e+01   1.308653e+02
  -8.346993e+01   8.223458e+01
  -6.602539e+01   6.563575e+01
  -5.971528e+01   9.655804e+01
  -8.418802e+01   8.099551e+01
  -1.204903e+02  -2.002941e+01
  -1.195577e+02  -1.497953e+02
  -1.240057e+01  -2.256008e+02
   1.010489e+02  -1.644028e+02
   1.716759e+02  -9.168716e+00
   1.142521e+02   1.255817e+02
   2.161362e+01   1.482860e+02
  -7.873054e+01   7.503643e+01
  -6.385054e+01  -1.661805e+01
   5.526558e+00  -5.635603e+01
   2.618832e+01  -3.840947e+01
  -2.339171e+01  -1.193433e+01
  -8.366951e+01  -1.449833e+01
  -5.120260e+01  -3.567460e+01
   7.125160e+01  -4.041697e+01
   1.730398e+02  -1.004739e+01
   1.420570e+02   5.824136e+01
  -6.789515e-01   9.969042e+01
  -1.289468e+02   7.221088e+01
  -1.440126e+02   1.622098e+00
  -3.691607e+01  -5.326034e+01
   5.718564e+01  -4.354168e+01
   7.669815e+01   1.271157e+01
   1.752695e+01   7.373398e+01
  -4.244202e+01   6.354847e+01
  -6.434195e+01   4.408043e+00
  -6.040869e+01  -5.126569e+01
  -4.693249e+01  -4.028858e+01
  -5.305098e+01  -2.102676e+00
  -6.312753e+01   2.275973e+00
  -4.554706e+01  -7.006499e+01
   2.683085e+01  -1.553605e+02
   1.246085e+02  -1.440904e+02
   1.724214e+02  -3.149375e+01
   1.275107e+02   9.537373e+01
   4.382888e+00   1.376533e+02
  -8.349643e+01   6.582107e+01
  -6.439801e+01  -9.291627e+00
   5.769617e+01  -2.027401e+01
   1.267040e+02   4.043222e+01
   6.752452e+01   1.092981e+02
  -7.521336e+01   1.072811e+02
  -1.871551e+02   3.815671e+01
  -1.536372e+02  -3.948631e+01
  -2.768314e+01  -8.266388e+01
   6.256946e+01  -5.251839e+01
   4.708815e+01   2.911279e+00
  -3.728698e+01   3.084221e+01
  -9.070776e+01  -1.733690e+01
  -4.035712e+01  -1.124100e+02
   7.752624e+01  -1.476523e+02
   1.497799e+02  -6.815411e+01
   1.214819e+02   8.819581e+01
   1.573114e+01   1.722703e+02
  -7.646150e+01   1.404189e+02
  -9.867203e+01  -1.465366e+01
  -5.061757e+01  -1.235494e+02
   1.181388e+01  -1.012162e+02
   4.735006e+01  -1.460043e+01
   4.044691e+01   3.230619e+01
   1.661596e+01   8.718210e+00
   6.481235e+00  -1.675850e+01
   2.942140e+01   2.020042e+01
   5.130809e+01   8.717092e+01
   2.579959e+01   1.002443e+02
  -5.640986e+01   4.185252e+01
  -1.365499e+02  -2.973249e+01
  -1.182881e+02  -6.959199e+01
  -1.940000e+01  -5.267133e+01
   7.733649e+01  -2.629799e+01
   8.239795e+01  -2.903142e+00
   1.982090e+01   9.839215e+00
  -3.346185e+01   1.834431e+01
  -1.955158e+01   1.087516e+01
   1.246796e+01  -3.840480e+00
  -3.858228e+00  -5.387139e+00
  -6.397753e+01  -4.133229e-01
  -8.872337e+01  -2.068334e+01
  -1.851475e+01  -7.419753e+01
   1.028570e+02  -1.159863e+02
   1.827982e+02  -6.705986e+01
   1.411012e+02   5.435291e+01
   3.210332e+01   1.648295e+02
  -7.828707e+01   1.556458e+02
  -1.131108e+02   7.471074e+01
  -8.015058e+01  -1.891739e+01
  -2.524429e+01  -3.752623e+01
  -4.149595e+00  -1.152322e+01
  -1.503634e+01  -8.179449e+00
  -3.125801e+01  -4.816099e+01
  -2.286204e+01  -8.947062e+01
   2.228019e+01  -6.705946e+01
   7.748462e+01   1.155249e+01
   7.867979e+01   9.462132e+01
   1.783775e+01   1.032196e+02
  -7.243741e+01   3.012983e+01
  -1.041641e+02  -5.973651e+01
  -4.461737e+01  -9.530467e+01
   5.801612e+01  -5.766812e+01
   1.006791e+02   2.563088e+00
   4.385155e+01   5.651158e+01
  -3.523423e+01   6.161602e+01
  -3.973444e+01   3.031564e+01
   2.072107e+01  -5.353771e+00
   6.724470e+01  -9.825885e+00
   1.795767e+01   2.525452e+01
  -8.120997e+01   6.564186e+01
  -1.183382e+02   5.144780e+01
  -7.004844e+01  -1.633199e+01
   5.285374e+00  -8.755878e+01
   5.263347e+01  -8.135170e+01
   4.685924e+01  -1.541188e+01
   1.235531e+01   4.722481e+01
  -2.145333e+01   4.809876e+01
  -3.651574e+01  -9.330590e+00
  -2.971049e+01  -5.086717e+01
  -7.064895e-01  -3.931209e+01
   3.365433e+01   4.431730e+00
   4.336745e+01   2.410197e+01
   1.971080e+01   5.601429e+00
  -6.863875e+00  -2.076428e+01
  -7.582139e+00  -8.413601e+00
   8.440111e+00   2.559840e+01
  -4.537673e-01   5.107908e+01
  -2.422355e+01   1.966719e+01
  -4.364579e+01  -2.789413e+01
  -1.667456e+01  -5.500405e+01
   3.666168e+01  -2.493283e+01
   6.042920e+01   3.229858e+01
   2.113403e+01   5.641123e+01
  -5.720786e+01   3.619766e+01
  -9.183733e+01  -9.932121e+00
  -5.180170e+01  -4.022793e+01
   2.665706e+01  -4.696725e+01
   6.639121e+01  -2.985155e+01
   2.914040e+01  -7.733603e+00
  -2.756515e+01   3.679444e+00
  -2.784445e+01  -5.604250e+00
   1.899839e+01  -2.444668e+01
   7.304991e+01  -2.316519e+01
