
 $NMID
 id='ANONYMOUS ', fmtdat='(2E16.6)'
 volume=1.0
 tramp=1.0
 $END
   3.605748e+03  -1.066600e+02
   2.080520e+03   1.845241e+03
  -2.892971e+02   2.293370e+03
  -1.454398e+03   9.677819e+02
  -8.400893e+02  -2.610258e+02
   3.674481e+02  -3.888959e+02
   5.035063e+02   2.132325e+02
   1.020815e+02   7.595954e+02
  -6.074845e+02   7.900984e+02
  -6.605089e+02  -2.549752e+01
  -4.628896e+02  -6.316030e+02
   1.165072e+02  -8.390667e+02
   3.310647e+02  -2.036449e+02
   2.505248e+02   5.027600e+02
  -1.272164e+02   6.971227e+02
  -4.634319e+02   4.543777e+01
  -2.627182e+02  -5.722916e+02
   2.539801e+02  -5.899344e+02
   4.848315e+02  -2.384028e+02
   3.813078e+02   2.396695e+02
   9.815756e+01   3.942053e+02
  -1.743936e+02   2.394134e+02
  -1.516994e+02   6.666353e+01
   1.720532e+02   4.227257e+01
   2.646114e+02   1.293911e+02
   1.157750e+02   3.656936e+02
  -5.549919e+02   2.850020e+02
  -6.431153e+02  -8.916419e+01
  -3.453544e+02  -4.336940e+02
   2.976542e+02  -2.777124e+02
   6.260620e+02   7.100204e+01
   3.143429e+02   4.099957e+02
  -3.357095e+02   3.733755e+02
  -4.883395e+02   1.740550e+02
  -3.867776e+02  -1.828358e+02
  -7.268871e+01  -3.744663e+02
   1.401765e+02  -2.329927e+02
   1.227191e+02   1.506640e+02
  -1.851093e+02   2.864032e+02
  -3.571287e+02  -8.614529e+01
  -1.170609e+02  -6.535900e+02
   2.835281e+02  -5.655726e+02
   4.502466e+02  -1.651740e+01
   1.496817e+02   3.652117e+02
  -1.938262e+02   2.107000e+02
  -2.773318e+02  -2.442549e+02
   1.486774e+02  -4.920848e+02
   4.794376e+02  -1.055456e+02
   5.060742e+02   3.985380e+02
   1.473391e+02   5.507548e+02
  -3.079950e+02   2.780846e+02
  -5.924215e+02  -5.520918e+01
  -3.715716e+02  -2.755245e+02
   6.784952e+01  -2.998031e+02
   3.607732e+02  -8.876302e+01
   2.709207e+02   1.174469e+02
  -3.427940e+01   6.568571e+01
  -9.932295e+01  -8.770896e+01
   1.253418e+02  -1.228018e+02
   2.688036e+02   2.912070e+01
   1.654072e+02   2.245311e+02
  -1.570361e+02   2.475072e+02
  -3.256455e+02   9.446843e+01
  -2.287004e+02  -8.625300e+01
   2.080215e+01  -2.841068e+02
   2.531691e+02  -3.172531e+02
   3.709001e+02  -1.829595e+02
   2.695349e+02   1.361398e+02
   4.055491e+01   3.915830e+02
  -6.228725e+01   3.312976e+02
  -4.529013e+01   1.677181e+02
  -1.476068e+01   7.136069e+01
  -1.117257e+02   8.075974e+01
  -2.170884e+02   8.758316e+01
  -2.329455e+02  -1.011497e+02
  -1.162874e+02  -2.680877e+02
   5.633579e+01  -2.213145e+02
   2.150968e+02  -3.454600e+00
   1.648618e+02   2.269742e+02
  -4.607885e+01   2.692800e+02
  -2.611227e+02   1.023175e+02
  -3.128634e+02  -1.706735e+02
  -1.600209e+02  -3.182373e+02
   6.937003e+01  -2.734691e+02
   1.776142e+02  -1.522127e+02
   1.378269e+02  -5.529235e+01
   1.246507e+02  -4.874707e+01
   2.371289e+02  -5.158405e+01
   3.972163e+02   5.952756e+01
   2.938532e+02   2.897367e+02
   2.462913e+00   4.573766e+02
  -3.685441e+02   3.731612e+02
  -4.784637e+02   1.708677e+02
  -2.900302e+02  -1.070171e+02
  -4.865983e+01  -2.721197e+02
   1.018390e+02  -2.329989e+02
   5.256858e+01  -4.249644e+01
  -1.094480e+02   6.808752e+01
  -1.517036e+02  -2.717823e+01
  -2.414239e+01  -1.833882e+02
   1.453533e+02  -1.235876e+02
   1.262320e+02   5.843175e+01
  -2.234620e+01   1.489416e+02
  -1.870395e+02   1.713449e+01
  -1.598803e+02  -2.420799e+02
   2.455497e+01  -3.762177e+02
   2.336376e+02  -1.977809e+02
   3.509223e+02   6.022085e+01
   2.821594e+02   2.572700e+02
   7.141794e+01   2.699714e+02
  -1.330481e+02   1.509771e+02
  -1.622430e+02   3.101493e+01
  -4.199158e+01  -2.338778e+01
   5.665311e+01   5.504983e+01
  -1.015818e+01   1.234916e+02
  -1.204580e+02   9.337745e+01
  -1.632775e+02  -1.257978e+01
  -4.050123e+01  -6.032587e+01
   8.448509e+01  -9.086814e+00
   4.746502e+01   8.930964e+01
  -1.408817e+02   8.443640e+01
  -2.935277e+02  -7.504591e+00
  -2.558536e+02  -1.593231e+02
  -3.480424e+01  -2.627183e+02
   1.956691e+02  -2.458249e+02
   2.596114e+02  -1.198012e+02
   1.473707e+02   6.340112e+01
  -2.208406e+01   1.007841e+02
  -7.783082e+01  -3.051971e-02
   3.408538e+01  -8.455601e+01
   1.833639e+02  -4.648591e+01
   1.982061e+02   9.764923e+01
   5.697939e+01   2.015136e+02
  -9.392588e+01   1.530887e+02
  -1.382596e+02   2.883832e+01
  -5.753065e+01  -3.381100e+01
   3.156248e+01   2.467599e+00
   3.062266e+01   9.406219e+01
  -9.223273e+01   1.129389e+02
  -2.021169e+02   1.083142e+01
  -1.775202e+02  -1.177411e+02
  -1.820768e+01  -2.033898e+02
   1.559772e+02  -1.630261e+02
   1.884222e+02  -1.329345e+01
   5.285701e+01   1.131291e+02
  -6.311770e+01   9.660263e+01
  -6.981850e+01   2.560876e+01
  -8.378003e+00  -2.408158e+01
   3.428786e+01  -7.546989e+00
  -9.597763e+00   1.856374e+01
  -8.567231e+01  -8.865469e+00
  -1.015184e+02  -9.074494e+01
  -7.971539e+00  -1.693844e+02
   1.323039e+02  -1.512615e+02
   2.419442e+02  -2.266427e+01
   2.112828e+02   1.556916e+02
   3.949944e+01   2.203572e+02
  -1.086104e+02   1.647714e+02
  -1.442899e+02   3.076054e+01
  -7.229954e+01  -5.039312e+01
  -2.931429e+01  -2.993138e+01
  -5.263985e+01   1.163676e+01
  -8.048420e+01   5.351887e+00
  -4.997443e+01  -5.212706e+01
   3.352764e+01  -1.039810e+02
   1.139213e+02  -6.662140e+01
   9.902297e+01   4.483986e+01
  -1.665038e+01   1.139613e+02
  -1.515490e+02   9.887763e+01
  -2.041622e+02  -5.549823e+01
  -8.832354e+01  -2.158603e+02
   1.094522e+02  -2.212217e+02
   2.674912e+02  -9.180146e+01
   2.625211e+02   6.724473e+01
   9.422957e+01   1.663891e+02
  -4.156642e+01   1.472161e+02
  -9.425212e+01   8.323508e+01
  -7.399935e+01   6.914407e+01
  -6.589845e+01   8.999072e+01
  -8.999303e+01   7.712889e+01
  -1.230402e+02  -2.243907e+01
  -1.093381e+02  -1.549396e+02
  -2.775369e+01  -2.263809e+02
   9.549882e+01  -1.674544e+02
   1.692279e+02  -2.034798e+01
   1.334551e+02   1.300696e+02
   1.068180e+01   1.496974e+02
  -6.865478e+01   8.654891e+01
  -6.107108e+01  -6.651866e+00
  -1.207077e+00  -4.587025e+01
   2.251160e+01  -3.693834e+01
  -3.241302e+01  -9.334529e+00
  -8.059112e+01  -1.854774e+01
  -4.613723e+01  -3.935542e+01
   7.007864e+01  -3.835867e+01
   1.695953e+02  -5.998142e+00
   1.484887e+02   5.773950e+01
   5.877811e+00   9.640314e+01
  -1.280079e+02   6.540397e+01
  -1.553130e+02   4.444346e+00
  -4.420113e+01  -4.587697e+01
   6.013817e+01  -4.158169e+01
   7.750668e+01   1.747906e+01
   1.540792e+01   7.488136e+01
  -5.074692e+01   6.566437e+01
  -6.575037e+01   3.853385e+00
  -5.254046e+01  -4.280407e+01
  -4.702245e+01  -4.108918e+01
  -5.761358e+01   1.835268e+00
  -6.216829e+01  -1.526569e+00
  -4.144944e+01  -6.608940e+01
   2.720884e+01  -1.530312e+02
   1.245564e+02  -1.444931e+02
   1.688096e+02  -3.776572e+01
   1.231070e+02   9.571676e+01
   1.167369e+01   1.295948e+02
  -8.746470e+01   6.397964e+01
  -5.965873e+01  -1.561174e+01
   5.901775e+01  -2.182534e+01
   1.315628e+02   4.042475e+01
   8.146279e+01   1.055129e+02
  -8.325081e+01   1.121340e+02
  -1.775824e+02   4.992348e+01
  -1.528077e+02  -3.732311e+01
  -3.552147e+01  -8.225928e+01
   6.033835e+01  -6.733396e+01
   4.909558e+01  -2.890020e+00
  -3.872883e+01   3.223837e+01
  -9.693320e+01  -2.154576e+01
  -3.125344e+01  -1.120452e+02
   8.428803e+01  -1.637707e+02
   1.621949e+02  -6.445425e+01
   1.296023e+02   8.968988e+01
   1.249246e+01   2.020064e+02
  -8.038410e+01   1.431635e+02
  -1.006013e+02  -1.084921e+01
  -6.427336e+01  -1.138374e+02
  -6.408588e-01  -1.002385e+02
   4.824466e+01  -1.806369e+01
   4.907705e+01   3.379660e+01
   1.935346e+01   8.954877e+00
   5.060325e+00  -1.899491e+01
   2.356360e+01   2.051135e+01
   5.376129e+01   8.883153e+01
   3.197312e+01   1.075606e+02
  -5.250434e+01   4.205786e+01
  -1.364476e+02  -3.431660e+01
  -1.197714e+02  -6.816369e+01
  -1.851907e+01  -4.918012e+01
   7.759620e+01  -2.283415e+01
   8.782868e+01  -5.194437e+00
   1.256314e+01   8.451769e+00
  -3.503676e+01   2.136151e+01
  -1.572903e+01   1.327224e+01
   1.593286e+01  -4.942945e+00
  -3.886457e+00  -8.739969e+00
  -7.066715e+01   1.085252e+00
  -8.921879e+01  -2.367259e+01
  -1.658785e+01  -8.438257e+01
   1.076913e+02  -1.203391e+02
   1.819951e+02  -5.816766e+01
   1.518472e+02   5.696719e+01
   3.219086e+01   1.553158e+02
  -7.804892e+01   1.457734e+02
  -1.145712e+02   5.806224e+01
  -8.113317e+01  -1.907994e+01
  -2.545425e+01  -3.473955e+01
   3.585435e-01  -1.151378e+01
  -1.300631e+01  -7.543389e+00
  -3.264563e+01  -4.905581e+01
  -1.715459e+01  -8.634486e+01
   2.914091e+01  -6.733487e+01
   8.070163e+01   1.420656e+01
   8.125470e+01   9.950616e+01
   1.509406e+01   1.081912e+02
  -7.110682e+01   2.921491e+01
  -1.048151e+02  -6.708587e+01
  -3.545868e+01  -9.882008e+01
   6.207569e+01  -5.828405e+01
   1.001152e+02   1.215764e+01
   4.114183e+01   5.032485e+01
  -3.114584e+01   5.630793e+01
  -3.555247e+01   3.170555e+01
   2.997395e+01  -4.477772e+00
   6.581567e+01  -6.585635e+00
   1.606551e+01   2.554997e+01
  -7.746917e+01   6.880356e+01
  -1.141641e+02   5.179826e+01
  -6.609998e+01  -1.054988e+01
   1.429972e+01  -8.243987e+01
   5.399293e+01  -7.842782e+01
   4.202142e+01  -1.057119e+01
   5.082439e+00   5.083418e+01
  -2.453588e+01   4.490034e+01
  -3.231567e+01  -1.035056e+01
  -2.658158e+01  -4.947661e+01
   1.487590e+00  -3.619577e+01
   3.460997e+01   5.993865e+00
   4.253065e+01   1.995258e+01
   2.022896e+01   4.259006e+00
  -2.918462e+00  -1.669088e+01
  -8.588033e+00  -1.808006e+00
   1.897507e+00   3.048745e+01
  -2.075772e+00   4.538868e+01
  -2.739235e+01   1.640584e+01
  -4.120888e+01  -4.558310e+01
  -9.260031e+00  -6.285279e+01
   3.964623e+01  -2.364117e+01
   5.864292e+01   3.428543e+01
   1.675296e+01   6.191411e+01
  -5.194893e+01   3.581530e+01
  -9.297498e+01  -1.621033e+01
  -4.488738e+01  -4.420352e+01
   2.665650e+01  -4.366795e+01
   6.027737e+01  -2.745769e+01
   2.444163e+01  -5.974982e+00
  -3.072294e+01  -8.444053e-01
  -3.697842e+01  -8.046767e+00
   2.647313e+01  -2.719268e+01
   8.609048e+01  -1.832748e+01
