
 $NMID
 id='ANONYMOUS ', fmtdat='(2E16.6)'
 volume=1.0
 tramp=1.0
 $END
  -3.498949e+03   2.410102e+02
  -2.396076e+03  -1.948770e+03
   1.791885e+02  -2.112415e+03
   1.334398e+03  -9.163629e+02
   7.456967e+02   8.403323e+01
  -2.734398e+02   3.060050e+02
  -4.495746e+02  -8.395837e+01
  -1.871596e+01  -7.624248e+02
   5.311979e+02  -6.363603e+02
   6.451538e+02  -8.202479e+01
   3.635876e+02   6.938637e+02
  -2.321316e+02   7.127182e+02
  -3.129497e+02   1.502008e+02
  -3.027502e+02  -4.571945e+02
   2.094572e+02  -5.822423e+02
   4.443902e+02  -2.693409e+01
   2.607815e+02   5.377388e+02
  -1.846826e+02   6.120854e+02
  -5.163185e+02   1.900948e+02
  -3.724121e+02  -1.748575e+02
  -5.605855e+01  -3.692862e+02
   1.407005e+02  -2.548363e+02
   1.303302e+02  -4.829142e+01
  -1.702182e+02  -5.107873e+01
  -2.926491e+02  -1.818739e+02
  -8.984168e+01  -3.619919e+02
   4.967287e+02  -1.964258e+02
   6.837286e+02   8.272009e+01
   2.773442e+02   4.726514e+02
  -3.256626e+02   3.183741e+02
  -4.852740e+02  -1.641494e+02
  -3.173591e+02  -3.864464e+02
   2.199305e+02  -3.430639e+02
   4.876514e+02  -1.567623e+02
   3.188469e+02   2.151298e+02
   9.743485e+01   3.444774e+02
  -1.113121e+02   1.614484e+02
  -4.183561e+01  -1.170215e+02
   1.674724e+02  -1.963536e+02
   2.996268e+02   1.509961e+02
  -8.678967e+00   5.077026e+02
  -2.640146e+02   4.861482e+02
  -3.934571e+02  -1.169570e+02
  -2.059420e+02  -3.280998e+02
   1.738154e+02  -1.799211e+02
   2.507929e+02   3.099524e+02
  -9.360282e+01   4.557287e+02
  -4.316204e+02   1.381698e+02
  -4.468515e+02  -3.917195e+02
  -1.314976e+02  -4.657934e+02
   2.839181e+02  -2.572738e+02
   5.396476e+02   6.282337e+01
   3.589176e+02   2.964682e+02
  -8.671697e+01   2.320006e+02
  -3.547215e+02   7.199340e+01
  -2.200571e+02  -8.787572e+01
   4.693767e+01  -4.181950e+01
   1.169219e+02   1.050506e+02
  -1.527867e+02   7.256753e+01
  -2.454312e+02  -5.095207e+01
  -1.393032e+02  -2.303217e+02
   1.503224e+02  -2.234754e+02
   3.298455e+02  -1.190509e+02
   2.373200e+02   8.661835e+01
  -1.170862e+01   2.791106e+02
  -2.695531e+02   3.349056e+02
  -3.425137e+02   1.829637e+02
  -2.701460e+02  -1.445329e+02
  -5.795166e+01  -3.776405e+02
   5.223974e+01  -2.900004e+02
   5.373980e+01  -1.713921e+02
   3.538108e+01  -5.503713e+01
   9.979361e+01  -1.064214e+02
   2.363516e+02  -7.603579e+01
   2.192680e+02   7.328059e+01
   1.190151e+02   2.566589e+02
  -9.693967e+01   2.277016e+02
  -1.962697e+02   1.389927e-01
  -1.616120e+02  -2.284161e+02
   3.960324e+01  -2.472132e+02
   2.540624e+02  -9.424359e+01
   3.147941e+02   1.691774e+02
   1.253430e+02   3.192023e+02
  -5.341852e+01   2.696123e+02
  -1.720973e+02   1.623267e+02
  -1.335137e+02   7.546755e+01
  -1.171392e+02   4.621203e+01
  -2.380659e+02   5.475035e+01
  -3.755620e+02  -6.844198e+01
  -3.145978e+02  -2.904666e+02
   1.997261e+01  -4.363141e+02
   3.628157e+02  -3.556115e+02
   4.463572e+02  -1.326464e+02
   2.982523e+02   1.188572e+02
   3.323760e+01   2.457983e+02
  -9.420673e+01   2.177258e+02
  -3.415630e+01   2.390186e+01
   1.193988e+02  -4.555426e+01
   1.458226e+02   2.517166e+01
   2.608814e+00   1.540445e+02
  -1.295349e+02   1.241856e+02
  -1.102410e+02  -5.084838e+01
   5.179504e+01  -1.498704e+02
   1.657992e+02  -1.275482e+01
   1.450688e+02   2.329290e+02
  -4.102650e+01   3.398548e+02
  -2.259092e+02   1.759751e+02
  -3.371780e+02  -6.464275e+01
  -2.700347e+02  -2.528541e+02
  -5.917452e+01  -2.719658e+02
   1.139633e+02  -1.425820e+02
   1.664711e+02  -1.062373e+01
   3.838682e+01   2.287417e+01
  -5.019802e+01  -5.099721e+01
   9.994501e+00  -1.188692e+02
   1.269835e+02  -8.507747e+01
   1.549547e+02   2.399512e+01
   4.438938e+01   5.335079e+01
  -8.577863e+01   6.727025e-02
  -4.568068e+01  -8.521786e+01
   1.300792e+02  -8.433462e+01
   2.981198e+02   2.011531e+01
   2.410853e+02   1.695397e+02
   3.429828e+01   2.493877e+02
  -2.031273e+02   2.282716e+02
  -2.753537e+02   1.075521e+02
  -1.417317e+02  -5.683128e+01
   2.779474e+01  -8.574841e+01
   7.447196e+01   4.829531e+00
  -5.769465e+01   8.067581e+01
  -1.836826e+02   4.622879e+01
  -1.889549e+02  -8.608590e+01
  -5.911955e+01  -2.029046e+02
   9.092270e+01  -1.369902e+02
   1.298948e+02  -2.481938e+01
   5.476898e+01   3.160912e+01
  -3.955132e+01  -8.903809e+00
  -2.611924e+01  -9.701440e+01
   9.477402e+01  -1.053589e+02
   1.807496e+02  -1.776159e+01
   1.784186e+02   1.102498e+02
   5.336655e+00   2.016700e+02
  -1.496549e+02   1.459232e+02
  -1.800797e+02   7.981448e+00
  -5.100624e+01  -9.574214e+01
   5.733052e+01  -8.893911e+01
   6.891646e+01  -2.802536e+01
   9.370335e+00   2.534286e+01
  -2.937549e+01   6.516446e+00
   9.519324e+00  -2.220031e+01
   7.829225e+01  -8.716304e-01
   9.611851e+01   7.561568e+01
   1.032216e+01   1.628155e+02
  -1.327714e+02   1.550247e+02
  -2.373233e+02   2.228707e+01
  -1.840447e+02  -1.512854e+02
  -3.801779e+01  -2.261780e+02
   1.019533e+02  -1.586120e+02
   1.332379e+02  -1.768499e+01
   7.003928e+01   4.799063e+01
   3.123346e+01   2.798980e+01
   5.173970e+01  -1.412685e+01
   8.407585e+01  -6.934087e+00
   4.089889e+01   4.558876e+01
  -4.281559e+01   9.495840e+01
  -1.128257e+02   5.770018e+01
  -9.384083e+01  -3.710464e+01
   1.584521e+01  -1.125015e+02
   1.591737e+02  -8.642227e+01
   2.076803e+02   6.299557e+01
   8.220905e+01   2.188008e+02
  -1.144601e+02   2.198234e+02
  -2.622631e+02   7.802560e+01
  -2.581338e+02  -8.868026e+01
  -9.549038e+01  -1.564029e+02
   4.285578e+01  -1.377874e+02
   9.196851e+01  -7.269157e+01
   7.441468e+01  -6.179599e+01
   4.921210e+01  -9.164389e+01
   8.206039e+01  -7.222374e+01
   1.170517e+02   1.862579e+01
   1.116684e+02   1.537209e+02
   1.877232e+01   2.096384e+02
  -1.049353e+02   1.715779e+02
  -1.601105e+02   1.699360e+01
  -1.154170e+02  -1.127892e+02
  -1.000032e+01  -1.602522e+02
   7.264764e+01  -8.725511e+01
   5.774939e+01   1.041228e+01
   1.886284e+00   4.865729e+01
  -2.502416e+01   3.526481e+01
   3.072011e+01   1.061693e+01
   8.131519e+01   2.111532e+01
   4.475868e+01   3.739671e+01
  -6.311826e+01   3.469625e+01
  -1.565399e+02  -5.767177e+00
  -1.433775e+02  -5.794702e+01
  -4.065651e+00  -9.940980e+01
   1.177420e+02  -5.944755e+01
   1.446356e+02  -5.255832e+00
   4.317416e+01   4.688682e+01
  -5.845256e+01   3.867538e+01
  -7.042362e+01  -2.110293e+01
  -1.457095e+01  -6.899074e+01
   4.436329e+01  -6.530119e+01
   6.785619e+01  -9.130752e-02
   5.557116e+01   5.006953e+01
   4.598821e+01   4.079321e+01
   5.357098e+01   3.928082e+00
   6.145871e+01   2.357308e+00
   4.234003e+01   6.614317e+01
  -2.000301e+01   1.462234e+02
  -1.153840e+02   1.360128e+02
  -1.642436e+02   3.879881e+01
  -1.237241e+02  -8.743083e+01
  -1.912871e+00  -1.344341e+02
   8.533289e+01  -5.966184e+01
   5.898193e+01   1.405236e+01
  -5.798055e+01   2.000958e+01
  -1.295051e+02  -3.598426e+01
  -7.765364e+01  -1.051933e+02
   8.847528e+01  -9.860222e+01
   1.862477e+02  -3.922775e+01
   1.526215e+02   3.144365e+01
   3.311242e+01   7.737164e+01
  -6.322795e+01   6.491790e+01
  -4.790786e+01   1.456532e+00
   3.901132e+01  -2.806625e+01
   9.248058e+01   1.991335e+01
   3.644269e+01   1.093327e+02
  -7.920443e+01   1.512276e+02
  -1.471655e+02   6.455649e+01
  -1.214581e+02  -8.671192e+01
  -6.955351e+00  -1.813660e+02
   7.879082e+01  -1.380617e+02
   9.283927e+01   7.777626e+00
   5.816623e+01   1.136172e+02
  -8.877429e+00   9.919461e+01
  -4.743113e+01   1.476440e+01
  -4.487609e+01  -2.937316e+01
  -1.924627e+01  -5.543085e+00
  -5.380927e+00   1.845496e+01
  -2.599435e+01  -1.927783e+01
  -5.583941e+01  -8.213629e+01
  -3.332551e+01  -9.583814e+01
   5.314466e+01  -3.910103e+01
   1.332623e+02   3.305533e+01
   1.210294e+02   6.912446e+01
   1.746649e+01   4.854148e+01
  -8.021117e+01   2.501159e+01
  -8.415363e+01   7.257230e+00
  -1.492456e+01  -9.065690e+00
   2.986224e+01  -2.100644e+01
   1.848052e+01  -1.427324e+01
  -1.558422e+01   5.589801e+00
   3.806578e+00   6.232799e+00
   6.168392e+01  -2.599412e-01
   8.535926e+01   2.061440e+01
   1.646559e+01   7.695210e+01
  -1.087709e+02   1.126801e+02
  -1.878338e+02   5.433924e+01
  -1.392097e+02  -6.024430e+01
  -2.692921e+01  -1.503927e+02
   6.676423e+01  -1.522098e+02
   1.127534e+02  -6.211904e+01
   7.605205e+01   1.953816e+01
   2.679216e+01   3.671298e+01
   1.736787e+00   1.132514e+01
   1.189279e+01   7.015522e+00
   2.842245e+01   4.751755e+01
   1.371612e+01   8.756053e+01
  -2.774117e+01   6.612761e+01
  -7.442801e+01  -1.618188e+01
  -7.614288e+01  -1.020428e+02
  -1.089767e+01  -1.015232e+02
   7.275974e+01  -2.798570e+01
   1.038754e+02   5.949969e+01
   3.654365e+01   1.013486e+02
  -5.917556e+01   5.723692e+01
  -9.971982e+01  -1.371250e+01
  -4.276348e+01  -5.150464e+01
   2.921906e+01  -5.500962e+01
   3.882091e+01  -3.060907e+01
  -2.541767e+01   2.360659e+00
  -6.463982e+01   1.369927e+01
  -1.490125e+01  -2.506757e+01
   7.511278e+01  -6.624072e+01
   1.136831e+02  -4.838579e+01
   6.737730e+01   1.611978e+01
  -1.667621e+01   8.246207e+01
  -5.481279e+01   8.073467e+01
  -4.254448e+01   1.176394e+01
  -5.114130e+00  -5.115938e+01
   2.204645e+01  -4.436582e+01
   3.525046e+01   1.263304e+01
   2.732308e+01   5.118811e+01
  -2.619350e+00   3.560988e+01
  -2.920171e+01  -6.414928e+00
  -4.035582e+01  -2.230389e+01
  -1.910144e+01  -4.244681e+00
   3.831232e+00   1.834947e+01
   6.571316e+00   4.497201e+00
  -2.209775e+00  -3.590911e+01
  -1.738367e+00  -4.494201e+01
   2.365938e+01  -1.351385e+01
   3.348897e+01   3.749014e+01
   2.700555e+00   5.437145e+01
  -3.633878e+01   2.366444e+01
  -5.688734e+01  -3.133274e+01
  -1.702937e+01  -5.440775e+01
   5.487461e+01  -3.506679e+01
   8.952199e+01   1.165453e+01
   4.836737e+01   4.018366e+01
  -2.379120e+01   4.346031e+01
  -6.376430e+01   2.687568e+01
  -2.318072e+01   5.587884e+00
   2.766497e+01   1.582352e+00
   3.531347e+01   7.848777e+00
  -2.340391e+01   2.614330e+01
  -7.927381e+01   2.070966e+01
