
 $NMID
 id='ANONYMOUS ', fmtdat='(2E16.6)'
 volume=1.0
 tramp=1.0
 $END
  -4.608456e+03   2.746499e+02
  -2.812192e+03  -2.604016e+03
   6.650198e+02  -2.772868e+03
   2.226929e+03  -8.551311e+02
   1.321184e+03   7.228300e+02
  -7.973686e+02   9.375829e+02
  -9.761940e+02  -5.982097e+02
   8.797522e+01  -1.120350e+03
   7.916789e+02  -8.607054e+02
   1.042359e+03   2.181373e+02
   5.686388e+02   9.415831e+02
  -2.761299e+02   9.899020e+02
  -7.573557e+02   5.159924e+01
  -4.217233e+02  -8.714361e+02
   2.864761e+02  -8.149615e+02
   6.690624e+02   3.195813e+01
   2.481778e+02   7.656132e+02
  -3.124553e+02   6.774482e+02
  -6.521920e+02   8.489441e+01
  -4.295546e+02  -3.860560e+02
   1.033898e+00  -4.661431e+02
   2.766280e+02  -2.778566e+02
   2.808406e+02  -2.055034e+01
  -1.448745e+02   8.759212e+01
  -4.516275e+02  -7.393159e+01
  -2.353459e+02  -4.301033e+02
   5.059496e+02  -4.570218e+02
   8.726918e+02  -7.817564e+00
   4.379186e+02   5.492251e+02
  -4.305612e+02   5.050611e+02
  -8.603578e+02  -8.555120e+01
  -3.750839e+02  -5.188437e+02
   3.203347e+02  -5.629395e+02
   6.177162e+02  -2.480617e+02
   4.753162e+02   2.477150e+02
   8.201239e+01   5.291716e+02
  -1.919013e+02   3.323263e+02
  -2.228221e+02  -1.782554e+02
   1.847131e+02  -4.993503e+02
   4.626806e+02  -6.544390e+01
   3.205760e+02   7.624312e+02
  -3.340133e+02   7.613156e+02
  -7.154557e+02  -2.338274e+01
  -3.137165e+02  -5.898222e+02
   3.238283e+02  -3.485128e+02
   4.695344e+02   3.614726e+02
  -4.554371e+01   5.878988e+02
  -6.208373e+02   1.299692e+02
  -6.299205e+02  -4.345640e+02
  -1.534361e+02  -6.853512e+02
   3.939370e+02  -4.064809e+02
   6.900490e+02   9.392138e+01
   4.431203e+02   3.974092e+02
  -1.738498e+02   4.109114e+02
  -4.944562e+02   9.348718e+01
  -2.681767e+02  -2.129400e+02
   1.570077e+02  -1.314151e+02
   1.947464e+02   1.633759e+02
  -1.448664e+02   1.959665e+02
  -4.338813e+02  -5.325476e+01
  -1.787098e+02  -3.678843e+02
   2.125855e+02  -2.911485e+02
   3.633417e+02  -7.065266e+01
   2.027997e+02   1.007177e+02
  -2.869421e+01   2.031555e+02
  -2.139304e+02   3.341858e+02
  -3.327922e+02   2.490099e+02
  -3.117440e+02  -1.371096e+02
  -7.499359e+01  -4.833180e+02
   1.160387e+02  -4.253625e+02
   1.549704e+02  -1.321093e+02
   4.475147e+01   2.362192e+01
   2.559681e+01  -8.457794e+01
   1.894217e+02  -1.283249e+02
   2.900952e+02   3.210728e+01
   1.930690e+02   2.775687e+02
  -7.851943e+01   2.786922e+02
  -2.369593e+02   3.408905e+01
  -2.148118e+02  -2.433443e+02
   1.245713e+01  -3.252798e+02
   2.791760e+02  -1.499306e+02
   3.790241e+02   1.739433e+02
   1.876660e+02   3.777039e+02
  -9.361008e+01   3.379133e+02
  -2.584185e+02   1.337920e+02
  -1.682851e+02   1.021289e+00
  -9.515516e+01   2.439338e+01
  -2.283162e+02   7.638634e+01
  -4.103560e+02  -1.082713e+01
  -3.464193e+02  -2.972433e+02
  -8.961480e+00  -4.602454e+02
   3.795857e+02  -4.543967e+02
   4.760381e+02  -2.154390e+02
   3.686428e+02   7.105014e+01
   5.991613e+01   3.097169e+02
  -1.377433e+02   2.666363e+02
  -1.092976e+02   3.205713e+01
   1.150182e+02  -1.395865e+02
   2.217072e+02   7.875077e+00
   7.528005e+01   2.223899e+02
  -1.772882e+02   2.180165e+02
  -2.097021e+02  -6.874524e+01
   5.195331e+00  -2.058383e+02
   2.131176e+02  -4.147158e+01
   1.766092e+02   2.543491e+02
  -2.789645e+01   3.541438e+02
  -2.414487e+02   2.031837e+02
  -3.470319e+02  -5.167960e+01
  -2.774441e+02  -2.507346e+02
  -1.074255e+02  -2.711939e+02
   1.188120e+02  -1.698756e+02
   1.810371e+02  -3.971519e+01
   6.041096e+01   3.587645e+01
  -7.580682e+01  -4.083218e+01
  -3.282649e+01  -1.364119e+02
   1.171375e+02  -1.101616e+02
   1.838352e+02   3.057770e-02
   7.192826e+01   7.822008e+01
  -7.390304e+01   2.917118e+01
  -5.885875e+01  -6.942907e+01
   1.175187e+02  -8.707700e+01
   2.855769e+02   3.741707e-01
   2.733195e+02   1.351129e+02
   6.566547e+01   2.668890e+02
  -1.751670e+02   2.586477e+02
  -2.995626e+02   1.492304e+02
  -1.772121e+02  -5.013634e+01
   2.238677e+01  -1.275569e+02
   1.008276e+02  -5.719591e+00
  -2.204767e+01   1.138808e+02
  -1.972456e+02   8.263994e+01
  -2.392220e+02  -1.120020e+02
  -8.281688e+01  -2.039515e+02
   8.318175e+01  -1.725270e+02
   1.510459e+02  -4.522085e+01
   7.971405e+01   3.432553e+01
  -1.426791e+01   9.584552e+00
  -3.968830e+01  -8.746660e+01
   7.349356e+01  -1.078606e+02
   2.004991e+02  -2.848036e+01
   1.953771e+02   1.234744e+02
   2.556560e+01   2.238134e+02
  -1.728122e+02   1.747429e+02
  -2.045290e+02   3.849492e+00
  -7.565787e+01  -1.227230e+02
   7.213650e+01  -1.263434e+02
   8.938370e+01  -3.390860e+01
   2.469988e+01   2.731685e+01
  -1.891229e+01   1.999151e+01
   8.839559e+00  -3.330568e+00
   6.636894e+01   9.977167e+00
   9.681563e+01   8.826898e+01
   1.123783e+01   1.569204e+02
  -1.288784e+02   1.636381e+02
  -2.360831e+02   3.168390e+01
  -2.117559e+02  -1.477689e+02
  -4.452679e+01  -2.502965e+02
   1.150227e+02  -1.757561e+02
   1.444223e+02  -2.840880e+01
   7.177021e+01   5.617958e+01
   2.830223e+01   3.892264e+01
   5.615170e+01  -1.061680e+01
   7.742092e+01  -4.153510e+00
   4.567234e+01   4.789568e+01
  -4.458738e+01   8.568558e+01
  -9.994095e+01   4.689554e+01
  -7.941690e+01  -3.123322e+01
   6.245816e+00  -1.127010e+02
   1.360680e+02  -8.709948e+01
   2.052886e+02   3.973099e+01
   1.043353e+02   2.045147e+02
  -1.041640e+02   2.400248e+02
  -2.805604e+02   1.131408e+02
  -2.733088e+02  -6.909286e+01
  -1.210014e+02  -1.905612e+02
   3.298741e+01  -1.591828e+02
   9.659842e+01  -8.548223e+01
   8.153925e+01  -7.432902e+01
   6.747185e+01  -9.484821e+01
   9.712926e+01  -7.669017e+01
   1.373957e+02   2.053345e+01
   1.175523e+02   1.579661e+02
   3.508497e+01   2.428702e+02
  -1.044402e+02   1.761744e+02
  -1.825337e+02   2.250320e+01
  -1.363357e+02  -1.363497e+02
  -1.612157e+01  -1.653049e+02
   6.928740e+01  -1.022542e+02
   5.914570e+01  -2.978171e+00
   3.399191e+00   4.258911e+01
  -7.466412e+00   3.696707e+01
   3.831857e+01   1.791830e+01
   7.571068e+01   2.609421e+01
   4.583450e+01   3.765744e+01
  -6.330009e+01   3.413377e+01
  -1.601977e+02   1.277068e+01
  -1.492576e+02  -5.120230e+01
  -1.077140e+01  -8.252835e+01
   1.209070e+02  -7.384708e+01
   1.509849e+02  -1.080689e+01
   5.044227e+01   3.961340e+01
  -6.211719e+01   3.545396e+01
  -7.677242e+01  -1.517670e+01
  -8.380945e+00  -7.278818e+01
   5.672555e+01  -6.129049e+01
   6.579197e+01   1.571600e+00
   4.236990e+01   5.308883e+01
   4.443309e+01   3.914306e+01
   6.268780e+01   1.556595e+00
   6.661520e+01   3.803987e+00
   2.866757e+01   6.974437e+01
  -2.837286e+01   1.503927e+02
  -1.266199e+02   1.479772e+02
  -1.739963e+02   3.472968e+01
  -1.211485e+02  -9.869639e+01
  -8.755584e+00  -1.302067e+02
   9.333976e+01  -6.754498e+01
   5.874634e+01   1.595811e+01
  -5.809348e+01   2.092046e+01
  -1.399840e+02  -5.468620e+01
  -7.795456e+01  -1.048157e+02
   8.063914e+01  -1.162122e+02
   1.981875e+02  -4.695172e+01
   1.771611e+02   3.335953e+01
   3.994863e+01   8.680770e+01
  -6.383605e+01   7.332565e+01
  -4.997095e+01   9.697929e+00
   3.783720e+01  -3.026457e+01
   9.088557e+01   2.600421e+01
   2.748165e+01   1.208137e+02
  -9.270644e+01   1.579595e+02
  -1.759886e+02   6.360404e+01
  -1.232534e+02  -9.851774e+01
  -1.572808e+01  -2.076614e+02
   7.083727e+01  -1.478395e+02
   1.084777e+02   3.082609e+00
   6.905726e+01   1.225271e+02
   3.939925e+00   1.043753e+02
  -4.598022e+01   2.294884e+01
  -5.608347e+01  -3.157933e+01
  -3.072693e+01  -7.731386e+00
  -4.056716e+00   2.213498e+01
  -1.886788e+01  -1.160259e+01
  -5.772722e+01  -9.298351e+01
  -4.386146e+01  -1.162205e+02
   4.544739e+01  -4.772348e+01
   1.399910e+02   3.402408e+01
   1.333776e+02   7.819709e+01
   1.711878e+01   4.781024e+01
  -8.974904e+01   2.576917e+01
  -9.390985e+01   1.052781e+01
  -9.475071e+00  -8.700508e+00
   3.914362e+01  -2.319555e+01
   1.266247e+01  -1.871979e+01
  -2.307274e+01   3.357050e-01
   6.604475e+00   9.411709e+00
   7.925004e+01   5.510611e+00
   9.544116e+01   2.299105e+01
   4.415272e+00   7.997011e+01
  -1.239173e+02   1.220819e+02
  -1.861341e+02   5.400135e+01
  -1.521063e+02  -7.695537e+01
  -1.121021e+01  -1.649620e+02
   7.915539e+01  -1.566375e+02
   1.117203e+02  -5.057303e+01
   8.497164e+01   2.242910e+01
   2.706494e+01   3.780036e+01
  -4.622269e+00   7.000367e+00
   8.782575e+00   2.744734e+00
   3.514704e+01   4.693366e+01
   2.505956e+01   9.047754e+01
  -2.926116e+01   7.438860e+01
  -8.197851e+01  -2.104460e+01
  -8.089621e+01  -1.117487e+02
  -1.365093e+00  -1.136954e+02
   8.172213e+01  -2.407501e+01
   1.125303e+02   8.311794e+01
   2.989117e+01   1.004658e+02
  -6.950180e+01   5.805813e+01
  -1.017149e+02  -1.191565e+01
  -3.644860e+01  -5.016614e+01
   3.448661e+01  -5.042736e+01
   3.147628e+01  -2.702389e+01
  -3.525006e+01  -2.809329e+00
  -7.251498e+01   4.616641e+00
  -1.329369e+01  -2.443765e+01
   8.379168e+01  -6.828606e+01
   1.166136e+02  -5.746149e+01
   6.506810e+01   1.081034e+01
  -1.937727e+01   8.918725e+01
  -5.063000e+01   8.387088e+01
  -4.053073e+01   7.299432e+00
   2.372752e+00  -5.779339e+01
   2.828910e+01  -4.393442e+01
   3.825726e+01   2.027217e+01
   2.183053e+01   5.413822e+01
  -5.808021e+00   3.218730e+01
  -3.382108e+01  -8.909227e+00
  -4.001606e+01  -2.124840e+01
  -2.202958e+01  -2.848877e-01
  -7.454689e-01   1.422093e+01
   6.116131e+00  -8.117328e+00
   1.022342e+01  -4.054151e+01
   2.038669e+01  -4.433694e+01
   3.968992e+01  -5.435670e+00
   2.763391e+01   5.070826e+01
  -3.048032e+00   5.941041e+01
  -4.866552e+01   1.761276e+01
  -5.376371e+01  -4.676725e+01
  -1.367856e+01  -6.805144e+01
   5.816354e+01  -3.469049e+01
   9.099664e+01   2.067832e+01
   4.894527e+01   4.632188e+01
  -2.836637e+01   4.241422e+01
  -6.381831e+01   1.761874e+01
  -2.454496e+01   5.070095e+00
   3.993061e+01   2.359664e+00
   3.972471e+01   1.651714e+01
  -3.139967e+01   3.380777e+01
  -9.378917e+01   2.458000e+01
