
 $NMID
 id='ANONYMOUS ', fmtdat='(2E16.6)'
 volume=1.0
 tramp=1.0
 $END
  -4.208050e+03   1.228992e+02
  -2.687319e+03  -2.374592e+03
   2.990883e+02  -2.977596e+03
   2.104521e+03  -1.111702e+03
   1.012910e+03   5.163132e+02
  -4.426205e+02   5.727885e+02
  -8.027130e+02  -2.720555e+02
  -1.095037e+02  -1.008816e+03
   7.922400e+02  -6.665304e+02
   8.490264e+02  -5.686319e+01
   4.168311e+02   8.230455e+02
  -1.981156e+02   8.865640e+02
  -5.638150e+02   2.324097e+02
  -3.457626e+02  -6.830336e+02
   2.368960e+02  -7.289410e+02
   5.757467e+02  -4.235084e+01
   3.046172e+02   6.388823e+02
  -3.005363e+02   6.391532e+02
  -6.071942e+02   1.706898e+02
  -3.799192e+02  -3.389617e+02
  -9.785361e+01  -4.627351e+02
   1.953888e+02  -2.531757e+02
   1.780886e+02  -5.430277e+01
  -7.493054e+01   1.444653e+01
  -3.299828e+02  -1.392863e+02
  -1.647427e+02  -3.929240e+02
   4.507219e+02  -3.299111e+02
   7.948029e+02   7.193094e+01
   4.599124e+02   4.546470e+02
  -3.217388e+02   4.365468e+02
  -7.037768e+02   2.038030e+01
  -3.922868e+02  -4.343209e+02
   2.164673e+02  -4.699903e+02
   5.532356e+02  -1.961656e+02
   4.329078e+02   2.214056e+02
   1.342689e+02   4.557469e+02
  -1.193791e+02   3.279241e+02
  -1.313864e+02  -2.062217e+02
   1.000923e+02  -3.636641e+02
   4.120517e+02   5.267219e+01
   2.340220e+02   6.473668e+02
  -2.322361e+02   6.688778e+02
  -5.438261e+02   1.704135e+01
  -2.466017e+02  -5.373426e+02
   2.658212e+02  -2.692870e+02
   3.700398e+02   2.811989e+02
  -5.632420e+01   5.524383e+02
  -5.013350e+02   1.435290e+02
  -5.521119e+02  -3.824907e+02
  -2.163513e+02  -5.285320e+02
   3.758546e+02  -3.258744e+02
   6.189209e+02   5.517944e+01
   3.718329e+02   3.796556e+02
  -8.885528e+01   3.137484e+02
  -3.966405e+02   8.441050e+01
  -2.294133e+02  -1.887817e+02
   8.888276e+01  -7.842594e+01
   1.188668e+02   1.573943e+02
  -1.305998e+02   1.866452e+02
  -3.026081e+02  -1.072452e+02
  -1.108665e+02  -2.905676e+02
   1.918528e+02  -2.781994e+02
   3.318295e+02  -8.075000e+01
   2.108517e+02   8.536458e+01
  -1.342590e+01   2.353255e+02
  -2.420024e+02   3.337319e+02
  -3.480964e+02   1.968674e+02
  -2.650810e+02  -1.351338e+02
  -9.143616e+01  -4.068079e+02
   6.887563e+01  -3.547058e+02
   1.061052e+02  -1.514425e+02
   4.535025e+01  -1.043438e+01
   6.342219e+01  -7.152588e+01
   1.937678e+02  -1.010048e+02
   2.696851e+02   8.213860e+01
   1.755297e+02   2.604907e+02
  -6.877117e+01   2.451341e+02
  -2.223525e+02   8.691680e+00
  -1.797114e+02  -2.391642e+02
   5.189027e+00  -2.594572e+02
   2.742920e+02  -1.043997e+02
   3.541004e+02   1.484345e+02
   2.089330e+02   3.324079e+02
  -5.412139e+01   3.136037e+02
  -2.133629e+02   1.385293e+02
  -1.618922e+02   2.266364e+01
  -1.176436e+02   3.720509e+01
  -2.473146e+02   5.573848e+01
  -4.308280e+02  -5.902779e+01
  -3.243947e+02  -2.720993e+02
   1.844589e+01  -4.387399e+02
   3.852579e+02  -3.914394e+02
   4.737141e+02  -2.132571e+02
   3.284023e+02   9.894261e+01
   8.420801e+01   2.619510e+02
  -1.123416e+02   2.569388e+02
  -6.826056e+01   4.236959e+01
   1.052799e+02  -8.503591e+01
   1.632200e+02  -1.008856e+01
   3.435685e+01   1.986391e+02
  -1.489972e+02   1.711972e+02
  -1.661700e+02  -2.912989e+01
   1.347736e+00  -1.677808e+02
   1.809875e+02  -3.210100e+01
   1.629556e+02   2.433513e+02
  -1.578300e+01   3.735635e+02
  -2.508484e+02   1.820615e+02
  -3.341772e+02  -5.847232e+01
  -2.717586e+02  -2.255630e+02
  -9.351493e+01  -2.510185e+02
   1.120052e+02  -1.527692e+02
   1.777111e+02  -2.137437e+01
   6.073453e+01   2.719064e+01
  -5.331514e+01  -4.028692e+01
  -2.542984e+01  -1.124990e+02
   1.306310e+02  -9.489177e+01
   1.769873e+02  -4.044473e+00
   5.898153e+01   6.613505e+01
  -8.509162e+01   7.236350e+00
  -5.189942e+01  -7.819628e+01
   1.299302e+02  -8.519933e+01
   2.678882e+02   3.592527e-01
   2.642983e+02   1.489789e+02
   5.187636e+01   2.505663e+02
  -2.048463e+02   2.453743e+02
  -2.813621e+02   1.240476e+02
  -1.637577e+02  -4.487503e+01
   2.141714e+01  -9.719088e+01
   9.113950e+01  -1.283933e+01
  -3.495400e+01   9.658564e+01
  -1.977900e+02   5.788272e+01
  -2.022143e+02  -8.530075e+01
  -7.796886e+01  -2.132777e+02
   9.580318e+01  -1.632082e+02
   1.482139e+02  -3.489519e+01
   6.700269e+01   4.083901e+01
  -3.105351e+01  -2.793195e-01
  -2.472695e+01  -8.491414e+01
   8.045172e+01  -1.171777e+02
   2.066931e+02  -3.118154e+01
   1.747657e+02   1.249772e+02
   2.796883e+01   2.098217e+02
  -1.582226e+02   1.578013e+02
  -1.957239e+02   1.656271e+01
  -6.439223e+01  -1.060537e+02
   6.222297e+01  -1.096254e+02
   7.686727e+01  -3.461206e+01
   1.563225e+01   2.296661e+01
  -2.443461e+01   1.219104e+01
   9.429727e+00  -1.392349e+01
   7.504794e+01   5.994129e+00
   8.869272e+01   8.145246e+01
   1.281120e+01   1.687934e+02
  -1.374269e+02   1.448374e+02
  -2.343973e+02   2.885879e+01
  -2.060271e+02  -1.359390e+02
  -4.155209e+01  -2.309561e+02
   9.575529e+01  -1.691419e+02
   1.395430e+02  -2.210679e+01
   7.328385e+01   5.248029e+01
   3.376532e+01   3.701834e+01
   5.231601e+01  -1.269070e+01
   8.045755e+01  -2.396903e+00
   4.179811e+01   5.465901e+01
  -4.806959e+01   9.306906e+01
  -1.067913e+02   5.773049e+01
  -9.250192e+01  -4.589771e+01
   1.375406e+01  -1.076787e+02
   1.405427e+02  -9.008189e+01
   1.929744e+02   7.003733e+01
   9.478248e+01   1.941115e+02
  -1.123447e+02   2.203352e+02
  -2.669366e+02   9.869754e+01
  -2.544777e+02  -9.395175e+01
  -1.100317e+02  -1.734534e+02
   2.973812e+01  -1.470362e+02
   9.222804e+01  -8.622047e+01
   8.015242e+01  -7.268976e+01
   6.429054e+01  -9.187214e+01
   9.540212e+01  -7.424430e+01
   1.298521e+02   1.892196e+01
   1.191259e+02   1.475755e+02
   3.892920e+01   2.239943e+02
  -1.084577e+02   1.726070e+02
  -1.696723e+02   2.570555e+01
  -1.416746e+02  -1.138988e+02
  -1.287822e+01  -1.645054e+02
   6.955424e+01  -8.967053e+01
   5.976024e+01   2.864421e+00
   3.190415e+00   4.101589e+01
  -1.355115e+01   3.402345e+01
   3.406958e+01   1.566103e+01
   7.950818e+01   1.479256e+01
   4.697163e+01   4.113247e+01
  -6.448563e+01   3.783523e+01
  -1.682790e+02  -1.064886e+01
  -1.472446e+02  -5.719174e+01
  -1.267831e+01  -9.265682e+01
   1.139451e+02  -7.659869e+01
   1.440360e+02  -1.197467e+01
   4.719535e+01   4.307084e+01
  -5.953034e+01   4.294308e+01
  -7.266573e+01  -1.941892e+01
  -9.647304e+00  -7.030287e+01
   5.688369e+01  -6.288242e+01
   6.436090e+01   2.728055e+00
   4.646416e+01   5.012080e+01
   4.293928e+01   4.120505e+01
   5.906851e+01   2.159471e+00
   6.445458e+01  -9.663931e-01
   3.538788e+01   6.543003e+01
  -3.137820e+01   1.458889e+02
  -1.325842e+02   1.295916e+02
  -1.612260e+02   3.416060e+01
  -1.280296e+02  -9.716613e+01
  -2.369504e+00  -1.298060e+02
   8.201670e+01  -5.623931e+01
   6.073574e+01   1.003632e+01
  -6.106777e+01   2.343251e+01
  -1.376064e+02  -3.809500e+01
  -8.224868e+01  -1.066133e+02
   7.667315e+01  -1.162451e+02
   1.922614e+02  -4.699228e+01
   1.551232e+02   3.753783e+01
   3.935435e+01   8.490062e+01
  -6.150794e+01   6.763533e+01
  -4.409701e+01   6.014867e+00
   4.043145e+01  -2.769969e+01
   9.252694e+01   1.536464e+01
   3.354497e+01   1.177373e+02
  -9.491863e+01   1.652931e+02
  -1.587864e+02   7.247047e+01
  -1.274976e+02  -9.038073e+01
  -1.283328e+01  -2.003848e+02
   8.121254e+01  -1.480315e+02
   9.975284e+01   4.746430e+00
   6.260092e+01   1.113878e+02
  -1.452384e+00   1.061794e+02
  -4.482633e+01   1.988594e+01
  -5.004735e+01  -3.141523e+01
  -2.139037e+01  -9.000308e+00
  -2.210205e+00   1.987038e+01
  -1.975178e+01  -1.729450e+01
  -5.277677e+01  -8.752799e+01
  -4.030225e+01  -1.132213e+02
   4.879628e+01  -4.794292e+01
   1.381463e+02   3.905435e+01
   1.260473e+02   6.803287e+01
   2.160661e+01   4.929517e+01
  -8.517081e+01   2.199113e+01
  -9.119127e+01   4.233084e+00
  -1.076220e+01  -9.224728e+00
   3.699407e+01  -2.245412e+01
   1.389520e+01  -1.484732e+01
  -1.892836e+01   4.185934e+00
   6.710111e+00   8.658236e+00
   7.130450e+01   1.781531e+00
   8.985182e+01   2.829142e+01
   1.332546e+01   8.665067e+01
  -1.188984e+02   1.238203e+02
  -1.942402e+02   6.347384e+01
  -1.510741e+02  -5.681640e+01
  -2.941414e+01  -1.545929e+02
   7.302065e+01  -1.438791e+02
   1.134475e+02  -6.518103e+01
   8.412422e+01   2.715027e+01
   2.389873e+01   3.446416e+01
  -2.610017e+00   1.141722e+01
   1.158476e+01   6.484566e+00
   3.323707e+01   4.592695e+01
   2.266648e+01   8.968117e+01
  -2.944991e+01   7.168856e+01
  -7.804146e+01  -1.769797e+01
  -7.768706e+01  -1.082365e+02
  -1.118614e+01  -1.160479e+02
   8.303398e+01  -2.637966e+01
   1.054302e+02   7.254088e+01
   2.937013e+01   1.079799e+02
  -6.488764e+01   5.871866e+01
  -9.982546e+01  -9.983017e+00
  -4.093371e+01  -5.389992e+01
   3.503038e+01  -5.795120e+01
   3.295564e+01  -2.962691e+01
  -3.093735e+01   5.706953e+00
  -6.901132e+01   8.524001e+00
  -1.428343e+01  -2.541631e+01
   8.078666e+01  -6.765930e+01
   1.135003e+02  -5.831067e+01
   6.629424e+01   1.329833e+01
  -1.711528e+01   8.379839e+01
  -5.316429e+01   8.109022e+01
  -4.108613e+01   7.335521e+00
  -6.013568e+00  -5.503688e+01
   2.608908e+01  -4.371726e+01
   3.851580e+01   1.783674e+01
   2.595143e+01   5.351044e+01
  -3.494842e+00   3.581842e+01
  -3.424215e+01  -6.714186e+00
  -3.829445e+01  -2.176721e+01
  -2.016614e+01  -1.527133e+00
   9.803289e-02   1.493544e+01
   8.384647e+00   3.390982e-01
   6.584883e-01  -3.584988e+01
   1.259500e+01  -4.725419e+01
   2.544512e+01  -1.107109e+01
   3.538928e+01   4.714353e+01
   1.580129e+00   6.518414e+01
  -4.310542e+01   2.255508e+01
  -5.705922e+01  -3.724680e+01
  -1.900855e+01  -6.211276e+01
   5.386985e+01  -3.290852e+01
   9.151050e+01   1.476664e+01
   5.076548e+01   4.107180e+01
  -2.801371e+01   4.457074e+01
  -6.413149e+01   2.223880e+01
  -2.398751e+01   6.490469e+00
   3.390916e+01  -1.072606e+00
   4.028864e+01   1.364235e+01
  -2.648865e+01   2.978876e+01
  -8.902454e+01   1.773955e+01
