
 $NMID
 id='ANONYMOUS ', fmtdat='(2E16.6)'
 volume=1.0
 tramp=1.0
 $END
   3.376577e+03  -4.485156e+02
   2.282874e+03   2.023908e+03
  -1.843414e+02   2.563395e+03
  -1.446897e+03   1.184065e+03
  -9.405942e+02  -1.523451e+02
  -1.686886e+01  -2.897094e+02
   4.717560e+02   1.466142e+02
   4.414183e+01   6.410548e+02
  -5.663242e+02   5.945769e+02
  -7.438699e+02   1.898265e+02
  -4.212049e+02  -6.130352e+02
   9.801311e+01  -7.207932e+02
   4.097016e+02  -2.099717e+02
   2.830418e+02   4.843922e+02
  -1.790317e+02   5.854690e+02
  -4.215405e+02   9.425705e+01
  -2.292797e+02  -5.156474e+02
   1.510546e+02  -6.092777e+02
   4.821944e+02  -2.253858e+02
   4.123449e+02   2.100825e+02
   1.143492e+02   3.882910e+02
  -1.311261e+02   2.625903e+02
  -8.522831e+01   6.852865e+01
   1.093183e+02   6.477812e+01
   2.777020e+02   2.306742e+02
   3.304553e+00   3.887508e+02
  -4.069322e+02   2.780511e+02
  -5.937280e+02  -1.645186e+02
  -2.708556e+02  -3.444388e+02
   3.230916e+02  -2.545938e+02
   5.525002e+02   1.461450e+02
   2.090222e+02   3.553121e+02
  -2.364725e+02   4.182436e+02
  -4.586236e+02   1.673066e+02
  -3.444386e+02  -2.018280e+02
  -1.204453e+02  -3.312719e+02
   5.233125e+01  -1.805601e+02
   9.809094e+00   9.809553e+01
  -1.105778e+02   2.897501e+02
  -2.483313e+02  -1.354577e+02
  -1.009926e+01  -5.585638e+02
   1.979033e+02  -5.361571e+02
   3.503572e+02   7.013541e+01
   1.389838e+02   3.315159e+02
  -1.683448e+02   1.719294e+02
  -2.442572e+02  -2.673940e+02
   1.082865e+02  -3.898052e+02
   4.784830e+02  -9.370481e+01
   4.818306e+02   3.357272e+02
   1.790402e+02   5.035985e+02
  -3.103992e+02   2.542597e+02
  -5.144344e+02  -1.267321e+02
  -3.154230e+02  -2.561280e+02
   3.183615e+01  -2.712233e+02
   2.889722e+02  -8.700409e+01
   2.116765e+02   5.098680e+01
   7.485312e+00   2.429787e+01
  -8.346077e+01  -7.703219e+01
   1.217609e+02  -9.999107e+01
   1.925993e+02   6.183052e+01
   1.241287e+02   2.048464e+02
  -1.532422e+02   2.602170e+02
  -3.344914e+02   1.243352e+02
  -2.485046e+02  -9.640123e+01
   1.806707e+01  -2.991868e+02
   2.802407e+02  -3.588621e+02
   3.515952e+02  -1.640566e+02
   2.554467e+02   1.568342e+02
   6.749423e+01   3.235570e+02
  -3.314611e+01   3.383630e+02
  -1.124557e+01   1.738474e+02
  -7.741404e+01   7.181546e+01
  -9.925346e+01   8.599205e+01
  -2.173373e+02   6.063385e+01
  -2.194256e+02  -1.078298e+02
  -8.113893e+01  -2.495767e+02
   7.948758e+01  -1.955777e+02
   1.850123e+02   8.754525e+00
   1.233429e+02   2.364772e+02
  -4.534037e+01   2.484553e+02
  -2.450401e+02   5.871609e+01
  -3.443191e+02  -1.527531e+02
  -1.820216e+02  -3.139208e+02
   6.908260e+01  -2.767065e+02
   1.897908e+02  -1.318033e+02
   1.357318e+02  -5.708675e+01
   1.314491e+02  -5.701664e+01
   2.572522e+02  -3.180399e+01
   3.891152e+02   1.101939e+02
   3.108559e+02   2.794291e+02
  -3.627262e+01   4.249891e+02
  -3.845931e+02   3.934374e+02
  -4.776091e+02   1.898214e+02
  -2.785336e+02  -1.126418e+02
  -5.206185e+01  -2.440266e+02
   1.121527e+02  -2.224319e+02
   1.829205e+01  -2.988747e+01
  -1.097560e+02   4.053083e+01
  -1.445042e+02  -2.958285e+01
   2.500915e+00  -1.541974e+02
   1.310066e+02  -1.207599e+02
   1.305942e+02   4.492049e+01
  -2.530929e+01   1.297208e+02
  -1.559247e+02   6.387788e+00
  -1.475380e+02  -2.232651e+02
   1.435754e+01  -3.215658e+02
   2.217966e+02  -1.871911e+02
   3.380163e+02   5.847599e+01
   2.652283e+02   2.382226e+02
   5.077252e+01   2.618234e+02
  -1.278535e+02   1.446550e+02
  -1.484175e+02   4.410157e+00
  -4.129120e+01  -1.257503e+01
   5.219810e+01   5.104900e+01
   4.625838e+00   1.093858e+02
  -1.367694e+02   6.317517e+01
  -1.521873e+02  -2.429676e+01
  -3.826122e+01  -5.439862e+01
   8.667491e+01   1.048681e+01
   3.878427e+01   8.503254e+01
  -1.463040e+02   8.804947e+01
  -2.950894e+02  -1.479015e+01
  -2.389353e+02  -1.510250e+02
  -2.628240e+01  -2.433998e+02
   2.073436e+02  -2.339771e+02
   2.565943e+02  -9.498210e+01
   1.362435e+02   5.707075e+01
  -2.553771e+01   8.322893e+01
  -6.405064e+01  -6.597329e+00
   5.239575e+01  -8.673981e+01
   1.768272e+02  -3.027754e+01
   1.852406e+02   9.089013e+01
   5.955749e+01   1.894208e+02
  -9.170021e+01   1.338217e+02
  -1.242972e+02   2.426143e+01
  -5.379806e+01  -3.760654e+01
   3.821989e+01   1.984144e+01
   2.592761e+01   9.420165e+01
  -9.883805e+01   1.108102e+02
  -2.049675e+02   7.690675e-01
  -1.882143e+02  -1.192761e+02
  -1.505656e+01  -1.991394e+02
   1.353600e+02  -1.485775e+02
   1.668316e+02  -1.313478e+01
   5.611716e+01   9.283130e+01
  -5.362876e+01   9.726616e+01
  -6.812718e+01   3.090607e+01
  -7.341389e+00  -2.406356e+01
   3.076867e+01  -1.001308e+01
  -8.696432e+00   1.716880e+01
  -8.479624e+01  -8.383982e-01
  -9.607596e+01  -8.440987e+01
  -8.128352e+00  -1.722471e+02
   1.361746e+02  -1.416850e+02
   2.260533e+02   7.070145e+00
   1.810380e+02   1.498477e+02
   4.502745e+01   2.068666e+02
  -1.003930e+02   1.555652e+02
  -1.314648e+02   2.891794e+01
  -7.194378e+01  -4.850789e+01
  -3.316318e+01  -3.239203e+01
  -5.265504e+01   1.172594e+01
  -8.417511e+01   5.792472e+00
  -5.076324e+01  -5.611359e+01
   3.944317e+01  -9.838566e+01
   1.195472e+02  -5.499698e+01
   1.012727e+02   4.038941e+01
  -1.256301e+01   1.217291e+02
  -1.581195e+02   9.326648e+01
  -1.917858e+02  -6.601063e+01
  -8.038682e+01  -2.084421e+02
   1.168988e+02  -1.964297e+02
   2.559814e+02  -7.865695e+01
   2.232567e+02   7.751420e+01
   9.897487e+01   1.640982e+02
  -3.543683e+01   1.369453e+02
  -8.918863e+01   7.916357e+01
  -7.432852e+01   6.404945e+01
  -5.524879e+01   9.134066e+01
  -8.987276e+01   7.800958e+01
  -1.277361e+02  -2.595805e+01
  -1.202234e+02  -1.504248e+02
  -3.115414e+01  -2.106503e+02
   1.077252e+02  -1.557928e+02
   1.546616e+02  -7.366368e+00
   1.231113e+02   1.280308e+02
   1.273456e+01   1.525219e+02
  -7.452017e+01   7.874060e+01
  -6.298804e+01  -1.193438e+01
   3.993979e+00  -4.931454e+01
   2.860665e+01  -3.295420e+01
  -3.002156e+01  -1.064495e+01
  -8.254218e+01  -1.547017e+01
  -4.965121e+01  -4.110010e+01
   7.260625e+01  -3.730864e+01
   1.635373e+02  -2.239876e+00
   1.351628e+02   6.504075e+01
   4.413102e+00   9.550118e+01
  -1.248214e+02   7.459064e+01
  -1.363722e+02   3.103044e+00
  -4.193317e+01  -4.782888e+01
   5.635671e+01  -4.049612e+01
   7.546009e+01   2.058242e+01
   1.301993e+01   6.780435e+01
  -4.763934e+01   6.079376e+01
  -6.588238e+01   4.955408e+00
  -5.592590e+01  -4.741480e+01
  -4.483890e+01  -4.159492e+01
  -5.424656e+01  -4.765363e-01
  -6.259726e+01  -7.872037e-01
  -4.400989e+01  -7.023189e+01
   2.998405e+01  -1.402778e+02
   1.199668e+02  -1.353034e+02
   1.698318e+02  -3.895802e+01
   1.232784e+02   9.665896e+01
  -2.659668e-02   1.260080e+02
  -8.962307e+01   6.486699e+01
  -6.180108e+01  -8.168483e+00
   5.660762e+01  -1.866452e+01
   1.336582e+02   4.127723e+01
   6.824365e+01   1.007073e+02
  -7.766661e+01   1.047771e+02
  -1.825048e+02   5.418601e+01
  -1.513229e+02  -3.680492e+01
  -3.362184e+01  -8.159178e+01
   6.626969e+01  -6.295437e+01
   4.566630e+01  -1.793392e+00
  -3.881826e+01   2.770882e+01
  -8.644464e+01  -2.102553e+01
  -4.182946e+01  -1.179732e+02
   8.596997e+01  -1.488283e+02
   1.556406e+02  -6.341294e+01
   1.242857e+02   8.655404e+01
   8.415387e+00   1.915205e+02
  -7.265306e+01   1.388552e+02
  -9.949956e+01  -6.403196e+00
  -4.891105e+01  -1.150187e+02
   1.212838e+01  -1.017682e+02
   5.146406e+01  -1.402025e+01
   4.291562e+01   2.941485e+01
   1.593313e+01   6.150771e+00
   6.022141e+00  -1.728164e+01
   2.882103e+01   2.238415e+01
   5.772178e+01   8.776165e+01
   3.538392e+01   1.035496e+02
  -5.721870e+01   4.106384e+01
  -1.312147e+02  -3.805799e+01
  -1.201030e+02  -5.679779e+01
  -1.876994e+01  -4.822063e+01
   7.980453e+01  -2.741083e+01
   8.208657e+01   4.831708e-01
   1.510198e+01   1.207245e+01
  -3.318084e+01   2.055969e+01
  -1.611652e+01   1.417699e+01
   1.506573e+01  -5.546531e+00
  -2.294044e+00  -5.103063e+00
  -6.692567e+01   7.235824e-01
  -8.903998e+01  -2.505248e+01
  -2.171363e+01  -8.012131e+01
   1.092623e+02  -1.105638e+02
   1.890921e+02  -7.070641e+01
   1.499245e+02   5.500831e+01
   3.552428e+01   1.470834e+02
  -6.985584e+01   1.455933e+02
  -1.153560e+02   6.799690e+01
  -7.675760e+01  -2.248690e+01
  -2.553017e+01  -3.637113e+01
  -1.448881e+00  -1.196977e+01
  -1.260466e+01  -9.297112e+00
  -2.568931e+01  -4.682033e+01
  -1.766645e+01  -8.211519e+01
   2.702398e+01  -7.002964e+01
   7.754223e+01   1.146225e+01
   7.283222e+01   1.017393e+02
   1.077936e+01   1.085339e+02
  -7.261649e+01   3.274232e+01
  -9.666277e+01  -6.141062e+01
  -3.783828e+01  -1.023198e+02
   6.376737e+01  -6.582908e+01
   9.984579e+01   8.625350e+00
   4.115648e+01   5.616151e+01
  -3.427500e+01   5.820610e+01
  -3.738951e+01   2.987375e+01
   2.972464e+01  -7.551694e+00
   6.892682e+01  -1.013473e+01
   1.696185e+01   2.689756e+01
  -7.669058e+01   6.035718e+01
  -1.157183e+02   5.178680e+01
  -6.486109e+01  -1.720605e+01
   1.453267e+01  -8.020374e+01
   5.889304e+01  -7.428066e+01
   4.099910e+01  -9.942540e+00
   8.777656e+00   5.121650e+01
  -2.501885e+01   4.468340e+01
  -3.600298e+01  -1.199453e+01
  -2.500451e+01  -5.180248e+01
   3.575948e+00  -3.973067e+01
   3.314325e+01   5.740084e+00
   4.130153e+01   2.583664e+01
   2.042245e+01   4.614913e+00
  -3.600823e+00  -1.884458e+01
  -6.757680e+00  -1.065865e+01
   4.885651e+00   3.246541e+01
   1.419380e+00   5.176767e+01
  -2.420115e+01   2.141259e+01
  -3.548607e+01  -3.548880e+01
  -5.272275e+00  -6.061569e+01
   4.130230e+01  -2.631187e+01
   6.214032e+01   2.884825e+01
   2.085584e+01   6.174628e+01
  -5.348850e+01   3.617400e+01
  -8.808278e+01  -1.188999e+01
  -5.013412e+01  -4.038490e+01
   2.425142e+01  -4.262835e+01
   5.768542e+01  -2.779593e+01
   2.734715e+01  -5.199103e+00
  -2.869295e+01   3.873757e+00
  -3.805183e+01  -8.170129e+00
   2.325825e+01  -2.755739e+01
   7.506306e+01  -1.433334e+01
