
 $NMID
 id='ANONYMOUS ', fmtdat='(2E16.6)'
 volume=1.0
 tramp=1.0
 $END
   3.356864e+03   2.120497e+02
   2.564839e+03   1.872985e+03
  -2.192286e+02   2.377972e+03
  -1.439445e+03   1.338677e+03
  -8.240334e+02  -1.961924e+02
   1.784029e+02  -2.745007e+02
   6.164927e+02   2.329038e+02
  -9.526037e+01   7.296953e+02
  -5.307710e+02   7.251448e+02
  -7.731463e+02   9.175015e+01
  -3.481829e+02  -6.651949e+02
   1.208143e+02  -6.841386e+02
   4.134776e+02  -9.410879e+01
   3.038633e+02   5.078811e+02
  -1.798086e+02   5.846507e+02
  -4.451543e+02  -2.190517e+01
  -2.561563e+02  -5.919014e+02
   1.923484e+02  -6.252699e+02
   5.332554e+02  -1.092374e+02
   3.975227e+02   2.395838e+02
   6.575321e+01   3.917103e+02
  -1.390137e+02   2.501313e+02
  -1.385597e+02   4.747869e+01
   1.639426e+02   1.913315e+01
   3.523928e+02   1.768851e+02
   1.343088e+02   4.209862e+02
  -3.581297e+02   2.318849e+02
  -7.291308e+02  -1.220136e+02
  -2.975266e+02  -4.568738e+02
   2.214537e+02  -3.039310e+02
   5.941630e+02   1.709281e+02
   2.987943e+02   4.166761e+02
  -2.241297e+02   3.959501e+02
  -5.139411e+02   1.721144e+02
  -3.509805e+02  -1.962510e+02
  -8.554803e+01  -3.529326e+02
   1.053363e+02  -1.577651e+02
   6.072323e+00   1.304872e+02
  -1.598232e+02   2.218290e+02
  -3.709060e+02  -1.406732e+02
  -2.688368e+00  -5.668957e+02
   2.470981e+02  -5.266065e+02
   4.521092e+02   1.315658e+01
   2.159109e+02   3.458151e+02
  -1.826790e+02   1.758200e+02
  -2.579093e+02  -3.163137e+02
   1.298360e+02  -4.154821e+02
   4.504953e+02  -9.836772e+01
   4.816753e+02   4.172749e+02
   1.564884e+02   5.329533e+02
  -3.233972e+02   3.003372e+02
  -5.205466e+02  -8.491767e+01
  -2.954863e+02  -3.255302e+02
   1.221017e+02  -2.985433e+02
   3.687129e+02  -4.644034e+01
   1.976138e+02   8.740845e+01
  -6.894105e+01   5.188345e+01
  -1.066846e+02  -9.436907e+01
   1.364820e+02  -1.205766e+02
   2.840687e+02   7.215200e+01
   1.464305e+02   2.081515e+02
  -1.757048e+02   2.512921e+02
  -2.938380e+02   1.193792e+02
  -2.371349e+02  -9.499869e+01
   1.790725e+01  -2.706213e+02
   2.540669e+02  -3.492937e+02
   3.035144e+02  -1.843696e+02
   2.646288e+02   1.386409e+02
   7.604558e+01   3.778769e+02
  -3.443003e+01   3.310564e+02
  -7.033351e+01   1.466622e+02
  -2.991350e+01   5.474329e+01
  -1.014806e+02   8.872292e+01
  -2.358689e+02   7.946053e+01
  -2.573828e+02  -8.473848e+01
  -8.038691e+01  -2.447096e+02
   9.372163e+01  -2.031949e+02
   1.999516e+02   2.487605e+01
   1.674002e+02   2.549390e+02
  -3.255843e+01   2.415946e+02
  -2.611454e+02   6.417050e+01
  -3.059798e+02  -1.531626e+02
  -1.533500e+02  -2.903878e+02
   6.189399e+01  -2.916390e+02
   2.045258e+02  -1.488842e+02
   1.399845e+02  -6.076436e+01
   1.156557e+02  -5.827620e+01
   2.561324e+02  -4.641022e+01
   4.129152e+02   7.540581e+01
   3.113385e+02   2.978293e+02
  -1.023083e+01   4.328462e+02
  -3.795805e+02   3.732197e+02
  -4.778235e+02   1.534564e+02
  -2.825846e+02  -1.131788e+02
  -3.497031e+01  -2.500392e+02
   9.517953e+01  -2.097984e+02
   3.606236e+01  -2.272282e+01
  -1.195870e+02   5.803120e+01
  -1.765234e+02  -2.943281e+01
  -1.284029e+01  -1.687744e+02
   1.213848e+02  -1.138939e+02
   1.189699e+02   5.276203e+01
  -3.832876e+01   1.566094e+02
  -1.688613e+02   2.638909e+00
  -1.486757e+02  -2.260964e+02
   3.727116e+01  -3.104566e+02
   2.130101e+02  -1.837580e+02
   3.340146e+02   5.030212e+01
   2.862874e+02   2.390066e+02
   6.117499e+01   2.595631e+02
  -1.128561e+02   1.299103e+02
  -1.658659e+02  -3.713181e-01
  -4.220340e+01  -2.153070e+01
   5.357366e+01   5.169974e+01
   8.274733e+00   1.086850e+02
  -1.213909e+02   7.696733e+01
  -1.544622e+02  -2.380781e+01
  -4.523229e+01  -5.443055e+01
   8.263349e+01   9.765665e+00
   4.262884e+01   8.465125e+01
  -1.368510e+02   7.761508e+01
  -2.974128e+02  -1.074562e+01
  -2.419952e+02  -1.628101e+02
  -3.959369e+01  -2.412051e+02
   1.806767e+02  -2.451827e+02
   2.827407e+02  -9.655519e+01
   1.423693e+02   5.617734e+01
  -3.479006e+01   8.501463e+01
  -7.949394e+01   3.822906e+00
   5.798253e+01  -8.595679e+01
   1.843663e+02  -1.642950e+01
   1.917927e+02   1.110266e+02
   6.612528e+01   1.949271e+02
  -9.484788e+01   1.340468e+02
  -1.312916e+02   1.683530e+01
  -4.914745e+01  -3.836039e+01
   4.062588e+01   9.706631e+00
   3.035210e+01   9.732123e+01
  -8.941377e+01   1.078372e+02
  -2.007821e+02   2.424680e+01
  -1.812681e+02  -1.131022e+02
  -2.265948e+01  -2.035534e+02
   1.446458e+02  -1.417601e+02
   1.814963e+02  -1.565053e+00
   5.403579e+01   9.605815e+01
  -6.039164e+01   9.663602e+01
  -7.262729e+01   3.246894e+01
  -6.789958e+00  -2.402434e+01
   2.983296e+01  -1.483881e+01
  -4.521344e+00   1.777372e+01
  -8.584653e+01   2.278475e+00
  -1.005969e+02  -7.944719e+01
  -1.207427e+01  -1.728365e+02
   1.365036e+02  -1.436663e+02
   2.238752e+02  -2.064088e+01
   1.804328e+02   1.543655e+02
   5.048627e+01   2.325396e+02
  -9.644708e+01   1.507341e+02
  -1.220547e+02   2.039029e+01
  -7.505711e+01  -4.190643e+01
  -3.272063e+01  -3.145442e+01
  -5.538903e+01   1.501749e+01
  -7.845137e+01   6.611593e+00
  -5.174645e+01  -5.006356e+01
   4.404562e+01  -9.176158e+01
   1.170374e+02  -6.206616e+01
   9.730525e+01   3.979476e+01
  -1.382204e+01   1.189773e+02
  -1.582409e+02   8.345392e+01
  -1.980788e+02  -7.020997e+01
  -7.995679e+01  -1.992820e+02
   1.236188e+02  -2.217516e+02
   2.732307e+02  -7.249490e+01
   2.416265e+02   9.583159e+01
   1.130098e+02   1.649425e+02
  -3.993914e+01   1.332661e+02
  -9.001735e+01   7.459531e+01
  -7.669591e+01   6.151269e+01
  -5.316446e+01   9.255377e+01
  -9.308700e+01   7.413799e+01
  -1.156277e+02  -2.158943e+01
  -1.164004e+02  -1.523582e+02
  -2.301903e+01  -2.044148e+02
   1.022415e+02  -1.548380e+02
   1.662451e+02  -2.127207e+01
   1.206342e+02   1.094593e+02
   1.494813e+01   1.581415e+02
  -7.077165e+01   8.295380e+01
  -5.924389e+01  -9.506495e+00
  -8.258000e-01  -4.755758e+01
   1.994426e+01  -3.537093e+01
  -2.991637e+01  -1.364442e+01
  -8.030874e+01  -1.653796e+01
  -4.180662e+01  -4.011817e+01
   6.697487e+01  -3.809524e+01
   1.673139e+02   6.890804e+00
   1.441348e+02   5.666626e+01
   4.895787e+00   9.933620e+01
  -1.216107e+02   6.239819e+01
  -1.399340e+02   7.715587e+00
  -4.471051e+01  -4.492056e+01
   5.462244e+01  -3.850646e+01
   7.123702e+01   1.918593e+01
   1.212934e+01   6.715422e+01
  -4.635131e+01   5.728879e+01
  -6.676052e+01   1.086922e+00
  -5.574240e+01  -4.907108e+01
  -4.449496e+01  -4.101210e+01
  -5.273343e+01  -3.157737e+00
  -6.137844e+01  -1.561254e+00
  -4.096620e+01  -7.043796e+01
   2.463768e+01  -1.506193e+02
   1.235107e+02  -1.338643e+02
   1.637029e+02  -3.362853e+01
   1.162901e+02   8.338216e+01
   2.558048e-01   1.331415e+02
  -8.312007e+01   6.447862e+01
  -6.050562e+01  -1.198262e+01
   5.714844e+01  -2.175126e+01
   1.300745e+02   3.652412e+01
   6.673012e+01   1.079903e+02
  -8.281770e+01   1.033322e+02
  -1.757182e+02   4.064755e+01
  -1.473683e+02  -2.508973e+01
  -2.698679e+01  -8.441588e+01
   6.291121e+01  -6.324340e+01
   4.445003e+01   2.445855e-01
  -3.840062e+01   2.830260e+01
  -8.794501e+01  -1.745049e+01
  -3.591462e+01  -1.092269e+02
   7.365338e+01  -1.449697e+02
   1.557399e+02  -6.281942e+01
   1.165861e+02   9.213413e+01
   1.490531e+01   1.684605e+02
  -8.558902e+01   1.386821e+02
  -9.617722e+01  -9.382923e+00
  -5.457116e+01  -1.153879e+02
   1.264810e+01  -1.039610e+02
   4.643863e+01  -1.376247e+01
   4.342717e+01   3.082274e+01
   1.971467e+01   4.728999e+00
   5.722651e+00  -1.802523e+01
   2.390080e+01   1.632527e+01
   5.543490e+01   8.524137e+01
   4.183693e+01   9.880032e+01
  -4.987624e+01   4.121428e+01
  -1.320605e+02  -4.023071e+01
  -1.171486e+02  -6.978723e+01
  -1.932626e+01  -4.897896e+01
   7.637154e+01  -2.125140e+01
   8.412930e+01  -6.072995e+00
   1.513405e+01   1.142729e+01
  -3.412002e+01   2.260003e+01
  -1.612188e+01   1.473384e+01
   1.638108e+01  -5.988470e+00
  -3.615571e+00  -6.089426e+00
  -6.538367e+01  -2.995928e+00
  -8.613471e+01  -1.610783e+01
  -1.835865e+01  -7.927064e+01
   1.101858e+02  -1.090110e+02
   1.784847e+02  -6.054511e+01
   1.461181e+02   5.952541e+01
   3.767220e+01   1.530470e+02
  -6.975949e+01   1.567185e+02
  -1.119724e+02   5.672872e+01
  -7.946816e+01  -1.786282e+01
  -2.405939e+01  -3.500954e+01
   8.166702e-01  -9.683156e+00
  -1.082984e+01  -6.726110e+00
  -2.830150e+01  -4.503097e+01
  -1.769818e+01  -9.032791e+01
   2.507619e+01  -6.916591e+01
   7.221232e+01   1.776388e+01
   7.418762e+01   1.013623e+02
   1.041994e+01   1.107633e+02
  -7.660197e+01   3.038499e+01
  -9.720692e+01  -6.759275e+01
  -3.348845e+01  -1.005571e+02
   6.270405e+01  -5.612192e+01
   9.476557e+01   1.160540e+01
   4.445528e+01   5.468850e+01
  -3.213722e+01   5.843407e+01
  -3.671695e+01   2.867746e+01
   2.644827e+01  -2.106105e+00
   6.469781e+01  -1.372736e+01
   1.670687e+01   2.530374e+01
  -7.101134e+01   6.816674e+01
  -1.098551e+02   5.535566e+01
  -7.126741e+01  -1.437473e+01
   1.836908e+01  -8.338348e+01
   5.329194e+01  -8.145244e+01
   4.193849e+01  -1.000738e+01
   3.223691e+00   5.093876e+01
  -2.207096e+01   4.484559e+01
  -3.375857e+01  -1.307912e+01
  -3.058947e+01  -5.619288e+01
   9.675197e-01  -3.709242e+01
   3.136747e+01   5.856323e+00
   3.831186e+01   2.373114e+01
   1.908920e+01   2.384195e+00
  -2.119676e+00  -1.584415e+01
  -7.483622e+00  -5.577659e+00
   1.354865e+00   3.339593e+01
  -5.142152e+00   5.332254e+01
  -2.690617e+01   1.782822e+01
  -3.407785e+01  -3.806101e+01
  -8.928871e+00  -5.434200e+01
   3.897719e+01  -2.294839e+01
   5.586822e+01   3.304132e+01
   1.684075e+01   5.867719e+01
  -5.799915e+01   3.617948e+01
  -8.997095e+01  -7.212001e+00
  -4.999594e+01  -3.891505e+01
   2.697903e+01  -4.424186e+01
   6.183718e+01  -2.945142e+01
   2.548068e+01  -6.530393e+00
  -3.032934e+01   1.666835e+00
  -3.306320e+01  -1.147049e+01
   2.456957e+01  -2.350485e+01
   7.792316e+01  -2.107708e+01
