
 $NMID
 id='ANONYMOUS ', fmtdat='(2E16.6)'
 volume=1.0
 tramp=1.0
 $END
  -4.269564e+03   4.338761e+01
  -2.765374e+03  -2.567486e+03
   6.656747e+02  -2.872610e+03
   2.276682e+03  -1.091139e+03
   1.117988e+03   7.131423e+02
  -7.395770e+02   5.560732e+02
  -8.336663e+02  -4.302801e+02
  -2.569620e+01  -1.034691e+03
   8.493603e+02  -8.326242e+02
   9.115638e+02   6.373189e+01
   4.966106e+02   9.304888e+02
  -2.390083e+02   9.849983e+02
  -6.520483e+02   1.346738e+02
  -3.526703e+02  -7.159286e+02
   2.298126e+02  -8.543750e+02
   6.266698e+02  -3.089068e+01
   3.008332e+02   6.764627e+02
  -3.224152e+02   6.458745e+02
  -6.851680e+02   3.064907e+01
  -3.972251e+02  -3.821430e+02
  -1.527870e+01  -4.747107e+02
   2.176179e+02  -2.790581e+02
   2.201888e+02  -1.901071e+01
  -8.197518e+01   1.105259e+02
  -3.902386e+02  -1.417823e+02
  -2.339827e+02  -4.287359e+02
   3.880268e+02  -3.960723e+02
   8.850022e+02   1.343489e+02
   4.634715e+02   5.396221e+02
  -3.668776e+02   5.039146e+02
  -7.593237e+02   1.089602e+00
  -3.667273e+02  -5.073007e+02
   2.511463e+02  -4.919735e+02
   5.592025e+02  -2.315758e+02
   4.391554e+02   2.216685e+02
   1.021580e+02   4.527520e+02
  -1.820333e+02   3.631693e+02
  -1.950511e+02  -2.167385e+02
   2.833011e+01  -4.163583e+02
   4.962501e+02  -4.582532e+01
   2.837089e+02   7.009117e+02
  -2.351734e+02   6.902409e+02
  -6.843127e+02  -3.971106e+00
  -2.734884e+02  -6.500194e+02
   2.720616e+02  -3.681282e+02
   3.664380e+02   3.143624e+02
  -4.932220e+01   5.599177e+02
  -5.168870e+02   1.519248e+02
  -6.468394e+02  -4.136858e+02
  -1.745417e+02  -5.498489e+02
   3.719796e+02  -3.917077e+02
   6.258917e+02   6.406321e+01
   4.312985e+02   4.407994e+02
  -1.177919e+02   3.713098e+02
  -4.640997e+02   5.897625e+01
  -2.671476e+02  -1.969242e+02
   9.973945e+01  -1.184854e+02
   1.474937e+02   1.354679e+02
  -1.384296e+02   2.271767e+02
  -3.815891e+02  -8.719602e+01
  -1.462614e+02  -2.896287e+02
   1.998551e+02  -2.742775e+02
   3.317188e+02  -8.196679e+01
   1.951551e+02   8.272974e+01
  -1.100051e+01   2.060134e+02
  -2.236386e+02   3.329121e+02
  -3.212061e+02   2.165285e+02
  -2.885814e+02  -1.292230e+02
  -9.961251e+01  -4.481286e+02
   1.070271e+02  -4.012752e+02
   1.120835e+02  -1.160122e+02
   4.732867e+01   1.360721e+01
   4.290586e+01  -7.862705e+01
   1.806056e+02  -1.277548e+02
   2.975738e+02   7.108640e+01
   1.806445e+02   2.856526e+02
  -6.688887e+01   2.669136e+02
  -2.244168e+02   1.962089e+01
  -2.049836e+02  -2.319266e+02
   3.339911e-01  -2.809613e+02
   2.623630e+02  -1.333431e+02
   3.678747e+02   1.486560e+02
   2.055581e+02   3.595720e+02
  -8.845422e+01   3.359639e+02
  -2.080749e+02   1.473345e+02
  -1.516540e+02   1.190456e+01
  -9.323877e+01   2.716347e+01
  -2.393719e+02   7.843658e+01
  -4.170102e+02  -6.783162e+01
  -3.527366e+02  -2.536249e+02
  -2.888933e+01  -4.293126e+02
   3.506650e+02  -4.030593e+02
   5.293217e+02  -2.282168e+02
   3.705231e+02   8.572898e+01
   5.876690e+01   2.907458e+02
  -1.036673e+02   2.639919e+02
  -8.218667e+01   3.702652e+01
   1.223899e+02  -1.067013e+02
   1.777498e+02  -2.167821e+00
   6.839301e+01   1.983730e+02
  -1.660400e+02   1.576850e+02
  -1.855296e+02  -4.075859e+01
   1.256199e+00  -2.275963e+02
   1.926723e+02  -4.172206e+01
   1.810061e+02   2.508137e+02
  -2.090182e+01   3.725160e+02
  -2.203253e+02   2.069841e+02
  -3.366079e+02  -8.391460e+01
  -2.774063e+02  -2.270128e+02
  -9.849776e+01  -2.781383e+02
   9.482693e+01  -1.562726e+02
   1.959256e+02  -2.838798e+01
   6.703562e+01   2.604580e+01
  -6.466889e+01  -3.561904e+01
  -3.642799e+01  -1.185251e+02
   1.310745e+02  -1.023230e+02
   2.014222e+02   3.629359e+00
   5.917142e+01   7.088819e+01
  -8.105754e+01   1.587416e+01
  -5.419897e+01  -6.702971e+01
   1.191765e+02  -8.449779e+01
   2.775809e+02  -3.001178e+00
   2.820027e+02   1.240226e+02
   7.256298e+01   2.459933e+02
  -1.694252e+02   2.664842e+02
  -2.745959e+02   1.295268e+02
  -1.623084e+02  -3.850150e+01
   1.790157e+01  -1.106878e+02
   9.336520e+01  -1.684726e+01
  -3.072043e+01   1.082442e+02
  -2.106042e+02   7.763016e+01
  -2.064605e+02  -8.741683e+01
  -8.913253e+01  -2.270371e+02
   8.922555e+01  -1.670292e+02
   1.471502e+02  -3.012430e+01
   7.536294e+01   4.639364e+01
  -2.911495e+01   9.790830e+00
  -3.593453e+01  -8.580428e+01
   5.976305e+01  -1.118059e+02
   1.944737e+02  -3.303658e+01
   1.829213e+02   1.142689e+02
   3.454250e+01   2.203116e+02
  -1.511463e+02   1.747908e+02
  -2.104771e+02  -2.108153e+00
  -7.094730e+01  -1.133614e+02
   6.037119e+01  -1.145543e+02
   7.978663e+01  -3.282922e+01
   1.696616e+01   2.059742e+01
  -1.728565e+01   1.649329e+01
   1.381388e+01  -8.624119e+00
   6.817365e+01   1.798755e+00
   8.868185e+01   8.078961e+01
   1.781079e+01   1.571243e+02
  -1.241710e+02   1.525079e+02
  -2.324376e+02   4.339979e+01
  -2.081692e+02  -1.409134e+02
  -6.147159e+01  -2.323149e+02
   1.045543e+02  -1.713807e+02
   1.382543e+02  -2.869128e+01
   7.439943e+01   5.111469e+01
   3.085450e+01   3.541994e+01
   5.392358e+01  -1.132954e+01
   8.009438e+01  -8.893702e+00
   4.159145e+01   5.232629e+01
  -4.230797e+01   8.671067e+01
  -1.019082e+02   5.508618e+01
  -8.329837e+01  -3.118567e+01
   2.306068e+01  -1.104970e+02
   1.279894e+02  -8.490463e+01
   2.059833e+02   4.832582e+01
   9.870421e+01   1.973555e+02
  -9.988951e+01   2.227038e+02
  -2.689112e+02   1.039126e+02
  -2.784546e+02  -1.016802e+02
  -1.222919e+02  -1.719749e+02
   4.368444e+01  -1.527986e+02
   9.530371e+01  -9.098561e+01
   8.029644e+01  -7.890306e+01
   6.819242e+01  -9.473213e+01
   9.178504e+01  -7.287203e+01
   1.256937e+02   1.996652e+01
   1.259399e+02   1.413306e+02
   3.567627e+01   2.168819e+02
  -8.921911e+01   1.837913e+02
  -1.788247e+02   2.017499e+01
  -1.331360e+02  -1.234632e+02
  -2.542653e+01  -1.541288e+02
   6.483306e+01  -9.450641e+01
   5.483476e+01  -4.849481e+00
   7.883909e+00   4.248089e+01
  -1.189844e+00   3.744412e+01
   3.896486e+01   1.890921e+01
   7.778070e+01   2.006145e+01
   4.261809e+01   4.030572e+01
  -5.862081e+01   3.619839e+01
  -1.565434e+02   2.844111e+00
  -1.387223e+02  -3.524178e+01
  -2.017952e+01  -8.227712e+01
   1.158999e+02  -6.757590e+01
   1.441572e+02  -1.255995e+01
   4.759699e+01   4.066629e+01
  -5.956956e+01   4.198138e+01
  -7.621035e+01  -1.408426e+01
  -7.705190e+00  -7.341525e+01
   5.735659e+01  -6.025520e+01
   6.021411e+01  -5.118224e-01
   4.136513e+01   4.969592e+01
   4.267067e+01   4.382231e+01
   5.948246e+01  -3.208032e+00
   6.481210e+01   1.600759e+00
   3.316696e+01   6.903041e+01
  -2.971741e+01   1.504207e+02
  -1.131044e+02   1.357489e+02
  -1.564922e+02   3.572997e+01
  -1.208127e+02  -8.846501e+01
  -9.144536e+00  -1.273367e+02
   8.308239e+01  -5.985227e+01
   6.234744e+01   1.432946e+01
  -6.056319e+01   2.319736e+01
  -1.352544e+02  -3.333881e+01
  -8.326677e+01  -1.071810e+02
   7.362504e+01  -1.095659e+02
   1.946257e+02  -5.619367e+01
   1.494924e+02   2.778250e+01
   3.412205e+01   8.947941e+01
  -5.218355e+01   6.758021e+01
  -4.436049e+01   8.249558e+00
   3.932937e+01  -3.060009e+01
   8.923873e+01   2.246126e+01
   4.101669e+01   1.174668e+02
  -8.706581e+01   1.549221e+02
  -1.715532e+02   7.345034e+01
  -1.300320e+02  -8.598292e+01
  -1.263752e+01  -1.907893e+02
   8.482870e+01  -1.546380e+02
   9.842698e+01   2.762590e+00
   6.137884e+01   1.087353e+02
   3.621965e+00   1.075902e+02
  -4.466119e+01   2.282778e+01
  -5.190898e+01  -3.164748e+01
  -2.582310e+01  -9.810624e+00
  -4.653517e+00   1.993861e+01
  -1.878739e+01  -1.842559e+01
  -5.834273e+01  -8.148235e+01
  -4.527306e+01  -1.033576e+02
   4.747858e+01  -4.462293e+01
   1.344194e+02   3.190552e+01
   1.332418e+02   6.326313e+01
   2.004992e+01   4.867718e+01
  -8.844000e+01   2.387703e+01
  -9.277703e+01   1.504623e+01
  -8.122784e+00  -6.200832e+00
   3.841393e+01  -2.547463e+01
   1.135080e+01  -1.849436e+01
  -2.244573e+01   1.097786e+00
   6.893068e+00   9.555888e+00
   7.331141e+01   2.063429e+00
   9.202844e+01   2.059656e+01
   1.458871e+01   7.944389e+01
  -1.175631e+02   1.154245e+02
  -1.924209e+02   5.514233e+01
  -1.338108e+02  -6.202508e+01
  -2.932814e+01  -1.604484e+02
   7.005269e+01  -1.506589e+02
   1.145300e+02  -5.941829e+01
   7.869108e+01   2.092609e+01
   2.406277e+01   3.636313e+01
  -4.639820e+00   1.005586e+01
   9.104619e+00   3.415590e+00
   3.086612e+01   4.587973e+01
   2.354253e+01   8.945037e+01
  -2.501806e+01   7.322519e+01
  -7.860565e+01  -1.528363e+01
  -7.955877e+01  -1.122309e+02
  -1.471981e+00  -1.131127e+02
   8.422357e+01  -2.764327e+01
   1.015509e+02   7.623734e+01
   4.029624e+01   1.019915e+02
  -6.334728e+01   5.567806e+01
  -1.009582e+02  -1.589355e+01
  -3.826592e+01  -4.910226e+01
   3.289371e+01  -5.222266e+01
   2.886995e+01  -2.874716e+01
  -3.356692e+01   4.619034e+00
  -6.650614e+01   8.275714e+00
  -1.467856e+01  -2.549410e+01
   8.092889e+01  -6.468292e+01
   1.098175e+02  -5.993367e+01
   6.781027e+01   8.877630e+00
  -1.543281e+01   8.458041e+01
  -4.936715e+01   8.225813e+01
  -3.647845e+01   2.640234e+00
  -3.910769e+00  -5.620887e+01
   2.456823e+01  -4.550549e+01
   3.854389e+01   1.935195e+01
   3.010484e+01   5.035584e+01
  -3.835815e+00   3.251670e+01
  -3.363906e+01  -9.243502e+00
  -3.777480e+01  -2.086319e+01
  -1.997037e+01  -1.995542e-01
  -8.995951e-01   1.275745e+01
   8.098699e+00  -4.653028e+00
   5.668993e+00  -3.420253e+01
   1.519210e+01  -4.909867e+01
   3.345699e+01  -1.434593e+00
   3.223167e+01   4.797673e+01
   3.208083e+00   6.432509e+01
  -4.332608e+01   1.919150e+01
  -5.389410e+01  -4.140126e+01
  -1.087167e+01  -6.161159e+01
   5.187190e+01  -3.410517e+01
   9.222340e+01   1.671881e+01
   4.604244e+01   4.400862e+01
  -2.789141e+01   4.118872e+01
  -6.623835e+01   2.295691e+01
  -2.489580e+01   4.855900e+00
   3.786900e+01   1.101296e+00
   3.786145e+01   1.600191e+01
  -2.635311e+01   2.984123e+01
  -9.265478e+01   2.461121e+01
