
 $NMID
 id='ANONYMOUS ', fmtdat='(2E16.6)'
 volume=1.0
 tramp=1.0
 $END
   4.753538e+03   7.005573e+01
   2.085677e+03   2.717505e+03
  -8.220484e+02   2.631545e+03
  -2.225201e+03   9.018084e+02
  -8.151622e+02  -4.273088e+02
   6.051781e+02  -5.291323e+02
   9.075279e+02   5.693733e+02
   1.190996e+01   1.143163e+03
  -9.655035e+02   6.975979e+02
  -9.177780e+02  -1.096715e+02
  -3.847462e+02  -8.493542e+02
   2.779735e+02  -8.935795e+02
   6.833434e+02  -1.570939e+02
   3.761959e+02   7.383403e+02
  -2.723318e+02   7.163825e+02
  -5.929377e+02   1.202341e+01
  -2.937979e+02  -7.370835e+02
   3.471090e+02  -5.955921e+02
   5.746160e+02  -1.388050e+02
   3.658717e+02   3.619563e+02
  -3.266226e+00   4.436582e+02
  -2.533035e+02   2.585710e+02
  -1.995923e+02  -1.175976e+01
   1.332262e+02  -8.740767e+01
   4.481143e+02   1.366986e+02
   1.733099e+02   4.871094e+02
  -5.293195e+02   3.826486e+02
  -7.992150e+02  -1.136317e+02
  -4.664201e+02  -5.613195e+02
   4.738355e+02  -5.533096e+02
   6.793259e+02   2.831378e+01
   3.242652e+02   5.047092e+02
  -3.393132e+02   5.357809e+02
  -5.718356e+02   1.926002e+02
  -4.205347e+02  -2.180541e+02
  -3.756502e+01  -5.367354e+02
   2.122192e+02  -3.026918e+02
   1.872681e+02   2.285285e+02
  -1.700337e+02   4.622017e+02
  -4.713075e+02  -3.674110e+01
  -2.497185e+02  -7.171923e+02
   3.616854e+02  -7.283237e+02
   5.883637e+02  -5.570564e+00
   2.084143e+02   6.152587e+02
  -3.279581e+02   3.306390e+02
  -3.795613e+02  -3.459134e+02
   1.195490e+02  -5.731890e+02
   5.824997e+02  -1.091006e+02
   6.102753e+02   4.052760e+02
   1.587787e+02   5.628410e+02
  -3.975338e+02   3.384096e+02
  -6.853713e+02  -1.228199e+02
  -3.503740e+02  -3.534035e+02
   1.818598e+02  -3.955818e+02
   4.796375e+02  -2.092539e+01
   2.127259e+02   2.062154e+02
  -1.396513e+02   1.138235e+02
  -1.157867e+02  -1.784424e+02
   2.024118e+02  -1.874401e+02
   3.517392e+02   1.063164e+02
   1.195156e+02   3.365162e+02
  -1.952769e+02   2.753127e+02
  -3.413184e+02   4.645890e+01
  -1.725368e+02  -9.341192e+01
   3.558451e+01  -2.318100e+02
   2.491576e+02  -3.397476e+02
   3.851800e+02  -2.249661e+02
   2.909168e+02   1.656068e+02
   7.921794e+01   4.393745e+02
  -1.495062e+02   3.835291e+02
  -1.312717e+02   1.200006e+02
  -3.163492e+01  -2.367850e+01
  -1.866424e+01   8.965443e+01
  -1.964156e+02   1.350633e+02
  -3.022989e+02  -4.324441e+01
  -1.575467e+02  -2.507262e+02
   7.840443e+01  -2.680735e+02
   2.209866e+02  -1.242839e+00
   2.006182e+02   2.511598e+02
  -2.402933e+01   3.098087e+02
  -2.608425e+02   1.002248e+02
  -3.776743e+02  -1.786104e+02
  -1.853313e+02  -3.544848e+02
   1.132808e+02  -2.957043e+02
   2.399904e+02  -1.106430e+02
   1.363841e+02   1.509328e+00
   1.087771e+02  -3.586214e+01
   2.198337e+02  -6.361674e+01
   4.280595e+02   8.576157e+01
   3.363001e+02   2.870770e+02
  -2.139439e+01   4.384831e+02
  -3.542943e+02   4.320216e+02
  -4.882358e+02   2.072875e+02
  -3.223072e+02  -9.275461e+01
  -5.628057e+01  -3.086669e+02
   1.647964e+02  -2.659976e+02
   8.579145e+01  -3.885484e+01
  -1.055885e+02   1.068808e+02
  -2.053879e+02   4.548834e-01
  -4.736167e+01  -2.001102e+02
   1.663842e+02  -1.812713e+02
   1.929996e+02   6.061283e+01
  -2.454601e+01   1.774792e+02
  -1.960961e+02   2.448346e+01
  -1.711268e+02  -2.563081e+02
   3.764968e+01  -3.457864e+02
   2.217784e+02  -1.848308e+02
   3.174150e+02   7.505374e+01
   2.882878e+02   2.562903e+02
   9.654625e+01   2.579538e+02
  -1.120870e+02   1.625600e+02
  -1.753451e+02   2.554178e+01
  -6.603875e+01  -4.327392e+01
   7.115420e+01   2.807697e+01
   2.991889e+01   1.297799e+02
  -1.277075e+02   9.802086e+01
  -1.754733e+02  -1.433864e+01
  -5.893124e+01  -8.243131e+01
   7.980472e+01  -1.897716e+01
   4.915564e+01   6.916173e+01
  -1.210466e+02   8.780250e+01
  -2.885187e+02  -1.920557e+01
  -2.615408e+02  -1.358683e+02
  -6.783472e+01  -2.396959e+02
   1.971811e+02  -2.636691e+02
   2.917749e+02  -1.297506e+02
   1.677376e+02   5.771664e+01
  -3.213530e+01   1.201738e+02
  -8.455969e+01  -1.112231e-01
   2.730292e+01  -1.078609e+02
   1.947606e+02  -5.377470e+01
   2.166493e+02   1.062942e+02
   5.298599e+01   2.145219e+02
  -9.685320e+01   1.405670e+02
  -1.352745e+02   2.438743e+01
  -7.238345e+01  -4.708058e+01
   3.250007e+01   7.541036e-01
   3.673616e+01   8.474593e+01
  -7.037061e+01   1.108030e+02
  -1.982450e+02   3.281002e+01
  -2.015405e+02  -1.266139e+02
  -2.447635e+01  -2.205809e+02
   1.743337e+02  -1.628835e+02
   1.967298e+02  -1.749394e+00
   6.201762e+01   1.224558e+02
  -7.561458e+01   1.182844e+02
  -8.643640e+01   2.285374e+01
  -1.975612e+01  -2.244051e+01
   2.567143e+01  -2.220372e+01
  -8.996471e+00   6.299939e+00
  -6.772354e+01  -6.006206e+00
  -8.933634e+01  -8.093031e+01
  -1.341503e+01  -1.560263e+02
   1.335890e+02  -1.502137e+02
   2.480496e+02  -1.043537e+01
   1.871798e+02   1.493925e+02
   2.862307e+01   2.451107e+02
  -1.204711e+02   1.771212e+02
  -1.355699e+02   2.586859e+01
  -6.772412e+01  -6.675130e+01
  -2.665172e+01  -3.938505e+01
  -5.057516e+01   1.282619e+01
  -8.198727e+01   4.234435e+00
  -3.973176e+01  -4.813396e+01
   4.104415e+01  -8.938804e+01
   1.040855e+02  -4.705787e+01
   7.688875e+01   3.558347e+01
  -8.980469e+00   1.092748e+02
  -1.376045e+02   7.620742e+01
  -1.851569e+02  -5.122851e+01
  -1.066345e+02  -1.980988e+02
   1.118650e+02  -2.279799e+02
   2.751232e+02  -8.770223e+01
   2.728957e+02   9.968834e+01
   1.038139e+02   1.810142e+02
  -3.968141e+01   1.411938e+02
  -9.262508e+01   8.127946e+01
  -7.414120e+01   6.815809e+01
  -7.129767e+01   8.540282e+01
  -8.942649e+01   6.903351e+01
  -1.339251e+02  -1.582910e+01
  -1.160823e+02  -1.521127e+02
  -3.876351e+01  -2.324479e+02
   1.017233e+02  -1.715063e+02
   1.863670e+02  -1.306833e+01
   1.402749e+02   1.245026e+02
   1.592333e+01   1.602536e+02
  -6.906999e+01   8.624937e+01
  -6.091073e+01  -1.211638e+00
  -8.357305e+00  -4.032601e+01
   1.310154e+01  -3.867706e+01
  -3.736300e+01  -2.075007e+01
  -7.817919e+01  -2.721913e+01
  -4.696425e+01  -3.568955e+01
   5.774825e+01  -3.693666e+01
   1.549142e+02  -6.034600e-01
   1.461802e+02   5.736280e+01
   1.158380e+01   8.692988e+01
  -1.180022e+02   7.549095e+01
  -1.449069e+02   9.656500e+00
  -5.013085e+01  -3.870504e+01
   6.021533e+01  -3.518825e+01
   7.610010e+01   1.473513e+01
   9.196769e+00   6.369865e+01
  -5.467087e+01   5.646495e+01
  -6.441979e+01  -1.573609e+00
  -4.090834e+01  -5.248057e+01
  -4.113726e+01  -4.171035e+01
  -6.442997e+01  -2.912037e+00
  -7.128510e+01  -2.716474e-01
  -3.645678e+01  -6.641350e+01
   3.919518e+01  -1.391970e+02
   1.164628e+02  -1.451144e+02
   1.608224e+02  -2.881483e+01
   1.270154e+02   9.931510e+01
  -7.074204e+00   1.199382e+02
  -8.863628e+01   6.479178e+01
  -5.823607e+01  -1.728067e+01
   6.085585e+01  -1.625626e+01
   1.356200e+02   4.833970e+01
   6.620003e+01   1.138796e+02
  -8.089003e+01   1.066574e+02
  -1.873345e+02   5.334106e+01
  -1.618763e+02  -3.716307e+01
  -4.076091e+01  -8.698114e+01
   6.471333e+01  -6.919449e+01
   4.849708e+01  -8.728159e+00
  -3.838256e+01   2.592649e+01
  -9.076911e+01  -2.770740e+01
  -3.487152e+01  -1.240345e+02
   1.045739e+02  -1.502554e+02
   1.664001e+02  -5.763825e+01
   1.254907e+02   1.076180e+02
   4.214009e+00   2.006893e+02
  -9.903189e+01   1.439022e+02
  -1.079296e+02  -7.803626e+00
  -5.478930e+01  -1.176647e+02
   5.618765e+00  -1.100404e+02
   4.319446e+01  -2.169728e+01
   5.045670e+01   3.540408e+01
   2.515311e+01   8.994715e+00
   4.329600e+00  -1.988046e+01
   2.022599e+01   1.618231e+01
   4.941805e+01   8.738021e+01
   3.575917e+01   1.140544e+02
  -4.519301e+01   4.484106e+01
  -1.342685e+02  -4.185543e+01
  -1.280663e+02  -7.852064e+01
  -1.608359e+01  -5.004218e+01
   8.894265e+01  -1.736077e+01
   8.773603e+01  -1.010891e+00
   1.119865e+01   5.742356e+00
  -4.186144e+01   2.181994e+01
  -1.328610e+01   1.980149e+01
   2.311144e+01  -8.836057e-01
  -5.330333e+00  -9.212632e+00
  -6.955424e+01  -4.051056e+00
  -8.771769e+01  -2.972105e+01
  -1.666404e+00  -8.174987e+01
   1.160117e+02  -1.080567e+02
   1.875041e+02  -4.906633e+01
   1.424456e+02   7.491506e+01
   2.642992e+01   1.615713e+02
  -7.917919e+01   1.504872e+02
  -1.134833e+02   5.524934e+01
  -7.939641e+01  -2.333678e+01
  -2.200707e+01  -3.756847e+01
   1.339743e+00  -8.938709e+00
  -1.001609e+01  -3.643055e+00
  -2.925859e+01  -4.696413e+01
  -2.286082e+01  -9.087307e+01
   3.233036e+01  -7.084313e+01
   8.056423e+01   1.656003e+01
   7.587783e+01   1.081576e+02
   2.346608e+00   1.149901e+02
  -8.798890e+01   1.929374e+01
  -9.874507e+01  -7.725436e+01
  -3.216506e+01  -1.030677e+02
   6.615312e+01  -5.569805e+01
   9.223309e+01   1.381912e+01
   3.629140e+01   5.187283e+01
  -3.206532e+01   5.286192e+01
  -3.476785e+01   2.896438e+01
   3.658126e+01   9.501095e-01
   7.084011e+01  -4.381210e+00
   1.450041e+01   2.392526e+01
  -8.902557e+01   6.197108e+01
  -1.151160e+02   5.895763e+01
  -6.170524e+01  -1.707279e+01
   1.696647e+01  -7.932987e+01
   4.873837e+01  -7.494569e+01
   3.489078e+01  -5.907759e-01
   3.319113e-01   5.709934e+01
  -2.615545e+01   3.902991e+01
  -3.360959e+01  -1.789217e+01
  -2.761418e+01  -5.836896e+01
   3.252623e+00  -3.189289e+01
   3.205451e+01   1.062466e+01
   4.028566e+01   2.252457e+01
   2.215214e+01   1.109602e+00
  -5.236006e-01  -1.531631e+01
  -7.594299e+00   2.061025e+00
  -8.621910e+00   3.596243e+01
  -1.431288e+01   4.406586e+01
  -3.472730e+01   4.917486e+00
  -2.841880e+01  -4.393784e+01
   4.089050e-01  -6.564525e+01
   4.633869e+01  -1.725649e+01
   5.607911e+01   4.144814e+01
   1.178529e+01   6.325567e+01
  -5.999876e+01   2.846749e+01
  -8.311969e+01  -1.746608e+01
  -4.689474e+01  -4.546857e+01
   2.960959e+01  -3.982834e+01
   6.481578e+01  -1.824627e+01
   2.382198e+01  -4.916627e+00
  -3.811930e+01  -1.917049e+00
  -3.667320e+01  -1.662274e+01
   3.166921e+01  -3.276094e+01
   8.600676e+01  -1.095594e+01
