
 $NMID
 id='ANONYMOUS ', fmtdat='(2E16.6)'
 volume=1.0
 tramp=1.0
 $END
   3.751616e+03   6.751686e+01
   2.485239e+03   2.451664e+03
  -5.246707e+02   2.305145e+03
  -1.646390e+03   8.668286e+02
  -9.783301e+02  -1.268764e+02
   2.470466e+02  -2.674190e+02
   5.914213e+02   3.615678e+02
   1.928080e+02   7.558806e+02
  -6.141624e+02   6.541205e+02
  -8.028290e+02  -2.636313e+01
  -5.091277e+02  -7.130079e+02
   4.291379e+01  -8.066690e+02
   4.648999e+02  -1.400022e+02
   3.593912e+02   5.182806e+02
  -1.645518e+02   6.165479e+02
  -5.052680e+02   7.291892e+01
  -3.057362e+02  -5.870885e+02
   1.738569e+02  -6.768905e+02
   5.455228e+02  -1.799119e+02
   4.087100e+02   2.836240e+02
   9.579300e+01   3.992032e+02
  -1.878874e+02   2.176484e+02
  -1.449699e+02   5.952114e+01
   1.537912e+02   6.324130e+01
   3.233175e+02   1.926416e+02
   7.206210e+01   4.166668e+02
  -5.584072e+02   2.389916e+02
  -7.601413e+02  -1.180209e+02
  -2.753633e+02  -4.819792e+02
   3.717157e+02  -3.003954e+02
   6.341239e+02   7.518967e+01
   1.922074e+02   4.322843e+02
  -3.198320e+02   4.033121e+02
  -4.785977e+02   1.539194e+02
  -3.757692e+02  -2.149148e+02
  -7.152312e+01  -3.811463e+02
   9.994049e+01  -2.232851e+02
  -2.958211e+00   1.068767e+02
  -1.773087e+02   3.011316e+02
  -2.279728e+02  -5.393433e+01
  -6.901172e+01  -5.772858e+02
   3.686109e+02  -5.344714e+02
   4.564127e+02  -2.690462e+01
   1.719204e+02   4.499336e+02
  -2.430777e+02   2.269070e+02
  -2.786554e+02  -2.672440e+02
   3.664413e+01  -4.625332e+02
   4.862771e+02  -7.881997e+01
   4.968474e+02   4.195545e+02
   1.274152e+02   5.496314e+02
  -3.361474e+02   3.029070e+02
  -5.650242e+02  -8.180573e+01
  -3.776473e+02  -3.240904e+02
   9.830116e+01  -2.798888e+02
   3.587731e+02  -7.503634e+01
   2.561867e+02   1.045214e+02
  -5.106092e+01   6.650375e+01
  -9.938965e+01  -1.098323e+02
   1.381911e+02  -1.046916e+02
   2.859455e+02   7.947469e+01
   1.365829e+02   2.312493e+02
  -1.825255e+02   2.535754e+02
  -3.447673e+02   8.614830e+01
  -2.277406e+02  -1.023285e+02
   2.679286e+01  -2.710694e+02
   2.769053e+02  -3.496175e+02
   3.869645e+02  -1.960123e+02
   2.613372e+02   1.603909e+02
   6.407057e+01   3.892532e+02
  -6.342942e+01   3.384311e+02
  -4.008214e+01   1.406252e+02
  -3.944955e+01   6.445078e+01
  -1.064203e+02   1.041907e+02
  -2.265315e+02   6.312589e+01
  -2.612940e+02  -1.145581e+02
  -9.989909e+01  -2.621493e+02
   9.073852e+01  -2.291676e+02
   2.063111e+02   1.392701e+01
   1.575415e+02   2.305962e+02
  -4.725789e+01   2.635975e+02
  -2.589373e+02   7.894039e+01
  -3.319687e+02  -1.974987e+02
  -1.650782e+02  -3.266478e+02
   9.294341e+01  -2.884375e+02
   2.028064e+02  -1.166797e+02
   1.422070e+02  -4.597779e+01
   1.398589e+02  -3.870304e+01
   2.703856e+02  -4.278413e+01
   4.073826e+02   9.646851e+01
   3.156438e+02   3.220272e+02
  -3.998024e+01   4.337639e+02
  -3.792402e+02   4.206544e+02
  -5.041578e+02   1.877657e+02
  -3.053822e+02  -9.976117e+01
  -1.781016e+01  -2.815651e+02
   1.210565e+02  -2.272324e+02
   3.376978e+01  -5.315028e+01
  -1.198930e+02   5.691717e+01
  -1.653246e+02  -2.949893e+01
  -3.843855e+01  -1.449286e+02
   1.596866e+02  -1.221501e+02
   1.350135e+02   5.983343e+01
  -4.748268e+01   1.480606e+02
  -1.706032e+02   2.155484e+01
  -1.497344e+02  -2.540228e+02
   4.722667e+01  -3.562887e+02
   2.568317e+02  -1.940276e+02
   3.561952e+02   6.666104e+01
   2.735168e+02   2.746585e+02
   6.539682e+01   2.722691e+02
  -1.325998e+02   1.397685e+02
  -1.631592e+02   1.545548e+00
  -4.658777e+01  -1.985982e+01
   5.617742e+01   5.195586e+01
  -8.945237e+00   1.378650e+02
  -1.308172e+02   7.415415e+01
  -1.554999e+02  -2.441645e+01
  -3.751903e+01  -5.902894e+01
   7.951711e+01   4.530211e+00
   3.526846e+01   8.591935e+01
  -1.477871e+02   8.922890e+01
  -2.865946e+02  -2.996563e+01
  -2.648183e+02  -1.720264e+02
  -3.002315e+01  -2.806132e+02
   2.064394e+02  -2.309219e+02
   2.989453e+02  -9.325340e+01
   1.544010e+02   4.822477e+01
  -3.018220e+01   9.336313e+01
  -7.382727e+01  -6.179056e+00
   4.620155e+01  -8.995278e+01
   1.886060e+02  -3.334841e+01
   1.949041e+02   1.076794e+02
   5.613576e+01   2.136188e+02
  -9.723127e+01   1.459846e+02
  -1.382193e+02   2.002767e+01
  -5.719412e+01  -3.617099e+01
   3.325940e+01   1.401682e+01
   3.117668e+01   1.048217e+02
  -9.352243e+01   1.088699e+02
  -2.061181e+02   5.755329e+00
  -1.874632e+02  -1.389032e+02
   2.189996e+00  -2.230705e+02
   1.711659e+02  -1.513398e+02
   1.829377e+02  -7.110336e+00
   5.896306e+01   1.045900e+02
  -6.659743e+01   9.650521e+01
  -7.893505e+01   2.136879e+01
  -7.656947e+00  -2.510111e+01
   3.593060e+01  -1.423908e+01
  -2.061958e+01   2.041851e+01
  -8.108120e+01   4.119087e-01
  -1.000904e+02  -9.625144e+01
  -7.281791e+00  -1.790958e+02
   1.488362e+02  -1.472677e+02
   2.449561e+02  -3.314885e+00
   1.903391e+02   1.578342e+02
   2.874553e+01   2.277916e+02
  -1.111482e+02   1.618952e+02
  -1.299976e+02   3.443038e+01
  -7.069239e+01  -5.752643e+01
  -2.736104e+01  -3.352117e+01
  -5.704113e+01   1.223869e+01
  -9.040782e+01   2.936555e+00
  -5.154235e+01  -6.097820e+01
   4.352264e+01  -9.797216e+01
   1.270824e+02  -5.241466e+01
   9.691775e+01   5.037951e+01
  -2.118895e+01   1.201841e+02
  -1.622229e+02   7.991850e+01
  -1.969905e+02  -6.510787e+01
  -7.426171e+01  -2.206471e+02
   1.234993e+02  -2.164556e+02
   2.768471e+02  -6.412176e+01
   2.450617e+02   1.002139e+02
   9.304272e+01   1.850190e+02
  -4.795830e+01   1.441245e+02
  -9.639880e+01   8.062439e+01
  -7.657662e+01   6.920352e+01
  -6.791689e+01   8.987257e+01
  -9.369994e+01   7.381085e+01
  -1.351835e+02  -2.295538e+01
  -1.065431e+02  -1.621743e+02
  -1.656744e+01  -2.360866e+02
   1.151880e+02  -1.709522e+02
   1.756299e+02  -4.753936e+00
   1.201057e+02   1.355935e+02
   8.533287e+00   1.667107e+02
  -8.741511e+01   8.040354e+01
  -5.999780e+01  -1.314691e+01
  -1.687420e+00  -5.283665e+01
   2.423656e+01  -3.268215e+01
  -3.160322e+01  -1.657066e+01
  -8.792242e+01  -2.114249e+01
  -4.906351e+01  -4.269120e+01
   7.414474e+01  -3.740876e+01
   1.680465e+02   2.180746e+00
   1.421641e+02   6.240042e+01
  -1.329403e+00   9.462871e+01
  -1.324163e+02   6.772021e+01
  -1.509798e+02   3.183489e+00
  -4.487103e+01  -4.648326e+01
   6.395883e+01  -4.057513e+01
   7.757584e+01   2.047476e+01
   1.225576e+01   7.477424e+01
  -5.631015e+01   6.551894e+01
  -6.778800e+01  -7.232051e-01
  -5.336069e+01  -5.271756e+01
  -4.649656e+01  -4.506665e+01
  -5.636117e+01  -2.641548e+00
  -6.361267e+01  -2.822113e+00
  -3.792291e+01  -7.465348e+01
   3.503832e+01  -1.548921e+02
   1.232603e+02  -1.409858e+02
   1.781220e+02  -2.908266e+01
   1.240146e+02   1.063351e+02
  -2.609897e+00   1.321646e+02
  -9.458702e+01   6.294441e+01
  -6.309341e+01  -1.409930e+01
   5.744183e+01  -1.796511e+01
   1.364256e+02   5.796283e+01
   7.069979e+01   1.130413e+02
  -8.540653e+01   1.087526e+02
  -2.006162e+02   4.101502e+01
  -1.604576e+02  -4.591030e+01
  -3.382549e+01  -8.830495e+01
   6.782019e+01  -5.732903e+01
   4.933158e+01   4.567334e-01
  -4.293601e+01   2.666083e+01
  -8.931718e+01  -2.197523e+01
  -3.657805e+01  -1.210891e+02
   8.847589e+01  -1.564437e+02
   1.709365e+02  -5.924133e+01
   1.185095e+02   1.013134e+02
   1.050387e+01   2.001372e+02
  -9.286426e+01   1.352691e+02
  -1.035284e+02  -1.362400e+01
  -5.364577e+01  -1.214537e+02
   1.181169e+01  -1.039908e+02
   4.986512e+01  -1.639883e+01
   4.425913e+01   3.136279e+01
   2.064686e+01   8.275454e+00
   4.879236e+00  -1.874019e+01
   2.930443e+01   1.874278e+01
   5.927668e+01   9.392038e+01
   3.482200e+01   1.084911e+02
  -5.949804e+01   4.523444e+01
  -1.354076e+02  -4.723798e+01
  -1.221724e+02  -7.770205e+01
  -1.630162e+01  -5.706601e+01
   8.713847e+01  -2.277005e+01
   8.815106e+01  -3.567126e+00
   1.447893e+01   1.041564e+01
  -3.618944e+01   1.893733e+01
  -2.061892e+01   1.527585e+01
   1.707646e+01  -3.689154e+00
  -3.331003e+00  -7.026810e+00
  -7.095021e+01  -1.996376e+00
  -9.504559e+01  -2.651680e+01
  -1.793987e+01  -7.904054e+01
   1.161596e+02  -1.213520e+02
   1.895633e+02  -6.309886e+01
   1.443626e+02   7.507210e+01
   2.960491e+01   1.568549e+02
  -8.574894e+01   1.538796e+02
  -1.256802e+02   6.325753e+01
  -7.868430e+01  -2.296591e+01
  -2.432284e+01  -3.771183e+01
   3.775650e-01  -1.257748e+01
  -1.382494e+01  -8.211970e+00
  -2.836388e+01  -4.996853e+01
  -1.971909e+01  -9.174292e+01
   3.246552e+01  -7.060596e+01
   7.996768e+01   1.842379e+01
   7.847644e+01   1.053109e+02
   9.140400e+00   1.207509e+02
  -8.127835e+01   2.599075e+01
  -1.054222e+02  -6.943609e+01
  -3.229784e+01  -1.082664e+02
   6.709060e+01  -5.774172e+01
   1.064824e+02   1.253980e+01
   3.931216e+01   6.188491e+01
  -3.933069e+01   5.938165e+01
  -3.788937e+01   2.737131e+01
   2.767714e+01  -2.126097e+00
   7.022767e+01  -5.476032e+00
   1.636550e+01   2.613853e+01
  -8.095765e+01   6.581523e+01
  -1.234184e+02   4.760953e+01
  -7.092757e+01  -1.813571e+01
   1.955683e+01  -8.418490e+01
   5.558779e+01  -8.115078e+01
   4.206491e+01  -8.569362e+00
  -1.167444e+00   5.302814e+01
  -2.626866e+01   4.831169e+01
  -3.770108e+01  -1.307697e+01
  -2.506931e+01  -5.519873e+01
   2.559504e+00  -3.806398e+01
   3.255746e+01   8.311593e+00
   4.120472e+01   2.547598e+01
   2.193144e+01   5.643374e+00
  -6.476834e-01  -1.909472e+01
  -3.723207e+00  -3.805642e+00
  -5.493191e+00   3.326403e+01
  -8.574877e+00   5.276033e+01
  -3.215138e+01   1.552508e+01
  -4.003401e+01  -4.037913e+01
  -5.332111e+00  -6.198889e+01
   4.332740e+01  -2.487719e+01
   6.114322e+01   3.417991e+01
   1.693903e+01   6.116549e+01
  -5.812569e+01   3.466013e+01
  -9.071998e+01  -1.552529e+01
  -5.200275e+01  -4.302638e+01
   2.886463e+01  -4.416218e+01
   6.668796e+01  -2.593596e+01
   2.661949e+01  -6.362567e+00
  -3.215058e+01   1.497710e+00
  -3.778725e+01  -1.184498e+01
   2.675342e+01  -2.922835e+01
   8.481682e+01  -1.647624e+01
