
 $NMID
 id='ANONYMOUS ', fmtdat='(2E16.6)'
 volume=1.0
 tramp=1.0
 $END
   4.290346e+03   6.894503e+01
   2.500647e+03   2.278760e+03
  -7.121284e+02   2.751447e+03
  -1.938655e+03   8.044125e+02
  -7.689561e+02  -4.985269e+02
   4.743686e+02  -5.934531e+02
   7.788778e+02   3.347640e+02
   1.138259e+02   9.663912e+02
  -6.549967e+02   7.321993e+02
  -9.286572e+02  -1.156155e+02
  -4.221322e+02  -8.109472e+02
   2.238855e+02  -8.200684e+02
   6.179440e+02  -2.281849e+01
   3.771905e+02   6.330099e+02
  -2.495881e+02   7.070830e+02
  -6.055098e+02  -1.187744e+01
  -2.782908e+02  -6.473702e+02
   2.593780e+02  -6.214651e+02
   5.253100e+02  -1.045638e+02
   3.765763e+02   2.853729e+02
   1.490285e+01   3.990606e+02
  -2.203046e+02   2.756512e+02
  -1.674480e+02   2.582433e+01
   1.409187e+02  -7.482103e+01
   3.815015e+02   1.148973e+02
   1.364183e+02   3.789475e+02
  -4.793154e+02   4.254638e+02
  -7.390142e+02  -5.217293e+01
  -3.495802e+02  -5.450681e+02
   3.611903e+02  -4.392112e+02
   6.992397e+02   7.114893e+01
   2.987446e+02   4.083237e+02
  -3.108202e+02   5.763799e+02
  -5.734575e+02   1.951156e+02
  -3.852443e+02  -2.345019e+02
  -7.979365e+01  -4.881363e+02
   1.974679e+02  -2.340450e+02
   1.376569e+02   2.006768e+02
  -2.176554e+02   4.195312e+02
  -3.873776e+02   2.385107e+01
  -2.163951e+02  -6.523691e+02
   3.110030e+02  -6.856813e+02
   5.000324e+02   5.694174e+01
   2.127121e+02   5.095571e+02
  -2.787383e+02   2.561449e+02
  -3.139705e+02  -3.251160e+02
   1.051494e+02  -5.196348e+02
   5.540095e+02  -1.454944e+02
   5.532830e+02   4.162346e+02
   1.750214e+02   6.092818e+02
  -3.931673e+02   3.618613e+02
  -6.172539e+02  -6.230891e+01
  -3.373234e+02  -3.534390e+02
   1.488556e+02  -3.196276e+02
   4.204588e+02  -8.256196e+01
   1.927711e+02   1.320474e+02
  -1.156253e+02   5.954033e+01
  -1.048346e+02  -1.207697e+02
   1.603236e+02  -1.655310e+02
   2.954935e+02   5.704319e+01
   1.321461e+02   2.588013e+02
  -1.991486e+02   2.748069e+02
  -3.345981e+02   9.261850e+01
  -2.037445e+02  -7.555347e+01
   2.495781e+01  -2.346198e+02
   2.275748e+02  -3.454837e+02
   3.454570e+02  -2.272782e+02
   2.930301e+02   1.445781e+02
   7.449808e+01   4.297679e+02
  -1.368954e+02   3.645649e+02
  -1.250991e+02   1.291806e+02
   5.006034e+00  -1.893914e+00
  -4.696290e+01   9.067270e+01
  -2.060775e+02   1.399422e+02
  -2.675522e+02  -7.343149e+01
  -1.447334e+02  -2.648407e+02
   9.603667e+01  -2.509244e+02
   2.263630e+02   1.543558e+00
   1.769052e+02   2.252759e+02
  -1.187661e+01   3.151464e+02
  -2.501060e+02   1.025836e+02
  -3.657533e+02  -1.919306e+02
  -1.671857e+02  -3.471240e+02
   8.317936e+01  -3.130123e+02
   2.270606e+02  -1.375262e+02
   1.575668e+02  -1.782298e+01
   1.086969e+02  -4.405885e+01
   2.447660e+02  -5.704766e+01
   4.064136e+02   5.397492e+01
   3.573340e+02   2.754870e+02
   3.061372e+00   4.379327e+02
  -3.536726e+02   4.092081e+02
  -4.879364e+02   2.037863e+02
  -3.220646e+02  -1.034803e+02
  -6.767553e+01  -3.130115e+02
   1.242290e+02  -2.301328e+02
   6.659386e+01  -3.895399e+01
  -1.169201e+02   8.598143e+01
  -2.086422e+02   3.301237e+00
  -2.591516e+01  -1.855973e+02
   1.640639e+02  -1.585839e+02
   1.892297e+02   6.700461e+01
  -3.119124e+01   1.853060e+02
  -1.992270e+02   3.703263e+01
  -1.697464e+02  -2.566706e+02
   2.310728e+01  -3.311151e+02
   2.256613e+02  -1.978996e+02
   3.390920e+02   6.834865e+01
   2.930010e+02   2.600656e+02
   7.823451e+01   2.714613e+02
  -1.173944e+02   1.610018e+02
  -1.545853e+02   1.967779e+01
  -5.587603e+01  -3.424989e+01
   7.108050e+01   3.717107e+01
   2.428243e+01   1.175941e+02
  -1.185541e+02   8.144740e+01
  -1.707708e+02  -9.420427e+00
  -5.634231e+01  -6.840713e+01
   7.708794e+01  -7.180649e+00
   4.770023e+01   7.154066e+01
  -1.323824e+02   8.373764e+01
  -2.718190e+02  -1.118960e+01
  -2.522236e+02  -1.535036e+02
  -4.589384e+01  -2.552750e+02
   1.669353e+02  -2.497129e+02
   2.878087e+02  -1.257461e+02
   1.810895e+02   4.460770e+01
  -2.739790e+01   1.032905e+02
  -7.906506e+01   1.167696e+01
   3.677703e+01  -9.002550e+01
   1.977734e+02  -5.155213e+01
   2.180359e+02   1.052958e+02
   6.930689e+01   1.990167e+02
  -9.036446e+01   1.459333e+02
  -1.408569e+02   3.041769e+01
  -6.521539e+01  -4.022721e+01
   3.933624e+01  -6.994386e+00
   4.682073e+01   8.891116e+01
  -7.491284e+01   1.133594e+02
  -2.000959e+02   3.232368e+01
  -1.934232e+02  -1.246241e+02
  -2.511478e+01  -2.224815e+02
   1.582760e+02  -1.704030e+02
   1.780540e+02  -7.373096e+00
   6.959289e+01   1.082376e+02
  -6.649429e+01   1.131009e+02
  -8.844812e+01   2.985312e+01
  -1.474683e+01  -2.418173e+01
   2.219441e+01  -1.788307e+01
  -7.293375e+00   1.214337e+01
  -7.573788e+01  -5.067079e+00
  -9.525822e+01  -8.171417e+01
  -1.389659e+01  -1.611439e+02
   1.268559e+02  -1.636512e+02
   2.391039e+02  -3.884318e+01
   2.083926e+02   1.507833e+02
   4.100453e+01   2.311441e+02
  -1.100122e+02   1.655396e+02
  -1.261649e+02   2.551235e+01
  -6.871195e+01  -4.890184e+01
  -2.888469e+01  -3.723648e+01
  -5.312344e+01   1.149057e+01
  -8.038034e+01   6.548806e+00
  -5.283705e+01  -4.611116e+01
   4.125050e+01  -9.209144e+01
   1.037108e+02  -6.467422e+01
   8.248104e+01   3.635341e+01
  -7.551139e+00   1.101481e+02
  -1.506945e+02   8.650690e+01
  -1.837586e+02  -4.811638e+01
  -1.045717e+02  -2.094757e+02
   9.121072e+01  -2.317612e+02
   2.736742e+02  -9.388184e+01
   2.441319e+02   9.470799e+01
   1.143111e+02   1.652697e+02
  -3.561099e+01   1.507197e+02
  -9.687893e+01   8.092694e+01
  -7.371845e+01   6.079800e+01
  -6.455188e+01   9.142994e+01
  -9.409622e+01   7.057107e+01
  -1.286062e+02  -2.117294e+01
  -1.109481e+02  -1.546917e+02
  -2.546351e+01  -2.253016e+02
   1.012773e+02  -1.673152e+02
   1.715483e+02  -1.526501e+01
   1.314760e+02   1.223884e+02
   1.045607e+01   1.518214e+02
  -6.832509e+01   9.371339e+01
  -5.942834e+01   3.978634e+00
  -2.380846e+00  -4.553776e+01
   1.362950e+01  -3.640723e+01
  -3.577720e+01  -1.699409e+01
  -8.178534e+01  -2.257390e+01
  -4.479983e+01  -3.693786e+01
   6.349671e+01  -4.484815e+01
   1.555593e+02  -2.777764e+00
   1.378438e+02   5.432323e+01
   1.296108e+01   8.924144e+01
  -1.240294e+02   7.738715e+01
  -1.466664e+02   1.413990e+01
  -4.987391e+01  -4.291555e+01
   6.241108e+01  -3.706819e+01
   7.877979e+01   1.745666e+01
   1.040214e+01   6.453751e+01
  -5.313280e+01   6.047314e+01
  -7.033776e+01  -8.787238e-02
  -4.565865e+01  -4.959976e+01
  -4.574069e+01  -3.842469e+01
  -6.162348e+01  -2.124252e+00
  -6.211788e+01  -5.572108e-01
  -3.568441e+01  -6.542046e+01
   3.342937e+01  -1.539845e+02
   1.128068e+02  -1.472171e+02
   1.706401e+02  -4.522153e+01
   1.140411e+02   8.462675e+01
   8.590976e+00   1.260567e+02
  -8.184030e+01   6.421490e+01
  -6.021206e+01  -1.439279e+01
   5.750691e+01  -1.661822e+01
   1.348713e+02   4.004922e+01
   7.167524e+01   1.033696e+02
  -7.660825e+01   1.120518e+02
  -1.864977e+02   3.869656e+01
  -1.626077e+02  -3.385316e+01
  -3.638422e+01  -8.238872e+01
   5.950368e+01  -7.095232e+01
   4.928605e+01  -7.799642e+00
  -3.752822e+01   2.908796e+01
  -9.302020e+01  -1.740251e+01
  -3.314917e+01  -1.155130e+02
   8.364424e+01  -1.517642e+02
   1.644738e+02  -6.203100e+01
   1.282735e+02   9.678798e+01
   7.927645e+00   1.938408e+02
  -8.097045e+01   1.428858e+02
  -1.071837e+02  -2.963440e+00
  -6.362562e+01  -1.181433e+02
   1.961584e+00  -1.058156e+02
   4.846141e+01  -1.997473e+01
   4.830863e+01   2.947492e+01
   2.353466e+01   9.247173e+00
   4.151990e+00  -2.003563e+01
   2.381485e+01   1.445111e+01
   5.709199e+01   8.967725e+01
   3.569453e+01   1.066151e+02
  -4.833760e+01   4.371370e+01
  -1.364060e+02  -2.772987e+01
  -1.331988e+02  -6.752611e+01
  -1.860630e+01  -5.030211e+01
   8.717548e+01  -2.207966e+01
   8.129576e+01  -4.589216e+00
   1.337664e+01   6.178123e+00
  -3.649873e+01   2.123530e+01
  -1.542461e+01   1.815930e+01
   2.119536e+01  -2.659824e+00
  -5.252368e+00  -7.711423e+00
  -6.938019e+01  -4.568728e+00
  -9.021285e+01  -2.270056e+01
  -1.068681e+01  -8.614015e+01
   1.053686e+02  -1.127295e+02
   1.807275e+02  -6.004419e+01
   1.427635e+02   6.638908e+01
   2.531623e+01   1.663170e+02
  -7.584695e+01   1.528937e+02
  -1.087374e+02   5.799487e+01
  -7.722048e+01  -2.299870e+01
  -2.561947e+01  -3.435566e+01
   1.384420e+00  -7.472357e+00
  -1.139774e+01  -2.765684e+00
  -3.468996e+01  -4.380817e+01
  -2.657572e+01  -9.074362e+01
   3.212163e+01  -7.082931e+01
   7.829457e+01   1.530201e+01
   7.701766e+01   1.019550e+02
   7.661472e+00   1.039696e+02
  -7.667288e+01   2.531623e+01
  -1.010118e+02  -7.677081e+01
  -3.688345e+01  -1.041381e+02
   6.355426e+01  -5.302314e+01
   9.304746e+01   8.530127e+00
   3.876990e+01   5.048920e+01
  -3.021850e+01   5.209866e+01
  -3.404721e+01   2.800188e+01
   3.337893e+01   1.361151e+00
   6.832650e+01  -8.532612e+00
   1.592300e+01   2.382041e+01
  -7.512178e+01   6.348541e+01
  -1.152021e+02   5.888712e+01
  -6.188151e+01  -1.484121e+01
   1.522724e+01  -8.296750e+01
   5.670185e+01  -8.264478e+01
   3.845879e+01  -5.383069e+00
   1.308549e+00   5.630746e+01
  -2.455876e+01   4.611661e+01
  -3.617401e+01  -1.664479e+01
  -2.888263e+01  -5.049553e+01
   8.124146e-01  -3.311142e+01
   3.027150e+01   7.695784e+00
   3.921237e+01   1.915279e+01
   2.005781e+01   2.145408e+00
  -2.370555e+00  -1.360725e+01
  -8.523770e+00  -1.371617e-01
  -5.629042e+00   3.930139e+01
  -1.424402e+01   4.221028e+01
  -2.681580e+01   1.346344e+01
  -3.198569e+01  -4.665931e+01
   1.807545e-01  -5.586951e+01
   4.380025e+01  -2.221377e+01
   5.415262e+01   3.517999e+01
   1.590565e+01   6.109779e+01
  -5.575270e+01   3.621581e+01
  -8.387661e+01  -1.140073e+01
  -5.059712e+01  -4.378615e+01
   2.725107e+01  -4.310086e+01
   5.951166e+01  -2.248262e+01
   2.418692e+01  -5.543390e+00
  -3.682834e+01  -2.421210e+00
  -3.831104e+01  -1.813939e+01
   3.268743e+01  -3.107336e+01
   8.606102e+01  -2.251836e+01
