
 $NMID
 id='ANONYMOUS ', fmtdat='(2E16.6)'
 volume=1.0
 tramp=1.0
 $END
  -4.584416e+03  -7.073549e+00
  -2.668903e+03  -2.797765e+03
   6.914643e+02  -2.702813e+03
   2.271011e+03  -8.338761e+02
   9.298208e+02   5.029113e+02
  -6.758157e+02   5.625484e+02
  -8.274212e+02  -4.736055e+02
   5.505178e+01  -1.142382e+03
   8.016235e+02  -8.376745e+02
   9.195079e+02   8.580531e+01
   3.611336e+02   9.006331e+02
  -2.572207e+02   9.450515e+02
  -6.189305e+02   1.279835e+02
  -3.695723e+02  -8.556348e+02
   2.701961e+02  -7.594283e+02
   6.495914e+02  -3.948304e+01
   3.084853e+02   7.556076e+02
  -3.731625e+02   6.872526e+02
  -5.773723e+02   1.414309e+02
  -3.590362e+02  -3.559201e+02
  -2.159752e+01  -4.486006e+02
   2.395085e+02  -2.422157e+02
   2.463612e+02  -4.119559e+01
  -9.735284e+01   8.776581e+01
  -4.222542e+02  -1.283672e+02
  -1.764747e+02  -4.690573e+02
   4.372234e+02  -4.222437e+02
   8.216583e+02   9.975549e+01
   4.715058e+02   6.057031e+02
  -4.155774e+02   5.119068e+02
  -7.123212e+02  -4.279165e+01
  -3.226129e+02  -4.625727e+02
   3.033544e+02  -5.478433e+02
   6.050047e+02  -2.218745e+02
   4.608122e+02   2.117378e+02
   9.888368e+01   5.168653e+02
  -1.640900e+02   3.049390e+02
  -2.198752e+02  -2.358251e+02
   1.720224e+02  -4.154207e+02
   4.854090e+02  -4.074490e+00
   2.609719e+02   6.848990e+02
  -2.742694e+02   7.291781e+02
  -6.150474e+02   4.053386e+01
  -2.585356e+02  -5.887028e+02
   3.278910e+02  -3.454556e+02
   4.004313e+02   3.653652e+02
  -6.497162e+01   5.948828e+02
  -6.019850e+02   1.081407e+02
  -5.992938e+02  -3.968360e+02
  -1.842585e+02  -5.817871e+02
   4.003610e+02  -3.443196e+02
   6.623315e+02   9.637921e+01
   4.016717e+02   3.797072e+02
  -1.624479e+02   3.349751e+02
  -4.755559e+02   5.654671e+01
  -2.424854e+02  -2.328486e+02
   9.711677e+01  -1.245928e+02
   1.535998e+02   1.543845e+02
  -1.835730e+02   1.967743e+02
  -3.556084e+02  -7.213706e+01
  -1.561172e+02  -3.123757e+02
   1.887895e+02  -2.742247e+02
   3.397717e+02  -5.777110e+01
   1.799877e+02   1.011236e+02
  -2.897917e+01   2.189124e+02
  -2.215911e+02   3.182855e+02
  -3.479078e+02   2.265046e+02
  -3.137421e+02  -1.262120e+02
  -7.693103e+01  -4.664071e+02
   1.284512e+02  -3.717607e+02
   1.395393e+02  -1.130259e+02
   2.284641e+01   3.506694e+01
   2.700564e+01  -7.683313e+01
   1.811798e+02  -1.304730e+02
   2.844729e+02   4.170523e+01
   1.818368e+02   2.715259e+02
  -8.013027e+01   2.618475e+02
  -2.240289e+02   1.267777e+01
  -1.935181e+02  -2.531690e+02
   2.196845e+01  -3.041918e+02
   2.659288e+02  -9.939159e+01
   3.941776e+02   1.777953e+02
   2.085326e+02   3.426855e+02
  -9.360951e+01   3.010919e+02
  -2.279358e+02   1.258785e+02
  -1.512773e+02  -3.103289e+00
  -1.058248e+02   3.131213e+01
  -2.252627e+02   7.965661e+01
  -3.857386e+02  -8.593050e+01
  -3.463757e+02  -2.823815e+02
   1.874354e+00  -4.127097e+02
   3.572313e+02  -4.018931e+02
   4.750832e+02  -1.903723e+02
   3.530633e+02   7.668545e+01
   6.788405e+01   3.205094e+02
  -1.587672e+02   2.690475e+02
  -1.091335e+02   3.014822e+01
   9.171898e+01  -1.159234e+02
   2.040508e+02   8.753437e+00
   6.266842e+01   1.836059e+02
  -1.602200e+02   1.916517e+02
  -1.968055e+02  -5.855575e+01
  -3.274698e-01  -1.915596e+02
   1.903315e+02  -3.544149e+01
   1.858756e+02   2.708386e+02
  -1.898248e+01   3.621312e+02
  -2.316732e+02   1.863440e+02
  -3.278542e+02  -4.867195e+01
  -2.875943e+02  -2.565453e+02
  -9.779728e+01  -2.615334e+02
   1.239926e+02  -1.587872e+02
   1.796156e+02  -2.652596e+01
   6.326901e+01   4.162511e+01
  -7.733659e+01  -3.413242e+01
  -2.791548e+01  -1.266430e+02
   1.194253e+02  -1.048255e+02
   1.717558e+02   1.547414e+00
   6.554913e+01   7.310459e+01
  -7.463848e+01   1.885530e+01
  -5.343804e+01  -7.034548e+01
   1.170817e+02  -9.385684e+01
   2.769664e+02   2.466760e+00
   2.666672e+02   1.329999e+02
   7.759891e+01   2.488585e+02
  -1.534909e+02   2.473524e+02
  -2.892034e+02   1.347260e+02
  -1.656013e+02  -4.687604e+01
   2.263204e+01  -1.108666e+02
   8.883101e+01  -1.159125e+01
  -3.064146e+01   1.036210e+02
  -1.928135e+02   6.963336e+01
  -2.256431e+02  -1.066025e+02
  -7.707258e+01  -2.045556e+02
   9.628356e+01  -1.616949e+02
   1.408616e+02  -3.040273e+01
   7.446794e+01   3.056409e+01
  -2.516359e+01   3.932808e+00
  -2.715710e+01  -7.617405e+01
   7.148319e+01  -1.049909e+02
   2.019763e+02  -2.894748e+01
   1.952320e+02   1.231334e+02
   3.019457e+01   2.229866e+02
  -1.594076e+02   1.573113e+02
  -1.929163e+02   1.649887e+01
  -6.645267e+01  -1.134106e+02
   7.812676e+01  -1.158617e+02
   9.016617e+01  -3.210833e+01
   1.799807e+01   2.306170e+01
  -2.375809e+01   1.951809e+01
   8.312728e+00  -5.094082e+00
   7.181609e+01   1.693146e+01
   8.745337e+01   8.412674e+01
   1.362054e+01   1.591501e+02
  -1.268441e+02   1.547695e+02
  -2.240255e+02   1.914324e+01
  -2.081068e+02  -1.508826e+02
  -4.835468e+01  -2.450888e+02
   1.168314e+02  -1.761125e+02
   1.410179e+02  -3.659661e+01
   6.992884e+01   5.828036e+01
   2.654753e+01   4.117070e+01
   5.381039e+01  -1.182855e+01
   8.120235e+01  -5.990824e+00
   3.742399e+01   5.050469e+01
  -3.992521e+01   8.815524e+01
  -1.016586e+02   4.464505e+01
  -8.134810e+01  -4.098381e+01
   1.454321e+01  -1.118256e+02
   1.398229e+02  -7.792745e+01
   1.875600e+02   5.023373e+01
   1.012967e+02   1.943042e+02
  -1.085237e+02   2.218723e+02
  -2.739076e+02   9.396404e+01
  -2.647563e+02  -8.495345e+01
  -1.043481e+02  -1.740704e+02
   3.661935e+01  -1.501745e+02
   9.437498e+01  -8.337729e+01
   7.659613e+01  -6.908578e+01
   6.681194e+01  -9.070894e+01
   9.111253e+01  -7.196001e+01
   1.245501e+02   2.393243e+01
   1.209266e+02   1.532898e+02
   3.679384e+01   2.267433e+02
  -9.589402e+01   1.751661e+02
  -1.739039e+02   1.819669e+01
  -1.352692e+02  -1.255803e+02
  -2.338728e+01  -1.603999e+02
   7.254558e+01  -9.335644e+01
   5.986350e+01  -6.713814e+00
   5.339547e+00   4.093205e+01
  -1.155321e+01   3.432627e+01
   3.601298e+01   1.455465e+01
   8.561044e+01   2.472804e+01
   4.667193e+01   3.936423e+01
  -6.278962e+01   3.493824e+01
  -1.498503e+02   5.832828e+00
  -1.400963e+02  -5.456631e+01
  -1.653127e+01  -8.528923e+01
   1.254974e+02  -6.914870e+01
   1.529729e+02  -1.096523e+01
   4.917455e+01   4.344219e+01
  -6.044950e+01   3.921491e+01
  -8.042628e+01  -1.653438e+01
  -7.044428e+00  -6.832675e+01
   5.586078e+01  -5.510757e+01
   6.210678e+01   9.871719e-01
   4.506595e+01   5.449771e+01
   4.302150e+01   4.271183e+01
   6.208132e+01   1.835105e+00
   6.642274e+01   2.481533e+00
   2.902039e+01   6.693273e+01
  -3.552095e+01   1.411808e+02
  -1.149043e+02   1.428475e+02
  -1.618957e+02   3.242196e+01
  -1.220460e+02  -9.868786e+01
  -7.743151e+00  -1.241260e+02
   8.853803e+01  -5.415845e+01
   5.782483e+01   1.676573e+01
  -5.933175e+01   1.944507e+01
  -1.397017e+02  -4.695316e+01
  -7.431044e+01  -1.078146e+02
   7.932820e+01  -1.152850e+02
   1.922289e+02  -6.400547e+01
   1.622328e+02   3.858622e+01
   3.834393e+01   8.431765e+01
  -5.970169e+01   7.296224e+01
  -4.867356e+01   1.140504e+01
   3.888677e+01  -2.551369e+01
   8.983019e+01   2.213162e+01
   3.161405e+01   1.243987e+02
  -1.020588e+02   1.515784e+02
  -1.712559e+02   6.376262e+01
  -1.259928e+02  -1.034049e+02
  -8.857235e+00  -2.071759e+02
   8.387061e+01  -1.437308e+02
   1.035231e+02   1.258875e+01
   5.399259e+01   1.182450e+02
  -1.531962e+00   1.079931e+02
  -4.580992e+01   1.959026e+01
  -4.976887e+01  -3.333362e+01
  -2.749046e+01  -7.351142e+00
  -3.478422e+00   2.047552e+01
  -1.781126e+01  -1.562541e+01
  -5.618009e+01  -8.954109e+01
  -4.221810e+01  -1.135560e+02
   4.729866e+01  -4.461919e+01
   1.440762e+02   4.148376e+01
   1.250620e+02   7.659098e+01
   1.774054e+01   5.296789e+01
  -8.862643e+01   1.806477e+01
  -8.673506e+01   5.077409e+00
  -9.597028e+00  -8.339300e+00
   4.156474e+01  -2.077361e+01
   1.425158e+01  -1.907735e+01
  -2.435130e+01   9.012183e-01
   5.883682e+00   8.618805e+00
   7.330826e+01   4.985134e+00
   9.013076e+01   2.775294e+01
   5.475144e+00   8.043525e+01
  -1.214740e+02   1.136695e+02
  -1.921303e+02   5.150142e+01
  -1.417245e+02  -7.036863e+01
  -2.481880e+01  -1.622015e+02
   8.684289e+01  -1.540157e+02
   1.151563e+02  -5.840464e+01
   7.876505e+01   2.077661e+01
   2.145553e+01   3.542123e+01
  -1.696272e+00   8.534499e+00
   1.010256e+01   3.933038e+00
   3.091423e+01   4.458834e+01
   2.204778e+01   9.092719e+01
  -2.989250e+01   6.983647e+01
  -8.331914e+01  -1.647395e+01
  -8.314308e+01  -1.103372e+02
  -4.366245e+00  -1.130838e+02
   8.306820e+01  -2.301239e+01
   9.960219e+01   7.395510e+01
   2.764992e+01   1.033370e+02
  -6.504691e+01   5.100488e+01
  -9.947585e+01  -1.089974e+01
  -3.550229e+01  -5.268670e+01
   3.646216e+01  -5.037555e+01
   3.012720e+01  -2.795342e+01
  -3.408320e+01  -2.391347e+00
  -6.972260e+01   4.158218e+00
  -1.403529e+01  -2.416082e+01
   8.251660e+01  -6.176616e+01
   1.144515e+02  -6.426067e+01
   6.334705e+01   1.802891e+01
  -1.426726e+01   8.126898e+01
  -5.402965e+01   7.638305e+01
  -3.517426e+01   2.313517e+00
  -1.032290e+00  -5.719550e+01
   2.646658e+01  -3.818480e+01
   3.741311e+01   1.739562e+01
   2.637320e+01   5.596317e+01
  -3.558999e+00   3.144087e+01
  -3.387715e+01  -8.824963e+00
  -3.976483e+01  -2.054219e+01
  -1.996981e+01  -1.170510e+00
   1.093949e+00   1.347456e+01
   6.936740e+00  -1.797395e+00
   9.706653e+00  -3.651156e+01
   1.682640e+01  -4.085646e+01
   3.020404e+01  -6.975619e+00
   3.252943e+01   4.587793e+01
  -4.518018e+00   6.402540e+01
  -4.500414e+01   2.006435e+01
  -5.451656e+01  -3.899517e+01
  -1.062587e+01  -6.611747e+01
   5.650641e+01  -3.115271e+01
   8.951589e+01   1.606764e+01
   4.545948e+01   4.824901e+01
  -2.781616e+01   4.111604e+01
  -6.524777e+01   2.243871e+01
  -2.462992e+01   6.860955e+00
   3.979761e+01   4.450200e+00
   4.058797e+01   1.881114e+01
  -3.250622e+01   3.435729e+01
  -9.196176e+01   1.888092e+01
