
 $NMID
 id='ANONYMOUS ', fmtdat='(2E16.6)'
 volume=1.0
 tramp=1.0
 $END
  -4.106234e+03   1.192013e+02
  -2.710738e+03  -2.473638e+03
   4.981897e+02  -2.948687e+03
   1.915393e+03  -1.277635e+03
   1.143043e+03   6.649591e+02
  -4.562924e+02   7.857375e+02
  -8.682866e+02  -2.430983e+02
   3.498287e+00  -9.198098e+02
   7.973539e+02  -7.543748e+02
   9.703492e+02  -3.744101e-01
   5.371788e+02   7.809971e+02
  -1.163448e+02   9.800161e+02
  -5.865481e+02   2.217645e+02
  -3.611878e+02  -6.258235e+02
   1.673119e+02  -7.823028e+02
   5.970095e+02   2.230679e+01
   2.347005e+02   6.482743e+02
  -2.536631e+02   6.438467e+02
  -6.386188e+02   8.832869e+01
  -4.541200e+02  -3.282108e+02
  -4.905863e+01  -4.366516e+02
   2.242962e+02  -2.505393e+02
   1.855647e+02  -4.670020e+01
  -7.999902e+01   2.200207e+01
  -3.510001e+02  -1.641970e+02
  -1.693756e+02  -4.315621e+02
   3.959835e+02  -3.729111e+02
   8.540789e+02   1.317423e+02
   3.850866e+02   5.138287e+02
  -3.444206e+02   4.219575e+02
  -6.556791e+02  -4.218182e+01
  -3.626769e+02  -5.050867e+02
   2.559564e+02  -4.728014e+02
   5.559764e+02  -2.256506e+02
   3.925304e+02   2.078946e+02
   8.986383e+01   4.012943e+02
  -1.789008e+02   3.106571e+02
  -1.185104e+02  -1.520735e+02
   1.235447e+02  -4.106172e+02
   3.526930e+02   1.784126e+01
   2.281479e+02   6.321592e+02
  -3.063649e+02   7.603887e+02
  -5.922085e+02   6.219572e+01
  -2.782322e+02  -4.901240e+02
   2.524807e+02  -2.908618e+02
   3.292568e+02   3.186221e+02
  -6.003194e+01   4.644280e+02
  -4.684655e+02   1.157517e+02
  -6.136528e+02  -3.686075e+02
  -2.018203e+02  -5.786090e+02
   3.383871e+02  -3.649394e+02
   5.851613e+02   9.942047e+01
   4.083363e+02   4.122243e+02
  -7.212603e+01   3.766969e+02
  -3.979836e+02   7.322161e+01
  -2.827687e+02  -1.867108e+02
   1.049396e+02  -1.157154e+02
   1.213515e+02   1.505189e+02
  -1.119936e+02   2.202431e+02
  -3.556048e+02  -5.151880e+01
  -1.573153e+02  -3.046042e+02
   2.077341e+02  -2.602167e+02
   3.553442e+02  -9.547300e+01
   2.272767e+02   1.046616e+02
  -3.994002e+01   2.555065e+02
  -2.543203e+02   3.547044e+02
  -3.469355e+02   2.193803e+02
  -2.804937e+02  -1.532978e+02
  -7.094151e+01  -4.102176e+02
   7.935053e+01  -3.880259e+02
   1.041627e+02  -1.418990e+02
   3.537417e+01  -1.249499e+01
   6.914174e+01  -1.149348e+02
   1.825998e+02  -1.026200e+02
   2.475119e+02   5.913146e+01
   1.502604e+02   2.723221e+02
  -6.514439e+01   2.448605e+02
  -2.282940e+02   1.068588e+01
  -1.832621e+02  -2.342399e+02
  -2.027971e-01  -2.558665e+02
   2.682025e+02  -1.325598e+02
   3.466874e+02   1.454800e+02
   1.880351e+02   3.576241e+02
  -1.018296e+02   3.320052e+02
  -2.134982e+02   1.155008e+02
  -1.587835e+02   2.533873e+01
  -1.071672e+02   2.666651e+01
  -2.376221e+02   4.662161e+01
  -4.058151e+02  -6.475031e+01
  -3.226472e+02  -2.949930e+02
  -2.148402e+01  -4.374765e+02
   3.849488e+02  -4.221747e+02
   5.234382e+02  -2.035331e+02
   3.468633e+02   8.977386e+01
   3.583902e+01   2.782620e+02
  -1.157802e+02   2.164156e+02
  -5.909214e+01   4.342750e+01
   1.108719e+02  -9.543622e+01
   1.595465e+02   2.533610e+01
   6.005725e+01   1.950120e+02
  -1.519808e+02   1.501075e+02
  -1.746204e+02  -4.537928e+01
   2.059588e+01  -1.963818e+02
   1.844050e+02  -4.034227e+01
   1.673502e+02   2.373673e+02
  -3.703462e+01   3.574094e+02
  -2.235253e+02   1.900122e+02
  -3.345691e+02  -6.995015e+01
  -2.730018e+02  -2.321355e+02
  -8.082573e+01  -2.572745e+02
   1.040026e+02  -1.476507e+02
   1.874675e+02  -1.732301e+01
   5.553620e+01   1.843977e+01
  -6.842378e+01  -4.937998e+01
  -2.473603e+01  -1.235823e+02
   1.163575e+02  -1.034429e+02
   1.859511e+02   1.924216e+01
   4.902318e+01   6.957435e+01
  -7.009267e+01   7.970852e+00
  -4.751141e+01  -7.408509e+01
   1.292935e+02  -7.799221e+01
   2.897503e+02   1.967463e+01
   2.821363e+02   1.457671e+02
   6.905857e+01   2.552172e+02
  -1.992310e+02   2.685732e+02
  -2.723793e+02   1.202069e+02
  -1.654271e+02  -4.466957e+01
   2.392441e+01  -1.091301e+02
   8.485955e+01  -1.162096e+01
  -3.502610e+01   1.033339e+02
  -2.063519e+02   6.356625e+01
  -1.899901e+02  -1.215073e+02
  -7.244206e+01  -2.059755e+02
   7.872838e+01  -1.732150e+02
   1.496263e+02  -3.583514e+01
   6.849659e+01   4.250963e+01
  -2.678655e+01  -2.161099e+00
  -2.787546e+01  -7.951626e+01
   7.056671e+01  -1.064971e+02
   1.902525e+02  -7.359835e+00
   1.938284e+02   1.264377e+02
   2.029735e+01   2.255267e+02
  -1.618075e+02   1.736222e+02
  -2.052204e+02   9.954342e+00
  -7.287449e+01  -1.112408e+02
   6.694004e+01  -1.021033e+02
   7.745534e+01  -3.274304e+01
   1.603572e+01   2.368904e+01
  -2.278897e+01   1.363277e+01
   9.089124e+00  -1.483047e+01
   7.346197e+01   3.649937e+00
   9.045766e+01   8.168627e+01
   1.994248e+01   1.671653e+02
  -1.297207e+02   1.513500e+02
  -2.257422e+02   1.471460e+01
  -1.995957e+02  -1.435540e+02
  -5.102194e+01  -2.417018e+02
   1.054437e+02  -1.753203e+02
   1.402932e+02  -2.962039e+01
   7.524082e+01   5.541202e+01
   3.133815e+01   3.222720e+01
   5.437068e+01  -1.178952e+01
   8.313694e+01  -5.600714e+00
   4.250756e+01   5.697033e+01
  -4.957051e+01   9.132126e+01
  -1.009628e+02   5.643459e+01
  -9.639114e+01  -4.537110e+01
   2.367349e+01  -1.090521e+02
   1.462281e+02  -9.346930e+01
   1.944322e+02   5.201860e+01
   8.988197e+01   2.060261e+02
  -1.024598e+02   2.165572e+02
  -2.648540e+02   9.108772e+01
  -2.579168e+02  -9.642906e+01
  -1.146060e+02  -1.690358e+02
   3.889493e+01  -1.516631e+02
   9.065770e+01  -9.366484e+01
   8.222873e+01  -7.157704e+01
   6.228634e+01  -9.640532e+01
   9.698074e+01  -7.544144e+01
   1.289597e+02   2.130769e+01
   1.192884e+02   1.485220e+02
   3.308849e+01   2.185070e+02
  -1.020989e+02   1.639604e+02
  -1.692650e+02   1.709718e+01
  -1.263002e+02  -1.104088e+02
  -2.284985e+01  -1.615012e+02
   6.282796e+01  -8.805569e+01
   5.912190e+01   7.562850e+00
   5.140869e+00   4.142721e+01
  -1.445228e+01   3.444249e+01
   3.734125e+01   1.945975e+01
   7.991877e+01   2.089634e+01
   4.318300e+01   3.953265e+01
  -6.505109e+01   4.093804e+01
  -1.640897e+02  -1.266121e+01
  -1.430176e+02  -5.511724e+01
  -1.278773e+01  -8.805561e+01
   1.212394e+02  -6.453227e+01
   1.382729e+02  -6.525472e+00
   4.619281e+01   4.284826e+01
  -6.198421e+01   3.877083e+01
  -7.705027e+01  -1.902729e+01
  -8.203313e+00  -7.420234e+01
   6.051678e+01  -5.895531e+01
   6.675903e+01   2.129475e+00
   4.366999e+01   5.279367e+01
   4.569720e+01   4.470141e+01
   5.914537e+01  -4.373740e-01
   6.233331e+01   4.444541e+00
   3.897283e+01   6.973091e+01
  -2.944061e+01   1.492296e+02
  -1.198019e+02   1.345651e+02
  -1.731088e+02   2.286850e+01
  -1.182943e+02  -9.247694e+01
  -7.448345e+00  -1.260001e+02
   9.012601e+01  -6.057895e+01
   6.163024e+01   1.502487e+01
  -6.069713e+01   1.903151e+01
  -1.357310e+02  -4.342253e+01
  -7.878636e+01  -1.091320e+02
   7.693892e+01  -1.093064e+02
   1.790726e+02  -3.926625e+01
   1.578319e+02   2.637766e+01
   3.480237e+01   8.515783e+01
  -6.116786e+01   7.323450e+01
  -4.677993e+01   4.002414e+00
   4.122176e+01  -3.157072e+01
   8.923610e+01   2.395251e+01
   3.173634e+01   1.124784e+02
  -8.847231e+01   1.498237e+02
  -1.697878e+02   7.222662e+01
  -1.256041e+02  -9.429233e+01
  -1.271987e+01  -1.970872e+02
   8.567229e+01  -1.426056e+02
   1.047140e+02   1.439400e+00
   6.121659e+01   1.208924e+02
  -1.583231e+00   1.073282e+02
  -4.627257e+01   1.877374e+01
  -5.008370e+01  -2.996498e+01
  -2.494042e+01  -6.732553e+00
  -4.491900e+00   1.898408e+01
  -2.511051e+01  -1.685275e+01
  -5.916164e+01  -8.805413e+01
  -4.330020e+01  -1.044546e+02
   4.636949e+01  -4.075952e+01
   1.415938e+02   4.544517e+01
   1.263609e+02   6.550724e+01
   1.714550e+01   4.914080e+01
  -8.483643e+01   2.531541e+01
  -8.971640e+01   6.985656e+00
  -1.124336e+01  -1.022625e+01
   3.688208e+01  -2.279939e+01
   1.549303e+01  -1.609429e+01
  -2.009133e+01   1.778824e+00
   6.182842e+00   8.749334e+00
   7.629195e+01   4.198306e+00
   9.461862e+01   2.184927e+01
   1.303687e+01   7.754807e+01
  -1.270505e+02   1.128474e+02
  -1.906205e+02   6.324678e+01
  -1.397661e+02  -6.796041e+01
  -3.608750e+01  -1.615573e+02
   8.330152e+01  -1.442300e+02
   1.117051e+02  -5.721346e+01
   8.288600e+01   1.982216e+01
   2.250000e+01   3.652014e+01
  -4.681926e+00   9.814425e+00
   1.012412e+01   4.459540e+00
   3.248137e+01   4.429954e+01
   1.882151e+01   9.127413e+01
  -2.484144e+01   7.513026e+01
  -8.495361e+01  -2.056967e+01
  -7.671646e+01  -1.121413e+02
  -3.316304e+00  -1.150664e+02
   8.427097e+01  -2.384630e+01
   1.102807e+02   7.465308e+01
   3.507551e+01   9.897319e+01
  -7.082749e+01   6.033629e+01
  -9.886845e+01  -1.632946e+01
  -4.046068e+01  -5.488102e+01
   3.067379e+01  -5.437583e+01
   3.319436e+01  -2.723566e+01
  -3.265992e+01   3.768367e+00
  -7.028552e+01   1.046813e+01
  -1.662647e+01  -2.627115e+01
   8.272210e+01  -6.290498e+01
   1.152370e+02  -5.710416e+01
   6.451618e+01   1.206996e+01
  -1.464286e+01   8.294670e+01
  -5.523439e+01   8.516150e+01
  -3.935619e+01   7.396510e+00
  -5.006660e+00  -5.725043e+01
   2.545324e+01  -4.768422e+01
   3.615408e+01   1.888284e+01
   2.602019e+01   5.305957e+01
  -3.045513e+00   3.508468e+01
  -3.473462e+01  -6.551427e+00
  -3.946578e+01  -2.101258e+01
  -1.955466e+01  -3.170047e+00
  -1.103935e-01   1.554425e+01
   1.508678e+00  -3.070315e-01
   3.679293e+00  -3.385348e+01
   1.379212e+01  -5.230192e+01
   3.465650e+01  -8.694272e+00
   3.177246e+01   4.471816e+01
   2.978500e-01   6.578457e+01
  -4.697552e+01   2.157593e+01
  -5.700035e+01  -4.091208e+01
  -1.842830e+01  -5.806902e+01
   5.292531e+01  -3.161916e+01
   9.219136e+01   1.660505e+01
   4.980457e+01   4.580189e+01
  -3.029164e+01   4.387290e+01
  -6.636164e+01   2.271978e+01
  -2.685959e+01   3.801204e+00
   3.673545e+01  -3.103805e+00
   3.659856e+01   1.228529e+01
  -2.613608e+01   2.923691e+01
  -9.389055e+01   2.543821e+01
