
 $NMID
 id='ANONYMOUS ', fmtdat='(2E16.6)'
 volume=1.0
 tramp=1.0
 $END
   3.298522e+03   9.968346e+01
   2.016909e+03   1.619157e+03
   2.576537e+02   1.793674e+03
  -1.191292e+03   1.222325e+03
  -8.673427e+02   2.226836e+02
  -1.735373e+02  -1.354407e+02
   2.895420e+02   2.147265e+02
   3.284054e+01   5.046616e+02
  -3.754197e+02   6.267811e+02
  -5.079799e+02   5.078679e+01
  -4.813667e+02  -4.978401e+02
   1.061231e+01  -6.210359e+02
   2.398571e+02  -2.595105e+02
   2.015983e+02   3.581677e+02
  -1.025477e+02   5.014003e+02
  -3.978873e+02   1.253237e+02
  -2.307229e+02  -5.282919e+02
   6.678860e+01  -6.359116e+02
   4.804236e+02  -3.324892e+02
   4.746002e+02   1.383243e+02
   1.403037e+02   3.604126e+02
  -1.433600e+02   2.307065e+02
  -8.134097e+01   6.586758e+01
   2.045697e+02   1.292706e+02
   2.761928e+02   2.973798e+02
  -8.573188e+01   3.921092e+02
  -4.741299e+02   1.001081e+02
  -5.591603e+02  -1.920763e+02
  -2.122946e+02  -3.581625e+02
   3.554418e+02  -1.637547e+02
   4.971501e+02   1.559117e+02
   2.024909e+02   3.541896e+02
  -2.822581e+02   3.662354e+02
  -4.814529e+02   1.240465e+02
  -3.270094e+02  -1.582850e+02
  -1.233058e+02  -2.947112e+02
  -6.394539e+00  -1.624856e+02
  -9.183133e+01   8.687876e+01
  -2.404841e+02   1.338860e+02
  -1.583593e+02  -1.412063e+02
   1.139002e+02  -4.802698e+02
   3.461526e+02  -4.427258e+02
   3.067681e+02   6.437271e+01
   9.282931e+01   3.129512e+02
  -1.700101e+02   7.105142e+01
  -1.954885e+02  -2.406409e+02
   1.058280e+02  -3.722855e+02
   4.906585e+02  -5.305063e+01
   4.897061e+02   3.722125e+02
   1.365187e+02   4.863547e+02
  -3.189009e+02   2.592998e+02
  -4.874689e+02  -6.863328e+01
  -3.415588e+02  -2.368952e+02
   6.610144e+01  -1.873527e+02
   2.757246e+02  -8.371266e+01
   1.693381e+02  -5.723278e+01
   1.195517e+01   2.768953e+01
  -2.215128e+01  -5.538729e+01
   1.061631e+02  -3.617604e+01
   2.080262e+02   1.533137e+01
   1.338451e+02   1.989092e+02
  -1.526650e+02   2.373140e+02
  -3.325655e+02   1.590399e+02
  -2.807231e+02  -9.000571e+01
   2.544335e+01  -3.242747e+02
   3.105340e+02  -3.769862e+02
   3.762032e+02  -1.675470e+02
   2.138423e+02   1.765537e+02
   2.731170e+01   3.790031e+02
  -9.599592e+00   3.173823e+02
  -1.636225e+01   1.733131e+02
  -2.798828e+01   1.344136e+02
  -1.374823e+02   1.340596e+02
  -2.531193e+02   3.892051e+01
  -2.505021e+02  -1.224881e+02
  -5.317968e+01  -2.678301e+02
   8.688849e+01  -1.957069e+02
   1.667774e+02   4.371749e+01
   1.069248e+02   2.536519e+02
  -6.531253e+01   2.277549e+02
  -2.520221e+02   5.188021e+01
  -3.174819e+02  -1.903406e+02
  -1.475887e+02  -2.964877e+02
   3.655125e+01  -2.573268e+02
   1.597491e+02  -1.339079e+02
   1.423341e+02  -9.277569e+01
   1.612722e+02  -6.737023e+01
   2.890257e+02  -3.722307e+01
   4.174284e+02   9.686826e+01
   3.079140e+02   3.024666e+02
  -2.524121e+01   4.234301e+02
  -3.946677e+02   4.092114e+02
  -4.896637e+02   1.701755e+02
  -2.778886e+02  -9.799859e+01
  -1.736126e+01  -2.491504e+02
   1.027249e+02  -1.753163e+02
  -5.998540e+00  -2.870292e+01
  -1.294174e+02   3.835914e+00
  -1.271338e+02  -6.879715e+01
   6.344247e+00  -1.296747e+02
   1.336352e+02  -1.030911e+02
   9.398258e+01   6.366629e+01
  -3.585604e+01   1.212298e+02
  -1.583237e+02  -8.074505e-01
  -1.549575e+02  -2.385020e+02
   2.156969e+01  -3.372436e+02
   2.457670e+02  -2.125569e+02
   3.695329e+02   6.269237e+01
   2.754395e+02   2.598272e+02
   4.615719e+01   3.005340e+02
  -1.343415e+02   1.371110e+02
  -1.481628e+02   8.825168e+00
  -3.029670e+01  -1.226260e+01
   4.475856e+01   7.397697e+01
  -1.934130e+01   1.201676e+02
  -1.296370e+02   6.533704e+01
  -1.330527e+02  -2.793314e+01
  -2.154120e+01  -5.914979e+01
   8.215421e+01   1.592443e+01
   3.408732e+01   1.010295e+02
  -1.556806e+02   8.466326e+01
  -3.055278e+02  -4.854448e+01
  -2.641000e+02  -1.797629e+02
  -8.509220e+00  -2.723577e+02
   2.053824e+02  -2.205182e+02
   2.710068e+02  -8.336554e+01
   1.302151e+02   6.215730e+01
  -4.003420e+01   7.283809e+01
  -6.023979e+01  -7.864858e+00
   6.073741e+01  -7.044291e+01
   1.837657e+02  -1.818700e+01
   1.770387e+02   1.179373e+02
   4.894255e+01   1.933659e+02
  -9.596857e+01   1.267312e+02
  -1.218174e+02   1.012531e+01
  -4.774908e+01  -2.844964e+01
   5.425744e+01   2.618081e+01
   3.042879e+01   1.130088e+02
  -1.030512e+02   1.227230e+02
  -2.265034e+02   1.299579e+01
  -1.797826e+02  -1.403217e+02
  -1.178380e-02  -1.999379e+02
   1.578537e+02  -1.419765e+02
   1.621818e+02  -1.108850e+01
   4.589225e+01   7.692724e+01
  -6.749215e+01   9.319857e+01
  -7.301701e+01   1.721351e+01
   1.206422e+00  -1.819462e+01
   4.412349e+01  -1.182531e+01
  -9.559996e+00   3.409666e+01
  -9.442232e+01   6.848946e+00
  -1.091750e+02  -9.325598e+01
  -8.268899e+00  -1.793507e+02
   1.458446e+02  -1.556564e+02
   2.446193e+02  -1.053601e+01
   1.816064e+02   1.598585e+02
   2.146997e+01   2.276937e+02
  -1.005335e+02   1.537129e+02
  -1.239118e+02   2.982525e+01
  -7.185417e+01  -4.292016e+01
  -3.447872e+01  -2.496206e+01
  -5.943077e+01   1.460998e+01
  -9.442084e+01   9.012190e+00
  -6.081519e+01  -5.863931e+01
   4.111775e+01  -1.037922e+02
   1.266301e+02  -6.911147e+01
   1.158921e+02   4.729462e+01
  -1.760902e+01   1.326784e+02
  -1.751093e+02   8.532855e+01
  -2.146490e+02  -6.982216e+01
  -7.737149e+01  -2.280727e+02
   1.267319e+02  -2.202203e+02
   2.715829e+02  -6.915506e+01
   2.375030e+02   8.828931e+01
   9.080078e+01   1.699564e+02
  -3.967707e+01   1.327766e+02
  -8.301192e+01   7.120961e+01
  -6.311178e+01   7.060968e+01
  -5.746340e+01   9.500857e+01
  -8.978943e+01   7.944645e+01
  -1.369888e+02  -1.829301e+01
  -1.206577e+02  -1.534595e+02
  -2.894416e+01  -2.328256e+02
   1.092110e+02  -1.674263e+02
   1.736579e+02  -7.036228e+00
   1.192399e+02   1.306974e+02
   6.855124e+00   1.634026e+02
  -7.963643e+01   7.597047e+01
  -6.284559e+01  -2.011031e+01
   4.089715e+00  -5.516778e+01
   3.015968e+01  -3.768943e+01
  -2.493564e+01  -1.631998e+01
  -8.601897e+01  -2.073040e+01
  -5.213978e+01  -4.206399e+01
   7.528539e+01  -4.315863e+01
   1.754738e+02   2.810836e+00
   1.430725e+02   6.512362e+01
  -5.696929e+00   9.807095e+01
  -1.360059e+02   7.017428e+01
  -1.511856e+02   9.731670e-01
  -4.540404e+01  -5.303164e+01
   5.977199e+01  -4.303097e+01
   7.953380e+01   1.812590e+01
   2.250126e+01   7.334711e+01
  -4.205778e+01   6.627293e+01
  -6.756824e+01   2.225530e+00
  -6.048638e+01  -5.177753e+01
  -4.798964e+01  -4.202378e+01
  -5.450268e+01  -2.887173e+00
  -6.679433e+01  -4.950620e+00
  -4.914700e+01  -7.545920e+01
   3.033499e+01  -1.550243e+02
   1.286146e+02  -1.521608e+02
   1.907853e+02  -3.485592e+01
   1.365105e+02   9.991132e+01
  -2.615809e-02   1.352699e+02
  -9.369308e+01   6.794973e+01
  -6.416937e+01  -1.016242e+01
   5.930648e+01  -2.124311e+01
   1.326634e+02   4.646460e+01
   6.602198e+01   1.088832e+02
  -8.438765e+01   1.058912e+02
  -1.923658e+02   3.814530e+01
  -1.565031e+02  -3.763051e+01
  -3.074948e+01  -8.970752e+01
   6.755235e+01  -5.994371e+01
   4.785811e+01   5.248481e+00
  -4.119973e+01   3.226201e+01
  -8.857153e+01  -2.012560e+01
  -4.240398e+01  -1.147980e+02
   8.707423e+01  -1.531816e+02
   1.532933e+02  -6.263789e+01
   1.193085e+02   9.245848e+01
   1.042601e+01   1.936646e+02
  -8.861951e+01   1.405306e+02
  -1.057776e+02  -1.178733e+01
  -5.186147e+01  -1.210515e+02
   1.813661e+01  -1.001412e+02
   5.296359e+01  -1.312203e+01
   4.374949e+01   3.691280e+01
   1.558163e+01   6.720493e+00
   6.501211e+00  -1.770575e+01
   3.445360e+01   2.371863e+01
   6.059954e+01   9.192432e+01
   2.927601e+01   1.088487e+02
  -6.245826e+01   4.207381e+01
  -1.364064e+02  -3.765145e+01
  -1.216110e+02  -6.727892e+01
  -1.886932e+01  -5.468861e+01
   7.993456e+01  -2.824915e+01
   8.931664e+01  -4.944539e+00
   2.050903e+01   1.229449e+01
  -3.489543e+01   1.874249e+01
  -2.423498e+01   1.186046e+01
   1.267045e+01  -4.755997e+00
  -6.883331e-01  -2.791158e+00
  -6.090299e+01   4.294021e+00
  -9.523145e+01  -2.144855e+01
  -2.012586e+01  -8.241477e+01
   1.001042e+02  -1.140321e+02
   1.902998e+02  -6.783489e+01
   1.517852e+02   6.179225e+01
   2.935033e+01   1.574801e+02
  -8.082495e+01   1.670124e+02
  -1.155874e+02   6.964041e+01
  -8.285427e+01  -1.876313e+01
  -2.651562e+01  -3.947424e+01
  -4.463539e+00  -1.305738e+01
  -1.526907e+01  -8.502129e+00
  -3.049727e+01  -4.766103e+01
  -1.875747e+01  -9.035290e+01
   3.202783e+01  -7.231971e+01
   7.473265e+01   1.394304e+01
   8.146723e+01   9.953565e+01
   1.669721e+01   1.093056e+02
  -7.120482e+01   3.263206e+01
  -1.099240e+02  -5.256089e+01
  -4.347079e+01  -1.023488e+02
   5.982270e+01  -6.484507e+01
   1.057149e+02   6.252199e+00
   4.957681e+01   5.960236e+01
  -3.485162e+01   6.689148e+01
  -4.414580e+01   2.996474e+01
   2.339396e+01  -8.505589e+00
   7.166200e+01  -8.890635e+00
   1.949638e+01   2.741062e+01
  -7.562871e+01   6.271726e+01
  -1.212096e+02   5.116062e+01
  -6.998763e+01  -1.891468e+01
   1.503551e+01  -8.467128e+01
   5.546942e+01  -8.604747e+01
   4.834070e+01  -1.436905e+01
   7.285348e+00   5.091130e+01
  -2.070278e+01   4.945995e+01
  -3.493943e+01  -8.190832e+00
  -2.764185e+01  -5.441280e+01
  -1.348792e+00  -4.138432e+01
   3.363656e+01   4.986594e+00
   4.180594e+01   2.447484e+01
   2.256352e+01   6.872628e+00
  -3.798881e+00  -1.994331e+01
  -8.736255e+00  -1.290206e+01
   1.429441e+00   3.144222e+01
   6.863540e+00   5.324498e+01
  -2.416767e+01   2.448926e+01
  -4.210931e+01  -3.208249e+01
  -1.323860e+01  -6.090418e+01
   3.718599e+01  -2.464974e+01
   6.251441e+01   2.884632e+01
   2.118558e+01   5.886847e+01
  -5.803085e+01   3.598358e+01
  -9.406898e+01  -9.151561e+00
  -5.391119e+01  -4.263570e+01
   2.744173e+01  -4.820412e+01
   6.359581e+01  -2.999117e+01
   2.875639e+01  -8.354410e+00
  -2.651078e+01   2.264408e+00
  -3.263853e+01  -6.530427e+00
   2.085500e+01  -2.361283e+01
   7.879400e+01  -2.355761e+01
