
 $NMID
 id='ANONYMOUS ', fmtdat='(2E16.6)'
 volume=1.0
 tramp=1.0
 $END
   3.748982e+03   4.046943e+01
   2.062514e+03   1.901865e+03
  -1.766703e+02   2.453232e+03
  -1.619380e+03   1.133959e+03
  -9.566940e+02  -2.024605e+01
   2.547968e+02  -3.126550e+02
   5.829613e+02   1.621510e+02
   2.068585e+01   7.529104e+02
  -6.744047e+02   7.260664e+02
  -6.795747e+02   1.761006e+02
  -4.121241e+02  -6.516621e+02
   8.330349e+01  -7.453835e+02
   4.020863e+02  -1.205571e+02
   2.611247e+02   4.460448e+02
  -2.252106e+02   5.926226e+02
  -4.527166e+02   8.944404e+01
  -3.313087e+02  -5.578441e+02
   1.853777e+02  -6.478458e+02
   4.952406e+02  -2.095587e+02
   4.689700e+02   2.191194e+02
   8.590230e+01   4.251550e+02
  -1.706241e+02   2.751105e+02
  -1.457995e+02   5.515006e+01
   1.247699e+02   1.731448e+01
   3.501289e+02   2.716540e+02
   7.929042e+01   3.736046e+02
  -4.175026e+02   2.459387e+02
  -6.688520e+02  -1.251995e+02
  -3.284011e+02  -4.506647e+02
   3.733675e+02  -3.054433e+02
   6.199498e+02   4.657226e+01
   2.563754e+02   4.521538e+02
  -2.306188e+02   3.778123e+02
  -4.698089e+02   1.467166e+02
  -3.615214e+02  -2.088208e+02
  -5.113748e+01  -3.662912e+02
   1.057762e+02  -2.671607e+02
   4.121198e+01   1.585848e+02
  -1.773278e+02   2.072942e+02
  -3.023042e+02  -1.056692e+02
  -1.008947e+02  -5.450256e+02
   1.973225e+02  -4.547706e+02
   4.302984e+02  -4.390616e+01
   1.743194e+02   4.469909e+02
  -1.479608e+02   2.392543e+02
  -2.706756e+02  -3.191586e+02
   1.081416e+02  -4.576706e+02
   4.864883e+02  -6.699111e+01
   5.297275e+02   3.786558e+02
   1.802793e+02   5.146437e+02
  -3.483231e+02   3.010882e+02
  -6.065928e+02  -7.832032e+01
  -3.148754e+02  -2.960665e+02
   4.694822e+01  -3.048429e+02
   3.856504e+02  -1.038190e+02
   2.436164e+02   8.713683e+01
  -2.363847e+01   5.797578e+01
  -8.089430e+01  -9.082953e+01
   1.090385e+02  -1.058017e+02
   3.019510e+02   6.184290e+01
   1.192792e+02   2.154092e+02
  -1.721735e+02   2.317017e+02
  -3.593900e+02   1.280372e+02
  -2.523314e+02  -8.092520e+01
   2.196745e+01  -2.984145e+02
   2.596722e+02  -3.401593e+02
   3.716813e+02  -1.709154e+02
   2.588531e+02   1.541593e+02
   4.409820e+01   3.570934e+02
  -7.352892e+01   3.537656e+02
  -4.776626e+01   1.650404e+02
  -3.675949e+01   7.206405e+01
  -1.063628e+02   1.256120e+02
  -2.332796e+02   9.372576e+01
  -2.442684e+02  -9.210916e+01
  -1.082488e+02  -2.669898e+02
   9.718277e+01  -2.220165e+02
   2.234074e+02   1.871373e+01
   1.625862e+02   2.555662e+02
  -3.492478e+01   2.787575e+02
  -2.682379e+02   7.480024e+01
  -3.121843e+02  -1.849883e+02
  -1.913007e+02  -3.013364e+02
   7.313740e+01  -2.517123e+02
   1.781996e+02  -1.621224e+02
   1.584084e+02  -6.501727e+01
   1.185613e+02  -6.484049e+01
   2.661891e+02  -5.445303e+01
   4.112531e+02   8.113590e+01
   3.314708e+02   2.838041e+02
  -6.436653e+00   4.529021e+02
  -3.939594e+02   4.129438e+02
  -4.641650e+02   1.609288e+02
  -3.128995e+02  -1.123642e+02
  -2.477095e+01  -2.499122e+02
   1.040416e+02  -2.291908e+02
   4.389299e+01  -2.920598e+01
  -9.751892e+01   7.286544e+01
  -1.606870e+02  -1.154772e+01
  -1.741344e+01  -1.788575e+02
   1.166160e+02  -1.236290e+02
   1.206832e+02   4.470320e+01
  -3.378015e+01   1.722554e+02
  -1.904525e+02   1.160511e+01
  -1.688037e+02  -2.346331e+02
   1.825973e+01  -3.289405e+02
   2.461615e+02  -2.028845e+02
   3.556441e+02   6.237878e+01
   2.824485e+02   2.390371e+02
   6.791909e+01   2.733523e+02
  -1.272684e+02   1.426173e+02
  -1.653805e+02   9.412014e+00
  -4.817915e+01  -2.359508e+01
   5.419345e+01   6.041772e+01
   5.710768e+00   9.921101e+01
  -1.295047e+02   8.310699e+01
  -1.615894e+02  -3.040049e+01
  -3.606016e+01  -5.664556e+01
   8.841521e+01   6.505179e-01
   4.520081e+01   8.684839e+01
  -1.319753e+02   8.588945e+01
  -2.977300e+02  -1.253446e+01
  -2.639583e+02  -1.678873e+02
  -4.309024e+01  -2.624481e+02
   1.933686e+02  -2.509837e+02
   2.642777e+02  -9.898711e+01
   1.545360e+02   3.299070e+01
  -1.576771e+01   8.974685e+01
  -6.938754e+01  -7.692620e+00
   4.971839e+01  -8.835535e+01
   1.943092e+02  -4.370180e+01
   1.963705e+02   1.020079e+02
   6.604797e+01   1.976841e+02
  -7.799951e+01   1.390862e+02
  -1.201809e+02   1.685599e+01
  -6.175115e+01  -4.247397e+01
   3.031003e+01   1.147903e+01
   3.022748e+01   9.565034e+01
  -8.627355e+01   1.203826e+02
  -2.024606e+02   1.498906e+01
  -1.922951e+02  -1.322915e+02
  -1.818473e+01  -2.098189e+02
   1.562294e+02  -1.564988e+02
   1.757043e+02  -2.049883e+01
   6.769398e+01   1.148307e+02
  -6.546633e+01   1.047326e+02
  -7.151811e+01   3.107164e+01
  -9.031965e+00  -3.020839e+01
   3.274666e+01  -9.420260e+00
  -5.798345e+00   1.924154e+01
  -8.961055e+01  -3.625620e+00
  -9.831978e+01  -9.175012e+01
  -1.662526e+01  -1.667941e+02
   1.408205e+02  -1.585331e+02
   2.292398e+02  -1.239586e+01
   2.064342e+02   1.539381e+02
   4.627983e+01   2.292542e+02
  -1.080519e+02   1.697144e+02
  -1.400280e+02   3.055343e+01
  -7.169486e+01  -4.705598e+01
  -3.103005e+01  -2.939915e+01
  -5.460213e+01   1.401871e+01
  -8.177922e+01   7.360007e+00
  -4.883757e+01  -5.346805e+01
   3.455298e+01  -1.009400e+02
   1.096813e+02  -6.090136e+01
   1.018589e+02   4.101791e+01
  -1.225319e+01   1.220728e+02
  -1.529254e+02   9.671473e+01
  -2.127599e+02  -5.820277e+01
  -9.463533e+01  -2.021821e+02
   1.275894e+02  -2.305816e+02
   2.690874e+02  -8.067211e+01
   2.543586e+02   7.970227e+01
   1.086604e+02   1.731991e+02
  -4.067142e+01   1.367769e+02
  -8.963581e+01   8.591184e+01
  -7.576142e+01   6.736943e+01
  -6.104576e+01   9.606929e+01
  -9.038889e+01   7.968511e+01
  -1.364397e+02  -1.979432e+01
  -1.170993e+02  -1.517078e+02
  -2.935715e+01  -2.308005e+02
   9.450442e+01  -1.683706e+02
   1.802890e+02  -1.564609e+01
   1.359668e+02   1.206323e+02
   1.219607e+01   1.582004e+02
  -6.902187e+01   8.324446e+01
  -6.796145e+01  -1.015052e+01
   2.052670e+00  -5.157209e+01
   2.141733e+01  -3.844432e+01
  -3.151543e+01  -1.320137e+01
  -8.367532e+01  -1.587481e+01
  -5.013375e+01  -3.927400e+01
   7.370897e+01  -3.566456e+01
   1.730412e+02  -3.162706e+00
   1.503735e+02   5.943822e+01
   4.511558e+00   9.292647e+01
  -1.316738e+02   8.513961e+01
  -1.443006e+02   6.008166e+00
  -4.885453e+01  -4.640122e+01
   5.985848e+01  -4.061476e+01
   7.726606e+01   1.658514e+01
   1.188741e+01   7.093385e+01
  -4.891040e+01   5.966766e+01
  -6.876544e+01   1.102707e+00
  -5.263501e+01  -4.786127e+01
  -4.567721e+01  -4.386606e+01
  -5.728409e+01  -1.123618e+00
  -6.486353e+01  -1.229034e+00
  -4.304427e+01  -6.855986e+01
   2.383845e+01  -1.498740e+02
   1.235011e+02  -1.474763e+02
   1.796813e+02  -3.725858e+01
   1.308769e+02   9.323707e+01
   6.323617e+00   1.331254e+02
  -9.435502e+01   6.830134e+01
  -6.209954e+01  -1.040662e+01
   5.974790e+01  -2.174181e+01
   1.339799e+02   3.873822e+01
   7.338865e+01   1.004971e+02
  -8.542526e+01   1.197215e+02
  -1.840613e+02   4.221203e+01
  -1.622398e+02  -3.751439e+01
  -3.308910e+01  -8.341487e+01
   6.014268e+01  -6.738811e+01
   4.992508e+01  -2.657074e-01
  -4.060789e+01   3.082569e+01
  -9.476876e+01  -1.535401e+01
  -3.894199e+01  -1.214250e+02
   8.388340e+01  -1.587242e+02
   1.549914e+02  -7.569161e+01
   1.263856e+02   8.303222e+01
   1.241225e+01   1.955327e+02
  -7.482412e+01   1.349631e+02
  -1.055722e+02  -9.238696e+00
  -6.159798e+01  -1.190442e+02
   6.928029e+00  -1.017388e+02
   5.384581e+01  -1.872110e+01
   4.834839e+01   3.103795e+01
   2.009908e+01   5.990814e+00
   4.636986e+00  -1.874956e+01
   3.010181e+01   1.836152e+01
   5.894673e+01   8.676662e+01
   3.961998e+01   1.092290e+02
  -5.226338e+01   4.090230e+01
  -1.306494e+02  -3.540982e+01
  -1.258246e+02  -6.265074e+01
  -1.843143e+01  -4.985133e+01
   8.240435e+01  -2.877856e+01
   8.697184e+01  -6.496974e+00
   1.376601e+01   9.176019e+00
  -3.581873e+01   2.363477e+01
  -1.775785e+01   1.459923e+01
   1.515258e+01  -1.584523e+00
  -4.918554e+00  -6.823398e+00
  -7.151553e+01  -7.626160e-01
  -9.094847e+01  -1.992142e+01
  -2.313098e+01  -7.553579e+01
   1.193224e+02  -1.136614e+02
   1.889303e+02  -7.298561e+01
   1.512088e+02   6.094341e+01
   3.676892e+01   1.536266e+02
  -8.182073e+01   1.516952e+02
  -1.127381e+02   6.501303e+01
  -8.064904e+01  -1.811544e+01
  -2.634584e+01  -3.602675e+01
  -1.140688e+00  -1.027537e+01
  -1.327470e+01  -7.996029e+00
  -3.214296e+01  -4.719761e+01
  -2.179174e+01  -9.225827e+01
   2.542445e+01  -7.406196e+01
   7.785177e+01   1.560791e+01
   7.697886e+01   9.927318e+01
   8.898825e+00   1.114561e+02
  -7.403850e+01   2.874931e+01
  -1.040511e+02  -6.927099e+01
  -3.453022e+01  -1.024167e+02
   6.250408e+01  -6.317091e+01
   1.020807e+02   8.728844e+00
   4.136772e+01   5.493375e+01
  -3.265552e+01   5.824185e+01
  -3.504430e+01   2.803096e+01
   2.827116e+01  -5.814251e+00
   6.944252e+01  -1.150698e+01
   1.702148e+01   2.775709e+01
  -7.697300e+01   6.424652e+01
  -1.159600e+02   5.644270e+01
  -6.557362e+01  -1.545512e+01
   1.129780e+01  -8.373322e+01
   5.606047e+01  -8.524872e+01
   4.075106e+01  -1.099614e+01
   8.267269e+00   5.418218e+01
  -2.484838e+01   4.593027e+01
  -3.782892e+01  -1.174258e+01
  -2.857276e+01  -5.461852e+01
   1.818189e+00  -3.862417e+01
   3.393910e+01   3.817814e+00
   4.158136e+01   2.371015e+01
   2.093454e+01   3.579510e+00
  -3.097036e+00  -1.805342e+01
  -6.232152e+00  -5.323692e+00
   3.859899e+00   3.394084e+01
  -4.409485e+00   5.177574e+01
  -3.028342e+01   2.000800e+01
  -3.711398e+01  -3.409240e+01
  -9.286259e+00  -5.703801e+01
   4.109578e+01  -2.659808e+01
   6.007396e+01   3.555557e+01
   1.802115e+01   6.097313e+01
  -5.398187e+01   3.666668e+01
  -8.781636e+01  -9.454582e+00
  -5.136645e+01  -4.304591e+01
   2.962677e+01  -4.319549e+01
   6.654111e+01  -2.779732e+01
   3.019495e+01  -6.032732e+00
  -3.132541e+01   1.129177e+00
  -3.247359e+01  -7.941459e+00
   2.246836e+01  -2.649261e+01
   8.212048e+01  -2.105330e+01
