
 $NMID
 id='ANONYMOUS ', fmtdat='(2E16.6)'
 volume=1.0
 tramp=1.0
 $END
  -3.968823e+03  -6.227562e+00
  -2.506297e+03  -2.268701e+03
   3.337791e+02  -2.683385e+03
   1.937355e+03  -8.918246e+02
   1.076232e+03   3.752326e+02
  -2.886246e+02   5.771923e+02
  -6.361372e+02  -2.827433e+02
   7.699856e+01  -8.901477e+02
   7.173022e+02  -7.090778e+02
   8.432676e+02   8.450788e+01
   4.417950e+02   7.619627e+02
  -2.543174e+02   8.894377e+02
  -4.879524e+02   1.336632e+02
  -3.603287e+02  -6.659105e+02
   2.260688e+02  -7.482030e+02
   5.767957e+02  -5.068510e+01
   2.287515e+02   6.005385e+02
  -2.786999e+02   6.460047e+02
  -5.505600e+02   1.532241e+02
  -4.313705e+02  -3.059949e+02
  -4.792954e+01  -3.887597e+02
   1.786111e+02  -2.823171e+02
   1.697798e+02  -4.200506e+01
  -1.289416e+02   3.581899e+01
  -3.103433e+02  -2.073131e+02
  -1.103079e+02  -3.794061e+02
   4.637170e+02  -3.380731e+02
   7.666280e+02   1.434858e+02
   3.492403e+02   4.927736e+02
  -4.190303e+02   3.847186e+02
  -6.150033e+02  -2.445100e+01
  -3.363438e+02  -4.139358e+02
   2.662210e+02  -4.549514e+02
   5.448928e+02  -1.640034e+02
   3.883951e+02   2.121279e+02
   6.753865e+01   4.447352e+02
  -1.548426e+02   2.507498e+02
  -6.378121e+01  -1.715955e+02
   1.567261e+02  -3.903379e+02
   2.780163e+02   1.610698e+01
   1.781387e+02   5.826058e+02
  -3.394564e+02   6.720327e+02
  -5.404598e+02   2.419582e+01
  -2.336243e+02  -4.410153e+02
   1.921804e+02  -1.862969e+02
   2.633384e+02   3.366240e+02
  -9.390558e+01   4.575194e+02
  -4.843611e+02   1.154811e+02
  -5.609276e+02  -3.504849e+02
  -1.506101e+02  -5.242744e+02
   3.357720e+02  -3.059885e+02
   5.616191e+02   5.654640e+01
   3.955447e+02   3.239447e+02
  -1.224835e+02   3.128370e+02
  -3.672378e+02   5.084066e+01
  -2.543879e+02  -1.338067e+02
   8.067195e+01  -8.559271e+01
   1.444308e+02   1.120874e+02
  -1.209869e+02   1.160026e+02
  -2.887390e+02  -5.773935e+01
  -1.377900e+02  -2.937102e+02
   2.015134e+02  -2.508089e+02
   3.502220e+02  -9.816118e+01
   2.265054e+02   8.759958e+01
  -2.132235e+01   2.860568e+02
  -2.701176e+02   3.347042e+02
  -3.627078e+02   2.041626e+02
  -2.565286e+02  -1.615738e+02
  -4.099936e+01  -4.008205e+02
   5.912375e+01  -3.550916e+02
   9.991929e+01  -1.520630e+02
  -1.109695e+01  -2.731015e+01
   7.275531e+01  -9.568737e+01
   1.913801e+02  -1.091427e+02
   2.684480e+02   6.291837e+01
   1.650677e+02   2.576212e+02
  -7.291744e+01   2.280655e+02
  -2.132558e+02  -7.713281e+00
  -1.603700e+02  -2.624338e+02
   9.653963e+00  -2.721363e+02
   2.464115e+02  -1.078744e+02
   3.388506e+02   1.867255e+02
   1.711495e+02   3.495334e+02
  -8.036218e+01   3.112068e+02
  -2.207686e+02   1.278772e+02
  -1.657098e+02   3.555846e+01
  -1.189997e+02   3.746519e+01
  -2.492493e+02   3.838020e+01
  -3.872286e+02  -6.834925e+01
  -3.191880e+02  -2.845665e+02
   1.857355e+01  -4.401924e+02
   3.732446e+02  -4.100314e+02
   4.916052e+02  -1.873992e+02
   3.220403e+02   9.873972e+01
   1.998407e+01   2.588661e+02
  -1.067084e+02   2.064816e+02
  -4.597697e+01   3.795911e+01
   1.212976e+02  -8.871342e+01
   1.776546e+02   3.273180e+01
   4.487767e+01   1.870967e+02
  -1.511542e+02   1.540874e+02
  -1.489920e+02  -6.723032e+01
   1.191503e+01  -1.779483e+02
   1.818961e+02  -3.003918e+01
   1.426873e+02   2.346545e+02
  -2.657457e+01   3.531019e+02
  -2.521812e+02   2.061358e+02
  -3.541537e+02  -7.110399e+01
  -2.696696e+02  -2.483542e+02
  -8.457909e+01  -2.643415e+02
   1.312452e+02  -1.573393e+02
   1.790587e+02  -1.757044e+01
   4.246882e+01   2.524367e+01
  -6.314799e+01  -5.444863e+01
  -1.508427e+01  -1.283728e+02
   1.280763e+02  -9.102854e+01
   1.777209e+02   1.553499e+01
   4.016463e+01   7.261339e+01
  -7.191563e+01   9.310265e+00
  -5.253361e+01  -8.175818e+01
   1.356545e+02  -7.382882e+01
   2.931555e+02   2.144072e+01
   2.625372e+02   1.538769e+02
   3.931252e+01   2.599743e+02
  -1.921967e+02   2.659120e+02
  -2.820075e+02   1.122581e+02
  -1.663516e+02  -4.303049e+01
   3.383976e+01  -9.634791e+01
   8.276763e+01  -6.660852e+00
  -3.409478e+01   9.248976e+01
  -1.767713e+02   5.891747e+01
  -1.857568e+02  -1.057214e+02
  -6.368896e+01  -2.034218e+02
   9.527602e+01  -1.490263e+02
   1.499948e+02  -3.649726e+01
   6.602767e+01   3.764817e+01
  -3.244772e+01  -7.704624e+00
  -2.706386e+01  -8.877506e+01
   7.619712e+01  -1.197033e+02
   2.042631e+02  -1.585631e+01
   1.828972e+02   1.288736e+02
   1.148354e+01   2.133449e+02
  -1.709551e+02   1.628176e+02
  -1.921030e+02   1.973361e+01
  -6.938672e+01  -1.025960e+02
   6.628317e+01  -9.886002e+01
   7.455402e+01  -3.104757e+01
   1.217970e+01   3.010943e+01
  -2.362006e+01   1.517712e+01
   9.891556e+00  -1.711840e+01
   8.419802e+01   8.225746e+00
   9.488677e+01   8.428729e+01
   9.579551e+00   1.657229e+02
  -1.348604e+02   1.463218e+02
  -2.408508e+02   1.277073e+01
  -1.937219e+02  -1.630575e+02
  -2.870615e+01  -2.368409e+02
   1.088568e+02  -1.694734e+02
   1.391808e+02  -2.840626e+01
   7.127125e+01   5.718986e+01
   2.663655e+01   3.323241e+01
   5.125277e+01  -1.369801e+01
   8.676856e+01   2.169051e-01
   5.049899e+01   5.588662e+01
  -4.301514e+01   9.519862e+01
  -1.086177e+02   6.512170e+01
  -9.275860e+01  -3.708576e+01
   2.037127e+01  -1.244044e+02
   1.552981e+02  -9.417290e+01
   2.080835e+02   5.109104e+01
   9.053044e+01   2.026448e+02
  -1.064019e+02   2.265477e+02
  -2.603384e+02   9.392342e+01
  -2.457487e+02  -8.158485e+01
  -1.009976e+02  -1.692875e+02
   4.231591e+01  -1.533097e+02
   9.167478e+01  -9.069105e+01
   8.171630e+01  -6.921084e+01
   5.876780e+01  -9.583917e+01
   9.134647e+01  -7.447885e+01
   1.268637e+02   2.437196e+01
   1.165833e+02   1.649113e+02
   2.075360e+01   2.366555e+02
  -1.004562e+02   1.701732e+02
  -1.713890e+02   7.318190e+00
  -1.278993e+02  -1.199421e+02
  -2.022360e+01  -1.616766e+02
   6.939605e+01  -8.446553e+01
   6.206029e+01   6.691386e+00
  -1.637263e+00   4.861351e+01
  -2.097554e+01   3.566700e+01
   3.467522e+01   1.577813e+01
   8.005441e+01   2.295717e+01
   4.285628e+01   4.010418e+01
  -7.082644e+01   4.001710e+01
  -1.645736e+02  -7.165384e+00
  -1.409824e+02  -5.803790e+01
  -1.344869e+01  -8.842399e+01
   1.267445e+02  -6.965754e+01
   1.459282e+02  -4.984526e+00
   4.274312e+01   4.362691e+01
  -5.948301e+01   3.908326e+01
  -8.054137e+01  -1.719035e+01
  -1.405194e+01  -7.031377e+01
   5.250041e+01  -6.493470e+01
   6.584794e+01   4.304991e+00
   4.781552e+01   4.990187e+01
   4.655889e+01   4.466946e+01
   5.795182e+01   6.190584e+00
   6.652166e+01  -7.571862e-02
   3.668276e+01   6.919813e+01
  -3.312435e+01   1.489080e+02
  -1.161057e+02   1.426294e+02
  -1.733363e+02   1.733422e+01
  -1.267251e+02  -9.686299e+01
   2.235733e-01  -1.295603e+02
   9.355059e+01  -6.489168e+01
   6.248481e+01   1.071625e+01
  -5.769597e+01   2.056428e+01
  -1.298656e+02  -4.932995e+01
  -7.248301e+01  -1.090481e+02
   8.174363e+01  -1.134475e+02
   1.960032e+02  -3.364754e+01
   1.585484e+02   3.931783e+01
   3.655574e+01   8.528295e+01
  -6.430907e+01   6.613163e+01
  -5.005837e+01   2.506376e+00
   3.892301e+01  -2.977579e+01
   9.342470e+01   2.074726e+01
   3.417517e+01   1.158017e+02
  -8.418200e+01   1.621475e+02
  -1.542387e+02   6.103458e+01
  -1.253300e+02  -1.013969e+02
  -7.490960e+00  -2.033758e+02
   8.411617e+01  -1.428846e+02
   1.021509e+02   1.341980e+01
   5.196850e+01   1.161110e+02
  -7.479057e+00   1.074919e+02
  -4.779282e+01   1.861965e+01
  -5.111723e+01  -2.818558e+01
  -2.284674e+01  -7.224634e+00
  -4.528088e+00   1.978909e+01
  -2.578695e+01  -2.005564e+01
  -5.615267e+01  -9.332444e+01
  -3.818788e+01  -1.087521e+02
   5.072969e+01  -4.519490e+01
   1.361001e+02   4.052483e+01
   1.240334e+02   6.846703e+01
   1.625428e+01   4.920908e+01
  -7.846262e+01   2.377698e+01
  -9.071324e+01   8.158231e+00
  -1.368522e+01  -9.737524e+00
   3.489357e+01  -2.110876e+01
   1.719354e+01  -1.477025e+01
  -1.640888e+01   3.629684e+00
   4.358960e+00   7.148218e+00
   6.833281e+01  -1.116773e-01
   9.433374e+01   2.393707e+01
   1.312896e+01   8.201284e+01
  -1.191573e+02   1.117977e+02
  -1.865412e+02   6.130008e+01
  -1.389076e+02  -6.773164e+01
  -3.225274e+01  -1.593881e+02
   8.872927e+01  -1.562162e+02
   1.167126e+02  -5.991270e+01
   8.019067e+01   2.275364e+01
   2.547834e+01   3.740582e+01
  -2.943849e+00   1.118232e+01
   1.230783e+01   5.967066e+00
   3.279992e+01   4.593648e+01
   2.481322e+01   9.142453e+01
  -2.725434e+01   6.983822e+01
  -8.179003e+01  -2.048191e+01
  -7.873687e+01  -1.162141e+02
  -8.549003e+00  -1.112051e+02
   8.376851e+01  -2.605952e+01
   9.817581e+01   7.063583e+01
   3.380173e+01   1.122715e+02
  -6.664158e+01   6.103203e+01
  -9.704009e+01  -1.101488e+01
  -4.023289e+01  -4.915813e+01
   3.261133e+01  -5.831011e+01
   3.371711e+01  -2.707098e+01
  -2.728559e+01  -1.662814e-01
  -6.729949e+01   6.659582e+00
  -1.638755e+01  -2.633751e+01
   7.625356e+01  -6.327845e+01
   1.196717e+02  -5.415929e+01
   6.588352e+01   1.143444e+01
  -1.367664e+01   8.437201e+01
  -5.165123e+01   7.877080e+01
  -3.912114e+01   7.665715e+00
  -3.753831e+00  -5.268182e+01
   2.583712e+01  -4.302410e+01
   3.862960e+01   1.564015e+01
   2.729454e+01   5.365677e+01
  -2.320250e+00   3.618995e+01
  -3.208491e+01  -7.468132e+00
  -4.045144e+01  -2.360107e+01
  -2.056219e+01  -3.144238e+00
   1.836466e+00   1.641760e+01
   7.058900e+00   2.404613e-01
   7.652053e-01  -3.566415e+01
   1.091211e+01  -4.941335e+01
   3.321159e+01  -1.263493e+01
   3.223677e+01   4.634014e+01
   2.084383e+00   6.198434e+01
  -4.364323e+01   2.552755e+01
  -5.949279e+01  -3.812497e+01
  -1.474270e+01  -5.890779e+01
   5.416459e+01  -3.534131e+01
   9.117792e+01   1.624720e+01
   5.030413e+01   4.055131e+01
  -3.089858e+01   4.356935e+01
  -6.720289e+01   2.408447e+01
  -2.551879e+01   4.226978e+00
   3.543127e+01   1.283094e-01
   3.228077e+01   1.381689e+01
  -2.910250e+01   3.150634e+01
  -8.617622e+01   2.285905e+01
