
 $NMID
 id='ANONYMOUS ', fmtdat='(2E16.6)'
 volume=1.0
 tramp=1.0
 $END
  -3.202035e+03  -2.678335e+02
  -2.200025e+03  -2.075098e+03
  -9.839148e+01  -2.128889e+03
   1.218260e+03  -1.291773e+03
   7.788019e+02  -1.010192e+02
   7.598640e+01   2.256435e+02
  -2.908198e+02  -1.999222e+02
   4.316805e+01  -6.258961e+02
   3.868130e+02  -4.601735e+02
   5.729204e+02  -7.009546e+01
   4.035857e+02   5.948236e+02
  -3.626021e+01   6.941283e+02
  -3.381939e+02   1.106145e+02
  -2.278440e+02  -4.615050e+02
   1.032944e+02  -5.535546e+02
   4.171902e+02  -8.361525e+01
   2.559460e+02   5.150429e+02
  -1.034414e+02   6.238332e+02
  -5.307257e+02   2.506152e+02
  -4.072239e+02  -1.363529e+02
  -1.567093e+02  -3.953235e+02
   1.198745e+02  -2.515404e+02
   7.716143e+01  -6.851401e+01
  -2.149618e+02  -1.137005e+02
  -3.492434e+02  -2.809947e+02
   5.112981e+01  -3.745306e+02
   5.012684e+02  -1.756091e+02
   6.172134e+02   1.804204e+02
   1.964023e+02   3.619867e+02
  -3.533505e+02   1.943024e+02
  -4.903937e+02  -1.201078e+02
  -2.231225e+02  -3.818947e+02
   3.080816e+02  -3.630227e+02
   5.112155e+02  -1.400386e+02
   3.501166e+02   1.731835e+02
   9.409013e+01   3.222834e+02
   2.496869e+01   1.936188e+02
   7.443400e+01  -1.164534e+02
   2.167785e+02  -2.111595e+02
   1.643787e+02   1.179416e+02
  -3.656863e+01   5.019752e+02
  -3.164560e+02   3.736981e+02
  -3.494496e+02  -2.072131e-01
  -1.000676e+02  -3.876714e+02
   1.341575e+02  -9.115444e+01
   2.121314e+02   2.660539e+02
  -1.191694e+02   4.261810e+02
  -4.820400e+02   5.898769e+01
  -4.598775e+02  -4.274222e+02
  -1.404182e+02  -4.994418e+02
   3.436096e+02  -2.657128e+02
   4.899837e+02   7.015574e+01
   3.325007e+02   2.905440e+02
  -7.468337e+01   2.093879e+02
  -3.298109e+02   8.227513e+01
  -2.136723e+02  -2.463211e+01
   1.259540e+01  -1.039021e+01
   5.801383e+01   7.300421e+01
  -1.316214e+02   4.471462e+01
  -2.226475e+02  -6.521540e+01
  -1.226121e+02  -2.369871e+02
   1.638932e+02  -2.316632e+02
   3.335021e+02  -1.410606e+02
   2.748950e+02   9.440463e+01
  -2.364633e+01   3.240845e+02
  -3.199329e+02   3.809716e+02
  -3.923732e+02   1.601993e+02
  -2.548001e+02  -1.770935e+02
  -3.532889e+01  -3.576037e+02
   3.422118e+01  -2.865174e+02
   4.019007e+01  -1.592611e+02
   1.714692e+01  -1.208060e+02
   1.199976e+02  -1.269353e+02
   2.621060e+02  -6.953226e+01
   2.684857e+02   1.409814e+02
   9.223608e+01   2.518928e+02
  -1.131946e+02   1.978549e+02
  -1.779168e+02  -4.030795e+01
  -1.329960e+02  -2.348561e+02
   6.044167e+01  -2.320784e+02
   2.481583e+02  -6.401346e+01
   3.197169e+02   2.035137e+02
   1.340391e+02   2.962751e+02
  -5.015045e+01   2.688716e+02
  -1.902843e+02   1.622381e+02
  -1.346317e+02   9.124629e+01
  -1.446268e+02   7.266881e+01
  -2.650489e+02   4.057617e+01
  -4.211572e+02  -1.033126e+02
  -3.248440e+02  -2.976743e+02
   2.950135e+01  -4.293928e+02
   3.990112e+02  -4.106096e+02
   4.833578e+02  -1.631006e+02
   2.938579e+02   8.958272e+01
   1.526259e+01   2.615224e+02
  -9.771105e+01   1.710709e+02
  -2.652015e+01   2.796949e+01
   1.434420e+02  -3.750834e+01
   1.377374e+02   3.957363e+01
   5.681042e-01   1.471913e+02
  -1.401882e+02   1.129793e+02
  -1.209008e+02  -7.123047e+01
   1.932742e+01  -1.323071e+02
   1.647972e+02  -6.755048e+00
   1.384988e+02   2.407635e+02
  -9.196208e+00   3.327656e+02
  -2.350548e+02   2.045939e+02
  -3.600644e+02  -6.579549e+01
  -2.762968e+02  -2.740657e+02
  -5.005287e+01  -2.746534e+02
   1.303052e+02  -1.420226e+02
   1.489001e+02   4.368792e+00
   3.227771e+01   4.571014e+00
  -4.888181e+01  -7.135517e+01
   2.018594e+01  -1.219996e+02
   1.303824e+02  -6.700158e+01
   1.416501e+02   3.378372e+01
   3.309230e+01   7.015412e+01
  -8.226156e+01  -1.318378e+01
  -3.374502e+01  -9.085950e+01
   1.458649e+02  -8.196079e+01
   3.032776e+02   2.719730e+01
   2.565653e+02   1.714074e+02
   9.057647e+00   2.618024e+02
  -2.083571e+02   2.363569e+02
  -2.891525e+02   9.778602e+01
  -1.340173e+02  -4.984662e+01
   3.206954e+01  -8.074889e+01
   7.337568e+01   7.466086e+00
  -5.481061e+01   7.736439e+01
  -1.811182e+02   3.576440e+01
  -1.837376e+02  -1.062996e+02
  -4.512746e+01  -1.885059e+02
   9.479109e+01  -1.275193e+02
   1.237941e+02  -2.238118e+01
   4.663634e+01   4.438917e+01
  -4.884377e+01  -1.957932e+01
  -2.474782e+01  -1.084738e+02
   1.008993e+02  -1.239010e+02
   2.118829e+02  -7.268024e+00
   1.805681e+02   1.424101e+02
   9.880812e+00   2.053779e+02
  -1.599245e+02   1.610846e+02
  -1.702144e+02   5.928280e+00
  -5.503590e+01  -8.422695e+01
   6.691052e+01  -9.767706e+01
   7.132014e+01  -1.804496e+01
   1.054011e+00   2.683546e+01
  -4.447297e+01   1.125045e+01
   9.818792e+00  -2.753170e+01
   9.072372e+01  -5.046404e+00
   1.084088e+02   9.067030e+01
   1.057339e+01   1.775372e+02
  -1.343300e+02   1.550622e+02
  -2.449992e+02   2.199918e+01
  -1.876764e+02  -1.649019e+02
  -3.261702e+01  -2.315641e+02
   1.088809e+02  -1.589460e+02
   1.264496e+02  -3.072951e+01
   6.776212e+01   4.367422e+01
   3.229880e+01   2.935881e+01
   5.657870e+01  -1.533630e+01
   8.825954e+01  -6.050450e+00
   5.484166e+01   5.606668e+01
  -3.924863e+01   1.038893e+02
  -1.255385e+02   7.646800e+01
  -1.098383e+02  -4.761917e+01
   1.707960e+01  -1.301343e+02
   1.690741e+02  -9.813201e+01
   2.211647e+02   6.845431e+01
   8.066904e+01   2.224607e+02
  -1.230605e+02   2.309262e+02
  -2.704284e+02   8.163851e+01
  -2.498267e+02  -8.954917e+01
  -9.503723e+01  -1.696978e+02
   4.405583e+01  -1.374046e+02
   8.861613e+01  -7.472709e+01
   6.767919e+01  -7.289739e+01
   5.442519e+01  -9.008235e+01
   9.215999e+01  -7.716974e+01
   1.355630e+02   2.507649e+01
   1.188134e+02   1.496508e+02
   2.871526e+01   2.300119e+02
  -1.028058e+02   1.698763e+02
  -1.767734e+02   7.273547e-01
  -1.148570e+02  -1.351279e+02
  -6.555238e+00  -1.635549e+02
   7.358666e+01  -8.394929e+01
   6.077962e+01   1.365914e+01
  -1.078471e-01   5.693152e+01
  -3.143017e+01   4.220995e+01
   2.861267e+01   1.102401e+01
   8.363594e+01   1.653162e+01
   5.189329e+01   4.122039e+01
  -7.387411e+01   4.099012e+01
  -1.732505e+02  -5.207995e-01
  -1.409928e+02  -6.171118e+01
  -6.405880e-01  -9.655953e+01
   1.334565e+02  -6.807324e+01
   1.472395e+02  -5.580940e+00
   4.768048e+01   4.890360e+01
  -6.106167e+01   4.657585e+01
  -7.643650e+01  -1.666486e+01
  -2.402764e+01  -7.263762e+01
   4.132782e+01  -6.653619e+01
   6.957266e+01  -5.950079e-01
   5.643696e+01   4.757918e+01
   4.737633e+01   4.212493e+01
   5.412730e+01  -2.599509e-02
   6.483122e+01   3.029975e+00
   4.734822e+01   7.381228e+01
  -2.665118e+01   1.558429e+02
  -1.267810e+02   1.465607e+02
  -1.861186e+02   3.330135e+01
  -1.324080e+02  -9.747719e+01
  -4.163925e+00  -1.309697e+02
   9.334071e+01  -6.889488e+01
   6.327362e+01   9.734116e+00
  -5.930044e+01   2.040616e+01
  -1.372195e+02  -3.956010e+01
  -7.183139e+01  -1.041596e+02
   8.238681e+01  -1.025662e+02
   1.911118e+02  -3.325716e+01
   1.587958e+02   4.344370e+01
   3.037721e+01   8.621258e+01
  -6.618212e+01   6.016303e+01
  -4.840067e+01   2.041394e-01
   3.949313e+01  -3.173952e+01
   8.755471e+01   2.112044e+01
   4.321386e+01   1.145814e+02
  -7.661291e+01   1.506779e+02
  -1.468832e+02   7.441421e+01
  -1.216290e+02  -8.914601e+01
  -1.265834e+01  -1.902374e+02
   7.888344e+01  -1.386728e+02
   1.038414e+02   1.339869e+01
   5.398957e+01   1.227485e+02
  -1.161108e+01   1.046252e+02
  -5.158756e+01   1.170542e+01
  -4.510722e+01  -3.513669e+01
  -1.676095e+01  -1.037615e+01
  -6.719261e+00   1.818236e+01
  -3.250833e+01  -2.430862e+01
  -5.948513e+01  -9.435221e+01
  -3.156887e+01  -1.059635e+02
   5.938769e+01  -4.376344e+01
   1.370980e+02   4.260448e+01
   1.214172e+02   6.667868e+01
   1.785149e+01   5.432401e+01
  -7.516969e+01   2.543288e+01
  -8.722134e+01   6.578269e+00
  -1.876984e+01  -1.247023e+01
   3.393570e+01  -1.934597e+01
   2.273996e+01  -1.064730e+01
  -1.505390e+01   3.277253e+00
   1.873012e+00   3.515165e+00
   6.380421e+01  -1.815225e+00
   8.946497e+01   2.451941e+01
   1.807093e+01   8.583921e+01
  -1.046728e+02   1.185981e+02
  -1.867179e+02   6.985591e+01
  -1.485831e+02  -5.242627e+01
  -3.409650e+01  -1.557762e+02
   7.721497e+01  -1.556187e+02
   1.170104e+02  -7.018658e+01
   8.167650e+01   2.010711e+01
   2.659849e+01   3.800769e+01
   3.697377e+00   1.215372e+01
   1.557091e+01   8.614554e+00
   3.280781e+01   4.763709e+01
   1.834327e+01   9.312474e+01
  -2.923057e+01   7.464705e+01
  -7.713831e+01  -1.336179e+01
  -7.954029e+01  -1.025726e+02
  -1.899467e+01  -1.104924e+02
   7.230320e+01  -3.481850e+01
   1.049745e+02   5.822859e+01
   4.193806e+01   1.034140e+02
  -5.910345e+01   6.150968e+01
  -1.017003e+02  -5.685061e+00
  -4.734390e+01  -5.761629e+01
   2.820947e+01  -6.321799e+01
   4.201228e+01  -3.039189e+01
  -2.372040e+01   7.802890e+00
  -7.063420e+01   8.546236e+00
  -2.057601e+01  -2.678959e+01
   7.811215e+01  -6.301228e+01
   1.250700e+02  -5.228553e+01
   7.388265e+01   1.757598e+01
  -1.611707e+01   8.519839e+01
  -5.636437e+01   8.694174e+01
  -4.344166e+01   1.646639e+01
  -1.039926e+01  -5.349681e+01
   2.182628e+01  -4.868002e+01
   3.637750e+01   1.131139e+01
   2.744715e+01   5.472049e+01
   1.409467e+00   3.923007e+01
  -3.217426e+01  -3.605460e+00
  -3.954983e+01  -2.500535e+01
  -2.203021e+01  -4.932698e+00
   5.059002e+00   1.832910e+01
   6.721869e+00   8.116785e+00
   2.567393e-02  -3.103659e+01
  -3.506076e+00  -5.541962e+01
   2.418859e+01  -2.407960e+01
   4.216547e+01   3.772417e+01
   7.986394e+00   5.989233e+01
  -3.946244e+01   2.256533e+01
  -6.288468e+01  -2.881958e+01
  -2.261892e+01  -5.928514e+01
   5.683309e+01  -3.875675e+01
   9.121111e+01   9.971863e+00
   5.054075e+01   4.444699e+01
  -2.730955e+01   4.594842e+01
  -6.507048e+01   3.066484e+01
  -2.815193e+01   9.396404e+00
   2.709639e+01  -2.628669e+00
   3.107850e+01   5.838369e+00
  -2.146393e+01   2.649732e+01
  -7.395576e+01   2.192680e+01
