
 $NMID
 id='ANONYMOUS ', fmtdat='(2E16.6)'
 volume=1.0
 tramp=1.0
 $END
   3.914914e+03   1.175643e+02
   1.931702e+03   2.273842e+03
  -5.678535e+02   2.490975e+03
  -1.590759e+03   1.151112e+03
  -9.329439e+02  -1.807862e+02
   1.702393e+02  -3.789887e+02
   4.640171e+02   2.289456e+02
  -1.067366e+02   7.426026e+02
  -6.796042e+02   5.971079e+02
  -6.983615e+02   1.073231e+01
  -3.254935e+02  -6.733285e+02
   1.767235e+02  -7.621716e+02
   4.274311e+02  -1.306432e+02
   2.468888e+02   4.305646e+02
  -2.242307e+02   7.059067e+02
  -5.486531e+02   9.485859e+01
  -2.719391e+02  -5.409621e+02
   1.909852e+02  -5.950770e+02
   5.653575e+02  -1.817391e+02
   4.197925e+02   2.129665e+02
   9.633170e+01   3.779768e+02
  -1.505159e+02   2.829926e+02
  -1.436556e+02   6.597759e+01
   1.917024e+02   1.831390e+01
   3.196739e+02   2.545249e+02
   2.153257e+01   4.613804e+02
  -5.070102e+02   2.345656e+02
  -6.652063e+02  -1.848292e+02
  -2.862421e+02  -4.696088e+02
   3.589632e+02  -3.179002e+02
   5.482319e+02   1.107703e+02
   2.562873e+02   4.214849e+02
  -3.507344e+02   4.297732e+02
  -5.321086e+02   1.046707e+02
  -3.538195e+02  -1.938890e+02
  -2.423852e+01  -3.712044e+02
   1.330371e+02  -2.354083e+02
  -9.871554e-01   1.441630e+02
  -1.903817e+02   2.370087e+02
  -1.994013e+02  -8.353621e+01
  -5.213320e+01  -5.670567e+02
   3.169245e+02  -5.396874e+02
   4.268974e+02   4.122064e+01
   1.664056e+02   4.378012e+02
  -1.480058e+02   2.379484e+02
  -1.640104e+02  -2.705112e+02
   1.408022e+02  -3.901739e+02
   4.781535e+02  -3.637425e+01
   5.016622e+02   3.698408e+02
   1.086141e+02   5.117947e+02
  -3.534459e+02   2.878664e+02
  -5.518624e+02  -7.749339e+01
  -3.859242e+02  -3.341031e+02
   5.431096e+01  -2.601168e+02
   3.532684e+02  -5.322933e+01
   2.049302e+02   1.003989e+02
  -5.147208e+01   5.750756e+01
  -9.415023e+01  -1.064011e+02
   1.416791e+02  -7.600864e+01
   3.048054e+02   5.702458e+01
   1.360711e+02   2.618053e+02
  -1.826038e+02   2.487566e+02
  -3.227157e+02   1.194833e+02
  -2.565816e+02  -9.701964e+01
   3.482524e+01  -2.811362e+02
   2.811163e+02  -3.527363e+02
   3.826493e+02  -1.838509e+02
   2.528965e+02   1.763061e+02
   2.825844e+01   3.539724e+02
  -6.704701e+01   3.292846e+02
  -6.352035e+01   1.380801e+02
  -2.218955e+01   6.892320e+01
  -1.108323e+02   1.111746e+02
  -2.267496e+02   6.315796e+01
  -2.676772e+02  -1.200576e+02
  -1.040897e+02  -2.595097e+02
   8.962123e+01  -2.123623e+02
   2.226431e+02   2.354241e+01
   1.289089e+02   2.623106e+02
  -3.910149e+01   2.611693e+02
  -2.594977e+02   7.264675e+01
  -3.158458e+02  -2.162078e+02
  -1.410070e+02  -3.016042e+02
   1.010235e+02  -2.731078e+02
   1.896892e+02  -1.299175e+02
   1.396583e+02  -5.463049e+01
   1.263679e+02  -4.964365e+01
   2.649610e+02  -3.824259e+01
   4.147238e+02   1.021259e+02
   3.234009e+02   3.108566e+02
  -1.611929e+01   4.679218e+02
  -3.974168e+02   4.055444e+02
  -5.105262e+02   1.673021e+02
  -3.106881e+02  -1.081550e+02
  -3.285620e+00  -2.318492e+02
   9.210836e+01  -1.932697e+02
   2.727975e+01  -3.801486e+01
  -1.127067e+02   4.257668e+01
  -1.193035e+02  -5.208649e+01
  -2.821000e+01  -1.545259e+02
   1.418765e+02  -1.295083e+02
   1.226753e+02   6.364888e+01
  -2.201146e+01   1.583142e+02
  -1.758809e+02  -2.677742e+00
  -1.319937e+02  -2.438140e+02
   3.823660e+01  -3.452789e+02
   2.351996e+02  -1.925971e+02
   3.310917e+02   6.690474e+01
   2.612113e+02   2.697672e+02
   5.697380e+01   2.731320e+02
  -1.277330e+02   1.302804e+02
  -1.589568e+02   2.926928e+00
  -2.969610e+01  -1.545531e+01
   5.484205e+01   5.595903e+01
  -5.612543e+00   1.177966e+02
  -1.431334e+02   7.927983e+01
  -1.689634e+02  -2.519014e+01
  -2.954180e+01  -6.370109e+01
   8.182505e+01   6.143065e+00
   4.928527e+01   8.474607e+01
  -1.404741e+02   8.244544e+01
  -2.877550e+02  -2.506459e+01
  -2.543053e+02  -1.691911e+02
  -3.601177e+01  -2.491411e+02
   2.012283e+02  -2.648562e+02
   2.670844e+02  -1.029676e+02
   1.523690e+02   6.147146e+01
  -3.264758e+01   8.470764e+01
  -6.878488e+01  -6.587920e+00
   5.023075e+01  -8.197947e+01
   1.900754e+02  -3.673419e+01
   1.756214e+02   1.083306e+02
   5.453307e+01   2.112937e+02
  -1.039220e+02   1.386437e+02
  -1.397280e+02   2.232649e+01
  -6.088815e+01  -3.792173e+01
   3.832462e+01   8.862836e+00
   2.829834e+01   1.021341e+02
  -9.082511e+01   1.266484e+02
  -2.133797e+02   1.380859e+01
  -1.847177e+02  -1.348511e+02
  -5.223711e+00  -2.093142e+02
   1.675877e+02  -1.460759e+02
   1.840794e+02  -8.738580e+00
   5.835154e+01   1.032364e+02
  -6.280685e+01   8.958302e+01
  -7.708069e+01   1.954347e+01
  -4.861422e+00  -2.930045e+01
   3.753869e+01  -1.277558e+01
  -8.645582e+00   2.021467e+01
  -7.937995e+01  -7.628227e+00
  -9.663343e+01  -9.190585e+01
  -6.172558e+00  -1.667097e+02
   1.438337e+02  -1.521329e+02
   2.306893e+02   7.516671e-01
   2.046565e+02   1.628616e+02
   3.514393e+01   2.302896e+02
  -1.146604e+02   1.511120e+02
  -1.321937e+02   2.651571e+01
  -6.646289e+01  -5.014398e+01
  -2.936580e+01  -3.081175e+01
  -5.538600e+01   1.129351e+01
  -8.327974e+01   4.460367e+00
  -5.077317e+01  -5.341611e+01
   4.803355e+01  -9.919299e+01
   1.173428e+02  -6.871904e+01
   1.003846e+02   3.536508e+01
  -2.716204e+01   1.266555e+02
  -1.591552e+02   9.322292e+01
  -1.910366e+02  -6.449237e+01
  -7.542774e+01  -2.112916e+02
   1.188684e+02  -2.226632e+02
   2.551135e+02  -8.084205e+01
   2.367100e+02   9.428790e+01
   9.740544e+01   1.696014e+02
  -4.712373e+01   1.391378e+02
  -1.007730e+02   7.853426e+01
  -7.695809e+01   6.156404e+01
  -6.415179e+01   9.354432e+01
  -8.521069e+01   7.606381e+01
  -1.292271e+02  -2.607492e+01
  -1.079261e+02  -1.638053e+02
  -1.103970e+01  -2.388062e+02
   9.906875e+01  -1.581419e+02
   1.736975e+02  -4.357017e+00
   1.219447e+02   1.383272e+02
   8.619254e+00   1.578503e+02
  -7.305601e+01   7.788783e+01
  -6.390681e+01  -1.297711e+01
   2.011527e+00  -5.113681e+01
   2.344394e+01  -3.528383e+01
  -3.382716e+01  -1.542052e+01
  -7.980937e+01  -2.024097e+01
  -4.651513e+01  -4.134873e+01
   7.356136e+01  -3.758770e+01
   1.667524e+02   3.714436e+00
   1.402294e+02   6.050276e+01
   1.139967e+01   9.372486e+01
  -1.327626e+02   7.350737e+01
  -1.463506e+02  -1.889926e-01
  -4.067634e+01  -5.105492e+01
   5.886965e+01  -4.052571e+01
   7.650731e+01   2.077264e+01
   1.662471e+01   6.892801e+01
  -4.972398e+01   6.507335e+01
  -6.748446e+01  -1.062269e-01
  -5.198448e+01  -5.040901e+01
  -4.211642e+01  -4.279443e+01
  -5.417200e+01  -5.227499e+00
  -6.452171e+01  -2.832563e+00
  -3.906686e+01  -7.180340e+01
   3.439704e+01  -1.408430e+02
   1.243390e+02  -1.460301e+02
   1.793707e+02  -2.203600e+01
   1.269360e+02   9.817644e+01
  -9.629389e-01   1.255186e+02
  -8.795014e+01   6.854628e+01
  -6.252102e+01  -1.141670e+01
   5.870196e+01  -1.860650e+01
   1.313472e+02   3.893010e+01
   7.020196e+01   1.033834e+02
  -9.215288e+01   1.089689e+02
  -1.836790e+02   4.568966e+01
  -1.486312e+02  -4.215562e+01
  -2.909440e+01  -8.652201e+01
   6.738111e+01  -6.437266e+01
   5.032971e+01   2.423767e+00
  -4.027215e+01   2.801912e+01
  -9.107754e+01  -2.561507e+01
  -3.454837e+01  -1.097064e+02
   8.322963e+01  -1.494167e+02
   1.545683e+02  -6.738391e+01
   1.150754e+02   1.038861e+02
   8.603567e+00   1.887984e+02
  -8.623642e+01   1.421868e+02
  -1.010338e+02  -1.729424e+01
  -5.344521e+01  -1.184347e+02
   1.303716e+01  -1.108602e+02
   4.997820e+01  -1.396488e+01
   4.686298e+01   3.349004e+01
   1.818648e+01   7.898863e+00
   5.889987e+00  -1.745381e+01
   2.872533e+01   1.914496e+01
   5.455593e+01   8.631302e+01
   3.192646e+01   1.147794e+02
  -5.796285e+01   4.261478e+01
  -1.427102e+02  -4.517578e+01
  -1.251823e+02  -7.650246e+01
  -1.658823e+01  -5.354045e+01
   7.651527e+01  -2.309084e+01
   8.672593e+01  -6.501387e+00
   1.638952e+01   1.001548e+01
  -3.507054e+01   1.971690e+01
  -1.750954e+01   1.430279e+01
   1.530102e+01  -3.261185e+00
  -2.041633e+00  -7.682165e+00
  -6.944507e+01  -1.071438e+00
  -9.572266e+01  -1.971677e+01
  -1.355316e+01  -7.858766e+01
   1.069219e+02  -1.076297e+02
   1.896983e+02  -5.991254e+01
   1.401917e+02   6.272334e+01
   2.495056e+01   1.622996e+02
  -7.374914e+01   1.485810e+02
  -1.140786e+02   5.578621e+01
  -8.315807e+01  -2.092350e+01
  -2.502398e+01  -3.678853e+01
  -1.255199e+00  -1.285765e+01
  -1.236586e+01  -8.761279e+00
  -3.075873e+01  -4.782111e+01
  -1.236776e+01  -9.198377e+01
   2.832085e+01  -7.350103e+01
   8.061658e+01   1.738841e+01
   7.155798e+01   1.077910e+02
   1.594248e+01   1.108620e+02
  -8.146428e+01   2.469776e+01
  -1.026564e+02  -6.421911e+01
  -3.371706e+01  -1.052514e+02
   6.557486e+01  -5.890090e+01
   1.002286e+02   6.100337e+00
   4.236181e+01   5.369837e+01
  -3.218511e+01   6.153156e+01
  -3.817812e+01   2.847676e+01
   2.769720e+01  -6.086610e+00
   6.744628e+01  -7.101171e+00
   1.691850e+01   2.760408e+01
  -7.596236e+01   6.435438e+01
  -1.279330e+02   5.143276e+01
  -6.821851e+01  -1.701733e+01
   1.812651e+01  -8.432169e+01
   5.622620e+01  -8.358620e+01
   4.044674e+01  -1.390958e+01
   2.337746e+00   5.124941e+01
  -2.498010e+01   4.180875e+01
  -3.717370e+01  -1.523890e+01
  -2.680831e+01  -5.469114e+01
   4.136993e+00  -3.713934e+01
   3.369565e+01   7.506164e+00
   4.068367e+01   2.612361e+01
   2.096228e+01   4.116490e+00
  -4.161709e+00  -1.918206e+01
  -6.801061e+00  -4.804768e+00
   2.303384e-01   3.237307e+01
  -7.173221e+00   4.625571e+01
  -2.872323e+01   1.438196e+01
  -3.362910e+01  -3.691921e+01
  -7.799724e-01  -6.006179e+01
   4.009008e+01  -2.514148e+01
   6.125582e+01   3.686897e+01
   1.905812e+01   6.151314e+01
  -5.275459e+01   3.527563e+01
  -8.864778e+01  -9.249401e+00
  -4.952188e+01  -4.362920e+01
   2.917474e+01  -4.259379e+01
   6.258654e+01  -2.538542e+01
   2.878913e+01  -4.956080e+00
  -3.178177e+01  -1.207373e+00
  -3.207984e+01  -7.049331e+00
   2.420015e+01  -2.428984e+01
   8.385981e+01  -1.555972e+01
