
 $NMID
 id='ANONYMOUS ', fmtdat='(2E16.6)'
 volume=1.0
 tramp=1.0
 $END
   3.865268e+03   6.297765e+01
   2.582459e+03   2.050236e+03
  -6.153395e+02   2.595802e+03
  -1.622038e+03   9.576592e+02
  -9.844330e+02  -2.702285e+02
   5.049033e+02  -3.857024e+02
   6.291808e+02   5.100181e+02
   5.759989e+01   9.758671e+02
  -6.695753e+02   7.880350e+02
  -8.489414e+02  -1.249556e+02
  -4.955852e+02  -7.662331e+02
   1.174341e+02  -7.798051e+02
   4.821397e+02  -4.068822e+01
   2.527580e+02   6.075888e+02
  -1.472468e+02   7.289122e+02
  -5.388819e+02  -1.770399e+01
  -3.087711e+02  -5.762532e+02
   2.007779e+02  -6.314603e+02
   5.390670e+02  -1.735231e+02
   4.281296e+02   3.122721e+02
   7.782002e+01   4.214212e+02
  -2.150735e+02   2.450078e+02
  -1.188614e+02   6.500737e+01
   1.770378e+02  -2.197438e+01
   3.689027e+02   1.522765e+02
   9.310417e+01   4.255670e+02
  -4.369733e+02   3.404563e+02
  -7.120597e+02  -7.428048e+01
  -4.015831e+02  -5.068697e+02
   4.437979e+02  -4.316433e+02
   6.735743e+02   9.442638e+01
   2.968357e+02   4.400451e+02
  -2.975810e+02   4.302319e+02
  -5.095781e+02   1.548357e+02
  -3.844736e+02  -1.739854e+02
  -5.979817e+01  -4.293264e+02
   1.530650e+02  -2.241617e+02
   1.484924e+02   1.767181e+02
  -2.029403e+02   3.062392e+02
  -3.510367e+02  -5.955012e+01
  -1.754048e+02  -6.143085e+02
   2.903248e+02  -6.282960e+02
   4.434200e+02  -2.688059e+01
   2.290485e+02   4.603035e+02
  -2.523574e+02   2.885717e+02
  -2.761237e+02  -2.976836e+02
   6.471105e+01  -4.849741e+02
   4.889803e+02  -9.471500e+01
   5.252758e+02   3.459015e+02
   1.789247e+02   5.375066e+02
  -3.506044e+02   2.972078e+02
  -6.141779e+02  -9.152922e+01
  -3.446744e+02  -3.144932e+02
   1.079349e+02  -3.318607e+02
   3.561041e+02  -7.882258e+01
   2.500639e+02   1.312205e+02
  -7.372948e+01   8.548565e+01
  -1.215705e+02  -5.980257e+01
   1.621301e+02  -1.349172e+02
   3.012796e+02   6.457148e+01
   1.595579e+02   2.511952e+02
  -1.917477e+02   2.731245e+02
  -3.299891e+02   1.077469e+02
  -2.173450e+02  -8.804789e+01
   5.355734e+01  -2.785359e+02
   2.425081e+02  -3.286724e+02
   3.367557e+02  -1.898547e+02
   2.714573e+02   1.350863e+02
   5.790490e+01   3.932842e+02
  -1.069199e+02   3.465883e+02
  -9.330475e+01   1.249019e+02
  -3.631834e+01   4.687482e+01
  -9.816308e+01   1.029850e+02
  -2.233524e+02   1.221243e+02
  -2.663590e+02  -7.452527e+01
  -1.208249e+02  -2.633619e+02
   7.065127e+01  -2.252285e+02
   2.116302e+02  -7.624380e+00
   1.979456e+02   2.380977e+02
  -5.283159e+01   2.866700e+02
  -2.549326e+02   9.493655e+01
  -3.308988e+02  -1.635158e+02
  -1.732021e+02  -3.500729e+02
   1.040835e+02  -2.976041e+02
   2.180792e+02  -1.367632e+02
   1.385930e+02  -3.188896e+01
   1.116692e+02  -4.671146e+01
   2.393113e+02  -4.722845e+01
   3.922090e+02   7.457531e+01
   3.210893e+02   2.859758e+02
  -7.585530e+00   4.347359e+02
  -3.635762e+02   3.989778e+02
  -5.020469e+02   1.913989e+02
  -3.015091e+02  -1.108280e+02
  -2.767396e+01  -2.921802e+02
   1.158336e+02  -2.243618e+02
   5.043294e+01  -2.756449e+01
  -1.191797e+02   9.347153e+01
  -1.748664e+02  -3.511373e+01
  -4.354218e+01  -1.628607e+02
   1.297910e+02  -1.350689e+02
   1.591659e+02   7.350028e+01
  -2.454156e+01   1.673660e+02
  -1.768880e+02   4.234815e+01
  -1.380216e+02  -2.457312e+02
   1.804535e+01  -3.410215e+02
   2.291296e+02  -1.936502e+02
   3.280493e+02   5.575590e+01
   2.767585e+02   2.530141e+02
   8.006297e+01   2.652929e+02
  -1.211718e+02   1.544827e+02
  -1.619276e+02   1.120312e+01
  -4.413966e+01  -2.499646e+01
   6.721686e+01   5.217278e+01
   2.028336e+01   1.291549e+02
  -1.140334e+02   8.922684e+01
  -1.731215e+02  -2.359363e+01
  -4.719268e+01  -6.755963e+01
   7.278652e+01  -6.308549e+00
   4.948487e+01   8.147649e+01
  -1.290394e+02   7.929474e+01
  -2.881600e+02   1.771985e+00
  -2.540003e+02  -1.516707e+02
  -4.344641e+01  -2.501609e+02
   1.914368e+02  -2.449886e+02
   2.752173e+02  -1.179388e+02
   1.655237e+02   4.701257e+01
  -2.511163e+01   9.846203e+01
  -8.058533e+01   5.825238e+00
   4.189912e+01  -9.145144e+01
   1.802070e+02  -4.393251e+01
   1.938770e+02   9.739008e+01
   6.164359e+01   1.963159e+02
  -8.874463e+01   1.480686e+02
  -1.367358e+02   2.387401e+01
  -6.161995e+01  -3.457934e+01
   3.185685e+01   5.003801e+00
   3.630113e+01   8.930956e+01
  -7.514272e+01   1.148531e+02
  -1.887222e+02   2.729736e+01
  -1.837217e+02  -1.319428e+02
  -1.526889e+01  -2.115999e+02
   1.677535e+02  -1.447987e+02
   1.806438e+02  -1.260904e+01
   6.010046e+01   1.046816e+02
  -6.606188e+01   1.059975e+02
  -7.713336e+01   2.466989e+01
  -1.258538e+01  -2.258785e+01
   2.662572e+01  -1.743348e+01
  -8.660307e+00   1.729718e+01
  -7.598539e+01  -8.074979e+00
  -9.692240e+01  -8.009147e+01
  -1.395448e+01  -1.602879e+02
   1.305377e+02  -1.520396e+02
   2.289435e+02  -2.550182e+01
   1.867914e+02   1.452323e+02
   3.431242e+01   2.183818e+02
  -9.982476e+01   1.635571e+02
  -1.322460e+02   3.058466e+01
  -7.883385e+01  -5.199364e+01
  -2.996349e+01  -3.430683e+01
  -5.049670e+01   1.448260e+01
  -8.131895e+01   6.330816e+00
  -4.577595e+01  -5.218399e+01
   4.175681e+01  -9.221161e+01
   1.126978e+02  -5.345506e+01
   9.422877e+01   2.956308e+01
  -1.007703e+01   1.175461e+02
  -1.416894e+02   8.128032e+01
  -1.932185e+02  -5.566739e+01
  -1.027567e+02  -2.023597e+02
   1.158324e+02  -2.273098e+02
   2.571348e+02  -8.758598e+01
   2.387241e+02   8.825780e+01
   1.092842e+02   1.700394e+02
  -4.646089e+01   1.423069e+02
  -8.930299e+01   7.975688e+01
  -7.600183e+01   7.132092e+01
  -6.236811e+01   8.854927e+01
  -8.979283e+01   7.110832e+01
  -1.294583e+02  -1.899464e+01
  -1.142278e+02  -1.522161e+02
  -2.674813e+01  -2.186394e+02
   9.005669e+01  -1.632363e+02
   1.730603e+02  -7.661988e+00
   1.333797e+02   1.221822e+02
   1.486971e+01   1.560664e+02
  -7.061421e+01   8.245632e+01
  -6.262476e+01  -3.368671e+00
  -1.879633e+00  -4.685135e+01
   2.054957e+01  -3.336657e+01
  -3.331755e+01  -1.550641e+01
  -8.033491e+01  -2.402479e+01
  -4.504201e+01  -3.985765e+01
   6.480672e+01  -3.591544e+01
   1.518797e+02  -2.283736e+00
   1.391055e+02   5.693927e+01
   1.158738e+01   8.995412e+01
  -1.227399e+02   7.095070e+01
  -1.433383e+02   5.939759e+00
  -4.399236e+01  -4.467080e+01
   5.665612e+01  -4.060809e+01
   7.809234e+01   1.797325e+01
   1.391045e+01   7.106721e+01
  -4.794829e+01   5.618739e+01
  -6.354213e+01  -4.638519e+00
  -5.072211e+01  -5.136921e+01
  -4.629084e+01  -4.328527e+01
  -5.883272e+01  -3.676814e+00
  -6.534924e+01  -2.773655e+00
  -3.685710e+01  -6.523638e+01
   3.419583e+01  -1.469852e+02
   1.075008e+02  -1.401895e+02
   1.638510e+02  -2.465705e+01
   1.229473e+02   8.744578e+01
   3.976488e-01   1.273203e+02
  -9.202418e+01   6.170616e+01
  -5.631545e+01  -1.368813e+01
   5.594528e+01  -2.000872e+01
   1.357122e+02   3.874741e+01
   7.874292e+01   1.116815e+02
  -8.315777e+01   1.039344e+02
  -1.763946e+02   4.915967e+01
  -1.610699e+02  -3.848433e+01
  -3.712049e+01  -8.576475e+01
   6.028708e+01  -6.978698e+01
   4.871035e+01  -3.474582e+00
  -3.994618e+01   2.859789e+01
  -9.134779e+01  -1.642995e+01
  -3.724388e+01  -1.174682e+02
   8.060697e+01  -1.502141e+02
   1.549889e+02  -7.142487e+01
   1.194376e+02   1.059052e+02
   1.050949e+01   1.934154e+02
  -8.632601e+01   1.358575e+02
  -1.079747e+02  -1.207809e+01
  -5.154742e+01  -1.110273e+02
   8.426042e+00  -9.809710e+01
   4.692784e+01  -1.715954e+01
   4.695736e+01   2.959477e+01
   2.262276e+01   7.542435e+00
   4.428996e+00  -1.951468e+01
   2.309296e+01   1.575681e+01
   5.429645e+01   8.360196e+01
   3.767095e+01   9.984808e+01
  -4.863128e+01   4.651568e+01
  -1.316453e+02  -4.240879e+01
  -1.237084e+02  -7.594438e+01
  -1.721445e+01  -4.893083e+01
   8.597229e+01  -2.016021e+01
   7.918263e+01  -8.491167e+00
   1.320955e+01   7.417027e+00
  -3.709110e+01   2.125884e+01
  -1.766803e+01   1.638146e+01
   1.718618e+01  -2.415789e+00
  -5.100911e+00  -7.923079e+00
  -6.786826e+01  -2.646580e+00
  -8.538664e+01  -2.365687e+01
  -1.286843e+01  -7.326503e+01
   1.102510e+02  -1.101764e+02
   1.836859e+02  -5.856327e+01
   1.476574e+02   6.027303e+01
   2.164722e+01   1.591447e+02
  -8.201940e+01   1.432591e+02
  -1.111523e+02   6.453927e+01
  -7.656128e+01  -1.806858e+01
  -2.392492e+01  -3.328815e+01
   2.059248e-01  -9.233331e+00
  -1.170363e+01  -5.371055e+00
  -3.060619e+01  -4.419357e+01
  -1.898012e+01  -9.299546e+01
   2.798432e+01  -6.695761e+01
   7.841602e+01   1.996592e+01
   7.251915e+01   9.988230e+01
   1.527497e+01   1.086697e+02
  -7.622445e+01   2.381705e+01
  -9.893288e+01  -7.230415e+01
  -2.766731e+01  -1.053677e+02
   6.400143e+01  -5.798805e+01
   9.468776e+01   8.169545e+00
   4.144087e+01   4.900831e+01
  -3.309065e+01   5.429478e+01
  -3.102113e+01   2.722923e+01
   3.034524e+01  -8.161370e-01
   6.815452e+01  -5.303253e+00
   1.540977e+01   2.501221e+01
  -7.544511e+01   6.398935e+01
  -1.175597e+02   5.532862e+01
  -6.281147e+01  -1.018020e+01
   1.383615e+01  -8.132889e+01
   5.510010e+01  -7.548011e+01
   3.576609e+01  -9.158713e+00
   1.120792e+00   5.239532e+01
  -2.444987e+01   4.360586e+01
  -3.424475e+01  -1.292461e+01
  -2.559497e+01  -5.310822e+01
   3.237427e+00  -3.272452e+01
   3.338105e+01   7.321086e+00
   4.126677e+01   2.235473e+01
   1.916441e+01   2.700071e+00
  -2.487652e+00  -1.491189e+01
  -4.403194e+00  -9.962571e-01
  -7.487436e-01   3.121027e+01
  -1.125962e+01   4.742090e+01
  -2.840850e+01   1.356846e+01
  -3.794145e+01  -4.028525e+01
  -4.322477e+00  -5.927650e+01
   4.011204e+01  -1.923846e+01
   5.554549e+01   3.703352e+01
   1.353545e+01   5.893096e+01
  -5.521409e+01   3.430614e+01
  -8.782345e+01  -1.108550e+01
  -4.739344e+01  -4.319208e+01
   2.634874e+01  -3.984711e+01
   6.618228e+01  -2.411117e+01
   2.563318e+01  -5.063586e+00
  -3.230292e+01   1.254907e+00
  -3.504586e+01  -1.103469e+01
   2.710754e+01  -3.064327e+01
   8.294384e+01  -1.970121e+01
