
 $NMID
 id='ANONYMOUS ', fmtdat='(2E16.6)'
 volume=1.0
 tramp=1.0
 $END
   4.363011e+03   1.237311e+02
   2.559109e+03   2.435046e+03
  -3.933653e+02   2.523201e+03
  -2.045162e+03   1.198494e+03
  -8.592907e+02  -4.995303e+02
   4.776840e+02  -5.392533e+02
   8.523585e+02   2.778815e+02
   1.075933e+02   8.123425e+02
  -6.566466e+02   6.650778e+02
  -9.149484e+02  -2.913989e+01
  -4.645753e+02  -7.966881e+02
   2.105615e+02  -8.309663e+02
   5.845909e+02  -1.666002e+02
   4.280538e+02   6.956145e+02
  -2.893487e+02   6.880760e+02
  -5.895251e+02   1.968258e+00
  -3.071350e+02  -6.908324e+02
   3.062427e+02  -6.731922e+02
   5.388602e+02  -1.929906e+02
   4.298547e+02   3.026662e+02
   4.026183e+01   4.509644e+02
  -2.269929e+02   3.069968e+02
  -1.846301e+02   1.119075e+01
   1.185606e+02  -1.739534e+01
   3.765333e+02   2.018327e+02
   1.724421e+02   4.042642e+02
  -4.904627e+02   3.981523e+02
  -8.399187e+02  -1.380666e+02
  -3.500521e+02  -4.740274e+02
   3.147805e+02  -4.175198e+02
   7.480989e+02   3.091665e+01
   3.221990e+02   4.809858e+02
  -3.008950e+02   5.150663e+02
  -5.596541e+02   2.026903e+02
  -4.061158e+02  -2.448845e+02
  -1.238797e+02  -4.491396e+02
   1.585729e+02  -2.750539e+02
   1.143571e+02   2.372162e+02
  -1.609783e+02   4.159497e+02
  -4.784171e+02  -6.323565e+01
  -2.198315e+02  -6.882245e+02
   3.445728e+02  -6.791731e+02
   5.852789e+02   3.310075e+01
   2.274214e+02   4.937677e+02
  -2.979981e+02   2.737019e+02
  -3.438442e+02  -2.865599e+02
   8.041963e+01  -5.427315e+02
   5.530613e+02  -1.729366e+02
   5.928898e+02   4.969206e+02
   2.087587e+02   5.723642e+02
  -4.147857e+02   3.643361e+02
  -6.288802e+02  -6.781292e+01
  -3.633762e+02  -3.567477e+02
   1.291685e+02  -3.520519e+02
   4.273312e+02  -8.661535e+01
   2.510676e+02   1.602227e+02
  -8.938169e+01   6.367999e+01
  -1.079275e+02  -1.315162e+02
   1.425613e+02  -1.509159e+02
   3.303872e+02   6.016386e+01
   1.444442e+02   2.713015e+02
  -1.938000e+02   2.567668e+02
  -3.373054e+02   8.524341e+01
  -2.092851e+02  -1.100368e+02
   1.353949e+01  -2.829868e+02
   2.485147e+02  -3.668527e+02
   3.517129e+02  -2.082277e+02
   2.946633e+02   1.415062e+02
   1.035382e+02   4.392272e+02
  -8.443781e+01   3.976062e+02
  -8.373968e+01   1.490244e+02
  -3.832525e+01   4.184800e+00
  -6.017917e+01   9.047331e+01
  -2.109323e+02   1.290405e+02
  -2.695266e+02  -6.026007e+01
  -1.364105e+02  -2.799186e+02
   7.976030e+01  -2.665548e+02
   2.252184e+02   6.115763e+00
   2.012054e+02   2.268326e+02
   7.217860e+00   2.899383e+02
  -2.674605e+02   1.204878e+02
  -3.767567e+02  -1.900917e+02
  -2.029035e+02  -3.388857e+02
   9.502231e+01  -3.077728e+02
   1.981150e+02  -1.603212e+02
   1.705257e+02  -1.917189e+01
   1.134307e+02  -4.222014e+01
   2.548205e+02  -7.353254e+01
   4.125970e+02   6.406864e+01
   3.393841e+02   3.052778e+02
  -2.014704e+01   4.611338e+02
  -3.593113e+02   4.282490e+02
  -4.730937e+02   1.789135e+02
  -3.307969e+02  -1.156136e+02
  -5.961963e+01  -3.272125e+02
   1.103497e+02  -2.691037e+02
   6.916678e+01  -3.353639e+01
  -1.146924e+02   9.999179e+01
  -1.901242e+02   7.225794e+00
  -2.264653e+01  -1.787758e+02
   1.442831e+02  -1.562511e+02
   1.784015e+02   4.666996e+01
  -3.618530e+01   1.902697e+02
  -1.964045e+02   3.898592e+01
  -1.774337e+02  -2.547607e+02
   3.135970e+01  -3.666284e+02
   2.577571e+02  -2.100403e+02
   3.446593e+02   6.103847e+01
   2.865560e+02   2.375745e+02
   1.060459e+02   2.872901e+02
  -1.142647e+02   1.626231e+02
  -1.726748e+02   1.386050e+01
  -5.707182e+01  -2.574969e+01
   6.195474e+01   4.929522e+01
   2.423257e+01   1.220281e+02
  -1.271501e+02   9.237671e+01
  -1.722874e+02  -2.453791e+01
  -5.956832e+01  -6.588148e+01
   8.451028e+01  -1.341491e+01
   5.230987e+01   8.444417e+01
  -1.236998e+02   9.484559e+01
  -2.946221e+02  -3.496035e+00
  -2.791440e+02  -1.525261e+02
  -5.812100e+01  -2.887130e+02
   2.145009e+02  -2.586928e+02
   2.891233e+02  -1.399351e+02
   1.638937e+02   4.732920e+01
  -2.708198e+01   1.107989e+02
  -9.192336e+01   3.727094e+00
   3.539388e+01  -1.036998e+02
   1.990037e+02  -5.731081e+01
   2.246199e+02   9.508939e+01
   5.455335e+01   2.175188e+02
  -9.555122e+01   1.648138e+02
  -1.392650e+02   1.800852e+01
  -6.629390e+01  -4.715413e+01
   3.398952e+01   5.882988e+00
   3.884836e+01   8.325019e+01
  -8.085195e+01   1.158552e+02
  -2.108474e+02   2.442009e+01
  -1.964654e+02  -1.308797e+02
  -1.553529e+01  -2.281788e+02
   1.695692e+02  -1.724613e+02
   1.903769e+02   1.088711e-01
   6.231977e+01   1.197062e+02
  -6.069023e+01   1.145131e+02
  -8.465804e+01   3.256316e+01
  -1.384448e+01  -2.596542e+01
   2.405342e+01  -1.919877e+01
  -1.262229e+01   1.342505e+01
  -7.924000e+01  -4.403541e+00
  -9.148202e+01  -8.625633e+01
  -1.454563e+01  -1.700725e+02
   1.301123e+02  -1.565696e+02
   2.399028e+02  -2.871699e+01
   2.048951e+02   1.679615e+02
   4.171124e+01   2.527252e+02
  -1.127644e+02   1.663635e+02
  -1.343238e+02   3.435682e+01
  -6.989816e+01  -5.309267e+01
  -3.070631e+01  -3.526843e+01
  -5.575939e+01   1.466878e+01
  -8.502022e+01   9.468650e+00
  -4.567862e+01  -5.159684e+01
   3.986576e+01  -9.568239e+01
   1.107470e+02  -5.941835e+01
   8.319918e+01   4.026337e+01
  -4.645103e+00   1.189229e+02
  -1.668868e+02   8.633018e+01
  -2.086382e+02  -5.855611e+01
  -1.121835e+02  -2.129604e+02
   1.121437e+02  -2.433133e+02
   2.721750e+02  -9.805383e+01
   2.606502e+02   8.857155e+01
   1.090509e+02   1.790356e+02
  -4.669804e+01   1.484102e+02
  -9.858748e+01   8.721961e+01
  -7.404532e+01   7.404946e+01
  -7.038538e+01   9.767471e+01
  -9.274453e+01   8.307376e+01
  -1.299390e+02  -1.668819e+01
  -1.228767e+02  -1.615004e+02
  -4.310120e+01  -2.399081e+02
   1.038694e+02  -1.848838e+02
   1.806621e+02  -2.547788e+01
   1.366489e+02   1.223280e+02
   1.881192e+01   1.712221e+02
  -6.352339e+01   9.337658e+01
  -5.921887e+01   4.040316e-01
   5.627173e-01  -4.612040e+01
   1.339387e+01  -3.996864e+01
  -3.421500e+01  -1.836255e+01
  -8.248839e+01  -2.417904e+01
  -4.951196e+01  -3.676308e+01
   6.910794e+01  -3.462630e+01
   1.689297e+02  -1.056950e+01
   1.522247e+02   5.482212e+01
   1.036630e+01   9.455844e+01
  -1.268313e+02   7.575100e+01
  -1.525653e+02   1.495229e+01
  -4.956858e+01  -4.504802e+01
   6.110236e+01  -4.288540e+01
   7.940546e+01   2.280950e+01
   1.177780e+01   7.232652e+01
  -5.645009e+01   5.862247e+01
  -7.023798e+01   6.438956e-01
  -5.147923e+01  -4.792615e+01
  -4.591211e+01  -4.289246e+01
  -6.323528e+01   1.277572e+00
  -6.794815e+01   2.961113e+00
  -3.862902e+01  -6.608159e+01
   3.052042e+01  -1.506996e+02
   1.144549e+02  -1.523207e+02
   1.757900e+02  -4.165599e+01
   1.346868e+02   9.115488e+01
   6.669172e+00   1.373617e+02
  -8.783243e+01   6.451706e+01
  -6.204702e+01  -1.675991e+01
   6.073664e+01  -2.042697e+01
   1.437650e+02   4.229430e+01
   8.104470e+01   1.045455e+02
  -9.071080e+01   1.157888e+02
  -2.103288e+02   5.937421e+01
  -1.697502e+02  -3.243611e+01
  -3.640766e+01  -8.282541e+01
   6.186084e+01  -7.173938e+01
   5.231830e+01  -5.592374e+00
  -3.998162e+01   2.783482e+01
  -9.043378e+01  -2.427646e+01
  -4.067079e+01  -1.203025e+02
   8.371158e+01  -1.605692e+02
   1.682095e+02  -6.475275e+01
   1.387104e+02   9.444382e+01
   1.954555e+01   2.030273e+02
  -9.117929e+01   1.422885e+02
  -1.089901e+02  -5.900250e+00
  -6.106552e+01  -1.266695e+02
   8.220452e+00  -1.080937e+02
   4.921854e+01  -1.758681e+01
   5.417717e+01   3.378079e+01
   2.537422e+01   9.858071e+00
   4.290215e+00  -1.985713e+01
   2.469164e+01   1.679043e+01
   6.186586e+01   9.314229e+01
   4.410083e+01   1.137361e+02
  -4.471551e+01   4.312124e+01
  -1.468566e+02  -4.250452e+01
  -1.287103e+02  -7.514157e+01
  -1.664694e+01  -5.274201e+01
   9.144283e+01  -2.530388e+01
   8.759005e+01  -7.912981e+00
   1.172226e+01   9.885375e+00
  -4.004138e+01   2.335615e+01
  -1.547011e+01   1.834542e+01
   2.159650e+01  -2.087665e+00
  -4.781669e+00  -7.638526e+00
  -7.446021e+01  -1.036929e+00
  -9.508316e+01  -2.965186e+01
  -1.662526e+01  -8.292618e+01
   1.211958e+02  -1.194616e+02
   1.809274e+02  -6.784879e+01
   1.442131e+02   5.842381e+01
   3.109255e+01   1.693711e+02
  -7.751815e+01   1.604769e+02
  -1.134668e+02   6.787718e+01
  -8.278918e+01  -2.216650e+01
  -2.650085e+01  -3.654343e+01
   1.355173e+00  -9.313334e+00
  -1.170229e+01  -5.000519e+00
  -3.328519e+01  -4.695858e+01
  -2.137575e+01  -9.165346e+01
   3.315515e+01  -7.662534e+01
   8.507032e+01   1.958853e+01
   8.090162e+01   1.119750e+02
   3.563901e+00   1.111301e+02
  -7.953795e+01   2.736719e+01
  -1.076790e+02  -7.098412e+01
  -4.005173e+01  -1.067266e+02
   6.364454e+01  -5.982206e+01
   9.984145e+01   8.160064e+00
   4.252337e+01   5.262928e+01
  -3.596432e+01   5.530883e+01
  -3.349923e+01   2.861275e+01
   3.293934e+01  -2.415163e+00
   7.306573e+01  -8.766488e+00
   1.659067e+01   2.714892e+01
  -8.017189e+01   6.680172e+01
  -1.211043e+02   5.936679e+01
  -6.817503e+01  -1.497180e+01
   1.504794e+01  -8.790869e+01
   5.704750e+01  -8.686079e+01
   3.898438e+01  -6.022436e+00
   5.715645e+00   5.628917e+01
  -2.722711e+01   4.404784e+01
  -3.819940e+01  -1.580507e+01
  -2.543105e+01  -5.670480e+01
   1.525176e+00  -3.533429e+01
   3.417348e+01   7.625767e+00
   3.847518e+01   2.162313e+01
   2.129496e+01   1.837781e+00
  -1.013584e+00  -1.537070e+01
  -7.761629e+00  -2.499938e+00
  -4.786594e+00   3.806626e+01
  -1.252507e+01   5.015419e+01
  -3.194015e+01   1.157352e+01
  -3.260681e+01  -4.115188e+01
  -2.474608e+00  -5.900070e+01
   4.415932e+01  -2.226788e+01
   6.016221e+01   3.652597e+01
   1.686213e+01   6.745804e+01
  -5.851685e+01   3.529399e+01
  -8.776585e+01  -1.114303e+01
  -5.298134e+01  -4.766705e+01
   2.988167e+01  -4.142264e+01
   6.730586e+01  -2.423119e+01
   2.478166e+01  -6.103273e+00
  -3.709648e+01  -4.694111e+00
  -3.575953e+01  -1.289419e+01
   2.929162e+01  -2.858566e+01
   9.113901e+01  -2.027639e+01
