
 $NMID
 id='ANONYMOUS ', fmtdat='(2E16.6)'
 volume=1.0
 tramp=1.0
 $END
  -4.334253e+03  -8.682768e+01
  -2.519347e+03  -2.282542e+03
   3.907918e+02  -2.622373e+03
   1.970010e+03  -1.020763e+03
   9.990229e+02   4.835756e+02
  -4.208647e+02   3.690945e+02
  -7.563262e+02  -3.283841e+02
  -1.554302e+01  -8.819958e+02
   6.170005e+02  -8.118652e+02
   9.500325e+02   1.303354e+02
   5.108519e+02   8.106550e+02
  -1.792788e+02   8.123015e+02
  -6.561432e+02   1.113566e+02
  -4.246919e+02  -7.395496e+02
   1.777646e+02  -6.745076e+02
   5.082813e+02   4.805880e+01
   3.513931e+02   5.875487e+02
  -2.996565e+02   6.563070e+02
  -5.348199e+02   1.767056e+02
  -4.121221e+02  -3.562461e+02
  -8.771186e+01  -4.153215e+02
   1.895474e+02  -2.814186e+02
   1.307845e+02  -4.691612e+01
  -1.414092e+02   4.550960e+01
  -3.367748e+02  -1.567243e+02
  -1.313743e+02  -4.114225e+02
   4.777324e+02  -3.855160e+02
   7.427633e+02   7.865066e+01
   3.761882e+02   4.185548e+02
  -3.256067e+02   4.575924e+02
  -7.198591e+02   1.434623e+01
  -3.299554e+02  -4.391027e+02
   2.817734e+02  -5.276731e+02
   5.429200e+02  -1.595573e+02
   3.736129e+02   1.939874e+02
   6.732551e+01   4.297055e+02
  -1.490890e+02   2.109837e+02
  -1.347723e+02  -1.953923e+02
   2.179978e+02  -4.161507e+02
   3.693081e+02   6.248096e+01
   1.864327e+02   6.133793e+02
  -3.826441e+02   6.654663e+02
  -5.221334e+02   2.868956e+00
  -2.718775e+02  -4.907433e+02
   2.831653e+02  -3.054527e+02
   3.476307e+02   2.661922e+02
  -1.007068e+02   4.997864e+02
  -5.119349e+02   1.301667e+02
  -5.237205e+02  -4.446841e+02
  -2.038989e+02  -5.523019e+02
   3.799344e+02  -3.240854e+02
   5.943659e+02   5.037298e+01
   3.779516e+02   3.591484e+02
  -1.319222e+02   3.671990e+02
  -3.974238e+02   7.868202e+01
  -2.530798e+02  -1.297830e+02
   9.661607e+01  -6.400195e+01
   1.150914e+02   9.534105e+01
  -1.239445e+02   1.552336e+02
  -3.282640e+02  -5.321915e+01
  -1.479935e+02  -2.851473e+02
   1.848028e+02  -2.417639e+02
   3.420002e+02  -9.438042e+01
   2.104292e+02   8.322445e+01
  -1.270198e+01   2.720203e+02
  -2.391537e+02   3.312326e+02
  -3.382476e+02   2.241694e+02
  -2.750974e+02  -1.138916e+02
  -7.070702e+01  -4.631492e+02
   1.087893e+02  -3.931419e+02
   8.397250e+01  -1.457282e+02
   1.539124e+01  -2.579065e+01
   4.932972e+01  -1.040135e+02
   2.176845e+02  -1.106858e+02
   2.832514e+02   6.180976e+01
   1.349807e+02   2.604493e+02
  -7.136974e+01   2.437358e+02
  -2.253950e+02   1.300921e+01
  -1.825458e+02  -2.252955e+02
   1.072657e+01  -2.816489e+02
   2.730699e+02  -1.272410e+02
   3.489077e+02   1.808324e+02
   1.954417e+02   3.265941e+02
  -1.044354e+02   2.934930e+02
  -2.178871e+02   1.496102e+02
  -1.514280e+02   1.393156e+01
  -1.062259e+02   3.731587e+01
  -2.393946e+02   7.144438e+01
  -3.820518e+02  -5.720260e+01
  -3.327029e+02  -2.678951e+02
  -5.019076e+00  -4.199054e+02
   3.601199e+02  -3.682364e+02
   4.733621e+02  -1.885043e+02
   3.125713e+02   1.163503e+02
   4.956328e+01   3.045615e+02
  -1.315576e+02   2.519222e+02
  -6.806624e+01   3.226195e+01
   1.136451e+02  -9.110550e+01
   1.845588e+02   1.362631e+00
   4.269608e+01   1.716770e+02
  -1.528544e+02   1.423449e+02
  -1.753072e+02  -6.411525e+01
   2.673601e+01  -1.682091e+02
   1.857493e+02  -3.894412e+01
   1.666576e+02   2.611022e+02
  -1.198987e+01   3.606741e+02
  -2.546530e+02   1.917677e+02
  -3.406683e+02  -5.312551e+01
  -2.741868e+02  -2.353556e+02
  -7.842629e+01  -2.609661e+02
   1.248101e+02  -1.679693e+02
   1.594152e+02  -1.761957e+01
   5.918080e+01   3.203611e+01
  -6.062720e+01  -5.176995e+01
  -2.481506e+01  -1.294811e+02
   1.234491e+02  -9.164318e+01
   1.630113e+02   4.021995e+00
   6.129390e+01   8.099612e+01
  -8.004391e+01   1.374062e+01
  -4.718828e+01  -7.553278e+01
   1.217074e+02  -9.387613e+01
   2.752718e+02  -1.214882e+01
   2.733083e+02   1.435907e+02
   3.657675e+01   2.554239e+02
  -1.872870e+02   2.357712e+02
  -2.721424e+02   1.381589e+02
  -1.696797e+02  -3.697936e+01
   3.281378e+01  -1.040431e+02
   8.456028e+01  -8.548393e+00
  -3.471660e+01   1.008917e+02
  -1.883471e+02   5.256159e+01
  -2.166358e+02  -9.282039e+01
  -8.372161e+01  -2.012293e+02
   9.388906e+01  -1.504354e+02
   1.360276e+02  -2.925089e+01
   6.345503e+01   3.757055e+01
  -2.798207e+01   7.494805e-01
  -4.018609e+01  -8.097002e+01
   8.137843e+01  -1.166661e+02
   2.022700e+02  -3.305518e+01
   1.828475e+02   1.285087e+02
   1.795776e+01   2.130639e+02
  -1.719083e+02   1.602998e+02
  -1.715055e+02   1.793546e+01
  -6.041156e+01  -1.021328e+02
   5.745978e+01  -1.132900e+02
   8.042390e+01  -3.066859e+01
   1.575076e+01   2.580586e+01
  -2.469732e+01   1.269979e+01
   1.329935e+01  -1.215220e+01
   7.616815e+01   8.012911e+00
   9.326763e+01   8.407843e+01
   2.118461e+01   1.539293e+02
  -1.318296e+02   1.548993e+02
  -2.376195e+02   3.598110e+01
  -1.998903e+02  -1.496032e+02
  -2.761614e+01  -2.237082e+02
   9.318376e+01  -1.636654e+02
   1.325399e+02  -3.396458e+01
   7.499589e+01   5.108803e+01
   2.902639e+01   3.488246e+01
   5.097324e+01  -1.327402e+01
   8.133604e+01  -9.907846e+00
   4.483009e+01   5.429897e+01
  -3.511103e+01   9.358447e+01
  -1.083115e+02   4.861848e+01
  -8.415267e+01  -3.635657e+01
   1.475910e+01  -1.157265e+02
   1.473765e+02  -7.967519e+01
   2.079007e+02   5.798405e+01
   1.091000e+02   1.956314e+02
  -1.138002e+02   2.221780e+02
  -2.628252e+02   9.266534e+01
  -2.567438e+02  -7.908527e+01
  -1.117814e+02  -1.607108e+02
   4.114919e+01  -1.446199e+02
   9.133725e+01  -8.946924e+01
   7.165061e+01  -6.574203e+01
   6.486819e+01  -9.463721e+01
   9.013263e+01  -7.220188e+01
   1.259057e+02   1.544066e+01
   1.186095e+02   1.557117e+02
   3.474261e+01   2.272775e+02
  -9.135937e+01   1.751835e+02
  -1.657542e+02   2.136444e+01
  -1.384622e+02  -1.199665e+02
  -1.910828e+01  -1.557674e+02
   6.705440e+01  -8.917781e+01
   5.626406e+01  -1.294775e+00
   3.969374e+00   4.679180e+01
  -1.516573e+01   3.671289e+01
   3.617303e+01   1.752425e+01
   8.106036e+01   2.049865e+01
   4.688057e+01   3.930227e+01
  -6.585578e+01   3.532594e+01
  -1.527901e+02   5.276331e+00
  -1.399496e+02  -5.294419e+01
  -1.601740e+01  -8.704868e+01
   1.181727e+02  -7.352330e+01
   1.487304e+02  -1.599385e+01
   4.607067e+01   4.174503e+01
  -5.965186e+01   4.285470e+01
  -7.707850e+01  -1.876841e+01
  -1.295078e+01  -7.182075e+01
   5.271610e+01  -5.691337e+01
   6.564411e+01   2.720382e-01
   4.906682e+01   4.819989e+01
   4.258575e+01   4.275743e+01
   6.095043e+01   1.223244e+00
   6.544161e+01  -1.878497e+00
   3.423413e+01   6.457563e+01
  -3.326430e+01   1.556426e+02
  -1.147211e+02   1.357974e+02
  -1.716951e+02   3.504905e+01
  -1.310913e+02  -8.433892e+01
  -9.601408e+00  -1.300586e+02
   8.636820e+01  -6.016610e+01
   5.919515e+01   1.500378e+01
  -5.686237e+01   2.124834e+01
  -1.379818e+02  -4.081198e+01
  -7.718448e+01  -1.023649e+02
   8.017130e+01  -1.122753e+02
   1.908053e+02  -5.287020e+01
   1.644698e+02   3.553677e+01
   3.881093e+01   8.179980e+01
  -5.281378e+01   6.664912e+01
  -4.792489e+01   5.958682e+00
   3.885348e+01  -2.935846e+01
   9.044647e+01   1.791543e+01
   3.736950e+01   1.184101e+02
  -8.240565e+01   1.655232e+02
  -1.516587e+02   6.809513e+01
  -1.342715e+02  -1.003693e+02
  -2.195805e+01  -2.023826e+02
   8.351208e+01  -1.416936e+02
   1.041448e+02   9.319354e+00
   5.624903e+01   1.141150e+02
  -2.692013e+00   1.034658e+02
  -4.914031e+01   1.701386e+01
  -4.771291e+01  -3.228615e+01
  -2.193192e+01  -1.005864e+01
  -2.738692e+00   1.954156e+01
  -2.062956e+01  -1.580802e+01
  -5.577131e+01  -9.023068e+01
  -4.317073e+01  -1.052183e+02
   4.238813e+01  -4.798061e+01
   1.345860e+02   3.829668e+01
   1.319199e+02   6.940476e+01
   1.832402e+01   5.046394e+01
  -8.927136e+01   2.171424e+01
  -8.538240e+01   1.087263e+01
  -1.250692e+01  -4.964740e+00
   3.718763e+01  -2.325777e+01
   1.328438e+01  -1.808214e+01
  -2.006467e+01   1.155091e+00
   5.045828e+00   7.640702e+00
   7.080251e+01   5.897981e+00
   8.727489e+01   2.650764e+01
   1.428965e+01   8.224529e+01
  -1.085430e+02   1.178864e+02
  -1.850941e+02   5.960027e+01
  -1.476031e+02  -5.861232e+01
  -2.601340e+01  -1.585230e+02
   8.332434e+01  -1.470119e+02
   1.115713e+02  -6.486582e+01
   7.620055e+01   2.226550e+01
   2.466825e+01   3.581266e+01
  -4.292548e+00   8.238744e+00
   1.166977e+01   3.687635e+00
   3.050482e+01   4.557787e+01
   2.194036e+01   9.239891e+01
  -2.927424e+01   7.264674e+01
  -8.040526e+01  -1.877880e+01
  -7.775852e+01  -1.056768e+02
  -1.050785e+01  -1.060677e+02
   8.254308e+01  -2.630736e+01
   9.866620e+01   7.044320e+01
   3.400698e+01   1.032518e+02
  -6.190443e+01   5.566936e+01
  -9.397792e+01  -6.476142e+00
  -3.822170e+01  -5.175867e+01
   3.145667e+01  -5.010987e+01
   2.992968e+01  -2.951887e+01
  -3.265256e+01   4.230956e-01
  -6.744503e+01   8.806040e+00
  -1.595845e+01  -2.627605e+01
   7.162467e+01  -6.103633e+01
   1.178284e+02  -5.572191e+01
   6.445466e+01   1.059721e+01
  -1.350430e+01   7.905144e+01
  -5.680524e+01   8.017123e+01
  -3.599101e+01   5.528497e+00
  -6.126725e+00  -5.470466e+01
   2.411184e+01  -4.505469e+01
   3.434101e+01   1.791630e+01
   2.653163e+01   5.359856e+01
  -9.720878e-01   3.363675e+01
  -3.375994e+01  -7.075963e+00
  -3.896999e+01  -1.888521e+01
  -2.033350e+01  -6.358197e-01
   1.358058e+00   1.404494e+01
   5.641504e+00   1.884048e+00
   1.078641e+00  -3.474020e+01
   1.023741e+01  -4.808115e+01
   3.124066e+01  -1.200957e+01
   3.630089e+01   3.756131e+01
   3.424713e+00   6.282282e+01
  -4.264861e+01   2.138560e+01
  -5.728262e+01  -3.566321e+01
  -1.608804e+01  -6.025812e+01
   5.698051e+01  -3.747260e+01
   9.026621e+01   7.342493e+00
   4.932467e+01   4.222476e+01
  -2.623162e+01   4.307970e+01
  -6.513177e+01   2.648379e+01
  -2.449939e+01   4.735200e+00
   3.105581e+01   6.016653e-01
   3.572090e+01   1.359733e+01
  -2.983197e+01   2.955917e+01
  -8.088443e+01   2.023470e+01
