
 $NMID
 id='ANONYMOUS ', fmtdat='(2E16.6)'
 volume=1.0
 tramp=1.0
 $END
   3.670666e+03  -1.393022e+02
   2.201468e+03   2.180711e+03
  -2.793955e+02   2.227325e+03
  -1.570279e+03   1.036066e+03
  -9.294015e+02  -4.123404e+01
   1.980118e+02  -2.100335e+02
   4.726339e+02   6.387530e+01
   1.889344e+01   7.907311e+02
  -7.604735e+02   5.781579e+02
  -6.664242e+02   5.069966e+01
  -4.478328e+02  -6.984332e+02
   1.626100e+02  -7.179631e+02
   3.945669e+02  -2.472172e+02
   3.170269e+02   4.965263e+02
  -2.691921e+02   5.855383e+02
  -4.480785e+02   5.177771e+01
  -2.584313e+02  -5.733532e+02
   2.292537e+02  -6.069521e+02
   5.076519e+02  -2.316570e+02
   4.017736e+02   2.641018e+02
   8.629990e+01   3.969038e+02
  -1.373838e+02   2.614240e+02
  -1.394823e+02   5.925791e+01
   1.534590e+02   4.417313e+01
   3.213017e+02   2.147511e+02
   9.309263e+01   3.648342e+02
  -4.593319e+02   2.866311e+02
  -7.489226e+02  -1.187742e+02
  -2.707039e+02  -4.181888e+02
   3.058487e+02  -3.502590e+02
   5.679386e+02   9.849278e+01
   2.483950e+02   3.771210e+02
  -2.566651e+02   4.072874e+02
  -4.996060e+02   1.624203e+02
  -3.568675e+02  -2.012665e+02
  -7.634074e+01  -3.300688e+02
   1.012575e+02  -1.928175e+02
   1.061108e+01   1.716706e+02
  -1.623974e+02   2.539574e+02
  -2.177438e+02  -1.579706e+02
  -1.801831e+02  -5.816418e+02
   3.219468e+02  -4.901866e+02
   4.374227e+02  -1.987581e+01
   1.888906e+02   3.875269e+02
  -1.932851e+02   1.678732e+02
  -2.815827e+02  -3.130936e+02
   8.055768e+01  -4.323655e+02
   4.952783e+02  -9.914891e+01
   5.276630e+02   3.438232e+02
   1.615333e+02   5.314769e+02
  -3.359467e+02   2.671613e+02
  -5.603450e+02  -3.944886e+01
  -3.474346e+02  -3.229751e+02
   1.029413e+02  -2.427271e+02
   3.970659e+02  -1.516888e+01
   2.138485e+02   1.118396e+02
  -5.029327e+01   5.834651e+01
  -8.878027e+01  -1.249641e+02
   1.220894e+02  -9.100555e+01
   2.996570e+02   7.080477e+01
   1.360760e+02   2.634249e+02
  -1.703624e+02   2.171808e+02
  -3.421824e+02   1.060069e+02
  -2.376977e+02  -9.040905e+01
  -7.311461e+00  -2.881491e+02
   2.748014e+02  -3.438451e+02
   3.571835e+02  -1.742477e+02
   2.683356e+02   1.599469e+02
   6.469582e+01   3.764633e+02
  -7.224025e+01   3.220057e+02
  -4.969079e+01   1.289975e+02
  -1.077480e+01   6.942276e+01
  -9.860599e+01   9.947977e+01
  -2.341444e+02   6.933401e+01
  -2.687591e+02  -8.367233e+01
  -1.088848e+02  -2.649132e+02
   8.710406e+01  -2.374305e+02
   2.173474e+02   3.734595e+01
   1.558517e+02   2.493547e+02
  -2.725691e+01   2.327278e+02
  -2.540413e+02   7.598882e+01
  -3.308177e+02  -1.696965e+02
  -1.471865e+02  -3.004764e+02
   8.679686e+01  -2.682052e+02
   2.067535e+02  -1.113933e+02
   1.542069e+02  -5.413806e+01
   1.203030e+02  -5.077213e+01
   2.779627e+02  -5.057248e+01
   4.012382e+02   7.030589e+01
   3.087389e+02   3.108232e+02
  -3.793809e+01   4.388655e+02
  -3.627833e+02   3.868607e+02
  -4.728281e+02   1.511395e+02
  -3.040712e+02  -7.976088e+01
  -1.034026e+01  -2.580969e+02
   8.499115e+01  -2.033072e+02
   4.431275e+01  -4.721247e+01
  -1.184040e+02   6.472588e+01
  -1.556146e+02  -3.468224e+01
  -3.935251e+01  -1.635665e+02
   1.501382e+02  -1.353134e+02
   1.185690e+02   7.137645e+01
  -2.669211e+01   1.403815e+02
  -1.925066e+02   6.581253e+00
  -1.555081e+02  -2.405369e+02
   2.725128e+01  -3.425813e+02
   2.427176e+02  -2.039376e+02
   3.591232e+02   7.654497e+01
   2.656652e+02   2.467150e+02
   6.978110e+01   2.613316e+02
  -1.302785e+02   1.468502e+02
  -1.674491e+02   1.009245e+01
  -4.093047e+01  -2.466126e+01
   5.863839e+01   5.354369e+01
  -1.164424e+00   1.085852e+02
  -1.360281e+02   8.407401e+01
  -1.491540e+02  -3.270398e+01
  -3.416461e+01  -6.526136e+01
   8.236649e+01  -1.980701e+00
   4.387466e+01   8.908207e+01
  -1.399040e+02   8.611916e+01
  -2.941750e+02  -2.208258e+01
  -2.546111e+02  -1.514943e+02
  -4.153731e+01  -2.587765e+02
   2.120319e+02  -2.477759e+02
   2.840025e+02  -1.097134e+02
   1.451260e+02   6.010603e+01
  -3.494608e+01   9.524288e+01
  -6.367902e+01   5.570534e-01
   3.837332e+01  -8.794592e+01
   1.978449e+02  -3.674092e+01
   1.946714e+02   1.017738e+02
   4.272269e+01   2.071796e+02
  -9.882781e+01   1.335071e+02
  -1.307514e+02   1.365305e+01
  -5.670510e+01  -4.080600e+01
   4.524201e+01   1.219970e+01
   2.756612e+01   1.000951e+02
  -8.397207e+01   1.108734e+02
  -2.017515e+02   1.511012e+01
  -1.865410e+02  -1.260699e+02
  -2.572268e+00  -2.182463e+02
   1.596964e+02  -1.454680e+02
   1.777650e+02  -1.108580e+01
   5.805806e+01   1.057269e+02
  -6.468488e+01   1.011693e+02
  -7.176182e+01   2.298022e+01
  -1.082401e+01  -2.881223e+01
   2.968454e+01  -1.148421e+01
  -1.155120e+01   1.403355e+01
  -8.259585e+01   7.845312e-01
  -9.550707e+01  -8.749304e+01
  -2.011226e+01  -1.763174e+02
   1.386595e+02  -1.424966e+02
   2.421600e+02  -1.061656e+01
   1.868225e+02   1.577701e+02
   3.711039e+01   2.255470e+02
  -1.169339e+02   1.679256e+02
  -1.377179e+02   2.804500e+01
  -6.598249e+01  -4.807213e+01
  -2.987372e+01  -3.160183e+01
  -5.504851e+01   1.453068e+01
  -8.571654e+01   4.100845e+00
  -5.021332e+01  -5.459099e+01
   4.449927e+01  -1.024273e+02
   1.180266e+02  -6.563430e+01
   9.146554e+01   4.206913e+01
  -2.071812e+01   1.349398e+02
  -1.555461e+02   8.894429e+01
  -2.102549e+02  -5.548633e+01
  -7.890270e+01  -2.072878e+02
   1.245352e+02  -2.246662e+02
   2.636105e+02  -8.256037e+01
   2.566621e+02   8.458277e+01
   9.137695e+01   1.729586e+02
  -4.018537e+01   1.355142e+02
  -9.419244e+01   7.880036e+01
  -7.143752e+01   7.090857e+01
  -6.237604e+01   8.998005e+01
  -8.805585e+01   7.541655e+01
  -1.270578e+02  -2.089279e+01
  -1.236930e+02  -1.523801e+02
  -2.600248e+01  -2.203957e+02
   1.004971e+02  -1.701178e+02
   1.658471e+02  -1.147689e+01
   1.240129e+02   1.166213e+02
   1.800292e+01   1.543569e+02
  -7.378772e+01   8.310857e+01
  -5.916449e+01  -1.328599e+01
   4.236263e+00  -5.225578e+01
   2.201528e+01  -3.857973e+01
  -2.556973e+01  -1.502320e+01
  -7.897504e+01  -1.781327e+01
  -4.797847e+01  -4.005402e+01
   6.883603e+01  -3.850299e+01
   1.728838e+02  -1.301889e+00
   1.450264e+02   5.552948e+01
   3.449845e+00   1.008749e+02
  -1.295482e+02   7.182350e+01
  -1.380872e+02   1.443500e+01
  -4.591306e+01  -5.027580e+01
   6.021422e+01  -3.900640e+01
   7.873253e+01   1.932425e+01
   1.409699e+01   6.950252e+01
  -4.903533e+01   6.694106e+01
  -6.461050e+01   6.815814e-02
  -5.802942e+01  -5.060299e+01
  -4.737271e+01  -4.530979e+01
  -5.655397e+01  -1.881015e+00
  -6.423201e+01  -3.415909e-01
  -3.970748e+01  -6.873117e+01
   2.601554e+01  -1.496376e+02
   1.274180e+02  -1.464688e+02
   1.685696e+02  -2.933519e+01
   1.303677e+02   9.327861e+01
   4.407960e+00   1.297306e+02
  -9.018612e+01   6.884524e+01
  -6.155378e+01  -1.157734e+01
   5.877775e+01  -2.010818e+01
   1.316735e+02   4.249531e+01
   6.995687e+01   1.045697e+02
  -8.304982e+01   1.134837e+02
  -1.906845e+02   4.369587e+01
  -1.584983e+02  -3.733530e+01
  -3.049775e+01  -8.635243e+01
   6.920427e+01  -6.111246e+01
   4.861110e+01   7.356343e-01
  -3.866905e+01   2.797118e+01
  -8.675495e+01  -1.724349e+01
  -3.857882e+01  -1.113105e+02
   8.827335e+01  -1.537457e+02
   1.575904e+02  -6.428209e+01
   1.203282e+02   9.604281e+01
   1.414370e+01   1.882978e+02
  -8.514617e+01   1.439087e+02
  -1.039200e+02  -1.035225e+01
  -6.131226e+01  -1.233488e+02
   1.321084e+01  -1.086797e+02
   4.817888e+01  -1.489979e+01
   4.714783e+01   3.153918e+01
   1.948087e+01   8.033133e+00
   5.161392e+00  -1.806010e+01
   2.609559e+01   1.988480e+01
   5.576902e+01   9.293832e+01
   3.888724e+01   1.054145e+02
  -5.314457e+01   4.240094e+01
  -1.332885e+02  -3.676402e+01
  -1.125788e+02  -6.850245e+01
  -1.745715e+01  -5.191025e+01
   7.980566e+01  -2.132052e+01
   8.904881e+01  -6.608119e+00
   1.718531e+01   1.223770e+01
  -3.424653e+01   2.167139e+01
  -1.864145e+01   1.330060e+01
   1.712822e+01  -5.583257e+00
  -2.383255e+00  -6.589358e+00
  -7.097596e+01   2.724572e+00
  -8.971758e+01  -1.889593e+01
  -1.870437e+01  -8.104551e+01
   1.153549e+02  -1.187881e+02
   1.776223e+02  -5.578379e+01
   1.415804e+02   6.049289e+01
   3.380720e+01   1.569672e+02
  -7.983192e+01   1.557769e+02
  -1.182785e+02   6.097099e+01
  -7.984349e+01  -1.740607e+01
  -2.587591e+01  -3.597581e+01
  -6.634645e-01  -1.252936e+01
  -1.370632e+01  -6.696906e+00
  -3.103168e+01  -4.898659e+01
  -1.800942e+01  -8.744152e+01
   2.725917e+01  -6.806832e+01
   7.542059e+01   1.386944e+01
   8.244415e+01   1.053844e+02
   1.090197e+01   1.110746e+02
  -7.470080e+01   2.767605e+01
  -9.717026e+01  -6.543098e+01
  -3.640308e+01  -1.002864e+02
   6.286128e+01  -6.218835e+01
   1.012418e+02   6.396236e+00
   4.406688e+01   5.559178e+01
  -3.144814e+01   5.993931e+01
  -3.660554e+01   3.001547e+01
   2.586731e+01  -2.225631e+00
   6.619546e+01  -8.536619e+00
   1.724053e+01   2.665950e+01
  -7.377423e+01   6.526691e+01
  -1.180858e+02   5.061740e+01
  -6.946998e+01  -1.398400e+01
   1.365417e+01  -7.929386e+01
   5.348662e+01  -7.866238e+01
   4.043629e+01  -8.135885e+00
   5.229268e+00   5.127245e+01
  -2.188543e+01   4.474758e+01
  -3.608519e+01  -1.229113e+01
  -2.943300e+01  -5.295603e+01
  -1.391199e+00  -3.849448e+01
   3.214433e+01   7.129298e+00
   4.253942e+01   2.475618e+01
   2.052145e+01   3.297958e+00
  -3.539447e+00  -1.932432e+01
  -8.187731e+00  -3.186320e+00
   7.259692e-01   3.350222e+01
  -4.992144e+00   4.720916e+01
  -2.554316e+01   1.233142e+01
  -3.563207e+01  -4.065916e+01
  -3.671272e+00  -5.916869e+01
   4.087092e+01  -2.546097e+01
   6.060932e+01   3.236570e+01
   1.846794e+01   5.521744e+01
  -5.523657e+01   3.508062e+01
  -9.254691e+01  -1.415533e+01
  -5.052528e+01  -4.158109e+01
   2.811846e+01  -4.258676e+01
   6.463152e+01  -2.769361e+01
   2.715316e+01  -6.315185e+00
  -3.102112e+01  -2.198186e+00
  -3.297052e+01  -9.530587e+00
   2.453973e+01  -2.587293e+01
   8.117804e+01  -2.001657e+01
