
 $NMID
 id='ANONYMOUS ', fmtdat='(2E16.6)'
 volume=1.0
 tramp=1.0
 $END
  -3.471044e+03   1.385595e+02
  -1.943535e+03  -1.933653e+03
   1.437642e+02  -2.268578e+03
   1.214951e+03  -1.327054e+03
   9.688449e+02  -7.313587e+01
  -7.547203e+01   4.056259e+02
  -5.298736e+02  -3.128193e+02
  -4.694387e+01  -6.730692e+02
   5.198209e+02  -5.013896e+02
   6.984677e+02   6.578104e+01
   3.772480e+02   6.754353e+02
  -7.252925e+01   6.438143e+02
  -4.735691e+02   1.546659e+02
  -2.290898e+02  -5.358984e+02
   1.120424e+02  -6.414742e+02
   4.407306e+02  -5.441547e+01
   2.677751e+02   5.576598e+02
  -1.508687e+02   5.552206e+02
  -5.777405e+02   1.560130e+02
  -3.639709e+02  -1.757762e+02
  -8.252104e+01  -4.020023e+02
   1.586513e+02  -2.451879e+02
   1.408615e+02  -4.087037e+01
  -1.442017e+02  -2.436974e+01
  -2.901255e+02  -2.268114e+02
  -4.247759e+01  -3.820911e+02
   5.214199e+02  -2.306355e+02
   6.506892e+02   1.281190e+02
   3.284864e+02   4.444471e+02
  -3.597899e+02   2.881250e+02
  -6.159536e+02  -7.189221e+01
  -2.828535e+02  -3.513758e+02
   2.553320e+02  -3.903530e+02
   5.031552e+02  -1.607715e+02
   3.294437e+02   1.898246e+02
   9.442797e+01   3.098336e+02
  -9.484549e+01   2.588162e+02
  -2.845396e+00  -1.384802e+02
   1.903379e+02  -2.400203e+02
   2.941337e+02   7.196714e+01
   3.735547e+01   5.578035e+02
  -3.019160e+02   4.961026e+02
  -4.192786e+02  -1.321611e+01
  -1.426520e+02  -4.145563e+02
   2.979919e+02  -1.842985e+02
   2.106489e+02   2.983870e+02
  -1.458821e+02   4.548079e+02
  -4.901106e+02   6.229205e+01
  -4.860384e+02  -3.803498e+02
  -1.566362e+02  -5.283368e+02
   3.305144e+02  -2.816954e+02
   5.360864e+02   4.308310e+01
   3.340424e+02   3.008073e+02
  -1.002819e+02   2.678759e+02
  -3.403137e+02   1.373708e+02
  -2.383457e+02  -6.549774e+01
   4.577137e+01  -5.573886e+01
   4.674541e+01   1.044290e+02
  -1.499137e+02   7.113698e+01
  -2.934964e+02  -5.379220e+01
  -1.219660e+02  -2.065095e+02
   1.580136e+02  -2.537781e+02
   3.268239e+02  -1.187750e+02
   2.447116e+02   9.779829e+01
  -1.080603e+01   2.785627e+02
  -2.471448e+02   3.545752e+02
  -3.761706e+02   1.817616e+02
  -2.684808e+02  -1.540407e+02
  -5.183855e+01  -3.973376e+02
   5.350241e+01  -3.285829e+02
   4.242233e+01  -1.527513e+02
   2.595123e+01  -7.894560e+01
   1.000321e+02  -1.212113e+02
   2.261974e+02  -8.087155e+01
   2.786960e+02   9.690280e+01
   8.301636e+01   2.522484e+02
  -7.446157e+01   1.988624e+02
  -1.863849e+02  -1.173322e+01
  -1.647150e+02  -2.381640e+02
   4.371177e+01  -2.650687e+02
   2.416331e+02  -8.988906e+01
   3.167688e+02   1.673734e+02
   1.566544e+02   3.000661e+02
  -6.834326e+01   2.660057e+02
  -1.702897e+02   1.410917e+02
  -1.349926e+02   4.858328e+01
  -1.220300e+02   5.404272e+01
  -2.443592e+02   4.677447e+01
  -4.023586e+02  -8.406255e+01
  -3.241009e+02  -2.764365e+02
  -8.758865e-01  -4.197867e+02
   3.535809e+02  -4.082726e+02
   4.661857e+02  -1.700480e+02
   2.873191e+02   1.051737e+02
   3.370860e+01   2.472236e+02
  -1.087140e+02   2.118430e+02
  -4.206450e+01   2.685727e+01
   1.042389e+02  -6.806897e+01
   1.661183e+02   2.347898e+01
   1.446673e+01   1.529284e+02
  -1.184108e+02   1.011038e+02
  -1.361986e+02  -5.429548e+01
  -1.874788e+00  -1.612822e+02
   1.608858e+02  -1.983486e+01
   1.468069e+02   2.361222e+02
  -2.317884e+01   3.348409e+02
  -2.354682e+02   2.022306e+02
  -3.261254e+02  -5.466167e+01
  -2.669229e+02  -2.554089e+02
  -6.979336e+01  -2.611371e+02
   1.186464e+02  -1.398681e+02
   1.527028e+02  -1.752040e+01
   3.520557e+01   2.611331e+01
  -6.042946e+01  -5.270929e+01
  -1.268132e+01  -1.152294e+02
   1.128200e+02  -8.037403e+01
   1.365470e+02   1.177921e+01
   4.121465e+01   6.439382e+01
  -7.489641e+01  -2.523953e+00
  -4.576399e+01  -8.600181e+01
   1.296966e+02  -8.468548e+01
   2.860690e+02   3.414914e+00
   2.492963e+02   1.558423e+02
   3.813820e+01   2.609175e+02
  -1.905932e+02   2.387721e+02
  -2.678716e+02   1.204404e+02
  -1.430138e+02  -4.666847e+01
   2.585265e+01  -9.061408e+01
   7.946435e+01   3.508124e+00
  -4.339278e+01   8.308185e+01
  -1.808510e+02   4.512205e+01
  -2.005615e+02  -9.665037e+01
  -4.681234e+01  -1.792538e+02
   8.607364e+01  -1.326691e+02
   1.226231e+02  -1.752889e+01
   4.926570e+01   3.805382e+01
  -3.546195e+01  -1.058182e+01
  -2.636750e+01  -9.582223e+01
   8.813301e+01  -1.147045e+02
   2.007190e+02  -2.754025e+01
   1.864232e+02   1.291304e+02
   6.549457e+00   2.115066e+02
  -1.558234e+02   1.609034e+02
  -1.804273e+02   1.278481e+01
  -5.849149e+01  -9.789923e+01
   6.264532e+01  -9.530099e+01
   7.858368e+01  -2.395895e+01
   7.227105e+00   2.857388e+01
  -3.074353e+01   1.062312e+01
   8.946455e+00  -2.254166e+01
   8.332442e+01   1.214156e-01
   9.662574e+01   8.348132e+01
   1.212487e+01   1.627954e+02
  -1.188314e+02   1.525438e+02
  -2.392122e+02   1.817133e+01
  -1.871670e+02  -1.552041e+02
  -4.041095e+01  -2.241383e+02
   9.678191e+01  -1.669563e+02
   1.261713e+02  -2.703434e+01
   7.046685e+01   4.597365e+01
   3.056548e+01   2.755380e+01
   5.256659e+01  -1.429484e+01
   8.404608e+01  -3.842061e+00
   5.396581e+01   5.516117e+01
  -4.148271e+01   9.663284e+01
  -1.112897e+02   7.026370e+01
  -9.907532e+01  -3.726186e+01
   1.633183e+01  -1.200131e+02
   1.557318e+02  -8.861044e+01
   2.039376e+02   6.032087e+01
   9.629190e+01   1.959118e+02
  -1.127029e+02   2.150685e+02
  -2.559729e+02   8.321170e+01
  -2.555606e+02  -8.230145e+01
  -8.751621e+01  -1.682369e+02
   3.965390e+01  -1.378855e+02
   8.517657e+01  -8.102149e+01
   6.801444e+01  -6.698999e+01
   5.325237e+01  -9.037070e+01
   8.903633e+01  -7.790341e+01
   1.280159e+02   2.103398e+01
   1.190947e+02   1.396065e+02
   2.959306e+01   2.175353e+02
  -1.021242e+02   1.597514e+02
  -1.754193e+02   1.039410e+01
  -1.313311e+02  -1.254736e+02
  -9.663866e+00  -1.473577e+02
   6.837162e+01  -8.249227e+01
   5.995660e+01   5.904693e+00
  -1.834543e+00   5.074970e+01
  -2.153453e+01   3.675554e+01
   3.001041e+01   1.424605e+01
   7.909860e+01   1.989633e+01
   4.513964e+01   3.848464e+01
  -6.661683e+01   3.996536e+01
  -1.637967e+02   1.311965e+00
  -1.375288e+02  -5.342154e+01
  -1.248280e+00  -9.023624e+01
   1.260807e+02  -7.404374e+01
   1.403197e+02  -9.539799e+00
   4.840767e+01   4.525989e+01
  -5.853944e+01   4.200618e+01
  -7.183328e+01  -1.691366e+01
  -1.997938e+01  -6.288992e+01
   4.483461e+01  -5.963708e+01
   6.192062e+01  -1.015684e+00
   5.322186e+01   4.641167e+01
   4.711589e+01   3.973575e+01
   5.512624e+01   1.274489e+00
   6.416055e+01   7.858612e-01
   3.953524e+01   7.083618e+01
  -2.429884e+01   1.556009e+02
  -1.165713e+02   1.479337e+02
  -1.766073e+02   3.792901e+01
  -1.207807e+02  -9.205190e+01
  -5.317332e+00  -1.262643e+02
   8.601583e+01  -6.856871e+01
   5.806078e+01   1.261492e+01
  -5.568552e+01   2.157479e+01
  -1.311763e+02  -4.273971e+01
  -7.046515e+01  -1.004630e+02
   7.730557e+01  -1.056151e+02
   1.829940e+02  -4.473784e+01
   1.553200e+02   3.531103e+01
   3.379503e+01   7.927156e+01
  -6.084188e+01   6.621702e+01
  -4.622250e+01   1.587893e+00
   3.821281e+01  -2.816656e+01
   9.227489e+01   1.644297e+01
   3.491512e+01   1.120682e+02
  -7.768777e+01   1.508665e+02
  -1.524954e+02   6.818028e+01
  -1.279837e+02  -8.980347e+01
  -1.373646e+01  -1.872760e+02
   8.442153e+01  -1.342318e+02
   1.025072e+02   8.649592e+00
   6.067938e+01   1.198299e+02
  -8.342791e+00   9.807811e+01
  -4.847120e+01   1.323101e+01
  -4.505842e+01  -3.103256e+01
  -1.878811e+01  -9.561595e+00
  -5.847485e+00   1.786663e+01
  -2.597106e+01  -1.634001e+01
  -5.631124e+01  -8.644792e+01
  -3.467337e+01  -1.091828e+02
   5.081499e+01  -4.168556e+01
   1.332547e+02   3.418273e+01
   1.173109e+02   6.836405e+01
   1.922942e+01   5.098172e+01
  -7.852080e+01   2.561501e+01
  -8.423730e+01   7.429677e+00
  -1.347993e+01  -8.345151e+00
   3.557131e+01  -1.944796e+01
   1.702353e+01  -1.333659e+01
  -1.696984e+01   2.102912e+00
   3.008380e+00   5.544945e+00
   6.892956e+01   8.228632e-01
   9.011767e+01   1.902871e+01
   1.561461e+01   7.870791e+01
  -1.106476e+02   1.167760e+02
  -1.769545e+02   6.311124e+01
  -1.440196e+02  -5.108138e+01
  -2.996892e+01  -1.544110e+02
   7.239480e+01  -1.507032e+02
   1.051921e+02  -6.083576e+01
   7.742771e+01   1.790602e+01
   2.684975e+01   3.703108e+01
   6.083359e-01   9.959044e+00
   1.263247e+01   5.594288e+00
   3.096845e+01   4.565940e+01
   1.983236e+01   8.701636e+01
  -2.899155e+01   6.920413e+01
  -7.824255e+01  -1.459373e+01
  -7.997194e+01  -9.423219e+01
  -1.280409e+01  -1.026609e+02
   7.388738e+01  -3.540688e+01
   1.042467e+02   6.708878e+01
   4.092487e+01   9.673843e+01
  -5.910093e+01   5.880819e+01
  -9.455411e+01  -6.780121e+00
  -4.137844e+01  -5.102693e+01
   2.845209e+01  -5.702033e+01
   3.376969e+01  -2.909547e+01
  -2.799900e+01   2.983034e+00
  -6.470825e+01   7.182138e+00
  -1.624365e+01  -2.588832e+01
   7.687147e+01  -6.588811e+01
   1.139471e+02  -5.505673e+01
   6.891693e+01   1.381710e+01
  -1.075423e+01   8.210432e+01
  -5.335090e+01   8.326523e+01
  -4.314610e+01   1.264561e+01
  -6.665377e+00  -5.359079e+01
   2.117541e+01  -4.686367e+01
   3.526924e+01   1.226383e+01
   2.602492e+01   5.387919e+01
  -1.962947e+00   3.390062e+01
  -3.146093e+01  -4.118901e+00
  -3.844749e+01  -2.228489e+01
  -2.142896e+01  -3.208222e+00
   3.063136e+00   1.552067e+01
   8.570175e+00   7.513858e+00
   2.961339e+00  -3.174113e+01
   2.076344e+00  -4.506679e+01
   2.724522e+01  -1.675162e+01
   3.616894e+01   3.383791e+01
   9.970506e+00   6.197272e+01
  -3.975659e+01   2.214003e+01
  -5.747650e+01  -3.564204e+01
  -1.759334e+01  -5.661531e+01
   5.332418e+01  -3.488324e+01
   8.771098e+01   1.318874e+01
   5.036407e+01   4.229021e+01
  -2.720049e+01   4.278632e+01
  -6.253067e+01   2.885981e+01
  -2.567795e+01   7.483116e+00
   3.014058e+01  -5.304390e+00
   3.090055e+01   8.906467e+00
  -2.295859e+01   2.536216e+01
  -7.427762e+01   1.949786e+01
