
 $NMID
 id='ANONYMOUS ', fmtdat='(2E16.6)'
 volume=1.0
 tramp=1.0
 $END
   3.765261e+03  -3.075204e+01
   2.329391e+03   1.612243e+03
  -3.078125e+01   2.083039e+03
  -1.554042e+03   1.161089e+03
  -9.626799e+02   1.440467e+01
   2.357560e+02  -2.654717e+02
   6.800560e+02   1.577791e+02
   1.521526e+02   6.503037e+02
  -5.528528e+02   5.859203e+02
  -8.109430e+02   8.163103e+01
  -4.105180e+02  -5.193269e+02
   3.451531e+01  -6.473060e+02
   3.461561e+02  -1.213757e+02
   3.436228e+02   5.650238e+02
  -1.576326e+02   5.956208e+02
  -4.825811e+02   5.009856e+01
  -3.326468e+02  -5.581883e+02
   1.997750e+02  -6.672857e+02
   4.253152e+02  -2.083222e+02
   4.538776e+02   1.876755e+02
   1.014270e+02   4.176469e+02
  -1.647876e+02   2.578028e+02
  -1.304615e+02   4.178272e+01
   1.779842e+02   7.057378e+01
   2.915358e+02   2.515588e+02
   3.794544e+01   3.661843e+02
  -4.733940e+02   2.028498e+02
  -6.873095e+02  -2.004455e+02
  -2.559492e+02  -4.097778e+02
   3.266586e+02  -2.785227e+02
   5.327245e+02   1.438658e+02
   2.283202e+02   4.346561e+02
  -2.883515e+02   4.029356e+02
  -5.021759e+02   1.764717e+02
  -3.792935e+02  -1.853549e+02
  -1.042435e+02  -3.619385e+02
   6.511446e+01  -2.316827e+02
  -1.336107e+01   1.073153e+02
  -1.482737e+02   2.536782e+02
  -3.358536e+02  -1.403474e+02
  -1.033464e+02  -5.401435e+02
   2.886993e+02  -5.527042e+02
   4.128475e+02  -4.961549e+01
   1.344431e+02   3.600927e+02
  -2.269562e+02   2.066421e+02
  -2.172603e+02  -2.943997e+02
   8.811134e+01  -4.691598e+02
   4.723739e+02  -1.052501e+02
   5.499673e+02   4.220707e+02
   1.974525e+02   5.174303e+02
  -2.995748e+02   2.977379e+02
  -5.854395e+02  -6.719894e+01
  -2.926386e+02  -2.849074e+02
   5.565707e+01  -2.687087e+02
   3.151209e+02  -7.300825e+01
   2.253577e+02   6.937334e+01
  -2.589687e+01   3.296652e+01
  -6.023844e+01  -9.183353e+01
   1.102155e+02  -9.765527e+01
   2.390798e+02   5.833831e+01
   1.211755e+02   2.270609e+02
  -1.561792e+02   2.358471e+02
  -3.683379e+02   1.211485e+02
  -2.563414e+02  -1.139545e+02
   2.194078e+01  -3.099099e+02
   3.077526e+02  -3.596625e+02
   3.587417e+02  -1.559697e+02
   2.551751e+02   1.641227e+02
   1.250400e+02   3.844085e+02
  -4.284293e+01   3.321184e+02
  -4.355311e+01   1.749909e+02
  -1.886813e+01   8.175212e+01
  -1.235326e+02   9.786402e+01
  -2.546833e+02   6.702559e+01
  -2.611642e+02  -1.155034e+02
  -1.156285e+02  -2.855435e+02
   1.131351e+02  -2.052709e+02
   2.134467e+02   5.548289e+01
   1.518654e+02   2.293220e+02
  -3.711314e+01   2.688334e+02
  -2.696566e+02   6.967338e+01
  -3.130453e+02  -1.715094e+02
  -1.566607e+02  -3.215968e+02
   4.787608e+01  -2.680911e+02
   1.689377e+02  -1.471180e+02
   1.631355e+02  -5.956871e+01
   1.369307e+02  -6.545612e+01
   2.864580e+02  -5.579104e+01
   4.120343e+02   1.108214e+02
   3.346935e+02   3.063593e+02
  -3.861486e+01   4.664711e+02
  -3.961598e+02   4.041889e+02
  -4.694166e+02   1.799991e+02
  -3.071239e+02  -1.133728e+02
  -3.253241e+01  -2.784430e+02
   9.964907e+01  -2.182925e+02
   3.423379e+01  -4.095046e+01
  -1.343906e+02   6.441338e+01
  -1.492702e+02  -8.774476e+00
  -1.115985e+01  -1.646375e+02
   1.515247e+02  -1.369159e+02
   1.433758e+02   4.516569e+01
  -3.724516e+01   1.495406e+02
  -1.720085e+02   5.004766e+00
  -1.683669e+02  -2.518456e+02
   2.912194e+01  -3.459833e+02
   2.627433e+02  -2.187476e+02
   3.795017e+02   6.343088e+01
   2.707267e+02   2.762364e+02
   7.672119e+01   3.007631e+02
  -1.237297e+02   1.460715e+02
  -1.707877e+02   6.729462e+00
  -4.920519e+01  -9.095134e+00
   5.707988e+01   5.720994e+01
   6.136060e+00   1.125418e+02
  -1.307015e+02   7.391126e+01
  -1.537355e+02  -4.351731e+01
  -4.822191e+01  -5.334028e+01
   9.187912e+01   7.657600e+00
   5.153766e+01   9.969510e+01
  -1.527087e+02   1.006494e+02
  -3.003918e+02  -2.413747e+01
  -2.602353e+02  -1.795353e+02
  -4.289181e+01  -2.937852e+02
   2.328118e+02  -2.475782e+02
   2.878933e+02  -9.823181e+01
   1.462163e+02   4.917397e+01
  -2.732370e+01   9.161225e+01
  -7.402580e+01   3.215850e+00
   5.144470e+01  -8.847397e+01
   1.983285e+02  -3.504272e+01
   2.059545e+02   1.041371e+02
   5.053291e+01   2.055908e+02
  -1.010744e+02   1.400059e+02
  -1.430848e+02   1.400628e+01
  -4.901613e+01  -5.013288e+01
   4.748947e+01   2.056153e+01
   3.183095e+01   1.133215e+02
  -1.033839e+02   1.200795e+02
  -2.188432e+02   1.860150e+01
  -1.929659e+02  -1.449347e+02
  -1.449432e+01  -2.212532e+02
   1.529984e+02  -1.554879e+02
   1.856377e+02  -2.075444e+00
   5.668233e+01   1.125808e+02
  -6.350756e+01   9.942639e+01
  -7.814552e+01   2.275232e+01
  -1.724275e+00  -2.119300e+01
   3.533922e+01  -1.018481e+01
  -6.470317e+00   2.255011e+01
  -8.550446e+01  -5.593597e-01
  -1.006143e+02  -9.150164e+01
  -1.068051e+01  -1.838189e+02
   1.431886e+02  -1.576658e+02
   2.395611e+02  -1.792107e+01
   2.034334e+02   1.687785e+02
   3.739756e+01   2.491699e+02
  -1.067720e+02   1.683726e+02
  -1.371928e+02   2.790365e+01
  -7.662944e+01  -4.696107e+01
  -3.555483e+01  -3.077161e+01
  -5.694214e+01   1.451568e+01
  -9.279837e+01   8.079790e+00
  -5.485697e+01  -5.767740e+01
   3.758009e+01  -1.021513e+02
   1.312614e+02  -6.715655e+01
   1.130601e+02   4.954669e+01
  -1.614915e+01   1.278802e+02
  -1.789256e+02   8.856448e+01
  -2.149273e+02  -6.947501e+01
  -9.465298e+01  -2.326804e+02
   1.402586e+02  -2.430247e+02
   2.837297e+02  -8.733938e+01
   2.654723e+02   9.512358e+01
   1.059620e+02   1.771089e+02
  -4.133366e+01   1.522498e+02
  -9.608912e+01   8.063367e+01
  -6.887370e+01   7.454467e+01
  -6.846901e+01   9.756234e+01
  -9.278900e+01   8.379851e+01
  -1.362952e+02  -1.528611e+01
  -1.321865e+02  -1.593133e+02
  -2.789108e+01  -2.327727e+02
   1.035418e+02  -1.813957e+02
   1.752788e+02  -1.064278e+01
   1.400462e+02   1.236046e+02
   4.971017e+00   1.662065e+02
  -7.000093e+01   9.150989e+01
  -6.567955e+01  -1.014556e+01
   3.675991e+00  -5.099439e+01
   2.713446e+01  -3.487984e+01
  -2.543213e+01  -1.122064e+01
  -8.861967e+01  -2.112144e+01
  -5.050597e+01  -4.025485e+01
   7.600072e+01  -4.093542e+01
   1.777214e+02  -8.608348e-01
   1.503589e+02   6.757778e+01
  -9.842148e-01   1.067945e+02
  -1.389507e+02   7.447934e+01
  -1.546551e+02   1.332871e+01
  -4.704399e+01  -5.201513e+01
   6.405090e+01  -4.448467e+01
   8.069819e+01   2.123088e+01
   1.848849e+01   7.872595e+01
  -4.804568e+01   6.621384e+01
  -6.934364e+01   3.201298e+00
  -5.846741e+01  -5.718616e+01
  -5.118876e+01  -4.528455e+01
  -5.641565e+01  -1.887815e+00
  -6.678943e+01  -1.145327e+00
  -4.345715e+01  -7.483381e+01
   2.484872e+01  -1.556713e+02
   1.298497e+02  -1.486679e+02
   1.820233e+02  -3.899582e+01
   1.330163e+02   9.778601e+01
   1.693923e+00   1.407750e+02
  -9.720164e+01   6.992611e+01
  -6.661536e+01  -1.373843e+01
   6.232045e+01  -2.070036e+01
   1.416547e+02   4.173852e+01
   7.290831e+01   1.105916e+02
  -1.007136e+02   1.207444e+02
  -1.997300e+02   4.608213e+01
  -1.656465e+02  -4.398962e+01
  -3.215079e+01  -9.085454e+01
   6.583405e+01  -6.177197e+01
   5.129093e+01  -4.022646e-02
  -4.016169e+01   3.035201e+01
  -9.336102e+01  -2.396470e+01
  -4.111368e+01  -1.218535e+02
   8.440910e+01  -1.624625e+02
   1.716223e+02  -7.183288e+01
   1.326640e+02   9.061774e+01
   2.104692e+01   2.045054e+02
  -8.826398e+01   1.458718e+02
  -1.027531e+02  -1.271439e+01
  -5.832986e+01  -1.277634e+02
   1.240993e+01  -1.056962e+02
   5.466655e+01  -1.814266e+01
   4.921156e+01   3.470998e+01
   2.020691e+01   7.629343e+00
   6.120200e+00  -1.926361e+01
   3.475481e+01   2.305865e+01
   5.846219e+01   9.582066e+01
   3.218244e+01   1.099022e+02
  -5.783450e+01   4.463278e+01
  -1.397721e+02  -4.245172e+01
  -1.228762e+02  -6.832193e+01
  -1.970742e+01  -5.192339e+01
   8.890422e+01  -2.554829e+01
   9.299503e+01  -5.042032e+00
   1.732470e+01   1.171668e+01
  -3.624965e+01   2.339611e+01
  -2.218368e+01   1.448533e+01
   1.739875e+01  -6.302714e+00
  -3.072020e+00  -6.078558e+00
  -6.962341e+01  -5.522770e-01
  -9.367363e+01  -2.552840e+01
  -1.841225e+01  -8.395779e+01
   1.150508e+02  -1.223490e+02
   1.910970e+02  -6.345024e+01
   1.557769e+02   5.747354e+01
   3.433049e+01   1.761189e+02
  -9.117063e+01   1.642062e+02
  -1.208501e+02   6.903514e+01
  -8.384005e+01  -1.897121e+01
  -2.844600e+01  -3.827626e+01
  -3.450569e+00  -1.318233e+01
  -1.476119e+01  -9.152044e+00
  -3.429906e+01  -5.335036e+01
  -1.805635e+01  -9.431817e+01
   3.438788e+01  -7.459284e+01
   8.141147e+01   1.625607e+01
   8.354221e+01   1.032080e+02
   1.053199e+01   1.105439e+02
  -7.781874e+01   3.404254e+01
  -1.055590e+02  -6.836752e+01
  -4.085702e+01  -1.027671e+02
   6.680165e+01  -6.765336e+01
   1.069103e+02   9.657683e+00
   4.987132e+01   5.747527e+01
  -3.714466e+01   6.757242e+01
  -3.874956e+01   2.899002e+01
   2.857827e+01  -6.585174e+00
   7.199922e+01  -7.514595e+00
   1.857866e+01   2.716528e+01
  -7.998090e+01   6.847800e+01
  -1.316523e+02   5.489971e+01
  -7.343198e+01  -1.488468e+01
   1.374943e+01  -8.963618e+01
   6.144673e+01  -8.373943e+01
   4.595756e+01  -1.077096e+01
   5.994166e+00   5.573712e+01
  -2.399830e+01   4.773811e+01
  -3.908954e+01  -9.287275e+00
  -2.944223e+01  -5.554037e+01
  -8.487674e-01  -4.046505e+01
   3.362630e+01   6.057396e+00
   4.332408e+01   2.209512e+01
   2.113143e+01   3.837736e+00
  -2.085704e+00  -1.970749e+01
  -7.611395e+00  -9.269503e+00
   2.053600e+00   3.214487e+01
   2.326827e+00   5.452381e+01
  -2.692975e+01   2.250410e+01
  -3.933903e+01  -4.138646e+01
  -1.276287e+01  -5.802174e+01
   4.125417e+01  -2.786154e+01
   6.442405e+01   3.508959e+01
   2.169181e+01   6.284206e+01
  -5.706552e+01   3.741296e+01
  -9.550766e+01  -1.169544e+01
  -5.437105e+01  -4.359992e+01
   2.971295e+01  -4.683437e+01
   6.891747e+01  -2.907241e+01
   2.841702e+01  -7.694535e+00
  -3.308212e+01   3.517340e+00
  -3.570275e+01  -8.062554e+00
   2.665063e+01  -2.705158e+01
   8.520831e+01  -2.156215e+01
