
 $NMID
 id='ANONYMOUS ', fmtdat='(2E16.6)'
 volume=1.0
 tramp=1.0
 $END
   3.648481e+03   2.793192e+02
   2.406925e+03   2.420539e+03
  -7.217154e+02   2.386624e+03
  -1.641348e+03   1.023757e+03
  -7.795248e+02  -2.926707e+02
   2.223250e+02  -2.761550e+02
   5.651652e+02   2.950079e+02
  -7.790540e+01   9.528795e+02
  -7.419969e+02   6.874552e+02
  -6.972696e+02  -4.773173e+01
  -3.867977e+02  -7.537910e+02
   1.564273e+02  -8.288548e+02
   4.436707e+02  -1.308873e+02
   2.579342e+02   5.711770e+02
  -3.031564e+02   6.036495e+02
  -4.810637e+02   6.155770e+01
  -1.870556e+02  -5.840093e+02
   2.927764e+02  -5.936482e+02
   5.275445e+02  -1.552341e+02
   4.000941e+02   2.320852e+02
   5.762655e+01   4.169429e+02
  -1.859083e+02   2.347529e+02
  -1.629435e+02   5.217681e+01
   1.623035e+02  -3.546331e+01
   3.453142e+02   1.672770e+02
   1.238193e+02   3.778445e+02
  -5.254421e+02   2.486021e+02
  -8.064786e+02  -1.851212e+02
  -3.233721e+02  -5.158371e+02
   3.091800e+02  -3.307880e+02
   6.747882e+02   1.451595e+02
   2.593839e+02   4.205647e+02
  -2.961094e+02   3.789684e+02
  -5.200775e+02   1.291195e+02
  -3.542310e+02  -2.352265e+02
  -7.192343e+01  -4.034364e+02
   1.307949e+02  -2.311206e+02
  -2.006691e+01   2.024355e+02
  -2.122171e+02   2.176389e+02
  -3.303927e+02  -9.812072e+01
  -9.329915e+01  -5.956593e+02
   2.727312e+02  -4.198643e+02
   4.613606e+02   7.570932e+00
   1.788625e+02   4.579623e+02
  -2.836168e+02   1.410279e+02
  -3.060617e+02  -3.709471e+02
   1.278984e+02  -4.945710e+02
   5.020285e+02  -1.117782e+02
   5.199888e+02   4.027566e+02
   1.529110e+02   5.390832e+02
  -3.811142e+02   2.892300e+02
  -5.944093e+02  -7.933732e+01
  -3.393720e+02  -3.449301e+02
   1.779614e+02  -2.676726e+02
   4.096958e+02  -4.844955e+01
   2.015918e+02   1.453930e+02
  -6.760385e+01   4.730398e+01
  -1.092627e+02  -1.326039e+02
   1.449784e+02  -1.191765e+02
   3.139575e+02   7.975903e+01
   1.231180e+02   2.550943e+02
  -1.798441e+02   2.272190e+02
  -3.491036e+02   9.785928e+01
  -2.388205e+02  -9.635689e+01
   7.764888e+00  -2.730195e+02
   2.724525e+02  -3.399263e+02
   3.585919e+02  -1.737771e+02
   2.685434e+02   1.659869e+02
   3.855003e+01   3.879799e+02
  -8.304285e+01   3.328273e+02
  -9.460312e+01   1.145034e+02
  -3.465026e+01   3.686222e+01
  -9.680670e+01   9.221118e+01
  -2.468748e+02   8.835330e+01
  -2.688837e+02  -1.022940e+02
  -1.176370e+02  -2.522654e+02
   8.554710e+01  -2.332811e+02
   2.335470e+02   3.009008e+01
   1.667709e+02   2.600410e+02
  -2.925220e+01   2.685166e+02
  -2.709670e+02   9.014189e+01
  -3.472013e+02  -1.849970e+02
  -1.597158e+02  -3.130831e+02
   7.838436e+01  -2.916128e+02
   2.066456e+02  -1.059371e+02
   1.459112e+02  -4.530232e+01
   1.243491e+02  -6.048270e+01
   2.637633e+02  -5.797157e+01
   3.979812e+02   7.236228e+01
   3.152639e+02   3.101471e+02
  -2.949653e+01   4.409657e+02
  -4.145454e+02   4.061034e+02
  -4.781022e+02   1.560933e+02
  -3.175632e+02  -9.858511e+01
  -3.161087e+01  -2.501114e+02
   1.363024e+02  -2.249330e+02
   5.398866e+01  -3.722644e+01
  -1.233065e+02   7.709726e+01
  -1.544922e+02  -4.452099e+01
  -3.143599e+01  -1.909324e+02
   1.483629e+02  -1.394589e+02
   1.165303e+02   5.391944e+01
  -2.549540e+01   1.635336e+02
  -1.913842e+02   1.810069e+01
  -1.431272e+02  -2.393043e+02
   4.092349e+01  -3.378438e+02
   2.458689e+02  -1.953863e+02
   3.331921e+02   6.558075e+01
   2.594127e+02   2.527243e+02
   7.236302e+01   2.772866e+02
  -1.280638e+02   1.456494e+02
  -1.718236e+02   2.085864e+01
  -4.321781e+01  -2.989299e+01
   5.569344e+01   5.291949e+01
   5.898698e+00   1.252148e+02
  -1.263062e+02   8.588999e+01
  -1.537329e+02  -1.300857e+01
  -3.383907e+01  -6.024559e+01
   8.421059e+01  -4.066310e-02
   4.682111e+01   8.351844e+01
  -1.362602e+02   8.221779e+01
  -3.139933e+02  -1.904586e+01
  -2.622818e+02  -1.505309e+02
  -3.882749e+01  -2.687548e+02
   2.065788e+02  -2.482416e+02
   2.907039e+02  -1.012834e+02
   1.482722e+02   6.073989e+01
  -3.799249e+01   9.457412e+01
  -7.805762e+01  -8.704324e+00
   4.342263e+01  -9.385956e+01
   2.057299e+02  -4.379368e+01
   1.954329e+02   1.090747e+02
   5.934962e+01   1.939829e+02
  -9.763320e+01   1.449899e+02
  -1.333337e+02   8.591840e+00
  -5.827798e+01  -4.328198e+01
   4.900770e+01   1.129174e+01
   2.835068e+01   9.597391e+01
  -8.294412e+01   1.142171e+02
  -2.035708e+02   2.607503e+01
  -1.885143e+02  -1.442487e+02
  -5.737076e+00  -2.151739e+02
   1.699108e+02  -1.446721e+02
   1.794832e+02  -8.627686e+00
   5.823605e+01   1.132203e+02
  -7.281193e+01   1.017569e+02
  -7.670119e+01   2.270457e+01
  -1.267836e+01  -2.605068e+01
   3.090045e+01  -1.207371e+01
  -1.033677e+01   1.502808e+01
  -7.151809e+01  -2.982151e+00
  -9.326021e+01  -8.952188e+01
  -1.540082e+01  -1.649874e+02
   1.389258e+02  -1.537398e+02
   2.379784e+02  -9.496799e+00
   1.923304e+02   1.674982e+02
   2.368873e+01   2.284313e+02
  -1.142625e+02   1.697596e+02
  -1.353439e+02   2.637080e+01
  -6.818730e+01  -5.454820e+01
  -2.916334e+01  -3.272427e+01
  -5.487637e+01   1.241190e+01
  -8.520318e+01   5.482644e+00
  -5.037205e+01  -5.835944e+01
   4.356305e+01  -9.632766e+01
   1.169688e+02  -5.904356e+01
   9.784992e+01   4.752744e+01
  -2.183428e+01   1.282241e+02
  -1.538082e+02   8.674157e+01
  -2.062245e+02  -6.392642e+01
  -8.381119e+01  -2.189337e+02
   1.234963e+02  -2.260068e+02
   2.760032e+02  -9.561047e+01
   2.549972e+02   9.641161e+01
   9.508643e+01   1.731476e+02
  -4.275481e+01   1.320890e+02
  -9.564918e+01   7.953884e+01
  -7.890554e+01   7.189426e+01
  -6.334389e+01   8.544964e+01
  -9.087155e+01   7.611127e+01
  -1.325866e+02  -3.021171e+01
  -1.197936e+02  -1.567066e+02
  -1.951666e+01  -2.328786e+02
   1.074954e+02  -1.732637e+02
   1.772962e+02  -6.604901e+00
   1.255110e+02   1.279429e+02
   1.334800e+01   1.564928e+02
  -6.694397e+01   8.565787e+01
  -6.709687e+01  -9.759349e+00
   3.006784e+00  -4.928372e+01
   1.540601e+01  -3.048829e+01
  -2.860318e+01  -1.753999e+01
  -7.625300e+01  -2.121493e+01
  -4.736382e+01  -3.744837e+01
   7.153937e+01  -3.751601e+01
   1.668529e+02   4.145345e+00
   1.491517e+02   5.898857e+01
   2.481640e+00   9.681462e+01
  -1.297671e+02   6.655534e+01
  -1.461542e+02   4.413940e+00
  -4.725637e+01  -4.820095e+01
   6.333339e+01  -3.991135e+01
   7.599217e+01   2.237912e+01
   1.291897e+01   6.994784e+01
  -5.231835e+01   6.473542e+01
  -6.493388e+01   1.097284e+00
  -5.085251e+01  -5.180396e+01
  -4.428634e+01  -4.351687e+01
  -5.966001e+01  -5.528643e+00
  -6.387973e+01  -8.859987e-01
  -4.044808e+01  -7.247839e+01
   3.463420e+01  -1.465830e+02
   1.254610e+02  -1.467809e+02
   1.741194e+02  -2.684977e+01
   1.332882e+02   9.636698e+01
   6.399504e+00   1.349727e+02
  -9.505931e+01   6.525280e+01
  -5.835671e+01  -1.332832e+01
   5.892583e+01  -2.122535e+01
   1.343792e+02   4.714632e+01
   6.995042e+01   1.145677e+02
  -8.503500e+01   1.129349e+02
  -1.881425e+02   4.834724e+01
  -1.635098e+02  -3.882850e+01
  -3.241645e+01  -8.973770e+01
   6.611288e+01  -6.418559e+01
   4.903818e+01  -1.817037e+00
  -3.963919e+01   2.671929e+01
  -8.891442e+01  -2.436498e+01
  -3.302054e+01  -1.152560e+02
   8.704556e+01  -1.509634e+02
   1.638103e+02  -6.274790e+01
   1.110849e+02   9.534825e+01
   7.706492e+00   1.892711e+02
  -7.875663e+01   1.361598e+02
  -1.016101e+02  -1.243859e+01
  -5.676937e+01  -1.216288e+02
   1.034062e+01  -1.018547e+02
   4.797334e+01  -1.802316e+01
   4.858856e+01   3.248022e+01
   2.161767e+01   9.335412e+00
   6.009220e+00  -1.935105e+01
   2.634593e+01   1.927532e+01
   5.894265e+01   9.183994e+01
   2.855071e+01   1.103287e+02
  -5.135535e+01   4.539243e+01
  -1.370355e+02  -4.458274e+01
  -1.205067e+02  -7.239394e+01
  -1.618508e+01  -5.201301e+01
   8.101901e+01  -2.377574e+01
   8.913409e+01  -4.102866e+00
   1.567252e+01   1.076849e+01
  -3.563213e+01   1.843559e+01
  -1.826595e+01   1.507432e+01
   1.884644e+01  -3.344707e+00
  -3.835842e+00  -7.598043e+00
  -6.982567e+01   2.604571e-02
  -8.927318e+01  -1.902337e+01
  -1.414717e+01  -8.100596e+01
   1.191699e+02  -1.186126e+02
   1.854804e+02  -5.637224e+01
   1.466283e+02   6.995384e+01
   2.381234e+01   1.541491e+02
  -8.110812e+01   1.509588e+02
  -1.117267e+02   5.529448e+01
  -8.148295e+01  -2.074960e+01
  -2.585205e+01  -3.628049e+01
  -1.618940e+00  -1.198967e+01
  -1.190154e+01  -5.667647e+00
  -3.257459e+01  -4.783853e+01
  -1.623728e+01  -9.272619e+01
   2.999690e+01  -7.222907e+01
   7.636277e+01   1.807098e+01
   7.643632e+01   1.075465e+02
   4.424256e+00   1.133324e+02
  -7.694154e+01   2.573101e+01
  -9.972911e+01  -7.260095e+01
  -3.727109e+01  -1.026153e+02
   6.480258e+01  -5.879109e+01
   1.021964e+02   1.033467e+01
   4.484918e+01   5.418462e+01
  -3.594990e+01   5.523574e+01
  -3.578064e+01   3.051452e+01
   2.631071e+01   1.932202e-01
   6.712662e+01  -6.386863e+00
   1.682023e+01   2.706860e+01
  -7.866578e+01   6.405716e+01
  -1.204908e+02   4.857435e+01
  -6.845346e+01  -1.601649e+01
   1.685601e+01  -8.367150e+01
   5.467805e+01  -7.826211e+01
   4.245374e+01  -1.026326e+01
   1.662681e+00   5.154266e+01
  -2.484824e+01   4.430256e+01
  -3.263618e+01  -1.458105e+01
  -2.593695e+01  -5.389541e+01
  -1.715252e-01  -3.598600e+01
   3.065537e+01   7.824459e+00
   4.081141e+01   2.477128e+01
   2.033820e+01   2.781722e+00
  -3.563817e+00  -1.732561e+01
  -8.677860e+00  -1.690385e+00
  -4.028976e+00   3.457020e+01
  -9.298272e+00   4.761727e+01
  -2.717021e+01   1.455045e+01
  -3.234983e+01  -4.174505e+01
  -5.745760e+00  -6.142152e+01
   4.081655e+01  -2.197014e+01
   5.870298e+01   3.241750e+01
   1.542603e+01   5.963255e+01
  -5.331759e+01   3.522333e+01
  -9.072442e+01  -1.896815e+01
  -4.997976e+01  -4.568377e+01
   2.806362e+01  -4.234405e+01
   6.209855e+01  -2.442108e+01
   2.648475e+01  -7.400395e+00
  -3.398626e+01  -1.969546e+00
  -3.451725e+01  -1.199534e+01
   2.612322e+01  -2.587612e+01
   8.509587e+01  -1.732035e+01
