
 $NMID
 id='ANONYMOUS ', fmtdat='(2E16.6)'
 volume=1.0
 tramp=1.0
 $END
   4.243043e+03   1.029486e+02
   2.569025e+03   2.320335e+03
  -4.068054e+02   3.010558e+03
  -1.838494e+03   7.732841e+02
  -1.095895e+03  -3.991456e+02
   6.345188e+02  -4.555836e+02
   7.482337e+02   4.424695e+02
   7.562239e+01   9.857370e+02
  -6.623736e+02   8.766554e+02
  -9.282049e+02  -1.690065e+02
  -5.354720e+02  -8.264490e+02
   1.439121e+02  -8.172645e+02
   5.835823e+02  -1.399682e+02
   4.437139e+02   7.149102e+02
  -1.768680e+02   7.454034e+02
  -5.818166e+02  -1.239231e+01
  -2.693695e+02  -6.481550e+02
   2.709417e+02  -6.506511e+02
   6.168194e+02  -1.553451e+02
   4.637483e+02   3.491607e+02
   3.924641e+01   3.989731e+02
  -2.306130e+02   2.450815e+02
  -1.658955e+02   3.847270e+01
   8.621420e+01  -3.590521e+01
   3.638513e+02   1.173265e+02
   1.129279e+02   4.166279e+02
  -4.807161e+02   4.423276e+02
  -8.102103e+02  -3.138224e+01
  -4.532080e+02  -4.502289e+02
   4.236087e+02  -4.611463e+02
   7.371071e+02  -2.212477e+01
   3.486034e+02   4.865720e+02
  -2.665086e+02   5.440322e+02
  -5.330086e+02   1.738921e+02
  -3.992420e+02  -1.783685e+02
  -4.591812e+01  -4.287702e+02
   1.396682e+02  -2.472546e+02
   1.755774e+02   1.871611e+02
  -1.971091e+02   4.146068e+02
  -3.918420e+02  -3.950512e+01
  -1.844839e+02  -6.102306e+02
   2.851848e+02  -6.582674e+02
   5.338392e+02  -4.708208e+01
   2.176236e+02   4.832493e+02
  -2.498406e+02   3.532178e+02
  -3.760121e+02  -2.871335e+02
   5.589532e+01  -4.951004e+02
   5.178779e+02  -1.580492e+02
   5.580749e+02   4.037585e+02
   1.884028e+02   5.920503e+02
  -3.703294e+02   3.173241e+02
  -5.817024e+02  -6.410355e+01
  -4.087698e+02  -3.801722e+02
   1.143223e+02  -3.950524e+02
   4.058508e+02  -8.349079e+01
   2.678823e+02   1.463235e+02
  -9.112282e+01   1.238309e+02
  -1.469322e+02  -1.017840e+02
   1.262966e+02  -1.684886e+02
   3.341070e+02   6.565728e+01
   1.300877e+02   2.778905e+02
  -1.891780e+02   2.640637e+02
  -3.158672e+02   9.418893e+01
  -2.096901e+02  -7.191076e+01
   3.619963e+01  -2.482448e+02
   2.233387e+02  -3.187932e+02
   3.365989e+02  -2.185076e+02
   2.823514e+02   1.200305e+02
   6.919622e+01   4.607792e+02
  -9.961841e+01   4.081123e+02
  -9.061697e+01   1.213990e+02
  -3.218184e+01   2.173255e+01
  -5.388899e+01   1.032210e+02
  -1.979123e+02   1.220390e+02
  -2.771036e+02  -4.320125e+01
  -1.462167e+02  -2.564125e+02
   5.676922e+01  -2.319291e+02
   2.241232e+02  -7.411931e+00
   2.017902e+02   2.496876e+02
  -6.221428e+00   3.099633e+02
  -2.696669e+02   1.312531e+02
  -3.469262e+02  -1.602320e+02
  -1.960030e+02  -3.265802e+02
   9.126582e+01  -2.933315e+02
   2.188306e+02  -1.465859e+02
   1.418506e+02  -5.984641e+00
   9.422071e+01  -3.985190e+01
   2.315522e+02  -6.179919e+01
   3.951600e+02   5.915180e+01
   3.346277e+02   2.807654e+02
   5.289696e+00   4.278123e+02
  -3.573563e+02   3.979625e+02
  -4.772653e+02   2.191676e+02
  -3.132124e+02  -7.380699e+01
  -6.429428e+01  -2.787384e+02
   1.178236e+02  -2.484208e+02
   5.714952e+01  -3.723853e+01
  -9.881043e+01   1.015119e+02
  -1.977414e+02  -8.303742e+00
  -4.205736e+01  -1.585246e+02
   1.502216e+02  -1.568203e+02
   1.651108e+02   6.965802e+01
  -2.405356e+01   1.830651e+02
  -1.821564e+02   3.554276e+01
  -1.637757e+02  -2.373119e+02
   2.709383e+01  -3.516301e+02
   2.360161e+02  -1.887100e+02
   3.358775e+02   5.152006e+01
   2.731446e+02   2.283656e+02
   8.043060e+01   2.582446e+02
  -1.192248e+02   1.706364e+02
  -1.663558e+02   2.233110e+01
  -6.251066e+01  -3.176056e+01
   7.255613e+01   4.870147e+01
   2.292169e+01   1.273488e+02
  -1.246856e+02   8.812054e+01
  -1.719527e+02  -1.130148e+01
  -5.331494e+01  -7.814279e+01
   8.215347e+01  -1.556382e+01
   5.121188e+01   7.539139e+01
  -1.265293e+02   8.797856e+01
  -2.771125e+02   1.506169e+01
  -2.645226e+02  -1.403881e+02
  -4.042441e+01  -2.450840e+02
   1.705160e+02  -2.513293e+02
   2.717921e+02  -1.228891e+02
   1.729237e+02   4.669652e+01
  -2.088314e+01   1.047347e+02
  -8.874059e+01   1.089053e+01
   2.752962e+01  -9.666821e+01
   1.785946e+02  -6.433433e+01
   2.184720e+02   9.749679e+01
   8.233913e+01   2.024748e+02
  -9.621595e+01   1.511711e+02
  -1.389219e+02   3.468370e+01
  -6.938731e+01  -3.084412e+01
   2.337000e+01   4.837637e+00
   4.434267e+01   8.257024e+01
  -6.675216e+01   1.168257e+02
  -2.052167e+02   3.041750e+01
  -1.926959e+02  -1.141916e+02
  -2.959457e+01  -2.056590e+02
   1.644657e+02  -1.588749e+02
   1.867530e+02  -2.043772e+01
   6.236570e+01   9.936568e+01
  -6.062527e+01   1.108784e+02
  -7.640856e+01   3.498635e+01
  -1.522345e+01  -2.465494e+01
   2.215806e+01  -1.577207e+01
  -9.979099e+00   1.071297e+01
  -7.272044e+01  -4.168975e+00
  -9.429032e+01  -8.095055e+01
  -1.695058e+01  -1.561299e+02
   1.185845e+02  -1.562336e+02
   2.344208e+02  -4.203476e+01
   1.959678e+02   1.493132e+02
   4.135724e+01   2.265572e+02
  -9.151462e+01   1.698732e+02
  -1.293268e+02   3.658498e+01
  -7.341313e+01  -5.115786e+01
  -2.958321e+01  -3.413044e+01
  -5.395874e+01   1.414528e+01
  -7.867097e+01   9.556392e+00
  -3.987339e+01  -5.073621e+01
   3.604741e+01  -9.403840e+01
   1.023163e+02  -5.447075e+01
   8.325881e+01   2.701454e+01
  -1.431151e+01   1.160906e+02
  -1.377590e+02   9.078499e+01
  -2.008416e+02  -4.520108e+01
  -1.012173e+02  -2.006459e+02
   9.879282e+01  -2.219203e+02
   2.589066e+02  -9.262542e+01
   2.546343e+02   7.648031e+01
   1.112597e+02   1.709805e+02
  -3.249402e+01   1.435761e+02
  -8.440958e+01   8.606776e+01
  -7.514447e+01   7.225539e+01
  -5.957339e+01   9.301365e+01
  -8.852838e+01   7.494179e+01
  -1.297503e+02  -2.037872e+01
  -1.206670e+02  -1.439665e+02
  -2.867343e+01  -2.293674e+02
   9.278133e+01  -1.716911e+02
   1.711838e+02  -2.784575e+01
   1.439497e+02   1.200437e+02
   1.915197e+01   1.549495e+02
  -7.612405e+01   9.129947e+01
  -6.159512e+01  -1.212485e+00
  -7.353303e+00  -4.551333e+01
   1.561949e+01  -3.143754e+01
  -3.634803e+01  -1.627846e+01
  -8.211139e+01  -1.899278e+01
  -4.675380e+01  -4.068541e+01
   6.623290e+01  -3.718355e+01
   1.535222e+02  -9.033581e-01
   1.417562e+02   5.082934e+01
   1.655363e+01   8.257428e+01
  -1.215160e+02   7.967938e+01
  -1.460956e+02   1.481326e+01
  -4.867922e+01  -3.948086e+01
   5.483154e+01  -3.734251e+01
   7.627363e+01   1.848885e+01
   1.019659e+01   7.043375e+01
  -5.293807e+01   6.183500e+01
  -6.090652e+01  -8.606383e-01
  -4.665892e+01  -4.651760e+01
  -4.264427e+01  -4.241201e+01
  -5.981687e+01  -3.260421e+00
  -6.814243e+01   1.484426e+00
  -3.880587e+01  -6.652964e+01
   2.741854e+01  -1.523152e+02
   1.137631e+02  -1.409095e+02
   1.613398e+02  -3.830709e+01
   1.262676e+02   8.325329e+01
   1.040958e+01   1.262185e+02
  -8.310698e+01   5.968045e+01
  -5.985438e+01  -1.302949e+01
   5.434009e+01  -2.428340e+01
   1.356939e+02   3.685032e+01
   7.988681e+01   1.031860e+02
  -7.835577e+01   1.076403e+02
  -1.887992e+02   5.068569e+01
  -1.617243e+02  -3.240992e+01
  -4.287709e+01  -7.985815e+01
   5.572917e+01  -7.130434e+01
   4.668189e+01  -4.737429e+00
  -3.898192e+01   2.941147e+01
  -9.112633e+01  -1.868306e+01
  -3.708881e+01  -1.159724e+02
   7.760396e+01  -1.533852e+02
   1.598808e+02  -6.544328e+01
   1.313510e+02   9.632281e+01
   2.195910e+01   1.939783e+02
  -8.069979e+01   1.436919e+02
  -1.033941e+02  -7.907120e+00
  -5.872374e+01  -1.149210e+02
   1.508365e+00  -1.019659e+02
   4.437923e+01  -1.952847e+01
   5.052069e+01   3.026941e+01
   2.330219e+01   5.729932e+00
   2.587685e+00  -1.960731e+01
   2.251480e+01   1.526533e+01
   5.704774e+01   8.750235e+01
   4.392510e+01   1.113891e+02
  -4.573958e+01   4.920627e+01
  -1.360317e+02  -3.992920e+01
  -1.295628e+02  -6.512273e+01
  -1.856760e+01  -4.961690e+01
   8.504384e+01  -2.405919e+01
   8.280015e+01  -1.646003e+01
   1.235664e+01   6.436064e+00
  -3.755632e+01   2.223471e+01
  -1.444543e+01   1.734335e+01
   2.182965e+01   7.105476e-01
  -5.296606e+00  -7.354443e+00
  -7.093452e+01  -1.747902e+00
  -8.891889e+01  -2.474278e+01
  -1.548885e+01  -7.754417e+01
   1.102381e+02  -1.146552e+02
   1.853121e+02  -7.494405e+01
   1.417245e+02   6.070426e+01
   1.935670e+01   1.589345e+02
  -8.104879e+01   1.481213e+02
  -1.167878e+02   6.518339e+01
  -7.801950e+01  -1.642490e+01
  -2.623364e+01  -3.340498e+01
   2.786424e+00  -8.873288e+00
  -1.127973e+01  -3.815271e+00
  -3.204226e+01  -4.227426e+01
  -2.027119e+01  -8.757980e+01
   2.752179e+01  -6.962498e+01
   8.213424e+01   1.537709e+01
   7.467772e+01   9.731468e+01
   1.298463e+01   1.097252e+02
  -8.074349e+01   2.592795e+01
  -1.039604e+02  -7.003942e+01
  -3.234359e+01  -1.016620e+02
   6.524050e+01  -5.722468e+01
   1.010176e+02   8.757294e+00
   3.924642e+01   4.909597e+01
  -3.041073e+01   5.424365e+01
  -2.891887e+01   2.968138e+01
   3.374298e+01  -2.997343e+00
   6.719355e+01  -9.166792e+00
   1.512114e+01   2.427725e+01
  -7.617479e+01   6.275413e+01
  -1.078063e+02   5.585952e+01
  -6.540709e+01  -1.092250e+01
   1.149941e+01  -7.808501e+01
   5.066629e+01  -7.944684e+01
   3.455302e+01  -9.027019e+00
   2.381078e+00   5.493665e+01
  -2.288449e+01   4.431985e+01
  -3.411581e+01  -1.833579e+01
  -2.728660e+01  -5.294172e+01
   4.659297e-01  -3.284080e+01
   3.506516e+01   7.491391e+00
   4.108166e+01   1.996152e+01
   2.093473e+01   4.465466e-01
  -1.244556e+00  -1.583818e+01
  -1.447827e+00   1.721076e+00
  -2.159727e+00   3.806010e+01
  -1.367382e+01   4.594811e+01
  -3.171053e+01   7.926933e+00
  -3.562930e+01  -3.967597e+01
  -3.041551e+00  -6.211565e+01
   4.389366e+01  -2.156019e+01
   5.811576e+01   3.713016e+01
   1.515034e+01   6.026508e+01
  -5.429768e+01   3.574909e+01
  -9.187712e+01  -8.718128e+00
  -4.793781e+01  -4.338100e+01
   2.722547e+01  -4.020743e+01
   6.231305e+01  -2.091400e+01
   2.451186e+01  -3.965585e+00
  -3.207524e+01  -7.319844e-01
  -3.804781e+01  -1.233848e+01
   2.841100e+01  -2.964580e+01
   8.488342e+01  -2.039348e+01
