
 $NMID
 id='ANONYMOUS ', fmtdat='(2E16.6)'
 volume=1.0
 tramp=1.0
 $END
  -4.110353e+03  -1.830746e+02
  -2.424561e+03  -2.186242e+03
   6.300253e+02  -2.410426e+03
   2.123604e+03  -1.092584e+03
   9.158635e+02   6.060803e+02
  -5.560988e+02   5.978550e+02
  -8.344396e+02  -4.758902e+02
   4.673299e+01  -1.048707e+03
   7.997383e+02  -7.393339e+02
   9.022892e+02   5.028229e+01
   3.213628e+02   8.406078e+02
  -2.141449e+02   8.897941e+02
  -6.722093e+02   9.171971e+01
  -3.415622e+02  -6.663222e+02
   2.423770e+02  -7.269747e+02
   4.782327e+02   1.747654e+01
   2.949398e+02   6.507652e+02
  -3.342576e+02   6.723817e+02
  -5.583003e+02   9.524083e+01
  -3.408396e+02  -3.506717e+02
   2.336777e+00  -4.282385e+02
   2.354867e+02  -2.627787e+02
   1.659497e+02  -5.477004e+01
  -1.179554e+02   1.257313e+02
  -4.140982e+02  -8.365137e+01
  -1.978765e+02  -3.917314e+02
   4.680234e+02  -4.333510e+02
   8.472607e+02   5.194371e+01
   4.011122e+02   5.191082e+02
  -4.134898e+02   4.728782e+02
  -7.886306e+02  -4.114678e+01
  -3.106784e+02  -3.805148e+02
   2.964957e+02  -5.090146e+02
   5.586377e+02  -2.464138e+02
   3.884908e+02   1.954163e+02
   8.898925e+01   4.598789e+02
  -1.600257e+02   3.193708e+02
  -2.127658e+02  -2.670199e+02
   1.561222e+02  -4.190616e+02
   4.740798e+02  -3.079472e+01
   2.589364e+02   6.871489e+02
  -2.853101e+02   7.250291e+02
  -5.865368e+02  -4.010264e+00
  -2.670113e+02  -5.389113e+02
   2.914041e+02  -2.304221e+02
   4.207059e+02   3.526350e+02
  -6.085183e+01   5.487060e+02
  -5.809593e+02   1.353891e+02
  -6.146058e+02  -4.113487e+02
  -1.776490e+02  -5.852934e+02
   3.576887e+02  -3.836966e+02
   6.034419e+02   6.937349e+01
   3.982243e+02   3.668330e+02
  -1.574059e+02   3.569162e+02
  -4.356928e+02   1.024708e+02
  -2.648804e+02  -2.172562e+02
   1.130919e+02  -9.948100e+01
   1.245919e+02   1.345354e+02
  -1.595622e+02   1.882192e+02
  -3.288398e+02  -2.618897e+01
  -1.593683e+02  -2.631024e+02
   2.182290e+02  -2.641431e+02
   3.412328e+02  -7.645960e+01
   1.904107e+02   9.044425e+01
  -2.454854e+01   2.344596e+02
  -2.020661e+02   3.135084e+02
  -3.264207e+02   1.959577e+02
  -2.723869e+02  -1.228675e+02
  -9.007526e+01  -4.023171e+02
   1.328310e+02  -3.757266e+02
   1.161336e+02  -1.098565e+02
   1.657798e+01   1.485238e+01
   2.584803e+01  -9.613628e+01
   1.846718e+02  -1.500915e+02
   2.808906e+02   3.254164e+01
   1.568081e+02   2.586709e+02
  -6.925369e+01   2.583001e+02
  -1.961311e+02   2.024050e+01
  -2.116099e+02  -2.256007e+02
   7.485491e+00  -2.871849e+02
   2.319467e+02  -9.998362e+01
   3.669367e+02   1.600189e+02
   1.694617e+02   3.434028e+02
  -7.712440e+01   3.216226e+02
  -2.209289e+02   1.184704e+02
  -1.436490e+02   1.153744e+01
  -1.077885e+02   4.091509e+01
  -2.190800e+02   4.759272e+01
  -3.774888e+02  -5.768938e+01
  -3.308519e+02  -2.832368e+02
  -1.687646e+01  -4.254792e+02
   3.221472e+02  -4.098932e+02
   4.994438e+02  -2.206925e+02
   3.349200e+02   8.583616e+01
   5.100651e+01   3.052609e+02
  -1.364518e+02   2.602704e+02
  -8.154833e+01   2.248649e+01
   1.035675e+02  -1.078822e+02
   1.900482e+02   1.876929e+00
   4.808470e+01   1.938403e+02
  -1.534515e+02   1.655369e+02
  -1.623588e+02  -5.340734e+01
   9.421341e+00  -1.817708e+02
   1.838954e+02  -2.977561e+01
   1.527227e+02   2.511702e+02
  -2.882641e+01   3.481554e+02
  -2.128908e+02   1.983705e+02
  -3.073505e+02  -7.005912e+01
  -2.985294e+02  -2.250045e+02
  -9.231002e+01  -2.553562e+02
   1.153402e+02  -1.582679e+02
   1.643368e+02  -2.832294e+01
   5.794878e+01   3.679284e+01
  -6.752495e+01  -4.224156e+01
  -3.170143e+01  -1.253190e+02
   1.059463e+02  -9.414958e+01
   1.675670e+02  -1.130892e+00
   6.160163e+01   6.770286e+01
  -7.516178e+01   2.563012e+01
  -5.468967e+01  -7.254256e+01
   1.132377e+02  -8.462828e+01
   2.840022e+02  -2.527700e+01
   2.612548e+02   1.385808e+02
   4.977814e+01   2.396799e+02
  -1.583097e+02   2.564238e+02
  -2.769995e+02   1.311550e+02
  -1.642999e+02  -5.391543e+01
   2.208933e+01  -1.077333e+02
   9.423710e+01  -1.305923e+01
  -2.862253e+01   1.002593e+02
  -1.862842e+02   6.021207e+01
  -2.163071e+02  -9.490698e+01
  -6.888815e+01  -1.952881e+02
   8.098234e+01  -1.564831e+02
   1.269772e+02  -3.360322e+01
   6.727140e+01   3.444898e+01
  -2.553990e+01  -1.528300e-01
  -4.120806e+01  -7.224133e+01
   6.335462e+01  -1.164433e+02
   1.871212e+02  -2.556639e+01
   1.794524e+02   1.178708e+02
   1.559589e+01   2.160222e+02
  -1.528085e+02   1.728379e+02
  -1.849193e+02   2.275359e+01
  -6.642401e+01  -1.102818e+02
   7.130992e+01  -1.085915e+02
   8.326023e+01  -2.722648e+01
   2.345709e+01   2.579469e+01
  -1.680521e+01   2.217509e+01
   8.062886e+00  -8.860403e+00
   7.070955e+01   1.089771e+00
   8.524200e+01   7.753474e+01
   1.546056e+01   1.554575e+02
  -1.228155e+02   1.557838e+02
  -2.221782e+02   3.544867e+01
  -2.036052e+02  -1.417392e+02
  -4.078207e+01  -2.316609e+02
   1.045887e+02  -1.658142e+02
   1.348317e+02  -2.826716e+01
   7.361601e+01   5.219249e+01
   2.504715e+01   3.722402e+01
   5.051562e+01  -1.017111e+01
   7.661507e+01  -8.422605e+00
   3.696739e+01   5.218463e+01
  -4.241855e+01   8.889911e+01
  -9.219469e+01   5.396804e+01
  -8.391656e+01  -2.513081e+01
   1.375734e+01  -1.013705e+02
   1.311337e+02  -9.134913e+01
   1.959778e+02   4.498974e+01
   8.910816e+01   1.977180e+02
  -1.017741e+02   2.272580e+02
  -2.708376e+02   9.786327e+01
  -2.450590e+02  -7.728579e+01
  -1.121756e+02  -1.717085e+02
   3.020381e+01  -1.419221e+02
   8.938493e+01  -8.114968e+01
   7.876854e+01  -6.884522e+01
   6.298940e+01  -9.306802e+01
   8.620426e+01  -7.140554e+01
   1.201703e+02   2.887213e+01
   1.192537e+02   1.529496e+02
   2.537379e+01   2.127104e+02
  -8.858672e+01   1.625918e+02
  -1.736547e+02   3.020372e+01
  -1.357751e+02  -1.160377e+02
  -2.197834e+01  -1.555934e+02
   5.677661e+01  -8.317420e+01
   5.702704e+01  -6.014774e+00
   1.610037e+00   4.536303e+01
  -7.104687e+00   3.370723e+01
   3.419846e+01   1.597681e+01
   7.933558e+01   2.338677e+01
   4.338939e+01   3.892585e+01
  -5.763562e+01   3.331364e+01
  -1.511639e+02   2.946931e+00
  -1.375095e+02  -3.711868e+01
  -1.173668e+01  -9.030824e+01
   1.134883e+02  -7.826149e+01
   1.349725e+02  -1.032360e+01
   5.254211e+01   4.052265e+01
  -6.069919e+01   3.745371e+01
  -7.222557e+01  -2.119927e+01
  -8.318178e+00  -6.666300e+01
   5.247653e+01  -5.155554e+01
   6.187330e+01   1.480103e+00
   4.247618e+01   4.468387e+01
   4.208420e+01   3.878389e+01
   6.359245e+01   4.116462e+00
   6.531454e+01   7.020286e-01
   3.376906e+01   6.370331e+01
  -3.438194e+01   1.444922e+02
  -1.205569e+02   1.384438e+02
  -1.544293e+02   3.731760e+01
  -1.220210e+02  -9.234078e+01
  -1.339129e+01  -1.241261e+02
   7.867606e+01  -6.387850e+01
   5.694078e+01   1.070907e+01
  -5.594382e+01   2.101646e+01
  -1.314740e+02  -3.747815e+01
  -7.191698e+01  -1.010632e+02
   7.277976e+01  -1.078441e+02
   1.804024e+02  -5.514419e+01
   1.553105e+02   3.374243e+01
   3.627046e+01   8.231559e+01
  -5.226954e+01   6.908383e+01
  -4.942122e+01   8.212948e+00
   3.976597e+01  -2.491357e+01
   8.620033e+01   1.670493e+01
   2.723939e+01   1.184269e+02
  -8.602930e+01   1.517851e+02
  -1.594068e+02   6.205294e+01
  -1.299695e+02  -9.889929e+01
  -1.252700e+00  -1.970022e+02
   7.958781e+01  -1.423346e+02
   1.043943e+02   3.763030e+00
   5.993208e+01   1.133930e+02
   5.329190e+00   1.012546e+02
  -4.641297e+01   2.280075e+01
  -5.281884e+01  -2.785552e+01
  -2.287830e+01  -8.060396e+00
  -3.179528e+00   1.954194e+01
  -1.862271e+01  -1.049282e+01
  -5.192025e+01  -8.667156e+01
  -4.809630e+01  -1.067548e+02
   4.164993e+01  -4.209658e+01
   1.319729e+02   3.620648e+01
   1.289365e+02   7.275204e+01
   1.821441e+01   4.922596e+01
  -8.917124e+01   2.190653e+01
  -8.555989e+01   1.095787e+01
  -1.199161e+01  -6.777616e+00
   3.670903e+01  -2.073751e+01
   1.391810e+01  -1.815866e+01
  -1.818375e+01   8.948816e-01
   5.128807e+00   8.263985e+00
   6.779854e+01   2.721077e+00
   8.878355e+01   2.098613e+01
   1.116737e+01   7.548667e+01
  -1.083960e+02   1.121261e+02
  -1.762286e+02   6.269824e+01
  -1.405959e+02  -6.091785e+01
  -3.112600e+01  -1.526909e+02
   7.101515e+01  -1.474092e+02
   1.067828e+02  -5.688698e+01
   7.645489e+01   1.586781e+01
   2.507447e+01   3.187970e+01
  -1.630768e+00   7.084588e+00
   1.030788e+01   2.741121e+00
   3.400268e+01   4.431355e+01
   2.174307e+01   8.319445e+01
  -2.559220e+01   6.831610e+01
  -7.798533e+01  -1.702854e+01
  -7.540097e+01  -1.097964e+02
   1.207909e+00  -1.075005e+02
   8.121459e+01  -2.281176e+01
   9.963549e+01   7.423087e+01
   2.763911e+01   9.614670e+01
  -6.185648e+01   4.850528e+01
  -9.304698e+01  -9.837689e+00
  -4.192174e+01  -4.610345e+01
   2.925163e+01  -4.916353e+01
   2.989942e+01  -2.800448e+01
  -3.392894e+01  -1.543123e+00
  -6.525220e+01   7.159723e+00
  -1.536308e+01  -2.320117e+01
   7.363411e+01  -6.734134e+01
   1.111267e+02  -5.613181e+01
   6.091567e+01   6.241753e+00
  -1.149428e+01   8.241571e+01
  -5.383514e+01   7.710041e+01
  -3.560605e+01   8.328221e+00
   4.393926e-01  -5.369658e+01
   2.573765e+01  -4.098144e+01
   3.523456e+01   1.725518e+01
   2.709778e+01   5.215251e+01
  -1.727864e+00   3.338431e+01
  -3.263572e+01  -7.656468e+00
  -3.705038e+01  -1.984091e+01
  -2.136398e+01   2.216295e-01
  -3.206488e-02   1.255345e+01
   6.237748e+00  -3.834540e+00
   6.858316e+00  -3.300731e+01
   1.459231e+01  -3.904995e+01
   3.203124e+01  -8.061190e+00
   3.188806e+01   4.344710e+01
  -2.051160e+00   6.398454e+01
  -4.258321e+01   1.970238e+01
  -5.099281e+01  -3.598320e+01
  -1.206744e+01  -6.124733e+01
   5.330704e+01  -3.305209e+01
   8.479029e+01   8.593547e+00
   4.699005e+01   3.822998e+01
  -2.773422e+01   3.867555e+01
  -6.035390e+01   1.965644e+01
  -2.408434e+01   4.521221e+00
   3.802076e+01   2.119565e+00
   3.338130e+01   1.519200e+01
  -2.912579e+01   2.985652e+01
  -8.387124e+01   2.297215e+01
