
 $NMID
 id='ANONYMOUS ', fmtdat='(2E16.6)'
 volume=1.0
 tramp=1.0
 $END
   3.068481e+03  -1.178624e+02
   1.954342e+03   1.791497e+03
  -1.881597e+02   2.035483e+03
  -1.645485e+03   9.923481e+02
  -7.798663e+02  -1.530053e+02
   2.269730e+02  -3.921232e+02
   5.515315e+02   1.340884e+02
  -4.398159e+01   5.971929e+02
  -5.445059e+02   5.243635e+02
  -7.154384e+02   1.937943e+01
  -3.323568e+02  -5.739753e+02
   1.999804e+02  -6.489155e+02
   3.597414e+02  -1.836715e+02
   2.591076e+02   4.403134e+02
  -3.209214e+01   5.278261e+02
  -4.298483e+02   3.882035e+01
  -2.768803e+02  -4.696008e+02
   1.795844e+02  -5.127878e+02
   4.320202e+02  -1.822495e+02
   3.592903e+02   2.621019e+02
   6.013704e+01   3.554393e+02
  -1.548912e+02   2.364385e+02
  -1.248705e+02   5.884402e+01
   1.133860e+02   9.133981e-01
   2.809859e+02   1.617808e+02
   8.795038e+01   3.718843e+02
  -3.959349e+02   2.607630e+02
  -6.513814e+02  -1.216692e+02
  -3.177302e+02  -3.535145e+02
   3.152857e+02  -3.159545e+02
   4.685733e+02   7.967537e+01
   2.306289e+02   3.243950e+02
  -1.872849e+02   3.625379e+02
  -3.486139e+02   1.143451e+02
  -3.101052e+02  -1.755761e+02
  -4.723440e+01  -2.859100e+02
   7.537089e+01  -1.913362e+02
   3.289472e+01   8.486357e+01
  -4.493206e+01   1.982453e+02
  -2.301586e+02  -8.211115e+01
  -1.148152e+02  -5.209679e+02
   1.440046e+02  -5.363094e+02
   3.938562e+02  -3.356868e+01
   2.012917e+02   3.876799e+02
  -1.046080e+02   2.361498e+02
  -2.204238e+02  -2.370811e+02
   8.317105e+01  -3.454348e+02
   4.605885e+02  -9.028497e+01
   4.798802e+02   3.088537e+02
   1.485327e+02   4.527664e+02
  -2.273893e+02   2.551870e+02
  -4.855618e+02  -4.609840e+01
  -3.008304e+02  -2.649325e+02
   2.245375e+01  -2.220722e+02
   2.927606e+02  -5.880811e+01
   2.038521e+02   8.094176e+01
  -3.983742e+01   7.189098e+01
  -9.935302e+01  -9.721616e+01
   8.872274e+01  -6.691015e+01
   2.274299e+02   4.337736e+01
   9.453669e+01   2.136384e+02
  -1.295028e+02   2.144043e+02
  -2.986988e+02   7.952130e+01
  -1.991059e+02  -7.665111e+01
   2.626497e+01  -2.498274e+02
   2.189734e+02  -2.734370e+02
   2.914396e+02  -1.642654e+02
   2.059836e+02   1.188776e+02
   4.205573e+01   3.306601e+02
  -5.424334e+01   3.185102e+02
  -4.180077e+01   1.288785e+02
  -4.378971e+01   4.085423e+01
  -6.941532e+01   6.982324e+01
  -1.795719e+02   4.385714e+01
  -2.190816e+02  -7.392253e+01
  -1.173784e+02  -2.263048e+02
   5.801843e+01  -2.103770e+02
   1.610250e+02   1.630607e+01
   1.392927e+02   2.047302e+02
  -2.880450e+01   2.295479e+02
  -2.089580e+02   6.899357e+01
  -2.761725e+02  -1.288637e+02
  -1.659102e+02  -2.698329e+02
   5.869457e+01  -2.364683e+02
   1.607009e+02  -1.303093e+02
   1.377976e+02  -4.528364e+01
   1.001965e+02  -3.755204e+01
   2.074614e+02  -2.880503e+01
   3.462386e+02   5.846489e+01
   2.619369e+02   2.358290e+02
  -2.411619e+00   3.614050e+02
  -3.040162e+02   3.279663e+02
  -4.118783e+02   1.609368e+02
  -2.543851e+02  -8.845380e+01
  -3.007966e+01  -2.219197e+02
   8.900542e+01  -1.935266e+02
   4.610672e+01  -1.660874e+01
  -1.020951e+02   6.047593e+01
  -1.398774e+02   2.827460e+00
  -1.294317e+01  -1.299846e+02
   1.277070e+02  -1.450266e+02
   1.162016e+02   3.479875e+01
  -2.667430e+00   1.226817e+02
  -1.463740e+02  -6.103647e+00
  -1.286302e+02  -1.945378e+02
   2.876740e+01  -2.854559e+02
   1.971787e+02  -1.655133e+02
   2.825237e+02   5.024321e+01
   2.243584e+02   2.005363e+02
   7.386706e+01   2.149099e+02
  -9.440761e+01   1.263514e+02
  -1.330808e+02   8.666738e+00
  -4.098241e+01  -1.953729e+01
   4.870032e+01   4.064490e+01
   9.328903e+00   9.235091e+01
  -1.013213e+02   7.073638e+01
  -1.307678e+02  -1.290076e+01
  -3.469372e+01  -4.931127e+01
   7.277751e+01  -2.159894e+00
   3.830019e+01   6.865910e+01
  -1.060492e+02   7.241646e+01
  -2.351274e+02  -2.236909e+01
  -2.213495e+02  -1.364735e+02
  -4.681716e+01  -2.092625e+02
   1.518765e+02  -1.975572e+02
   2.113763e+02  -1.009574e+02
   1.242022e+02   2.990357e+01
  -2.058541e+01   7.732478e+01
  -5.049166e+01   1.872537e+00
   4.333711e+01  -7.757044e+01
   1.489257e+02  -3.837977e+01
   1.663093e+02   8.956508e+01
   5.346045e+01   1.677321e+02
  -8.079811e+01   1.221750e+02
  -1.048304e+02   2.503812e+01
  -4.856075e+01  -2.649800e+01
   2.401953e+01   9.773639e+00
   2.330736e+01   7.558363e+01
  -7.465719e+01   1.054467e+02
  -1.656375e+02   2.209550e+01
  -1.408194e+02  -1.091836e+02
  -2.271926e+01  -1.665764e+02
   1.297625e+02  -1.231671e+02
   1.548024e+02  -1.358991e+01
   5.307190e+01   8.266751e+01
  -4.818154e+01   8.294606e+01
  -6.041376e+01   2.390812e+01
  -9.101142e+00  -1.696223e+01
   2.159123e+01  -1.030582e+01
  -7.561861e+00   1.263421e+01
  -6.690920e+01  -3.947879e+00
  -8.114310e+01  -7.311631e+01
  -6.378406e+00  -1.368652e+02
   1.082400e+02  -1.209292e+02
   1.917611e+02  -1.468245e+01
   1.466142e+02   1.331420e+02
   3.749894e+01   1.904022e+02
  -7.627009e+01   1.270743e+02
  -1.089811e+02   2.182009e+01
  -5.912940e+01  -4.447690e+01
  -2.707204e+01  -2.763826e+01
  -4.686020e+01   1.028370e+01
  -6.959215e+01   3.286568e+00
  -3.970002e+01  -4.245735e+01
   3.746480e+01  -7.679774e+01
   9.292349e+01  -5.117274e+01
   7.804026e+01   3.355131e+01
  -1.433436e+01   9.510537e+01
  -1.255749e+02   6.740742e+01
  -1.725272e+02  -5.391636e+01
  -7.734008e+01  -1.607833e+02
   8.947592e+01  -1.833519e+02
   2.099996e+02  -7.752181e+01
   2.013192e+02   7.625289e+01
   9.378014e+01   1.429061e+02
  -3.462880e+01   1.122165e+02
  -7.498097e+01   6.640035e+01
  -6.227031e+01   5.450942e+01
  -4.920834e+01   7.895934e+01
  -7.204128e+01   6.886284e+01
  -1.105551e+02  -2.005345e+01
  -9.602409e+01  -1.288651e+02
  -2.501422e+01  -1.811629e+02
   7.494979e+01  -1.413162e+02
   1.321372e+02  -1.609171e+01
   1.032566e+02   1.041534e+02
   8.008571e+00   1.336719e+02
  -5.806783e+01   7.449212e+01
  -4.749228e+01  -7.089200e+00
   3.050300e+00  -3.819136e+01
   1.521555e+01  -3.173946e+01
  -2.681860e+01  -9.023013e+00
  -6.589064e+01  -1.491225e+01
  -4.180519e+01  -3.399395e+01
   5.700976e+01  -3.341732e+01
   1.363242e+02  -8.629121e-01
   1.183602e+02   5.354693e+01
   6.017349e+00   7.058628e+01
  -1.020212e+02   5.618521e+01
  -1.229572e+02   9.644135e+00
  -3.651992e+01  -3.666524e+01
   4.924697e+01  -3.460895e+01
   6.220353e+01   1.484590e+01
   8.357654e+00   6.198143e+01
  -4.576618e+01   5.239543e+01
  -5.404927e+01   9.113331e-02
  -3.989636e+01  -4.278052e+01
  -3.752944e+01  -3.404608e+01
  -4.348095e+01  -4.676414e+00
  -5.390359e+01   1.972133e+00
  -2.818930e+01  -5.992525e+01
   2.168662e+01  -1.278156e+02
   1.021761e+02  -1.090217e+02
   1.483716e+02  -2.753741e+01
   1.034650e+02   7.497622e+01
   8.616336e-01   1.098186e+02
  -7.176483e+01   5.243661e+01
  -5.024737e+01  -1.014156e+01
   4.693620e+01  -1.740399e+01
   1.159143e+02   3.050865e+01
   5.691020e+01   8.860668e+01
  -6.728741e+01   9.403603e+01
  -1.568742e+02   3.545173e+01
  -1.341046e+02  -3.528823e+01
  -2.799883e+01  -7.343336e+01
   4.860518e+01  -5.180951e+01
   3.849414e+01  -1.606182e+00
  -3.271172e+01   2.495845e+01
  -7.209320e+01  -1.513389e+01
  -2.843493e+01  -9.423614e+01
   6.785664e+01  -1.246931e+02
   1.404560e+02  -5.632250e+01
   1.116762e+02   7.195085e+01
   1.176232e+01   1.647943e+02
  -7.157373e+01   1.206001e+02
  -8.449772e+01  -6.229785e+00
  -4.918271e+01  -9.362850e+01
   5.205977e+00  -8.384384e+01
   4.023217e+01  -1.354202e+01
   4.259216e+01   2.427148e+01
   1.890666e+01   7.080506e+00
   3.594329e+00  -1.622700e+01
   2.129769e+01   1.919195e+01
   4.546358e+01   7.492188e+01
   2.821437e+01   8.392701e+01
  -4.096149e+01   3.812999e+01
  -1.091143e+02  -2.458609e+01
  -1.060678e+02  -5.703999e+01
  -1.427438e+01  -4.193072e+01
   6.920659e+01  -2.443175e+01
   7.403648e+01  -8.292367e+00
   1.022460e+01   8.060198e+00
  -2.860237e+01   2.042006e+01
  -1.069759e+01   1.167048e+01
   1.325910e+01  -1.976655e+00
  -2.521279e+00  -5.250794e+00
  -6.061619e+01  -1.918441e+00
  -7.946645e+01  -1.736593e+01
  -7.996855e+00  -6.735102e+01
   8.866760e+01  -9.180676e+01
   1.545488e+02  -5.639928e+01
   1.183740e+02   4.945272e+01
   2.961320e+01   1.265435e+02
  -6.951035e+01   1.269215e+02
  -9.501482e+01   5.439113e+01
  -6.576283e+01  -1.660689e+01
  -2.134040e+01  -2.908159e+01
   1.983908e-01  -9.475902e+00
  -1.000168e+01  -4.747697e+00
  -2.662888e+01  -3.948874e+01
  -1.483598e+01  -7.307501e+01
   2.498191e+01  -5.975176e+01
   6.472434e+01   7.780807e+00
   5.843840e+01   8.259289e+01
   2.737896e+00   9.653546e+01
  -6.387090e+01   2.673008e+01
  -8.537225e+01  -5.054603e+01
  -3.188179e+01  -8.527137e+01
   5.548380e+01  -4.834024e+01
   8.452828e+01   7.740877e+00
   3.662324e+01   4.403697e+01
  -2.947868e+01   4.409230e+01
  -2.948005e+01   2.389124e+01
   2.429169e+01  -5.537631e+00
   5.916763e+01  -6.419035e+00
   1.380413e+01   2.153806e+01
  -6.082705e+01   5.577383e+01
  -9.539636e+01   4.513026e+01
  -5.427749e+01  -1.074745e+01
   7.685211e+00  -6.830256e+01
   4.451245e+01  -6.762813e+01
   3.336860e+01  -9.004112e+00
   6.615962e+00   4.315845e+01
  -2.013535e+01   3.810180e+01
  -3.043854e+01  -8.577933e+00
  -2.384968e+01  -4.415051e+01
   2.097777e+00  -2.802441e+01
   2.779159e+01   4.318581e+00
   3.442483e+01   1.857945e+01
   1.643553e+01   1.880958e+00
  -2.308164e+00  -1.502401e+01
  -4.675409e+00  -2.616902e+00
  -1.907993e+00   3.046724e+01
  -8.254041e+00   4.016621e+01
  -2.418145e+01   9.861442e+00
  -2.899859e+01  -3.025231e+01
  -4.366937e+00  -5.121125e+01
   3.451276e+01  -2.138153e+01
   5.042742e+01   2.928125e+01
   1.522706e+01   5.109943e+01
  -4.473928e+01   2.978943e+01
  -7.687069e+01  -1.000914e+01
  -4.264939e+01  -3.496379e+01
   2.192930e+01  -3.792689e+01
   5.349866e+01  -2.387646e+01
   2.254999e+01  -4.960726e+00
  -2.480022e+01   2.228738e+00
  -3.132113e+01  -1.236386e+01
   2.306350e+01  -2.349579e+01
   7.168326e+01  -1.816229e+01
