
 $NMID
 id='ANONYMOUS ', fmtdat='(2E16.6)'
 volume=1.0
 tramp=1.0
 $END
  -4.128663e+03   9.803558e+01
  -2.167208e+03  -3.047993e+03
   9.676294e+02  -2.699609e+03
   2.271840e+03  -6.743445e+02
   1.042309e+03   7.898771e+02
  -9.294220e+02   6.399880e+02
  -8.963333e+02  -3.606465e+02
   1.495805e+02  -1.055004e+03
   8.927775e+02  -6.565415e+02
   9.279688e+02   1.902530e+02
   4.086537e+02   9.379607e+02
  -3.654050e+02   8.805000e+02
  -6.921715e+02   8.656155e+01
  -3.189121e+02  -7.534654e+02
   3.793496e+02  -7.087458e+02
   6.933796e+02  -3.301506e+01
   2.126409e+02   7.138379e+02
  -4.012698e+02   5.910213e+02
  -6.469994e+02   7.399421e+01
  -3.585486e+02  -3.948804e+02
   2.784343e+01  -4.078157e+02
   2.383108e+02  -2.588727e+02
   2.606051e+02   2.217398e+00
  -1.651925e+02   1.230576e+02
  -4.108875e+02  -1.527638e+02
  -2.136355e+02  -5.199538e+02
   5.450734e+02  -3.756826e+02
   9.181227e+02   9.767863e+01
   3.943151e+02   6.912889e+02
  -4.884760e+02   4.630107e+02
  -7.801242e+02  -1.753448e+01
  -4.202078e+02  -5.022044e+02
   3.174755e+02  -4.908203e+02
   6.085596e+02  -1.394865e+02
   4.233044e+02   2.764684e+02
  -2.560431e+01   4.973550e+02
  -2.918047e+02   2.227739e+02
  -1.614036e+02  -2.529753e+02
   2.596591e+02  -3.844923e+02
   5.098900e+02   1.142472e+01
   2.255512e+02   7.763177e+02
  -3.923173e+02   6.769170e+02
  -6.852693e+02  -7.038743e+01
  -1.960211e+02  -6.096887e+02
   3.111717e+02  -3.315752e+02
   3.446304e+02   3.781994e+02
  -8.815588e+01   5.745552e+02
  -5.863343e+02   9.160683e+01
  -6.235725e+02  -4.673537e+02
  -1.145223e+02  -6.191302e+02
   4.493613e+02  -3.068725e+02
   6.312432e+02   6.522912e+01
   3.928085e+02   4.739890e+02
  -1.654190e+02   3.033109e+02
  -4.602919e+02   5.300279e+01
  -1.790072e+02  -2.186096e+02
   1.573222e+02  -1.091408e+02
   1.425346e+02   1.768076e+02
  -2.272205e+02   1.656808e+02
  -3.949245e+02  -1.053825e+02
  -1.200923e+02  -3.407710e+02
   2.259613e+02  -2.665767e+02
   3.215327e+02  -5.890087e+01
   1.912801e+02   1.011837e+02
  -3.105458e+01   2.040195e+02
  -2.319047e+02   3.352107e+02
  -3.758304e+02   1.958464e+02
  -3.040156e+02  -1.561102e+02
  -4.544233e+01  -4.935849e+02
   1.434718e+02  -3.678266e+02
   1.131605e+02  -6.745305e+01
   2.929322e+01   1.802601e+01
   5.137412e+01  -1.035434e+02
   2.029831e+02  -1.149362e+02
   2.899696e+02   7.187850e+01
   1.732950e+02   2.870585e+02
  -8.921011e+01   2.685985e+02
  -2.339001e+02   1.327229e+01
  -2.115399e+02  -2.803455e+02
   4.695336e+01  -2.999149e+02
   2.815004e+02  -1.365595e+02
   3.588484e+02   2.071114e+02
   1.639440e+02   3.732509e+02
  -1.550323e+02   3.079061e+02
  -2.251975e+02   1.043064e+02
  -1.592815e+02  -2.170097e+01
  -1.053109e+02   2.541816e+01
  -2.291027e+02   7.189896e+01
  -3.987174e+02  -7.284470e+01
  -3.118966e+02  -2.930868e+02
   4.271767e+01  -4.568947e+02
   4.013040e+02  -4.112203e+02
   5.328493e+02  -1.539378e+02
   3.376875e+02   1.279737e+02
   4.693850e+01   3.049888e+02
  -1.548738e+02   2.444481e+02
  -9.439453e+01   1.527210e+01
   9.168891e+01  -1.200380e+02
   2.021593e+02   2.718652e+01
   4.251162e+01   1.963889e+02
  -1.691461e+02   1.854250e+02
  -1.839047e+02  -8.564448e+01
   3.404221e+01  -2.155467e+02
   2.047316e+02  -3.150306e+01
   1.526902e+02   2.457774e+02
  -5.187390e+01   3.420831e+02
  -2.352255e+02   1.611452e+02
  -3.188968e+02  -6.356010e+01
  -2.623226e+02  -2.873711e+02
  -9.527515e+01  -2.561099e+02
   1.278242e+02  -1.473797e+02
   1.894696e+02  -2.146293e+01
   5.274147e+01   4.008599e+01
  -6.870462e+01  -3.745998e+01
  -2.484978e+01  -1.358053e+02
   1.320367e+02  -9.885076e+01
   1.930282e+02   1.572965e+01
   5.452406e+01   7.484752e+01
  -7.971570e+01   1.485570e+01
  -6.321666e+01  -7.498128e+01
   1.291144e+02  -9.012388e+01
   2.835323e+02   1.139025e+01
   2.643083e+02   1.472308e+02
   5.723759e+01   2.526894e+02
  -1.981998e+02   2.522787e+02
  -2.899478e+02   1.249661e+02
  -1.668393e+02  -5.956731e+01
   2.440854e+01  -1.110870e+02
   1.033723e+02  -1.055152e+00
  -2.966670e+01   1.180644e+02
  -2.054165e+02   6.698338e+01
  -2.254415e+02  -1.067893e+02
  -5.452926e+01  -2.196901e+02
   1.116186e+02  -1.601289e+02
   1.484547e+02  -3.053621e+01
   8.035996e+01   4.373556e+01
  -2.502573e+01   4.411580e+00
  -3.841563e+01  -8.944051e+01
   7.072150e+01  -1.077978e+02
   1.965633e+02  -3.742297e+01
   1.836748e+02   1.198579e+02
   1.686169e+01   2.181310e+02
  -1.756290e+02   1.486360e+02
  -2.068784e+02   5.533501e+00
  -5.887776e+01  -1.174198e+02
   6.906159e+01  -1.098094e+02
   8.587736e+01  -2.583994e+01
   1.663197e+01   3.524903e+01
  -2.605515e+01   2.136760e+01
   1.453613e+01  -4.708370e+00
   7.108855e+01   1.480307e+01
   8.724058e+01   8.539194e+01
   1.174048e+01   1.515599e+02
  -1.268191e+02   1.460445e+02
  -2.256250e+02   1.496426e+01
  -1.878751e+02  -1.571009e+02
  -3.483272e+01  -2.471208e+02
   1.185403e+02  -1.616600e+02
   1.312811e+02  -2.063671e+01
   6.156110e+01   5.998897e+01
   2.573015e+01   3.523709e+01
   5.303181e+01  -1.069507e+01
   7.559979e+01  -6.271923e+00
   4.179284e+01   4.650337e+01
  -5.247051e+01   8.043122e+01
  -1.063367e+02   5.030829e+01
  -7.989136e+01  -3.210300e+01
   1.348044e+01  -1.067858e+02
   1.413704e+02  -7.455664e+01
   1.864028e+02   4.923831e+01
   9.671528e+01   1.814895e+02
  -1.120664e+02   2.271409e+02
  -2.688153e+02   9.091608e+01
  -2.679309e+02  -8.994652e+01
  -1.077546e+02  -1.889185e+02
   4.722890e+01  -1.535241e+02
   1.026083e+02  -8.147847e+01
   8.579317e+01  -6.296704e+01
   7.237818e+01  -8.653326e+01
   9.473867e+01  -7.339916e+01
   1.229168e+02   2.122412e+01
   1.042503e+02   1.582890e+02
   1.257214e+01   2.084852e+02
  -9.821629e+01   1.618959e+02
  -1.837787e+02   1.196720e+01
  -1.274645e+02  -1.237384e+02
  -2.080914e+01  -1.650401e+02
   6.687930e+01  -9.174713e+01
   6.557419e+01   2.126916e+00
   3.946046e+00   3.850855e+01
  -7.778440e+00   3.312491e+01
   3.609365e+01   1.812764e+01
   7.696855e+01   2.648770e+01
   4.738040e+01   3.795208e+01
  -6.742312e+01   3.192143e+01
  -1.569114e+02  -5.521209e+00
  -1.378443e+02  -6.374145e+01
  -1.189866e+01  -8.981543e+01
   1.281711e+02  -6.956385e+01
   1.406387e+02  -1.064252e+01
   4.745904e+01   4.099282e+01
  -5.868505e+01   3.473753e+01
  -7.525949e+01  -2.091761e+01
  -2.461259e+00  -6.324480e+01
   5.838067e+01  -5.797396e+01
   6.274516e+01   6.360117e+00
   3.866144e+01   4.857896e+01
   4.204829e+01   4.695882e+01
   5.992848e+01   6.092325e+00
   6.623367e+01   1.517471e+00
   3.122853e+01   7.098266e+01
  -3.781566e+01   1.445777e+02
  -1.184317e+02   1.438702e+02
  -1.565026e+02   2.463246e+01
  -1.118669e+02  -8.676223e+01
   5.910401e+00  -1.207023e+02
   8.836636e+01  -5.995931e+01
   5.868260e+01   1.902102e+01
  -5.948787e+01   1.828497e+01
  -1.354210e+02  -5.032076e+01
  -7.685214e+01  -1.083631e+02
   8.108478e+01  -1.000778e+02
   1.957247e+02  -4.606559e+01
   1.521393e+02   4.561104e+01
   3.713288e+01   8.872620e+01
  -6.724329e+01   7.261548e+01
  -4.976866e+01   4.280662e+00
   3.836648e+01  -2.238580e+01
   8.710851e+01   2.886931e+01
   2.826799e+01   1.222518e+02
  -9.488307e+01   1.444383e+02
  -1.709262e+02   5.541646e+01
  -1.115912e+02  -1.073169e+02
   1.625845e+00  -1.862901e+02
   9.726001e+01  -1.440739e+02
   1.067227e+02   1.379825e+01
   5.514414e+01   1.160124e+02
  -6.597967e+00   1.059748e+02
  -4.892011e+01   1.632063e+01
  -5.235797e+01  -3.206120e+01
  -2.685584e+01  -8.871616e+00
  -4.890497e+00   2.086890e+01
  -1.730688e+01  -1.274927e+01
  -5.072166e+01  -8.748143e+01
  -3.294922e+01  -1.126325e+02
   4.635826e+01  -4.588351e+01
   1.334283e+02   4.350344e+01
   1.211220e+02   8.336282e+01
   1.272847e+01   5.249094e+01
  -9.137694e+01   1.687057e+01
  -9.104663e+01   3.601815e+00
  -8.233478e+00  -5.673728e+00
   3.918834e+01  -2.026072e+01
   1.344840e+01  -1.968794e+01
  -2.301097e+01   2.236638e-01
   5.436297e+00   1.024977e+01
   7.407071e+01   5.061741e+00
   9.077799e+01   3.225885e+01
   4.835589e+00   7.723181e+01
  -1.169029e+02   1.070351e+02
  -1.918936e+02   4.358574e+01
  -1.359809e+02  -7.948379e+01
  -8.831137e+00  -1.668308e+02
   9.155083e+01  -1.425625e+02
   1.140857e+02  -5.057381e+01
   7.981973e+01   2.584068e+01
   2.454609e+01   3.262663e+01
  -4.926541e+00   8.777181e+00
   9.864779e+00   3.174066e+00
   3.030982e+01   4.685117e+01
   1.733709e+01   9.278665e+01
  -3.321286e+01   6.734677e+01
  -7.875867e+01  -2.252602e+01
  -7.376059e+01  -1.166962e+02
  -4.036647e+00  -1.123997e+02
   8.282862e+01  -2.082094e+01
   9.365572e+01   8.413128e+01
   2.745948e+01   9.945689e+01
  -6.424355e+01   4.771625e+01
  -9.110029e+01  -1.448804e+01
  -3.538393e+01  -4.927031e+01
   3.570598e+01  -4.616580e+01
   3.058963e+01  -2.930127e+01
  -3.236047e+01  -3.282828e+00
  -6.767678e+01   5.983168e+00
  -1.128185e+01  -2.624613e+01
   8.429664e+01  -6.773279e+01
   1.131030e+02  -5.290541e+01
   6.123971e+01   1.311063e+01
  -2.187330e+01   8.131651e+01
  -5.425781e+01   7.384427e+01
  -3.445604e+01   2.317227e+00
  -1.177554e+00  -5.461152e+01
   2.599159e+01  -3.923377e+01
   3.530859e+01   1.943754e+01
   2.239405e+01   5.626865e+01
  -5.638544e+00   3.013632e+01
  -3.038949e+01  -1.152333e+01
  -3.973988e+01  -2.155556e+01
  -2.083415e+01  -2.493742e+00
  -6.245088e-02   1.287134e+01
   1.006149e+01  -3.512846e+00
   1.057917e+01  -3.745956e+01
   2.037512e+01  -3.872834e+01
   3.186592e+01  -2.928693e+00
   2.541186e+01   4.395528e+01
  -5.061600e+00   6.074225e+01
  -4.396301e+01   1.901025e+01
  -5.380404e+01  -3.768710e+01
  -9.005202e+00  -6.060669e+01
   5.698542e+01  -3.209347e+01
   8.659532e+01   2.289968e+01
   4.430654e+01   4.450235e+01
  -2.678595e+01   3.602793e+01
  -6.338903e+01   1.782700e+01
  -2.411255e+01   3.692602e+00
   3.361792e+01   4.728867e+00
   3.673740e+01   1.702381e+01
  -2.982935e+01   3.156997e+01
  -9.022740e+01   1.291139e+01
