
 $NMID
 id='ANONYMOUS ', fmtdat='(2E16.6)'
 volume=1.0
 tramp=1.0
 $END
  -4.383202e+03   2.072952e+02
  -2.760066e+03  -2.344697e+03
   5.494045e+02  -2.762492e+03
   2.190063e+03  -9.530384e+02
   1.063847e+03   4.790384e+02
  -4.891027e+02   5.153809e+02
  -1.011280e+03  -3.925556e+02
   1.845111e+01  -1.022112e+03
   7.768305e+02  -8.503436e+02
   9.557188e+02  -1.742177e+01
   5.852774e+02   6.785934e+02
  -1.408721e+02   9.186055e+02
  -5.831695e+02   1.236916e+02
  -4.627286e+02  -7.234938e+02
   2.253826e+02  -7.427184e+02
   5.507706e+02   2.931160e+01
   3.414498e+02   6.673082e+02
  -3.120669e+02   6.675408e+02
  -5.774424e+02   1.673777e+02
  -4.480517e+02  -3.207668e+02
  -6.917401e+01  -4.837980e+02
   2.551930e+02  -2.873507e+02
   2.208738e+02  -2.439762e+01
  -1.050487e+02   3.047762e+01
  -3.600661e+02  -1.636386e+02
  -1.627990e+02  -4.204246e+02
   4.538749e+02  -3.557380e+02
   8.037186e+02   1.372115e+02
   4.045941e+02   4.959935e+02
  -3.634968e+02   4.310345e+02
  -7.571510e+02  -6.989548e+01
  -2.930890e+02  -4.368604e+02
   2.531246e+02  -5.155554e+02
   5.413566e+02  -2.114618e+02
   4.225688e+02   2.233006e+02
   1.234351e+02   4.459333e+02
  -1.687722e+02   2.570755e+02
  -8.189713e+01  -1.655761e+02
   9.125041e+01  -4.222841e+02
   3.735075e+02   6.869402e+01
   1.851674e+02   7.696273e+02
  -3.408788e+02   6.686851e+02
  -5.319011e+02   5.037339e+01
  -2.928537e+02  -4.818222e+02
   2.973912e+02  -3.156611e+02
   3.873039e+02   3.138669e+02
  -5.521862e+01   5.771499e+02
  -5.396839e+02   1.484998e+02
  -6.170417e+02  -4.561486e+02
  -1.991523e+02  -5.790264e+02
   3.446027e+02  -3.545978e+02
   6.670500e+02   9.015926e+01
   3.371307e+02   3.758628e+02
  -1.395679e+02   4.023699e+02
  -4.457803e+02   8.179421e+01
  -2.541112e+02  -1.529724e+02
   8.377539e+01  -8.983950e+01
   1.264772e+02   1.259904e+02
  -1.327388e+02   1.679589e+02
  -3.293201e+02  -7.012277e+01
  -1.613457e+02  -3.112055e+02
   2.011920e+02  -2.675348e+02
   3.732799e+02  -8.787809e+01
   2.152743e+02   1.047562e+02
  -3.024159e+01   2.632512e+02
  -2.523816e+02   3.443965e+02
  -3.298387e+02   2.256675e+02
  -2.831026e+02  -1.567031e+02
  -1.172709e+02  -4.459068e+02
   1.074501e+02  -3.811909e+02
   9.159225e+01  -1.149021e+02
   3.353248e+01  -8.443624e+00
   5.514628e+01  -7.278293e+01
   2.125991e+02  -1.125206e+02
   2.809391e+02   7.111383e+01
   1.607562e+02   2.913657e+02
  -7.958913e+01   2.485617e+02
  -2.276718e+02  -4.367507e+00
  -1.866552e+02  -2.391949e+02
   7.447493e+00  -3.136885e+02
   2.580313e+02  -1.003095e+02
   3.671829e+02   1.672146e+02
   1.828099e+02   3.723197e+02
  -6.866860e+01   3.040781e+02
  -2.121055e+02   1.494127e+02
  -1.561941e+02   3.752716e+01
  -1.211824e+02   4.917643e+01
  -2.532657e+02   5.123443e+01
  -4.163203e+02  -7.523210e+01
  -3.550153e+02  -3.100087e+02
   6.962421e+00  -4.545513e+02
   3.767720e+02  -4.245358e+02
   5.111652e+02  -1.954756e+02
   3.444218e+02   9.956495e+01
   6.087233e+01   3.015872e+02
  -1.197149e+02   2.656717e+02
  -7.602489e+01   2.907317e+01
   1.277274e+02  -9.171014e+01
   1.925177e+02   1.175100e-01
   5.522906e+01   2.108596e+02
  -1.773814e+02   1.784073e+02
  -1.797335e+02  -5.194574e+01
   2.990089e+01  -1.731323e+02
   1.887411e+02  -2.606980e+01
   1.849745e+02   2.619634e+02
  -4.590480e+01   3.671281e+02
  -2.555338e+02   2.036824e+02
  -3.641876e+02  -7.926865e+01
  -2.940702e+02  -2.531106e+02
  -8.369735e+01  -2.930028e+02
   1.152330e+02  -1.604985e+02
   1.851257e+02  -1.909222e+01
   6.783946e+01   2.518938e+01
  -6.533822e+01  -4.778186e+01
  -1.760244e+01  -1.335139e+02
   1.255005e+02  -1.011729e+02
   1.725208e+02   1.764815e+01
   6.449251e+01   6.880478e+01
  -8.771493e+01   1.044756e+01
  -4.686280e+01  -8.964829e+01
   1.339023e+02  -9.347526e+01
   3.079391e+02   4.666136e+00
   2.633315e+02   1.534078e+02
   5.326509e+01   2.803306e+02
  -2.148398e+02   2.634109e+02
  -3.047165e+02   1.212645e+02
  -1.656072e+02  -5.303378e+01
   2.342017e+01  -1.174812e+02
   8.710611e+01  -1.233112e+01
  -4.794881e+01   1.101237e+02
  -2.000191e+02   4.376843e+01
  -2.173759e+02  -1.080540e+02
  -6.899573e+01  -2.053784e+02
   8.837693e+01  -1.579936e+02
   1.503868e+02  -2.721649e+01
   7.234966e+01   4.642347e+01
  -3.514632e+01  -4.815797e+00
  -4.097273e+01  -9.167059e+01
   8.059694e+01  -1.189906e+02
   2.038000e+02  -2.363158e+01
   1.901432e+02   1.302583e+02
   9.199012e+00   2.396175e+02
  -1.709909e+02   1.706940e+02
  -2.093671e+02   1.017222e+01
  -7.140280e+01  -1.269356e+02
   6.859255e+01  -1.190561e+02
   8.166277e+01  -3.129105e+01
   1.738787e+01   2.395099e+01
  -2.433358e+01   1.400637e+01
   1.271530e+01  -1.537259e+01
   7.882153e+01   8.545036e+00
   8.894031e+01   8.600891e+01
   1.314857e+01   1.780766e+02
  -1.311905e+02   1.496080e+02
  -2.432252e+02   2.573493e+01
  -1.972472e+02  -1.547407e+02
  -4.136377e+01  -2.391180e+02
   1.028524e+02  -1.862644e+02
   1.449505e+02  -3.293122e+01
   7.789340e+01   5.427687e+01
   3.336577e+01   3.826520e+01
   5.591929e+01  -1.364906e+01
   8.766952e+01  -8.072932e+00
   4.486626e+01   5.570510e+01
  -3.932732e+01   9.544452e+01
  -1.113167e+02   5.662669e+01
  -9.959645e+01  -3.957729e+01
   1.640295e+01  -1.199406e+02
   1.575432e+02  -8.784948e+01
   2.142852e+02   5.731590e+01
   9.447178e+01   2.220169e+02
  -1.093959e+02   2.343587e+02
  -2.842440e+02   9.595389e+01
  -2.669245e+02  -9.126704e+01
  -1.104564e+02  -1.807704e+02
   3.844227e+01  -1.556123e+02
   1.007089e+02  -9.188492e+01
   7.920616e+01  -7.227015e+01
   6.913462e+01  -9.413596e+01
   1.049989e+02  -8.515549e+01
   1.317983e+02   1.863882e+01
   1.247895e+02   1.575070e+02
   3.344401e+01   2.348445e+02
  -1.157438e+02   1.825492e+02
  -1.755197e+02   2.695854e+01
  -1.556757e+02  -1.241645e+02
  -1.441799e+01  -1.619712e+02
   6.831068e+01  -1.039603e+02
   6.293255e+01  -1.667787e+00
   2.249632e+00   4.923723e+01
  -1.262975e+01   3.861261e+01
   3.545094e+01   1.669453e+01
   8.418130e+01   2.167045e+01
   4.692756e+01   4.110078e+01
  -6.574448e+01   3.544658e+01
  -1.775336e+02   5.391152e+00
  -1.490671e+02  -4.985466e+01
  -1.489869e+01  -9.839158e+01
   1.265048e+02  -7.969331e+01
   1.514620e+02  -2.477162e+01
   4.525812e+01   4.278888e+01
  -6.350205e+01   3.916530e+01
  -7.910314e+01  -2.129409e+01
  -1.112480e+01  -7.146916e+01
   5.269006e+01  -5.705594e+01
   6.542149e+01   4.821929e-01
   5.316111e+01   5.670607e+01
   4.946536e+01   4.467923e+01
   6.159989e+01  -7.179978e-01
   6.975237e+01  -2.733843e+00
   3.841374e+01   7.371968e+01
  -3.479405e+01   1.573252e+02
  -1.267222e+02   1.506700e+02
  -1.814066e+02   3.316346e+01
  -1.361225e+02  -9.824769e+01
  -3.127829e+00  -1.302640e+02
   8.903697e+01  -6.790311e+01
   6.539750e+01   1.451813e+01
  -6.324848e+01   2.053015e+01
  -1.535577e+02  -4.586557e+01
  -8.008777e+01  -1.104816e+02
   8.762562e+01  -1.100688e+02
   2.021062e+02  -5.409169e+01
   1.643073e+02   2.894955e+01
   3.531799e+01   9.088743e+01
  -6.130542e+01   6.955209e+01
  -4.988079e+01   7.177058e+00
   4.029941e+01  -3.017860e+01
   9.337780e+01   2.199030e+01
   4.028130e+01   1.269442e+02
  -9.027330e+01   1.647879e+02
  -1.784217e+02   7.034475e+01
  -1.368221e+02  -1.047700e+02
  -1.550909e+01  -2.066117e+02
   8.929690e+01  -1.460076e+02
   1.038435e+02   4.570706e+00
   6.232624e+01   1.197673e+02
  -1.487884e+00   1.151614e+02
  -4.879892e+01   1.839727e+01
  -5.593867e+01  -3.239047e+01
  -2.731160e+01  -8.338688e+00
  -4.972353e+00   1.891455e+01
  -2.378757e+01  -2.004933e+01
  -5.733778e+01  -9.278423e+01
  -4.528059e+01  -1.089610e+02
   5.174612e+01  -4.598833e+01
   1.426667e+02   4.161296e+01
   1.393815e+02   6.830662e+01
   1.819538e+01   5.005358e+01
  -8.955750e+01   2.558816e+01
  -8.964217e+01   7.819964e+00
  -1.345292e+01  -9.618943e+00
   3.998086e+01  -2.417626e+01
   1.716266e+01  -1.509871e+01
  -2.208876e+01   5.270665e+00
   5.029197e+00   7.971763e+00
   7.831299e+01   3.723978e+00
   9.224972e+01   2.355859e+01
   1.232835e+01   8.533752e+01
  -1.197758e+02   1.193016e+02
  -1.816163e+02   5.909132e+01
  -1.485745e+02  -6.004014e+01
  -3.143927e+01  -1.679099e+02
   8.211073e+01  -1.609268e+02
   1.236815e+02  -6.366796e+01
   8.549795e+01   2.216537e+01
   2.667862e+01   3.928289e+01
  -2.255420e+00   1.003820e+01
   9.591429e+00   5.842298e+00
   3.623739e+01   4.769641e+01
   2.081163e+01   9.145022e+01
  -3.190520e+01   7.700885e+01
  -8.141648e+01  -1.929010e+01
  -7.895972e+01  -1.158110e+02
  -2.448353e+00  -1.202877e+02
   8.867895e+01  -2.421125e+01
   1.051583e+02   7.411424e+01
   3.306378e+01   1.136754e+02
  -6.751779e+01   6.332914e+01
  -1.081305e+02  -7.746273e+00
  -4.616236e+01  -5.617204e+01
   3.311192e+01  -5.462540e+01
   3.500771e+01  -3.098893e+01
  -3.428459e+01   6.340566e-01
  -7.367195e+01   8.173172e+00
  -1.663968e+01  -2.598795e+01
   8.722996e+01  -7.198234e+01
   1.271165e+02  -6.119993e+01
   7.037838e+01   1.394971e+01
  -1.823000e+01   8.626263e+01
  -5.616275e+01   8.407301e+01
  -4.104278e+01   8.604899e+00
  -2.937740e+00  -5.846140e+01
   2.436511e+01  -4.839354e+01
   3.923908e+01   1.812762e+01
   2.584605e+01   5.564462e+01
  -2.557508e+00   3.768227e+01
  -3.522496e+01  -8.242965e+00
  -4.187871e+01  -2.290187e+01
  -2.183690e+01  -6.065073e-01
   2.234950e+00   1.438082e+01
   6.967961e+00   2.981016e-01
   4.228016e+00  -3.579088e+01
   1.229563e+01  -5.414173e+01
   2.873420e+01  -1.497953e+01
   3.642951e+01   4.674625e+01
   7.897097e-01   6.536056e+01
  -4.586183e+01   2.419983e+01
  -6.149312e+01  -4.387995e+01
  -1.756181e+01  -6.546619e+01
   5.428343e+01  -3.298959e+01
   9.821332e+01   1.350499e+01
   5.323621e+01   4.654782e+01
  -3.077783e+01   4.459145e+01
  -7.091098e+01   2.728620e+01
  -2.539837e+01   5.528411e+00
   3.659788e+01  -9.672076e-01
   4.007116e+01   1.298154e+01
  -3.296115e+01   3.080923e+01
  -9.335347e+01   1.962031e+01
