
 $NMID
 id='ANONYMOUS ', fmtdat='(2E16.6)'
 volume=1.0
 tramp=1.0
 $END
   3.772841e+03  -3.820769e+02
   2.491799e+03   1.959295e+03
  -3.004212e+02   2.599120e+03
  -1.422615e+03   1.309732e+03
  -1.218365e+03  -6.950656e+01
   1.815379e+02  -5.928200e+02
   7.108383e+02   1.489151e+02
   8.758563e+01   6.965173e+02
  -4.974480e+02   7.032724e+02
  -8.129433e+02   7.510329e+01
  -4.437423e+02  -6.281671e+02
   8.613121e+00  -7.816612e+02
   4.483989e+02  -1.482428e+02
   3.294317e+02   5.286349e+02
  -1.158125e+02   6.018077e+02
  -5.088595e+02   1.042389e+02
  -3.385799e+02  -5.655061e+02
   9.051096e+01  -7.011480e+02
   4.881375e+02  -1.642715e+02
   3.901664e+02   2.202431e+02
   6.929656e+01   4.160401e+02
  -1.688279e+02   2.716775e+02
  -1.494678e+02   8.859307e+01
   9.029901e+01   6.119550e+01
   3.468637e+02   1.804558e+02
   1.228347e+02   3.971866e+02
  -3.906021e+02   2.830572e+02
  -6.668233e+02  -1.620268e+02
  -3.152384e+02  -5.039304e+02
   3.609534e+02  -3.353898e+02
   6.079368e+02   7.424263e+01
   2.720923e+02   3.969326e+02
  -1.813934e+02   4.285719e+02
  -4.846209e+02   2.529605e+02
  -3.375886e+02  -1.660996e+02
  -1.420934e+02  -3.946294e+02
   5.646588e+01  -1.993843e+02
   4.612069e+01   1.450893e+02
  -9.953726e+01   2.941158e+02
  -2.962954e+02   5.095035e+01
  -1.588076e+02  -5.311160e+02
   3.032594e+02  -5.346266e+02
   4.775924e+02  -5.648638e+01
   2.374951e+02   3.695700e+02
  -1.960127e+02   2.157475e+02
  -2.387615e+02  -2.563729e+02
   3.145459e+01  -4.213878e+02
   4.636555e+02  -7.561935e+01
   5.022164e+02   3.723764e+02
   1.290858e+02   4.981069e+02
  -3.404639e+02   3.364181e+02
  -5.526909e+02  -6.372926e+01
  -3.751173e+02  -2.650784e+02
   1.161895e+02  -2.931384e+02
   3.279580e+02  -1.159148e+02
   2.298153e+02   1.075804e+02
  -4.658350e+01   4.447485e+01
  -9.582270e+01  -4.881969e+01
   1.171478e+02  -1.202336e+02
   2.558225e+02   1.769845e+01
   1.613478e+02   2.164910e+02
  -1.559683e+02   2.490393e+02
  -3.087451e+02   1.052362e+02
  -2.116944e+02  -9.581246e+01
   1.864674e+01  -2.619871e+02
   2.320785e+02  -3.405172e+02
   3.162383e+02  -1.820431e+02
   2.580018e+02   1.168165e+02
   7.936429e+01   3.568779e+02
  -4.650889e+01   3.317237e+02
  -7.474174e+01   1.461062e+02
  -1.868730e+01   5.408193e+01
  -9.748314e+01   9.254717e+01
  -1.951666e+02   9.760238e+01
  -2.518622e+02  -7.848403e+01
  -1.302632e+02  -2.313225e+02
   1.120507e+02  -1.900801e+02
   1.968530e+02   7.366633e+00
   1.669581e+02   2.216017e+02
  -1.036073e+01   2.436633e+02
  -2.349175e+02   8.864686e+01
  -3.129211e+02  -1.692916e+02
  -1.825740e+02  -3.132377e+02
   7.241516e+01  -2.793815e+02
   1.843408e+02  -1.477911e+02
   1.557176e+02  -4.852982e+01
   1.264563e+02  -5.560226e+01
   2.406859e+02  -5.944885e+01
   3.721905e+02   7.212580e+01
   3.337501e+02   2.632123e+02
  -1.372261e+01   4.168481e+02
  -3.588474e+02   4.009057e+02
  -4.489644e+02   1.964752e+02
  -2.858466e+02  -7.367816e+01
  -4.425687e+01  -2.550991e+02
   7.888459e+01  -2.266717e+02
   3.248527e+01  -3.119020e+01
  -1.177325e+02   7.180037e+01
  -1.662005e+02  -2.303742e+01
  -4.053758e+01  -1.438301e+02
   1.285079e+02  -1.103872e+02
   1.383261e+02   4.416933e+01
  -3.396147e+01   1.451124e+02
  -1.508415e+02   2.122042e+01
  -1.629003e+02  -2.241025e+02
   4.367740e+00  -3.186390e+02
   2.324592e+02  -1.921916e+02
   3.322865e+02   5.642781e+01
   2.677404e+02   2.285755e+02
   6.964590e+01   2.579629e+02
  -1.047215e+02   1.475254e+02
  -1.600027e+02   1.269933e+01
  -4.073270e+01  -1.921358e+01
   6.001028e+01   4.457799e+01
   2.017620e+01   1.152392e+02
  -1.233797e+02   8.035156e+01
  -1.555632e+02  -7.634125e+00
  -5.219726e+01  -5.448417e+01
   7.082934e+01  -5.307079e+00
   4.422139e+01   7.537389e+01
  -1.275275e+02   8.565254e+01
  -2.935352e+02   6.482605e+00
  -2.363360e+02  -1.442783e+02
  -3.922504e+01  -2.540692e+02
   1.820866e+02  -2.374684e+02
   2.743656e+02  -1.083972e+02
   1.502745e+02   3.673954e+01
  -2.308297e+01   8.461824e+01
  -7.980876e+01   1.183993e+01
   3.969215e+01  -9.087039e+01
   1.786402e+02  -4.869235e+01
   1.968398e+02   9.424019e+01
   6.659489e+01   1.726840e+02
  -7.939038e+01   1.485291e+02
  -1.257538e+02   3.043058e+01
  -5.647867e+01  -3.387335e+01
   2.861219e+01   1.439713e+01
   3.264101e+01   9.233754e+01
  -7.967211e+01   1.033503e+02
  -2.036902e+02   1.484127e+01
  -1.915819e+02  -1.089551e+02
  -1.423110e+01  -2.123982e+02
   1.384791e+02  -1.545502e+02
   1.709157e+02  -1.081860e+01
   6.533946e+01   9.624031e+01
  -5.969756e+01   9.893698e+01
  -7.667317e+01   2.888732e+01
  -9.058554e+00  -3.053010e+01
   2.448306e+01  -1.333535e+01
  -6.331584e+00   2.110429e+01
  -8.397633e+01  -2.550596e+00
  -9.228818e+01  -8.410648e+01
  -1.471619e+01  -1.657489e+02
   1.281539e+02  -1.494631e+02
   2.288385e+02  -1.596278e+01
   1.959148e+02   1.365758e+02
   3.744795e+01   2.075089e+02
  -1.002063e+02   1.547583e+02
  -1.245305e+02   2.719701e+01
  -7.210668e+01  -4.336662e+01
  -3.318797e+01  -3.054069e+01
  -5.265824e+01   1.451332e+01
  -8.079195e+01   3.784927e+00
  -5.004218e+01  -5.487074e+01
   4.076572e+01  -9.297548e+01
   1.069790e+02  -6.496092e+01
   9.759919e+01   3.559709e+01
  -1.253577e+01   1.086491e+02
  -1.490708e+02   8.781657e+01
  -1.961090e+02  -5.489107e+01
  -1.016937e+02  -1.991792e+02
   1.069226e+02  -2.182351e+02
   2.578577e+02  -9.053589e+01
   2.418220e+02   8.471099e+01
   9.691751e+01   1.564836e+02
  -3.113172e+01   1.378559e+02
  -8.550437e+01   8.329248e+01
  -6.512659e+01   7.105835e+01
  -5.602996e+01   9.466334e+01
  -8.880838e+01   7.298748e+01
  -1.205026e+02  -1.583981e+01
  -1.140497e+02  -1.389070e+02
  -2.525469e+01  -2.165355e+02
   9.133359e+01  -1.682420e+02
   1.644740e+02  -1.055272e+01
   1.309928e+02   1.181367e+02
   1.684983e+01   1.465914e+02
  -6.718106e+01   8.525172e+01
  -5.827543e+01  -1.563452e+00
  -3.079388e+00  -4.309001e+01
   2.044774e+01  -2.603602e+01
  -3.071913e+01  -1.448255e+01
  -8.079516e+01  -1.726173e+01
  -4.521767e+01  -3.757205e+01
   6.787325e+01  -3.722290e+01
   1.543072e+02  -5.669637e+00
   1.360414e+02   5.854670e+01
   8.617978e+00   8.911255e+01
  -1.154915e+02   7.361735e+01
  -1.383029e+02   1.218642e+01
  -4.322213e+01  -4.091282e+01
   5.352378e+01  -4.458689e+01
   7.584431e+01   1.708068e+01
   1.867171e+01   6.938767e+01
  -4.538487e+01   6.366529e+01
  -6.703649e+01  -8.817712e-01
  -5.233060e+01  -4.926673e+01
  -4.576806e+01  -3.930902e+01
  -5.525805e+01   4.186754e+00
  -6.115028e+01   1.415176e+00
  -4.085966e+01  -6.653402e+01
   3.050631e+01  -1.490491e+02
   1.141186e+02  -1.392136e+02
   1.632554e+02  -3.123032e+01
   1.242780e+02   9.084815e+01
   5.666274e+00   1.246411e+02
  -8.189510e+01   6.427274e+01
  -6.201407e+01  -9.267329e+00
   5.696411e+01  -2.274038e+01
   1.281059e+02   4.029859e+01
   7.353414e+01   9.792814e+01
  -7.665268e+01   1.092725e+02
  -1.881136e+02   5.352510e+01
  -1.426966e+02  -3.753057e+01
  -3.341251e+01  -8.368701e+01
   6.397616e+01  -6.354536e+01
   4.400036e+01  -2.183317e+00
  -3.638265e+01   3.077175e+01
  -8.865408e+01  -1.543683e+01
  -4.259987e+01  -1.124585e+02
   7.354062e+01  -1.543154e+02
   1.430126e+02  -6.836809e+01
   1.216046e+02   8.747599e+01
   2.088035e+01   1.811267e+02
  -7.143823e+01   1.334889e+02
  -9.576160e+01  -1.060361e+01
  -4.842331e+01  -1.149092e+02
   3.962928e+00  -9.674600e+01
   4.520933e+01  -1.542035e+01
   4.268230e+01   2.776243e+01
   1.992846e+01   5.345622e+00
   5.104949e+00  -1.908840e+01
   2.609777e+01   1.539192e+01
   5.527304e+01   8.560669e+01
   4.228028e+01   9.760614e+01
  -5.112523e+01   4.556187e+01
  -1.450778e+02  -3.381498e+01
  -1.175680e+02  -5.986805e+01
  -1.912397e+01  -4.846450e+01
   7.795853e+01  -2.716558e+01
   8.197230e+01  -1.007838e+01
   1.122491e+01   1.158715e+01
  -3.548315e+01   2.183947e+01
  -1.617507e+01   1.476189e+01
   1.791755e+01  -2.165283e+00
  -5.147366e+00  -6.046496e+00
  -6.664819e+01   1.539845e+00
  -8.836376e+01  -1.516209e+01
  -1.902562e+01  -7.595228e+01
   1.062295e+02  -1.195823e+02
   1.755845e+02  -7.175685e+01
   1.465986e+02   5.069648e+01
   3.008580e+01   1.536072e+02
  -7.001645e+01   1.503006e+02
  -1.114018e+02   6.194228e+01
  -7.867509e+01  -1.630803e+01
  -2.488591e+01  -3.453355e+01
   1.266008e+00  -1.147551e+01
  -1.125633e+01  -7.707875e+00
  -2.982809e+01  -4.392972e+01
  -2.203703e+01  -8.538471e+01
   2.622004e+01  -6.994339e+01
   7.764891e+01   1.384607e+01
   8.239685e+01   9.594416e+01
   1.293857e+01   1.035134e+02
  -7.662899e+01   3.560359e+01
  -9.853463e+01  -5.890911e+01
  -3.772784e+01  -1.037722e+02
   5.747117e+01  -6.190634e+01
   9.887392e+01   4.342309e+00
   3.969668e+01   5.231039e+01
  -3.243921e+01   5.745694e+01
  -3.530449e+01   2.828787e+01
   2.924604e+01  -2.961846e+00
   6.685061e+01  -7.771960e+00
   1.592253e+01   2.486280e+01
  -7.252055e+01   6.180702e+01
  -1.128161e+02   5.851524e+01
  -6.578638e+01  -1.367023e+01
   8.940578e+00  -8.131313e+01
   4.950591e+01  -7.870793e+01
   3.884922e+01  -1.132753e+01
   5.117592e+00   5.093326e+01
  -2.289646e+01   4.491178e+01
  -4.039648e+01  -1.134793e+01
  -2.804409e+01  -5.223117e+01
   1.286457e+00  -3.653792e+01
   3.258499e+01   4.562669e+00
   3.858110e+01   2.079749e+01
   2.139057e+01   2.371786e+00
  -2.165967e+00  -1.653229e+01
  -4.686347e+00  -5.108848e+00
   1.568637e+00   3.136899e+01
  -8.274514e+00   5.428134e+01
  -2.409720e+01   1.690727e+01
  -3.570813e+01  -3.241046e+01
  -7.476016e+00  -5.640566e+01
   4.348183e+01  -2.262047e+01
   5.750704e+01   3.515118e+01
   1.692246e+01   5.913070e+01
  -5.460527e+01   3.452678e+01
  -8.704081e+01  -9.585355e+00
  -5.113851e+01  -4.085396e+01
   2.833078e+01  -4.480155e+01
   6.490340e+01  -2.458721e+01
   2.547476e+01  -6.596988e+00
  -3.156992e+01   4.769632e+00
  -3.106875e+01  -8.183429e+00
   2.001408e+01  -2.827556e+01
   7.318134e+01  -2.695222e+01
