
 $NMID
 id='ANONYMOUS ', fmtdat='(2E16.6)'
 volume=1.0
 tramp=1.0
 $END
   3.724469e+03   1.848441e+02
   2.179669e+03   1.982585e+03
  -5.679137e+02   2.425254e+03
  -1.643728e+03   1.012690e+03
  -9.131555e+02  -1.634237e+02
   4.737336e+02  -4.256755e+02
   7.155399e+02   3.139272e+02
   5.629978e+00   8.736128e+02
  -5.904178e+02   6.069106e+02
  -8.643118e+02  -4.962175e+01
  -4.319892e+02  -7.102678e+02
   1.496951e+02  -7.308218e+02
   5.102353e+02  -1.355134e+02
   2.282909e+02   5.619162e+02
  -2.128525e+02   5.743688e+02
  -5.172710e+02   2.640916e+01
  -2.668646e+02  -5.428264e+02
   1.926625e+02  -5.232106e+02
   4.759665e+02  -1.470411e+02
   3.315483e+02   2.813231e+02
   1.109000e+02   4.119101e+02
  -1.973719e+02   2.620753e+02
  -1.283267e+02   1.584939e+01
   1.153967e+02  -2.381137e+01
   3.589829e+02   1.184797e+02
   1.497294e+02   3.771096e+02
  -3.797846e+02   3.617191e+02
  -6.597147e+02  -1.047678e+02
  -4.009009e+02  -4.063062e+02
   2.929261e+02  -5.033986e+02
   5.214785e+02  -9.483645e+00
   2.446397e+02   3.559403e+02
  -2.138918e+02   4.652310e+02
  -4.589720e+02   1.138430e+02
  -3.590317e+02  -1.780844e+02
  -9.455136e+01  -3.743874e+02
   6.486873e+01  -2.545876e+02
   7.500178e+01   1.288501e+02
  -1.489100e+02   3.619135e+02
  -2.839549e+02  -1.364188e+02
  -1.673738e+02  -5.156158e+02
   2.907733e+02  -6.342091e+02
   4.152709e+02  -9.991009e+01
   2.225022e+02   4.066332e+02
  -2.245911e+02   2.462514e+02
  -2.606147e+02  -2.267643e+02
   6.376938e+01  -4.230990e+02
   4.766363e+02  -1.145321e+02
   5.377400e+02   3.786262e+02
   1.769858e+02   5.317438e+02
  -2.973362e+02   2.693209e+02
  -5.424455e+02  -8.303056e+01
  -2.865611e+02  -3.067763e+02
   1.521375e+02  -2.866213e+02
   3.374477e+02  -6.367492e+01
   2.080914e+02   1.061090e+02
  -6.837351e+01   7.230679e+01
  -8.549911e+01  -1.110309e+02
   9.484324e+01  -1.386723e+02
   2.758096e+02   7.083472e+01
   1.188194e+02   2.120018e+02
  -1.750587e+02   2.245191e+02
  -3.042160e+02   7.336410e+01
  -1.877611e+02  -7.781051e+01
  -1.410393e+00  -2.167853e+02
   2.063290e+02  -2.696370e+02
   2.815588e+02  -1.861520e+02
   2.571318e+02   1.170542e+02
   5.347624e+01   3.661099e+02
  -9.947126e+01   3.299321e+02
  -9.443783e+01   1.146221e+02
  -3.414093e+01   2.479819e+01
  -6.283621e+01   7.709140e+01
  -2.113154e+02   8.505584e+01
  -2.449487e+02  -4.341808e+01
  -1.098499e+02  -2.343068e+02
   6.911163e+01  -2.202519e+02
   2.006020e+02   1.326252e+01
   1.732333e+02   2.056146e+02
  -1.098169e+01   2.667452e+02
  -2.312731e+02   7.498006e+01
  -3.180276e+02  -1.422490e+02
  -1.910590e+02  -3.013503e+02
   7.339032e+01  -2.654874e+02
   1.970847e+02  -1.308868e+02
   1.298951e+02  -1.793190e+01
   9.261348e+01  -5.161551e+01
   2.240793e+02  -5.359759e+01
   3.517984e+02   2.801418e+01
   3.143338e+02   2.567668e+02
   1.086731e+01   4.020177e+02
  -3.140517e+02   3.541205e+02
  -4.290992e+02   1.885975e+02
  -2.791434e+02  -8.396640e+01
  -3.951349e+01  -2.454413e+02
   9.359404e+01  -1.983902e+02
   5.014951e+01  -3.211870e+01
  -9.592627e+01   6.927073e+01
  -1.684352e+02  -1.581725e+01
  -1.569660e+01  -1.370023e+02
   1.269578e+02  -1.261094e+02
   1.655075e+02   4.094843e+01
  -2.563011e+00   1.402998e+02
  -1.695558e+02   1.905259e+01
  -1.445475e+02  -2.195712e+02
   2.601686e+01  -2.913509e+02
   2.131010e+02  -1.758804e+02
   3.072769e+02   7.022687e+01
   2.496678e+02   2.235018e+02
   7.429967e+01   2.425227e+02
  -9.445536e+01   1.474640e+02
  -1.457182e+02   1.005740e+01
  -4.387349e+01  -2.893785e+01
   6.077354e+01   2.964538e+01
   2.172219e+01   1.009684e+02
  -1.009253e+02   8.022849e+01
  -1.526922e+02  -1.289555e+01
  -3.852201e+01  -6.169706e+01
   6.826353e+01  -4.450606e-01
   4.429555e+01   7.594933e+01
  -1.156723e+02   7.680507e+01
  -2.518838e+02  -6.813341e-01
  -2.258792e+02  -1.314191e+02
  -4.973157e+01  -2.378390e+02
   1.822691e+02  -2.389096e+02
   2.437627e+02  -9.828105e+01
   1.468830e+02   3.860986e+01
  -2.114756e+01   9.259453e+01
  -6.911867e+01  -2.083676e+00
   3.066811e+01  -7.890876e+01
   1.684909e+02  -4.443378e+01
   1.868800e+02   7.979008e+01
   6.643774e+01   1.852936e+02
  -8.005188e+01   1.312603e+02
  -1.284939e+02   1.139027e+01
  -5.387432e+01  -4.126943e+01
   3.051882e+01   4.664570e+00
   3.106663e+01   8.288826e+01
  -6.350379e+01   9.814239e+01
  -1.691400e+02   2.324439e+01
  -1.755529e+02  -1.069359e+02
  -1.642568e+01  -1.996965e+02
   1.391554e+02  -1.421358e+02
   1.679633e+02  -1.626163e+00
   5.240155e+01   1.046803e+02
  -5.402549e+01   9.435730e+01
  -7.139861e+01   3.083163e+01
  -1.267714e+01  -2.285653e+01
   1.995106e+01  -1.315719e+01
  -2.798769e+00   7.227887e+00
  -6.335136e+01  -6.196109e+00
  -8.091697e+01  -7.399297e+01
  -1.090581e+01  -1.414990e+02
   1.132413e+02  -1.393695e+02
   2.084870e+02  -2.551450e+01
   1.849249e+02   1.336375e+02
   3.226315e+01   2.143788e+02
  -8.292611e+01   1.462781e+02
  -1.161369e+02   2.639682e+01
  -6.136419e+01  -4.624240e+01
  -2.754642e+01  -2.935138e+01
  -4.891803e+01   1.317164e+01
  -7.148387e+01   5.316096e+00
  -4.010581e+01  -4.577809e+01
   3.308499e+01  -8.088493e+01
   9.370276e+01  -5.805810e+01
   8.020382e+01   3.111032e+01
  -1.724375e+01   9.894110e+01
  -1.319642e+02   8.399580e+01
  -1.839343e+02  -4.639979e+01
  -1.000723e+02  -1.839631e+02
   1.007143e+02  -2.235565e+02
   2.473580e+02  -8.316994e+01
   2.053340e+02   6.715344e+01
   9.744801e+01   1.593341e+02
  -3.194811e+01   1.304478e+02
  -7.934101e+01   7.244848e+01
  -6.505996e+01   6.257482e+01
  -5.463036e+01   8.192154e+01
  -7.853254e+01   6.703845e+01
  -1.205297e+02  -1.638418e+01
  -1.144690e+02  -1.352070e+02
  -2.850546e+01  -2.022708e+02
   9.059263e+01  -1.483150e+02
   1.433768e+02  -1.514029e+01
   1.201160e+02   1.035749e+02
   1.756196e+01   1.320650e+02
  -6.894724e+01   7.484983e+01
  -5.236362e+01  -4.651160e+00
  -3.314460e+00  -3.514164e+01
   1.778801e+01  -3.054780e+01
  -2.874832e+01  -1.388881e+01
  -7.208247e+01  -1.440575e+01
  -4.043304e+01  -3.391067e+01
   5.604183e+01  -3.294383e+01
   1.360231e+02   4.467541e+00
   1.210970e+02   4.812256e+01
   1.307865e+01   8.220759e+01
  -1.122477e+02   6.477706e+01
  -1.290550e+02   6.718387e+00
  -3.829061e+01  -3.738887e+01
   5.028540e+01  -3.354090e+01
   6.550548e+01   1.780464e+01
   1.215356e+01   6.176801e+01
  -4.545381e+01   5.633162e+01
  -5.607092e+01   1.956175e-01
  -4.321599e+01  -4.430368e+01
  -4.299397e+01  -3.827807e+01
  -4.823025e+01   8.281425e-01
  -5.677945e+01  -1.302094e+00
  -3.303162e+01  -5.816164e+01
   2.461220e+01  -1.298538e+02
   9.680066e+01  -1.323610e+02
   1.498443e+02  -2.755170e+01
   1.092339e+02   7.581108e+01
   7.661902e+00   1.187714e+02
  -7.784405e+01   5.783708e+01
  -5.403666e+01  -1.447318e+01
   4.906583e+01  -1.730135e+01
   1.194080e+02   3.602779e+01
   6.168027e+01   8.950145e+01
  -7.109028e+01   1.031109e+02
  -1.593625e+02   4.692782e+01
  -1.422960e+02  -2.757647e+01
  -3.355649e+01  -7.024705e+01
   5.007919e+01  -5.912223e+01
   4.216838e+01  -5.369148e+00
  -3.476207e+01   2.545483e+01
  -8.117274e+01  -1.582560e+01
  -3.669795e+01  -9.964381e+01
   7.685192e+01  -1.316068e+02
   1.534003e+02  -6.067240e+01
   1.102745e+02   8.871977e+01
   1.709394e+01   1.756804e+02
  -7.767477e+01   1.206367e+02
  -9.188965e+01  -8.272612e+00
  -5.527911e+01  -1.056527e+02
   5.591050e+00  -9.061083e+01
   4.304299e+01  -1.735046e+01
   4.040504e+01   3.241336e+01
   1.998243e+01   8.939902e+00
   2.426616e+00  -1.783434e+01
   2.133026e+01   1.753418e+01
   4.722838e+01   7.703194e+01
   3.342041e+01   8.959414e+01
  -4.554378e+01   3.888560e+01
  -1.134098e+02  -2.815736e+01
  -1.129563e+02  -5.672798e+01
  -1.684754e+01  -4.377266e+01
   7.518141e+01  -1.997279e+01
   7.911289e+01  -7.298176e+00
   9.576726e+00   8.187984e+00
  -3.280919e+01   1.936707e+01
  -1.399549e+01   1.428872e+01
   1.573786e+01  -1.360792e+00
  -3.873003e+00  -6.425960e+00
  -6.266143e+01  -3.259419e-01
  -7.873115e+01  -1.908137e+01
  -1.156814e+01  -7.385774e+01
   9.288703e+01  -1.018430e+02
   1.639799e+02  -5.903591e+01
   1.275948e+02   5.685787e+01
   2.341005e+01   1.502452e+02
  -7.179063e+01   1.437918e+02
  -1.039145e+02   5.332444e+01
  -6.398506e+01  -1.594985e+01
  -2.265495e+01  -3.196170e+01
   1.696241e+00  -8.728475e+00
  -1.024714e+01  -4.499753e+00
  -3.006453e+01  -4.355596e+01
  -1.963548e+01  -7.894292e+01
   2.683595e+01  -6.126728e+01
   6.706963e+01   1.286752e+01
   6.931295e+01   9.254347e+01
   8.953691e+00   9.439153e+01
  -7.121262e+01   2.121027e+01
  -9.163692e+01  -6.208639e+01
  -3.008597e+01  -8.938310e+01
   6.099351e+01  -5.341097e+01
   8.332745e+01   7.096212e+00
   3.463060e+01   4.782646e+01
  -2.961435e+01   4.817319e+01
  -2.824751e+01   2.439648e+01
   2.736537e+01  -2.255541e+00
   6.011494e+01  -6.527228e+00
   1.271494e+01   2.235638e+01
  -6.783219e+01   5.284592e+01
  -1.015633e+02   5.652548e+01
  -5.644550e+01  -1.343455e+01
   1.508563e+01  -7.491082e+01
   4.899057e+01  -6.937082e+01
   3.197514e+01  -7.557172e+00
   6.547853e+00   5.138482e+01
  -2.197534e+01   4.167276e+01
  -3.129443e+01  -1.443945e+01
  -2.351701e+01  -4.351917e+01
   1.244498e+00  -2.918720e+01
   2.722740e+01   7.279263e+00
   3.484763e+01   2.077020e+01
   1.774573e+01   2.583501e+00
  -2.945372e+00  -1.468666e+01
  -9.651512e+00   7.390133e-01
  -2.839986e+00   3.227897e+01
  -1.486175e+01   4.342058e+01
  -3.001477e+01   1.000169e+01
  -3.081971e+01  -3.349354e+01
  -3.451356e+00  -5.081616e+01
   3.820194e+01  -1.789323e+01
   4.992149e+01   2.817389e+01
   1.557001e+01   5.540515e+01
  -4.897897e+01   3.147284e+01
  -7.717247e+01  -1.527890e+01
  -3.987348e+01  -3.985352e+01
   2.693389e+01  -3.569732e+01
   5.690361e+01  -2.313223e+01
   2.223185e+01  -5.413947e+00
  -2.923783e+01  -2.192528e+00
  -3.206864e+01  -9.587002e+00
   3.189204e+01  -2.507434e+01
   7.650800e+01  -1.387874e+01
