
 $NMID
 id='ANONYMOUS ', fmtdat='(2E16.6)'
 volume=1.0
 tramp=1.0
 $END
   3.788720e+03  -3.039244e+02
   2.354263e+03   2.287325e+03
  -2.938191e+02   2.410946e+03
  -1.885136e+03   1.248250e+03
  -9.836850e+02  -1.037932e+02
   3.551017e+02  -5.237847e+02
   5.188436e+02   2.065753e+02
  -4.993168e+01   7.628660e+02
  -6.574883e+02   7.270469e+02
  -8.828590e+02  -3.122331e+01
  -4.474680e+02  -8.154587e+02
   2.075494e+02  -7.881680e+02
   5.615872e+02  -1.776582e+02
   3.398686e+02   6.436075e+02
  -1.643653e+02   6.904888e+02
  -5.635227e+02   1.814702e+01
  -2.165409e+02  -6.044223e+02
   3.103961e+02  -6.645145e+02
   5.301323e+02  -1.897978e+02
   4.314090e+02   3.337359e+02
   8.097948e+01   4.130438e+02
  -1.762565e+02   2.671904e+02
  -1.478307e+02   4.611265e+01
   9.818753e+01  -3.774451e+00
   3.722924e+02   2.403748e+02
   1.544768e+02   4.482525e+02
  -4.622051e+02   3.618267e+02
  -8.174805e+02  -9.979479e+01
  -3.109725e+02  -5.008028e+02
   3.779527e+02  -3.909459e+02
   7.043611e+02   9.781926e+01
   3.262299e+02   4.559140e+02
  -2.866369e+02   4.738611e+02
  -5.214983e+02   1.086007e+02
  -3.860173e+02  -2.198522e+02
  -6.768072e+01  -4.160029e+02
   1.744167e+02  -2.695032e+02
   7.178472e+01   1.276106e+02
  -1.982844e+02   3.256081e+02
  -3.266034e+02  -7.520110e+01
  -1.420416e+02  -6.944557e+02
   3.477896e+02  -6.513384e+02
   5.498447e+02   6.892526e+01
   2.400784e+02   4.104806e+02
  -2.821549e+02   2.425775e+02
  -2.532094e+02  -2.827735e+02
   1.051234e+02  -4.620710e+02
   5.318389e+02  -9.159018e+01
   5.744660e+02   4.140934e+02
   1.564593e+02   6.084376e+02
  -3.294441e+02   2.878793e+02
  -6.046458e+02  -1.062796e+02
  -3.456247e+02  -3.602471e+02
   9.446067e+01  -2.883630e+02
   4.016927e+02  -5.333514e+01
   2.300499e+02   1.426936e+02
  -7.842682e+01   6.767971e+01
  -9.026035e+01  -1.128207e+02
   1.262337e+02  -1.235560e+02
   3.217338e+02   7.497145e+01
   1.411617e+02   3.072247e+02
  -1.800366e+02   2.617035e+02
  -3.634039e+02   1.000411e+02
  -2.406034e+02  -1.050068e+02
   4.103460e+01  -2.606609e+02
   2.620370e+02  -3.618018e+02
   3.464925e+02  -1.992690e+02
   2.745398e+02   1.707778e+02
   6.973165e+01   4.164536e+02
  -6.629858e+01   3.742002e+02
  -6.846776e+01   1.661103e+02
  -6.479790e+01   7.934628e+00
  -8.536761e+01   9.156401e+01
  -2.435702e+02   9.611083e+01
  -2.726928e+02  -9.938368e+01
  -1.467240e+02  -2.678095e+02
   9.286239e+01  -2.592318e+02
   2.134462e+02   1.348824e+00
   1.685783e+02   2.701725e+02
  -2.989762e+01   2.770265e+02
  -2.808981e+02   9.424194e+01
  -3.396129e+02  -1.731489e+02
  -1.857860e+02  -3.370861e+02
   8.031747e+01  -3.245650e+02
   1.978948e+02  -1.361217e+02
   1.519267e+02  -3.076000e+01
   1.274628e+02  -4.935116e+01
   2.594138e+02  -4.335957e+01
   4.209825e+02   1.021257e+02
   3.245645e+02   3.086881e+02
  -3.009979e+01   4.563339e+02
  -3.955257e+02   4.025057e+02
  -5.023104e+02   1.853460e+02
  -3.252605e+02  -1.000632e+02
  -5.743650e+01  -2.994110e+02
   1.315639e+02  -2.525122e+02
   5.985305e+01  -1.749818e+01
  -1.125987e+02   9.238248e+01
  -1.718596e+02  -4.660936e+01
  -3.228862e+01  -1.833046e+02
   1.329929e+02  -1.607159e+02
   1.595177e+02   5.994344e+01
  -7.512963e+00   1.693651e+02
  -2.021159e+02   1.800766e+01
  -1.598605e+02  -2.440298e+02
   3.718876e+01  -3.554575e+02
   2.373985e+02  -1.975866e+02
   3.515184e+02   7.039215e+01
   2.947565e+02   2.684041e+02
   7.700170e+01   2.701428e+02
  -1.220460e+02   1.545862e+02
  -1.658629e+02   9.830617e+00
  -4.905505e+01  -2.714528e+01
   6.107849e+01   4.831768e+01
   7.791508e+00   1.284833e+02
  -1.331469e+02   8.683543e+01
  -1.694882e+02  -1.062034e+01
  -4.202643e+01  -6.803041e+01
   8.551114e+01   3.163937e+00
   4.995406e+01   8.722968e+01
  -1.419607e+02   8.932648e+01
  -3.015514e+02  -3.121720e+01
  -2.576960e+02  -1.551848e+02
  -4.724139e+01  -2.711869e+02
   2.156094e+02  -2.553816e+02
   2.846021e+02  -1.053061e+02
   1.530690e+02   6.041301e+01
  -3.263292e+01   1.034721e+02
  -7.581596e+01  -9.521563e+00
   4.636070e+01  -1.054791e+02
   1.838789e+02  -5.725042e+01
   2.136126e+02   1.095877e+02
   6.048217e+01   2.150218e+02
  -1.008501e+02   1.535645e+02
  -1.359235e+02   2.218138e+01
  -6.065617e+01  -4.752174e+01
   3.237249e+01   1.316705e+01
   2.906227e+01   1.093925e+02
  -8.254145e+01   1.165580e+02
  -1.969746e+02   2.190421e+01
  -1.869621e+02  -1.417289e+02
  -2.040272e+01  -2.203696e+02
   1.588634e+02  -1.463738e+02
   1.950218e+02  -3.397554e+00
   6.041819e+01   1.086351e+02
  -6.308079e+01   1.022529e+02
  -7.890229e+01   2.913657e+01
  -7.627881e+00  -2.529872e+01
   2.516411e+01  -1.409987e+01
  -1.208769e+01   1.392315e+01
  -8.303046e+01  -8.450870e+00
  -9.684653e+01  -9.577403e+01
  -1.336061e+01  -1.643875e+02
   1.456915e+02  -1.531224e+02
   2.368133e+02  -8.847991e+00
   1.955961e+02   1.571257e+02
   4.609561e+01   2.388528e+02
  -1.109236e+02   1.630279e+02
  -1.402879e+02   2.586312e+01
  -7.222679e+01  -5.357930e+01
  -3.100278e+01  -3.488135e+01
  -5.789712e+01   9.686101e+00
  -8.561430e+01   7.417674e+00
  -4.822455e+01  -5.588247e+01
   4.717386e+01  -9.502672e+01
   1.179748e+02  -5.484822e+01
   9.632990e+01   4.056099e+01
  -2.448587e+01   1.151304e+02
  -1.586036e+02   8.204318e+01
  -2.018468e+02  -5.975844e+01
  -9.127101e+01  -2.088887e+02
   1.369806e+02  -2.246489e+02
   2.755017e+02  -9.081653e+01
   2.582254e+02   8.893657e+01
   1.142580e+02   1.844875e+02
  -4.034377e+01   1.437184e+02
  -1.040015e+02   8.804925e+01
  -8.283924e+01   6.706348e+01
  -6.685286e+01   9.736821e+01
  -9.876291e+01   7.860878e+01
  -1.341799e+02  -2.288002e+01
  -1.242342e+02  -1.577906e+02
  -2.508379e+01  -2.231412e+02
   1.069963e+02  -1.729958e+02
   1.708777e+02  -1.135713e+01
   1.261877e+02   1.360062e+02
   1.135445e+01   1.661180e+02
  -7.109046e+01   9.025138e+01
  -6.011788e+01  -9.646375e+00
   1.077914e+00  -4.668625e+01
   1.630484e+01  -3.769022e+01
  -3.234376e+01  -1.505109e+01
  -8.374235e+01  -2.346959e+01
  -4.531009e+01  -4.130568e+01
   6.781991e+01  -3.660189e+01
   1.741280e+02  -5.003451e-01
   1.463286e+02   5.831325e+01
   7.076574e+00   9.951428e+01
  -1.348037e+02   6.945364e+01
  -1.453923e+02   8.940781e+00
  -4.527631e+01  -4.375510e+01
   6.172619e+01  -4.056236e+01
   7.861598e+01   1.861923e+01
   1.145974e+01   7.428450e+01
  -5.650475e+01   6.284907e+01
  -6.720592e+01  -8.516841e-01
  -5.454206e+01  -5.038863e+01
  -4.819399e+01  -4.431763e+01
  -5.775447e+01  -3.551848e+00
  -6.480493e+01  -3.831570e+00
  -4.032638e+01  -7.171026e+01
   3.360107e+01  -1.560486e+02
   1.291701e+02  -1.384466e+02
   1.800297e+02  -3.194419e+01
   1.249745e+02   9.615083e+01
  -3.365257e-01   1.359353e+02
  -9.351054e+01   6.371672e+01
  -6.165157e+01  -1.413440e+01
   6.111823e+01  -1.759939e+01
   1.416126e+02   4.663614e+01
   7.065752e+01   1.132926e+02
  -9.078570e+01   1.099741e+02
  -1.975766e+02   4.498790e+01
  -1.566644e+02  -3.625685e+01
  -3.247830e+01  -8.771729e+01
   6.537079e+01  -6.387655e+01
   4.775840e+01  -3.622273e+00
  -4.142520e+01   2.795057e+01
  -9.367207e+01  -2.728383e+01
  -3.008292e+01  -1.220049e+02
   9.344928e+01  -1.522251e+02
   1.767108e+02  -7.118732e+01
   1.247642e+02   9.382862e+01
   3.280343e+00   1.996455e+02
  -8.509885e+01   1.459067e+02
  -1.076215e+02  -1.087151e+01
  -5.710199e+01  -1.238444e+02
   8.362062e+00  -1.120414e+02
   5.108564e+01  -1.515036e+01
   5.120020e+01   3.411203e+01
   2.179553e+01   1.090564e+01
   6.657337e+00  -1.917277e+01
   2.461529e+01   2.014061e+01
   5.412372e+01   9.126213e+01
   3.457535e+01   1.098144e+02
  -5.513494e+01   4.348024e+01
  -1.334189e+02  -4.203933e+01
  -1.323420e+02  -6.899110e+01
  -1.622961e+01  -5.322000e+01
   8.586632e+01  -2.541259e+01
   8.808106e+01  -7.323423e+00
   1.304941e+01   1.003525e+01
  -3.874573e+01   2.217000e+01
  -1.733613e+01   1.639194e+01
   1.937040e+01  -3.122992e+00
  -5.868568e+00  -7.412778e+00
  -7.517283e+01  -4.041001e+00
  -9.192151e+01  -2.648720e+01
  -1.230320e+01  -8.583830e+01
   1.208296e+02  -1.140595e+02
   1.899756e+02  -5.853541e+01
   1.479319e+02   7.226516e+01
   3.037680e+01   1.636408e+02
  -8.368280e+01   1.577200e+02
  -1.208722e+02   6.267773e+01
  -7.872576e+01  -2.842494e+01
  -2.541864e+01  -3.826903e+01
   1.028394e+00  -1.161591e+01
  -1.206705e+01  -6.843566e+00
  -3.201130e+01  -4.914562e+01
  -1.588715e+01  -8.975350e+01
   3.115718e+01  -7.608901e+01
   7.973121e+01   2.021076e+01
   7.565218e+01   1.092928e+02
   3.403335e+00   1.159465e+02
  -8.096102e+01   3.055600e+01
  -1.059226e+02  -7.265817e+01
  -3.818241e+01  -1.095932e+02
   6.987406e+01  -5.849538e+01
   9.936113e+01   1.056513e+01
   4.168349e+01   5.625038e+01
  -3.579917e+01   5.575936e+01
  -3.662628e+01   2.878273e+01
   3.180711e+01  -2.789303e+00
   6.922970e+01  -7.051695e+00
   1.658351e+01   2.690297e+01
  -8.106685e+01   6.709067e+01
  -1.175476e+02   5.194716e+01
  -6.821377e+01  -1.690165e+01
   1.978080e+01  -8.808307e+01
   5.783287e+01  -8.463163e+01
   4.604272e+01  -8.048779e+00
   5.324351e+00   5.775660e+01
  -2.716154e+01   4.984030e+01
  -3.597803e+01  -1.153127e+01
  -2.501841e+01  -5.550899e+01
   5.071034e+00  -3.367967e+01
   3.315758e+01   8.533226e+00
   4.264278e+01   2.467266e+01
   2.127071e+01   3.144467e+00
  -3.239691e+00  -1.616686e+01
  -8.160326e+00  -1.892549e+00
  -3.129658e+00   3.501330e+01
  -1.110822e+01   5.218512e+01
  -3.336511e+01   1.176973e+01
  -2.779306e+01  -4.424497e+01
  -1.070752e+00  -6.134669e+01
   4.419760e+01  -2.187962e+01
   5.750826e+01   3.622259e+01
   1.967128e+01   6.310546e+01
  -5.795049e+01   3.247326e+01
  -8.896435e+01  -1.492013e+01
  -4.920721e+01  -4.361401e+01
   2.818367e+01  -4.406165e+01
   7.014361e+01  -2.512829e+01
   2.823212e+01  -4.681269e+00
  -3.220551e+01  -7.901696e-02
  -3.719867e+01  -1.207015e+01
   2.830133e+01  -3.140121e+01
   8.393355e+01  -2.226664e+01
