
 $NMID
 id='ANONYMOUS ', fmtdat='(2E16.6)'
 volume=1.0
 tramp=1.0
 $END
  -4.231717e+03  -1.947995e+02
  -2.554192e+03  -2.459499e+03
   6.999349e+02  -2.694789e+03
   1.830224e+03  -8.140929e+02
   6.763465e+02   5.535652e+02
  -5.936894e+02   5.842563e+02
  -8.120244e+02  -4.434722e+02
  -1.320191e+02  -9.602619e+02
   8.319527e+02  -6.924748e+02
   9.564207e+02   1.023472e+02
   4.060068e+02   8.242555e+02
  -2.633305e+02   8.415677e+02
  -5.910759e+02   1.154821e+02
  -3.214302e+02  -6.795320e+02
   3.069025e+02  -6.525898e+02
   5.901754e+02  -1.010620e+01
   3.168167e+02   5.599314e+02
  -3.108207e+02   5.660893e+02
  -5.643299e+02   1.240754e+02
  -3.066202e+02  -3.740270e+02
  -4.138045e+01  -4.480736e+02
   2.319339e+02  -2.447303e+02
   1.692075e+02  -6.342670e+00
  -6.246068e+01   1.209742e+02
  -3.248009e+02  -4.006806e+01
  -1.988968e+02  -3.699924e+02
   4.081021e+02  -4.314389e+02
   7.224143e+02   5.043624e+01
   5.580572e+02   4.185546e+02
  -3.214961e+02   5.968972e+02
  -6.668787e+02   3.391723e+01
  -2.906558e+02  -4.014284e+02
   2.455753e+02  -4.884481e+02
   4.815556e+02  -1.813455e+02
   3.913604e+02   1.881017e+02
   1.065410e+02   4.232873e+02
  -1.686541e+02   2.863283e+02
  -1.890484e+02  -2.204076e+02
   1.534069e+02  -4.135737e+02
   3.792218e+02   1.174573e+02
   2.590984e+02   6.274218e+02
  -3.389927e+02   7.178100e+02
  -5.908419e+02   1.003052e+02
  -2.691658e+02  -5.149305e+02
   2.995848e+02  -3.254771e+02
   3.127792e+02   1.976138e+02
  -3.704348e+01   4.467870e+02
  -5.169241e+02   1.808152e+02
  -5.327444e+02  -3.999131e+02
  -1.719701e+02  -5.379831e+02
   3.284457e+02  -3.144543e+02
   5.722309e+02   6.300771e+01
   3.075100e+02   3.514235e+02
  -1.417310e+02   2.959405e+02
  -3.804997e+02   3.275011e+01
  -2.437052e+02  -1.944157e+02
   1.317817e+02  -1.127154e+02
   1.106398e+02   1.109534e+02
  -1.492266e+02   1.887129e+02
  -3.003556e+02  -9.724822e+01
  -1.322473e+02  -2.731205e+02
   1.761175e+02  -2.276346e+02
   2.755546e+02  -3.314375e+01
   1.674157e+02   7.808293e+01
   5.376647e-01   1.834468e+02
  -2.087679e+02   2.800940e+02
  -2.678089e+02   2.051491e+02
  -2.657941e+02  -1.038165e+02
  -9.193091e+01  -3.936844e+02
   1.447599e+02  -3.554456e+02
   9.338556e+01  -1.317671e+02
   2.848365e+01   6.173725e+01
   2.638926e+01  -5.157467e+01
   1.631360e+02  -1.245332e+02
   2.484825e+02   3.227412e+01
   1.628986e+02   2.369004e+02
  -5.261193e+01   2.455316e+02
  -2.226767e+02   2.483093e+01
  -1.827329e+02  -1.654372e+02
  -7.328281e+00  -2.710025e+02
   2.358398e+02  -1.129722e+02
   3.441054e+02   1.471996e+02
   1.985438e+02   3.202071e+02
  -8.713367e+01   3.195958e+02
  -2.104088e+02   1.147230e+02
  -1.332031e+02  -7.912711e+00
  -7.974019e+01   2.055783e+01
  -2.117313e+02   3.986839e+01
  -3.401213e+02  -5.880574e+01
  -2.939069e+02  -2.530819e+02
   1.989753e+00  -3.989327e+02
   3.095492e+02  -3.807243e+02
   4.099471e+02  -1.895981e+02
   2.901784e+02   6.808323e+01
   6.481918e+01   2.619921e+02
  -1.120010e+02   2.575115e+02
  -8.203810e+01   3.547867e+01
   8.840476e+01  -1.078070e+02
   1.636821e+02  -1.914079e+01
   4.773682e+01   1.773597e+02
  -1.510350e+02   1.669942e+02
  -1.701052e+02  -6.081907e+01
  -1.770900e+00  -1.747378e+02
   1.758994e+02  -3.715322e+01
   1.480499e+02   2.168425e+02
  -2.070060e+01   2.890743e+02
  -2.155524e+02   1.604418e+02
  -2.721833e+02  -6.599853e+01
  -2.370904e+02  -2.170629e+02
  -7.884856e+01  -2.236894e+02
   9.027030e+01  -1.577877e+02
   1.475526e+02  -2.281326e+01
   5.735811e+01   2.721900e+01
  -7.066181e+01  -1.858795e+01
  -3.398704e+01  -1.131390e+02
   1.023838e+02  -8.608752e+01
   1.652256e+02   3.438822e+00
   5.135291e+01   6.255362e+01
  -6.872247e+01   2.151133e+01
  -4.860473e+01  -6.530836e+01
   9.967128e+01  -7.448775e+01
   2.527376e+02  -6.645661e+00
   2.186117e+02   1.144005e+02
   5.516053e+01   2.364240e+02
  -1.629693e+02   2.436649e+02
  -2.415053e+02   1.290142e+02
  -1.656595e+02  -3.677461e+01
   2.303027e+01  -9.430043e+01
   7.013521e+01  -6.194651e+00
  -1.507538e+01   9.450590e+01
  -1.726819e+02   5.063418e+01
  -1.962375e+02  -8.486036e+01
  -5.446084e+01  -1.881611e+02
   8.421145e+01  -1.585259e+02
   1.298828e+02  -2.514956e+01
   6.539699e+01   3.652844e+01
  -3.018848e+01   4.096284e+00
  -1.989267e+01  -6.932736e+01
   5.404217e+01  -9.470650e+01
   1.623767e+02  -2.815407e+01
   1.668828e+02   9.792421e+01
   2.191134e+01   1.911596e+02
  -1.230597e+02   1.409968e+02
  -1.724943e+02   1.291739e+01
  -5.546199e+01  -1.059959e+02
   5.486279e+01  -1.036441e+02
   7.679081e+01  -2.346602e+01
   2.306301e+01   2.024114e+01
  -1.268470e+01   2.088209e+01
   9.173506e+00  -1.489979e+00
   5.420440e+01   1.197525e+01
   7.263438e+01   6.830940e+01
   1.623832e+01   1.346519e+02
  -1.047270e+02   1.375859e+02
  -2.064588e+02   2.416351e+01
  -1.651107e+02  -1.384244e+02
  -2.949116e+01  -2.006261e+02
   8.742733e+01  -1.490252e+02
   1.229183e+02  -2.027546e+01
   5.857810e+01   5.009947e+01
   2.363686e+01   3.417376e+01
   4.625063e+01  -1.192506e+01
   6.909804e+01  -2.567491e+00
   3.321549e+01   4.351842e+01
  -3.604468e+01   7.107006e+01
  -8.104952e+01   4.337448e+01
  -6.258882e+01  -2.391961e+01
   1.382113e+01  -8.816035e+01
   1.175309e+02  -7.865571e+01
   1.673573e+02   4.125691e+01
   8.976644e+01   1.807350e+02
  -8.811189e+01   2.039600e+02
  -2.451003e+02   7.650972e+01
  -2.166894e+02  -8.208287e+01
  -9.429102e+01  -1.551257e+02
   2.821860e+01  -1.283161e+02
   8.460700e+01  -8.776849e+01
   6.713205e+01  -6.188260e+01
   5.980789e+01  -7.627426e+01
   8.187075e+01  -6.507649e+01
   1.119588e+02   1.481943e+01
   1.058205e+02   1.337796e+02
   3.055544e+01   2.016629e+02
  -8.055081e+01   1.436615e+02
  -1.448024e+02   7.589258e+00
  -1.207861e+02  -9.680365e+01
  -1.922727e+01  -1.313537e+02
   5.937401e+01  -8.167613e+01
   5.245703e+01  -3.689920e+00
   5.937188e+00   3.209388e+01
  -8.548376e+00   2.775057e+01
   3.599969e+01   1.892106e+01
   6.804410e+01   2.425195e+01
   3.676710e+01   3.403409e+01
  -5.182353e+01   3.072658e+01
  -1.356172e+02   1.196678e-01
  -1.270312e+02  -4.036856e+01
  -2.058533e+01  -7.400752e+01
   1.007923e+02  -6.198385e+01
   1.316923e+02  -1.532528e+01
   4.145304e+01   2.748482e+01
  -5.158275e+01   3.460148e+01
  -6.748108e+01  -1.707763e+01
  -3.714431e+00  -5.874792e+01
   5.213755e+01  -5.120686e+01
   5.392887e+01   3.592204e+00
   3.838897e+01   4.506514e+01
   3.548604e+01   3.811291e+01
   5.473855e+01  -1.369108e-01
   5.511817e+01  -2.758797e+00
   2.790376e+01   6.022393e+01
  -2.360669e+01   1.298417e+02
  -9.511676e+01   1.200843e+02
  -1.454452e+02   2.270697e+01
  -1.023486e+02  -7.889059e+01
  -7.610339e+00  -1.175681e+02
   7.398701e+01  -5.265162e+01
   5.028965e+01   1.566656e+01
  -5.383640e+01   1.745250e+01
  -1.198517e+02  -3.402067e+01
  -6.280155e+01  -9.288867e+01
   7.201126e+01  -1.003845e+02
   1.719440e+02  -4.997924e+01
   1.449208e+02   1.818279e+01
   3.560936e+01   7.304383e+01
  -4.518983e+01   6.705137e+01
  -3.899768e+01   9.632798e+00
   3.208906e+01  -2.030022e+01
   7.868060e+01   1.694717e+01
   2.393619e+01   9.639612e+01
  -7.496133e+01   1.397524e+02
  -1.482207e+02   5.443122e+01
  -1.021296e+02  -9.337998e+01
  -1.026315e+01  -1.706092e+02
   8.227577e+01  -1.193566e+02
   9.138609e+01   3.376836e+00
   5.214761e+01   9.877861e+01
   9.899421e-01   8.780433e+01
  -3.819469e+01   1.974820e+01
  -4.487323e+01  -3.086601e+01
  -2.143995e+01  -9.772628e+00
  -2.126514e+00   1.863443e+01
  -1.431049e+01  -1.266677e+01
  -4.717036e+01  -7.737715e+01
  -3.562155e+01  -9.391181e+01
   3.672763e+01  -3.683605e+01
   1.196121e+02   2.869587e+01
   1.171652e+02   6.617543e+01
   1.524018e+01   4.123520e+01
  -7.902470e+01   1.542211e+01
  -7.665765e+01   2.436257e+00
  -6.769546e+00  -5.852597e+00
   3.377283e+01  -1.979502e+01
   1.030367e+01  -1.750902e+01
  -2.083273e+01   1.892183e+00
   5.311625e+00   7.829032e+00
   6.862208e+01   6.273247e+00
   7.354236e+01   2.597614e+01
   7.456463e+00   7.181467e+01
  -1.030100e+02   9.978793e+01
  -1.666029e+02   4.222358e+01
  -1.196017e+02  -6.224124e+01
  -2.438875e+01  -1.399806e+02
   7.440909e+01  -1.348016e+02
   9.904815e+01  -5.108383e+01
   6.782790e+01   1.786098e+01
   2.082918e+01   3.146642e+01
  -3.771845e+00   7.718666e+00
   5.867124e+00   2.258321e+00
   2.875007e+01   4.019180e+01
   2.250933e+01   7.506912e+01
  -2.659537e+01   6.409874e+01
  -6.988939e+01  -1.554784e+01
  -6.295221e+01  -9.669329e+01
  -4.089671e+00  -9.998950e+01
   7.032586e+01  -1.534120e+01
   8.399619e+01   6.357384e+01
   2.454256e+01   9.611593e+01
  -6.010227e+01   4.347990e+01
  -8.800377e+01  -1.074648e+01
  -3.162349e+01  -4.191978e+01
   2.970778e+01  -4.449245e+01
   2.695981e+01  -2.421634e+01
  -3.240206e+01  -1.364732e+00
  -6.113230e+01   5.710268e+00
  -1.169532e+01  -2.245906e+01
   7.162902e+01  -5.504216e+01
   9.992023e+01  -5.427651e+01
   5.579026e+01   9.574471e+00
  -1.167994e+01   7.517024e+01
  -4.625845e+01   6.659444e+01
  -3.088490e+01   3.344003e+00
  -2.067077e+00  -4.951041e+01
   2.427807e+01  -3.826630e+01
   3.092425e+01   1.601920e+01
   2.225360e+01   4.465357e+01
  -4.606642e+00   2.510044e+01
  -2.810632e+01  -8.115402e+00
  -3.216258e+01  -1.811377e+01
  -1.671501e+01   1.517057e-01
   9.758269e-01   1.180839e+01
   6.687945e+00  -5.331218e+00
   7.233403e+00  -3.226841e+01
   1.376540e+01  -3.731796e+01
   2.915685e+01  -2.744014e+00
   2.711481e+01   4.083881e+01
  -4.718171e+00   5.484646e+01
  -4.081376e+01   1.543366e+01
  -4.597794e+01  -3.763139e+01
  -1.361927e+01  -6.021038e+01
   4.485456e+01  -2.680662e+01
   7.622899e+01   1.154079e+01
   4.190500e+01   4.001594e+01
  -2.589988e+01   3.339548e+01
  -5.681001e+01   1.819750e+01
  -1.978759e+01   3.074502e+00
   3.139992e+01   2.175465e+00
   3.493166e+01   1.438562e+01
  -3.240058e+01   2.689687e+01
  -7.911195e+01   1.468657e+01
