
 $NMID
 id='ANONYMOUS ', fmtdat='(2E16.6)'
 volume=1.0
 tramp=1.0
 $END
  -4.380903e+03   2.221023e+02
  -2.507898e+03  -2.775757e+03
   8.780580e+02  -2.605761e+03
   2.119766e+03  -8.868041e+02
   1.041307e+03   7.406816e+02
  -6.698614e+02   7.377111e+02
  -9.105448e+02  -3.823902e+02
   1.601394e+02  -1.129247e+03
   7.824922e+02  -8.860988e+02
   8.355929e+02   1.121775e+02
   4.517941e+02   1.004783e+03
  -2.225590e+02   8.928633e+02
  -5.829685e+02   9.597243e+01
  -3.801302e+02  -7.293278e+02
   2.614747e+02  -7.643612e+02
   5.849505e+02   3.700345e+01
   2.326758e+02   7.555230e+02
  -3.803198e+02   6.239935e+02
  -5.609686e+02   6.624960e+01
  -4.082248e+02  -3.087205e+02
   4.376753e+01  -4.533090e+02
   2.220211e+02  -2.529591e+02
   2.294889e+02  -5.271951e+01
  -1.275576e+02   1.106147e+02
  -4.463028e+02  -1.055554e+02
  -1.924557e+02  -4.672602e+02
   4.970838e+02  -4.215520e+02
   9.111369e+02   5.590869e+01
   4.409703e+02   6.801019e+02
  -4.264022e+02   4.624230e+02
  -7.931881e+02  -7.184366e+01
  -3.336828e+02  -5.139433e+02
   2.584822e+02  -4.627340e+02
   6.217252e+02  -1.696529e+02
   4.576308e+02   2.581482e+02
   6.132255e+01   4.924679e+02
  -2.786480e+02   2.494628e+02
  -2.270056e+02  -2.672734e+02
   1.942086e+02  -4.215234e+02
   4.714237e+02  -8.009690e+01
   2.805978e+02   7.009445e+02
  -4.380147e+02   6.164556e+02
  -6.101626e+02  -5.814378e+01
  -3.076875e+02  -5.662149e+02
   3.107131e+02  -3.442880e+02
   4.046092e+02   3.544428e+02
  -7.237470e+01   5.740107e+02
  -5.910167e+02   8.847562e+01
  -5.526061e+02  -3.855403e+02
  -1.312758e+02  -5.853005e+02
   4.050908e+02  -3.267346e+02
   6.189480e+02   1.003738e+02
   3.955038e+02   3.564987e+02
  -1.547625e+02   3.416585e+02
  -4.429655e+02   3.657368e+01
  -2.330275e+02  -2.256052e+02
   9.435304e+01  -1.027235e+02
   1.880166e+02   1.704877e+02
  -1.982148e+02   2.354449e+02
  -3.377981e+02  -4.918022e+01
  -1.517750e+02  -2.635076e+02
   2.201615e+02  -2.569090e+02
   3.314441e+02  -6.063380e+01
   1.772113e+02   9.020079e+01
  -3.538550e+01   1.915282e+02
  -2.060031e+02   3.247787e+02
  -3.339441e+02   2.163580e+02
  -2.974200e+02  -1.352695e+02
  -8.323116e+01  -4.431730e+02
   1.106627e+02  -4.061093e+02
   1.255087e+02  -1.017734e+02
   3.925286e+00   2.462027e+01
   4.187031e+01  -7.522244e+01
   1.885507e+02  -1.433913e+02
   2.955369e+02   2.812422e+01
   1.520557e+02   2.860863e+02
  -7.936286e+01   2.663107e+02
  -2.329131e+02   3.010582e+00
  -2.116610e+02  -2.721757e+02
   1.031248e+01  -2.869548e+02
   2.542693e+02  -1.240426e+02
   3.604498e+02   1.605697e+02
   1.679867e+02   3.603288e+02
  -1.334413e+02   2.957852e+02
  -2.211186e+02   1.055887e+02
  -1.280433e+02   6.106776e+00
  -1.118545e+02   3.180424e+01
  -2.114432e+02   7.215648e+01
  -3.891457e+02  -5.916951e+01
  -3.191628e+02  -2.901798e+02
   5.355417e+00  -4.750906e+02
   3.599126e+02  -4.221042e+02
   4.767192e+02  -1.763096e+02
   3.229978e+02   9.387398e+01
   4.662199e+01   2.960053e+02
  -1.374441e+02   2.475987e+02
  -9.081955e+01   3.042404e+01
   1.225771e+02  -1.164795e+02
   2.200839e+02   3.191668e+01
   6.271238e+01   1.882622e+02
  -1.687561e+02   1.633315e+02
  -1.682482e+02  -8.338729e+01
   3.021770e+01  -2.117988e+02
   1.960180e+02  -3.666386e+01
   1.644535e+02   2.536189e+02
  -4.754831e+01   3.586297e+02
  -2.121827e+02   1.803436e+02
  -3.221613e+02  -6.908685e+01
  -2.845835e+02  -2.355109e+02
  -1.103590e+02  -2.450080e+02
   1.193473e+02  -1.557142e+02
   1.949803e+02  -2.127804e+01
   6.407520e+01   3.706724e+01
  -7.638225e+01  -4.110166e+01
  -2.688706e+01  -1.376319e+02
   1.334164e+02  -1.096115e+02
   1.766822e+02   2.100270e+01
   5.822919e+01   7.564959e+01
  -8.066514e+01   2.442196e+01
  -5.682685e+01  -6.797465e+01
   1.219771e+02  -8.771433e+01
   2.738431e+02   5.145740e+00
   2.724902e+02   1.385063e+02
   7.464785e+01   2.460093e+02
  -1.903887e+02   2.496778e+02
  -2.996374e+02   1.308193e+02
  -1.747873e+02  -6.257301e+01
   2.787544e+01  -1.066261e+02
   9.739655e+01  -5.020365e+00
  -2.880606e+01   9.727134e+01
  -1.941160e+02   6.410785e+01
  -2.300495e+02  -1.184226e+02
  -7.610927e+01  -2.114887e+02
   9.581141e+01  -1.639044e+02
   1.467492e+02  -3.029550e+01
   7.199460e+01   3.698694e+01
  -2.651419e+01   5.524791e+00
  -4.277201e+01  -8.056779e+01
   6.605151e+01  -1.077950e+02
   2.099298e+02  -2.669901e+01
   1.865541e+02   1.203851e+02
   2.099059e+01   2.131189e+02
  -1.648915e+02   1.535799e+02
  -1.953184e+02   6.762890e-01
  -6.406261e+01  -1.232242e+02
   6.712641e+01  -1.118337e+02
   8.802564e+01  -3.040170e+01
   1.896041e+01   3.038384e+01
  -2.307588e+01   1.747411e+01
   8.529343e+00  -4.411756e+00
   6.722751e+01   9.474406e+00
   8.456479e+01   7.782218e+01
   2.257915e+01   1.549575e+02
  -1.223979e+02   1.442932e+02
  -2.414647e+02   2.428505e+01
  -2.016417e+02  -1.383386e+02
  -3.583759e+01  -2.361279e+02
   1.116278e+02  -1.642845e+02
   1.340127e+02  -2.850085e+01
   7.003305e+01   5.807278e+01
   2.803750e+01   3.603130e+01
   5.341378e+01  -1.348240e+01
   7.588125e+01  -4.631479e+00
   3.565228e+01   4.811014e+01
  -4.417988e+01   8.309748e+01
  -9.868378e+01   5.017056e+01
  -8.279289e+01  -3.884868e+01
   1.551382e+01  -1.058028e+02
   1.313771e+02  -7.949312e+01
   1.970525e+02   4.270384e+01
   1.024506e+02   1.904919e+02
  -1.089434e+02   2.187512e+02
  -2.475334e+02   9.502751e+01
  -2.625835e+02  -6.124506e+01
  -1.105450e+02  -1.723233e+02
   3.871693e+01  -1.448563e+02
   1.025692e+02  -8.670225e+01
   8.318986e+01  -6.983950e+01
   7.028286e+01  -9.085750e+01
   9.357394e+01  -7.331279e+01
   1.250572e+02   2.259995e+01
   1.159256e+02   1.423856e+02
   3.196352e+01   2.293919e+02
  -8.950408e+01   1.755082e+02
  -1.785840e+02   3.074500e+01
  -1.389417e+02  -1.229348e+02
  -1.905796e+01  -1.557656e+02
   6.909343e+01  -9.170501e+01
   6.442108e+01  -1.532954e+00
   9.165170e+00   4.334735e+01
  -4.660205e+00   3.228740e+01
   3.390644e+01   1.992655e+01
   8.010894e+01   2.468331e+01
   4.289685e+01   3.808565e+01
  -6.186957e+01   3.819988e+01
  -1.455215e+02   5.595094e+00
  -1.507411e+02  -5.163026e+01
  -1.140620e+01  -8.140226e+01
   1.215005e+02  -6.805752e+01
   1.417917e+02  -1.970213e+01
   5.258460e+01   3.866110e+01
  -5.919892e+01   3.387203e+01
  -7.501362e+01  -1.772924e+01
  -5.007104e+00  -6.280137e+01
   5.941706e+01  -5.688511e+01
   6.335059e+01   4.391005e+00
   4.449927e+01   4.807600e+01
   4.260822e+01   4.003470e+01
   5.977607e+01   3.562467e-01
   6.703855e+01   2.086213e+00
   3.193485e+01   6.783422e+01
  -3.414717e+01   1.347781e+02
  -1.208583e+02   1.404337e+02
  -1.592691e+02   3.117858e+01
  -1.179549e+02  -9.147739e+01
  -8.868220e+00  -1.194900e+02
   8.563556e+01  -5.562766e+01
   5.721533e+01   1.698297e+01
  -5.838439e+01   1.844363e+01
  -1.305117e+02  -4.519344e+01
  -7.918990e+01  -1.096812e+02
   7.942632e+01  -1.084951e+02
   1.934839e+02  -5.782117e+01
   1.592994e+02   4.323767e+01
   3.863237e+01   8.756422e+01
  -6.681013e+01   7.460704e+01
  -5.168608e+01   9.992326e+00
   3.811091e+01  -2.697951e+01
   9.058909e+01   2.300798e+01
   3.745998e+01   1.154600e+02
  -9.827399e+01   1.508479e+02
  -1.656893e+02   5.745301e+01
  -1.124267e+02  -9.306908e+01
  -7.686223e+00  -1.967544e+02
   8.592164e+01  -1.479179e+02
   9.768892e+01   8.496644e+00
   5.854140e+01   1.168698e+02
  -2.934931e+00   1.086694e+02
  -4.153499e+01   1.998583e+01
  -4.948103e+01  -3.142702e+01
  -2.734269e+01  -6.696540e+00
  -3.505387e+00   2.272906e+01
  -2.123883e+01  -1.323733e+01
  -5.351461e+01  -8.987933e+01
  -4.481520e+01  -1.067934e+02
   4.497634e+01  -5.023469e+01
   1.393519e+02   4.071633e+01
   1.302036e+02   7.158312e+01
   1.780273e+01   4.906556e+01
  -8.796021e+01   1.983100e+01
  -8.894122e+01   7.074320e+00
  -1.003461e+01  -6.891073e+00
   3.956485e+01  -2.210922e+01
   1.253376e+01  -1.724576e+01
  -2.031603e+01   1.166324e+00
   6.190781e+00   1.123065e+01
   7.465694e+01   3.196299e+00
   9.094190e+01   2.321524e+01
   9.059618e-01   7.713580e+01
  -1.209752e+02   1.067442e+02
  -1.918265e+02   5.601558e+01
  -1.360582e+02  -6.010900e+01
  -2.476231e+01  -1.501508e+02
   8.395681e+01  -1.437924e+02
   1.133540e+02  -5.314359e+01
   8.555500e+01   2.238129e+01
   2.452017e+01   3.692127e+01
  -3.003413e+00   9.379938e+00
   1.203719e+01   3.356278e+00
   3.118301e+01   4.395343e+01
   2.258092e+01   8.882582e+01
  -2.801273e+01   6.960111e+01
  -7.794559e+01  -1.970197e+01
  -7.117781e+01  -1.028383e+02
  -2.960367e+00  -1.126688e+02
   7.582320e+01  -2.560518e+01
   1.019773e+02   7.621773e+01
   3.272644e+01   1.044389e+02
  -6.345830e+01   5.542788e+01
  -9.659023e+01  -1.709989e+01
  -3.732481e+01  -5.017179e+01
   3.365101e+01  -4.674701e+01
   2.844728e+01  -2.769940e+01
  -3.380528e+01  -2.636706e+00
  -6.753379e+01   4.454327e+00
  -1.218079e+01  -2.340106e+01
   7.736004e+01  -6.608017e+01
   1.116727e+02  -5.518110e+01
   6.358734e+01   7.592886e+00
  -1.835808e+01   7.651630e+01
  -5.363527e+01   7.729745e+01
  -3.443627e+01   5.533652e+00
  -6.874712e-01  -5.484686e+01
   2.574623e+01  -3.727374e+01
   3.307008e+01   1.748858e+01
   2.578013e+01   5.241819e+01
   5.382234e-01   3.162752e+01
  -3.233341e+01  -8.252591e+00
  -3.788728e+01  -1.869983e+01
  -2.095100e+01  -1.350267e+00
  -3.247349e-01   1.412689e+01
   3.620438e+00  -5.734564e+00
   6.044608e+00  -3.853609e+01
   2.129995e+01  -4.345210e+01
   2.932211e+01  -6.188274e+00
   2.338485e+01   4.408714e+01
  -6.200706e+00   5.843337e+01
  -4.230030e+01   2.105794e+01
  -5.626355e+01  -3.696128e+01
  -1.256730e+01  -5.929775e+01
   5.466346e+01  -3.197806e+01
   8.731742e+01   1.823110e+01
   4.519976e+01   4.326176e+01
  -2.780907e+01   3.900048e+01
  -6.127780e+01   1.863863e+01
  -2.392528e+01   5.226138e+00
   3.777863e+01   2.198773e+00
   3.943423e+01   1.755012e+01
  -2.982588e+01   3.207412e+01
  -9.283205e+01   1.850465e+01
