
 $NMID
 id='ANONYMOUS ', fmtdat='(2E16.6)'
 volume=1.0
 tramp=1.0
 $END
   2.970749e+03  -2.136839e+02
   2.196010e+03   1.275075e+03
   2.190244e+02   2.339326e+03
  -1.086078e+03   1.089723e+03
  -9.790788e+02   1.922542e+02
  -5.966724e+01  -1.710307e+02
   4.313328e+02  -2.497245e+01
   1.961725e+02   5.596932e+02
  -3.942550e+02   5.231989e+02
  -4.581546e+02   9.601973e+01
  -4.012714e+02  -4.307617e+02
   2.252048e+01  -6.349777e+02
   2.847281e+02  -1.777352e+02
   1.954892e+02   2.836987e+02
  -5.333325e+01   5.003510e+02
  -4.227291e+02   1.290749e+02
  -2.582461e+02  -3.863818e+02
   1.031008e+02  -4.957901e+02
   4.906977e+02  -2.504422e+02
   4.140762e+02   1.558071e+02
   8.285165e+01   3.169267e+02
  -7.078154e+01   2.245983e+02
  -6.062386e+01   6.165434e+01
   1.490760e+02   6.080745e+01
   2.073903e+02   2.075907e+02
  -4.006267e+01   3.581365e+02
  -4.043991e+02   1.584496e+02
  -5.246989e+02  -2.256169e+02
  -2.224178e+02  -3.449328e+02
   2.832117e+02  -2.171196e+02
   3.971297e+02   1.618622e+01
   1.757565e+02   2.531124e+02
  -1.982575e+02   2.836222e+02
  -4.069412e+02   1.280859e+02
  -2.864874e+02  -9.779159e+01
  -1.078824e+02  -2.756287e+02
   6.073828e+01  -1.329808e+02
   9.739257e+00   1.619829e+01
  -1.182213e+02   1.304530e+02
  -1.928503e+02  -1.514092e+02
   3.014576e+01  -3.991207e+02
   1.239714e+02  -3.718655e+02
   3.028672e+02   1.380204e+01
   1.355351e+02   2.586532e+02
  -6.467101e+01   1.593966e+02
  -1.684719e+02  -2.384904e+02
   5.216805e+01  -3.450642e+02
   3.899858e+02  -7.570762e+01
   4.351143e+02   3.395796e+02
   1.455767e+02   4.186421e+02
  -2.783252e+02   2.807420e+02
  -4.565901e+02  -4.320474e+01
  -3.397474e+02  -2.058700e+02
   2.514357e+01  -2.322465e+02
   2.577228e+02  -4.384821e+01
   1.618723e+02   2.801572e+01
  -2.441380e+01   1.982670e+01
  -6.493002e+01  -4.613429e+01
   7.000750e+01  -8.658343e+01
   2.147759e+02   4.486556e+01
   1.035625e+02   1.608861e+02
  -1.148411e+02   2.455850e+02
  -2.970698e+02   1.322391e+02
  -2.327554e+02  -8.518439e+01
   3.525305e+01  -3.052545e+02
   2.560335e+02  -3.241195e+02
   3.125660e+02  -1.499270e+02
   1.908223e+02   1.290993e+02
   5.800571e+01   3.007778e+02
  -2.067341e+01   2.973479e+02
  -3.514964e+01   1.686482e+02
  -2.259262e+01   8.258885e+01
  -9.189994e+01   9.922324e+01
  -2.057748e+02   5.166510e+01
  -1.910626e+02  -1.041259e+02
  -8.815037e+01  -2.193248e+02
   7.961631e+01  -1.667244e+02
   1.749759e+02   3.996971e+01
   1.114433e+02   2.147817e+02
  -3.515169e+01   2.026674e+02
  -2.083065e+02   3.402349e+01
  -2.681011e+02  -1.240326e+02
  -1.518277e+02  -2.650187e+02
   2.641346e+01  -2.439727e+02
   1.463463e+02  -1.467588e+02
   1.446501e+02  -6.264739e+01
   1.426798e+02  -5.622669e+01
   2.378085e+02  -3.620126e+01
   3.540787e+02   8.461707e+01
   2.889191e+02   2.432853e+02
  -2.843409e+01   3.903002e+02
  -3.056748e+02   3.452576e+02
  -3.972013e+02   1.630509e+02
  -2.666879e+02  -8.932344e+01
  -2.040742e+01  -1.932830e+02
   9.224212e+01  -1.602370e+02
   7.295452e+00  -3.002661e+01
  -9.910227e+01   2.237404e+01
  -9.645915e+01  -3.406147e+01
  -1.159772e+01  -1.297566e+02
   1.085941e+02  -9.599046e+01
   9.258818e+01   2.019163e+01
  -1.280845e+01   1.246097e+02
  -1.282320e+02   1.894494e+01
  -1.584082e+02  -1.990933e+02
   3.511204e+00  -3.035427e+02
   2.072626e+02  -1.958738e+02
   3.124878e+02   4.839542e+01
   2.415651e+02   2.249481e+02
   6.341753e+01   2.496780e+02
  -1.066262e+02   1.261451e+02
  -1.287352e+02   8.444300e+00
  -3.106542e+01  -9.575295e+00
   4.565056e+01   5.516461e+01
   4.991480e+00   9.630626e+01
  -1.145407e+02   4.932691e+01
  -1.313911e+02  -2.717736e+01
  -2.712731e+01  -4.185061e+01
   7.444300e+01   1.489354e+01
   3.558818e+01   9.189184e+01
  -1.340991e+02   8.461492e+01
  -2.600576e+02  -2.704762e+01
  -2.212468e+02  -1.448673e+02
  -3.327697e+01  -2.318094e+02
   1.682002e+02  -1.995849e+02
   2.291806e+02  -9.069588e+01
   1.315461e+02   2.217827e+01
  -2.467364e+01   5.559309e+01
  -5.975718e+01  -2.067245e-01
   5.166125e+01  -6.407690e+01
   1.658221e+02  -3.350048e+01
   1.543340e+02   1.039150e+02
   4.499216e+01   1.631067e+02
  -7.849671e+01   1.141265e+02
  -1.030953e+02   1.117918e+01
  -3.819380e+01  -2.357361e+01
   3.693329e+01   2.266206e+01
   1.214152e+01   9.840477e+01
  -8.666956e+01   1.064253e+02
  -1.960124e+02   2.705326e+00
  -1.498712e+02  -1.238534e+02
  -1.920874e+01  -1.788280e+02
   1.300982e+02  -1.321844e+02
   1.466555e+02  -6.130307e+00
   5.889180e+01   7.623604e+01
  -5.942472e+01   8.840448e+01
  -5.900535e+01   2.269685e+01
  -3.627299e+00  -1.914142e+01
   3.059828e+01  -8.588020e+00
  -5.352864e+00   2.361522e+01
  -7.741703e+01   3.754713e+00
  -9.553875e+01  -8.201449e+01
  -8.439637e+00  -1.605922e+02
   1.223626e+02  -1.357411e+02
   1.991159e+02  -4.928685e+00
   1.773714e+02   1.383861e+02
   3.439650e+01   2.076127e+02
  -8.047030e+01   1.429739e+02
  -1.104235e+02   2.394881e+01
  -6.511252e+01  -3.542563e+01
  -3.136695e+01  -2.785296e+01
  -4.663564e+01   1.491866e+01
  -7.926668e+01   6.112204e+00
  -5.324102e+01  -5.489565e+01
   3.733413e+01  -9.534411e+01
   1.077094e+02  -5.617118e+01
   9.107116e+01   4.279764e+01
  -1.984157e+01   1.174365e+02
  -1.391064e+02   8.461360e+01
  -1.814732e+02  -5.518634e+01
  -7.413924e+01  -1.903499e+02
   1.054418e+02  -1.954221e+02
   2.387966e+02  -7.147315e+01
   2.116711e+02   7.573343e+01
   7.711497e+01   1.533860e+02
  -3.055630e+01   1.239937e+02
  -7.586760e+01   6.777891e+01
  -5.654329e+01   5.982469e+01
  -4.826399e+01   8.918582e+01
  -7.879793e+01   7.234230e+01
  -1.145613e+02  -1.586773e+01
  -1.054973e+02  -1.348571e+02
  -3.508223e+01  -2.055046e+02
   8.938392e+01  -1.482597e+02
   1.427914e+02  -6.183056e+00
   1.103427e+02   1.079007e+02
   7.042263e+00   1.305304e+02
  -7.149847e+01   6.732464e+01
  -5.352186e+01  -1.643798e+01
   4.936667e+00  -4.943184e+01
   2.366556e+01  -3.034326e+01
  -2.493518e+01  -3.742076e+00
  -7.351001e+01  -1.549997e+01
  -4.521651e+01  -3.507783e+01
   6.573849e+01  -3.685510e+01
   1.537755e+02   4.705738e+00
   1.246434e+02   5.090719e+01
  -1.616713e+00   8.596046e+01
  -1.146375e+02   6.303546e+01
  -1.296135e+02   3.831944e+00
  -3.985362e+01  -4.305093e+01
   5.176504e+01  -4.062025e+01
   6.806368e+01   1.611491e+01
   1.783609e+01   7.049584e+01
  -3.994067e+01   5.974905e+01
  -6.112802e+01   4.228828e-01
  -5.278502e+01  -4.717817e+01
  -4.241702e+01  -3.922408e+01
  -4.662637e+01   1.108903e-01
  -5.768291e+01  -6.764749e-01
  -4.174779e+01  -6.329025e+01
   2.100278e+01  -1.356233e+02
   1.072056e+02  -1.298492e+02
   1.635788e+02  -3.050911e+01
   1.165151e+02   8.037560e+01
   4.383622e+00   1.198328e+02
  -8.162358e+01   5.943913e+01
  -5.622275e+01  -9.834628e+00
   5.280063e+01  -1.907933e+01
   1.151685e+02   3.131393e+01
   6.289937e+01   9.076621e+01
  -7.203277e+01   9.098731e+01
  -1.585823e+02   4.503500e+01
  -1.341222e+02  -3.798408e+01
  -2.700704e+01  -7.235919e+01
   5.303364e+01  -5.172077e+01
   4.014033e+01  -1.154584e+00
  -3.590499e+01   2.732787e+01
  -8.196787e+01  -1.288964e+01
  -4.142035e+01  -9.870572e+01
   6.555322e+01  -1.315966e+02
   1.375442e+02  -6.684529e+01
   1.157311e+02   7.761738e+01
   1.512027e+01   1.694885e+02
  -7.093842e+01   1.213286e+02
  -9.017110e+01  -6.828775e+00
  -4.781212e+01  -1.039305e+02
   9.318360e+00  -8.463552e+01
   4.627150e+01  -1.178553e+01
   3.830010e+01   3.111973e+01
   1.538597e+01   6.077836e+00
   5.142864e+00  -1.528766e+01
   2.680517e+01   1.655681e+01
   5.286059e+01   7.547394e+01
   2.739949e+01   8.869032e+01
  -4.941590e+01   3.490801e+01
  -1.209197e+02  -2.842474e+01
  -1.107848e+02  -5.373748e+01
  -1.672628e+01  -4.688650e+01
   7.153872e+01  -2.752644e+01
   7.703855e+01  -6.221140e+00
   1.463302e+01   1.011056e+01
  -2.845587e+01   2.006619e+01
  -1.786781e+01   1.154951e+01
   1.047898e+01  -6.024541e+00
  -3.296149e+00  -4.031287e+00
  -5.544356e+01   9.526735e-01
  -8.121054e+01  -1.665143e+01
  -2.078632e+01  -6.666879e+01
   8.912269e+01  -9.487317e+01
   1.629491e+02  -5.781703e+01
   1.399048e+02   4.809992e+01
   3.688212e+01   1.370544e+02
  -6.792351e+01   1.388869e+02
  -1.040224e+02   6.192154e+01
  -6.836053e+01  -1.268992e+01
  -2.162130e+01  -3.341498e+01
  -3.156520e+00  -1.362307e+01
  -1.268166e+01  -7.075971e+00
  -2.672698e+01  -4.373181e+01
  -1.795811e+01  -7.781494e+01
   2.235232e+01  -6.432068e+01
   6.810624e+01   8.730598e+00
   6.797304e+01   8.286239e+01
   1.267363e+01   9.859919e+01
  -6.541120e+01   2.805598e+01
  -1.026494e+02  -5.678131e+01
  -3.113764e+01  -8.684227e+01
   5.466931e+01  -6.164723e+01
   9.602426e+01   3.617256e+00
   4.175738e+01   4.855921e+01
  -2.526295e+01   5.756434e+01
  -3.521114e+01   2.615373e+01
   2.362764e+01  -7.944279e+00
   6.047908e+01  -1.023544e+01
   1.654568e+01   2.327113e+01
  -7.483761e+01   5.941322e+01
  -1.043689e+02   5.240307e+01
  -6.259053e+01  -1.398414e+01
   1.163308e+01  -7.498418e+01
   4.927356e+01  -7.685016e+01
   4.036099e+01  -1.244663e+01
   8.388275e+00   4.748495e+01
  -2.018712e+01   4.353141e+01
  -3.400657e+01  -8.420876e+00
  -2.526565e+01  -4.697501e+01
  -2.394066e+00  -3.421033e+01
   2.940367e+01   3.585919e+00
   3.620648e+01   2.434391e+01
   1.730940e+01   4.437469e+00
  -3.142825e+00  -1.770281e+01
  -2.955167e+00  -9.250424e+00
   3.167482e+00   2.846838e+01
  -2.102302e+00   4.438624e+01
  -2.077533e+01   2.180430e+01
  -3.836991e+01  -2.720094e+01
  -1.338111e+01  -5.285072e+01
   3.444239e+01  -2.375834e+01
   5.760248e+01   2.818651e+01
   1.892201e+01   5.260681e+01
  -4.811637e+01   3.017427e+01
  -8.189790e+01  -5.236903e+00
  -4.323759e+01  -3.677181e+01
   2.483493e+01  -4.032147e+01
   5.483798e+01  -2.316161e+01
   2.664667e+01  -6.847951e+00
  -2.463984e+01   6.299682e+00
  -2.865194e+01  -2.416589e+00
   1.925874e+01  -2.192846e+01
   6.613844e+01  -2.668319e+01
