
 $NMID
 id='ANONYMOUS ', fmtdat='(2E16.6)'
 volume=1.0
 tramp=1.0
 $END
   4.798405e+03   3.560355e+01
   2.520958e+03   2.756564e+03
  -8.411055e+02   3.091147e+03
  -2.538309e+03   7.636515e+02
  -9.757717e+02  -9.546615e+02
   8.905698e+02  -5.454968e+02
   1.006294e+03   5.520759e+02
  -5.030933e+01   1.194110e+03
  -1.005705e+03   6.925223e+02
  -1.089558e+03  -1.301787e+02
  -4.498506e+02  -9.222424e+02
   3.322502e+02  -9.354466e+02
   7.331394e+02  -1.543840e+02
   4.973704e+02   8.164072e+02
  -3.495823e+02   8.346906e+02
  -6.548220e+02  -8.033805e+00
  -2.945655e+02  -7.984528e+02
   3.246012e+02  -6.678364e+02
   6.756918e+02  -1.321577e+02
   3.956978e+02   4.136411e+02
  -9.759638e-01   4.541001e+02
  -2.920485e+02   2.956655e+02
  -2.158634e+02   1.014465e+01
   1.475414e+02  -6.138474e+01
   4.341530e+02   1.118599e+02
   1.702190e+02   5.164431e+02
  -5.628780e+02   4.619152e+02
  -9.509144e+02  -1.213108e+02
  -4.285258e+02  -5.288173e+02
   4.825006e+02  -4.832137e+02
   8.660355e+02   2.415146e+01
   4.115970e+02   5.268935e+02
  -3.160101e+02   6.171176e+02
  -5.920299e+02   2.284863e+02
  -4.877228e+02  -2.607006e+02
  -3.765547e+01  -5.172184e+02
   2.180950e+02  -2.950819e+02
   2.072950e+02   1.757198e+02
  -2.157334e+02   5.470486e+02
  -4.974650e+02  -9.936652e+01
  -2.693053e+02  -8.537038e+02
   3.306476e+02  -7.644394e+02
   6.917677e+02  -9.284350e+00
   2.661003e+02   5.887779e+02
  -3.011122e+02   3.507224e+02
  -4.352543e+02  -3.592684e+02
   9.000763e+01  -5.930620e+02
   6.347057e+02  -1.179379e+02
   6.288836e+02   4.041783e+02
   1.704977e+02   6.640776e+02
  -4.187199e+02   3.801905e+02
  -7.145576e+02  -1.278102e+02
  -3.689990e+02  -4.011615e+02
   1.973796e+02  -4.491000e+02
   4.849965e+02  -2.400398e+01
   2.301228e+02   2.036748e+02
  -1.350213e+02   1.247684e+02
  -1.339674e+02  -1.832915e+02
   1.809674e+02  -1.705838e+02
   3.913084e+02   9.125297e+01
   1.491297e+02   3.249101e+02
  -2.346045e+02   2.836661e+02
  -3.392180e+02   6.208088e+01
  -1.680398e+02  -8.995269e+01
   3.783016e+01  -2.108453e+02
   2.229457e+02  -3.390477e+02
   3.457461e+02  -2.485992e+02
   3.164405e+02   1.481785e+02
   8.308558e+01   4.667755e+02
  -1.649700e+02   3.932598e+02
  -1.507402e+02   1.291262e+02
  -4.882403e+01  -2.539704e+01
  -3.214261e+01   1.066097e+02
  -2.050938e+02   1.571156e+02
  -2.921539e+02  -3.693840e+01
  -1.660498e+02  -2.861182e+02
   7.171529e+01  -2.744178e+02
   2.414708e+02  -1.674108e+01
   1.971730e+02   2.508451e+02
  -4.365117e+00   3.204853e+02
  -2.947984e+02   1.263126e+02
  -3.829805e+02  -1.803753e+02
  -2.024261e+02  -3.539732e+02
   8.525874e+01  -3.209678e+02
   2.590909e+02  -1.232483e+02
   1.611279e+02  -3.301299e+00
   1.057519e+02  -3.808369e+01
   2.314603e+02  -6.507368e+01
   4.112156e+02   6.434040e+01
   3.453150e+02   2.980609e+02
  -9.774199e+00   4.598877e+02
  -3.660124e+02   4.228557e+02
  -5.252963e+02   1.913496e+02
  -3.658271e+02  -9.728294e+01
  -7.994276e+01  -3.097941e+02
   1.385212e+02  -2.580075e+02
   9.886328e+01  -3.258072e+01
  -1.145921e+02   1.414265e+02
  -2.253024e+02   1.358825e+01
  -6.640249e+01  -2.357876e+02
   1.701175e+02  -2.032423e+02
   2.070181e+02   5.754731e+01
  -7.413760e+00   2.048235e+02
  -2.174691e+02   3.166738e+01
  -1.874131e+02  -2.609810e+02
   3.258693e+01  -3.741123e+02
   2.521751e+02  -2.045025e+02
   3.443432e+02   6.502450e+01
   2.876060e+02   2.439347e+02
   9.436755e+01   2.896052e+02
  -1.225192e+02   1.754471e+02
  -1.887124e+02   2.933278e+01
  -6.901054e+01  -3.747416e+01
   6.976995e+01   4.084224e+01
   3.100987e+01   1.304419e+02
  -1.332879e+02   1.082234e+02
  -1.985149e+02  -1.454909e+01
  -7.273534e+01  -8.225168e+01
   9.277801e+01  -1.569121e+01
   5.405908e+01   8.085644e+01
  -1.276890e+02   9.558545e+01
  -2.972354e+02   4.898738e+00
  -2.741868e+02  -1.447099e+02
  -6.719629e+01  -2.681184e+02
   1.737267e+02  -2.807981e+02
   2.909914e+02  -1.358340e+02
   1.731032e+02   5.255616e+01
  -2.153526e+01   1.297594e+02
  -1.024875e+02   8.096094e+00
   3.697974e+01  -1.153015e+02
   2.037980e+02  -5.149143e+01
   2.282874e+02   1.099551e+02
   6.351295e+01   2.177071e+02
  -1.092339e+02   1.573822e+02
  -1.502670e+02   3.986900e+01
  -8.342911e+01  -3.792046e+01
   2.388295e+01  -1.226675e+01
   3.354459e+01   8.635558e+01
  -6.986815e+01   1.224024e+02
  -1.935259e+02   3.346090e+01
  -2.008243e+02  -1.194538e+02
  -2.415230e+01  -2.319728e+02
   1.732093e+02  -1.707651e+02
   2.047783e+02  -9.129749e+00
   7.702809e+01   1.261610e+02
  -8.031204e+01   1.183201e+02
  -9.027294e+01   3.190499e+01
  -2.189957e+01  -2.522614e+01
   2.085404e+01  -2.707420e+01
  -1.230290e+01   2.470945e+00
  -6.397696e+01  -5.266280e+00
  -9.033184e+01  -7.973183e+01
  -2.132296e+01  -1.571876e+02
   1.276658e+02  -1.563739e+02
   2.404383e+02  -2.090846e+01
   2.166832e+02   1.613286e+02
   4.650347e+01   2.426246e+02
  -1.117498e+02   1.760477e+02
  -1.495605e+02   2.266228e+01
  -7.234296e+01  -6.019088e+01
  -2.809431e+01  -4.009139e+01
  -5.566438e+01   1.187512e+01
  -8.369824e+01   6.223473e+00
  -4.046488e+01  -4.813535e+01
   4.324179e+01  -8.099080e+01
   1.056987e+02  -5.022010e+01
   8.475399e+01   3.644868e+01
  -1.183615e+01   1.074100e+02
  -1.383365e+02   9.230378e+01
  -2.078481e+02  -6.600435e+01
  -1.015360e+02  -2.156492e+02
   1.127918e+02  -2.351265e+02
   2.777441e+02  -1.044192e+02
   2.686213e+02   9.466690e+01
   1.173512e+02   1.955367e+02
  -4.303793e+01   1.527696e+02
  -9.662047e+01   8.783081e+01
  -8.813228e+01   7.157343e+01
  -6.377812e+01   9.627026e+01
  -1.016761e+02   7.502323e+01
  -1.373824e+02  -2.853188e+01
  -1.188626e+02  -1.611074e+02
  -3.205370e+01  -2.396913e+02
   1.149096e+02  -1.733286e+02
   1.767954e+02  -2.252704e+01
   1.508663e+02   1.333798e+02
   2.500453e+01   1.697962e+02
  -7.119240e+01   1.019718e+02
  -5.815365e+01   6.232874e+00
  -2.399059e+00  -3.834354e+01
   6.583377e+00  -3.613587e+01
  -4.048834e+01  -1.795616e+01
  -7.899206e+01  -2.417448e+01
  -4.698222e+01  -3.967374e+01
   5.900006e+01  -3.673979e+01
   1.617172e+02   1.106040e+00
   1.470620e+02   5.040469e+01
   1.865768e+01   9.094908e+01
  -1.229964e+02   8.309296e+01
  -1.594060e+02   1.508634e+01
  -5.309916e+01  -4.221210e+01
   6.757976e+01  -3.820790e+01
   7.723800e+01   1.678236e+01
   1.065436e+01   7.345585e+01
  -5.778570e+01   6.027290e+01
  -6.023783e+01  -2.508017e+00
  -4.361376e+01  -5.242889e+01
  -4.189579e+01  -4.514071e+01
  -6.372028e+01  -5.752142e+00
  -6.821252e+01   7.155664e-01
  -3.265184e+01  -6.878584e+01
   3.745365e+01  -1.490013e+02
   1.174526e+02  -1.491150e+02
   1.663420e+02  -3.568885e+01
   1.281521e+02   9.184555e+01
   2.107183e+00   1.328505e+02
  -8.941894e+01   5.904799e+01
  -6.137381e+01  -1.727430e+01
   5.975038e+01  -2.072849e+01
   1.502283e+02   4.436111e+01
   7.882771e+01   1.153800e+02
  -8.524514e+01   1.215585e+02
  -2.020844e+02   5.928763e+01
  -1.745900e+02  -2.659470e+01
  -3.750918e+01  -8.864795e+01
   5.700479e+01  -7.416393e+01
   5.078749e+01  -5.941794e+00
  -4.031256e+01   2.633112e+01
  -9.283594e+01  -2.171670e+01
  -2.885682e+01  -1.248777e+02
   9.710977e+01  -1.523298e+02
   1.826567e+02  -6.430732e+01
   1.286825e+02   1.146907e+02
   6.950345e+00   2.095188e+02
  -9.192320e+01   1.459193e+02
  -1.071360e+02  -4.841233e+00
  -6.313401e+01  -1.236792e+02
  -4.521253e+00  -1.078497e+02
   4.863342e+01  -2.100202e+01
   5.963276e+01   3.316440e+01
   2.969680e+01   1.079919e+01
   4.161425e+00  -2.087011e+01
   2.025475e+01   1.233714e+01
   5.779406e+01   9.053392e+01
   5.086400e+01   1.117718e+02
  -4.924110e+01   4.935393e+01
  -1.366503e+02  -3.756016e+01
  -1.333744e+02  -7.441584e+01
  -1.458223e+01  -4.991523e+01
   9.472314e+01  -2.107034e+01
   9.359630e+01  -3.133242e+00
   1.010665e+01   6.859828e+00
  -4.095765e+01   2.362621e+01
  -1.630971e+01   1.973038e+01
   2.512009e+01  -2.509219e+00
  -5.399492e+00  -1.134793e+01
  -8.052435e+01  -1.264495e+01
  -9.315185e+01  -2.658697e+01
  -1.049337e+01  -7.638760e+01
   1.300081e+02  -1.144614e+02
   1.820658e+02  -5.763495e+01
   1.413733e+02   7.338568e+01
   2.799563e+01   1.673165e+02
  -8.269208e+01   1.597093e+02
  -1.118239e+02   5.955284e+01
  -8.571551e+01  -2.346238e+01
  -2.400642e+01  -3.624470e+01
   6.672498e+00  -7.798926e+00
  -9.161859e+00  -3.190048e+00
  -3.403036e+01  -4.717247e+01
  -2.260360e+01  -8.850867e+01
   2.908242e+01  -7.758036e+01
   8.484394e+01   1.854690e+01
   7.744242e+01   1.115120e+02
   2.851239e-01   1.178789e+02
  -8.579073e+01   1.663859e+01
  -1.041384e+02  -7.434934e+01
  -3.091327e+01  -1.059382e+02
   6.931871e+01  -5.275665e+01
   1.027051e+02   1.335350e+01
   3.881674e+01   5.534415e+01
  -3.278104e+01   5.277154e+01
  -3.062003e+01   3.085657e+01
   3.851875e+01   1.361495e+00
   7.091315e+01  -8.620867e+00
   1.468795e+01   2.565025e+01
  -8.290105e+01   6.799057e+01
  -1.189299e+02   6.347405e+01
  -6.539470e+01  -1.245984e+01
   1.443342e+01  -8.647859e+01
   5.354992e+01  -7.804359e+01
   3.870787e+01  -5.393855e+00
   6.408389e-01   5.871642e+01
  -2.628354e+01   4.066215e+01
  -3.801247e+01  -2.319679e+01
  -2.749236e+01  -5.244988e+01
   4.133651e+00  -3.216853e+01
   3.415976e+01   8.715260e+00
   4.017546e+01   2.040965e+01
   2.037794e+01   1.967858e-01
   1.317915e-01  -1.382940e+01
  -6.086008e+00   5.433848e+00
  -8.743975e+00   3.715597e+01
  -1.894399e+01   4.284917e+01
  -3.788947e+01   9.150319e+00
  -2.760806e+01  -4.759189e+01
   3.973671e+00  -6.635556e+01
   4.840673e+01  -1.819728e+01
   5.805764e+01   4.239068e+01
   1.397490e+01   6.876864e+01
  -5.432380e+01   3.213156e+01
  -9.002395e+01  -1.344915e+01
  -5.139161e+01  -4.610158e+01
   2.821850e+01  -4.206651e+01
   6.560464e+01  -1.970620e+01
   2.251461e+01  -4.020722e+00
  -4.412320e+01  -6.059574e+00
  -4.120661e+01  -1.840645e+01
   3.390097e+01  -3.111986e+01
   9.434428e+01  -1.942596e+01
