
 $NMID
 id='ANONYMOUS ', fmtdat='(2E16.6)'
 volume=1.0
 tramp=1.0
 $END
  -4.698783e+03   4.428848e+02
  -2.868574e+03  -2.611746e+03
   7.620989e+02  -2.973783e+03
   2.366987e+03  -8.950153e+02
   1.019560e+03   6.204516e+02
  -7.276452e+02   7.494066e+02
  -1.078364e+03  -6.209079e+02
  -6.689708e+01  -1.146528e+03
   8.406863e+02  -8.246533e+02
   1.042216e+03   7.690013e+01
   5.612506e+02   8.171925e+02
  -1.779863e+02   8.651647e+02
  -6.974227e+02   1.667835e+02
  -4.554433e+02  -7.701162e+02
   2.920664e+02  -7.681797e+02
   6.491945e+02   1.442583e+01
   2.557231e+02   7.566635e+02
  -2.918715e+02   6.826139e+02
  -5.946440e+02   1.126316e+02
  -3.822074e+02  -3.887093e+02
  -1.728041e+01  -4.512277e+02
   2.725158e+02  -3.057827e+02
   2.474129e+02  -5.882512e+01
  -1.086322e+02   9.651627e+01
  -4.157719e+02  -5.035540e+01
  -2.204397e+02  -4.276370e+02
   5.066120e+02  -3.935745e+02
   8.503180e+02  -1.800226e+01
   4.487682e+02   5.911578e+02
  -3.850187e+02   5.199050e+02
  -8.053067e+02  -2.637525e+01
  -4.185260e+02  -4.367583e+02
   3.350819e+02  -5.685907e+02
   5.619000e+02  -2.288366e+02
   4.487910e+02   2.563940e+02
   7.658547e+01   4.620783e+02
  -1.837938e+02   2.617493e+02
  -2.184599e+02  -1.610974e+02
   2.276095e+02  -4.717934e+02
   4.852683e+02  -4.622707e+01
   2.326883e+02   7.394137e+02
  -3.145197e+02   7.312121e+02
  -6.474294e+02  -3.615639e+01
  -3.570165e+02  -5.834878e+02
   3.357688e+02  -3.426004e+02
   4.154062e+02   3.038686e+02
  -5.677065e+01   6.038801e+02
  -5.586303e+02   1.588255e+02
  -6.651699e+02  -3.995255e+02
  -1.921310e+02  -5.926977e+02
   3.680932e+02  -4.135323e+02
   6.736249e+02   9.727641e+01
   3.958250e+02   3.932782e+02
  -1.200857e+02   4.121311e+02
  -4.735779e+02   6.765782e+01
  -2.596656e+02  -1.655342e+02
   1.296774e+02  -5.914471e+01
   1.501293e+02   1.405385e+02
  -1.404331e+02   2.127363e+02
  -3.808988e+02  -3.896046e+01
  -1.487844e+02  -2.960088e+02
   2.102909e+02  -2.859780e+02
   3.482197e+02  -8.380223e+01
   2.063397e+02   6.919695e+01
  -7.176183e+00   2.154404e+02
  -2.155255e+02   3.402467e+02
  -3.363914e+02   2.302634e+02
  -3.114377e+02  -1.111254e+02
  -8.398969e+01  -4.865959e+02
   1.035920e+02  -4.061444e+02
   1.431323e+02  -1.447569e+02
   1.882211e+01   1.804424e+01
   3.722750e+01  -8.734956e+01
   1.842976e+02  -1.629015e+02
   2.935336e+02   3.842578e+01
   1.849501e+02   2.572869e+02
  -8.216847e+01   2.819330e+02
  -2.232723e+02   3.165033e+01
  -2.190111e+02  -2.646957e+02
  -1.313126e-01  -2.989273e+02
   2.587183e+02  -1.302753e+02
   3.832030e+02   1.476227e+02
   1.816368e+02   3.376650e+02
  -5.698648e+01   3.131175e+02
  -2.414388e+02   1.352680e+02
  -1.700394e+02  -2.621200e+00
  -1.079292e+02   3.404032e+01
  -2.380976e+02   7.327949e+01
  -4.129040e+02  -3.196141e+01
  -3.589438e+02  -2.842061e+02
  -2.008071e+00  -4.377976e+02
   3.365212e+02  -4.345337e+02
   5.023227e+02  -2.157683e+02
   3.428557e+02   9.848600e+01
   8.274718e+01   2.930536e+02
  -1.328433e+02   2.668435e+02
  -7.686397e+01   3.351396e+01
   1.224378e+02  -1.206731e+02
   2.293470e+02   1.331723e+01
   5.495020e+01   1.951089e+02
  -1.693575e+02   2.001111e+02
  -1.889883e+02  -5.119165e+01
   1.316639e+01  -2.095809e+02
   2.007500e+02  -3.794498e+01
   1.715783e+02   2.561276e+02
  -4.966601e+00   3.591254e+02
  -2.287136e+02   1.930999e+02
  -3.230524e+02  -7.353870e+01
  -2.860602e+02  -2.072464e+02
  -1.071414e+02  -2.641803e+02
   9.944733e+01  -1.631540e+02
   1.779618e+02  -2.662133e+01
   6.802272e+01   3.747859e+01
  -7.607795e+01  -3.240294e+01
  -2.947815e+01  -1.340066e+02
   1.263970e+02  -1.149122e+02
   1.780133e+02   2.622724e+00
   6.504938e+01   7.456675e+01
  -8.212892e+01   1.930534e+01
  -5.387050e+01  -7.169322e+01
   1.244128e+02  -8.258432e+01
   2.876044e+02  -2.972685e+01
   2.570438e+02   1.331300e+02
   6.835445e+01   2.536136e+02
  -1.816772e+02   2.969375e+02
  -2.810310e+02   1.527904e+02
  -1.850632e+02  -4.437780e+01
   2.713706e+01  -1.136792e+02
   9.991814e+01  -9.293384e+00
  -2.946885e+01   1.040658e+02
  -1.916795e+02   7.867093e+01
  -2.180150e+02  -9.154098e+01
  -8.531373e+01  -2.087546e+02
   8.287198e+01  -1.669540e+02
   1.424787e+02  -3.635057e+01
   7.601781e+01   4.540804e+01
  -2.797245e+01   9.137470e+00
  -4.144689e+01  -8.839776e+01
   6.908865e+01  -1.199002e+02
   1.920682e+02  -3.708024e+01
   2.030407e+02   1.128997e+02
   1.759286e+01   2.222159e+02
  -1.641349e+02   1.825182e+02
  -2.077815e+02   1.318594e+01
  -6.727342e+01  -1.182249e+02
   7.200665e+01  -1.141999e+02
   8.230686e+01  -4.200521e+01
   2.251550e+01   2.318311e+01
  -1.753774e+01   1.928538e+01
   1.078731e+01  -6.147554e+00
   6.864629e+01   5.347959e+00
   9.572002e+01   7.558961e+01
   2.756568e+01   1.608137e+02
  -1.186861e+02   1.576378e+02
  -2.218307e+02   4.115229e+01
  -2.101027e+02  -1.415857e+02
  -4.726749e+01  -2.383766e+02
   1.072797e+02  -1.808025e+02
   1.382663e+02  -3.102992e+01
   7.489372e+01   5.523187e+01
   2.809784e+01   3.658780e+01
   5.405520e+01  -1.611831e+01
   8.066161e+01  -8.323002e+00
   4.031189e+01   5.149045e+01
  -3.385606e+01   8.648840e+01
  -1.059258e+02   5.829131e+01
  -8.554559e+01  -3.416649e+01
   9.425144e+00  -1.083967e+02
   1.332644e+02  -9.613802e+01
   1.889447e+02   3.972785e+01
   1.193897e+02   1.910899e+02
  -8.912910e+01   2.296297e+02
  -2.537197e+02   1.063738e+02
  -2.712187e+02  -6.707492e+01
  -1.182430e+02  -1.772700e+02
   2.829716e+01  -1.501414e+02
   9.073290e+01  -8.517652e+01
   7.728447e+01  -7.152999e+01
   6.445348e+01  -9.747966e+01
   9.683007e+01  -7.313847e+01
   1.314703e+02   2.557419e+01
   1.212219e+02   1.494955e+02
   4.340140e+01   2.274059e+02
  -1.000120e+02   1.774337e+02
  -1.773945e+02   3.365278e+01
  -1.416750e+02  -1.261549e+02
  -2.533433e+01  -1.670611e+02
   6.422629e+01  -9.726485e+01
   5.577536e+01  -7.915344e+00
   1.078729e+01   3.978902e+01
  -1.244755e+01   4.048232e+01
   4.045747e+01   1.397579e+01
   7.643190e+01   2.190636e+01
   4.604893e+01   3.837766e+01
  -6.095199e+01   3.767308e+01
  -1.585999e+02   4.219450e+00
  -1.466858e+02  -4.417605e+01
  -2.097915e+01  -8.888218e+01
   1.187973e+02  -7.484937e+01
   1.470699e+02  -1.957525e+01
   5.463539e+01   3.854541e+01
  -5.857262e+01   3.689490e+01
  -7.371521e+01  -1.805241e+01
  -1.107925e+01  -6.994081e+01
   5.628073e+01  -6.573682e+01
   6.127644e+01   2.636781e+00
   4.011236e+01   4.694788e+01
   4.186181e+01   4.161119e+01
   6.313212e+01  -1.674675e-01
   6.747805e+01  -1.357518e-01
   3.458805e+01   6.636490e+01
  -2.655130e+01   1.459944e+02
  -1.139914e+02   1.481511e+02
  -1.639686e+02   4.093174e+01
  -1.282241e+02  -8.583206e+01
  -1.756953e+01  -1.230069e+02
   8.400047e+01  -6.394588e+01
   6.043456e+01   1.505363e+01
  -5.648455e+01   2.348155e+01
  -1.416432e+02  -4.523592e+01
  -8.037007e+01  -1.019816e+02
   7.572804e+01  -1.170558e+02
   1.998440e+02  -6.365518e+01
   1.634896e+02   2.233237e+01
   4.358347e+01   8.365094e+01
  -5.445632e+01   7.429295e+01
  -4.737486e+01   8.722675e+00
   3.680956e+01  -2.849233e+01
   9.197902e+01   1.441904e+01
   3.422310e+01   1.189377e+02
  -8.524701e+01   1.608372e+02
  -1.701236e+02   6.567112e+01
  -1.314968e+02  -9.667914e+01
  -1.390336e+01  -1.924746e+02
   7.964632e+01  -1.498700e+02
   1.068066e+02   1.666228e+00
   6.647722e+01   1.157608e+02
   4.912217e+00   1.083303e+02
  -4.466181e+01   2.100911e+01
  -5.637436e+01  -3.306849e+01
  -2.744296e+01  -8.939521e+00
  -2.191545e+00   2.040845e+01
  -2.223563e+01  -1.671690e+01
  -6.007316e+01  -8.542147e+01
  -5.695169e+01  -1.146917e+02
   4.419651e+01  -5.243374e+01
   1.432235e+02   3.096027e+01
   1.368750e+02   6.736972e+01
   2.060588e+01   4.802656e+01
  -9.221672e+01   2.896237e+01
  -8.828402e+01   8.824993e+00
  -9.064622e+00  -5.358618e+00
   3.935341e+01  -2.401767e+01
   1.364635e+01  -1.807910e+01
  -2.463395e+01   2.706146e+00
   5.845010e+00   8.834255e+00
   7.778947e+01   5.088462e+00
   9.540522e+01   2.203420e+01
   8.771565e+00   8.307911e+01
  -1.276542e+02   1.163163e+02
  -1.818389e+02   7.046638e+01
  -1.465281e+02  -6.138743e+01
  -3.653583e+01  -1.603165e+02
   7.855328e+01  -1.470514e+02
   1.117615e+02  -6.118765e+01
   8.348202e+01   1.914863e+01
   2.524940e+01   3.519745e+01
  -2.795184e+00   1.015486e+01
   1.002464e+01   2.411509e+00
   3.589095e+01   4.515871e+01
   2.748418e+01   8.441992e+01
  -2.910046e+01   7.396869e+01
  -8.287219e+01  -1.609336e+01
  -8.226193e+01  -1.011283e+02
  -3.758978e+00  -1.138291e+02
   7.989297e+01  -2.746673e+01
   1.067163e+02   6.818681e+01
   3.243676e+01   1.002522e+02
  -6.686095e+01   5.841195e+01
  -9.727687e+01  -1.297101e+01
  -4.335803e+01  -5.019643e+01
   3.191307e+01  -5.394413e+01
   2.983409e+01  -2.851971e+01
  -3.327303e+01   2.876685e-01
  -7.044965e+01   9.884561e+00
  -1.690285e+01  -2.511005e+01
   7.811841e+01  -7.099706e+01
   1.171966e+02  -6.302704e+01
   6.653526e+01   7.497333e+00
  -1.262955e+01   8.677605e+01
  -5.030508e+01   8.097694e+01
  -3.830432e+01   6.321826e+00
  -1.948789e+00  -5.562388e+01
   2.420904e+01  -4.325696e+01
   3.632868e+01   1.921755e+01
   2.927143e+01   5.273031e+01
  -5.644711e-02   3.273894e+01
  -3.250991e+01  -6.330556e+00
  -4.222848e+01  -2.134410e+01
  -2.149993e+01  -2.836587e-01
   8.364502e-01   1.428861e+01
   6.264021e+00  -3.863749e+00
   5.974638e+00  -3.858748e+01
   1.616285e+01  -4.485099e+01
   3.353527e+01  -9.307397e+00
   3.242415e+01   4.444620e+01
   1.569761e+00   6.377052e+01
  -4.486541e+01   2.320485e+01
  -5.822236e+01  -3.970331e+01
  -1.814406e+01  -6.618320e+01
   5.262369e+01  -3.664619e+01
   8.799376e+01   1.425153e+01
   5.133186e+01   4.173437e+01
  -2.872163e+01   4.114110e+01
  -6.371343e+01   2.113338e+01
  -2.495797e+01   6.638629e+00
   4.025931e+01   1.736026e+00
   4.222682e+01   1.670734e+01
  -3.189655e+01   3.344650e+01
  -9.441983e+01   2.340099e+01
