
 $NMID
 id='ANONYMOUS ', fmtdat='(2E16.6)'
 volume=1.0
 tramp=1.0
 $END
   4.707108e+03  -2.013117e+02
   2.849412e+03   2.849890e+03
  -6.446591e+02   2.908901e+03
  -1.894418e+03   9.096053e+02
  -9.487077e+02  -5.105664e+02
   6.293989e+02  -6.833811e+02
   8.663028e+02   5.038583e+02
   3.639473e+01   1.019691e+03
  -6.954822e+02   7.514884e+02
  -9.469125e+02  -6.096725e+01
  -4.964591e+02  -9.394249e+02
   1.590057e+02  -9.157864e+02
   5.738891e+02  -1.747700e+02
   3.519193e+02   7.423483e+02
  -2.746843e+02   7.755517e+02
  -6.112600e+02   1.246266e+00
  -3.065824e+02  -7.006687e+02
   2.925510e+02  -6.503982e+02
   6.241292e+02  -6.275171e+01
   3.986449e+02   3.064842e+02
   4.076415e+00   4.885678e+02
  -2.302610e+02   2.736639e+02
  -2.432434e+02   1.787807e+01
   8.917814e+01  -8.641923e+01
   4.358331e+02   9.251586e+01
   2.276212e+02   3.679292e+02
  -4.247045e+02   3.523083e+02
  -8.530924e+02  -4.947812e+01
  -4.745000e+02  -5.491068e+02
   3.426007e+02  -4.942125e+02
   7.105650e+02   3.165538e+01
   3.860697e+02   4.827652e+02
  -2.853998e+02   5.085693e+02
  -5.857772e+02   2.446808e+02
  -4.368624e+02  -2.300823e+02
  -8.502810e+01  -4.542564e+02
   1.667992e+02  -3.203530e+02
   1.550762e+02   1.874855e+02
  -1.518418e+02   4.006254e+02
  -4.509732e+02   2.325283e+01
  -2.190434e+02  -5.445830e+02
   2.516649e+02  -7.313313e+02
   6.028177e+02   2.126699e+01
   3.112056e+02   5.848600e+02
  -3.338541e+02   3.425230e+02
  -3.698354e+02  -3.103003e+02
   7.240262e+01  -5.533724e+02
   5.419297e+02  -1.342006e+02
   6.138619e+02   3.675680e+02
   1.992872e+02   5.684847e+02
  -3.560681e+02   3.705905e+02
  -5.980283e+02  -7.348074e+01
  -3.916131e+02  -3.967792e+02
   1.068274e+02  -3.573220e+02
   4.648072e+02  -9.683853e+01
   2.931974e+02   1.910580e+02
  -9.187650e+01   1.114889e+02
  -1.571773e+02  -1.565125e+02
   1.365998e+02  -2.197930e+02
   3.649455e+02   6.109051e+01
   1.453758e+02   3.112124e+02
  -1.904971e+02   2.639926e+02
  -3.390473e+02   7.105968e+01
  -2.080292e+02  -8.426650e+01
   1.323832e+01  -2.467855e+02
   2.220231e+02  -3.326787e+02
   3.449889e+02  -2.311853e+02
   3.139715e+02   1.313654e+02
   7.226320e+01   4.617202e+02
  -8.528911e+01   3.923225e+02
  -1.251311e+02   1.517513e+02
  -2.431123e+01   4.317873e-04
  -4.074835e+01   8.289071e+01
  -2.010744e+02   1.214198e+02
  -2.867810e+02  -4.347381e+01
  -1.648534e+02  -2.502658e+02
   7.949199e+01  -2.410918e+02
   2.222348e+02  -2.979459e+01
   1.993842e+02   2.483513e+02
  -1.324953e+01   3.012917e+02
  -2.615773e+02   1.334581e+02
  -3.732237e+02  -1.505342e+02
  -2.007965e+02  -3.226771e+02
   9.766173e+01  -3.309691e+02
   2.408861e+02  -1.257017e+02
   1.587003e+02   1.088516e+01
   1.034970e+02  -3.388947e+01
   2.378305e+02  -6.997241e+01
   3.845774e+02   4.240825e+01
   3.393095e+02   2.731078e+02
   3.913239e+00   4.527166e+02
  -3.483364e+02   4.540190e+02
  -4.730480e+02   2.083956e+02
  -3.320550e+02  -8.661575e+01
  -5.568971e+01  -2.893901e+02
   1.205678e+02  -2.593509e+02
   6.770774e+01  -3.742335e+01
  -9.973436e+01   9.766688e+01
  -1.929882e+02  -4.063901e+00
  -3.511954e+01  -1.851980e+02
   1.516540e+02  -1.663089e+02
   1.966288e+02   5.305214e+01
  -1.000362e+01   2.092681e+02
  -1.766047e+02   3.151467e+01
  -1.664384e+02  -2.528843e+02
   6.205051e+00  -3.486495e+02
   2.100162e+02  -1.833859e+02
   3.185349e+02   6.924261e+01
   2.930726e+02   2.351574e+02
   1.020188e+02   2.457536e+02
  -1.091633e+02   1.598628e+02
  -1.667608e+02   2.304556e+01
  -5.750650e+01  -3.414181e+01
   7.304518e+01   2.887554e+01
   3.651690e+01   1.166895e+02
  -1.230048e+02   1.039448e+02
  -1.739643e+02  -5.101901e+00
  -6.029751e+01  -7.449860e+01
   7.542084e+01  -1.549521e+01
   5.823229e+01   7.180094e+01
  -1.287984e+02   8.616731e+01
  -2.895206e+02   4.154461e+00
  -2.561618e+02  -1.315569e+02
  -6.762534e+01  -2.431096e+02
   1.922500e+02  -2.795115e+02
   2.859956e+02  -1.604264e+02
   1.783632e+02   4.169050e+01
  -2.357726e+01   1.000332e+02
  -9.830305e+01   5.391547e+00
   2.658547e+01  -9.281355e+01
   1.898227e+02  -7.091637e+01
   2.176243e+02   9.295481e+01
   7.852877e+01   2.124132e+02
  -7.382158e+01   1.632515e+02
  -1.401389e+02   3.324567e+01
  -7.055100e+01  -4.503138e+01
   2.470091e+01  -3.997158e+00
   3.450264e+01   8.592339e+01
  -7.498995e+01   1.036086e+02
  -2.048836e+02   2.036934e+01
  -1.994286e+02  -1.261130e+02
  -2.367319e+01  -2.066525e+02
   1.525523e+02  -1.684772e+02
   2.056106e+02  -1.873614e+01
   6.769039e+01   1.155548e+02
  -6.236083e+01   1.114684e+02
  -8.020291e+01   3.981540e+01
  -1.746071e+01  -2.181538e+01
   1.704240e+01  -1.551600e+01
  -8.281527e+00   6.642999e+00
  -7.154346e+01  -9.383164e+00
  -9.203568e+01  -7.818234e+01
  -1.890071e+01  -1.533130e+02
   1.167264e+02  -1.594568e+02
   2.304130e+02  -4.266702e+01
   1.967293e+02   1.372233e+02
   4.281560e+01   2.414715e+02
  -1.109542e+02   1.722002e+02
  -1.334533e+02   3.132319e+01
  -7.086215e+01  -5.590985e+01
  -3.033786e+01  -3.433104e+01
  -5.384140e+01   1.427527e+01
  -7.849611e+01   7.411806e+00
  -4.087664e+01  -5.226038e+01
   3.760132e+01  -9.269562e+01
   1.014201e+02  -5.627682e+01
   7.816273e+01   3.970089e+01
  -9.029058e+00   1.110053e+02
  -1.311124e+02   8.343343e+01
  -1.907679e+02  -3.926328e+01
  -1.013488e+02  -1.957449e+02
   9.160149e+01  -2.451109e+02
   2.542899e+02  -1.005972e+02
   2.627981e+02   7.339894e+01
   1.044707e+02   1.702349e+02
  -2.749924e+01   1.517462e+02
  -9.293144e+01   8.745713e+01
  -7.632855e+01   7.381833e+01
  -6.685583e+01   9.173304e+01
  -8.642380e+01   7.124526e+01
  -1.257779e+02  -1.978829e+01
  -1.170539e+02  -1.451665e+02
  -4.096154e+01  -2.173655e+02
   9.166060e+01  -1.653732e+02
   1.876116e+02  -2.813694e+01
   1.362290e+02   1.263126e+02
   2.079688e+01   1.602133e+02
  -7.120041e+01   8.771990e+01
  -6.195024e+01   1.606377e+00
  -1.066633e+01  -3.977883e+01
   1.009106e+01  -3.744346e+01
  -3.843072e+01  -1.720768e+01
  -7.863228e+01  -1.932533e+01
  -4.553763e+01  -3.768403e+01
   6.338031e+01  -3.718036e+01
   1.604946e+02  -1.000475e+01
   1.482925e+02   4.711872e+01
   2.173789e+01   9.197939e+01
  -1.249607e+02   7.226737e+01
  -1.519907e+02   2.237944e+01
  -5.270497e+01  -3.643740e+01
   5.569335e+01  -3.973556e+01
   7.474770e+01   1.670679e+01
   1.016248e+01   6.626920e+01
  -5.534802e+01   5.934113e+01
  -6.338272e+01  -2.015186e+00
  -4.286183e+01  -4.568979e+01
  -4.302552e+01  -3.904096e+01
  -6.121054e+01   2.739787e+00
  -6.918757e+01   3.964451e-01
  -3.435495e+01  -6.675993e+01
   2.313629e+01  -1.423965e+02
   1.113766e+02  -1.482050e+02
   1.567932e+02  -3.275384e+01
   1.211740e+02   9.128736e+01
   1.883224e+01   1.216026e+02
  -8.581032e+01   6.182001e+01
  -5.937221e+01  -1.449476e+01
   5.986721e+01  -2.182590e+01
   1.368608e+02   4.969990e+01
   7.892389e+01   1.070892e+02
  -6.993683e+01   1.106254e+02
  -1.943742e+02   5.219425e+01
  -1.642016e+02  -3.372466e+01
  -4.116512e+01  -8.494297e+01
   6.010427e+01  -7.561807e+01
   4.977650e+01  -8.101404e+00
  -3.710388e+01   2.703343e+01
  -9.049111e+01  -1.547707e+01
  -3.512916e+01  -1.109311e+02
   8.639298e+01  -1.608548e+02
   1.616068e+02  -6.297077e+01
   1.270018e+02   8.641379e+01
   1.890375e+01   1.845042e+02
  -7.398409e+01   1.468822e+02
  -1.049238e+02  -3.886009e+00
  -6.221636e+01  -1.192323e+02
  -3.218350e-01  -1.064898e+02
   4.499935e+01  -1.885540e+01
   5.005915e+01   3.151254e+01
   2.531190e+01   9.068754e+00
   2.253357e+00  -2.112530e+01
   2.149264e+01   1.805365e+01
   5.963320e+01   8.630143e+01
   4.403374e+01   1.094410e+02
  -4.455490e+01   4.434083e+01
  -1.437643e+02  -3.247358e+01
  -1.306997e+02  -6.410835e+01
  -2.050011e+01  -4.755291e+01
   8.197071e+01  -2.637616e+01
   8.809362e+01  -5.966022e+00
   1.073082e+01   6.205726e+00
  -4.097335e+01   2.209313e+01
  -1.254147e+01   1.732902e+01
   2.155580e+01  -1.084933e+00
  -5.690767e+00  -7.266872e+00
  -7.429086e+01  -1.399895e+00
  -9.025558e+01  -2.481336e+01
  -8.292443e+00  -8.438083e+01
   1.092179e+02  -1.117819e+02
   1.910313e+02  -7.231685e+01
   1.461067e+02   6.342968e+01
   3.830131e+01   1.683328e+02
  -7.560149e+01   1.452205e+02
  -1.143825e+02   5.865089e+01
  -8.188364e+01  -1.991405e+01
  -2.374595e+01  -3.771325e+01
   1.724833e+00  -8.423597e+00
  -1.027787e+01  -3.718378e+00
  -3.281563e+01  -4.440311e+01
  -2.771020e+01  -8.719210e+01
   2.867454e+01  -7.189689e+01
   8.446526e+01   1.513022e+01
   7.337705e+01   1.048693e+02
   5.189199e+00   1.138505e+02
  -7.792599e+01   2.595432e+01
  -1.079435e+02  -7.179811e+01
  -3.157577e+01  -9.758656e+01
   6.867205e+01  -5.946489e+01
   9.515501e+01   1.429503e+01
   3.981083e+01   5.143814e+01
  -3.060002e+01   5.073615e+01
  -3.140635e+01   2.966913e+01
   3.189669e+01  -3.458337e+00
   7.081292e+01  -6.858204e+00
   1.553229e+01   2.642085e+01
  -7.659282e+01   6.552525e+01
  -1.084350e+02   5.849664e+01
  -6.367874e+01  -1.034438e+01
   1.082651e+01  -8.171003e+01
   5.127314e+01  -8.071684e+01
   3.548031e+01  -6.413844e+00
   5.891632e+00   5.506991e+01
  -2.615048e+01   4.596149e+01
  -3.644521e+01  -1.849475e+01
  -2.669857e+01  -5.249403e+01
   1.165297e+00  -3.359003e+01
   3.300458e+01   6.375264e+00
   3.920528e+01   2.306870e+01
   2.092125e+01   1.619962e+00
  -2.264364e+00  -1.436847e+01
  -8.658372e+00   3.531478e+00
  -6.674119e+00   3.880772e+01
  -1.634444e+01   3.830456e+01
  -3.572029e+01   5.780821e+00
  -3.539286e+01  -4.203779e+01
  -4.229917e-01  -5.913582e+01
   4.467890e+01  -2.254223e+01
   5.845535e+01   3.779697e+01
   1.602298e+01   6.255606e+01
  -5.760808e+01   3.491523e+01
  -9.134961e+01  -1.683178e+01
  -4.806260e+01  -4.334657e+01
   2.866918e+01  -4.013226e+01
   6.264946e+01  -2.307799e+01
   2.461340e+01  -7.026181e+00
  -3.398397e+01  -1.649703e+00
  -3.859793e+01  -1.492401e+01
   2.830682e+01  -2.889090e+01
   8.786366e+01  -1.844024e+01
