
 $NMID
 id='ANONYMOUS ', fmtdat='(2E16.6)'
 volume=1.0
 tramp=1.0
 $END
  -4.144059e+03  -5.793819e+02
  -2.300121e+03  -2.650491e+03
   6.224957e+02  -2.471310e+03
   1.688929e+03  -8.472718e+02
   8.436752e+02   6.468512e+02
  -5.663158e+02   3.590553e+02
  -7.598884e+02  -4.090131e+02
   4.905939e+01  -8.800097e+02
   7.992411e+02  -7.615369e+02
   8.578752e+02   6.009618e+01
   4.262994e+02   8.100798e+02
  -1.569842e+02   8.721722e+02
  -5.461462e+02   1.317672e+02
  -3.614531e+02  -6.944845e+02
   2.927768e+02  -7.303912e+02
   5.451541e+02  -3.881525e+01
   2.932668e+02   6.334449e+02
  -2.876995e+02   6.592150e+02
  -5.334889e+02   6.833494e+01
  -4.094803e+02  -2.750838e+02
  -3.687826e+00  -4.329828e+02
   2.336685e+02  -2.486228e+02
   1.978266e+02   1.241939e+01
  -1.333747e+02   4.803556e+01
  -4.079119e+02  -1.594964e+02
  -1.437085e+02  -3.894912e+02
   3.856574e+02  -3.466324e+02
   8.443921e+02   1.442022e+02
   4.048089e+02   5.445953e+02
  -4.276737e+02   4.372419e+02
  -6.457367e+02  -6.588090e+01
  -3.068577e+02  -5.175930e+02
   2.667489e+02  -4.962785e+02
   5.696273e+02  -2.150206e+02
   3.940873e+02   2.170738e+02
   6.921222e+01   4.493297e+02
  -1.734035e+02   3.250147e+02
  -1.667786e+02  -2.283723e+02
   1.288624e+02  -3.897354e+02
   4.117307e+02  -1.946127e+01
   2.013202e+02   5.718045e+02
  -2.916726e+02   6.793152e+02
  -6.065450e+02   6.617605e+01
  -1.601488e+02  -5.736989e+02
   2.541066e+02  -3.069682e+02
   3.728191e+02   3.552192e+02
  -1.087347e+02   5.490054e+02
  -5.596829e+02   1.038389e+02
  -5.808974e+02  -3.774901e+02
  -1.724833e+02  -5.486042e+02
   3.764036e+02  -3.095171e+02
   5.689776e+02   9.475551e+01
   3.776994e+02   3.593290e+02
  -1.442724e+02   3.160115e+02
  -3.963676e+02   3.538128e+01
  -2.591662e+02  -2.434413e+02
   6.504068e+01  -1.340755e+02
   1.454765e+02   1.477166e+02
  -1.472536e+02   1.838589e+02
  -3.018372e+02  -9.620870e+01
  -1.239313e+02  -3.031687e+02
   1.998966e+02  -2.422932e+02
   3.279334e+02  -7.313383e+01
   2.005305e+02   7.877672e+01
  -2.913152e+01   2.283804e+02
  -2.398861e+02   3.297693e+02
  -3.301439e+02   2.001398e+02
  -2.922245e+02  -1.473184e+02
  -5.018320e+01  -4.134011e+02
   9.721142e+01  -3.464416e+02
   1.131609e+02  -1.128243e+02
   2.399986e+01   6.848602e+00
   6.192889e+01  -8.225781e+01
   2.022891e+02  -1.256845e+02
   2.907192e+02   8.387593e+01
   1.502100e+02   2.611008e+02
  -4.506841e+01   2.334499e+02
  -2.247442e+02  -8.671665e+00
  -1.809239e+02  -2.440379e+02
   1.502553e+01  -2.857701e+02
   2.823019e+02  -1.017802e+02
   3.427455e+02   1.643763e+02
   2.065808e+02   3.391369e+02
  -1.137038e+02   3.099239e+02
  -2.224716e+02   1.302230e+02
  -1.441404e+02   2.035854e+01
  -1.088246e+02   3.141307e+01
  -2.375598e+02   6.656649e+01
  -4.005016e+02  -4.975758e+01
  -3.136136e+02  -2.768994e+02
   3.571506e+00  -4.357016e+02
   3.877436e+02  -3.760481e+02
   4.775435e+02  -2.027733e+02
   3.340237e+02   7.527152e+01
   5.019777e+01   3.003420e+02
  -1.405091e+02   2.502944e+02
  -7.553441e+01   5.576817e+01
   1.017800e+02  -8.897327e+01
   1.752990e+02  -4.176936e+00
   4.916264e+01   1.935468e+02
  -1.492530e+02   1.712197e+02
  -1.806783e+02  -5.742274e+01
   1.611708e+01  -1.842762e+02
   1.873510e+02  -1.994020e+01
   1.679402e+02   2.352781e+02
  -3.237590e+01   3.369875e+02
  -2.182895e+02   1.763777e+02
  -3.270131e+02  -6.355587e+01
  -2.797918e+02  -2.477507e+02
  -9.417581e+01  -2.509227e+02
   1.144497e+02  -1.550863e+02
   1.694393e+02  -1.993730e+01
   5.015415e+01   3.018640e+01
  -6.490730e+01  -3.673082e+01
  -2.932727e+01  -1.060080e+02
   1.214979e+02  -9.400858e+01
   1.865972e+02   1.455546e+01
   4.980958e+01   7.249410e+01
  -7.361715e+01   1.018793e+01
  -5.328697e+01  -6.486419e+01
   1.226105e+02  -8.139430e+01
   2.877856e+02   2.286160e+01
   2.414271e+02   1.234537e+02
   5.829894e+01   2.303621e+02
  -1.817539e+02   2.434229e+02
  -2.987585e+02   1.181112e+02
  -1.651982e+02  -5.495137e+01
   1.446622e+01  -1.054038e+02
   9.347462e+01  -3.538310e+00
  -3.478693e+01   9.325790e+01
  -1.938453e+02   5.231285e+01
  -2.056847e+02  -1.067407e+02
  -8.007852e+01  -1.991677e+02
   8.653751e+01  -1.572457e+02
   1.352011e+02  -2.723433e+01
   7.371761e+01   3.870550e+01
  -2.455997e+01   7.471722e+00
  -3.696635e+01  -8.878341e+01
   8.180870e+01  -1.043539e+02
   1.990318e+02  -2.414357e+01
   1.904587e+02   1.286911e+02
   2.541554e+01   1.999597e+02
  -1.639660e+02   1.544944e+02
  -1.981032e+02   5.964809e+00
  -6.668359e+01  -1.126773e+02
   7.068710e+01  -1.030984e+02
   8.066892e+01  -3.110609e+01
   1.402783e+01   2.682861e+01
  -2.017201e+01   1.727087e+01
   9.751093e+00  -1.120053e+01
   6.945798e+01   1.078392e+01
   8.855458e+01   8.121168e+01
   1.070953e+01   1.585369e+02
  -1.243953e+02   1.508428e+02
  -2.451846e+02   2.552830e+01
  -1.996564e+02  -1.446865e+02
  -4.176120e+01  -2.349102e+02
   1.099261e+02  -1.645755e+02
   1.343735e+02  -2.885985e+01
   6.841046e+01   5.854497e+01
   3.164432e+01   3.165416e+01
   5.332833e+01  -1.120955e+01
   7.965530e+01   1.117124e-01
   3.959369e+01   4.899162e+01
  -4.145624e+01   9.337953e+01
  -1.002723e+02   5.586104e+01
  -8.492813e+01  -4.149095e+01
   1.095063e+01  -1.056466e+02
   1.425128e+02  -8.403793e+01
   1.932944e+02   5.571255e+01
   1.008146e+02   2.038790e+02
  -1.065737e+02   2.284661e+02
  -2.606041e+02   9.306094e+01
  -2.630648e+02  -9.458853e+01
  -1.039558e+02  -1.679568e+02
   4.235145e+01  -1.478709e+02
   8.781270e+01  -8.653008e+01
   7.467358e+01  -7.379198e+01
   6.857244e+01  -8.736080e+01
   8.667477e+01  -7.361431e+01
   1.210918e+02   1.463986e+01
   1.149621e+02   1.438208e+02
   2.917318e+01   2.037529e+02
  -9.516057e+01   1.633001e+02
  -1.780110e+02   1.445419e+01
  -1.268083e+02  -1.221561e+02
  -1.974692e+01  -1.588308e+02
   7.155334e+01  -8.859839e+01
   6.043642e+01   3.414901e+00
   4.563195e+00   4.536859e+01
  -7.448016e+00   2.890106e+01
   3.520144e+01   2.169026e+01
   7.773653e+01   2.309635e+01
   4.271087e+01   3.851330e+01
  -6.210867e+01   3.539704e+01
  -1.636015e+02   2.433828e-01
  -1.396803e+02  -5.704826e+01
  -1.203731e+01  -9.284856e+01
   1.161811e+02  -7.267963e+01
   1.413348e+02  -6.547769e+00
   4.503185e+01   4.079984e+01
  -5.752026e+01   3.792521e+01
  -7.302857e+01  -1.494721e+01
  -5.850076e+00  -7.212672e+01
   5.523666e+01  -5.402960e+01
   6.626242e+01  -4.129863e-01
   4.071560e+01   4.871231e+01
   4.396785e+01   3.821804e+01
   5.845199e+01   2.936265e+00
   6.325620e+01   1.276007e+00
   3.432295e+01   6.812464e+01
  -3.246049e+01   1.444695e+02
  -1.142728e+02   1.451409e+02
  -1.630111e+02   2.526735e+01
  -1.165780e+02  -9.548472e+01
  -9.310432e+00  -1.267756e+02
   8.985702e+01  -5.393216e+01
   6.166952e+01   1.333207e+01
  -6.092319e+01   2.078823e+01
  -1.304931e+02  -4.674376e+01
  -7.221970e+01  -1.083411e+02
   7.137147e+01  -1.090655e+02
   1.874808e+02  -5.186611e+01
   1.541373e+02   3.666071e+01
   3.517228e+01   8.673370e+01
  -6.110050e+01   6.819121e+01
  -4.957301e+01   6.020497e+00
   3.682571e+01  -2.708966e+01
   8.836704e+01   2.210848e+01
   3.303401e+01   1.158066e+02
  -9.656768e+01   1.577704e+02
  -1.524562e+02   6.066411e+01
  -1.272768e+02  -9.475400e+01
  -1.514456e+01  -1.872368e+02
   7.964070e+01  -1.473296e+02
   9.730175e+01   6.079647e+00
   5.545356e+01   1.175784e+02
   4.395402e-01   1.055850e+02
  -4.290915e+01   2.249061e+01
  -5.017671e+01  -2.985503e+01
  -2.327122e+01  -9.670296e+00
  -4.456934e+00   2.009007e+01
  -2.002956e+01  -1.551880e+01
  -5.595542e+01  -8.782766e+01
  -3.575225e+01  -1.103981e+02
   4.909617e+01  -4.366962e+01
   1.351259e+02   3.716519e+01
   1.277305e+02   6.967419e+01
   1.772579e+01   4.843707e+01
  -8.438316e+01   2.162231e+01
  -8.599845e+01   4.144063e+00
  -1.243563e+01  -8.402387e+00
   3.693048e+01  -2.058001e+01
   1.299529e+01  -1.742051e+01
  -1.881090e+01  -1.202218e+00
   4.707371e+00   9.651438e+00
   6.809035e+01   3.124183e+00
   8.613320e+01   2.352834e+01
   7.398225e+00   8.004651e+01
  -1.173954e+02   1.089592e+02
  -1.911423e+02   5.172625e+01
  -1.414022e+02  -6.607660e+01
  -1.913257e+01  -1.629119e+02
   7.453390e+01  -1.434443e+02
   1.101745e+02  -6.118645e+01
   8.075342e+01   2.368473e+01
   2.378298e+01   3.753696e+01
  -1.970120e+00   8.271141e+00
   1.125967e+01   3.848269e+00
   3.103188e+01   4.555738e+01
   2.533527e+01   8.840888e+01
  -2.761217e+01   6.668757e+01
  -7.892816e+01  -1.897761e+01
  -7.485228e+01  -1.056017e+02
  -2.459725e+00  -1.098583e+02
   7.616303e+01  -2.622278e+01
   9.997922e+01   6.787714e+01
   3.328799e+01   9.948906e+01
  -6.203117e+01   5.261627e+01
  -9.787004e+01  -1.326365e+01
  -3.580980e+01  -5.357455e+01
   3.193900e+01  -4.700303e+01
   3.417726e+01  -2.803559e+01
  -3.424959e+01   3.807711e+00
  -6.807105e+01   2.980349e+00
  -1.398098e+01  -2.597138e+01
   7.938435e+01  -6.318977e+01
   1.071739e+02  -6.034985e+01
   6.190142e+01   1.254365e+01
  -1.326826e+01   8.473813e+01
  -4.762432e+01   7.974582e+01
  -3.589150e+01   7.259484e+00
  -2.504581e+00  -5.204812e+01
   2.469174e+01  -4.213934e+01
   3.251743e+01   1.728950e+01
   2.688721e+01   5.254141e+01
  -2.240391e+00   3.446427e+01
  -3.269349e+01  -8.004314e+00
  -3.879212e+01  -2.039716e+01
  -1.948475e+01  -2.905448e+00
  -2.615974e-01   1.515262e+01
   7.064647e+00  -1.955023e-01
   5.929226e+00  -3.711592e+01
   1.322443e+01  -4.447837e+01
   3.256925e+01  -5.569149e+00
   3.048390e+01   4.867944e+01
  -3.925771e-01   6.282485e+01
  -4.456617e+01   1.951292e+01
  -5.884898e+01  -3.979004e+01
  -1.499860e+01  -6.139222e+01
   5.711900e+01  -3.629351e+01
   8.710632e+01   2.116799e+01
   4.593484e+01   4.522121e+01
  -2.612456e+01   3.975423e+01
  -6.399092e+01   2.063549e+01
  -2.278600e+01   5.173549e+00
   3.363314e+01   9.988860e-01
   3.815447e+01   1.617536e+01
  -2.811795e+01   2.838300e+01
  -8.274632e+01   1.250113e+01
