
 $NMID
 id='ANONYMOUS ', fmtdat='(2E16.6)'
 volume=1.0
 tramp=1.0
 $END
  -3.479996e+03  -1.202283e+02
  -2.149617e+03  -2.165569e+03
   5.550976e+02  -2.180789e+03
   1.771889e+03  -6.320617e+02
   4.272156e+02   3.120739e+02
  -6.569102e+02   2.926296e+02
  -6.739294e+02  -2.220321e+02
  -2.417302e+02  -7.140855e+02
   6.271378e+02  -6.369475e+02
   7.533175e+02   1.825931e+02
   4.061864e+02   6.688883e+02
  -2.169800e+02   7.019702e+02
  -5.719640e+02   7.101200e+01
  -3.478701e+02  -5.783689e+02
   3.261116e+02  -5.159561e+02
   5.057615e+02   9.685025e+01
   1.781939e+02   5.297686e+02
  -2.620567e+02   5.291478e+02
  -5.357308e+02   1.438094e+02
  -2.878074e+02  -2.826637e+02
  -4.444481e+01  -3.669152e+02
   1.928412e+02  -2.134218e+02
   1.705449e+02  -8.313189e+00
  -6.661247e+01   8.207082e+01
  -3.104806e+02  -7.476386e+01
  -1.981800e+02  -4.229685e+02
   3.520001e+02  -3.436428e+02
   6.503512e+02   4.955084e+01
   3.421270e+02   4.351779e+02
  -2.449794e+02   4.644635e+02
  -5.891651e+02   2.620598e+00
  -2.634586e+02  -4.554319e+02
   2.655911e+02  -3.942636e+02
   4.225902e+02  -1.808823e+02
   3.189169e+02   2.294572e+02
   1.215887e+02   3.974814e+02
  -2.192356e+02   2.137913e+02
  -1.259985e+02  -1.934559e+02
   1.834020e+02  -4.436989e+02
   3.675979e+02   7.934216e+01
   2.068155e+02   5.501772e+02
  -2.838136e+02   6.110240e+02
  -5.129793e+02  -9.618366e+01
  -2.545748e+02  -4.315754e+02
   2.705820e+02  -2.454697e+02
   2.790064e+02   1.988767e+02
  -1.706482e+01   3.845155e+02
  -4.197071e+02   1.557663e+02
  -4.568181e+02  -4.102088e+02
  -1.733425e+02  -4.777384e+02
   3.184530e+02  -2.358195e+02
   4.682664e+02   5.269295e+01
   3.027863e+02   3.091723e+02
  -1.252286e+02   2.817220e+02
  -3.583913e+02   6.616719e+01
  -2.049660e+02  -1.670278e+02
   1.365672e+02  -5.441652e+01
   1.042585e+02   9.623812e+01
  -1.202652e+02   1.550324e+02
  -2.508824e+02  -4.957105e+01
  -1.300153e+02  -2.605224e+02
   1.575067e+02  -1.810705e+02
   2.721285e+02  -7.210238e+01
   1.503036e+02   5.247309e+01
  -2.294508e+01   1.886662e+02
  -1.605660e+02   2.573152e+02
  -2.559239e+02   1.729304e+02
  -2.308426e+02  -8.445323e+01
  -4.341120e+01  -3.366242e+02
   9.827024e+01  -3.144527e+02
   8.698770e+01  -7.464944e+01
   3.013701e+01   2.746095e+01
   2.900920e+01  -6.339714e+01
   1.481504e+02  -1.005671e+02
   2.282049e+02   4.386779e+01
   1.372189e+02   2.001353e+02
  -6.368604e+01   2.054366e+02
  -1.802813e+02   3.681647e+00
  -1.672944e+02  -1.793999e+02
   6.145020e-01  -2.376528e+02
   2.328260e+02  -1.079971e+02
   2.909838e+02   1.361364e+02
   1.639543e+02   3.136217e+02
  -6.433455e+01   2.741379e+02
  -1.665647e+02   1.081341e+02
  -1.343863e+02   9.927199e+00
  -7.804986e+01   2.949196e+01
  -1.817327e+02   6.072906e+01
  -3.033434e+02  -4.441509e+01
  -2.883842e+02  -2.235703e+02
   9.625830e+00  -3.595132e+02
   2.800956e+02  -3.293305e+02
   3.722075e+02  -1.613598e+02
   2.532634e+02   6.386775e+01
   5.915957e+01   2.406022e+02
  -1.228355e+02   2.208149e+02
  -6.889180e+01   8.835625e+00
   9.422861e+01  -9.417860e+01
   1.588940e+02   7.532004e+00
   3.800271e+01   1.522224e+02
  -1.173827e+02   1.294775e+02
  -1.654689e+02  -4.493163e+01
   5.202443e+00  -1.606020e+02
   1.582947e+02  -3.631147e+01
   1.327629e+02   2.068295e+02
  -1.873020e+01   2.932992e+02
  -1.977840e+02   1.544316e+02
  -2.535136e+02  -4.459075e+01
  -2.203870e+02  -1.886814e+02
  -6.012802e+01  -2.360556e+02
   9.470796e+01  -1.346900e+02
   1.348581e+02  -2.465537e+01
   4.490214e+01   2.423798e+01
  -5.693950e+01  -2.452252e+01
  -2.383676e+01  -1.135036e+02
   9.395077e+01  -7.744316e+01
   1.432801e+02  -3.550223e+00
   4.946843e+01   5.812018e+01
  -7.426723e+01   1.820119e+01
  -4.647359e+01  -5.583226e+01
   9.552735e+01  -6.713958e+01
   2.197927e+02  -1.103904e+01
   1.981241e+02   1.097816e+02
   5.062981e+01   2.169241e+02
  -1.657342e+02   2.115404e+02
  -2.165774e+02   9.216920e+01
  -1.393229e+02  -4.104947e+01
   3.099338e+01  -9.455714e+01
   6.226645e+01  -1.274235e+01
  -2.048992e+01   8.619504e+01
  -1.532584e+02   4.742751e+01
  -1.835654e+02  -7.380824e+01
  -4.960539e+01  -1.753588e+02
   9.128324e+01  -1.281090e+02
   1.188369e+02  -2.242710e+01
   5.690355e+01   3.621425e+01
  -2.546998e+01   5.013843e+00
  -2.383538e+01  -6.760260e+01
   5.034491e+01  -9.717583e+01
   1.625806e+02  -2.233610e+01
   1.599062e+02   1.024395e+02
   9.989733e+00   1.763058e+02
  -1.321545e+02   1.362889e+02
  -1.663250e+02   5.615927e+00
  -5.616020e+01  -9.175871e+01
   5.558938e+01  -8.992929e+01
   7.300974e+01  -1.919231e+01
   1.511514e+01   2.032671e+01
  -1.028983e+01   1.183543e+01
   1.006307e+01  -7.230092e+00
   5.169392e+01   1.065443e+01
   6.551151e+01   6.729023e+01
   1.793905e+01   1.282140e+02
  -9.903417e+01   1.187615e+02
  -1.839719e+02   3.778263e+01
  -1.628306e+02  -1.216983e+02
  -3.107394e+01  -1.963438e+02
   7.909234e+01  -1.326100e+02
   1.086722e+02  -2.040261e+01
   5.600713e+01   4.441762e+01
   1.980373e+01   2.744088e+01
   4.075774e+01  -8.863253e+00
   6.166566e+01  -5.891724e+00
   3.414369e+01   3.688365e+01
  -3.552951e+01   6.828215e+01
  -7.925883e+01   4.618780e+01
  -6.659239e+01  -2.861951e+01
   1.112366e+01  -8.642381e+01
   1.070071e+02  -7.169237e+01
   1.646556e+02   3.887719e+01
   8.612691e+01   1.624895e+02
  -8.431791e+01   1.775438e+02
  -2.141380e+02   5.736513e+01
  -2.015071e+02  -7.659675e+01
  -1.020860e+02  -1.420176e+02
   3.268037e+01  -1.185794e+02
   8.038011e+01  -6.426872e+01
   6.226987e+01  -6.046304e+01
   5.254058e+01  -7.650280e+01
   8.041133e+01  -5.671654e+01
   9.733199e+01   1.341599e+01
   8.555390e+01   1.255099e+02
   2.383776e+01   1.801725e+02
  -8.171037e+01   1.410235e+02
  -1.364019e+02   4.119991e+00
  -1.083473e+02  -1.033145e+02
  -1.602517e+01  -1.275033e+02
   5.319578e+01  -7.576440e+01
   4.196093e+01   7.503559e-01
   6.237012e+00   3.243084e+01
  -7.985085e+00   2.487115e+01
   3.008769e+01   1.250066e+01
   6.426649e+01   1.815708e+01
   3.557075e+01   3.355848e+01
  -4.726147e+01   3.111097e+01
  -1.274449e+02   2.839008e+00
  -1.108116e+02  -4.004701e+01
  -1.432208e+01  -7.178240e+01
   9.457947e+01  -5.910340e+01
   1.210734e+02  -6.020715e+00
   3.932087e+01   3.119575e+01
  -4.627729e+01   3.144335e+01
  -6.005533e+01  -1.704514e+01
  -1.200326e+01  -5.470259e+01
   4.472693e+01  -5.079828e+01
   5.067032e+01   1.902629e+00
   3.408753e+01   3.806428e+01
   3.356478e+01   3.324009e+01
   4.669802e+01   8.157897e-01
   5.383314e+01   1.373627e+00
   2.795392e+01   4.776299e+01
  -2.931196e+01   1.168473e+02
  -9.302967e+01   1.141338e+02
  -1.296322e+02   3.025062e+01
  -9.844715e+01  -6.649970e+01
  -3.351472e+00  -9.998050e+01
   6.739311e+01  -5.134565e+01
   4.715641e+01   1.157814e+01
  -4.799346e+01   1.621232e+01
  -1.143669e+02  -3.482842e+01
  -5.513629e+01  -8.390695e+01
   6.273816e+01  -9.069177e+01
   1.501223e+02  -4.781791e+01
   1.259838e+02   2.026418e+01
   3.493881e+01   6.726897e+01
  -4.471158e+01   5.631526e+01
  -3.564775e+01   4.613610e+00
   3.100659e+01  -2.109709e+01
   6.805583e+01   2.234214e+01
   2.326052e+01   8.946400e+01
  -6.797603e+01   1.258767e+02
  -1.317615e+02   5.212940e+01
  -1.012868e+02  -7.650007e+01
  -1.775920e+01  -1.602876e+02
   6.323666e+01  -1.200203e+02
   8.167108e+01   7.051138e+00
   4.685633e+01   9.887460e+01
   1.433987e+00   8.960192e+01
  -3.579658e+01   1.598275e+01
  -4.489087e+01  -2.524582e+01
  -2.108003e+01  -1.128707e+01
  -3.551061e+00   1.639806e+01
  -1.402798e+01  -1.216145e+01
  -4.904994e+01  -6.930038e+01
  -3.653011e+01  -8.997919e+01
   3.472513e+01  -3.486212e+01
   1.139561e+02   3.158441e+01
   9.899905e+01   5.618507e+01
   1.618368e+01   3.887326e+01
  -6.963230e+01   1.922649e+01
  -7.083497e+01   4.190983e+00
  -7.210973e+00  -3.354492e+00
   3.216892e+01  -1.838580e+01
   1.023187e+01  -1.503920e+01
  -1.695228e+01   1.279224e+00
   4.669473e+00   7.731842e+00
   6.363923e+01   5.195340e+00
   7.315012e+01   1.860425e+01
   4.207013e+00   6.347702e+01
  -9.855755e+01   8.570972e+01
  -1.411411e+02   4.318032e+01
  -1.106849e+02  -5.060244e+01
  -1.297788e+01  -1.280599e+02
   6.689550e+01  -1.234809e+02
   9.341270e+01  -4.597484e+01
   6.341539e+01   2.186145e+01
   1.952071e+01   2.716571e+01
  -3.834637e+00   5.861923e+00
   7.500658e+00   2.987818e+00
   2.564779e+01   3.642213e+01
   1.890495e+01   7.205321e+01
  -2.499668e+01   5.543091e+01
  -6.522563e+01  -1.824079e+01
  -5.885216e+01  -8.625752e+01
  -2.973629e-01  -8.882339e+01
   6.562500e+01  -1.400202e+01
   7.348012e+01   5.869095e+01
   2.308714e+01   8.570423e+01
  -5.280846e+01   4.509295e+01
  -7.869087e+01  -1.121041e+01
  -2.989035e+01  -3.918138e+01
   2.661066e+01  -3.886951e+01
   2.394746e+01  -2.599173e+01
  -2.733578e+01  -3.663153e+00
  -5.514334e+01   6.741696e+00
  -1.064193e+01  -1.998474e+01
   6.529259e+01  -4.738960e+01
   9.220339e+01  -4.639183e+01
   5.214374e+01   9.189781e+00
  -1.198435e+01   6.486893e+01
  -4.245866e+01   6.392739e+01
  -3.271762e+01   1.698032e+00
   2.663712e+00  -4.511740e+01
   2.051063e+01  -3.356756e+01
   2.429475e+01   1.327433e+01
   1.974402e+01   4.388321e+01
  -2.537329e+00   2.573692e+01
  -2.401966e+01  -8.464852e+00
  -3.307030e+01  -1.627689e+01
  -1.661102e+01  -1.793567e+00
   1.838680e-01   1.111285e+01
   6.863718e+00  -2.877424e+00
   2.379782e+00  -3.098863e+01
   1.422156e+01  -3.297575e+01
   2.452989e+01  -9.124339e-01
   2.255890e+01   3.661392e+01
  -9.967357e-01   5.012581e+01
  -3.879791e+01   1.358387e+01
  -4.225452e+01  -2.870366e+01
  -1.091893e+01  -4.964317e+01
   4.453188e+01  -2.630172e+01
   7.250139e+01   1.000947e+01
   3.943038e+01   3.341563e+01
  -2.256546e+01   3.126212e+01
  -5.160943e+01   1.833068e+01
  -1.989141e+01   3.781432e+00
   2.447618e+01   2.923020e+00
   2.992180e+01   1.407442e+01
  -2.717225e+01   2.547721e+01
  -7.422394e+01   1.686762e+01
