
 $NMID
 id='ANONYMOUS ', fmtdat='(2E16.6)'
 volume=1.0
 tramp=1.0
 $END
   4.596589e+03  -6.112132e+01
   2.575183e+03   2.880662e+03
  -8.263108e+02   2.867549e+03
  -2.174210e+03   1.074650e+03
  -9.922414e+02  -8.956113e+02
   7.842212e+02  -6.121509e+02
   1.014569e+03   5.471382e+02
  -2.154872e+02   1.219727e+03
  -9.005126e+02   8.006777e+02
  -8.941366e+02  -6.308907e+01
  -3.888468e+02  -1.053463e+03
   3.506188e+02  -9.116470e+02
   6.485444e+02  -5.926102e+01
   3.839113e+02   6.944171e+02
  -2.643859e+02   7.577544e+02
  -6.456329e+02  -5.923396e+01
  -1.956402e+02  -7.184694e+02
   3.364518e+02  -6.801050e+02
   6.096973e+02   4.616575e+01
   3.795486e+02   4.267338e+02
  -3.509765e+00   4.627220e+02
  -2.585863e+02   2.844531e+02
  -2.180323e+02   1.387902e+01
   1.365700e+02  -8.831223e+01
   4.565517e+02   8.400105e+01
   2.204232e+02   4.507303e+02
  -4.615296e+02   4.104309e+02
  -9.003293e+02  -1.500074e+02
  -4.680008e+02  -6.998380e+02
   4.157187e+02  -5.390712e+02
   8.073838e+02   6.900186e+01
   3.779497e+02   5.080602e+02
  -2.907202e+02   4.685550e+02
  -5.954616e+02   1.992046e+02
  -3.993899e+02  -2.739295e+02
  -4.288922e+01  -5.367969e+02
   2.631969e+02  -2.467750e+02
   1.659350e+02   3.418919e+02
  -1.243793e+02   4.373158e+02
  -5.054973e+02   4.403354e+01
  -2.813457e+02  -7.193944e+02
   3.606894e+02  -6.778972e+02
   6.944478e+02   6.798479e+01
   3.157100e+02   6.030258e+02
  -3.374190e+02   3.221476e+02
  -4.439246e+02  -3.522180e+02
   9.229964e+01  -6.077387e+02
   5.429043e+02  -1.370094e+02
   6.205746e+02   4.023905e+02
   1.726315e+02   6.033334e+02
  -4.316267e+02   3.625741e+02
  -6.421226e+02  -9.159042e+01
  -4.301572e+02  -3.754538e+02
   1.822739e+02  -4.085574e+02
   4.903554e+02  -8.147943e+01
   2.711650e+02   2.538147e+02
  -1.741770e+02   1.110498e+02
  -1.771737e+02  -1.728110e+02
   2.018943e+02  -2.226555e+02
   3.764544e+02   7.844990e+01
   1.453892e+02   3.221550e+02
  -2.333211e+02   2.309665e+02
  -3.289091e+02   4.440678e+01
  -1.556859e+02  -1.034351e+02
   1.731720e+01  -2.131407e+02
   1.958391e+02  -3.083487e+02
   3.354203e+02  -2.388279e+02
   2.745791e+02   1.437615e+02
   5.026146e+01   4.359111e+02
  -1.305323e+02   3.859099e+02
  -1.427661e+02   9.755638e+01
  -1.542311e+01  -8.226796e+00
  -1.525786e+01   8.396072e+01
  -1.848080e+02   1.478521e+02
  -2.950289e+02  -4.886263e+01
  -1.573147e+02  -2.641813e+02
   6.674028e+01  -2.839847e+02
   2.271962e+02  -1.304351e+01
   2.204613e+02   2.691302e+02
  -1.797872e+01   2.802547e+02
  -2.618251e+02   1.270393e+02
  -3.505700e+02  -1.685789e+02
  -1.631324e+02  -3.756184e+02
   1.523693e+02  -2.994604e+02
   2.544274e+02  -1.066938e+02
   1.638117e+02   1.554277e+00
   8.892078e+01  -2.511991e+01
   2.145025e+02  -6.026694e+01
   3.925132e+02   5.031271e+01
   3.281635e+02   2.997652e+02
  -1.444548e+00   4.455697e+02
  -3.608309e+02   4.032811e+02
  -4.604757e+02   1.793808e+02
  -3.400382e+02  -1.010846e+02
  -6.450080e+01  -3.081703e+02
   1.465406e+02  -2.412190e+02
   8.021200e+01  -1.667433e+01
  -1.117813e+02   1.173101e+02
  -2.062830e+02   5.018353e-01
  -6.151132e+01  -2.011823e+02
   1.762283e+02  -1.684132e+02
   1.924224e+02   5.164761e+01
  -3.944130e+01   1.987490e+02
  -2.072758e+02   4.811133e+01
  -1.568886e+02  -2.253879e+02
   4.882920e+01  -3.506341e+02
   2.241498e+02  -2.109621e+02
   3.140537e+02   6.671449e+01
   2.571756e+02   2.281237e+02
   9.166671e+01   2.600128e+02
  -1.211339e+02   1.649662e+02
  -1.880111e+02   2.290640e+01
  -6.761855e+01  -3.444548e+01
   7.670569e+01   3.639006e+01
   4.087023e+01   1.272927e+02
  -1.323559e+02   9.922481e+01
  -1.850308e+02  -9.557505e+00
  -6.788040e+01  -7.319011e+01
   7.604359e+01  -2.101037e+01
   6.519347e+01   6.534976e+01
  -1.195602e+02   7.741312e+01
  -2.636268e+02  -1.984958e+01
  -2.614167e+02  -1.420073e+02
  -7.432228e+01  -2.476785e+02
   1.870234e+02  -2.611520e+02
   2.873563e+02  -1.246127e+02
   1.735788e+02   7.968492e+01
  -2.733847e+01   1.117898e+02
  -1.037134e+02   7.372521e+00
   2.628259e+01  -1.017050e+02
   1.926887e+02  -5.887678e+01
   2.157066e+02   1.108629e+02
   7.683073e+01   2.101731e+02
  -9.999735e+01   1.730181e+02
  -1.459410e+02   2.916571e+01
  -7.199506e+01  -4.768936e+01
   2.573422e+01  -5.702545e+00
   4.103447e+01   7.509385e+01
  -6.366075e+01   1.064248e+02
  -2.122797e+02   3.279120e+01
  -1.813440e+02  -1.122086e+02
  -1.228162e+01  -2.103967e+02
   1.681329e+02  -1.652402e+02
   1.948365e+02   1.822758e+00
   6.685226e+01   1.105425e+02
  -5.855179e+01   1.223383e+02
  -8.797314e+01   2.911199e+01
  -2.250583e+01  -3.419530e+01
   1.315161e+01  -1.551198e+01
  -1.013827e+01   2.574627e+00
  -7.201378e+01  -1.600220e+01
  -7.855477e+01  -8.415657e+01
  -1.259867e+01  -1.499528e+02
   1.269949e+02  -1.493658e+02
   2.384341e+02  -2.255112e+01
   2.041714e+02   1.418313e+02
   3.056973e+01   2.249573e+02
  -1.177391e+02   1.622053e+02
  -1.333226e+02   2.333160e+01
  -6.317161e+01  -6.147638e+01
  -2.663190e+01  -3.681881e+01
  -5.129185e+01   7.314519e+00
  -7.472204e+01   3.765884e+00
  -3.856649e+01  -4.548773e+01
   4.515884e+01  -7.744703e+01
   9.064630e+01  -6.028088e+01
   8.126414e+01   3.630724e+01
  -1.464043e+01   1.071595e+02
  -1.333766e+02   7.980287e+01
  -2.012946e+02  -3.776726e+01
  -9.953738e+01  -1.977099e+02
   1.012659e+02  -2.280833e+02
   2.557054e+02  -9.713916e+01
   2.614454e+02   7.438233e+01
   1.119823e+02   1.675145e+02
  -3.369501e+01   1.478754e+02
  -9.626876e+01   8.031759e+01
  -8.302931e+01   6.877237e+01
  -6.908896e+01   8.997308e+01
  -9.102307e+01   6.715190e+01
  -1.235953e+02  -2.658263e+01
  -1.124286e+02  -1.550161e+02
  -2.365368e+01  -2.267991e+02
   1.047792e+02  -1.767515e+02
   1.721785e+02  -2.121832e+01
   1.319786e+02   1.208158e+02
   1.686895e+01   1.581019e+02
  -5.845044e+01   9.277391e+01
  -6.006807e+01   7.778803e-01
  -5.409816e+00  -3.679862e+01
   4.738770e+00  -3.557381e+01
  -3.619642e+01  -2.178655e+01
  -7.326317e+01  -2.600555e+01
  -4.390221e+01  -3.478299e+01
   6.367912e+01  -3.493606e+01
   1.511366e+02  -1.048698e+00
   1.416736e+02   5.079979e+01
   1.667416e+01   7.947219e+01
  -1.104828e+02   6.783110e+01
  -1.439478e+02   2.141822e+01
  -5.025358e+01  -3.710760e+01
   5.973066e+01  -2.997268e+01
   7.753828e+01   1.819707e+01
   3.261949e+00   6.395214e+01
  -5.640185e+01   5.058249e+01
  -6.041581e+01  -3.228014e+00
  -3.937801e+01  -4.855178e+01
  -4.275388e+01  -3.984125e+01
  -6.262994e+01  -3.797637e+00
  -6.937114e+01  -2.970738e-01
  -3.056064e+01  -6.586772e+01
   3.640513e+01  -1.392414e+02
   1.101122e+02  -1.346659e+02
   1.503313e+02  -2.411962e+01
   1.167753e+02   8.746215e+01
   3.241703e+00   1.251305e+02
  -7.784397e+01   5.883208e+01
  -5.780428e+01  -1.893836e+01
   5.915614e+01  -1.849171e+01
   1.303651e+02   4.831016e+01
   7.697899e+01   1.012154e+02
  -7.660310e+01   1.096594e+02
  -1.941983e+02   5.372464e+01
  -1.628771e+02  -2.892784e+01
  -3.762129e+01  -8.607175e+01
   6.806904e+01  -6.624825e+01
   5.502803e+01  -8.577075e+00
  -3.944115e+01   2.356823e+01
  -8.614775e+01  -2.756507e+01
  -3.439777e+01  -1.160663e+02
   9.366098e+01  -1.512275e+02
   1.543141e+02  -5.133432e+01
   1.247535e+02   1.039024e+02
   8.351884e+00   2.017942e+02
  -7.867077e+01   1.380071e+02
  -1.018432e+02  -5.107965e+00
  -6.507385e+01  -1.162626e+02
   1.016241e+01  -1.045050e+02
   4.267067e+01  -2.200912e+01
   5.209520e+01   2.957718e+01
   2.951089e+01   8.083236e+00
   4.289698e+00  -2.243107e+01
   1.948484e+01   1.415012e+01
   4.911982e+01   8.577121e+01
   3.734349e+01   1.088880e+02
  -4.726663e+01   4.444744e+01
  -1.327441e+02  -4.185357e+01
  -1.256417e+02  -7.373462e+01
  -1.460662e+01  -4.808894e+01
   9.139853e+01  -1.913275e+01
   8.716852e+01  -3.500204e+00
   9.053006e+00   5.383338e+00
  -3.798809e+01   2.171199e+01
  -1.135269e+01   1.862296e+01
   2.154493e+01   2.092635e-01
  -5.667408e+00  -9.847698e+00
  -7.346314e+01  -3.299780e+00
  -8.359995e+01  -2.309807e+01
  -2.135780e+00  -7.795411e+01
   1.168327e+02  -1.111090e+02
   1.832044e+02  -4.772520e+01
   1.351818e+02   7.019698e+01
   2.644416e+01   1.549425e+02
  -7.613948e+01   1.372148e+02
  -1.219872e+02   5.629671e+01
  -7.431527e+01  -2.237752e+01
  -2.339290e+01  -3.465487e+01
   1.649780e+00  -8.189469e+00
  -1.060404e+01  -2.931716e+00
  -3.070214e+01  -4.414264e+01
  -2.362736e+01  -9.143535e+01
   3.239781e+01  -6.921452e+01
   7.498020e+01   2.094043e+01
   7.157902e+01   1.048972e+02
  -4.639227e-01   1.034121e+02
  -8.173754e+01   2.257859e+01
  -9.455030e+01  -7.459389e+01
  -3.145645e+01  -1.027075e+02
   6.798396e+01  -5.310918e+01
   9.393601e+01   1.382038e+01
   3.496703e+01   4.605466e+01
  -3.131511e+01   4.876752e+01
  -2.890804e+01   2.281926e+01
   3.090642e+01   2.260102e+00
   6.845585e+01  -5.098595e+00
   1.351190e+01   2.244189e+01
  -7.751332e+01   6.220598e+01
  -1.121229e+02   5.533204e+01
  -6.110934e+01  -1.326681e+01
   1.853670e+01  -7.605812e+01
   5.051560e+01  -7.431937e+01
   3.172633e+01  -6.338705e-01
  -1.587056e+00   5.650919e+01
  -2.492575e+01   4.003384e+01
  -3.254847e+01  -1.850060e+01
  -2.568634e+01  -5.188705e+01
   3.159942e+00  -3.019082e+01
   3.344608e+01   9.667620e+00
   3.735288e+01   1.820207e+01
   2.054052e+01   1.099264e+00
  -1.716137e+00  -1.261040e+01
  -7.003982e+00   7.673110e+00
  -9.545255e+00   3.710525e+01
  -2.015228e+01   4.846661e+01
  -3.340915e+01   5.792994e-01
  -2.815418e+01  -4.588647e+01
   6.264279e+00  -5.658916e+01
   4.373421e+01  -1.979250e+01
   5.446404e+01   4.201945e+01
   1.081347e+01   5.924276e+01
  -5.901233e+01   3.359305e+01
  -8.574507e+01  -2.394636e+01
  -4.634440e+01  -4.451016e+01
   2.958612e+01  -3.702075e+01
   6.335333e+01  -1.770506e+01
   2.272333e+01  -4.806740e+00
  -3.924126e+01  -3.824283e+00
  -3.732748e+01  -1.613323e+01
   3.185384e+01  -3.351768e+01
   9.820137e+01  -1.592703e+01
