
 $NMID
 id='ANONYMOUS ', fmtdat='(2E16.6)'
 volume=1.0
 tramp=1.0
 $END
  -3.306634e+03   3.515528e+02
  -2.177170e+03  -1.543093e+03
  -9.559755e+01  -2.138654e+03
   1.496023e+03  -1.267281e+03
   9.759523e+02  -2.534138e+02
   2.145500e+01   4.725849e+02
  -3.734294e+02  -2.163316e+02
  -2.540210e+01  -6.532284e+02
   5.103910e+02  -6.219750e+02
   7.583652e+02  -6.037578e+01
   4.540490e+02   4.809267e+02
  -1.026197e+02   7.093697e+02
  -4.460410e+02   1.651629e+02
  -2.732638e+02  -4.296849e+02
   1.065831e+02  -5.736174e+02
   4.159082e+02  -8.816752e+01
   2.825131e+02   5.441506e+02
  -1.895123e+02   6.791529e+02
  -4.110785e+02   2.664248e+02
  -4.318330e+02  -2.251017e+02
  -1.422990e+02  -3.441461e+02
   1.374242e+02  -2.456334e+02
   8.712990e+01  -8.194828e+01
  -1.331635e+02  -9.427674e+01
  -2.653703e+02  -2.451438e+02
  -7.351901e+01  -3.843005e+02
   4.241711e+02  -2.357259e+02
   5.963938e+02   1.591680e+02
   2.192820e+02   3.809813e+02
  -2.961692e+02   2.172299e+02
  -4.822837e+02  -1.832158e+02
  -2.060165e+02  -3.595658e+02
   2.687545e+02  -3.562429e+02
   4.545928e+02  -1.595389e+02
   3.404897e+02   1.983711e+02
   1.023191e+02   3.080670e+02
  -6.659607e+01   1.935644e+02
   1.768694e+01  -1.146423e+02
   1.698809e+02  -2.088843e+02
   2.035974e+02   8.318927e+01
   1.114702e+02   5.860790e+02
  -3.063794e+02   4.847069e+02
  -3.410027e+02  -5.642885e+01
  -1.377512e+02  -2.827234e+02
   1.816539e+02  -1.331994e+02
   2.180713e+02   2.430112e+02
  -9.331338e+01   3.912190e+02
  -4.455463e+02   6.390148e+01
  -5.366617e+02  -3.671188e+02
  -1.547752e+02  -5.427711e+02
   2.837405e+02  -2.681656e+02
   5.551033e+02   4.937943e+01
   3.595453e+02   2.619650e+02
  -5.694742e+01   2.703921e+02
  -3.280225e+02   4.823054e+01
  -2.353859e+02  -5.694744e+01
   3.636610e+01  -4.943857e+01
   4.324134e+01   5.228619e+01
  -1.126426e+02   7.691804e+01
  -2.445116e+02  -6.076817e+01
  -1.145247e+02  -1.756422e+02
   1.690057e+02  -2.369022e+02
   3.277114e+02  -1.090535e+02
   2.629669e+02   1.077666e+02
  -3.345139e+01   2.932936e+02
  -2.718008e+02   3.234676e+02
  -3.634096e+02   1.632945e+02
  -2.245533e+02  -1.696484e+02
  -3.236597e+01  -3.459042e+02
   4.738812e+01  -3.532737e+02
   5.696182e+01  -1.642353e+02
   2.881659e+01  -9.092315e+01
   1.353183e+02  -1.104235e+02
   2.363660e+02  -4.873639e+01
   2.202719e+02   1.201867e+02
   9.070394e+01   2.630650e+02
  -9.017444e+01   2.091885e+02
  -1.869059e+02  -2.783487e+01
  -1.387605e+02  -2.292710e+02
   4.205503e+01  -2.473840e+02
   2.254704e+02  -5.806912e+01
   3.177321e+02   1.620711e+02
   1.654327e+02   3.006439e+02
  -4.665698e+01   2.557439e+02
  -1.774475e+02   1.460515e+02
  -1.441535e+02   9.556200e+01
  -1.369326e+02   5.768367e+01
  -2.512406e+02   3.103473e+01
  -4.061682e+02  -8.863372e+01
  -3.052307e+02  -2.999386e+02
   1.871544e+01  -4.577532e+02
   3.623966e+02  -3.761375e+02
   4.784052e+02  -1.534681e+02
   2.924319e+02   9.776661e+01
   1.721085e+01   2.430464e+02
  -1.062988e+02   1.892885e+02
  -4.796962e+01   3.406941e+01
   1.335963e+02  -6.829906e+01
   1.447693e+02   2.703197e+01
   1.805570e+01   1.409090e+02
  -1.472604e+02   1.142840e+02
  -1.041269e+02  -6.389672e+01
   4.209952e+01  -1.389328e+02
   1.595679e+02   2.152893e+00
   1.471146e+02   2.281721e+02
  -2.624089e+01   3.589574e+02
  -2.327353e+02   2.137497e+02
  -3.393302e+02  -6.282487e+01
  -2.648109e+02  -2.645489e+02
  -6.754205e+01  -2.761907e+02
   1.320436e+02  -1.306205e+02
   1.491973e+02   2.808617e-01
   4.352532e+01   1.492913e+01
  -5.386928e+01  -6.025945e+01
   6.112355e+00  -1.148793e+02
   1.267366e+02  -6.710571e+01
   1.458360e+02   2.552710e+01
   3.638606e+01   5.882499e+01
  -7.777911e+01  -9.340749e+00
  -3.669430e+01  -8.692267e+01
   1.412588e+02  -7.778699e+01
   2.992759e+02   3.542866e+01
   2.609738e+02   1.579003e+02
   3.360437e+01   2.583379e+02
  -2.078125e+02   2.403145e+02
  -2.637984e+02   7.028442e+01
  -1.302994e+02  -5.067632e+01
   3.494271e+01  -8.407310e+01
   6.241740e+01   1.267218e+01
  -4.971721e+01   7.751732e+01
  -1.827285e+02   4.038308e+01
  -1.981915e+02  -1.060424e+02
  -5.087756e+01  -1.922836e+02
   8.586574e+01  -1.449189e+02
   1.227436e+02  -2.424612e+01
   4.526557e+01   3.535735e+01
  -3.746424e+01  -1.658374e+01
  -2.206242e+01  -1.047029e+02
   8.444666e+01  -1.153776e+02
   1.991980e+02  -1.246915e+01
   1.692851e+02   1.227369e+02
   5.307283e+00   2.145927e+02
  -1.610634e+02   1.476842e+02
  -1.667261e+02   6.949520e+00
  -5.714144e+01  -9.842346e+01
   5.108783e+01  -9.982798e+01
   7.375433e+01  -2.841060e+01
   3.670553e+00   2.468178e+01
  -3.445769e+01   8.544208e+00
   8.324920e+00  -2.557513e+01
   8.642902e+01  -3.755123e+00
   9.729332e+01   9.109035e+01
   1.531213e+01   1.684021e+02
  -1.459558e+02   1.450175e+02
  -2.359243e+02  -3.610669e+00
  -1.958611e+02  -1.592135e+02
  -3.020371e+01  -2.234339e+02
   1.036137e+02  -1.477311e+02
   1.273036e+02  -2.645481e+01
   6.902314e+01   4.372337e+01
   3.278521e+01   3.144594e+01
   5.612020e+01  -1.159596e+01
   8.580101e+01  -5.564179e+00
   4.315333e+01   5.674124e+01
  -4.356737e+01   1.048015e+02
  -1.142302e+02   6.781901e+01
  -1.072661e+02  -4.690214e+01
   1.766387e+01  -1.274038e+02
   1.553344e+02  -9.483001e+01
   2.057468e+02   6.376500e+01
   7.994230e+01   2.225695e+02
  -1.302680e+02   2.000781e+02
  -2.694866e+02   8.329482e+01
  -2.320429e+02  -1.022465e+02
  -1.024186e+02  -1.744395e+02
   3.864906e+01  -1.344661e+02
   9.309841e+01  -7.810555e+01
   7.380498e+01  -6.586621e+01
   5.651967e+01  -9.095181e+01
   9.652921e+01  -7.623011e+01
   1.303122e+02   2.335922e+01
   1.184603e+02   1.575761e+02
   2.429622e+01   2.291164e+02
  -9.992844e+01   1.630064e+02
  -1.625736e+02   1.646713e+00
  -1.227350e+02  -1.282634e+02
  -5.132938e+00  -1.507341e+02
   7.655763e+01  -7.329086e+01
   5.997206e+01   1.628079e+01
  -7.456744e+00   5.220811e+01
  -2.571276e+01   3.783808e+01
   2.275815e+01   1.587898e+01
   8.332504e+01   1.759249e+01
   4.758836e+01   3.970273e+01
  -6.915307e+01   3.928071e+01
  -1.709074e+02  -9.262675e+00
  -1.430773e+02  -6.935033e+01
   2.650415e+00  -9.692152e+01
   1.306783e+02  -6.641109e+01
   1.415190e+02  -4.200348e-01
   4.169196e+01   4.871409e+01
  -6.182190e+01   4.323657e+01
  -7.566190e+01  -1.557883e+01
  -1.591075e+01  -7.256810e+01
   4.779955e+01  -6.649785e+01
   6.569242e+01  -4.046419e-02
   5.787331e+01   4.892658e+01
   4.562229e+01   4.294847e+01
   5.525875e+01   1.682128e+00
   6.440929e+01   1.838815e+00
   4.192614e+01   7.386085e+01
  -2.969746e+01   1.529710e+02
  -1.284780e+02   1.384897e+02
  -1.756881e+02   2.499821e+01
  -1.282006e+02  -9.367229e+01
  -8.521634e-01  -1.349079e+02
   8.576763e+01  -6.062245e+01
   6.274864e+01   1.203664e+01
  -5.737323e+01   1.649817e+01
  -1.285860e+02  -4.420052e+01
  -6.758736e+01  -1.027848e+02
   8.205064e+01  -1.135281e+02
   1.899281e+02  -3.174363e+01
   1.487489e+02   3.405416e+01
   2.691822e+01   8.061567e+01
  -7.010360e+01   5.868483e+01
  -4.993242e+01   9.289004e-02
   4.346505e+01  -3.056611e+01
   9.473209e+01   1.820924e+01
   3.793221e+01   1.146505e+02
  -8.301709e+01   1.548622e+02
  -1.576848e+02   7.700014e+01
  -1.279396e+02  -9.414504e+01
  -1.354325e+01  -1.920391e+02
   8.381032e+01  -1.438152e+02
   1.022746e+02   1.094281e+01
   4.958874e+01   1.194413e+02
  -2.093879e+01   1.057215e+02
  -4.732608e+01   1.699230e+01
  -4.691855e+01  -3.238557e+01
  -1.658098e+01  -7.389635e+00
  -6.177791e+00   1.635657e+01
  -2.928855e+01  -1.925566e+01
  -5.556084e+01  -8.876721e+01
  -3.080179e+01  -1.038661e+02
   5.709237e+01  -4.067518e+01
   1.278093e+02   3.876418e+01
   1.241775e+02   7.491604e+01
   1.696203e+01   5.207329e+01
  -8.177075e+01   2.555478e+01
  -8.477909e+01   4.808447e+00
  -1.774090e+01  -1.220970e+01
   3.331948e+01  -1.963630e+01
   1.629534e+01  -1.217812e+01
  -1.388862e+01   3.565149e+00
   4.069982e+00   5.240423e+00
   7.103102e+01   2.626876e+00
   9.400784e+01   2.357287e+01
   1.671202e+01   7.890767e+01
  -1.107205e+02   1.162836e+02
  -1.861569e+02   6.019979e+01
  -1.490912e+02  -5.852542e+01
  -3.369079e+01  -1.528598e+02
   8.122330e+01  -1.555584e+02
   1.135329e+02  -6.757373e+01
   7.809099e+01   2.105324e+01
   2.413281e+01   3.716746e+01
   1.137728e+00   1.225540e+01
   1.359581e+01   8.444403e+00
   2.926107e+01   4.996222e+01
   1.754728e+01   8.635023e+01
  -2.922591e+01   7.115125e+01
  -7.511391e+01  -1.684928e+01
  -8.109750e+01  -1.025313e+02
  -8.501389e+00  -1.086623e+02
   7.782461e+01  -3.195322e+01
   1.063511e+02   5.871010e+01
   4.220981e+01   1.073387e+02
  -6.576205e+01   6.232140e+01
  -1.006876e+02  -7.334174e+00
  -4.259345e+01  -5.799204e+01
   3.546654e+01  -6.059368e+01
   4.098498e+01  -2.730639e+01
  -2.763006e+01   5.329568e+00
  -6.406180e+01   9.818011e+00
  -1.760165e+01  -2.559821e+01
   8.117108e+01  -6.269377e+01
   1.171626e+02  -5.493398e+01
   6.942180e+01   1.875122e+01
  -1.525779e+01   8.541773e+01
  -5.717629e+01   7.990458e+01
  -4.708965e+01   1.095009e+01
  -9.071971e+00  -5.153286e+01
   2.507252e+01  -4.451958e+01
   3.886568e+01   9.778767e+00
   2.887487e+01   5.346868e+01
  -2.103412e+00   3.866132e+01
  -3.347855e+01  -3.632438e+00
  -3.998269e+01  -2.573557e+01
  -2.028162e+01  -4.939451e+00
   4.916959e+00   1.891665e+01
   5.249284e+00   7.357831e+00
  -4.456081e+00  -2.879784e+01
   3.663848e+00  -5.887726e+01
   2.387244e+01  -1.917946e+01
   4.070223e+01   3.389498e+01
   1.065455e+01   5.637432e+01
  -3.983232e+01   2.342585e+01
  -5.777067e+01  -3.325057e+01
  -1.894032e+01  -6.371012e+01
   5.590000e+01  -3.299428e+01
   9.086316e+01   1.087754e+01
   4.876113e+01   4.297601e+01
  -3.074940e+01   4.493556e+01
  -6.244465e+01   2.727281e+01
  -2.806150e+01   5.776787e+00
   2.755215e+01  -2.235532e+00
   3.395227e+01   7.766207e+00
  -2.311577e+01   2.873218e+01
  -7.965848e+01   2.709880e+01
