
 $NMID
 id='ANONYMOUS ', fmtdat='(2E16.6)'
 volume=1.0
 tramp=1.0
 $END
   3.492336e+03   3.763472e+02
   1.967984e+03   1.892010e+03
  -3.975702e+02   2.107817e+03
  -1.750625e+03   9.139777e+02
  -7.468060e+02  -4.756888e+02
   5.456584e+02  -4.632115e+02
   6.717919e+02   4.050521e+02
  -8.735429e+01   6.051956e+02
  -5.366648e+02   6.106248e+02
  -7.951557e+02  -1.903828e+01
  -4.066281e+02  -5.728360e+02
   1.216990e+02  -7.047671e+02
   4.900216e+02  -8.580510e+01
   2.654692e+02   4.855130e+02
  -1.988923e+02   5.649693e+02
  -5.017734e+02   2.908944e+01
  -2.592398e+02  -5.671173e+02
   2.098721e+02  -5.556388e+02
   4.069322e+02  -1.324186e+02
   4.162198e+02   3.077160e+02
   4.484996e+01   3.663474e+02
  -1.880658e+02   2.263059e+02
  -1.572123e+02   7.512249e+01
   1.454277e+02   6.961825e+01
   2.920583e+02   1.674690e+02
   1.408696e+02   3.055986e+02
  -3.862619e+02   2.000001e+02
  -7.435720e+02  -8.584534e+01
  -2.982978e+02  -4.645044e+02
   3.293594e+02  -3.487584e+02
   5.506965e+02   8.598040e+01
   2.727870e+02   4.089785e+02
  -2.759712e+02   3.825628e+02
  -4.672788e+02   1.224724e+02
  -3.666562e+02  -1.951336e+02
  -4.557132e+00  -3.705045e+02
   9.173624e+01  -2.219831e+02
   2.531427e+01   1.899411e+02
  -1.783535e+02   2.631298e+02
  -3.114543e+02  -1.383052e+01
  -1.850126e+02  -5.652533e+02
   2.865987e+02  -5.866461e+02
   5.243822e+02  -2.932401e+01
   2.177281e+02   4.149918e+02
  -1.741332e+02   2.633821e+02
  -2.736675e+02  -2.859285e+02
   1.247933e+02  -4.457008e+02
   4.536323e+02  -1.084817e+02
   5.466249e+02   3.594398e+02
   1.299011e+02   4.948483e+02
  -3.288313e+02   2.553575e+02
  -5.293865e+02  -8.077765e+01
  -3.333038e+02  -3.308322e+02
   6.671748e+01  -2.510685e+02
   3.473230e+02   5.221098e+00
   2.357929e+02   1.325856e+02
  -9.643390e+01   1.357156e+02
  -1.117532e+02  -1.064664e+02
   8.438658e+01  -7.410565e+01
   2.899360e+02   4.932115e+01
   1.184601e+02   2.265474e+02
  -1.832511e+02   2.153779e+02
  -3.162766e+02   7.462728e+01
  -1.942975e+02  -9.796197e+01
   1.447114e+01  -2.372436e+02
   2.451407e+02  -2.831493e+02
   3.180785e+02  -1.554725e+02
   2.336621e+02   1.533038e+02
   4.663795e+01   3.875890e+02
  -8.380246e+01   3.114996e+02
  -5.640418e+01   1.440774e+02
   3.221457e+00   4.358899e+01
  -8.442224e+01   8.461725e+01
  -2.281705e+02   7.174682e+01
  -2.482997e+02  -8.089790e+01
  -1.089952e+02  -2.492405e+02
   6.367118e+01  -2.038220e+02
   2.086986e+02   1.006644e+01
   1.539983e+02   2.444951e+02
  -3.390363e+01   2.570942e+02
  -2.264850e+02   8.305793e+01
  -2.880477e+02  -1.740855e+02
  -1.613801e+02  -3.015454e+02
   1.049442e+02  -2.390119e+02
   1.886811e+02  -1.286772e+02
   1.307900e+02  -1.491004e+01
   9.500366e+01  -3.775112e+01
   2.095094e+02  -5.903938e+01
   3.681872e+02   6.689509e+01
   2.741631e+02   2.872943e+02
  -4.245716e+01   4.037811e+02
  -3.321010e+02   3.583787e+02
  -4.340773e+02   1.415826e+02
  -2.950108e+02  -9.296402e+01
  -1.902458e+01  -2.674792e+02
   9.196580e+01  -2.288836e+02
   5.946434e+01  -4.789699e+01
  -1.119116e+02   8.651057e+01
  -1.593273e+02  -2.122283e+01
  -3.028793e+01  -1.503988e+02
   1.351857e+02  -1.526982e+02
   1.339389e+02   7.812591e+01
  -2.690313e+01   1.612100e+02
  -1.694225e+02   4.788258e+00
  -1.476147e+02  -2.162628e+02
   3.128730e+01  -3.219486e+02
   2.151323e+02  -1.759547e+02
   3.079181e+02   6.418918e+01
   2.488155e+02   2.471826e+02
   8.496348e+01   2.346764e+02
  -1.050087e+02   1.381914e+02
  -1.634532e+02   1.032760e+01
  -4.627577e+01  -2.990676e+01
   6.194603e+01   4.935864e+01
   1.563039e+01   1.083813e+02
  -1.085938e+02   6.424196e+01
  -1.600560e+02  -3.021880e+01
  -4.250650e+01  -6.368343e+01
   6.677291e+01  -7.458665e-01
   3.605814e+01   7.397687e+01
  -1.182597e+02   7.453354e+01
  -2.636795e+02  -1.393736e+01
  -2.213646e+02  -1.386120e+02
  -3.787751e+01  -2.320874e+02
   1.888585e+02  -2.236434e+02
   2.717004e+02  -1.171178e+02
   1.382653e+02   6.176061e+01
  -1.083872e+01   9.660352e+01
  -7.376262e+01  -8.017639e-01
   3.609000e+01  -8.882844e+01
   1.674546e+02  -4.448191e+01
   1.835113e+02   9.820009e+01
   5.599898e+01   1.756763e+02
  -7.235617e+01   1.335744e+02
  -1.307880e+02   2.242139e+01
  -5.738021e+01  -3.482519e+01
   2.910598e+01   1.632116e+00
   3.173008e+01   9.047639e+01
  -7.970999e+01   1.012792e+02
  -1.844673e+02   2.077350e+01
  -1.688208e+02  -1.133362e+02
  -1.973372e+01  -1.989700e+02
   1.552377e+02  -1.487388e+02
   1.787791e+02  -1.702659e+00
   5.455800e+01   9.855721e+01
  -5.961324e+01   9.373528e+01
  -6.814817e+01   2.575261e+01
  -7.111545e+00  -2.144278e+01
   2.925339e+01  -1.586314e+01
  -5.684271e+00   1.233064e+01
  -6.889355e+01  -5.056246e+00
  -8.368744e+01  -7.607658e+01
  -9.263986e+00  -1.517548e+02
   1.305086e+02  -1.304871e+02
   2.153946e+02   5.646456e-01
   1.815074e+02   1.404147e+02
   3.688274e+01   2.171952e+02
  -9.769279e+01   1.415486e+02
  -1.210627e+02   2.706278e+01
  -6.544052e+01  -4.848388e+01
  -2.726176e+01  -3.183817e+01
  -4.839082e+01   1.183023e+01
  -7.789939e+01   5.047741e+00
  -4.331457e+01  -5.146247e+01
   3.282144e+01  -8.616047e+01
   9.622683e+01  -5.536244e+01
   8.237465e+01   4.396688e+01
  -1.097573e+01   1.035490e+02
  -1.415865e+02   8.541659e+01
  -1.766679e+02  -5.455420e+01
  -8.480894e+01  -1.911995e+02
   1.251199e+02  -2.048433e+02
   2.557274e+02  -7.918575e+01
   2.270462e+02   8.113651e+01
   9.530811e+01   1.630026e+02
  -4.167017e+01   1.334410e+02
  -8.711093e+01   7.731201e+01
  -6.534968e+01   6.308958e+01
  -6.022424e+01   7.943073e+01
  -8.345031e+01   7.148049e+01
  -1.154044e+02  -2.103185e+01
  -9.727457e+01  -1.426992e+02
  -2.136720e+01  -1.998249e+02
   8.570121e+01  -1.617131e+02
   1.541763e+02  -1.744626e+01
   1.118108e+02   1.126267e+02
   1.291166e+01   1.474203e+02
  -6.844789e+01   8.067600e+01
  -5.920609e+01  -8.173441e+00
  -3.257577e+00  -4.484344e+01
   1.274458e+01  -2.973554e+01
  -2.784170e+01  -1.608259e+01
  -7.359255e+01  -2.202324e+01
  -4.232803e+01  -3.555715e+01
   6.094195e+01  -3.239145e+01
   1.601239e+02  -1.025514e+01
   1.322072e+02   5.565772e+01
   6.537717e+00   8.789362e+01
  -1.065475e+02   6.164007e+01
  -1.320935e+02   1.055054e+01
  -4.004419e+01  -3.924330e+01
   5.300662e+01  -3.438041e+01
   6.838193e+01   1.716155e+01
   8.635278e+00   6.534450e+01
  -4.841673e+01   5.185171e+01
  -5.968994e+01  -9.970157e-02
  -4.650587e+01  -4.662959e+01
  -3.819455e+01  -3.785856e+01
  -5.262466e+01  -9.312951e-01
  -5.822113e+01  -9.959284e-01
  -3.602287e+01  -6.305202e+01
   3.042727e+01  -1.383179e+02
   1.190183e+02  -1.296765e+02
   1.532269e+02  -2.163629e+01
   1.140975e+02   8.748275e+01
   1.054345e+00   1.209699e+02
  -7.843378e+01   5.482009e+01
  -5.743634e+01  -1.305567e+01
   5.262893e+01  -1.673578e+01
   1.231304e+02   4.487530e+01
   6.813951e+01   9.507915e+01
  -7.896984e+01   9.885420e+01
  -1.671782e+02   4.913140e+01
  -1.464610e+02  -3.630126e+01
  -2.436705e+01  -7.344722e+01
   6.027705e+01  -5.771618e+01
   4.510409e+01   2.217773e+00
  -3.714062e+01   2.538989e+01
  -8.118315e+01  -2.417177e+01
  -3.252587e+01  -1.036551e+02
   7.758540e+01  -1.398545e+02
   1.514420e+02  -4.684439e+01
   1.133710e+02   8.817831e+01
   8.515043e+00   1.776010e+02
  -7.630183e+01   1.298561e+02
  -9.163239e+01  -9.990574e+00
  -5.588683e+01  -1.094752e+02
   1.277854e+00  -9.306283e+01
   4.480966e+01  -1.326313e+01
   4.392478e+01   2.838795e+01
   2.003387e+01   4.205363e+00
   4.764964e+00  -1.706507e+01
   2.015577e+01   1.521177e+01
   4.773455e+01   8.233081e+01
   3.518922e+01   9.829830e+01
  -5.028777e+01   3.758731e+01
  -1.248886e+02  -4.002143e+01
  -1.151345e+02  -6.090990e+01
  -1.469674e+01  -4.711116e+01
   7.472169e+01  -2.019639e+01
   7.644867e+01  -3.765197e+00
   1.176953e+01   9.488788e+00
  -3.301701e+01   2.169530e+01
  -1.636533e+01   1.284628e+01
   1.643241e+01  -6.969825e-01
  -3.714886e+00  -7.353637e+00
  -6.775378e+01   1.649757e+00
  -8.207464e+01  -1.722180e+01
  -1.654535e+01  -7.610000e+01
   1.115480e+02  -1.051104e+02
   1.737488e+02  -5.474151e+01
   1.367891e+02   5.683030e+01
   2.432544e+01   1.481055e+02
  -7.496657e+01   1.370152e+02
  -1.038601e+02   5.307346e+01
  -7.378826e+01  -1.888912e+01
  -2.173555e+01  -3.285185e+01
  -6.848054e-01  -9.410333e+00
  -1.116332e+01  -5.727075e+00
  -2.798378e+01  -4.693837e+01
  -1.705193e+01  -8.347941e+01
   2.676521e+01  -6.507863e+01
   7.162379e+01   1.667950e+01
   6.476188e+01   1.011705e+02
  -8.140383e-01   1.053965e+02
  -7.525747e+01   2.553683e+01
  -9.720455e+01  -6.500299e+01
  -3.103562e+01  -9.326889e+01
   6.025614e+01  -4.941341e+01
   9.028669e+01   8.591669e+00
   3.647326e+01   4.916395e+01
  -3.103748e+01   5.249527e+01
  -3.087232e+01   2.554264e+01
   2.773721e+01  -2.888228e+00
   6.047127e+01  -5.863901e+00
   1.420887e+01   2.241819e+01
  -7.189624e+01   6.327723e+01
  -1.062887e+02   4.767735e+01
  -5.977716e+01  -1.336594e+01
   1.449138e+01  -7.867227e+01
   5.013822e+01  -7.382061e+01
   3.637146e+01  -8.145144e+00
   3.437293e+00   4.673776e+01
  -2.434322e+01   4.243973e+01
  -3.141181e+01  -1.227180e+01
  -2.300485e+01  -4.833156e+01
   3.506035e+00  -3.239839e+01
   2.941527e+01   6.901589e+00
   3.576984e+01   1.994342e+01
   1.707018e+01   1.994977e+00
  -2.109821e+00  -1.422508e+01
  -2.584820e+00  -1.512955e+00
  -3.585713e+00   3.083846e+01
  -1.199026e+01   4.375384e+01
  -2.848917e+01   1.272665e+01
  -3.346354e+01  -3.748228e+01
  -1.371386e+00  -4.853755e+01
   4.078119e+01  -1.924909e+01
   5.386819e+01   3.358453e+01
   1.594514e+01   5.398344e+01
  -4.815769e+01   3.206768e+01
  -8.410099e+01  -1.290965e+01
  -4.483988e+01  -4.075773e+01
   2.600378e+01  -3.904858e+01
   5.769684e+01  -2.241288e+01
   2.153451e+01  -5.698156e+00
  -2.925304e+01  -2.070035e+00
  -3.161007e+01  -8.948111e+00
   2.457142e+01  -2.362376e+01
   7.539962e+01  -1.416010e+01
