
 $NMID
 id='ANONYMOUS ', fmtdat='(2E16.6)'
 volume=1.0
 tramp=1.0
 $END
  -3.270171e+03  -5.843109e+01
  -2.178455e+03  -1.697018e+03
   1.995708e+02  -2.162112e+03
   1.756322e+03  -6.910550e+02
   7.973560e+02   3.924029e+02
  -5.035413e+02   4.355653e+02
  -8.716152e+02  -2.764417e+02
  -3.314356e+01  -7.804951e+02
   6.548180e+02  -6.079145e+02
   7.450076e+02  -3.504414e+01
   3.841263e+02   5.595756e+02
  -6.315135e+01   7.712786e+02
  -5.117920e+02   1.404985e+02
  -3.878275e+02  -5.199356e+02
   2.020925e+02  -6.084443e+02
   4.868210e+02  -9.323888e-01
   2.744653e+02   5.604531e+02
  -3.104139e+02   5.810755e+02
  -4.982533e+02   1.215824e+02
  -3.307145e+02  -3.312615e+02
  -1.074493e+02  -3.971452e+02
   1.875815e+02  -2.412863e+02
   1.305450e+02  -4.418666e+01
  -1.115697e+02  -7.977621e+00
  -2.463948e+02  -1.090842e+02
  -1.999298e+02  -3.745979e+02
   3.632899e+02  -2.557450e+02
   6.988236e+02   5.608344e+01
   3.716666e+02   3.739265e+02
  -2.579514e+02   3.977353e+02
  -5.590066e+02  -2.211359e+01
  -3.068306e+02  -3.989520e+02
   2.701321e+02  -3.489653e+02
   4.795244e+02  -1.713965e+02
   3.177278e+02   1.906024e+02
   9.361672e+01   3.424712e+02
  -1.360333e+02   2.282346e+02
  -1.128586e+02  -1.500451e+02
   1.363720e+02  -3.359328e+02
   3.748393e+02   7.395121e+01
   2.615730e+02   6.291505e+02
  -2.785309e+02   6.299442e+02
  -5.166519e+02   2.342864e+01
  -2.608009e+02  -3.851894e+02
   2.437791e+02  -2.263835e+02
   3.063033e+02   2.065340e+02
  -1.765529e+01   4.288692e+02
  -4.594985e+02   9.868583e+01
  -5.505897e+02  -3.794843e+02
  -1.505506e+02  -4.945165e+02
   2.986525e+02  -2.912787e+02
   5.223507e+02   5.326898e+01
   2.942636e+02   3.373919e+02
  -9.603893e+01   2.790442e+02
  -3.636525e+02   6.524314e+01
  -2.570831e+02  -1.786609e+02
   1.115113e+02  -1.159333e+02
   1.070790e+02   1.066948e+02
  -1.117116e+02   1.364841e+02
  -2.741321e+02  -5.195233e+01
  -1.386043e+02  -2.250189e+02
   1.775266e+02  -2.253036e+02
   3.056539e+02  -7.303351e+01
   1.929907e+02   8.515386e+01
  -7.444848e+00   2.252047e+02
  -2.146691e+02   2.704992e+02
  -3.204218e+02   1.657150e+02
  -2.196326e+02  -1.387989e+02
  -7.971833e+01  -3.677960e+02
   8.566876e+01  -3.429879e+02
   6.977211e+01  -1.435777e+02
   1.751653e+01  -3.505672e+01
   5.928308e+01  -6.802787e+01
   1.866287e+02  -7.869860e+01
   2.203132e+02   7.954555e+01
   1.166960e+02   2.339918e+02
  -7.591147e+01   2.252093e+02
  -1.921886e+02  -2.807754e+00
  -1.564658e+02  -1.869108e+02
   2.561028e+01  -2.293692e+02
   2.658587e+02  -8.766892e+01
   3.027397e+02   1.467880e+02
   1.614284e+02   3.293275e+02
  -9.166396e+01   2.603564e+02
  -1.783356e+02   1.008046e+02
  -1.249273e+02   2.303735e+01
  -1.084176e+02   3.904023e+01
  -2.127283e+02   6.544904e+01
  -3.631761e+02  -6.626482e+01
  -2.798521e+02  -2.868598e+02
   3.651573e+01  -3.801983e+02
   2.978557e+02  -3.538963e+02
   4.019341e+02  -1.613344e+02
   3.000513e+02   9.322794e+01
   5.614636e+01   2.745090e+02
  -1.022890e+02   2.257728e+02
  -6.001462e+01   5.098902e+01
   1.139596e+02  -9.738753e+01
   1.576184e+02   8.526814e+00
   4.780781e+01   1.605931e+02
  -1.425397e+02   1.356782e+02
  -1.410470e+02  -5.506113e+01
   3.923573e+01  -1.720718e+02
   1.596270e+02  -1.176244e+01
   1.383965e+02   2.109800e+02
  -3.957052e+01   3.096096e+02
  -2.112322e+02   1.731169e+02
  -3.125984e+02  -5.920078e+01
  -2.487420e+02  -2.343460e+02
  -8.907038e+01  -2.372429e+02
   1.083672e+02  -1.297046e+02
   1.644361e+02  -2.410046e+01
   4.709023e+01   1.847962e+01
  -4.801289e+01  -4.003011e+01
  -1.207106e+01  -1.132196e+02
   1.160084e+02  -6.680333e+01
   1.557673e+02   4.422183e+00
   5.562847e+01   6.350713e+01
  -7.062314e+01   1.147765e+01
  -4.389166e+01  -7.217046e+01
   1.186608e+02  -7.461090e+01
   2.620884e+02   5.187222e+00
   2.286986e+02   1.426046e+02
   4.161202e+01   2.362532e+02
  -1.810979e+02   2.084557e+02
  -2.522599e+02   1.042904e+02
  -1.288196e+02  -5.155543e+01
   3.295463e+01  -1.042019e+02
   7.800942e+01  -1.755781e+01
  -2.367162e+01   7.960194e+01
  -1.759451e+02   4.486099e+01
  -1.865739e+02  -8.689019e+01
  -5.276570e+01  -1.878594e+02
   8.135881e+01  -1.420188e+02
   1.314044e+02  -2.268072e+01
   5.499089e+01   3.385109e+01
  -3.037688e+01  -3.945654e+00
  -2.512495e+01  -7.822033e+01
   7.323648e+01  -9.532504e+01
   1.829535e+02  -2.509397e+01
   1.654637e+02   1.116811e+02
   2.269102e+00   1.883900e+02
  -1.476793e+02   1.376819e+02
  -1.885734e+02   8.726810e+00
  -4.814980e+01  -9.180229e+01
   4.589375e+01  -9.629406e+01
   7.559409e+01  -2.703648e+01
   1.023996e+01   2.149909e+01
  -2.503630e+01   1.181725e+01
   1.377715e+01  -1.455744e+01
   6.498688e+01   1.047562e+00
   8.588650e+01   7.308090e+01
   2.512141e+00   1.525712e+02
  -1.274662e+02   1.425319e+02
  -2.223981e+02   8.475753e+00
  -1.760063e+02  -1.402486e+02
  -3.803630e+01  -2.317242e+02
   9.467865e+01  -1.396867e+02
   1.173087e+02  -2.766263e+01
   6.688372e+01   4.658352e+01
   2.662698e+01   2.942553e+01
   4.940973e+01  -1.246814e+01
   7.432875e+01  -5.503802e+00
   3.569137e+01   4.746010e+01
  -3.863944e+01   9.024159e+01
  -9.556357e+01   4.818138e+01
  -8.744980e+01  -4.337205e+01
   1.561316e+01  -9.978303e+01
   1.316061e+02  -7.264015e+01
   1.701972e+02   5.438894e+01
   7.146266e+01   1.850789e+02
  -1.142472e+02   1.933534e+02
  -2.414907e+02   7.384722e+01
  -2.259373e+02  -8.729343e+01
  -1.047085e+02  -1.553493e+02
   2.644649e+01  -1.338594e+02
   8.186590e+01  -6.849023e+01
   7.118375e+01  -6.371137e+01
   5.710205e+01  -7.953317e+01
   8.280711e+01  -6.656452e+01
   1.151618e+02   1.932607e+01
   1.116181e+02   1.442363e+02
   1.725523e+01   1.914323e+02
  -9.591520e+01   1.462359e+02
  -1.520382e+02   8.516380e+00
  -1.138727e+02  -1.046051e+02
  -1.734896e+01  -1.449485e+02
   6.731018e+01  -8.343876e+01
   5.042150e+01   9.194399e+00
   4.251304e+00   4.317919e+01
  -1.268243e+01   3.000520e+01
   2.876767e+01   1.507122e+01
   7.339679e+01   2.533890e+01
   4.112145e+01   3.537871e+01
  -6.058075e+01   3.142425e+01
  -1.459116e+02  -1.996221e-01
  -1.277872e+02  -5.382812e+01
  -6.380875e+00  -8.523924e+01
   1.181887e+02  -6.728377e+01
   1.311505e+02  -1.002689e+01
   4.256684e+01   3.833193e+01
  -5.129717e+01   3.287946e+01
  -6.735963e+01  -1.877350e+01
  -8.122934e+00  -6.065156e+01
   4.838001e+01  -5.423309e+01
   6.072207e+01   3.371065e+00
   4.791960e+01   4.749795e+01
   3.850689e+01   3.745917e+01
   4.878741e+01  -1.369428e+00
   5.906019e+01  -7.762985e-01
   3.198604e+01   6.060801e+01
  -3.146869e+01   1.324415e+02
  -1.141642e+02   1.252036e+02
  -1.579141e+02   3.487478e+01
  -1.094848e+02  -8.219019e+01
  -1.655347e+00  -1.141593e+02
   7.826562e+01  -5.044385e+01
   5.633635e+01   1.132732e+01
  -5.392752e+01   1.845773e+01
  -1.245898e+02  -3.945365e+01
  -7.500642e+01  -9.364219e+01
   7.400840e+01  -1.004823e+02
   1.762970e+02  -4.240406e+01
   1.422510e+02   3.152660e+01
   3.333689e+01   7.662246e+01
  -5.453207e+01   5.801799e+01
  -3.978073e+01   3.648956e+00
   3.641317e+01  -2.421115e+01
   8.244996e+01   2.184646e+01
   3.449417e+01   1.043339e+02
  -7.522787e+01   1.451832e+02
  -1.496677e+02   5.539376e+01
  -1.112455e+02  -9.150849e+01
  -6.987817e+00  -1.738401e+02
   8.605871e+01  -1.303818e+02
   9.337520e+01   4.425103e+00
   5.633084e+01   1.074397e+02
  -1.028285e+01   1.005373e+02
  -4.288470e+01   1.433724e+01
  -4.748267e+01  -3.083816e+01
  -2.296338e+01  -7.055003e+00
  -2.833909e+00   1.662289e+01
  -1.869443e+01  -1.540907e+01
  -5.021097e+01  -7.877952e+01
  -4.027228e+01  -9.121173e+01
   4.402857e+01  -3.741643e+01
   1.203917e+02   4.239581e+01
   1.169623e+02   6.375922e+01
   1.601775e+01   4.724313e+01
  -7.601912e+01   1.892265e+01
  -7.518318e+01   5.169287e+00
  -1.195174e+01  -7.754923e+00
   3.345872e+01  -1.886015e+01
   1.373253e+01  -1.499092e+01
  -1.593274e+01   5.174553e+00
   3.273485e+00   7.834512e+00
   6.412456e+01   1.451253e+00
   8.590142e+01   2.035708e+01
   1.215252e+01   7.308775e+01
  -1.112963e+02   1.015747e+02
  -1.657816e+02   4.764957e+01
  -1.339013e+02  -5.453803e+01
  -2.621247e+01  -1.485159e+02
   7.030095e+01  -1.344276e+02
   1.013983e+02  -5.377605e+01
   7.385101e+01   1.863804e+01
   2.123441e+01   3.083154e+01
  -3.131448e+00   1.155305e+01
   1.062144e+01   6.383905e+00
   2.653236e+01   4.234369e+01
   1.646551e+01   8.065821e+01
  -2.602844e+01   5.959253e+01
  -7.018500e+01  -1.755485e+01
  -6.704698e+01  -9.790398e+01
  -4.690453e+00  -1.039169e+02
   7.307989e+01  -2.255960e+01
   9.405165e+01   6.173420e+01
   2.399771e+01   9.595373e+01
  -5.887356e+01   4.999517e+01
  -9.179610e+01  -8.916389e+00
  -3.725490e+01  -4.634554e+01
   2.935196e+01  -5.045873e+01
   3.060260e+01  -2.831078e+01
  -2.646425e+01   1.838737e+00
  -6.124998e+01   8.254061e+00
  -1.326995e+01  -2.308267e+01
   7.678576e+01  -6.356080e+01
   1.082794e+02  -4.757512e+01
   5.607148e+01   1.323550e+01
  -1.864770e+01   7.409160e+01
  -4.924684e+01   7.338207e+01
  -3.505891e+01   5.911563e+00
  -2.768073e+00  -4.786544e+01
   2.559190e+01  -3.988216e+01
   3.177477e+01   1.192113e+01
   2.310640e+01   5.062990e+01
  -2.646793e+00   3.320879e+01
  -2.947199e+01  -6.578658e+00
  -3.656704e+01  -2.266518e+01
  -1.800770e+01  -2.433196e+00
  -1.395881e+00   1.417290e+01
   5.028792e+00  -1.091599e+00
   1.235176e+00  -3.114848e+01
   1.191434e+01  -4.524716e+01
   2.722425e+01  -1.018222e+01
   3.284007e+01   3.747318e+01
   1.957698e+00   5.364972e+01
  -4.065645e+01   2.285291e+01
  -5.186132e+01  -3.640205e+01
  -1.586727e+01  -5.765469e+01
   5.165029e+01  -3.187481e+01
   7.830016e+01   1.405863e+01
   4.410508e+01   3.961351e+01
  -2.386998e+01   3.803518e+01
  -6.010624e+01   2.255069e+01
  -2.339949e+01   6.183497e+00
   2.922287e+01  -1.051731e-01
   3.192170e+01   8.082850e+00
  -2.708360e+01   2.415907e+01
  -7.719126e+01   1.235456e+01
