
 $NMID
 id='ANONYMOUS ', fmtdat='(2E16.6)'
 volume=1.0
 tramp=1.0
 $END
   3.943547e+03  -1.855535e+02
   2.388656e+03   2.211890e+03
  -6.361088e+02   2.511253e+03
  -1.808700e+03   6.609494e+02
  -7.692346e+02  -4.902046e+02
   4.777005e+02  -3.728382e+02
   8.233718e+02   2.411040e+02
   1.085317e+02   1.023590e+03
  -6.710898e+02   7.845973e+02
  -8.782877e+02  -7.030703e+01
  -4.682955e+02  -8.123494e+02
   2.361416e+02  -9.431632e+02
   6.892095e+02  -1.070635e+02
   4.220842e+02   6.806569e+02
  -2.488334e+02   6.764958e+02
  -5.459512e+02  -4.638372e+01
  -3.000455e+02  -6.478121e+02
   2.954005e+02  -6.629383e+02
   6.576128e+02  -8.694966e+01
   3.265470e+02   3.249042e+02
   7.662697e+01   4.361130e+02
  -2.070645e+02   2.517649e+02
  -1.958040e+02   5.327633e+00
   8.337287e+01  -9.367847e+01
   3.741701e+02   6.282299e+01
   2.475305e+02   4.611210e+02
  -4.315451e+02   4.397387e+02
  -7.094385e+02  -4.144634e+01
  -4.603978e+02  -4.873007e+02
   3.200498e+02  -4.664471e+02
   6.791252e+02  -9.736357e+00
   3.099429e+02   5.053640e+02
  -2.395217e+02   4.541844e+02
  -5.579700e+02   2.069339e+02
  -3.719414e+02  -1.913160e+02
  -8.508078e+01  -4.356498e+02
   1.806777e+02  -2.457103e+02
   1.627633e+02   1.458374e+02
  -1.475680e+02   4.169893e+02
  -4.466931e+02  -2.257147e+01
  -2.513052e+02  -6.433625e+02
   3.481187e+02  -6.115031e+02
   5.790679e+02   1.023467e+02
   3.184920e+02   5.192201e+02
  -2.922519e+02   2.403392e+02
  -3.920538e+02  -2.430692e+02
  -6.478386e-01  -5.078542e+02
   5.110442e+02  -1.037725e+02
   5.346477e+02   4.239837e+02
   1.567921e+02   5.658223e+02
  -3.479805e+02   3.183941e+02
  -5.751066e+02  -6.751011e+01
  -3.307353e+02  -3.918873e+02
   1.112026e+02  -3.667536e+02
   4.231373e+02  -5.939158e+01
   2.590596e+02   1.822257e+02
  -1.124737e+02   1.334260e+02
  -1.318463e+02  -1.129094e+02
   1.449851e+02  -2.031228e+02
   3.385022e+02   7.046746e+01
   1.523614e+02   2.983387e+02
  -1.703063e+02   2.477261e+02
  -3.159662e+02   6.249711e+01
  -1.868743e+02  -6.529032e+01
   2.702653e+01  -2.239979e+02
   2.080286e+02  -3.205192e+02
   3.207907e+02  -2.056596e+02
   2.725956e+02   1.200882e+02
   1.038556e+02   3.990293e+02
  -1.028561e+02   3.648149e+02
  -1.288811e+02   1.160762e+02
  -4.546374e+01  -5.482830e+00
  -3.622483e+01   6.005233e+01
  -1.822431e+02   1.146822e+02
  -2.476150e+02  -4.565041e+01
  -1.614793e+02  -2.317711e+02
   5.671129e+01  -2.539126e+02
   2.128542e+02   6.150883e+00
   1.919437e+02   2.131018e+02
  -1.782328e+01   2.723164e+02
  -2.743774e+02   1.144550e+02
  -3.477910e+02  -1.538558e+02
  -1.787062e+02  -3.334387e+02
   6.468325e+01  -3.000199e+02
   1.927479e+02  -1.232601e+02
   1.343885e+02  -1.067734e+01
   1.183916e+02  -3.956334e+01
   2.378606e+02  -5.818984e+01
   3.550696e+02   5.633567e+01
   3.282981e+02   2.494678e+02
   5.499242e+00   4.009224e+02
  -3.296294e+02   3.810126e+02
  -4.229296e+02   2.174356e+02
  -3.165281e+02  -8.238969e+01
  -4.390171e+01  -2.896990e+02
   1.182890e+02  -2.410915e+02
   7.840896e+01  -3.408130e+01
  -1.071315e+02   1.077501e+02
  -1.934611e+02  -8.370929e+00
  -6.354796e+01  -1.888239e+02
   1.347539e+02  -1.549127e+02
   1.699328e+02   7.615236e+01
  -6.770210e+00   1.731775e+02
  -1.731033e+02   4.485820e+01
  -1.432925e+02  -2.366586e+02
   4.386749e+01  -3.274563e+02
   2.276016e+02  -1.880783e+02
   3.169281e+02   5.417611e+01
   2.674360e+02   2.263370e+02
   8.019527e+01   2.531495e+02
  -1.091117e+02   1.436368e+02
  -1.640989e+02   2.288037e+01
  -5.525940e+01  -2.494692e+01
   6.105078e+01   3.154082e+01
   1.671902e+01   1.146868e+02
  -1.207655e+02   9.618058e+01
  -1.675786e+02   1.196630e-01
  -6.400249e+01  -7.740293e+01
   7.928058e+01  -1.563984e+01
   5.887090e+01   6.873288e+01
  -1.205451e+02   8.088944e+01
  -2.606976e+02   2.659691e+00
  -2.422932e+02  -1.222330e+02
  -5.549625e+01  -2.499305e+02
   1.904794e+02  -2.383621e+02
   2.690906e+02  -9.627026e+01
   1.521497e+02   4.861095e+01
  -4.179988e+01   1.077087e+02
  -8.314665e+01   2.454207e+01
   2.942291e+01  -9.641497e+01
   1.899928e+02  -5.953531e+01
   2.035543e+02   9.403150e+01
   7.144881e+01   1.930253e+02
  -9.464702e+01   1.473571e+02
  -1.326554e+02   2.829340e+01
  -6.475925e+01  -4.281810e+01
   2.857844e+01  -9.453226e-02
   2.827224e+01   7.406506e+01
  -6.471867e+01   1.025048e+02
  -1.868008e+02   2.498670e+01
  -1.808470e+02  -1.159345e+02
  -1.851017e+01  -1.984610e+02
   1.524766e+02  -1.577416e+02
   1.849364e+02  -4.008861e+00
   5.982427e+01   1.064097e+02
  -5.527234e+01   1.058977e+02
  -8.154697e+01   2.366718e+01
  -1.823887e+01  -1.778111e+01
   1.681204e+01  -1.703075e+01
  -1.365602e+01   8.345482e+00
  -6.547180e+01  -7.612655e+00
  -8.730349e+01  -7.957420e+01
  -1.067932e+01  -1.499624e+02
   1.160916e+02  -1.464263e+02
   2.256406e+02  -2.179090e+01
   1.931842e+02   1.257847e+02
   3.951689e+01   2.223300e+02
  -8.708008e+01   1.674522e+02
  -1.313009e+02   2.980799e+01
  -7.236832e+01  -4.895227e+01
  -2.676037e+01  -3.132202e+01
  -5.238159e+01   8.881770e+00
  -7.345295e+01   9.486984e+00
  -3.521846e+01  -4.726119e+01
   3.949021e+01  -8.138790e+01
   1.004090e+02  -5.167043e+01
   8.282861e+01   3.296067e+01
  -1.063064e+01   1.063313e+02
  -1.274553e+02   7.906182e+01
  -1.832907e+02  -4.655364e+01
  -8.500006e+01  -1.949750e+02
   9.717978e+01  -2.041435e+02
   2.391428e+02  -9.235218e+01
   2.473079e+02   8.979673e+01
   1.082998e+02   1.588701e+02
  -3.439952e+01   1.387234e+02
  -9.296021e+01   7.593949e+01
  -7.355496e+01   6.378479e+01
  -5.865538e+01   8.668010e+01
  -8.444683e+01   6.751464e+01
  -1.225038e+02  -1.949824e+01
  -1.077633e+02  -1.480882e+02
  -1.817801e+01  -2.060725e+02
   8.835581e+01  -1.594377e+02
   1.604134e+02  -1.694620e+01
   1.222124e+02   1.132729e+02
   2.039123e+01   1.432710e+02
  -6.463138e+01   8.759440e+01
  -5.424762e+01  -2.649762e-01
  -3.433079e+00  -4.119736e+01
   8.388686e+00  -3.125314e+01
  -3.544840e+01  -1.680472e+01
  -7.483192e+01  -1.927949e+01
  -4.239390e+01  -3.816437e+01
   5.830621e+01  -3.220182e+01
   1.462072e+02   1.313658e+00
   1.343404e+02   4.786388e+01
   1.418085e+01   8.928540e+01
  -1.164457e+02   7.509781e+01
  -1.332972e+02   1.040846e+01
  -4.859569e+01  -3.544744e+01
   5.362567e+01  -3.499879e+01
   6.968353e+01   1.718032e+01
   6.328001e+00   6.237899e+01
  -5.419498e+01   5.320147e+01
  -5.941591e+01  -5.252673e+00
  -4.428300e+01  -4.895613e+01
  -4.193672e+01  -4.016428e+01
  -5.723429e+01  -2.954915e+00
  -6.131498e+01   7.569929e-01
  -3.478125e+01  -6.163169e+01
   3.895899e+01  -1.346562e+02
   1.129887e+02  -1.333013e+02
   1.531026e+02  -3.217562e+01
   1.168588e+02   8.307001e+01
   8.080093e+00   1.180840e+02
  -8.384228e+01   5.513060e+01
  -5.699910e+01  -1.365634e+01
   5.410917e+01  -1.934748e+01
   1.318042e+02   4.121893e+01
   7.568844e+01   1.016824e+02
  -7.590109e+01   1.039650e+02
  -1.857836e+02   5.297241e+01
  -1.551063e+02  -3.100786e+01
  -3.306304e+01  -8.243569e+01
   5.676711e+01  -7.014536e+01
   4.269593e+01  -9.097483e+00
  -3.582272e+01   2.384345e+01
  -8.376590e+01  -2.240180e+01
  -3.177697e+01  -1.081974e+02
   7.697386e+01  -1.539169e+02
   1.601499e+02  -5.870264e+01
   1.121269e+02   9.214086e+01
   1.092251e+01   1.785356e+02
  -8.987934e+01   1.360528e+02
  -1.030159e+02  -5.647957e+00
  -5.511074e+01  -1.151170e+02
   5.392403e+00  -9.735777e+01
   3.861254e+01  -1.997622e+01
   4.955686e+01   2.848681e+01
   2.426065e+01   1.204250e+01
   2.518197e+00  -1.887699e+01
   1.886801e+01   1.480014e+01
   5.995324e+01   8.078651e+01
   4.250087e+01   1.049582e+02
  -4.117916e+01   4.338739e+01
  -1.235707e+02  -4.194367e+01
  -1.224270e+02  -5.734888e+01
  -1.668476e+01  -4.633597e+01
   8.449522e+01  -1.913775e+01
   8.276449e+01  -1.111889e+01
   9.652493e+00   6.570074e+00
  -3.654405e+01   2.078617e+01
  -1.105224e+01   1.802664e+01
   2.012227e+01  -2.959142e+00
  -5.680726e+00  -7.822635e+00
  -6.894841e+01  -5.568183e+00
  -8.303491e+01  -2.472043e+01
  -7.799328e+00  -7.572086e+01
   1.071999e+02  -1.081686e+02
   1.738286e+02  -5.651999e+01
   1.321844e+02   6.472264e+01
   2.050217e+01   1.467223e+02
  -7.953816e+01   1.438542e+02
  -1.048279e+02   5.675949e+01
  -7.365071e+01  -2.567057e+01
  -2.250832e+01  -3.432903e+01
   5.597882e+00  -8.314511e+00
  -8.068680e+00  -5.224838e+00
  -3.052456e+01  -4.370165e+01
  -2.273715e+01  -8.300624e+01
   2.769028e+01  -6.421593e+01
   7.588571e+01   2.012894e+01
   6.982513e+01   9.989482e+01
   7.341425e+00   1.023958e+02
  -7.420825e+01   1.580074e+01
  -9.786775e+01  -7.444136e+01
  -2.642803e+01  -9.284288e+01
   6.597815e+01  -5.175509e+01
   9.072015e+01   1.022312e+01
   3.728349e+01   4.639048e+01
  -2.946555e+01   4.735721e+01
  -3.182204e+01   2.853341e+01
   2.961637e+01  -3.484509e-01
   6.290710e+01  -5.131776e+00
   1.412421e+01   2.343767e+01
  -7.598053e+01   6.093799e+01
  -1.040904e+02   5.301291e+01
  -5.857986e+01  -1.043582e+01
   1.657046e+01  -7.210265e+01
   5.038889e+01  -7.260863e+01
   3.541314e+01  -4.190469e+00
   6.591371e-01   4.975088e+01
  -2.526802e+01   3.763462e+01
  -3.354224e+01  -1.662780e+01
  -2.672587e+01  -5.070173e+01
   3.653402e+00  -3.297949e+01
   3.056827e+01   6.838157e+00
   3.650971e+01   1.964115e+01
   1.873229e+01   7.652347e-02
   1.385704e+00  -1.421491e+01
  -6.376298e+00   2.475566e+00
  -5.839116e+00   3.410401e+01
  -1.302705e+01   4.176640e+01
  -3.070040e+01   4.703732e+00
  -2.609015e+01  -3.968272e+01
  -1.284851e+00  -6.192049e+01
   4.222075e+01  -1.732633e+01
   5.284146e+01   3.625490e+01
   1.299492e+01   5.817476e+01
  -5.234737e+01   3.209499e+01
  -8.504844e+01  -1.318796e+01
  -4.672329e+01  -3.896053e+01
   2.619881e+01  -3.913812e+01
   5.903450e+01  -2.142955e+01
   2.398851e+01  -5.942141e+00
  -3.390658e+01  -1.042808e+00
  -3.509938e+01  -1.339136e+01
   2.861141e+01  -3.168856e+01
   7.945760e+01  -1.768593e+01
