
 $NMID
 id='ANONYMOUS ', fmtdat='(2E16.6)'
 volume=1.0
 tramp=1.0
 $END
   4.445563e+03  -3.181560e+02
   2.612973e+03   3.001565e+03
  -6.857229e+02   2.976588e+03
  -2.160582e+03   7.166402e+02
  -1.046032e+03  -6.305460e+02
   6.987851e+02  -6.801895e+02
   9.216350e+02   5.963043e+02
  -9.810407e+01   1.320299e+03
  -9.540528e+02   8.242997e+02
  -9.491314e+02  -1.284867e+02
  -4.830456e+02  -9.500620e+02
   3.181930e+02  -8.667847e+02
   6.175029e+02  -9.343681e+01
   3.847561e+02   7.994898e+02
  -2.656225e+02   8.137047e+02
  -6.461739e+02   2.525998e+01
  -2.119308e+02  -7.454202e+02
   4.036089e+02  -5.484763e+02
   5.541091e+02   1.186197e+00
   4.007242e+02   3.637430e+02
  -4.423528e+01   4.566400e+02
  -2.810307e+02   3.005944e+02
  -2.517070e+02  -1.987272e+01
   1.178973e+02  -1.186595e+02
   4.999791e+02   2.195256e+01
   2.006880e+02   3.749520e+02
  -4.933989e+02   3.993621e+02
  -9.426386e+02   1.034775e+01
  -4.569175e+02  -6.501647e+02
   4.226162e+02  -5.103716e+02
   8.019386e+02   1.789696e+01
   3.608387e+02   4.577396e+02
  -2.666840e+02   5.951656e+02
  -6.013408e+02   1.965194e+02
  -4.358771e+02  -2.610628e+02
  -3.552767e+01  -5.280233e+02
   2.607060e+02  -2.813716e+02
   1.700744e+02   2.471614e+02
  -1.700758e+02   4.807976e+02
  -4.744803e+02   8.454693e+01
  -2.371004e+02  -6.230439e+02
   3.678979e+02  -7.123706e+02
   6.327023e+02   4.106701e+01
   2.834857e+02   6.388316e+02
  -2.610575e+02   3.635447e+02
  -5.010529e+02  -3.771862e+02
   1.002757e+02  -5.820461e+02
   5.868750e+02  -1.884051e+02
   5.754121e+02   4.075818e+02
   1.548251e+02   6.098219e+02
  -3.961967e+02   3.691856e+02
  -6.465547e+02  -6.868676e+01
  -3.388151e+02  -3.730600e+02
   2.054055e+02  -4.251150e+02
   4.701871e+02  -1.470323e+01
   2.174067e+02   2.186373e+02
  -1.270995e+02   9.059660e+01
  -1.589869e+02  -2.061410e+02
   2.019959e+02  -2.097291e+02
   3.691095e+02   7.810763e+01
   1.424187e+02   3.164295e+02
  -2.119282e+02   2.694369e+02
  -3.157292e+02   6.010149e+01
  -1.941893e+02  -9.967734e+01
   2.499741e+01  -2.314453e+02
   2.017540e+02  -3.053859e+02
   3.417792e+02  -2.479688e+02
   3.180475e+02   1.448824e+02
   7.935607e+01   4.419321e+02
  -1.298751e+02   3.992338e+02
  -1.657377e+02   7.290871e+01
   4.453322e+00  -3.327790e+01
  -1.704885e+01   8.620244e+01
  -2.022828e+02   1.409056e+02
  -3.053112e+02  -5.513570e+01
  -1.790832e+02  -2.674253e+02
   5.866062e+01  -2.539436e+02
   2.111024e+02  -1.822754e+01
   2.035819e+02   2.520956e+02
  -8.945894e+00   2.879605e+02
  -2.509218e+02   1.346506e+02
  -3.710263e+02  -1.644478e+02
  -1.721934e+02  -3.632770e+02
   1.147613e+02  -2.891408e+02
   2.497399e+02  -1.229519e+02
   1.532603e+02   4.106153e+00
   8.030376e+01  -3.170857e+01
   2.105585e+02  -7.117309e+01
   4.220636e+02   2.360179e+01
   3.461964e+02   2.676164e+02
   1.040435e+01   4.400714e+02
  -3.476221e+02   4.349529e+02
  -5.175201e+02   2.174933e+02
  -3.449066e+02  -1.082467e+02
  -5.482453e+01  -3.062041e+02
   1.256893e+02  -2.620434e+02
   8.220763e+01  -3.731758e+01
  -1.246933e+02   9.173614e+01
  -2.094427e+02  -6.815209e-01
  -5.127194e+01  -1.915820e+02
   1.739002e+02  -1.811724e+02
   1.820724e+02   7.424484e+01
  -3.116697e+01   1.982128e+02
  -1.994415e+02   3.356322e+01
  -1.696984e+02  -2.328615e+02
   2.518268e+01  -3.319632e+02
   2.166565e+02  -1.781928e+02
   3.043581e+02   5.985449e+01
   2.667671e+02   2.273474e+02
   8.863966e+01   2.361737e+02
  -1.102803e+02   1.544963e+02
  -1.765265e+02   2.559558e+01
  -6.335371e+01  -3.724097e+01
   7.216651e+01   3.861146e+01
   3.328972e+01   1.219395e+02
  -1.252569e+02   1.061487e+02
  -1.839319e+02  -1.755587e+01
  -5.269963e+01  -6.699769e+01
   6.994485e+01  -3.054007e+01
   5.972681e+01   6.746794e+01
  -1.067541e+02   8.441977e+01
  -2.851622e+02  -1.816142e+00
  -2.651447e+02  -1.332059e+02
  -4.554253e+01  -2.514944e+02
   1.882444e+02  -2.674388e+02
   2.875454e+02  -1.258465e+02
   1.759751e+02   5.901179e+01
  -1.040044e+01   1.076544e+02
  -1.058306e+02   6.947513e+00
   2.614791e+01  -1.021905e+02
   1.780977e+02  -7.918162e+01
   2.137329e+02   8.834668e+01
   7.320831e+01   2.104584e+02
  -1.003615e+02   1.632981e+02
  -1.389319e+02   2.917137e+01
  -8.017022e+01  -4.038816e+01
   2.244482e+01  -4.609706e+00
   3.975231e+01   6.722054e+01
  -6.882878e+01   1.034204e+02
  -1.833200e+02   2.899995e+01
  -1.822767e+02  -1.213543e+02
  -2.892574e+01  -2.163769e+02
   1.623817e+02  -1.534362e+02
   1.907664e+02   1.320779e+01
   6.487567e+01   1.150593e+02
  -6.475629e+01   1.248319e+02
  -8.635644e+01   3.824358e+01
  -2.324360e+01  -3.011549e+01
   1.580442e+01  -2.704974e+01
  -1.153291e+01   4.591998e+00
  -6.248665e+01  -8.148173e+00
  -8.005279e+01  -8.238386e+01
  -1.419847e+01  -1.480490e+02
   1.133510e+02  -1.582584e+02
   2.271296e+02  -2.965854e+01
   2.049458e+02   1.414757e+02
   3.700670e+01   2.292781e+02
  -1.109192e+02   1.671954e+02
  -1.336054e+02   2.555618e+01
  -6.448843e+01  -6.024439e+01
  -2.881805e+01  -3.760860e+01
  -4.976481e+01   1.114718e+01
  -7.175745e+01   1.977251e+00
  -3.873413e+01  -4.027590e+01
   3.818890e+01  -7.978088e+01
   9.054537e+01  -5.429323e+01
   7.358315e+01   2.697988e+01
  -5.546246e+00   1.054197e+02
  -1.283560e+02   7.665964e+01
  -1.886550e+02  -3.444236e+01
  -9.176467e+01  -1.770714e+02
   9.082654e+01  -2.333488e+02
   2.554443e+02  -1.151248e+02
   2.440394e+02   6.849763e+01
   1.146059e+02   1.659190e+02
  -4.274702e+01   1.453518e+02
  -9.099000e+01   7.385347e+01
  -8.015791e+01   7.188984e+01
  -6.451383e+01   8.816478e+01
  -8.523402e+01   7.236821e+01
  -1.305109e+02  -2.319143e+01
  -1.176017e+02  -1.482740e+02
  -3.240844e+01  -2.263892e+02
   7.970554e+01  -1.636308e+02
   1.846509e+02  -3.100711e+01
   1.311343e+02   1.164114e+02
   2.482721e+01   1.533473e+02
  -5.974773e+01   8.406655e+01
  -5.650601e+01   6.077629e+00
  -6.430061e+00  -3.998193e+01
   5.767131e+00  -3.840777e+01
  -3.595092e+01  -1.843388e+01
  -7.239751e+01  -2.076021e+01
  -4.410373e+01  -3.230605e+01
   6.185430e+01  -3.695336e+01
   1.502675e+02  -1.251625e+01
   1.362926e+02   4.330996e+01
   1.860187e+01   8.671755e+01
  -1.128284e+02   7.249601e+01
  -1.406489e+02   1.547193e+01
  -5.065937e+01  -3.678960e+01
   5.559801e+01  -3.362883e+01
   7.189594e+01   1.721803e+01
   8.827727e+00   6.458690e+01
  -5.416544e+01   5.243193e+01
  -5.968569e+01   1.307204e+00
  -3.651689e+01  -4.886738e+01
  -4.150938e+01  -4.086692e+01
  -6.346437e+01  -1.914040e+00
  -6.442421e+01   1.759049e+00
  -3.416883e+01  -6.652069e+01
   2.847398e+01  -1.391051e+02
   1.026800e+02  -1.361395e+02
   1.512389e+02  -3.682666e+01
   1.158242e+02   8.759583e+01
   3.342549e+00   1.195268e+02
  -7.522256e+01   6.050971e+01
  -5.552966e+01  -1.456321e+01
   6.019159e+01  -1.632616e+01
   1.317659e+02   4.469989e+01
   7.485234e+01   1.041039e+02
  -7.418108e+01   1.115171e+02
  -1.816286e+02   3.351306e+01
  -1.601842e+02  -4.055218e+01
  -3.996638e+01  -8.688024e+01
   6.106395e+01  -7.343894e+01
   4.835046e+01  -1.275210e+01
  -3.676254e+01   2.649232e+01
  -8.850039e+01  -2.399196e+01
  -3.278583e+01  -1.132032e+02
   9.768573e+01  -1.519070e+02
   1.706253e+02  -5.403328e+01
   1.276291e+02   9.188459e+01
   1.494892e+01   1.967925e+02
  -7.938724e+01   1.343711e+02
  -1.039846e+02  -3.638240e+00
  -6.432716e+01  -1.079491e+02
  -5.631630e+00  -1.016540e+02
   4.353225e+01  -2.368843e+01
   5.190603e+01   2.813455e+01
   2.822433e+01   7.200343e+00
   4.348844e+00  -2.063412e+01
   2.067311e+01   1.054717e+01
   4.935450e+01   8.018086e+01
   4.803666e+01   1.036618e+02
  -4.357056e+01   4.324458e+01
  -1.376983e+02  -2.929427e+01
  -1.247200e+02  -6.019998e+01
  -1.655118e+01  -4.499075e+01
   8.163983e+01  -1.935222e+01
   7.978813e+01  -9.265253e+00
   9.421498e+00   5.526284e+00
  -3.835695e+01   2.362671e+01
  -1.407702e+01   2.007524e+01
   2.249507e+01  -2.211912e+00
  -5.190881e+00  -9.151945e+00
  -7.402882e+01  -2.909745e+00
  -8.332343e+01  -1.986601e+01
   6.203262e-01  -7.575646e+01
   1.123237e+02  -1.103988e+02
   1.829078e+02  -4.250368e+01
   1.391451e+02   6.818788e+01
   1.596857e+01   1.571779e+02
  -6.933988e+01   1.422311e+02
  -1.113520e+02   4.644727e+01
  -7.763434e+01  -2.112752e+01
  -2.108868e+01  -3.145886e+01
   2.312969e+00  -5.957715e+00
  -1.099690e+01  -1.607947e+00
  -2.987400e+01  -4.527788e+01
  -2.154149e+01  -8.589929e+01
   2.792395e+01  -7.011336e+01
   7.909095e+01   2.065227e+01
   7.192176e+01   9.081088e+01
  -4.493892e+00   1.119422e+02
  -8.033849e+01   2.732099e+01
  -9.638039e+01  -7.693523e+01
  -3.367306e+01  -9.759570e+01
   6.435405e+01  -5.256727e+01
   9.139179e+01   1.456442e+01
   3.508175e+01   4.539461e+01
  -2.904331e+01   4.634751e+01
  -2.510638e+01   2.298600e+01
   3.422220e+01   3.922847e-01
   6.704322e+01  -7.044481e+00
   1.315917e+01   2.268589e+01
  -7.308731e+01   6.086685e+01
  -1.113579e+02   5.728977e+01
  -5.685373e+01  -1.182993e+01
   1.862399e+01  -7.754368e+01
   4.388913e+01  -8.154089e+01
   3.404475e+01  -2.489307e+00
   1.783226e+00   5.668073e+01
  -2.683964e+01   3.943439e+01
  -3.307898e+01  -2.334145e+01
  -2.501528e+01  -5.037666e+01
   2.940868e+00  -2.996403e+01
   3.294779e+01   1.082431e+01
   3.742094e+01   2.052002e+01
   2.028306e+01  -1.834621e-01
  -2.235159e+00  -1.158986e+01
  -8.468883e+00   5.792252e+00
  -9.279622e+00   3.572826e+01
  -2.063107e+01   3.834319e+01
  -3.362681e+01   2.358261e+00
  -2.628072e+01  -4.609191e+01
   5.226591e+00  -5.671294e+01
   4.218098e+01  -1.678819e+01
   5.405469e+01   3.772189e+01
   8.706538e+00   6.439238e+01
  -5.092209e+01   2.998931e+01
  -8.145968e+01  -1.967985e+01
  -4.702158e+01  -4.330951e+01
   2.646471e+01  -3.936594e+01
   6.402695e+01  -1.905987e+01
   2.322323e+01  -4.540806e+00
  -3.851870e+01  -3.768853e+00
  -3.658499e+01  -1.693952e+01
   3.184657e+01  -3.066248e+01
   9.135790e+01  -2.358521e+01
