
 $NMID
 id='ANONYMOUS ', fmtdat='(2E16.6)'
 volume=1.0
 tramp=1.0
 $END
   3.588414e+03  -3.152548e+02
   2.391695e+03   1.621412e+03
  -1.374074e+01   2.476615e+03
  -1.596115e+03   1.377614e+03
  -1.144156e+03   4.200370e+01
   2.569150e+01  -4.051298e+02
   4.735572e+02   1.669924e+02
   1.896885e+01   7.306540e+02
  -5.235528e+02   7.069136e+02
  -7.989695e+02   6.286038e+01
  -5.459243e+02  -6.161511e+02
   9.672292e+01  -8.203257e+02
   4.175695e+02  -1.637166e+02
   2.797155e+02   5.756741e+02
  -1.971296e+02   6.001466e+02
  -4.852324e+02   7.491537e+01
  -2.990733e+02  -5.423412e+02
   2.083943e+02  -6.899524e+02
   4.779982e+02  -1.964357e+02
   4.372516e+02   2.969885e+02
   9.244356e+01   3.540730e+02
  -1.406417e+02   2.617201e+02
  -9.859805e+01   1.099375e+02
   1.494591e+02   6.224040e+01
   2.781771e+02   2.037419e+02
   1.071041e+02   3.764715e+02
  -4.312943e+02   2.736783e+02
  -6.774490e+02  -1.109261e+02
  -2.557897e+02  -4.125367e+02
   3.374632e+02  -2.442335e+02
   5.854532e+02   7.693637e+01
   2.448597e+02   3.738572e+02
  -2.520115e+02   3.780854e+02
  -4.932261e+02   1.326349e+02
  -3.576468e+02  -1.724180e+02
  -8.801459e+01  -3.806116e+02
   9.174416e+01  -2.114142e+02
   4.270339e+01   6.732321e+01
  -1.753672e+02   2.725411e+02
  -2.237863e+02  -2.949804e+01
  -1.231076e+02  -5.959882e+02
   3.222362e+02  -5.600019e+02
   3.751488e+02   3.567747e+01
   1.520324e+02   3.004700e+02
  -1.779216e+02   1.948127e+02
  -2.301616e+02  -2.309384e+02
   8.340458e+01  -4.186802e+02
   4.663538e+02  -4.806798e+01
   4.932354e+02   3.795815e+02
   1.342123e+02   5.447893e+02
  -3.004544e+02   2.925367e+02
  -5.746607e+02  -7.155442e+01
  -3.675732e+02  -3.027272e+02
   8.369125e+01  -3.058842e+02
   3.710894e+02  -6.374372e+01
   2.497672e+02   9.450020e+01
  -5.013588e+01   5.549490e+01
  -6.337618e+01  -6.174458e+01
   1.006346e+02  -1.149717e+02
   2.846017e+02   3.262479e+01
   1.383050e+02   2.476599e+02
  -1.646391e+02   2.467722e+02
  -3.329385e+02   1.141398e+02
  -2.457161e+02  -1.071346e+02
   4.498803e+01  -2.883268e+02
   2.835506e+02  -3.303573e+02
   3.673863e+02  -1.722507e+02
   2.466624e+02   1.542401e+02
   4.442044e+01   3.779075e+02
  -3.743414e+01   3.397541e+02
  -6.279318e+01   1.668389e+02
  -1.825524e+01   5.948102e+01
  -8.866119e+01   1.014989e+02
  -2.094565e+02   7.480423e+01
  -2.125915e+02  -1.078869e+02
  -1.067156e+02  -2.615292e+02
   1.031250e+02  -2.306399e+02
   2.093651e+02   1.676563e+01
   1.367250e+02   2.384916e+02
  -5.020916e+01   2.475297e+02
  -2.311304e+02   7.506772e+01
  -3.333238e+02  -1.795364e+02
  -1.816996e+02  -3.075678e+02
   7.664207e+01  -2.701760e+02
   1.998111e+02  -1.590762e+02
   1.499808e+02  -6.565518e+01
   1.390913e+02  -4.680347e+01
   2.634108e+02  -3.558211e+01
   3.941708e+02   8.415448e+01
   3.146689e+02   2.924073e+02
  -3.543221e+01   4.497153e+02
  -3.406837e+02   3.943561e+02
  -4.853353e+02   1.613544e+02
  -3.015026e+02  -1.122640e+02
  -1.099504e+01  -2.663291e+02
   1.015560e+02  -2.016953e+02
   4.330518e+01  -3.827606e+01
  -1.211385e+02   6.853405e+01
  -1.553981e+02  -2.104299e+01
  -1.328277e+01  -1.711160e+02
   1.420244e+02  -1.212600e+02
   1.192482e+02   6.582734e+01
  -3.841457e+01   1.489226e+02
  -1.727869e+02   1.732710e+01
  -1.474821e+02  -2.387528e+02
   4.593153e+01  -3.536239e+02
   2.419679e+02  -2.191684e+02
   3.384572e+02   6.396688e+01
   2.644333e+02   2.630216e+02
   7.434033e+01   2.592490e+02
  -1.217106e+02   1.425042e+02
  -1.564311e+02   1.348391e+00
  -3.665008e+01  -1.766034e+01
   5.762541e+01   6.023309e+01
   4.534992e+00   1.179453e+02
  -1.244679e+02   7.239512e+01
  -1.547793e+02  -3.216933e+01
  -4.085846e+01  -5.424921e+01
   7.464443e+01   7.988972e+00
   4.117491e+01   8.399103e+01
  -1.416526e+02   8.278115e+01
  -2.823268e+02  -2.240147e+01
  -2.647918e+02  -1.658271e+02
  -4.484822e+01  -2.558817e+02
   2.065969e+02  -2.484677e+02
   2.592180e+02  -8.921135e+01
   1.398765e+02   4.532288e+01
  -2.878103e+01   9.252928e+01
  -7.306147e+01  -9.006381e+00
   4.735044e+01  -8.416137e+01
   1.836631e+02  -3.658298e+01
   1.874202e+02   1.087065e+02
   6.234484e+01   1.989441e+02
  -9.095200e+01   1.509591e+02
  -1.344182e+02   1.916934e+01
  -4.370645e+01  -3.548166e+01
   3.580913e+01   2.194750e+01
   1.715097e+01   1.038552e+02
  -8.978156e+01   1.178554e+02
  -2.052372e+02   1.511701e+01
  -1.793103e+02  -1.316396e+02
  -1.786776e+01  -2.286182e+02
   1.592837e+02  -1.586596e+02
   1.603130e+02   2.006574e+00
   5.402212e+01   9.997956e+01
  -5.973389e+01   1.014130e+02
  -7.488364e+01   2.367951e+01
  -5.080438e+00  -2.379915e+01
   3.286427e+01  -1.322316e+01
  -6.730239e+00   2.102897e+01
  -8.211548e+01  -1.258520e+00
  -9.846100e+01  -8.488132e+01
  -1.368674e+01  -1.732404e+02
   1.427280e+02  -1.445985e+02
   2.301588e+02  -1.085344e+00
   2.097239e+02   1.597336e+02
   3.207500e+01   2.338072e+02
  -1.079866e+02   1.496324e+02
  -1.393449e+02   2.673933e+01
  -7.275400e+01  -4.707394e+01
  -3.324555e+01  -3.586990e+01
  -5.346600e+01   1.462749e+01
  -8.445896e+01   2.394164e+00
  -4.972795e+01  -5.787746e+01
   4.805338e+01  -9.975663e+01
   1.199639e+02  -6.910580e+01
   1.008253e+02   4.134633e+01
  -1.653067e+01   1.297092e+02
  -1.517459e+02   8.947377e+01
  -2.012212e+02  -6.880042e+01
  -8.174244e+01  -2.156607e+02
   1.359215e+02  -2.026975e+02
   2.725050e+02  -8.949798e+01
   2.440837e+02   9.644515e+01
   1.058311e+02   1.749012e+02
  -3.774257e+01   1.396941e+02
  -9.455502e+01   8.322967e+01
  -7.520594e+01   6.933548e+01
  -5.890490e+01   9.218125e+01
  -9.330830e+01   7.119520e+01
  -1.323659e+02  -1.991155e+01
  -1.186352e+02  -1.608919e+02
  -2.343152e+01  -2.367960e+02
   1.126936e+02  -1.636492e+02
   1.638075e+02  -4.342130e+00
   1.271141e+02   1.276871e+02
   1.063998e+01   1.607448e+02
  -7.526796e+01   7.815717e+01
  -6.075712e+01  -1.219544e+01
   4.182009e+00  -4.997854e+01
   2.422177e+01  -3.924014e+01
  -2.661183e+01  -1.136861e+01
  -8.348658e+01  -2.123507e+01
  -4.734229e+01  -3.957307e+01
   6.974133e+01  -3.924010e+01
   1.648715e+02   1.052334e+01
   1.419965e+02   6.085892e+01
   5.004968e+00   9.662606e+01
  -1.316818e+02   6.757711e+01
  -1.440002e+02   1.154866e+00
  -4.510184e+01  -4.616935e+01
   6.562700e+01  -4.202131e+01
   7.750054e+01   1.916189e+01
   1.350118e+01   7.453295e+01
  -5.069029e+01   6.138200e+01
  -6.917015e+01   8.393526e-01
  -5.231386e+01  -5.384405e+01
  -4.349826e+01  -4.360298e+01
  -6.073599e+01   2.609399e-01
  -6.265731e+01  -5.931792e+00
  -3.997011e+01  -7.503222e+01
   3.511833e+01  -1.525954e+02
   1.218183e+02  -1.389319e+02
   1.703619e+02  -2.664394e+01
   1.270699e+02   9.709532e+01
  -3.133763e+00   1.325280e+02
  -8.444429e+01   6.352780e+01
  -6.111805e+01  -1.147036e+01
   5.818197e+01  -1.739459e+01
   1.253033e+02   4.277913e+01
   7.380365e+01   1.095192e+02
  -8.792090e+01   1.139284e+02
  -1.855562e+02   4.088307e+01
  -1.564820e+02  -4.370606e+01
  -2.784982e+01  -7.967175e+01
   6.253270e+01  -6.069671e+01
   5.298708e+01  -2.446131e+00
  -4.100185e+01   2.901969e+01
  -9.262752e+01  -2.184296e+01
  -3.959223e+01  -1.157580e+02
   7.936432e+01  -1.534361e+02
   1.615869e+02  -6.667265e+01
   1.295474e+02   9.645285e+01
   1.426445e+01   1.986195e+02
  -9.419860e+01   1.405760e+02
  -1.010587e+02  -1.541207e+01
  -5.498124e+01  -1.242298e+02
   8.819925e+00  -1.004676e+02
   5.007673e+01  -1.659036e+01
   4.537591e+01   3.298003e+01
   2.078013e+01   5.986720e+00
   5.266144e+00  -1.596454e+01
   2.767163e+01   2.026307e+01
   5.325098e+01   8.875299e+01
   3.033604e+01   1.016502e+02
  -5.396691e+01   4.026982e+01
  -1.381252e+02  -3.903357e+01
  -1.256947e+02  -7.246425e+01
  -2.004780e+01  -5.344298e+01
   8.292174e+01  -2.733407e+01
   8.837142e+01  -5.837339e+00
   1.617763e+01   1.134297e+01
  -3.407652e+01   2.124809e+01
  -1.666758e+01   1.387545e+01
   1.624220e+01  -2.569432e+00
  -4.463365e+00  -6.285742e+00
  -6.811692e+01  -1.761354e+00
  -9.440494e+01  -2.273444e+01
  -1.718539e+01  -8.037186e+01
   1.110578e+02  -1.097501e+02
   1.841433e+02  -6.864625e+01
   1.511003e+02   6.076550e+01
   2.454892e+01   1.560823e+02
  -8.131947e+01   1.525337e+02
  -1.151778e+02   6.138872e+01
  -8.080686e+01  -1.940063e+01
  -2.414519e+01  -3.720217e+01
  -9.533849e-01  -1.231178e+01
  -1.302193e+01  -7.894104e+00
  -3.025902e+01  -4.960792e+01
  -1.535189e+01  -8.803950e+01
   2.983267e+01  -7.187350e+01
   8.287702e+01   1.866115e+01
   7.400740e+01   1.029762e+02
   7.431670e+00   1.024195e+02
  -7.903608e+01   3.193315e+01
  -1.042359e+02  -6.790438e+01
  -3.705836e+01  -1.030490e+02
   6.934349e+01  -6.134060e+01
   1.001009e+02   8.786401e+00
   4.436755e+01   5.566970e+01
  -3.446250e+01   5.975829e+01
  -3.727772e+01   2.504140e+01
   2.809935e+01  -4.652850e+00
   6.710825e+01  -8.743216e+00
   1.856763e+01   2.627311e+01
  -8.016979e+01   6.292409e+01
  -1.190903e+02   5.691070e+01
  -6.889985e+01  -1.858882e+01
   1.806688e+01  -8.589457e+01
   5.701369e+01  -8.261877e+01
   4.034651e+01  -7.084938e+00
   4.925496e+00   5.469798e+01
  -2.266894e+01   4.400890e+01
  -3.942193e+01  -1.291374e+01
  -2.917701e+01  -5.381914e+01
   2.113429e+00  -3.768931e+01
   3.458121e+01   6.398429e+00
   3.849060e+01   2.446166e+01
   2.110230e+01   4.285710e+00
  -3.000410e+00  -1.706488e+01
  -6.526898e+00  -3.702149e+00
   4.548724e+00   3.040115e+01
  -4.284913e+00   5.378239e+01
  -2.862644e+01   1.963392e+01
  -3.566593e+01  -4.061280e+01
  -7.104152e+00  -6.115973e+01
   4.038551e+01  -2.329281e+01
   6.304823e+01   3.497063e+01
   1.755092e+01   6.292016e+01
  -5.418189e+01   3.225710e+01
  -9.064150e+01  -1.302779e+01
  -4.915114e+01  -4.376259e+01
   2.955412e+01  -4.558602e+01
   6.260114e+01  -2.555217e+01
   2.833408e+01  -6.941437e+00
  -3.186289e+01   1.181681e+00
  -3.494539e+01  -6.290671e+00
   2.825596e+01  -2.925918e+01
   8.427093e+01  -2.009424e+01
