
 $NMID
 id='ANONYMOUS ', fmtdat='(2E16.6)'
 volume=1.0
 tramp=1.0
 $END
   4.522549e+03   1.881663e+02
   2.225568e+03   2.747882e+03
  -9.544269e+02   2.554166e+03
  -2.301972e+03   1.253239e+03
  -8.815501e+02  -6.492040e+02
   4.872704e+02  -7.985108e+02
   8.726740e+02   3.621467e+02
   1.028793e+00   1.075033e+03
  -8.643498e+02   9.115147e+02
  -9.446839e+02  -3.673641e+01
  -3.955915e+02  -8.620520e+02
   2.356910e+02  -8.582574e+02
   6.398102e+02  -1.292814e+02
   3.608104e+02   6.821345e+02
  -3.108439e+02   7.972408e+02
  -6.553367e+02  -9.389466e+00
  -3.027050e+02  -6.798132e+02
   2.953890e+02  -7.059360e+02
   5.456720e+02  -8.418743e+01
   3.769681e+02   3.802817e+02
   1.454521e+01   4.618316e+02
  -2.735870e+02   2.553413e+02
  -2.061913e+02   4.568645e+01
   1.118543e+02  -4.227969e+01
   4.359989e+02   1.648786e+02
   2.021550e+02   4.784925e+02
  -3.809118e+02   4.218389e+02
  -8.757248e+02  -3.099350e+01
  -3.928776e+02  -5.542799e+02
   3.451511e+02  -5.134556e+02
   6.847615e+02   7.478795e+01
   3.192603e+02   5.083028e+02
  -2.741727e+02   5.394144e+02
  -5.589851e+02   1.568825e+02
  -4.192146e+02  -2.075450e+02
  -1.074202e+02  -4.674220e+02
   2.200815e+02  -3.349456e+02
   1.382053e+02   2.061109e+02
  -1.652983e+02   4.245251e+02
  -4.363479e+02  -9.740087e+00
  -2.563976e+02  -6.407785e+02
   3.314265e+02  -6.802178e+02
   5.778798e+02  -3.837806e+01
   2.699998e+02   6.079155e+02
  -2.783114e+02   3.686994e+02
  -3.425757e+02  -2.830311e+02
   6.136317e+01  -5.308845e+02
   5.622195e+02  -1.210767e+02
   5.816947e+02   4.304838e+02
   1.217044e+02   5.676241e+02
  -3.820259e+02   3.457685e+02
  -6.814594e+02  -7.559003e+01
  -4.027709e+02  -4.094615e+02
   1.938165e+02  -3.528400e+02
   4.717384e+02  -8.532976e+01
   2.412056e+02   1.851164e+02
  -1.311755e+02   1.083986e+02
  -1.364608e+02  -1.339061e+02
   1.693558e+02  -1.637833e+02
   3.431393e+02   6.292125e+01
   1.535238e+02   3.051625e+02
  -1.993118e+02   2.609644e+02
  -3.478068e+02   1.028211e+02
  -1.883048e+02  -9.241243e+01
   3.294968e+01  -2.392656e+02
   2.193112e+02  -3.451110e+02
   3.578024e+02  -2.171872e+02
   2.888494e+02   1.417612e+02
   1.058254e+02   4.250559e+02
  -9.602757e+01   4.133470e+02
  -1.178295e+02   1.353011e+02
  -2.935679e+01  -5.391746e-01
  -7.274818e+01   7.152100e+01
  -1.765060e+02   1.008877e+02
  -2.545460e+02  -6.028262e+01
  -1.600992e+02  -2.535494e+02
   6.783697e+01  -2.818233e+02
   2.224753e+02  -1.480840e+01
   1.843639e+02   2.169546e+02
   9.531912e-01   2.886746e+02
  -2.794044e+02   1.184519e+02
  -3.795786e+02  -1.554587e+02
  -1.947160e+02  -3.524426e+02
   9.750536e+01  -3.139102e+02
   2.484865e+02  -1.064011e+02
   1.409948e+02   3.163663e+00
   9.815956e+01  -2.210949e+01
   2.055546e+02  -5.860724e+01
   4.144163e+02   5.786858e+01
   3.191001e+02   3.063901e+02
  -1.382354e+01   4.478348e+02
  -3.669307e+02   3.871092e+02
  -4.916246e+02   1.928421e+02
  -3.404965e+02  -8.179725e+01
  -4.939421e+01  -3.130032e+02
   1.345800e+02  -2.612536e+02
   8.996513e+01  -3.942693e+01
  -1.083682e+02   1.074868e+02
  -1.960120e+02  -8.329673e+00
  -4.743695e+01  -1.910021e+02
   1.453067e+02  -1.615900e+02
   1.937435e+02   5.037235e+01
  -4.520716e+00   2.089156e+02
  -1.989823e+02   3.371228e+01
  -1.644992e+02  -2.559942e+02
   3.739881e+01  -3.554520e+02
   2.345314e+02  -1.922870e+02
   3.328644e+02   5.390729e+01
   2.748136e+02   2.500736e+02
   9.412244e+01   2.664572e+02
  -1.095443e+02   1.529370e+02
  -1.840828e+02   1.771773e+01
  -5.850210e+01  -2.852516e+01
   7.005609e+01   4.530114e+01
   2.512013e+01   1.241362e+02
  -1.274641e+02   1.030942e+02
  -1.889319e+02  -8.770348e+00
  -5.978250e+01  -7.609448e+01
   8.051929e+01  -1.307309e+01
   4.937097e+01   7.471838e+01
  -1.173020e+02   7.982746e+01
  -2.729177e+02  -8.575504e-01
  -2.673414e+02  -1.475965e+02
  -6.119633e+01  -2.398969e+02
   1.748191e+02  -2.433976e+02
   2.914653e+02  -1.191711e+02
   1.606089e+02   3.966991e+01
  -2.024331e+01   1.163324e+02
  -8.477235e+01   4.207555e+00
   3.391508e+01  -1.020080e+02
   2.023694e+02  -6.415987e+01
   2.044076e+02   1.071134e+02
   8.453614e+01   2.175495e+02
  -9.460431e+01   1.573385e+02
  -1.345973e+02   3.077195e+01
  -7.281030e+01  -4.301522e+01
   2.290382e+01  -5.402173e+00
   3.658903e+01   8.483719e+01
  -6.169568e+01   1.073100e+02
  -2.007504e+02   2.169896e+01
  -1.824493e+02  -1.235207e+02
  -1.335866e+01  -2.176414e+02
   1.600082e+02  -1.648770e+02
   1.957668e+02  -4.818047e+00
   7.192291e+01   1.098108e+02
  -7.366308e+01   1.131854e+02
  -8.573494e+01   3.187258e+01
  -1.631831e+01  -2.395149e+01
   2.169248e+01  -2.365823e+01
  -7.941238e+00   5.057256e+00
  -6.922998e+01  -1.173731e+01
  -8.409265e+01  -8.531048e+01
  -1.132750e+01  -1.506622e+02
   1.339441e+02  -1.540860e+02
   2.477685e+02  -2.477770e+01
   2.070725e+02   1.537632e+02
   5.761621e+01   2.334330e+02
  -1.137342e+02   1.691207e+02
  -1.374789e+02   1.966938e+01
  -7.393523e+01  -5.342627e+01
  -2.607603e+01  -3.850951e+01
  -5.061658e+01   1.046352e+01
  -8.012667e+01   5.699445e+00
  -4.125363e+01  -5.173178e+01
   3.930358e+01  -8.782177e+01
   9.460550e+01  -5.652862e+01
   7.849355e+01   3.514402e+01
  -1.702626e+01   1.031181e+02
  -1.307172e+02   7.992971e+01
  -1.867691e+02  -6.036958e+01
  -1.007802e+02  -1.983578e+02
   1.099803e+02  -2.203066e+02
   2.743226e+02  -9.919973e+01
   2.648793e+02   8.956305e+01
   1.123495e+02   1.725829e+02
  -3.979665e+01   1.479539e+02
  -9.349009e+01   8.599375e+01
  -8.109165e+01   6.510046e+01
  -6.712844e+01   8.945380e+01
  -8.937114e+01   7.339519e+01
  -1.292951e+02  -2.783297e+01
  -1.224315e+02  -1.581216e+02
  -2.633761e+01  -2.244169e+02
   1.010261e+02  -1.811559e+02
   1.700584e+02  -2.013720e+01
   1.319399e+02   1.247550e+02
   2.188164e+01   1.559118e+02
  -6.369923e+01   9.407310e+01
  -5.350354e+01   1.764699e+00
  -6.959172e+00  -4.146546e+01
   1.147577e+01  -3.585627e+01
  -3.667839e+01  -1.920620e+01
  -7.865252e+01  -2.259189e+01
  -4.148952e+01  -3.994246e+01
   6.079725e+01  -3.225523e+01
   1.530864e+02  -4.088649e+00
   1.389000e+02   5.640091e+01
   1.863930e+01   8.529537e+01
  -1.104160e+02   6.467525e+01
  -1.490854e+02   7.938405e+00
  -4.676600e+01  -4.310411e+01
   5.859144e+01  -4.262011e+01
   7.427505e+01   1.841909e+01
   5.546562e+00   6.966801e+01
  -5.656453e+01   4.961041e+01
  -6.700516e+01  -1.924398e+00
  -4.136181e+01  -4.930504e+01
  -4.131115e+01  -4.047591e+01
  -5.973428e+01  -3.212632e+00
  -6.581014e+01  -5.492588e+00
  -3.087061e+01  -6.904147e+01
   3.476087e+01  -1.472667e+02
   1.256460e+02  -1.246758e+02
   1.663124e+02  -3.340255e+01
   1.149365e+02   8.990642e+01
   1.246883e+01   1.256462e+02
  -8.830694e+01   5.840047e+01
  -6.029394e+01  -1.136670e+01
   5.933081e+01  -2.176144e+01
   1.342010e+02   4.157489e+01
   7.676302e+01   1.023426e+02
  -8.379220e+01   1.131128e+02
  -1.831676e+02   5.317817e+01
  -1.615080e+02  -3.539244e+01
  -3.046262e+01  -9.265257e+01
   6.397232e+01  -7.015881e+01
   4.991246e+01  -1.009088e+00
  -3.921808e+01   2.896289e+01
  -8.842363e+01  -2.950252e+01
  -2.914314e+01  -1.260949e+02
   9.989521e+01  -1.472108e+02
   1.685707e+02  -6.162709e+01
   1.287996e+02   1.062161e+02
   8.384082e+00   2.025958e+02
  -8.207937e+01   1.536289e+02
  -1.001407e+02  -5.227703e+00
  -5.866029e+01  -1.193321e+02
  -6.056470e+00  -1.023764e+02
   4.942519e+01  -1.935337e+01
   4.942349e+01   2.869232e+01
   2.494653e+01   8.814624e+00
   5.088557e+00  -1.960696e+01
   1.821584e+01   1.585868e+01
   5.686841e+01   8.675718e+01
   3.879613e+01   1.028362e+02
  -4.685358e+01   4.350042e+01
  -1.343984e+02  -4.432811e+01
  -1.286265e+02  -7.186579e+01
  -1.906904e+01  -4.886962e+01
   8.813270e+01  -2.355261e+01
   8.742944e+01  -8.727421e+00
   9.417148e+00   6.862651e+00
  -3.951554e+01   2.435490e+01
  -1.452227e+01   1.766658e+01
   2.086056e+01  -1.384107e-01
  -5.449433e+00  -8.541472e+00
  -7.466062e+01  -4.049609e+00
  -9.042862e+01  -1.859060e+01
  -7.695139e+00  -8.035534e+01
   1.164323e+02  -1.128685e+02
   1.787869e+02  -4.078787e+01
   1.463326e+02   7.174595e+01
   1.618584e+01   1.646031e+02
  -7.871910e+01   1.475884e+02
  -1.155727e+02   5.272327e+01
  -7.665705e+01  -2.047731e+01
  -2.381377e+01  -3.431384e+01
   3.610783e+00  -7.709248e+00
  -8.350316e+00  -4.244657e+00
  -3.345402e+01  -4.242379e+01
  -2.257810e+01  -8.818309e+01
   2.308490e+01  -7.309138e+01
   7.833085e+01   1.953501e+01
   7.585783e+01   1.060144e+02
   1.458691e+00   1.086437e+02
  -8.419288e+01   2.540699e+01
  -9.484377e+01  -7.901570e+01
  -2.989051e+01  -1.086396e+02
   6.798068e+01  -5.301211e+01
   1.002469e+02   1.269709e+01
   3.679252e+01   4.615846e+01
  -3.415312e+01   4.908383e+01
  -2.949390e+01   2.921747e+01
   3.614576e+01  -5.979665e-01
   6.925363e+01  -3.319162e+00
   1.356239e+01   2.596708e+01
  -7.942840e+01   6.232441e+01
  -1.166469e+02   6.304176e+01
  -6.279617e+01  -8.931218e+00
   1.275522e+01  -7.962219e+01
   5.399549e+01  -8.153486e+01
   3.812622e+01  -5.723744e+00
  -1.032159e+00   5.534804e+01
  -2.497449e+01   4.167755e+01
  -3.504815e+01  -1.766931e+01
  -2.426548e+01  -5.741452e+01
   3.378155e+00  -3.283696e+01
   3.187905e+01   8.501921e+00
   3.767134e+01   2.450645e+01
   2.197464e+01   2.083496e+00
   1.938282e+00  -1.519032e+01
  -7.138634e+00   2.634506e+00
  -7.098885e+00   3.666216e+01
  -2.286157e+01   4.858064e+01
  -3.131469e+01   8.309162e+00
  -2.680285e+01  -4.572545e+01
   3.540269e+00  -5.724431e+01
   4.431208e+01  -1.950051e+01
   5.470808e+01   4.359504e+01
   1.275776e+01   6.301854e+01
  -5.591609e+01   3.553348e+01
  -8.568319e+01  -1.749804e+01
  -4.706969e+01  -4.315902e+01
   2.993287e+01  -3.996443e+01
   6.386351e+01  -2.149129e+01
   2.214205e+01  -3.722830e+00
  -3.834286e+01  -2.459619e+00
  -3.853195e+01  -1.727624e+01
   2.769173e+01  -3.281110e+01
   9.126597e+01  -1.513665e+01
