
 $NMID
 id='ANONYMOUS ', fmtdat='(2E16.6)'
 volume=1.0
 tramp=1.0
 $END
  -4.523213e+03   3.954266e+02
  -2.981045e+03  -2.555692e+03
   9.710922e+01  -3.236137e+03
   1.958238e+03  -9.519138e+02
   1.191681e+03   6.671604e+02
  -5.572261e+02   5.866161e+02
  -8.153541e+02  -4.709991e+02
   9.718788e+01  -1.034797e+03
   7.484933e+02  -7.971147e+02
   9.207712e+02   2.568297e+00
   5.954433e+02   8.583491e+02
  -2.155847e+02   8.755177e+02
  -6.371697e+02   2.361167e+02
  -4.085510e+02  -6.183492e+02
   2.214133e+02  -7.851005e+02
   5.827891e+02  -3.002683e+01
   2.978674e+02   6.833400e+02
  -3.290691e+02   6.422353e+02
  -6.395270e+02   8.068875e+01
  -4.414898e+02  -3.261365e+02
  -2.914427e+01  -4.403154e+02
   2.171368e+02  -2.925709e+02
   1.893746e+02  -5.006328e+01
  -3.303830e+01   9.484501e+01
  -4.051479e+02  -7.474532e+01
  -1.941085e+02  -3.845604e+02
   4.154602e+02  -4.145764e+02
   7.657563e+02   9.310151e+01
   4.618573e+02   5.296261e+02
  -3.269145e+02   4.839684e+02
  -7.779420e+02   4.321740e+01
  -3.795533e+02  -4.287615e+02
   2.305284e+02  -5.169888e+02
   5.606304e+02  -2.278040e+02
   4.061959e+02   2.309414e+02
   6.013152e+01   5.060966e+02
  -2.257972e+02   3.167319e+02
  -2.466028e+02  -1.551829e+02
   7.429079e+01  -4.915617e+02
   4.372962e+02   7.647161e+01
   2.578621e+02   7.220460e+02
  -2.117424e+02   7.796306e+02
  -6.009107e+02   2.769128e+01
  -4.093262e+02  -5.091578e+02
   2.804763e+02  -3.676385e+02
   3.552157e+02   2.604678e+02
  -1.040192e+01   5.738889e+02
  -5.248422e+02   1.261556e+02
  -6.231508e+02  -3.650656e+02
  -1.733867e+02  -6.083272e+02
   3.826446e+02  -3.902129e+02
   5.771259e+02   5.306105e+01
   4.073259e+02   3.682174e+02
  -1.445574e+02   3.809125e+02
  -4.134313e+02   4.424246e+01
  -3.055312e+02  -2.149468e+02
   9.656320e+01  -1.300607e+02
   1.249826e+02   1.197470e+02
  -1.370336e+02   2.361522e+02
  -3.219174e+02  -4.036362e+01
  -1.414819e+02  -2.891951e+02
   2.043464e+02  -2.880361e+02
   3.556287e+02  -6.415175e+01
   1.903936e+02   9.882131e+01
  -4.383223e+01   2.132541e+02
  -2.193273e+02   3.292456e+02
  -3.204078e+02   2.016894e+02
  -2.818842e+02  -1.304639e+02
  -7.440279e+01  -4.065385e+02
   8.243520e+01  -4.083925e+02
   1.552476e+02  -1.468125e+02
   6.507066e+01  -6.396984e+00
   5.876213e+01  -6.480662e+01
   1.670278e+02  -1.490175e+02
   2.538195e+02   1.669978e+01
   1.806892e+02   2.808100e+02
  -4.848785e+01   2.315498e+02
  -2.173774e+02   1.127178e+01
  -1.947909e+02  -2.506388e+02
   1.512314e+00  -3.019175e+02
   2.527284e+02  -1.305779e+02
   3.622453e+02   1.429805e+02
   2.226844e+02   3.482952e+02
  -9.510036e+01   3.396825e+02
  -2.454828e+02   1.313402e+02
  -1.807357e+02   1.919398e+01
  -1.097078e+02   4.060693e+01
  -2.334481e+02   7.574402e+01
  -3.884805e+02  -3.497481e+01
  -3.457204e+02  -2.538865e+02
  -1.297946e+01  -4.331204e+02
   3.386755e+02  -4.494935e+02
   5.000191e+02  -2.406153e+02
   3.369338e+02   8.524016e+01
   6.652776e+01   2.923216e+02
  -1.188890e+02   2.523410e+02
  -6.539519e+01   4.191895e+01
   1.007515e+02  -8.545199e+01
   1.916367e+02   8.114119e+00
   6.820037e+01   2.077708e+02
  -1.538064e+02   1.483564e+02
  -1.792429e+02  -5.986591e+01
   3.976412e+00  -2.067818e+02
   1.978261e+02  -3.979048e+01
   1.838139e+02   2.436882e+02
  -2.604339e+01   3.422654e+02
  -2.253649e+02   1.907924e+02
  -3.383739e+02  -5.617987e+01
  -2.680072e+02  -2.348994e+02
  -9.278744e+01  -2.496462e+02
   1.093938e+02  -1.543510e+02
   1.697182e+02  -2.277340e+01
   5.762798e+01   2.949808e+01
  -6.890213e+01  -4.058819e+01
  -4.145254e+01  -1.125346e+02
   1.115290e+02  -9.826869e+01
   1.834493e+02   1.075587e+01
   6.561785e+01   6.657214e+01
  -7.876145e+01   2.259330e+01
  -5.423931e+01  -6.596030e+01
   1.183118e+02  -9.179169e+01
   2.836250e+02  -1.259082e+01
   2.555336e+02   1.380557e+02
   5.649266e+01   2.517553e+02
  -1.755190e+02   2.629077e+02
  -2.721234e+02   1.274777e+02
  -1.749553e+02  -4.976457e+01
   2.264546e+01  -1.060974e+02
   9.508117e+01  -1.890193e+01
  -2.723053e+01   9.809235e+01
  -1.988716e+02   6.572175e+01
  -2.095797e+02  -9.529690e+01
  -8.224279e+01  -2.042074e+02
   8.932855e+01  -1.633954e+02
   1.442895e+02  -3.423956e+01
   7.249076e+01   3.202257e+01
  -2.621672e+01  -5.339429e+00
  -4.098467e+01  -6.973093e+01
   6.927345e+01  -1.038737e+02
   1.841684e+02  -2.854778e+01
   1.925972e+02   1.159600e+02
   1.942815e+01   2.153301e+02
  -1.628806e+02   1.666586e+02
  -1.985703e+02   1.015428e+01
  -6.995057e+01  -1.144910e+02
   5.428263e+01  -1.132103e+02
   8.126228e+01  -3.756565e+01
   1.912978e+01   1.600879e+01
  -2.218149e+01   1.735831e+01
   6.974043e+00  -1.231607e+01
   7.408440e+01   1.363658e+01
   8.297236e+01   8.151523e+01
   4.523137e+00   1.636129e+02
  -1.184495e+02   1.438201e+02
  -2.287947e+02   2.364639e+01
  -2.031837e+02  -1.307777e+02
  -3.206156e+01  -2.340223e+02
   1.017472e+02  -1.765036e+02
   1.315271e+02  -3.378790e+01
   7.537629e+01   5.565134e+01
   3.058758e+01   3.723182e+01
   5.460001e+01  -1.227506e+01
   8.133144e+01  -6.842818e+00
   4.196290e+01   4.749652e+01
  -3.905766e+01   8.686138e+01
  -1.033336e+02   5.501001e+01
  -8.764023e+01  -4.016668e+01
   7.838031e+00  -1.131125e+02
   1.406339e+02  -8.181314e+01
   1.931002e+02   5.236267e+01
   1.139430e+02   1.859838e+02
  -8.990829e+01   2.237760e+02
  -2.523562e+02   1.025709e+02
  -2.583238e+02  -7.460813e+01
  -1.062803e+02  -1.798633e+02
   2.195295e+01  -1.517880e+02
   9.420181e+01  -8.460420e+01
   7.639955e+01  -6.793072e+01
   6.878717e+01  -9.846701e+01
   9.355606e+01  -7.282752e+01
   1.240130e+02   1.553440e+01
   1.079533e+02   1.490268e+02
   3.894701e+01   2.118440e+02
  -9.971445e+01   1.653718e+02
  -1.684804e+02   2.965466e+01
  -1.298316e+02  -1.120135e+02
  -1.576130e+01  -1.562757e+02
   6.734341e+01  -8.899484e+01
   5.843720e+01  -3.117192e+00
   4.862558e+00   3.879451e+01
  -1.233880e+01   3.487979e+01
   4.119162e+01   1.783426e+01
   7.943930e+01   1.975019e+01
   4.233270e+01   3.375944e+01
  -6.139546e+01   3.524767e+01
  -1.587500e+02   1.501242e+01
  -1.371301e+02  -5.280720e+01
  -1.735348e+01  -8.421392e+01
   1.135368e+02  -7.857399e+01
   1.376002e+02  -2.029514e+01
   4.313611e+01   3.734033e+01
  -6.045273e+01   3.696945e+01
  -7.719701e+01  -1.664355e+01
  -1.046068e+01  -7.071470e+01
   5.638911e+01  -6.427265e+01
   6.586403e+01  -3.698086e-01
   4.611923e+01   5.226437e+01
   4.792613e+01   4.097806e+01
   6.119729e+01   2.100203e+00
   6.059886e+01   1.633491e-01
   3.154295e+01   6.935998e+01
  -3.648198e+01   1.500611e+02
  -1.161202e+02   1.463453e+02
  -1.610135e+02   3.759772e+01
  -1.195119e+02  -8.460011e+01
  -6.070822e+00  -1.239367e+02
   8.465861e+01  -6.591724e+01
   5.838406e+01   1.423403e+01
  -5.959981e+01   1.956296e+01
  -1.371933e+02  -4.203688e+01
  -7.946416e+01  -1.056007e+02
   7.188518e+01  -1.133777e+02
   1.798554e+02  -5.360864e+01
   1.464083e+02   3.403113e+01
   4.230701e+01   7.852242e+01
  -5.824190e+01   6.430306e+01
  -4.653118e+01   1.232710e+01
   3.988594e+01  -2.651453e+01
   9.153272e+01   2.113594e+01
   3.087293e+01   1.128034e+02
  -8.568555e+01   1.501438e+02
  -1.591707e+02   6.177814e+01
  -1.271233e+02  -9.048296e+01
  -1.841180e+01  -1.858176e+02
   7.978849e+01  -1.444143e+02
   1.019544e+02   5.172315e+00
   5.724656e+01   1.125086e+02
  -1.526213e+00   1.116487e+02
  -4.175472e+01   2.191907e+01
  -5.135963e+01  -2.916509e+01
  -2.559267e+01  -4.215971e+00
  -6.352890e-01   1.922031e+01
  -2.175223e+01  -1.692668e+01
  -5.559941e+01  -9.524281e+01
  -4.449300e+01  -1.015820e+02
   3.923989e+01  -4.383647e+01
   1.421938e+02   3.533293e+01
   1.317805e+02   6.338538e+01
   1.538728e+01   4.902977e+01
  -8.469162e+01   2.399829e+01
  -8.669298e+01   1.004981e+01
  -9.278280e+00  -9.860436e+00
   3.743629e+01  -2.394296e+01
   1.270128e+01  -1.830523e+01
  -2.152096e+01   4.114122e+00
   7.288834e+00   8.620967e+00
   7.519885e+01   3.444392e+00
   8.980938e+01   2.393602e+01
   7.061438e+00   8.169742e+01
  -1.184882e+02   1.209430e+02
  -1.834578e+02   6.262505e+01
  -1.365438e+02  -6.720995e+01
  -2.304444e+01  -1.602099e+02
   7.454688e+01  -1.531613e+02
   1.111005e+02  -5.908979e+01
   8.096920e+01   2.342574e+01
   2.536712e+01   3.359086e+01
  -3.163472e+00   8.165860e+00
   9.661032e+00   2.804916e+00
   3.462092e+01   4.220084e+01
   2.611727e+01   8.859135e+01
  -3.194967e+01   6.797143e+01
  -8.306241e+01  -1.737679e+01
  -8.061890e+01  -1.096287e+02
  -7.368743e+00  -1.148364e+02
   7.914737e+01  -2.407225e+01
   1.103354e+02   7.300847e+01
   3.138345e+01   1.029176e+02
  -6.776414e+01   6.313846e+01
  -9.305408e+01  -8.297542e+00
  -3.846903e+01  -5.163348e+01
   3.771727e+01  -5.436407e+01
   2.964247e+01  -2.819667e+01
  -3.451638e+01   2.400850e+00
  -7.057832e+01   6.027879e+00
  -1.587198e+01  -2.610618e+01
   7.614933e+01  -6.574605e+01
   1.076047e+02  -5.666944e+01
   6.115574e+01   1.655319e+01
  -1.909375e+01   8.150776e+01
  -5.131857e+01   7.813898e+01
  -3.375047e+01   5.516841e+00
  -2.229917e+00  -5.815769e+01
   2.845326e+01  -4.234513e+01
   3.832131e+01   1.679211e+01
   2.588782e+01   5.328755e+01
  -5.099795e+00   3.378306e+01
  -3.309526e+01  -7.694297e+00
  -3.893047e+01  -1.894606e+01
  -1.851807e+01  -1.321877e+00
  -3.045271e-01   1.278589e+01
   4.348168e+00  -3.224132e+00
   5.159002e+00  -3.501967e+01
   1.427592e+01  -4.963340e+01
   3.566097e+01  -9.839514e+00
   3.284913e+01   4.568784e+01
   2.707178e+00   6.226007e+01
  -4.373097e+01   2.175236e+01
  -5.879667e+01  -3.865185e+01
  -1.233990e+01  -6.112332e+01
   5.429845e+01  -3.241190e+01
   8.796859e+01   1.454917e+01
   4.914840e+01   4.428379e+01
  -2.946543e+01   4.148167e+01
  -6.494816e+01   2.160358e+01
  -2.569705e+01   4.772802e+00
   3.578822e+01   2.763475e+00
   3.798907e+01   1.329465e+01
  -3.161251e+01   2.832025e+01
  -9.455014e+01   2.409188e+01
