
 $NMID
 id='ANONYMOUS ', fmtdat='(2E16.6)'
 volume=1.0
 tramp=1.0
 $END
   4.673588e+03  -1.461290e+02
   2.555110e+03   2.697432e+03
  -8.076388e+02   2.789879e+03
  -2.025176e+03   1.026479e+03
  -7.570062e+02  -8.236995e+02
   8.618904e+02  -5.817632e+02
   8.363488e+02   5.042837e+02
  -7.930384e+00   1.046991e+03
  -7.396494e+02   8.097188e+02
  -9.826229e+02  -9.165118e+01
  -3.930050e+02  -8.977717e+02
   1.266346e+02  -8.337270e+02
   6.220178e+02  -9.065560e+01
   3.891671e+02   6.741093e+02
  -2.514398e+02   7.467631e+02
  -6.092401e+02  -1.763384e+01
  -1.923766e+02  -6.844879e+02
   3.307265e+02  -6.363473e+02
   6.213484e+02  -2.544964e+01
   3.811023e+02   3.183715e+02
   1.803310e+01   4.593056e+02
  -2.566151e+02   2.467461e+02
  -1.935001e+02   4.147726e+01
   1.333702e+02  -8.487909e+01
   4.710631e+02   1.238342e+02
   1.851503e+02   3.953546e+02
  -4.981255e+02   4.296491e+02
  -8.273831e+02  -5.553030e+01
  -4.666016e+02  -5.906625e+02
   3.516720e+02  -4.499316e+02
   8.041909e+02   6.937724e+01
   3.383485e+02   4.900394e+02
  -3.166453e+02   5.050955e+02
  -6.260495e+02   2.002969e+02
  -3.930245e+02  -2.540763e+02
  -1.785762e+01  -4.878786e+02
   2.040750e+02  -3.021983e+02
   2.032023e+02   2.024017e+02
  -1.946810e+02   4.767746e+02
  -4.454364e+02  -9.772457e+01
  -2.453300e+02  -6.753456e+02
   3.604062e+02  -7.747018e+02
   6.203468e+02   5.878807e+01
   2.810210e+02   5.293604e+02
  -3.163834e+02   2.515981e+02
  -4.160664e+02  -2.999576e+02
   8.457044e+01  -5.606119e+02
   5.385204e+02  -1.486316e+02
   6.013220e+02   4.262726e+02
   1.578753e+02   6.235453e+02
  -4.084253e+02   3.579949e+02
  -5.867235e+02  -6.528933e+01
  -3.777159e+02  -3.746112e+02
   1.469995e+02  -3.763075e+02
   3.864384e+02  -2.451775e+01
   2.382503e+02   1.864051e+02
  -1.264247e+02   1.363912e+02
  -1.401198e+02  -1.543191e+02
   2.024606e+02  -2.164545e+02
   3.276239e+02   8.696114e+01
   1.333024e+02   2.662527e+02
  -2.034233e+02   2.770220e+02
  -3.378721e+02   7.554649e+01
  -1.871707e+02  -8.012282e+01
   1.630816e+01  -2.380253e+02
   2.043953e+02  -3.475987e+02
   3.239703e+02  -2.140568e+02
   2.910512e+02   1.399004e+02
   8.075746e+01   4.334245e+02
  -9.543012e+01   3.809781e+02
  -1.238081e+02   1.229407e+02
  -5.495362e+01   1.299259e+01
  -5.454051e+01   7.511192e+01
  -2.203761e+02   1.573481e+02
  -2.786881e+02  -4.958680e+01
  -1.557656e+02  -2.657259e+02
   6.449897e+01  -2.248097e+02
   2.244088e+02  -1.782156e+00
   2.150390e+02   2.400920e+02
  -2.141989e+01   3.039263e+02
  -2.709824e+02   1.118308e+02
  -3.697042e+02  -1.505461e+02
  -2.084921e+02  -3.793083e+02
   1.048429e+02  -3.452658e+02
   2.246285e+02  -1.239017e+02
   1.495117e+02  -3.388223e+00
   9.641052e+01  -3.783917e+01
   2.315848e+02  -7.748525e+01
   4.143899e+02   6.005729e+01
   3.692641e+02   3.083598e+02
   1.501857e+01   4.531905e+02
  -3.728836e+02   4.381317e+02
  -5.083125e+02   2.189902e+02
  -3.508511e+02  -9.155369e+01
  -5.005166e+01  -2.854967e+02
   1.219155e+02  -2.292798e+02
   6.535728e+01  -2.622462e+01
  -9.862925e+01   1.005587e+02
  -1.912861e+02  -1.549131e+01
  -2.883458e+01  -2.090426e+02
   1.422179e+02  -1.630865e+02
   1.769747e+02   6.871443e+01
  -1.355047e+00   2.076863e+02
  -1.799794e+02   3.170000e+01
  -1.774995e+02  -2.526399e+02
   2.949084e+01  -3.347691e+02
   2.459836e+02  -2.040512e+02
   3.514829e+02   5.035773e+01
   2.952298e+02   2.381106e+02
   9.244192e+01   2.661723e+02
  -1.090922e+02   1.627685e+02
  -1.861330e+02   2.487014e+01
  -5.134176e+01  -2.927911e+01
   6.993836e+01   3.795350e+01
   2.363929e+01   1.361288e+02
  -1.125839e+02   9.456248e+01
  -1.876461e+02  -2.755001e+00
  -5.839919e+01  -7.260703e+01
   8.561174e+01  -1.936086e+01
   5.608438e+01   7.235526e+01
  -1.227157e+02   9.710038e+01
  -2.910674e+02   3.553958e+00
  -2.759139e+02  -1.331919e+02
  -6.104702e+01  -2.665023e+02
   1.869448e+02  -2.778325e+02
   2.940069e+02  -1.258580e+02
   1.741241e+02   6.612068e+01
  -2.893334e+01   1.028928e+02
  -1.039926e+02   7.123603e+00
   3.230367e+01  -1.022855e+02
   2.029284e+02  -6.300442e+01
   2.138882e+02   9.673579e+01
   7.048295e+01   2.134590e+02
  -9.473427e+01   1.655168e+02
  -1.476168e+02   3.359560e+01
  -7.126876e+01  -4.965190e+01
   2.844228e+01  -5.388746e+00
   3.679650e+01   8.042249e+01
  -7.302535e+01   1.086072e+02
  -1.833633e+02   2.137011e+01
  -2.038587e+02  -1.220183e+02
  -3.201950e+01  -2.178464e+02
   1.709991e+02  -1.671394e+02
   1.978210e+02   1.082272e+00
   6.413260e+01   1.154344e+02
  -7.071110e+01   1.150165e+02
  -8.417019e+01   3.291544e+01
  -1.920281e+01  -2.373402e+01
   1.960067e+01  -1.984684e+01
  -1.027679e+01   1.236283e+01
  -7.348024e+01  -1.155760e+01
  -9.505956e+01  -8.453852e+01
  -1.050771e+01  -1.554470e+02
   1.212434e+02  -1.594844e+02
   2.447027e+02  -3.188908e+01
   2.202991e+02   1.461756e+02
   3.705265e+01   2.420652e+02
  -1.093049e+02   1.711856e+02
  -1.329928e+02   2.611139e+01
  -7.151346e+01  -5.665947e+01
  -2.756448e+01  -3.371830e+01
  -5.497103e+01   1.072182e+01
  -8.094945e+01   1.192419e+01
  -4.660247e+01  -4.876506e+01
   4.050710e+01  -9.026133e+01
   1.043191e+02  -5.475015e+01
   9.019944e+01   3.272647e+01
  -1.064881e+01   1.063137e+02
  -1.411798e+02   9.514927e+01
  -2.009422e+02  -4.406674e+01
  -1.055214e+02  -2.130059e+02
   1.006599e+02  -2.403392e+02
   2.573220e+02  -1.119705e+02
   2.559612e+02   8.908117e+01
   1.083251e+02   1.776434e+02
  -4.448586e+01   1.554683e+02
  -9.347166e+01   7.747693e+01
  -7.407608e+01   7.110299e+01
  -6.788624e+01   9.340373e+01
  -8.594152e+01   7.748051e+01
  -1.258634e+02  -1.945356e+01
  -1.149656e+02  -1.515407e+02
  -4.143458e+01  -2.240924e+02
   9.459452e+01  -1.612003e+02
   1.869879e+02  -2.819099e+01
   1.383659e+02   1.214635e+02
   2.109994e+01   1.643149e+02
  -6.400167e+01   8.656994e+01
  -6.027386e+01   3.911537e+00
  -8.811221e+00  -4.279339e+01
   1.049990e+01  -3.210676e+01
  -4.032247e+01  -1.981594e+01
  -7.834679e+01  -1.720634e+01
  -4.343967e+01  -3.530480e+01
   6.337772e+01  -3.573206e+01
   1.636558e+02  -7.550041e+00
   1.396849e+02   4.497409e+01
   1.693520e+01   8.982459e+01
  -1.210386e+02   8.230347e+01
  -1.512579e+02   1.473109e+01
  -4.938537e+01  -4.071914e+01
   5.901114e+01  -3.717485e+01
   8.016992e+01   1.828311e+01
   1.015007e+01   6.691677e+01
  -5.364327e+01   5.596661e+01
  -6.557399e+01   2.739201e+00
  -4.836930e+01  -4.647321e+01
  -4.731099e+01  -4.589969e+01
  -6.015668e+01  -7.604458e-02
  -6.547739e+01   1.901993e+00
  -3.747538e+01  -6.361797e+01
   3.051713e+01  -1.497289e+02
   1.168723e+02  -1.413647e+02
   1.734526e+02  -3.314247e+01
   1.202308e+02   8.968604e+01
   6.600226e+00   1.253911e+02
  -8.422130e+01   6.435290e+01
  -6.076419e+01  -1.569048e+01
   5.913652e+01  -1.838145e+01
   1.332496e+02   4.070846e+01
   7.285961e+01   1.035748e+02
  -8.342942e+01   1.125328e+02
  -1.771978e+02   5.561157e+01
  -1.576428e+02  -3.448323e+01
  -3.708207e+01  -8.640326e+01
   6.114068e+01  -6.904330e+01
   4.862717e+01  -8.422563e+00
  -3.847725e+01   2.643449e+01
  -9.279997e+01  -1.680348e+01
  -3.634126e+01  -1.130590e+02
   8.964693e+01  -1.576762e+02
   1.677519e+02  -6.210749e+01
   1.384657e+02   1.022780e+02
   1.200376e+01   1.976526e+02
  -7.814216e+01   1.369343e+02
  -1.050717e+02  -5.406155e+00
  -5.839633e+01  -1.127267e+02
   1.142044e+00  -1.079513e+02
   4.775133e+01  -2.081940e+01
   5.308333e+01   2.988863e+01
   2.479239e+01   8.786227e+00
   4.322579e+00  -2.136372e+01
   2.036246e+01   1.236343e+01
   5.626909e+01   8.464797e+01
   4.076578e+01   1.127321e+02
  -4.737852e+01   4.795285e+01
  -1.388631e+02  -4.435971e+01
  -1.279404e+02  -7.506102e+01
  -1.682034e+01  -4.727980e+01
   8.486101e+01  -2.359134e+01
   8.806026e+01  -9.433218e+00
   1.157320e+01   4.159082e+00
  -3.922199e+01   2.337356e+01
  -1.463403e+01   1.702859e+01
   2.167234e+01  -2.273993e+00
  -6.813424e+00  -8.498326e+00
  -7.296137e+01  -4.153639e+00
  -9.255728e+01  -2.491646e+01
  -1.027286e+01  -7.805728e+01
   1.122189e+02  -1.156661e+02
   1.807873e+02  -5.144995e+01
   1.386917e+02   6.984184e+01
   2.471851e+01   1.645601e+02
  -7.452441e+01   1.610692e+02
  -1.177736e+02   6.368176e+01
  -7.519191e+01  -2.066158e+01
  -2.489355e+01  -3.679166e+01
   2.493528e+00  -8.500639e+00
  -1.034610e+01  -3.863635e+00
  -3.294848e+01  -4.751468e+01
  -2.370312e+01  -9.133327e+01
   2.690587e+01  -7.184925e+01
   7.950997e+01   2.043004e+01
   7.742311e+01   1.085386e+02
   1.178132e+00   1.062713e+02
  -8.104528e+01   2.071292e+01
  -1.055419e+02  -7.054951e+01
  -2.973044e+01  -1.034425e+02
   6.641780e+01  -5.213693e+01
   1.015143e+02   1.435841e+01
   3.403592e+01   5.066539e+01
  -3.113152e+01   5.100162e+01
  -3.160932e+01   2.855560e+01
   3.156527e+01   3.030967e+00
   6.678472e+01  -6.811555e+00
   1.436839e+01   2.476647e+01
  -7.246196e+01   6.223856e+01
  -1.201235e+02   5.897644e+01
  -5.883539e+01  -1.282267e+01
   1.910359e+01  -7.928121e+01
   4.994190e+01  -8.334983e+01
   3.674364e+01  -7.926195e+00
   7.838224e-01   5.632203e+01
  -2.573596e+01   4.259225e+01
  -3.431957e+01  -1.736630e+01
  -2.630903e+01  -5.295689e+01
   1.312118e+00  -3.144578e+01
   3.398823e+01   9.127996e+00
   4.045487e+01   1.997640e+01
   2.025428e+01  -3.492958e-01
  -1.053201e+00  -1.194729e+01
  -7.439015e+00   4.007955e+00
  -1.037185e+01   3.684203e+01
  -1.234778e+01   4.792159e+01
  -3.477425e+01   4.947131e+00
  -2.828139e+01  -4.018111e+01
  -1.377580e+00  -5.945382e+01
   4.393006e+01  -2.032278e+01
   5.521717e+01   3.564023e+01
   1.681417e+01   6.426380e+01
  -5.397131e+01   3.125383e+01
  -8.706569e+01  -1.467617e+01
  -4.844928e+01  -4.270144e+01
   2.678940e+01  -4.314568e+01
   6.518557e+01  -2.339209e+01
   2.362978e+01  -5.249518e+00
  -3.532707e+01  -3.416831e+00
  -3.731822e+01  -1.165841e+01
   2.752914e+01  -3.230655e+01
   9.232644e+01  -1.561484e+01
