
 $NMID
 id='ANONYMOUS ', fmtdat='(2E16.6)'
 volume=1.0
 tramp=1.0
 $END
  -4.126925e+03  -8.888671e+01
  -2.710729e+03  -2.259306e+03
   3.278012e+02  -2.748830e+03
   2.064962e+03  -1.211222e+03
   1.142137e+03   4.633899e+02
  -3.929214e+02   7.470369e+02
  -9.350635e+02  -3.346569e+02
  -4.003417e+01  -9.814714e+02
   7.633933e+02  -9.513310e+02
   9.678394e+02   1.644892e+01
   6.413977e+02   7.438173e+02
  -1.876819e+02   9.152884e+02
  -5.587978e+02   1.483133e+02
  -3.539101e+02  -7.645753e+02
   2.671665e+02  -7.202765e+02
   6.085059e+02  -5.804728e+01
   3.402842e+02   6.452836e+02
  -3.184910e+02   7.193016e+02
  -5.643959e+02   1.606620e+02
  -4.744021e+02  -3.345106e+02
  -4.696638e+01  -4.209676e+02
   2.134962e+02  -3.115964e+02
   2.292709e+02  -8.017626e+01
  -8.669285e+01   2.926033e+01
  -3.508021e+02  -1.125883e+02
  -1.897976e+02  -4.354511e+02
   4.842869e+02  -3.749115e+02
   7.828996e+02   2.871670e+01
   4.181624e+02   4.806647e+02
  -3.319855e+02   4.095287e+02
  -6.106298e+02   8.178443e+00
  -3.355574e+02  -4.492437e+02
   2.707863e+02  -4.945200e+02
   5.814659e+02  -1.922295e+02
   4.089507e+02   2.195033e+02
   9.284734e+01   4.699999e+02
  -1.998117e+02   3.353336e+02
  -1.624946e+02  -1.648801e+02
   1.777174e+02  -3.794223e+02
   3.495948e+02  -3.967915e+01
   1.880876e+02   6.664256e+02
  -2.838681e+02   7.332211e+02
  -5.289505e+02  -1.160139e+00
  -2.353041e+02  -4.173225e+02
   1.918740e+02  -2.974632e+02
   3.372577e+02   2.593770e+02
  -8.277171e+01   5.070023e+02
  -4.984215e+02   1.375949e+02
  -6.022665e+02  -4.382550e+02
  -1.681625e+02  -5.614204e+02
   3.262985e+02  -3.442009e+02
   6.297635e+02   8.619436e+01
   3.743092e+02   3.292672e+02
  -1.085006e+02   3.772256e+02
  -4.001141e+02   9.447951e+01
  -3.196504e+02  -1.436750e+02
   7.682817e+01  -9.741116e+01
   1.415063e+02   1.110689e+02
  -1.322538e+02   1.989903e+02
  -3.076042e+02  -4.250604e+01
  -1.449874e+02  -3.044522e+02
   1.946692e+02  -2.679028e+02
   3.550228e+02  -8.696875e+01
   2.094208e+02   1.181423e+02
  -2.129641e+01   2.442309e+02
  -2.721435e+02   3.419727e+02
  -3.563188e+02   1.949099e+02
  -2.758467e+02  -1.183954e+02
  -8.119669e+01  -4.315448e+02
   5.860873e+01  -3.979247e+02
   1.299773e+02  -1.501142e+02
   4.168484e+01  -1.239039e+01
   7.210937e+01  -7.243327e+01
   2.021836e+02  -9.581297e+01
   2.501884e+02   7.305310e+01
   1.517252e+02   2.728550e+02
  -8.676236e+01   2.527557e+02
  -2.353366e+02   1.599991e+01
  -1.895209e+02  -2.188065e+02
   2.775809e+01  -2.796944e+02
   2.485324e+02  -1.103825e+02
   3.465559e+02   1.992090e+02
   2.107491e+02   3.592886e+02
  -7.489255e+01   3.129882e+02
  -2.279323e+02   1.683752e+02
  -1.714334e+02   3.476017e+01
  -1.283869e+02   4.039952e+01
  -2.583335e+02   4.844411e+01
  -4.135695e+02  -6.767395e+01
  -3.495238e+02  -2.828387e+02
   1.462882e+01  -4.633480e+02
   3.763463e+02  -4.360797e+02
   5.106799e+02  -2.040194e+02
   3.196383e+02   1.070262e+02
   3.619826e+01   3.037807e+02
  -9.384632e+01   2.650462e+02
  -6.167839e+01   4.171729e+01
   1.146003e+02  -1.064801e+02
   1.902626e+02   2.383347e+00
   4.658332e+01   1.912718e+02
  -1.535913e+02   1.688099e+02
  -1.638355e+02  -6.461759e+01
   2.301494e+01  -1.668641e+02
   1.872112e+02  -2.165123e+01
   1.704338e+02   2.439292e+02
  -4.326209e+01   3.656703e+02
  -2.595156e+02   2.007653e+02
  -3.402071e+02  -4.522653e+01
  -2.776009e+02  -2.551707e+02
  -8.117382e+01  -2.819089e+02
   1.176643e+02  -1.590956e+02
   1.778816e+02  -1.890966e+01
   5.363181e+01   2.134432e+01
  -7.160848e+01  -4.877797e+01
  -3.308753e+01  -1.299817e+02
   1.289253e+02  -9.736129e+01
   1.902891e+02   1.846720e+01
   5.460543e+01   6.779144e+01
  -8.103499e+01   7.317157e+00
  -5.646231e+01  -7.534436e+01
   1.406463e+02  -9.376290e+01
   2.869379e+02   1.104291e+01
   2.828571e+02   1.560622e+02
   6.135358e+01   2.688010e+02
  -1.981183e+02   2.747674e+02
  -2.676305e+02   1.273672e+02
  -1.757965e+02  -3.200152e+01
   2.060304e+01  -1.048526e+02
   8.455343e+01  -5.586720e+00
  -3.529333e+01   9.948143e+01
  -1.930297e+02   5.823663e+01
  -2.131255e+02  -9.799552e+01
  -7.156326e+01  -2.116851e+02
   1.003580e+02  -1.772291e+02
   1.543279e+02  -2.723074e+01
   6.753826e+01   3.444626e+01
  -3.008298e+01  -4.467979e+00
  -2.423957e+01  -9.760570e+01
   8.343476e+01  -1.192039e+02
   2.041551e+02  -2.512900e+01
   2.027572e+02   1.222776e+02
   2.823878e+01   2.392037e+02
  -1.567775e+02   1.652276e+02
  -1.891855e+02   1.428452e+01
  -6.994507e+01  -1.075797e+02
   6.918161e+01  -1.107680e+02
   8.607008e+01  -3.427094e+01
   1.423250e+01   2.228787e+01
  -2.627519e+01   1.536535e+01
   7.693565e+00  -1.095717e+01
   7.585408e+01   1.007597e+01
   9.225487e+01   9.463288e+01
   1.668806e+01   1.594376e+02
  -1.349000e+02   1.442811e+02
  -2.311080e+02   2.692574e+01
  -2.117908e+02  -1.560168e+02
  -4.643933e+01  -2.412516e+02
   1.049825e+02  -1.680016e+02
   1.446592e+02  -2.609533e+01
   7.653804e+01   5.747916e+01
   3.170935e+01   3.817576e+01
   5.543008e+01  -1.333190e+01
   8.260512e+01  -1.630440e+00
   4.653185e+01   5.697112e+01
  -4.050552e+01   9.334550e+01
  -1.146893e+02   6.445075e+01
  -8.648738e+01  -3.996164e+01
   1.634488e+01  -1.264715e+02
   1.588401e+02  -9.350712e+01
   2.021778e+02   6.292670e+01
   9.463730e+01   2.014053e+02
  -1.181450e+02   2.245046e+02
  -2.763481e+02   9.117491e+01
  -2.673984e+02  -7.540422e+01
  -1.182268e+02  -1.812763e+02
   4.231079e+01  -1.504624e+02
   9.794362e+01  -8.947164e+01
   7.604629e+01  -7.159127e+01
   6.648370e+01  -1.000468e+02
   9.510814e+01  -7.882633e+01
   1.364299e+02   2.510851e+01
   1.224354e+02   1.639442e+02
   1.660703e+01   2.348655e+02
  -1.018970e+02   1.799453e+02
  -1.721068e+02   1.734701e+01
  -1.351457e+02  -1.278554e+02
  -1.843762e+01  -1.639613e+02
   7.095914e+01  -8.872299e+01
   6.039951e+01   4.319018e+00
   1.716843e+00   4.411113e+01
  -1.570156e+01   3.736800e+01
   3.587236e+01   1.298474e+01
   8.286282e+01   2.251130e+01
   4.835379e+01   4.227652e+01
  -7.017932e+01   3.266091e+01
  -1.633139e+02   5.906563e+00
  -1.384690e+02  -5.199223e+01
  -1.606751e+01  -8.980247e+01
   1.333695e+02  -7.024338e+01
   1.470815e+02  -7.745047e+00
   4.657279e+01   4.269744e+01
  -6.601178e+01   3.957738e+01
  -7.894342e+01  -2.348692e+01
  -1.165434e+01  -7.543610e+01
   5.311274e+01  -6.724465e+01
   6.759426e+01   1.772987e+00
   4.547490e+01   5.513981e+01
   4.489954e+01   4.608654e+01
   6.249157e+01  -7.704082e-01
   6.759636e+01   3.071363e+00
   3.849174e+01   7.742051e+01
  -2.897468e+01   1.482256e+02
  -1.220244e+02   1.376163e+02
  -1.727183e+02   3.868540e+01
  -1.221334e+02  -9.992240e+01
  -1.094773e+00  -1.275007e+02
   8.931604e+01  -6.784029e+01
   6.032272e+01   1.370248e+01
  -6.071231e+01   2.194484e+01
  -1.346166e+02  -4.190507e+01
  -8.058970e+01  -1.099524e+02
   8.565306e+01  -1.156871e+02
   1.924875e+02  -4.901276e+01
   1.630897e+02   3.701983e+01
   4.421098e+01   9.001746e+01
  -5.704991e+01   7.130457e+01
  -5.296146e+01   4.859343e+00
   3.991927e+01  -2.855775e+01
   9.242972e+01   2.351831e+01
   3.777435e+01   1.224009e+02
  -9.429731e+01   1.570373e+02
  -1.806777e+02   5.992993e+01
  -1.328472e+02  -1.042599e+02
  -1.664164e+01  -2.075034e+02
   9.109245e+01  -1.484801e+02
   1.078983e+02   1.151791e+01
   6.339588e+01   1.276594e+02
  -1.288045e+00   1.087120e+02
  -4.890288e+01   1.971620e+01
  -5.093894e+01  -3.235496e+01
  -2.502794e+01  -6.787941e+00
  -3.622705e+00   1.949036e+01
  -2.380661e+01  -2.036999e+01
  -5.597898e+01  -9.007942e+01
  -3.942883e+01  -1.086919e+02
   4.605919e+01  -4.220253e+01
   1.452530e+02   4.277086e+01
   1.299897e+02   6.733378e+01
   2.018180e+01   5.251938e+01
  -8.829358e+01   2.913330e+01
  -8.860221e+01   7.480056e+00
  -1.321102e+01  -1.041678e+01
   3.620582e+01  -2.477875e+01
   1.527424e+01  -1.627460e+01
  -1.774890e+01   1.130010e+00
   6.741161e+00   8.685071e+00
   7.481883e+01   1.566402e+00
   9.471326e+01   2.495628e+01
   9.209651e+00   9.048717e+01
  -1.196423e+02   1.250025e+02
  -1.975067e+02   6.243331e+01
  -1.489080e+02  -6.027571e+01
  -2.609539e+01  -1.654390e+02
   8.321348e+01  -1.534280e+02
   1.180454e+02  -5.964406e+01
   8.284106e+01   1.917812e+01
   2.557898e+01   3.792356e+01
  -9.474887e-01   9.744924e+00
   1.220858e+01   7.016013e+00
   3.120225e+01   4.791999e+01
   2.048439e+01   9.037760e+01
  -3.309844e+01   7.541865e+01
  -7.966119e+01  -1.721052e+01
  -8.368130e+01  -1.144734e+02
  -1.160166e+01  -1.128317e+02
   8.807296e+01  -3.196086e+01
   1.087089e+02   7.444919e+01
   3.428136e+01   1.120312e+02
  -6.964824e+01   6.161983e+01
  -9.776643e+01  -7.746897e+00
  -4.199532e+01  -5.301466e+01
   3.475314e+01  -5.452677e+01
   3.259914e+01  -2.595786e+01
  -3.454484e+01   5.194243e+00
  -7.217189e+01   7.206694e+00
  -1.723973e+01  -2.758327e+01
   8.024986e+01  -6.807014e+01
   1.252422e+02  -6.304032e+01
   6.980151e+01   1.359366e+01
  -1.770512e+01   8.360573e+01
  -5.829057e+01   8.037650e+01
  -4.124367e+01   3.744856e+00
  -1.343710e+00  -5.839296e+01
   2.560868e+01  -4.410679e+01
   4.062691e+01   1.484474e+01
   2.891537e+01   5.504275e+01
  -3.914680e+00   3.529529e+01
  -3.635733e+01  -9.911361e+00
  -3.823896e+01  -2.224871e+01
  -2.149648e+01  -1.907834e+00
   1.228169e+00   1.575095e+01
   4.471861e+00  -8.981630e-01
   1.859376e+00  -3.744821e+01
   1.650557e+01  -4.864658e+01
   3.287592e+01  -1.385588e+01
   3.024095e+01   4.850770e+01
   5.314453e+00   6.689310e+01
  -4.348345e+01   2.389642e+01
  -6.616571e+01  -4.112475e+01
  -1.508023e+01  -6.490301e+01
   5.418525e+01  -3.686535e+01
   9.159664e+01   1.563591e+01
   5.167312e+01   4.778994e+01
  -3.137213e+01   4.445774e+01
  -6.600399e+01   2.538337e+01
  -2.684820e+01   5.199815e+00
   3.655021e+01  -1.682344e+00
   3.922994e+01   1.185204e+01
  -3.279439e+01   3.231583e+01
  -9.505995e+01   2.189024e+01
