
 $NMID
 id='ANONYMOUS ', fmtdat='(2E16.6)'
 volume=1.0
 tramp=1.0
 $END
   3.907272e+03   4.809801e+01
   2.309705e+03   2.378819e+03
  -7.110704e+02   2.296282e+03
  -1.828158e+03   1.069325e+03
  -7.821861e+02  -3.526701e+01
   3.598268e+02  -2.436842e+02
   6.590878e+02   2.874559e+02
  -8.304402e+01   9.272846e+02
  -5.849371e+02   6.512440e+02
  -8.448730e+02  -8.296292e+01
  -3.942445e+02  -7.339145e+02
   9.052422e+01  -7.558433e+02
   4.886744e+02  -9.274480e+01
   2.382380e+02   7.113694e+02
  -2.224911e+02   5.588964e+02
  -5.017632e+02   6.099077e+01
  -2.610528e+02  -5.940083e+02
   2.105911e+02  -6.360983e+02
   5.514547e+02  -1.887373e+02
   4.023863e+02   2.434484e+02
   8.951163e+01   4.181104e+02
  -2.036348e+02   2.452288e+02
  -1.424348e+02   6.497592e+01
   2.060887e+02   1.839987e+01
   3.959302e+02   2.617744e+02
   7.565717e+01   4.521181e+02
  -4.707750e+02   3.385916e+02
  -7.558112e+02  -1.931602e+02
  -2.729271e+02  -5.334310e+02
   3.463489e+02  -3.149634e+02
   7.082710e+02   6.499911e+01
   2.285201e+02   4.484377e+02
  -3.047021e+02   4.679104e+02
  -5.351185e+02   1.354894e+02
  -4.004783e+02  -1.891148e+02
  -4.148363e+01  -4.116794e+02
   1.173499e+02  -1.753509e+02
  -1.017617e+01   2.119439e+02
  -2.468683e+02   3.063919e+02
  -3.502465e+02  -1.768002e+02
  -1.885932e+02  -6.527511e+02
   3.227002e+02  -5.548480e+02
   4.300141e+02   6.090111e+01
   1.799428e+02   4.542551e+02
  -2.848684e+02   2.171515e+02
  -2.658074e+02  -3.854941e+02
   1.069904e+02  -4.734456e+02
   5.073577e+02  -8.412243e+01
   5.324821e+02   3.874868e+02
   1.615215e+02   5.435344e+02
  -4.030852e+02   3.120332e+02
  -5.633835e+02  -4.896066e+01
  -3.559975e+02  -3.013146e+02
   1.230911e+02  -2.869398e+02
   3.654634e+02  -4.557603e+01
   2.147543e+02   6.282091e+01
  -3.164142e+01   3.530653e+01
  -8.466163e+01  -6.608489e+01
   1.411661e+02  -9.131159e+01
   2.542893e+02   9.022659e+01
   1.411433e+02   2.511075e+02
  -1.931812e+02   2.366012e+02
  -3.592392e+02   1.214521e+02
  -2.514927e+02  -8.259647e+01
  -9.633967e+00  -2.817167e+02
   2.588598e+02  -3.722440e+02
   3.707935e+02  -2.128385e+02
   2.652286e+02   1.766438e+02
   4.289985e+01   4.366310e+02
  -1.082988e+02   3.449848e+02
  -6.737036e+01   1.228019e+02
  -3.930108e+01   3.089103e+01
  -1.153111e+02   1.211246e+02
  -2.645596e+02   1.146908e+02
  -2.766111e+02  -1.123650e+02
  -1.202697e+02  -2.626450e+02
   1.014151e+02  -2.357527e+02
   2.288459e+02   3.087194e+01
   1.720368e+02   2.830362e+02
  -3.035278e+01   2.895961e+02
  -2.822915e+02   7.421158e+01
  -3.379663e+02  -1.876204e+02
  -1.535955e+02  -3.315725e+02
   8.646941e+01  -2.743666e+02
   2.035261e+02  -1.387057e+02
   1.371811e+02  -3.958802e+01
   1.368000e+02  -6.513635e+01
   2.723757e+02  -5.241547e+01
   4.150231e+02   8.934911e+01
   3.319137e+02   3.100915e+02
  -2.493316e+01   4.345325e+02
  -3.920956e+02   4.433236e+02
  -5.245388e+02   1.763837e+02
  -3.142157e+02  -1.253953e+02
  -3.138977e+01  -2.916600e+02
   1.280557e+02  -2.099108e+02
   5.191312e+01  -1.316046e+01
  -1.149715e+02   7.690850e+01
  -1.906454e+02  -4.974244e+01
  -2.256421e+01  -1.755010e+02
   1.306385e+02  -1.401067e+02
   1.463495e+02   7.294628e+01
  -3.677286e+01   1.437918e+02
  -1.843309e+02   2.840752e+01
  -1.653948e+02  -2.561484e+02
   4.198782e+01  -3.707748e+02
   2.387412e+02  -2.095568e+02
   3.593613e+02   7.172257e+01
   2.754909e+02   2.722867e+02
   6.510298e+01   2.940429e+02
  -1.224422e+02   1.570151e+02
  -1.658436e+02   2.755024e+00
  -4.323204e+01  -2.807916e+01
   6.246673e+01   5.994332e+01
   3.088616e+00   1.294366e+02
  -1.347499e+02   7.884721e+01
  -1.639081e+02  -4.097168e+01
  -4.519146e+01  -7.326852e+01
   9.148301e+01   2.790416e+00
   4.135331e+01   9.579050e+01
  -1.398867e+02   9.758239e+01
  -3.083216e+02   1.467224e+00
  -2.625725e+02  -1.715526e+02
  -4.357687e+01  -2.761740e+02
   2.013381e+02  -2.491016e+02
   2.917071e+02  -1.071523e+02
   1.580635e+02   6.075103e+01
  -3.269888e+01   9.263891e+01
  -8.335767e+01  -2.044694e+00
   4.984084e+01  -9.908934e+01
   1.972245e+02  -3.130257e+01
   2.115914e+02   1.067846e+02
   5.954265e+01   2.089355e+02
  -9.347998e+01   1.444947e+02
  -1.408255e+02   1.812039e+01
  -6.094102e+01  -3.756326e+01
   4.106344e+01   1.008844e+01
   3.562147e+01   1.014077e+02
  -8.542884e+01   1.248798e+02
  -2.186422e+02   1.546274e+01
  -1.975565e+02  -1.383393e+02
  -1.561753e+01  -2.081988e+02
   1.858733e+02  -1.626570e+02
   1.786023e+02  -2.687930e+00
   5.617874e+01   1.054375e+02
  -7.140901e+01   1.080757e+02
  -8.098850e+01   2.376260e+01
  -1.026298e+01  -2.837107e+01
   3.331520e+01  -1.472215e+01
  -7.883172e+00   2.193163e+01
  -8.535213e+01  -6.312359e-01
  -9.798287e+01  -8.050616e+01
  -8.981837e+00  -1.782301e+02
   1.360681e+02  -1.601264e+02
   2.460389e+02  -1.064709e+01
   1.937111e+02   1.640877e+02
   3.575903e+01   2.352788e+02
  -1.156869e+02   1.715328e+02
  -1.339822e+02   2.720929e+01
  -7.199438e+01  -4.738497e+01
  -3.008763e+01  -3.416745e+01
  -5.828374e+01   1.524714e+01
  -9.122823e+01   9.394559e+00
  -5.516106e+01  -5.212175e+01
   3.864997e+01  -1.042937e+02
   1.154386e+02  -6.115781e+01
   1.054617e+02   4.237430e+01
  -1.387619e+01   1.219762e+02
  -1.556165e+02   9.303408e+01
  -2.112355e+02  -5.968626e+01
  -8.736635e+01  -2.253643e+02
   1.286524e+02  -2.319392e+02
   2.713055e+02  -7.863329e+01
   2.534526e+02   1.015036e+02
   1.088633e+02   1.714725e+02
  -4.539571e+01   1.490104e+02
  -9.831353e+01   8.093763e+01
  -7.906103e+01   6.870431e+01
  -6.643216e+01   9.356676e+01
  -8.988155e+01   8.188935e+01
  -1.370144e+02  -1.520209e+01
  -1.145632e+02  -1.550236e+02
  -2.547733e+01  -2.434571e+02
   1.075931e+02  -1.759302e+02
   1.830718e+02  -1.521765e+01
   1.363459e+02   1.284003e+02
   1.381466e+01   1.673351e+02
  -6.869494e+01   9.315779e+01
  -7.023876e+01  -7.916658e+00
  -4.770241e-01  -5.339529e+01
   2.439921e+01  -3.756402e+01
  -3.218384e+01  -1.647922e+01
  -8.312879e+01  -1.854021e+01
  -5.032487e+01  -4.043886e+01
   6.855767e+01  -3.843243e+01
   1.718221e+02  -2.340527e+00
   1.473944e+02   6.055488e+01
   2.484355e+00   9.391078e+01
  -1.294970e+02   7.890357e+01
  -1.508476e+02   7.795612e+00
  -4.815762e+01  -5.441870e+01
   6.003041e+01  -4.115712e+01
   7.864788e+01   1.633921e+01
   1.774977e+01   7.337313e+01
  -5.225161e+01   6.022912e+01
  -6.861921e+01   2.052630e+00
  -5.331286e+01  -4.923877e+01
  -4.574430e+01  -4.193850e+01
  -5.792502e+01  -7.054594e+00
  -6.577192e+01   6.004598e-01
  -4.438196e+01  -7.214661e+01
   2.670145e+01  -1.512944e+02
   1.231637e+02  -1.529523e+02
   1.820668e+02  -4.433723e+01
   1.361738e+02   9.772447e+01
   2.856209e+00   1.360242e+02
  -8.898744e+01   7.003798e+01
  -6.297230e+01  -1.266321e+01
   5.907536e+01  -1.914028e+01
   1.414996e+02   4.569187e+01
   7.397653e+01   1.136859e+02
  -8.889221e+01   1.077619e+02
  -1.985804e+02   5.379933e+01
  -1.695101e+02  -4.268771e+01
  -3.365060e+01  -9.366912e+01
   6.471127e+01  -6.805274e+01
   4.949432e+01  -3.340252e+00
  -4.220975e+01   3.184719e+01
  -9.010674e+01  -1.887219e+01
  -3.886459e+01  -1.217682e+02
   8.554507e+01  -1.579297e+02
   1.547867e+02  -7.483408e+01
   1.171093e+02   9.593990e+01
   1.603744e+01   2.057541e+02
  -8.247791e+01   1.435354e+02
  -1.088158e+02  -9.621251e+00
  -6.087221e+01  -1.224171e+02
   9.409819e+00  -1.097478e+02
   5.040055e+01  -1.687982e+01
   4.829356e+01   3.310257e+01
   2.129471e+01   9.256760e+00
   6.240416e+00  -2.007327e+01
   2.766324e+01   1.899852e+01
   6.142933e+01   9.878956e+01
   3.522877e+01   1.194648e+02
  -5.834616e+01   4.672823e+01
  -1.434348e+02  -4.574631e+01
  -1.265851e+02  -7.259981e+01
  -1.886941e+01  -5.723769e+01
   8.328364e+01  -2.227590e+01
   8.830016e+01  -5.711977e+00
   1.710157e+01   8.595155e+00
  -3.728651e+01   2.117666e+01
  -2.104754e+01   1.733054e+01
   1.904841e+01  -1.135814e+00
  -3.230863e+00  -6.417300e+00
  -7.364380e+01  -3.030698e+00
  -9.649386e+01  -2.251184e+01
  -1.901080e+01  -8.139957e+01
   1.127750e+02  -1.172375e+02
   1.913594e+02  -6.613634e+01
   1.557159e+02   5.527946e+01
   2.994002e+01   1.588172e+02
  -8.518850e+01   1.575319e+02
  -1.211913e+02   6.334637e+01
  -8.444011e+01  -1.891525e+01
  -2.829981e+01  -3.601932e+01
   4.285858e-01  -1.091065e+01
  -1.482265e+01  -7.370691e+00
  -3.345413e+01  -5.043928e+01
  -1.897706e+01  -9.670235e+01
   2.837404e+01  -7.609152e+01
   7.996679e+01   2.009728e+01
   7.516538e+01   1.044499e+02
   1.435662e+01   1.125575e+02
  -7.370324e+01   2.528192e+01
  -1.067105e+02  -7.168235e+01
  -3.719465e+01  -1.023970e+02
   6.579563e+01  -6.300218e+01
   1.038452e+02   8.216033e+00
   4.538524e+01   5.835194e+01
  -3.565672e+01   6.095869e+01
  -3.644241e+01   3.149493e+01
   2.666628e+01  -1.596702e+00
   7.289465e+01  -1.023814e+01
   1.685495e+01   2.701915e+01
  -7.669493e+01   6.392369e+01
  -1.210981e+02   5.454299e+01
  -7.056303e+01  -1.587697e+01
   1.395392e+01  -8.520491e+01
   6.081872e+01  -8.577609e+01
   4.118112e+01  -1.275435e+01
   4.252162e+00   5.327712e+01
  -2.513290e+01   4.590640e+01
  -3.413332e+01  -1.427458e+01
  -3.007499e+01  -5.292123e+01
   1.216598e+00  -3.778587e+01
   3.183169e+01   6.466571e+00
   4.264408e+01   2.352612e+01
   2.201965e+01   3.347903e+00
  -3.229553e+00  -1.755924e+01
  -9.496255e+00  -3.312527e+00
   2.661074e-01   3.293777e+01
  -4.664427e+00   4.873249e+01
  -2.512567e+01   2.106569e+01
  -3.535814e+01  -3.854852e+01
  -5.968291e+00  -5.521448e+01
   3.926783e+01  -2.379258e+01
   5.957233e+01   3.855491e+01
   1.668010e+01   6.132193e+01
  -5.735683e+01   3.737738e+01
  -9.317182e+01  -1.346278e+01
  -5.120966e+01  -4.549541e+01
   2.744364e+01  -4.531589e+01
   6.477875e+01  -2.643393e+01
   2.560747e+01  -7.679947e+00
  -2.990112e+01  -8.293146e-01
  -3.688187e+01  -1.108032e+01
   2.553349e+01  -2.927439e+01
   8.293361e+01  -2.200270e+01
