
 $NMID
 id='ANONYMOUS ', fmtdat='(2E16.6)'
 volume=1.0
 tramp=1.0
 $END
   3.747639e+03   1.691922e+02
   2.361510e+03   2.266831e+03
  -1.657405e+02   2.403037e+03
  -1.613895e+03   9.270014e+02
  -8.543827e+02  -3.733836e+01
   1.344537e+02  -4.578398e+02
   5.384557e+02   3.093571e+02
   1.107661e+02   7.382207e+02
  -5.803757e+02   7.076928e+02
  -6.785980e+02   3.635943e+01
  -5.014458e+02  -6.219445e+02
   7.254847e+01  -7.133983e+02
   4.801573e+02  -2.303417e+02
   3.918612e+02   5.206525e+02
  -2.087692e+02   6.840255e+02
  -5.183339e+02   1.501384e+01
  -3.183680e+02  -5.447331e+02
   1.672944e+02  -6.520583e+02
   5.821691e+02  -2.074197e+02
   4.836637e+02   2.350075e+02
   7.350458e+01   3.916295e+02
  -1.752968e+02   2.724437e+02
  -1.747575e+02   4.117725e+01
   1.183409e+02   2.254854e+01
   3.065049e+02   2.046841e+02
   7.287274e+01   4.126439e+02
  -4.674137e+02   2.235307e+02
  -6.827749e+02  -1.383892e+02
  -3.419245e+02  -4.272190e+02
   3.744185e+02  -3.342686e+02
   6.047034e+02   9.335838e+01
   2.701018e+02   4.629360e+02
  -3.019106e+02   4.357206e+02
  -4.852821e+02   1.915066e+02
  -4.017394e+02  -1.791633e+02
  -8.159520e+01  -3.646549e+02
   1.041333e+02  -2.667752e+02
   6.508048e+01   3.250037e+01
  -1.392351e+02   2.530216e+02
  -2.403845e+02  -1.356034e+02
  -9.260379e+01  -5.946865e+02
   3.099606e+02  -5.180545e+02
   4.598600e+02  -9.123048e+01
   1.721672e+02   4.562678e+02
  -1.842979e+02   2.025159e+02
  -2.580136e+02  -2.852332e+02
   1.275636e+02  -4.709349e+02
   5.114668e+02  -8.956410e+01
   5.628835e+02   3.673111e+02
   1.731830e+02   5.369791e+02
  -3.256384e+02   2.795915e+02
  -6.015486e+02  -5.055404e+01
  -3.954437e+02  -3.198567e+02
   6.647372e+01  -2.837997e+02
   3.526763e+02  -7.864755e+01
   2.441529e+02   9.054771e+01
  -3.998352e+01   9.742410e+01
  -1.140930e+02  -1.433482e+02
   1.019140e+02  -1.288771e+02
   3.040192e+02   2.742272e+01
   1.483091e+02   2.599904e+02
  -1.762992e+02   2.455554e+02
  -3.554348e+02   1.107539e+02
  -2.575770e+02  -9.757337e+01
   4.218954e+01  -3.130660e+02
   2.795450e+02  -3.602990e+02
   3.530268e+02  -1.752877e+02
   2.514271e+02   1.320215e+02
   6.950478e+01   3.884765e+02
  -5.430954e+01   3.437731e+02
  -5.922165e+01   1.605780e+02
  -1.648449e+01   7.404249e+01
  -8.146118e+01   1.139141e+02
  -2.043621e+02   7.917339e+01
  -2.432642e+02  -6.060243e+01
  -1.238736e+02  -2.727433e+02
   5.378668e+01  -2.203011e+02
   2.089114e+02   2.873929e+01
   1.453041e+02   2.364215e+02
  -3.792923e+01   2.723049e+02
  -2.474592e+02   9.751400e+01
  -3.541783e+02  -1.621847e+02
  -1.761341e+02  -3.407645e+02
   7.181721e+01  -2.861115e+02
   1.820888e+02  -1.485801e+02
   1.431120e+02  -5.382618e+01
   1.205775e+02  -4.397849e+01
   2.706200e+02  -6.223857e+01
   4.209849e+02   7.031774e+01
   3.112516e+02   3.011895e+02
  -4.023975e+01   4.310804e+02
  -3.810167e+02   4.007463e+02
  -4.983379e+02   1.749621e+02
  -3.184059e+02  -7.670232e+01
  -1.308934e+01  -2.628762e+02
   1.121220e+02  -2.267767e+02
   3.608982e+01  -6.311398e+01
  -1.122146e+02   6.145393e+01
  -1.603142e+02  -2.999584e+01
  -4.482525e+01  -1.555371e+02
   1.535128e+02  -1.379886e+02
   1.421335e+02   5.802607e+01
  -2.880813e+01   1.555732e+02
  -1.712829e+02   9.592625e+00
  -1.607676e+02  -2.426197e+02
   1.109228e+01  -3.278711e+02
   2.398653e+02  -2.005504e+02
   3.482612e+02   6.773789e+01
   2.715786e+02   2.441105e+02
   8.716704e+01   2.732714e+02
  -1.288087e+02   1.427662e+02
  -1.635883e+02   1.819463e+01
  -4.336710e+01  -1.474933e+01
   5.798153e+01   5.849282e+01
   9.632865e+00   1.130702e+02
  -1.174039e+02   8.669560e+01
  -1.689965e+02  -2.300697e+01
  -3.548756e+01  -6.693590e+01
   7.299451e+01   2.236382e+00
   4.231433e+01   7.664445e+01
  -1.442451e+02   9.210434e+01
  -2.898877e+02  -1.792068e+01
  -2.650697e+02  -1.550969e+02
  -4.099699e+01  -2.606313e+02
   1.995124e+02  -2.372775e+02
   2.764536e+02  -1.097272e+02
   1.471698e+02   5.509132e+01
  -3.255701e+01   9.398479e+01
  -7.564611e+01   3.787186e-01
   4.071354e+01  -8.201513e+01
   1.896502e+02  -5.038949e+01
   1.891499e+02   1.037821e+02
   6.025793e+01   2.020832e+02
  -8.992580e+01   1.491813e+02
  -1.367682e+02   2.895074e+01
  -6.242924e+01  -3.775276e+01
   4.240254e+01   1.291988e+01
   2.887006e+01   9.933163e+01
  -8.233268e+01   1.148946e+02
  -2.117087e+02   2.131640e+01
  -1.970470e+02  -1.366808e+02
  -1.625490e+01  -2.157498e+02
   1.573995e+02  -1.438661e+02
   1.872448e+02  -2.596186e+00
   5.721182e+01   1.093842e+02
  -6.595783e+01   1.002418e+02
  -7.509174e+01   3.296021e+01
  -7.946127e+00  -2.095729e+01
   3.261902e+01  -1.890443e+01
  -8.369989e+00   1.749941e+01
  -8.376120e+01  -9.520622e-02
  -1.070656e+02  -8.959288e+01
  -1.985254e+01  -1.657168e+02
   1.317162e+02  -1.485223e+02
   2.357964e+02  -1.610369e+01
   1.905895e+02   1.629211e+02
   3.722114e+01   2.395633e+02
  -1.067108e+02   1.669006e+02
  -1.356282e+02   3.866755e+01
  -7.490340e+01  -5.007142e+01
  -3.085119e+01  -3.008239e+01
  -5.558051e+01   1.510317e+01
  -8.422149e+01   5.623265e+00
  -5.073932e+01  -5.371835e+01
   4.793601e+01  -1.040006e+02
   1.097821e+02  -5.923257e+01
   9.415104e+01   3.790923e+01
  -9.727941e+00   1.263999e+02
  -1.567871e+02   8.839606e+01
  -1.991293e+02  -6.011298e+01
  -9.094807e+01  -2.130014e+02
   1.125583e+02  -2.296596e+02
   2.707111e+02  -9.674054e+01
   2.381945e+02   8.267885e+01
   1.075019e+02   1.808458e+02
  -4.345779e+01   1.397320e+02
  -8.712715e+01   8.562050e+01
  -7.139630e+01   7.607196e+01
  -6.147073e+01   9.248440e+01
  -1.005397e+02   7.932457e+01
  -1.322037e+02  -1.989835e+01
  -1.257323e+02  -1.637679e+02
  -3.220480e+01  -2.203463e+02
   1.026172e+02  -1.730270e+02
   1.688039e+02  -1.800097e+01
   1.334883e+02   1.223393e+02
   1.596853e+01   1.539805e+02
  -7.245696e+01   9.172041e+01
  -6.339489e+01  -1.093545e+01
   2.235115e+00  -5.258009e+01
   1.860526e+01  -3.789119e+01
  -2.985371e+01  -1.659990e+01
  -8.117592e+01  -1.964329e+01
  -5.218780e+01  -4.017477e+01
   7.364518e+01  -3.808697e+01
   1.665993e+02   1.013645e+01
   1.434446e+02   5.839290e+01
   7.255329e+00   9.728419e+01
  -1.364683e+02   8.388167e+01
  -1.455002e+02   1.419560e+01
  -4.538838e+01  -4.314149e+01
   6.126550e+01  -4.438973e+01
   7.720655e+01   2.017315e+01
   1.181159e+01   7.317395e+01
  -4.895387e+01   6.266720e+01
  -6.711048e+01  -4.672055e-02
  -4.627076e+01  -5.223074e+01
  -4.694314e+01  -4.286042e+01
  -5.546065e+01  -1.267674e+00
  -6.705031e+01  -8.242516e-01
  -4.361607e+01  -7.556446e+01
   3.235723e+01  -1.457278e+02
   1.227227e+02  -1.386770e+02
   1.812216e+02  -3.296417e+01
   1.306230e+02   8.886647e+01
   5.129709e+00   1.286308e+02
  -9.531710e+01   6.737846e+01
  -6.457636e+01  -1.161329e+01
   5.965244e+01  -2.276675e+01
   1.353640e+02   4.550402e+01
   7.659516e+01   1.034929e+02
  -7.857450e+01   1.095658e+02
  -1.880889e+02   3.593120e+01
  -1.594545e+02  -3.949267e+01
  -2.934467e+01  -8.697765e+01
   6.332167e+01  -5.722060e+01
   4.729051e+01  -7.390027e-01
  -4.097923e+01   2.977932e+01
  -8.907781e+01  -1.718338e+01
  -4.144823e+01  -1.142014e+02
   7.663831e+01  -1.590679e+02
   1.579989e+02  -6.846980e+01
   1.306640e+02   9.005959e+01
   2.473970e+01   1.916992e+02
  -8.038964e+01   1.425178e+02
  -1.025702e+02  -1.244124e+01
  -6.074855e+01  -1.229343e+02
   8.118886e+00  -1.068997e+02
   5.225509e+01  -1.870076e+01
   4.961532e+01   2.908311e+01
   2.260879e+01   5.791515e+00
   4.764442e+00  -1.785420e+01
   2.787179e+01   2.178779e+01
   5.747049e+01   9.294113e+01
   3.685683e+01   1.048016e+02
  -5.076343e+01   4.505562e+01
  -1.401404e+02  -3.707437e+01
  -1.210355e+02  -6.905322e+01
  -1.557527e+01  -5.033353e+01
   8.188581e+01  -2.489996e+01
   8.694900e+01  -1.033933e+01
   1.413569e+01   1.151757e+01
  -3.588155e+01   2.042085e+01
  -1.641244e+01   1.314545e+01
   1.644592e+01  -4.319155e+00
  -3.861290e+00  -5.995997e+00
  -7.198547e+01  -2.186231e+00
  -9.389548e+01  -2.170773e+01
  -1.789927e+01  -8.116016e+01
   1.157383e+02  -1.253623e+02
   1.880172e+02  -7.352439e+01
   1.431889e+02   7.021647e+01
   3.306567e+01   1.636406e+02
  -7.993553e+01   1.543312e+02
  -1.068334e+02   6.279306e+01
  -8.308098e+01  -1.772090e+01
  -2.754422e+01  -3.655400e+01
   3.779862e-02  -1.198565e+01
  -1.273565e+01  -6.621310e+00
  -3.281979e+01  -4.545364e+01
  -1.794988e+01  -9.068906e+01
   3.125085e+01  -7.533102e+01
   7.699724e+01   1.488734e+01
   8.472997e+01   1.029519e+02
   1.191834e+01   1.127991e+02
  -8.233078e+01   2.718715e+01
  -1.010152e+02  -6.318589e+01
  -3.701992e+01  -1.044774e+02
   6.634425e+01  -6.182046e+01
   1.015844e+02   1.017680e+01
   4.142373e+01   5.175986e+01
  -3.397105e+01   5.588472e+01
  -3.702894e+01   2.976402e+01
   2.638028e+01  -8.623141e+00
   7.173286e+01  -1.068978e+01
   1.836721e+01   2.792193e+01
  -7.642355e+01   6.530725e+01
  -1.198297e+02   6.007443e+01
  -6.817605e+01  -1.686081e+01
   1.296642e+01  -8.545185e+01
   5.315401e+01  -8.469445e+01
   4.233273e+01  -1.035528e+01
   5.071863e+00   5.614743e+01
  -2.054546e+01   4.789558e+01
  -3.848430e+01  -1.429294e+01
  -2.696904e+01  -5.273973e+01
   1.605457e+00  -3.939000e+01
   3.449741e+01   4.618209e+00
   4.302501e+01   2.660510e+01
   2.066509e+01   3.885172e+00
  -2.815369e+00  -1.989307e+01
  -4.625526e+00  -3.676906e+00
  -3.583676e+00   3.596716e+01
  -9.952027e+00   5.091116e+01
  -3.230022e+01   1.613850e+01
  -4.057306e+01  -3.979383e+01
  -1.247052e+01  -6.558286e+01
   4.324894e+01  -2.673508e+01
   6.298801e+01   3.564959e+01
   1.762558e+01   5.974580e+01
  -5.562202e+01   3.457279e+01
  -9.222985e+01  -9.894754e+00
  -5.335379e+01  -4.211922e+01
   2.853282e+01  -4.487787e+01
   6.237207e+01  -2.527485e+01
   3.007402e+01  -7.755957e+00
  -3.144058e+01   3.217905e+00
  -3.690613e+01  -9.869035e+00
   2.453915e+01  -2.774155e+01
   8.126710e+01  -2.354159e+01
