
 $NMID
 id='ANONYMOUS ', fmtdat='(2E16.6)'
 volume=1.0
 tramp=1.0
 $END
   4.126460e+03   1.301973e+02
   2.651163e+03   2.290908e+03
  -5.694611e+02   2.674901e+03
  -1.973057e+03   1.030585e+03
  -1.041278e+03  -5.612130e+02
   5.518580e+02  -5.152152e+02
   7.583469e+02   3.950273e+02
   7.306867e+01   9.363126e+02
  -7.891869e+02   7.862886e+02
  -1.006695e+03   3.250974e+00
  -4.231749e+02  -8.891066e+02
   2.231256e+02  -9.222271e+02
   6.088016e+02  -2.307937e+01
   3.553806e+02   7.048232e+02
  -2.431601e+02   6.224441e+02
  -5.182182e+02  -1.259665e+00
  -2.878763e+02  -7.545757e+02
   3.068441e+02  -6.210046e+02
   5.369802e+02  -1.143821e+02
   3.692359e+02   3.503801e+02
   5.217898e+01   4.585516e+02
  -2.233526e+02   2.693385e+02
  -1.860433e+02   3.627113e+01
   1.126309e+02  -5.995794e+01
   3.761961e+02   1.253944e+02
   1.781499e+02   3.969531e+02
  -4.207758e+02   4.146359e+02
  -7.579511e+02  -7.875746e+01
  -3.948143e+02  -5.230691e+02
   3.112148e+02  -4.124902e+02
   7.746234e+02   2.504423e+01
   3.186060e+02   4.946871e+02
  -2.873917e+02   4.556713e+02
  -5.667827e+02   1.614240e+02
  -3.970387e+02  -2.515186e+02
  -1.102559e+02  -4.676114e+02
   1.441212e+02  -2.871296e+02
   1.618723e+02   2.228933e+02
  -1.461986e+02   4.243311e+02
  -3.849351e+02  -1.802873e+01
  -2.678027e+02  -6.819746e+02
   2.586190e+02  -7.120332e+02
   5.779451e+02   5.509368e+00
   2.232166e+02   5.520496e+02
  -2.735855e+02   2.865122e+02
  -3.991580e+02  -2.737571e+02
   1.835668e+01  -5.581134e+02
   5.416271e+02  -1.250119e+02
   5.386397e+02   4.192990e+02
   1.846171e+02   5.691346e+02
  -3.657639e+02   3.818076e+02
  -6.117350e+02  -1.044876e+02
  -3.182896e+02  -3.682476e+02
   1.329940e+02  -3.945519e+02
   4.236923e+02  -1.085469e+02
   2.567951e+02   1.816665e+02
  -1.209110e+02   5.045210e+01
  -1.219950e+02  -1.498438e+02
   1.461512e+02  -1.920957e+02
   3.250809e+02   8.262700e+01
   1.210917e+02   2.986678e+02
  -2.037428e+02   2.426881e+02
  -3.222714e+02   7.607248e+01
  -1.819849e+02  -1.001413e+02
   3.083915e+01  -2.038372e+02
   2.323872e+02  -3.114701e+02
   3.359618e+02  -2.189544e+02
   2.809314e+02   1.161226e+02
   7.739890e+01   4.210134e+02
  -7.131928e+01   3.508122e+02
  -1.105961e+02   1.124418e+02
  -4.731444e+01  -7.813393e+00
  -4.711383e+01   7.790179e+01
  -1.962875e+02   1.229334e+02
  -3.042481e+02  -6.201835e+01
  -1.482223e+02  -2.595460e+02
   1.098052e+02  -2.378323e+02
   1.881740e+02  -2.187875e+00
   2.013246e+02   2.269168e+02
   4.751129e+00   2.931114e+02
  -2.615722e+02   1.074451e+02
  -3.269059e+02  -1.925124e+02
  -1.940109e+02  -3.211501e+02
   9.637768e+01  -3.009616e+02
   2.342960e+02  -1.322350e+02
   1.690504e+02  -7.930517e+00
   1.086843e+02  -4.296443e+01
   2.374319e+02  -4.936480e+01
   4.188414e+02   7.313890e+01
   3.210762e+02   2.852119e+02
   3.929690e+00   4.112815e+02
  -3.734764e+02   4.083305e+02
  -4.944361e+02   2.013891e+02
  -3.143328e+02  -1.106954e+02
  -5.654138e+01  -2.745870e+02
   1.099601e+02  -2.447588e+02
   8.700529e+01  -3.974700e+00
  -1.013835e+02   1.029593e+02
  -1.969072e+02  -1.667285e+00
  -4.997478e+01  -2.027466e+02
   1.553607e+02  -1.583806e+02
   1.606539e+02   4.879991e+01
  -2.233314e+01   1.595742e+02
  -1.978246e+02   3.723668e+01
  -1.477808e+02  -2.495753e+02
   3.610750e+01  -3.404857e+02
   2.264833e+02  -1.892904e+02
   3.218461e+02   7.040043e+01
   2.748153e+02   2.412584e+02
   9.466465e+01   2.611460e+02
  -1.032072e+02   1.459491e+02
  -1.756768e+02  -1.014722e+00
  -5.604469e+01  -3.207840e+01
   5.962183e+01   3.338892e+01
   2.448717e+01   1.143316e+02
  -1.158651e+02   9.927884e+01
  -1.670187e+02  -1.028159e+01
  -6.433251e+01  -7.304200e+01
   8.845991e+01  -1.152770e+01
   4.677962e+01   7.270612e+01
  -1.168899e+02   8.005431e+01
  -2.725390e+02  -6.539480e+00
  -2.662824e+02  -1.422263e+02
  -4.647310e+01  -2.342004e+02
   1.936232e+02  -2.410719e+02
   2.808702e+02  -1.297930e+02
   1.586885e+02   2.934588e+01
  -2.361579e+01   1.079528e+02
  -8.826082e+01   1.012021e+01
   2.924146e+01  -1.032924e+02
   1.917691e+02  -5.091848e+01
   2.104985e+02   8.849037e+01
   7.230891e+01   1.962105e+02
  -8.702887e+01   1.582676e+02
  -1.382761e+02   1.664749e+01
  -6.692083e+01  -5.052717e+01
   2.562144e+01   1.949044e+00
   4.053986e+01   8.202690e+01
  -7.801751e+01   1.069684e+02
  -1.897760e+02   3.270789e+01
  -1.777700e+02  -1.229189e+02
  -1.835137e+01  -2.030399e+02
   1.571154e+02  -1.660328e+02
   1.878140e+02  -7.493468e+00
   6.404018e+01   1.135474e+02
  -6.218166e+01   1.125991e+02
  -7.853473e+01   2.866730e+01
  -1.782779e+01  -2.933850e+01
   1.958046e+01  -1.276326e+01
  -1.097986e+01   7.850441e+00
  -6.440008e+01  -7.904146e+00
  -8.151732e+01  -8.666423e+01
  -1.184956e+01  -1.471717e+02
   1.306956e+02  -1.446463e+02
   2.171632e+02  -2.651592e+01
   1.867818e+02   1.474094e+02
   4.243331e+01   2.314211e+02
  -1.188219e+02   1.637687e+02
  -1.326579e+02   2.105708e+01
  -7.092958e+01  -5.727927e+01
  -2.940425e+01  -3.766069e+01
  -5.268737e+01   1.267331e+01
  -8.026929e+01   5.793060e+00
  -4.162752e+01  -4.510058e+01
   3.950764e+01  -8.598345e+01
   1.069394e+02  -5.092920e+01
   8.102137e+01   3.504304e+01
  -1.377267e+01   1.039436e+02
  -1.437300e+02   7.290042e+01
  -1.914589e+02  -5.603040e+01
  -8.845820e+01  -1.935213e+02
   9.801323e+01  -2.242016e+02
   2.540619e+02  -7.788980e+01
   2.493226e+02   9.196384e+01
   1.109329e+02   1.778341e+02
  -4.027290e+01   1.480549e+02
  -8.789079e+01   8.182761e+01
  -7.403652e+01   6.503095e+01
  -7.093229e+01   8.300997e+01
  -8.521406e+01   6.760666e+01
  -1.300665e+02  -2.331694e+01
  -9.944164e+01  -1.470447e+02
  -2.884415e+01  -2.223132e+02
   9.379584e+01  -1.603457e+02
   1.836414e+02  -2.089091e+01
   1.225527e+02   1.194704e+02
   1.709145e+01   1.652160e+02
  -6.753025e+01   8.150063e+01
  -5.565308e+01  -2.788409e+00
   4.184287e+00  -3.900077e+01
   7.530209e+00  -3.631177e+01
  -3.743386e+01  -1.598992e+01
  -8.075951e+01  -2.149544e+01
  -4.341219e+01  -3.580371e+01
   6.338364e+01  -3.631369e+01
   1.506434e+02  -5.227439e+00
   1.438506e+02   6.413618e+01
   4.251358e+00   7.788869e+01
  -1.143351e+02   7.396584e+01
  -1.410663e+02   1.032988e+01
  -4.644752e+01  -4.176988e+01
   6.056584e+01  -3.774394e+01
   7.267407e+01   1.999421e+01
   6.287600e+00   6.241768e+01
  -5.328008e+01   5.557704e+01
  -5.984347e+01   1.974175e-01
  -4.895012e+01  -5.115925e+01
  -4.156454e+01  -3.918279e+01
  -6.180695e+01   2.742076e+00
  -6.445154e+01  -2.489236e+00
  -3.485732e+01  -6.585885e+01
   3.799808e+01  -1.336778e+02
   1.018828e+02  -1.346714e+02
   1.627784e+02  -3.291081e+01
   1.196151e+02   9.940524e+01
   2.644639e+00   1.185426e+02
  -7.849728e+01   5.710296e+01
  -5.954410e+01  -1.424007e+01
   5.792915e+01  -2.014291e+01
   1.315765e+02   4.289151e+01
   7.221467e+01   1.079055e+02
  -8.050243e+01   1.126401e+02
  -1.844856e+02   5.984158e+01
  -1.546000e+02  -3.755980e+01
  -3.820415e+01  -8.166764e+01
   5.565158e+01  -6.457303e+01
   4.740073e+01  -5.526083e+00
  -3.598247e+01   2.644005e+01
  -8.898732e+01  -2.589374e+01
  -3.713281e+01  -1.196522e+02
   9.441758e+01  -1.561279e+02
   1.555986e+02  -5.883237e+01
   1.193007e+02   1.083651e+02
   8.804717e+00   1.901572e+02
  -8.149602e+01   1.409098e+02
  -1.012436e+02  -7.819390e+00
  -5.305675e+01  -1.133037e+02
   7.185025e+00  -1.052300e+02
   4.436780e+01  -1.920497e+01
   4.828470e+01   3.432190e+01
   2.310248e+01   9.552479e+00
   3.182872e+00  -2.076012e+01
   1.982125e+01   1.433219e+01
   5.640449e+01   8.295281e+01
   3.791430e+01   1.081510e+02
  -4.441613e+01   4.445196e+01
  -1.310444e+02  -4.057299e+01
  -1.258152e+02  -7.690168e+01
  -1.656607e+01  -5.079641e+01
   8.419394e+01  -2.436496e+01
   8.924650e+01  -4.655975e+00
   1.226109e+01   7.626935e+00
  -3.751541e+01   2.163536e+01
  -1.523256e+01   1.567188e+01
   2.187192e+01   4.577734e-02
  -7.053819e+00  -8.648719e+00
  -6.952973e+01  -1.402160e+00
  -9.041748e+01  -2.125795e+01
  -8.908705e+00  -7.792767e+01
   1.214864e+02  -1.129247e+02
   1.841480e+02  -5.513895e+01
   1.306188e+02   6.539407e+01
   2.703656e+01   1.517838e+02
  -7.958621e+01   1.450317e+02
  -1.135284e+02   5.765692e+01
  -7.513391e+01  -1.970030e+01
  -2.352333e+01  -3.578765e+01
   3.585218e+00  -7.317057e+00
  -1.113838e+01  -5.247118e+00
  -3.048148e+01  -4.597788e+01
  -2.411512e+01  -9.080207e+01
   2.708915e+01  -6.834356e+01
   8.176724e+01   1.490365e+01
   6.688272e+01   1.116548e+02
   7.052721e+00   1.145070e+02
  -7.990603e+01   2.603866e+01
  -1.032430e+02  -7.461330e+01
  -3.434203e+01  -9.188654e+01
   6.362856e+01  -4.963356e+01
   9.222523e+01   8.151507e+00
   3.915286e+01   4.975694e+01
  -3.256338e+01   5.139591e+01
  -3.346619e+01   2.640501e+01
   3.210379e+01   1.448900e+00
   6.868176e+01  -4.644151e+00
   1.341149e+01   2.400075e+01
  -7.906154e+01   6.621637e+01
  -1.145485e+02   5.504711e+01
  -5.945612e+01  -1.476835e+01
   1.482668e+01  -7.934071e+01
   5.420696e+01  -7.324753e+01
   3.857347e+01  -2.225229e+00
   4.931600e+00   5.368193e+01
  -2.547386e+01   4.059769e+01
  -3.885874e+01  -1.559400e+01
  -2.894791e+01  -5.328311e+01
   4.643372e+00  -3.004157e+01
   3.182482e+01   9.925940e+00
   3.607884e+01   2.093547e+01
   1.943945e+01   1.571527e+00
  -3.394346e-01  -1.311271e+01
  -9.957895e+00   1.331261e+00
  -3.375456e+00   3.446098e+01
  -1.388913e+01   4.267281e+01
  -3.269845e+01   7.610287e+00
  -2.984139e+01  -4.817881e+01
   7.388907e+00  -5.648492e+01
   4.412423e+01  -2.013698e+01
   5.326928e+01   3.794808e+01
   1.550072e+01   6.414110e+01
  -5.278777e+01   3.084597e+01
  -8.814801e+01  -1.802288e+01
  -4.793931e+01  -4.478420e+01
   3.031940e+01  -4.289594e+01
   6.423627e+01  -1.999706e+01
   2.314019e+01  -2.789187e+00
  -3.605877e+01  -2.660158e+00
  -3.793783e+01  -1.739969e+01
   3.107486e+01  -2.852572e+01
   8.592270e+01  -1.617792e+01
