
 $NMID
 id='ANONYMOUS ', fmtdat='(2E16.6)'
 volume=1.0
 tramp=1.0
 $END
  -4.427362e+03  -2.690573e+02
  -1.998909e+03  -2.726872e+03
   1.192100e+03  -2.383193e+03
   1.843039e+03  -9.470984e+02
   6.300303e+02   8.097939e+02
  -5.777058e+02   4.493684e+02
  -7.654449e+02  -4.572708e+02
  -2.001097e+00  -1.051458e+03
   7.415803e+02  -6.562567e+02
   8.072771e+02   9.364569e+01
   3.673044e+02   8.656545e+02
  -2.206237e+02   7.675313e+02
  -6.216083e+02   7.525238e+01
  -3.131989e+02  -7.333660e+02
   3.479597e+02  -6.646457e+02
   5.716611e+02   3.690412e+01
   1.799098e+02   6.539930e+02
  -2.735882e+02   5.490667e+02
  -5.932039e+02   6.858659e+01
  -3.377585e+02  -3.474053e+02
  -1.817909e+01  -4.236423e+02
   2.178290e+02  -2.424423e+02
   1.737031e+02  -5.815546e+00
  -2.047220e+02   7.014641e+01
  -4.209677e+02  -1.673667e+02
  -1.531038e+02  -4.627042e+02
   5.300149e+02  -4.154893e+02
   7.838144e+02   9.658652e+01
   4.468032e+02   5.741851e+02
  -4.161017e+02   5.023105e+02
  -7.667029e+02  -9.441402e+01
  -2.306645e+02  -5.069491e+02
   3.429933e+02  -5.046841e+02
   6.166096e+02  -1.804335e+02
   3.787524e+02   2.430544e+02
   5.273807e+01   4.370395e+02
  -1.718694e+02   2.342409e+02
  -1.499268e+02  -2.594829e+02
   3.288766e+02  -3.914901e+02
   4.546622e+02   9.469098e+01
   1.994158e+02   6.674855e+02
  -4.445206e+02   6.632799e+02
  -5.817245e+02  -2.584656e+01
  -1.686261e+02  -5.717904e+02
   3.558998e+02  -2.299231e+02
   3.876997e+02   3.661211e+02
  -1.523522e+02   5.839473e+02
  -5.469835e+02   1.367723e+02
  -5.651095e+02  -4.303175e+02
  -1.864649e+02  -6.175949e+02
   3.953424e+02  -3.285590e+02
   6.032063e+02   9.235520e+01
   3.102939e+02   3.929721e+02
  -1.780705e+02   3.287693e+02
  -3.736799e+02   2.554757e+01
  -2.095811e+02  -1.849001e+02
   1.483433e+02  -8.840186e+01
   1.065576e+02   1.770596e+02
  -2.024436e+02   1.820188e+02
  -3.265923e+02  -8.399251e+01
  -1.202167e+02  -2.453684e+02
   2.168142e+02  -2.676642e+02
   3.229016e+02  -6.126177e+01
   1.942237e+02   5.833800e+01
   1.073280e+00   2.334573e+02
  -2.345700e+02   3.289339e+02
  -3.453463e+02   2.247963e+02
  -2.794200e+02  -1.460782e+02
  -1.038187e+02  -4.402091e+02
   1.297928e+02  -3.861812e+02
   1.024094e+02  -8.603529e+01
   1.491564e+01  -1.058518e+00
   4.584724e+01  -1.016801e+02
   2.165125e+02  -1.454660e+02
   2.915422e+02   7.412125e+01
   1.370653e+02   2.895422e+02
  -7.418981e+01   2.485445e+02
  -2.298140e+02  -2.679523e+01
  -2.127810e+02  -2.406200e+02
   1.712422e+01  -3.138209e+02
   2.720137e+02  -8.524102e+01
   3.568905e+02   1.791492e+02
   1.795692e+02   3.750594e+02
  -1.087489e+02   3.078450e+02
  -2.070858e+02   1.123093e+02
  -1.352804e+02   1.475219e+01
  -8.938648e+01   4.198098e+01
  -2.417909e+02   7.300916e+01
  -4.007642e+02  -7.967507e+01
  -3.443693e+02  -3.166307e+02
   2.629103e+01  -4.421939e+02
   3.736365e+02  -3.903025e+02
   5.022659e+02  -1.839955e+02
   3.450424e+02   9.034616e+01
   3.249583e+01   2.897414e+02
  -1.317405e+02   2.459806e+02
  -7.288380e+01   2.396353e+01
   1.037582e+02  -1.020562e+02
   1.907861e+02   2.700536e+01
   3.521054e+01   1.897453e+02
  -1.527300e+02   1.742761e+02
  -1.630534e+02  -7.909618e+01
   2.444014e+01  -2.030305e+02
   1.962590e+02  -1.234836e+01
   1.684570e+02   2.722826e+02
  -3.274223e+01   3.432044e+02
  -2.352212e+02   1.925273e+02
  -3.487795e+02  -7.271423e+01
  -2.905970e+02  -2.603597e+02
  -9.197564e+01  -2.694972e+02
   1.185105e+02  -1.641915e+02
   1.748180e+02  -1.281981e+01
   5.732418e+01   3.249232e+01
  -6.721380e+01  -4.028201e+01
  -2.314474e+01  -1.442250e+02
   1.227589e+02  -9.554818e+01
   1.722112e+02   1.872742e+01
   5.285587e+01   7.431874e+01
  -8.481657e+01   2.088840e+01
  -5.884964e+01  -7.656620e+01
   1.241140e+02  -7.986457e+01
   2.741949e+02   4.452202e+00
   2.676115e+02   1.411820e+02
   4.391250e+01   2.558872e+02
  -1.876888e+02   2.623546e+02
  -3.017206e+02   1.218432e+02
  -1.737650e+02  -5.950931e+01
   3.822838e+01  -9.752903e+01
   1.083282e+02  -1.271238e+00
  -3.503845e+01   9.573119e+01
  -2.007803e+02   5.236512e+01
  -2.172640e+02  -1.004172e+02
  -4.811080e+01  -2.187663e+02
   1.047160e+02  -1.522037e+02
   1.421323e+02  -2.114974e+01
   6.586401e+01   5.051738e+01
  -3.115864e+01   1.066043e+01
  -4.496983e+01  -8.337269e+01
   6.575863e+01  -1.192035e+02
   1.916727e+02  -2.630240e+01
   1.899004e+02   1.323277e+02
   1.396232e+01   2.251089e+02
  -1.741043e+02   1.660498e+02
  -1.863930e+02  -5.944063e+00
  -5.961305e+01  -1.148677e+02
   7.894169e+01  -1.123434e+02
   8.659966e+01  -2.511317e+01
   1.589057e+01   2.950668e+01
  -2.461446e+01   2.085368e+01
   1.052197e+01  -1.370997e+01
   7.211916e+01  -1.256838e+00
   9.366323e+01   8.281494e+01
   1.208828e+01   1.559520e+02
  -1.374009e+02   1.553917e+02
  -2.264918e+02   2.830697e+01
  -1.977584e+02  -1.691966e+02
  -3.960417e+01  -2.392356e+02
   1.196726e+02  -1.647841e+02
   1.327226e+02  -2.071980e+01
   6.786675e+01   5.279955e+01
   2.577051e+01   3.327153e+01
   5.387142e+01  -1.493287e+01
   7.860212e+01  -6.515090e+00
   4.117829e+01   5.035116e+01
  -3.826164e+01   9.276194e+01
  -1.021319e+02   5.010957e+01
  -8.612613e+01  -3.157486e+01
   1.028891e+01  -1.045514e+02
   1.362119e+02  -8.704104e+01
   1.908489e+02   4.514683e+01
   1.016717e+02   2.104128e+02
  -1.078274e+02   2.383799e+02
  -2.750141e+02   1.013444e+02
  -2.379171e+02  -9.038519e+01
  -1.164603e+02  -1.704554e+02
   5.497799e+01  -1.510428e+02
   9.173264e+01  -7.668738e+01
   7.521495e+01  -6.637822e+01
   6.665543e+01  -9.027613e+01
   8.686914e+01  -6.908941e+01
   1.273762e+02   2.247717e+01
   1.201146e+02   1.507537e+02
   3.073282e+01   2.361286e+02
  -8.493963e+01   1.693533e+02
  -1.831057e+02   1.963807e+01
  -1.417020e+02  -1.196773e+02
  -2.026201e+01  -1.529503e+02
   6.567957e+01  -8.799254e+01
   6.006665e+01  -3.227169e+00
   6.288555e+00   4.497708e+01
  -1.012926e+01   3.751943e+01
   3.293486e+01   2.079009e+01
   7.777477e+01   2.276622e+01
   4.429128e+01   3.499237e+01
  -6.187068e+01   3.523499e+01
  -1.620411e+02  -1.886181e+00
  -1.487642e+02  -4.390187e+01
  -1.683199e+01  -9.143678e+01
   1.278355e+02  -7.588900e+01
   1.497561e+02  -7.626863e+00
   5.007405e+01   4.307735e+01
  -5.870921e+01   3.708965e+01
  -7.917001e+01  -1.978026e+01
  -5.149992e+00  -6.643311e+01
   5.914910e+01  -5.671936e+01
   6.565488e+01  -4.857150e-01
   4.462421e+01   4.607365e+01
   4.152826e+01   4.401275e+01
   5.996430e+01   3.721073e+00
   6.165280e+01  -5.217014e-01
   3.688356e+01   6.239290e+01
  -2.652061e+01   1.418786e+02
  -1.198088e+02   1.492789e+02
  -1.717271e+02   3.680648e+01
  -1.242429e+02  -8.813489e+01
  -1.862874e+00  -1.220404e+02
   8.785666e+01  -6.039256e+01
   5.966763e+01   1.398332e+01
  -5.254556e+01   1.842377e+01
  -1.359900e+02  -3.909290e+01
  -6.802735e+01  -1.058351e+02
   9.257652e+01  -1.100544e+02
   1.853036e+02  -5.541525e+01
   1.638053e+02   2.837779e+01
   2.641778e+01   8.403957e+01
  -6.186235e+01   6.858047e+01
  -5.526311e+01   3.683348e+00
   3.933350e+01  -2.846915e+01
   9.083331e+01   1.911801e+01
   3.176943e+01   1.131822e+02
  -8.290185e+01   1.511739e+02
  -1.647834e+02   6.151049e+01
  -1.249129e+02  -1.083100e+02
  -5.831392e+00  -1.986765e+02
   8.240886e+01  -1.307579e+02
   1.026673e+02   4.909603e+00
   5.450132e+01   1.149858e+02
  -4.266976e+00   1.039470e+02
  -4.741692e+01   2.084756e+01
  -4.926800e+01  -3.085150e+01
  -2.414264e+01  -1.163401e+01
  -6.500446e+00   2.083667e+01
  -1.924426e+01  -1.449537e+01
  -5.606974e+01  -8.087279e+01
  -4.416635e+01  -1.105841e+02
   5.026385e+01  -4.887255e+01
   1.317097e+02   4.208512e+01
   1.326265e+02   7.705834e+01
   1.692662e+01   4.866584e+01
  -8.493149e+01   2.014455e+01
  -8.768933e+01   5.201690e+00
  -1.218977e+01  -3.592404e+00
   3.926737e+01  -2.292867e+01
   1.547018e+01  -1.894359e+01
  -1.892410e+01   1.761804e+00
   5.007522e+00   9.595835e+00
   6.986174e+01   4.767526e+00
   8.893522e+01   2.495359e+01
   1.112529e+01   7.452277e+01
  -1.199058e+02   1.095646e+02
  -1.778639e+02   4.163146e+01
  -1.322859e+02  -6.272269e+01
  -2.843553e+01  -1.633543e+02
   7.970389e+01  -1.562510e+02
   1.118113e+02  -5.853014e+01
   7.559490e+01   1.805394e+01
   2.501945e+01   3.478847e+01
  -2.502549e+00   7.318689e+00
   1.129584e+01   4.293269e+00
   3.093372e+01   4.690275e+01
   2.041861e+01   9.039149e+01
  -2.335397e+01   6.850171e+01
  -7.646708e+01  -2.004060e+01
  -7.396104e+01  -1.086050e+02
   2.197043e+00  -1.027088e+02
   8.029265e+01  -2.052423e+01
   9.779007e+01   7.989749e+01
   3.057511e+01   9.626916e+01
  -6.475350e+01   5.105106e+01
  -9.583668e+01  -1.355302e+01
  -4.078925e+01  -4.604388e+01
   3.058254e+01  -5.263179e+01
   3.272704e+01  -2.993405e+01
  -3.209266e+01  -1.159649e+00
  -6.693524e+01   7.882557e+00
  -1.407480e+01  -2.350536e+01
   7.511705e+01  -6.324635e+01
   1.224906e+02  -6.266075e+01
   6.036336e+01   6.397706e+00
  -1.365825e+01   7.715602e+01
  -4.885614e+01   7.962820e+01
  -3.769172e+01   7.890349e+00
   8.996028e-01  -5.487294e+01
   2.635679e+01  -4.227141e+01
   3.370686e+01   2.024623e+01
   2.497127e+01   4.996440e+01
  -8.746610e-01   3.163982e+01
  -3.096948e+01  -6.624788e+00
  -3.877409e+01  -2.168872e+01
  -2.106688e+01  -1.963699e-01
   2.794508e+00   1.231721e+01
   1.028024e+01  -2.648574e+00
   7.496799e+00  -3.442883e+01
   1.591380e+01  -4.193824e+01
   2.611567e+01  -8.059244e+00
   2.819545e+01   3.859075e+01
  -6.206253e-01   5.237271e+01
  -4.150333e+01   1.713798e+01
  -5.363410e+01  -3.389051e+01
  -1.650871e+01  -6.215212e+01
   5.311883e+01  -3.481222e+01
   8.964953e+01   1.575659e+01
   4.972099e+01   4.117354e+01
  -2.746436e+01   4.470181e+01
  -6.452683e+01   1.880594e+01
  -2.425678e+01   3.964500e+00
   3.364990e+01   1.545590e+00
   3.353047e+01   1.445800e+01
  -2.788365e+01   3.014998e+01
  -8.843584e+01   1.691386e+01
