
 $NMID
 id='ANONYMOUS ', fmtdat='(2E16.6)'
 volume=1.0
 tramp=1.0
 $END
  -4.512657e+03  -9.442341e+01
  -2.574120e+03  -2.692492e+03
   6.783781e+02  -3.080579e+03
   2.336216e+03  -9.323120e+02
   9.684331e+02   7.883044e+02
  -7.204380e+02   6.171750e+02
  -9.375162e+02  -4.565110e+02
  -2.833476e+01  -1.104964e+03
   8.876710e+02  -9.121688e+02
   9.909575e+02   1.702199e+02
   3.863122e+02   8.993748e+02
  -3.384584e+02   9.632831e+02
  -6.572244e+02   6.452162e+01
  -3.905665e+02  -7.912405e+02
   3.268104e+02  -8.560226e+02
   6.731280e+02   1.890896e+01
   3.551607e+02   7.408750e+02
  -3.592525e+02   7.227871e+02
  -6.036815e+02   1.002969e+02
  -4.471358e+02  -3.959678e+02
  -1.906401e+01  -4.519124e+02
   2.687862e+02  -2.764045e+02
   2.446670e+02  -1.954324e+01
  -1.078497e+02   1.079437e+02
  -4.639305e+02  -9.827707e+01
  -2.404982e+02  -4.157960e+02
   5.054072e+02  -4.628335e+02
   9.159018e+02  -3.511312e+01
   4.632540e+02   5.365218e+02
  -3.754648e+02   5.185863e+02
  -7.216680e+02  -5.148149e+01
  -4.123527e+02  -4.784391e+02
   2.942807e+02  -5.640206e+02
   5.961332e+02  -1.881585e+02
   4.670904e+02   2.461603e+02
   6.648030e+01   5.176908e+02
  -2.102093e+02   3.263866e+02
  -2.151981e+02  -2.045692e+02
   1.993243e+02  -5.063580e+02
   4.747341e+02  -3.606089e+01
   2.889790e+02   7.617178e+02
  -3.528422e+02   7.640039e+02
  -6.356526e+02   6.222387e+00
  -2.905976e+02  -5.251763e+02
   2.836802e+02  -3.388307e+02
   4.007361e+02   3.236065e+02
  -5.669858e+01   5.304241e+02
  -5.952279e+02   1.810637e+02
  -6.349097e+02  -4.302026e+02
  -1.831206e+02  -5.977075e+02
   3.895806e+02  -3.466784e+02
   6.795027e+02   9.324901e+01
   4.040935e+02   3.999923e+02
  -1.261056e+02   3.953019e+02
  -4.983729e+02   1.169395e+02
  -2.880140e+02  -2.200774e+02
   1.176974e+02  -1.133879e+02
   1.677639e+02   1.584847e+02
  -1.653251e+02   1.828963e+02
  -3.417705e+02  -5.480545e+01
  -1.628417e+02  -3.485929e+02
   2.288485e+02  -2.755501e+02
   3.354439e+02  -6.718293e+01
   1.926822e+02   9.321972e+01
  -6.926187e+01   2.078557e+02
  -2.455807e+02   3.481757e+02
  -3.348440e+02   2.199711e+02
  -3.160818e+02  -1.041792e+02
  -7.388924e+01  -4.435356e+02
   1.058279e+02  -4.229594e+02
   1.665122e+02  -1.005318e+02
   2.241824e+01   2.994438e+01
   2.685250e+01  -9.602602e+01
   1.777781e+02  -1.287013e+02
   2.669080e+02   5.130886e+01
   1.807413e+02   2.729502e+02
  -5.794348e+01   2.938301e+02
  -2.379990e+02   4.039603e+01
  -2.067391e+02  -2.523918e+02
   1.390210e+01  -2.864503e+02
   2.671533e+02  -1.345951e+02
   3.833162e+02   1.965513e+02
   1.696574e+02   3.682147e+02
  -1.098898e+02   3.046372e+02
  -2.406289e+02   1.487400e+02
  -1.699479e+02   2.406449e+00
  -1.046266e+02   3.268232e+01
  -2.437366e+02   7.167611e+01
  -4.201574e+02  -5.882630e+01
  -3.218393e+02  -2.586074e+02
  -2.092158e+01  -4.511494e+02
   3.633845e+02  -4.231756e+02
   5.045051e+02  -1.905138e+02
   3.312566e+02   1.067629e+02
   8.137539e+01   3.132139e+02
  -1.294255e+02   2.670369e+02
  -9.280330e+01   3.273673e+01
   8.866141e+01  -1.183603e+02
   2.015739e+02  -1.004725e+01
   6.441796e+01   2.096185e+02
  -1.653226e+02   1.975971e+02
  -2.139491e+02  -6.811198e+01
   2.087013e+01  -2.012624e+02
   2.035625e+02  -5.110907e+01
   1.537154e+02   2.702987e+02
  -2.875803e+01   3.630431e+02
  -2.392567e+02   1.771936e+02
  -3.045777e+02  -6.335778e+01
  -2.703177e+02  -2.468062e+02
  -9.600944e+01  -2.751546e+02
   1.156049e+02  -1.683796e+02
   1.874673e+02  -1.028759e+01
   6.114136e+01   3.338241e+01
  -7.212371e+01  -4.032985e+01
  -3.733586e+01  -1.242335e+02
   1.227755e+02  -1.089235e+02
   1.868340e+02   4.838213e+00
   6.131296e+01   7.279436e+01
  -7.916559e+01   2.616390e+01
  -6.007414e+01  -6.645353e+01
   1.173188e+02  -9.978888e+01
   2.723706e+02  -1.566856e+01
   2.560016e+02   1.425144e+02
   6.953669e+01   2.571493e+02
  -1.890864e+02   2.644711e+02
  -2.741623e+02   1.393987e+02
  -1.774458e+02  -4.695207e+01
   1.305981e+01  -1.277840e+02
   8.413407e+01  -9.254670e+00
  -2.362493e+01   1.066891e+02
  -2.066183e+02   7.324064e+01
  -2.233622e+02  -8.851216e+01
  -8.520112e+01  -2.202823e+02
   8.600311e+01  -1.754504e+02
   1.536677e+02  -3.375296e+01
   7.504196e+01   3.518377e+01
  -2.299614e+01  -3.425369e+00
  -3.538264e+01  -8.282444e+01
   6.344858e+01  -1.130558e+02
   1.980332e+02  -2.866333e+01
   1.989413e+02   1.222671e+02
   3.075587e+01   2.273558e+02
  -1.681488e+02   1.642425e+02
  -2.061795e+02   1.243640e+01
  -7.137096e+01  -1.218190e+02
   6.487645e+01  -1.200460e+02
   8.530996e+01  -3.427895e+01
   2.206199e+01   2.661076e+01
  -1.909653e+01   2.157322e+01
   1.243676e+01  -3.966118e+00
   7.137150e+01   1.222160e+01
   8.437668e+01   8.580470e+01
   2.035467e+01   1.577966e+02
  -1.107342e+02   1.479648e+02
  -2.227202e+02   4.257755e+01
  -2.107997e+02  -1.329883e+02
  -4.513231e+01  -2.509632e+02
   1.074978e+02  -1.677749e+02
   1.363069e+02  -3.106870e+01
   7.762941e+01   5.541969e+01
   2.897811e+01   3.823165e+01
   5.296200e+01  -1.102486e+01
   7.990466e+01  -5.326467e+00
   4.225681e+01   5.080598e+01
  -5.059430e+01   8.101474e+01
  -1.043655e+02   5.094783e+01
  -8.563669e+01  -2.721410e+01
   1.265662e+01  -1.068262e+02
   1.408242e+02  -8.649683e+01
   1.901183e+02   3.960419e+01
   1.030230e+02   1.888401e+02
  -1.004052e+02   2.156256e+02
  -2.776287e+02   1.084806e+02
  -2.739821e+02  -7.330450e+01
  -1.281760e+02  -1.761364e+02
   3.463086e+01  -1.433686e+02
   9.290851e+01  -8.889985e+01
   8.230716e+01  -7.422386e+01
   6.733800e+01  -8.963133e+01
   9.234268e+01  -7.974137e+01
   1.230469e+02   2.201569e+01
   1.147919e+02   1.490518e+02
   1.798230e+01   2.249717e+02
  -8.988340e+01   1.813714e+02
  -1.713769e+02   1.714653e+01
  -1.367177e+02  -1.203867e+02
  -2.273928e+01  -1.628745e+02
   6.134290e+01  -9.934033e+01
   5.995936e+01  -3.244244e+00
   5.069467e+00   4.174922e+01
  -4.992403e+00   3.548925e+01
   3.814859e+01   1.626038e+01
   7.965219e+01   2.757814e+01
   4.640863e+01   3.734946e+01
  -6.493609e+01   3.514878e+01
  -1.550874e+02   3.400729e+00
  -1.443024e+02  -4.591301e+01
  -2.516747e+01  -8.270386e+01
   1.203526e+02  -7.243730e+01
   1.407458e+02  -1.501580e+01
   4.825428e+01   3.912626e+01
  -6.345873e+01   3.683492e+01
  -7.072810e+01  -2.254415e+01
  -4.738998e+00  -6.565179e+01
   5.534891e+01  -5.920681e+01
   6.316962e+01   4.933194e+00
   3.717400e+01   5.152441e+01
   4.140771e+01   4.152439e+01
   6.180654e+01   3.133095e+00
   6.606970e+01   2.576621e+00
   3.667094e+01   6.988505e+01
  -3.735572e+01   1.491153e+02
  -1.068736e+02   1.339004e+02
  -1.575882e+02   3.114287e+01
  -1.163789e+02  -9.366752e+01
  -8.715722e+00  -1.275060e+02
   8.715565e+01  -5.769425e+01
   6.010975e+01   1.606247e+01
  -5.842090e+01   2.316982e+01
  -1.381846e+02  -4.719784e+01
  -8.906433e+01  -1.091696e+02
   7.756785e+01  -1.112142e+02
   1.920598e+02  -5.492714e+01
   1.588929e+02   4.273450e+01
   4.430593e+01   8.254534e+01
  -5.544840e+01   7.340608e+01
  -4.524119e+01   7.753667e+00
   4.069595e+01  -2.767942e+01
   8.901746e+01   2.719091e+01
   3.156114e+01   1.179636e+02
  -8.611245e+01   1.611846e+02
  -1.806457e+02   5.680151e+01
  -1.278676e+02  -1.009115e+02
  -1.004786e+01  -1.961784e+02
   8.039861e+01  -1.561364e+02
   1.077173e+02   5.737493e+00
   6.869600e+01   1.189935e+02
   5.775247e-01   1.149600e+02
  -4.125853e+01   2.241793e+01
  -5.564205e+01  -3.052481e+01
  -2.889961e+01  -7.465010e+00
  -1.966455e+00   2.045202e+01
  -2.048660e+01  -1.504068e+01
  -5.670105e+01  -8.711513e+01
  -4.477595e+01  -1.090149e+02
   4.043278e+01  -4.564712e+01
   1.371998e+02   4.521417e+01
   1.287367e+02   6.696117e+01
   1.927278e+01   5.060357e+01
  -8.514722e+01   2.015619e+01
  -9.025542e+01   9.923703e+00
  -1.129598e+01  -7.938700e+00
   4.081738e+01  -2.162445e+01
   1.309399e+01  -1.984362e+01
  -2.214291e+01   9.292449e-01
   7.613082e+00   8.564036e+00
   7.456742e+01   2.255627e+00
   9.424062e+01   2.551982e+01
   8.131934e+00   8.235656e+01
  -1.192248e+02   1.193248e+02
  -1.836351e+02   5.802360e+01
  -1.516444e+02  -6.238905e+01
  -1.641457e+01  -1.635871e+02
   8.367763e+01  -1.457488e+02
   1.117472e+02  -5.300387e+01
   8.335835e+01   2.173223e+01
   2.505768e+01   3.483150e+01
  -3.479968e+00   8.206505e+00
   9.559792e+00   3.410253e+00
   3.225260e+01   4.504878e+01
   1.996087e+01   8.640306e+01
  -3.164527e+01   7.295845e+01
  -7.933514e+01  -2.222950e+01
  -7.614429e+01  -1.172169e+02
  -8.318571e+00  -1.156624e+02
   8.477671e+01  -2.459098e+01
   1.012222e+02   7.805810e+01
   3.242629e+01   1.088180e+02
  -6.738740e+01   5.598243e+01
  -9.363223e+01  -1.223121e+01
  -3.869944e+01  -5.027839e+01
   3.264003e+01  -5.048010e+01
   3.016596e+01  -2.922118e+01
  -3.821340e+01  -1.961486e+00
  -6.959683e+01   5.409131e+00
  -1.266094e+01  -2.447129e+01
   8.340156e+01  -6.904342e+01
   1.151446e+02  -5.231427e+01
   6.225522e+01   1.285121e+01
  -1.500081e+01   8.572914e+01
  -5.202314e+01   7.857918e+01
  -3.600830e+01   3.083779e+00
   5.478767e-01  -5.770979e+01
   2.577241e+01  -4.286708e+01
   3.802980e+01   1.686842e+01
   2.722185e+01   5.683632e+01
  -2.613977e+00   3.240305e+01
  -3.473951e+01  -1.003754e+01
  -3.616236e+01  -1.960543e+01
  -1.986439e+01  -2.252653e-01
  -2.196811e-01   1.480058e+01
   6.188415e+00  -6.227962e+00
   7.839879e+00  -3.543791e+01
   2.093118e+01  -4.322028e+01
   3.520156e+01  -5.579207e+00
   2.784555e+01   5.102533e+01
  -2.067485e+00   6.358038e+01
  -4.422467e+01   2.168549e+01
  -5.487182e+01  -4.112472e+01
  -1.192741e+01  -6.347930e+01
   5.473006e+01  -3.583711e+01
   8.730809e+01   1.358937e+01
   4.813435e+01   4.223871e+01
  -2.952518e+01   4.160104e+01
  -6.935272e+01   2.265387e+01
  -2.440139e+01   3.726426e+00
   4.141859e+01   3.358002e+00
   3.689706e+01   1.917940e+01
  -3.327433e+01   3.488932e+01
  -9.977854e+01   1.768682e+01
