
 $NMID
 id='ANONYMOUS ', fmtdat='(2E16.6)'
 volume=1.0
 tramp=1.0
 $END
   3.496176e+03  -2.578750e+02
   2.281799e+03   1.968960e+03
  -1.023658e+02   1.923693e+03
  -1.366541e+03   1.395155e+03
  -9.740252e+02  -1.751585e+01
   2.815694e+01  -2.722501e+02
   4.367546e+02   2.259965e+02
   4.208068e+01   5.988766e+02
  -5.385164e+02   6.908435e+02
  -6.125721e+02   3.668410e+01
  -4.233376e+02  -6.215254e+02
   6.202737e+01  -7.951488e+02
   3.155422e+02  -2.118112e+02
   2.837152e+02   4.908610e+02
  -6.217430e+01   6.411879e+02
  -5.310314e+02   5.338020e+01
  -3.373745e+02  -5.083750e+02
   1.043485e+02  -6.042137e+02
   5.334579e+02  -2.408199e+02
   4.405794e+02   1.816872e+02
   8.784880e+01   3.725534e+02
  -1.458439e+02   2.514355e+02
  -1.283778e+02   9.038928e+01
   1.684291e+02   5.922250e+01
   2.450512e+02   2.774212e+02
  -8.044942e-01   3.534397e+02
  -5.014828e+02   2.594511e+02
  -6.441304e+02  -8.467136e+01
  -2.220327e+02  -4.293105e+02
   3.582344e+02  -3.468424e+02
   6.174677e+02   1.433417e+02
   2.359460e+02   3.691717e+02
  -2.839969e+02   4.033980e+02
  -4.626489e+02   1.374013e+02
  -3.691258e+02  -1.923222e+02
  -4.670370e+01  -3.806648e+02
   8.204716e+01  -2.095162e+02
  -1.814252e+01   8.280616e+01
  -2.468643e+02   2.674623e+02
  -2.192171e+02  -1.238825e+02
  -5.350872e+01  -5.440923e+02
   2.656895e+02  -4.968621e+02
   4.402918e+02   6.137327e+01
   1.437606e+02   3.836895e+02
  -2.081935e+02   1.474470e+02
  -1.903246e+02  -2.667713e+02
   1.214095e+02  -4.358763e+02
   5.276838e+02  -8.693892e+01
   5.253631e+02   3.852232e+02
   1.387218e+02   5.147645e+02
  -3.289406e+02   2.833190e+02
  -5.992023e+02  -4.804672e+01
  -3.652086e+02  -2.754369e+02
   8.195664e+01  -2.694212e+02
   3.055225e+02  -9.119662e+01
   2.414886e+02   1.036113e+02
  -4.638482e+01   7.169743e+01
  -1.249032e+02  -8.444201e+01
   1.041357e+02  -5.904111e+01
   2.777519e+02   5.763785e+01
   1.476182e+02   2.282019e+02
  -1.410243e+02   2.579778e+02
  -3.560971e+02   1.224460e+02
  -2.664415e+02  -8.608628e+01
   7.247849e+00  -3.011955e+02
   2.908368e+02  -3.974097e+02
   3.737570e+02  -1.795377e+02
   2.315770e+02   1.438274e+02
   5.265297e+01   3.804631e+02
  -4.724299e+01   3.164811e+02
  -4.961230e+01   1.725885e+02
  -4.673391e+01   9.022765e+01
  -1.147005e+02   1.163432e+02
  -2.537133e+02   7.985345e+01
  -2.496778e+02  -1.158625e+02
  -1.277137e+02  -2.677624e+02
   9.060410e+01  -2.256834e+02
   1.971608e+02   2.455934e+01
   1.318021e+02   2.458871e+02
  -5.285137e+01   2.827881e+02
  -2.630093e+02   8.971052e+01
  -3.234910e+02  -1.646258e+02
  -1.799804e+02  -3.381785e+02
   6.428007e+01  -2.755441e+02
   1.757509e+02  -1.501699e+02
   1.457250e+02  -6.669841e+01
   1.402138e+02  -6.427912e+01
   2.792824e+02  -4.066684e+01
   3.999866e+02   9.088807e+01
   3.557897e+02   2.923694e+02
  -7.681490e+00   4.218549e+02
  -3.806605e+02   4.136620e+02
  -4.706650e+02   1.726302e+02
  -3.134263e+02  -1.063380e+02
  -2.287701e+01  -2.418074e+02
   1.144718e+02  -2.118986e+02
   2.601029e+01  -3.484638e+01
  -1.199178e+02   6.205734e+01
  -1.563786e+02  -5.209590e+01
  -2.309057e+01  -1.662548e+02
   1.458222e+02  -1.502095e+02
   1.309016e+02   7.403670e+01
  -1.464472e+01   1.694861e+02
  -1.817036e+02   1.425529e+01
  -1.600508e+02  -2.461138e+02
   1.501263e+01  -3.364788e+02
   2.479459e+02  -2.136092e+02
   3.721938e+02   5.641746e+01
   2.927608e+02   2.578583e+02
   6.718746e+01   2.737747e+02
  -1.256074e+02   1.473262e+02
  -1.649138e+02   1.590861e+01
  -4.016076e+01  -2.218948e+01
   6.134611e+01   5.406011e+01
   1.314260e+01   1.309665e+02
  -1.208375e+02   7.881875e+01
  -1.496523e+02  -9.679723e+00
  -2.895304e+01  -5.907330e+01
   8.135185e+01   3.875797e+00
   4.967854e+01   8.654779e+01
  -1.453396e+02   9.915327e+01
  -3.120718e+02  -2.840968e+00
  -2.808399e+02  -1.619861e+02
  -4.307661e+01  -2.678862e+02
   1.959492e+02  -2.459470e+02
   2.845190e+02  -1.158650e+02
   1.430004e+02   4.556288e+01
  -3.193866e+01   9.240767e+01
  -7.308211e+01  -4.393614e+00
   5.091498e+01  -8.660798e+01
   1.903869e+02  -3.954880e+01
   1.967987e+02   1.019283e+02
   6.170156e+01   1.902293e+02
  -8.247706e+01   1.377374e+02
  -1.325696e+02   2.653029e+01
  -5.890130e+01  -3.590369e+01
   4.371401e+01   1.811082e+01
   2.903245e+01   1.054757e+02
  -9.384146e+01   1.207868e+02
  -2.108584e+02   7.511806e+00
  -1.961643e+02  -1.361940e+02
  -1.949824e+01  -2.233489e+02
   1.505110e+02  -1.491612e+02
   1.857423e+02  -1.554507e+01
   6.115392e+01   1.016265e+02
  -6.522150e+01   1.017956e+02
  -7.414009e+01   1.850431e+01
  -4.025929e+00  -2.541538e+01
   3.465205e+01  -1.376827e+01
  -9.410803e+00   2.257350e+01
  -8.695801e+01   4.137614e+00
  -1.062666e+02  -8.824838e+01
  -2.274921e+01  -1.752082e+02
   1.354030e+02  -1.536616e+02
   2.423283e+02  -1.955139e+01
   2.024502e+02   1.474981e+02
   4.038304e+01   2.373840e+02
  -1.047940e+02   1.750811e+02
  -1.368220e+02   3.338544e+01
  -7.806398e+01  -4.586381e+01
  -3.511720e+01  -2.986268e+01
  -5.567229e+01   1.223262e+01
  -8.639173e+01   6.943303e+00
  -5.409911e+01  -5.701100e+01
   4.203537e+01  -1.027985e+02
   1.256008e+02  -6.686397e+01
   1.045150e+02   4.353344e+01
  -9.457693e+00   1.348415e+02
  -1.607631e+02   9.787353e+01
  -2.088506e+02  -5.424901e+01
  -9.476540e+01  -2.135319e+02
   1.202908e+02  -2.281703e+02
   2.611416e+02  -1.023608e+02
   2.584115e+02   7.722889e+01
   1.040585e+02   1.811468e+02
  -3.732981e+01   1.393010e+02
  -8.747046e+01   8.219164e+01
  -7.325773e+01   7.423342e+01
  -5.234103e+01   9.240275e+01
  -9.294067e+01   8.559966e+01
  -1.387834e+02  -2.707986e+01
  -1.280642e+02  -1.538250e+02
  -2.714934e+01  -2.180042e+02
   9.374113e+01  -1.781075e+02
   1.779133e+02  -6.242010e+00
   1.343955e+02   1.336334e+02
   1.847697e+01   1.628485e+02
  -7.329697e+01   8.790306e+01
  -6.293846e+01  -1.052000e+01
   9.333199e-01  -5.657330e+01
   2.197760e+01  -3.393847e+01
  -2.753396e+01  -1.196556e+01
  -8.409351e+01  -1.345503e+01
  -5.215153e+01  -3.926062e+01
   7.632908e+01  -4.023745e+01
   1.745070e+02  -3.122442e+00
   1.538976e+02   5.222539e+01
   5.727041e+00   9.616954e+01
  -1.383685e+02   8.613702e+01
  -1.550818e+02   1.082717e+01
  -4.766698e+01  -4.945003e+01
   6.217404e+01  -4.818989e+01
   7.925075e+01   1.815393e+01
   1.924181e+01   7.183311e+01
  -4.710035e+01   6.688453e+01
  -7.078638e+01   3.263478e+00
  -5.575177e+01  -5.000996e+01
  -5.194447e+01  -4.628270e+01
  -5.870545e+01  -1.719177e+00
  -6.821482e+01  -2.899477e-01
  -4.833729e+01  -7.641164e+01
   2.629227e+01  -1.560672e+02
   1.311707e+02  -1.470441e+02
   1.839447e+02  -4.189668e+01
   1.286986e+02   8.869838e+01
   4.222539e+00   1.326734e+02
  -9.185923e+01   7.056523e+01
  -6.142513e+01  -7.607723e+00
   6.202523e+01  -2.184729e+01
   1.370205e+02   4.136395e+01
   8.040198e+01   1.054355e+02
  -8.470217e+01   1.114662e+02
  -1.833153e+02   4.406527e+01
  -1.661575e+02  -3.887390e+01
  -3.375379e+01  -8.812633e+01
   6.153664e+01  -6.159500e+01
   4.681636e+01  -3.230859e-01
  -3.840677e+01   3.180703e+01
  -9.683568e+01  -1.617815e+01
  -4.090940e+01  -1.190450e+02
   8.084568e+01  -1.619183e+02
   1.613436e+02  -7.798450e+01
   1.324260e+02   8.865872e+01
   2.170161e+01   1.992998e+02
  -8.428066e+01   1.414783e+02
  -1.064076e+02  -1.193712e+01
  -6.239764e+01  -1.282104e+02
   1.274016e+01  -1.037112e+02
   5.083440e+01  -1.590817e+01
   4.774776e+01   3.364419e+01
   2.027062e+01   9.276734e+00
   5.347860e+00  -1.772535e+01
   3.166307e+01   2.009039e+01
   5.690708e+01   9.155236e+01
   3.389932e+01   1.064779e+02
  -5.739752e+01   4.382522e+01
  -1.320252e+02  -3.670156e+01
  -1.256871e+02  -6.962545e+01
  -2.105046e+01  -5.286371e+01
   8.323925e+01  -2.850915e+01
   8.840476e+01  -9.624686e+00
   1.850671e+01   1.131695e+01
  -3.612904e+01   2.154856e+01
  -1.843656e+01   1.382408e+01
   1.426546e+01  -2.966885e+00
  -3.457099e+00  -5.662156e+00
  -6.791951e+01   3.311745e+00
  -9.357008e+01  -2.465889e+01
  -2.162962e+01  -8.469241e+01
   1.100189e+02  -1.217350e+02
   1.811420e+02  -7.570639e+01
   1.577238e+02   6.150072e+01
   3.324237e+01   1.604945e+02
  -8.302266e+01   1.598496e+02
  -1.091853e+02   7.078714e+01
  -8.490162e+01  -1.971631e+01
  -2.979895e+01  -3.923789e+01
  -1.767127e+00  -1.200849e+01
  -1.296215e+01  -6.926144e+00
  -3.048981e+01  -4.776626e+01
  -2.231521e+01  -9.257324e+01
   2.660751e+01  -7.180000e+01
   7.807730e+01   1.531573e+01
   8.175935e+01   9.858210e+01
   1.563104e+01   1.108046e+02
  -7.685447e+01   3.569336e+01
  -1.070776e+02  -7.002659e+01
  -4.539429e+01  -1.086479e+02
   5.884855e+01  -6.631333e+01
   1.041311e+02   7.401282e+00
   4.757775e+01   5.736950e+01
  -2.987613e+01   6.036497e+01
  -3.743747e+01   3.144179e+01
   2.498805e+01  -6.551086e+00
   7.133491e+01  -8.430897e+00
   1.908959e+01   2.835691e+01
  -7.785389e+01   6.991145e+01
  -1.267680e+02   6.231156e+01
  -7.127329e+01  -1.078820e+01
   1.115300e+01  -8.405187e+01
   5.883914e+01  -8.116654e+01
   4.406667e+01  -1.363871e+01
   7.343799e+00   5.675038e+01
  -2.272345e+01   4.756426e+01
  -3.591030e+01  -9.935396e+00
  -2.973260e+01  -5.582111e+01
  -7.501818e-01  -4.087443e+01
   3.276780e+01   4.096384e+00
   4.359140e+01   2.319628e+01
   2.220319e+01   3.128538e+00
  -4.841629e+00  -1.876774e+01
  -4.255620e+00  -8.470456e+00
   1.582479e+00   3.483569e+01
  -3.846740e+00   5.109630e+01
  -3.247773e+01   1.686500e+01
  -3.924144e+01  -3.450527e+01
  -1.321196e+01  -5.959651e+01
   4.582471e+01  -2.637551e+01
   6.491800e+01   3.382893e+01
   1.718245e+01   6.066156e+01
  -5.511208e+01   3.934499e+01
  -9.402137e+01  -3.303093e+00
  -5.274877e+01  -4.198842e+01
   2.811411e+01  -4.648122e+01
   6.680523e+01  -2.969912e+01
   2.862229e+01  -9.185293e+00
  -3.255656e+01   5.718781e+00
  -3.585706e+01  -7.748822e+00
   2.199201e+01  -2.837793e+01
   8.143308e+01  -2.393303e+01
