
 $NMID
 id='ANONYMOUS ', fmtdat='(2E16.6)'
 volume=1.0
 tramp=1.0
 $END
  -3.770822e+03  -2.045115e+02
  -2.331310e+03  -2.249373e+03
   1.947594e+02  -2.427344e+03
   1.916281e+03  -1.070855e+03
   8.440468e+02   1.731657e+02
  -3.186529e+02   4.713753e+02
  -5.815416e+02  -3.570929e+02
  -1.274610e+02  -8.632945e+02
   6.534600e+02  -6.819289e+02
   8.183475e+02  -1.041497e+02
   4.001170e+02   7.314082e+02
  -1.602831e+02   7.883701e+02
  -4.796934e+02   1.933312e+02
  -3.873410e+02  -5.129472e+02
   2.004679e+02  -6.549003e+02
   5.713662e+02  -1.498879e+01
   4.043478e+02   6.218836e+02
  -1.908299e+02   5.887936e+02
  -5.637823e+02   1.919470e+02
  -4.685301e+02  -2.565682e+02
  -1.069983e+02  -3.948007e+02
   1.590321e+02  -2.783238e+02
   1.734527e+02  -1.772811e+01
  -1.166988e+02  -9.988676e+00
  -3.508931e+02  -2.018142e+02
  -9.628883e+01  -4.183355e+02
   4.813169e+02  -2.938165e+02
   7.825230e+02   7.847859e+01
   3.971035e+02   4.472569e+02
  -3.294742e+02   3.509884e+02
  -6.242607e+02  -9.386326e+01
  -2.673209e+02  -4.336650e+02
   2.620912e+02  -4.441214e+02
   4.785622e+02  -2.351878e+02
   4.040297e+02   1.778637e+02
   1.011862e+02   4.056691e+02
  -6.745740e+01   2.798090e+02
  -5.077712e+01  -8.846888e+01
   1.643986e+02  -2.244010e+02
   3.397147e+02   7.080059e+01
   1.235833e+02   6.591614e+02
  -3.051319e+02   5.463412e+02
  -4.923121e+02   7.323473e+01
  -2.334821e+02  -5.054986e+02
   1.931616e+02  -2.069729e+02
   2.391414e+02   2.340545e+02
  -1.305201e+02   4.733525e+02
  -4.808433e+02   1.002115e+02
  -5.510216e+02  -3.688884e+02
  -1.790671e+02  -5.316849e+02
   3.336516e+02  -3.205944e+02
   6.219395e+02   1.165349e+02
   3.586017e+02   3.610768e+02
  -6.579470e+01   2.926816e+02
  -3.753933e+02   6.477386e+01
  -2.500637e+02  -1.071640e+02
   5.420431e+01  -8.931587e+01
   1.062580e+02   1.241260e+02
  -1.214763e+02   1.199456e+02
  -2.986686e+02  -7.056127e+01
  -1.251030e+02  -2.764236e+02
   1.758629e+02  -2.612423e+02
   3.457474e+02  -9.422523e+01
   2.429780e+02   9.015265e+01
  -2.251444e+01   3.115319e+02
  -2.674992e+02   3.581018e+02
  -3.744657e+02   1.970802e+02
  -2.648349e+02  -1.262818e+02
  -1.090381e+02  -3.989146e+02
   4.457472e+01  -3.449562e+02
   9.832710e+01  -1.535481e+02
   4.123028e+01  -5.260494e+01
   9.768763e+01  -1.087436e+02
   2.177659e+02  -1.013634e+02
   2.622233e+02   6.521549e+01
   1.459726e+02   2.672897e+02
  -6.417179e+01   2.502626e+02
  -2.113869e+02  -7.005783e+00
  -1.645174e+02  -2.317136e+02
   2.918647e+01  -2.685974e+02
   2.748467e+02  -9.736794e+01
   3.389813e+02   1.683438e+02
   1.859356e+02   3.150605e+02
  -6.258968e+01   2.804841e+02
  -2.043812e+02   1.612768e+02
  -1.394664e+02   4.334384e+01
  -1.355396e+02   6.779687e+01
  -2.618878e+02   5.322165e+01
  -4.045075e+02  -7.894774e+01
  -3.438813e+02  -2.855864e+02
  -9.065588e+00  -4.562083e+02
   4.034429e+02  -4.265701e+02
   4.789748e+02  -1.860332e+02
   3.348612e+02   6.991524e+01
   4.083477e+01   2.533372e+02
  -9.795997e+01   2.218417e+02
  -5.122655e+01   4.940420e+01
   1.109697e+02  -8.569982e+01
   1.465877e+02   1.908448e+01
   3.175488e+01   1.808953e+02
  -1.429608e+02   1.576586e+02
  -1.447917e+02  -6.340557e+01
   1.444568e+01  -1.780719e+02
   1.934552e+02  -1.789759e+01
   1.667647e+02   2.303150e+02
  -2.265003e+01   3.550091e+02
  -2.398261e+02   2.001252e+02
  -3.470770e+02  -7.519946e+01
  -2.841370e+02  -2.343763e+02
  -9.541871e+01  -2.573062e+02
   1.251646e+02  -1.485683e+02
   1.795368e+02  -2.616782e+01
   4.704250e+01   1.659788e+01
  -5.897825e+01  -4.873918e+01
  -2.314602e+01  -1.080059e+02
   1.241456e+02  -9.629248e+01
   1.672694e+02   1.780371e+01
   3.844987e+01   6.659085e+01
  -8.301291e+01   6.142670e+00
  -4.458040e+01  -7.808987e+01
   1.467923e+02  -9.479130e+01
   3.019822e+02   1.680050e+01
   2.638673e+02   1.576743e+02
   3.720321e+01   2.684267e+02
  -1.932585e+02   2.527388e+02
  -2.791451e+02   1.229795e+02
  -1.494759e+02  -4.377844e+01
   2.566427e+01  -8.451297e+01
   7.411661e+01  -9.696234e-01
  -3.973724e+01   9.812324e+01
  -1.933471e+02   6.127904e+01
  -1.998726e+02  -1.072377e+02
  -6.832884e+01  -2.009422e+02
   8.331162e+01  -1.465786e+02
   1.432661e+02  -2.717807e+01
   6.553246e+01   3.746559e+01
  -3.195062e+01  -1.057599e+01
  -3.430582e+01  -1.002791e+02
   7.575543e+01  -1.224687e+02
   2.020527e+02  -2.539863e+01
   1.928117e+02   1.340256e+02
   1.720916e+01   2.173196e+02
  -1.573421e+02   1.601617e+02
  -1.899820e+02   9.861171e+00
  -5.734076e+01  -1.033722e+02
   6.821848e+01  -1.011727e+02
   7.331017e+01  -3.029284e+01
   1.051266e+01   2.426757e+01
  -3.395835e+01   1.757925e+01
   7.783809e+00  -1.881830e+01
   8.268186e+01   4.576524e-01
   1.131497e+02   8.744806e+01
   1.587308e+01   1.610651e+02
  -1.211386e+02   1.505939e+02
  -2.379179e+02   2.168011e+01
  -2.031223e+02  -1.513250e+02
  -4.560207e+01  -2.313454e+02
   1.074190e+02  -1.684990e+02
   1.316105e+02  -3.580234e+01
   7.579274e+01   5.020800e+01
   3.414039e+01   3.413573e+01
   5.540340e+01  -1.305869e+01
   8.199282e+01  -5.243077e+00
   5.227822e+01   4.996385e+01
  -4.081356e+01   1.009090e+02
  -1.142376e+02   6.758136e+01
  -9.333255e+01  -3.481386e+01
   1.511359e+01  -1.212816e+02
   1.536899e+02  -8.778064e+01
   2.156630e+02   5.067180e+01
   9.899178e+01   2.036985e+02
  -1.067127e+02   2.308809e+02
  -2.662120e+02   9.505014e+01
  -2.542703e+02  -7.494928e+01
  -1.086152e+02  -1.727353e+02
   3.547570e+01  -1.443474e+02
   8.970159e+01  -8.570830e+01
   7.783404e+01  -7.923651e+01
   5.562299e+01  -9.513766e+01
   9.277590e+01  -7.687262e+01
   1.381606e+02   1.751277e+01
   1.345566e+02   1.589129e+02
   3.656277e+01   2.334685e+02
  -9.365176e+01   1.840981e+02
  -1.805650e+02   2.151368e+01
  -1.351448e+02  -1.295905e+02
  -1.247646e+01  -1.618640e+02
   6.761443e+01  -9.318806e+01
   5.981272e+01   4.011951e+00
   1.585181e-01   4.801492e+01
  -1.771153e+01   3.407627e+01
   2.907062e+01   1.405519e+01
   8.104547e+01   2.077813e+01
   4.819885e+01   4.146755e+01
  -7.110348e+01   3.995552e+01
  -1.708340e+02   1.711614e+00
  -1.452549e+02  -5.296352e+01
  -5.481654e+00  -9.747587e+01
   1.380445e+02  -7.811815e+01
   1.471407e+02  -1.454789e+01
   4.573098e+01   4.255029e+01
  -6.177957e+01   4.630094e+01
  -7.939719e+01  -1.154709e+01
  -1.288641e+01  -7.024985e+01
   4.779546e+01  -6.247284e+01
   7.035381e+01   9.075084e-01
   4.838774e+01   4.855308e+01
   5.001286e+01   4.260387e+01
   5.805269e+01  -1.455866e-01
   6.938441e+01  -1.036363e+00
   4.031877e+01   7.714161e+01
  -2.786434e+01   1.496794e+02
  -1.250824e+02   1.435311e+02
  -1.735307e+02   3.725203e+01
  -1.268461e+02  -9.628073e+01
  -7.503369e+00  -1.306672e+02
   9.190174e+01  -6.703617e+01
   6.381046e+01   1.040725e+01
  -5.757365e+01   2.468260e+01
  -1.336320e+02  -3.956939e+01
  -7.817479e+01  -1.077072e+02
   7.460207e+01  -1.137583e+02
   1.838479e+02  -4.889686e+01
   1.638405e+02   3.656136e+01
   3.529651e+01   8.475438e+01
  -6.069757e+01   6.433630e+01
  -4.872654e+01   2.040281e+00
   3.975905e+01  -2.870277e+01
   9.782695e+01   1.668371e+01
   3.579472e+01   1.212203e+02
  -8.517668e+01   1.560639e+02
  -1.559338e+02   7.773472e+01
  -1.336693e+02  -9.035890e+01
  -5.296756e+00  -2.073604e+02
   7.848541e+01  -1.444549e+02
   1.022692e+02   5.746986e+00
   6.457959e+01   1.239712e+02
  -6.135166e+00   1.038971e+02
  -5.054951e+01   1.709864e+01
  -4.637319e+01  -3.016893e+01
  -2.403213e+01  -7.242143e+00
  -3.439910e+00   1.859018e+01
  -2.890553e+01  -1.923617e+01
  -5.797637e+01  -9.056794e+01
  -4.026031e+01  -1.049534e+02
   4.911595e+01  -4.496425e+01
   1.380417e+02   3.043819e+01
   1.290377e+02   6.420849e+01
   1.742370e+01   5.268727e+01
  -8.152978e+01   2.239002e+01
  -9.125783e+01   9.470748e+00
  -1.383074e+01  -1.100384e+01
   3.501196e+01  -2.127181e+01
   1.813137e+01  -1.604738e+01
  -1.694475e+01   4.020590e+00
   3.988983e+00   5.912615e+00
   7.118527e+01  -1.962087e+00
   9.220928e+01   2.510230e+01
   1.490376e+01   7.915867e+01
  -1.072858e+02   1.239515e+02
  -1.852202e+02   5.886486e+01
  -1.495488e+02  -6.434581e+01
  -3.881721e+01  -1.589677e+02
   7.394972e+01  -1.526958e+02
   1.089896e+02  -6.706814e+01
   8.447951e+01   2.135486e+01
   2.800387e+01   3.633532e+01
   1.585592e+00   1.188707e+01
   1.200954e+01   7.057438e+00
   3.359740e+01   4.582722e+01
   2.484758e+01   8.981121e+01
  -3.096494e+01   7.240829e+01
  -7.667179e+01  -1.127233e+01
  -8.557612e+01  -1.036024e+02
  -1.183876e+01  -1.143971e+02
   7.993133e+01  -3.362463e+01
   1.088029e+02   6.626157e+01
   3.810870e+01   1.009415e+02
  -6.491392e+01   5.987009e+01
  -1.014100e+02  -7.790543e+00
  -4.206615e+01  -5.502937e+01
   3.398550e+01  -5.205379e+01
   3.384633e+01  -2.743078e+01
  -2.975201e+01   8.463156e+00
  -6.883333e+01   1.074091e+01
  -1.803592e+01  -2.830801e+01
   7.569345e+01  -6.814497e+01
   1.198211e+02  -5.968746e+01
   6.778879e+01   1.284303e+01
  -1.264145e+01   8.390084e+01
  -5.092207e+01   8.369563e+01
  -4.038550e+01   1.270421e+01
  -7.171840e+00  -5.393688e+01
   2.248082e+01  -4.587515e+01
   3.619540e+01   1.349359e+01
   3.031165e+01   5.455844e+01
  -2.413107e+00   3.544926e+01
  -3.392323e+01  -4.217999e+00
  -4.248966e+01  -2.325361e+01
  -2.095117e+01  -2.560960e+00
   6.194716e-01   1.862109e+01
   7.311462e+00   2.284829e+00
   3.874852e+00  -3.428966e+01
   8.862192e+00  -4.961291e+01
   3.593106e+01  -1.779855e+01
   3.318685e+01   3.984999e+01
   1.101267e+01   5.964177e+01
  -4.311354e+01   2.432643e+01
  -6.626196e+01  -3.698048e+01
  -2.088174e+01  -5.755667e+01
   5.462514e+01  -3.464872e+01
   8.886094e+01   1.106948e+01
   5.275277e+01   4.251109e+01
  -2.651512e+01   4.480031e+01
  -6.221548e+01   2.779959e+01
  -2.840535e+01   8.098582e+00
   3.658714e+01  -3.526178e+00
   3.690550e+01   1.138837e+01
  -2.842802e+01   2.426861e+01
  -8.627858e+01   2.358258e+01
