
 $NMID
 id='ANONYMOUS ', fmtdat='(2E16.6)'
 volume=1.0
 tramp=1.0
 $END
   4.099220e+03  -2.758977e+02
   2.755401e+03   2.238535e+03
  -1.430866e+02   2.890528e+03
  -1.965266e+03   1.166109e+03
  -1.198544e+03  -4.865313e+02
   5.105919e+02  -7.426947e+02
   8.589715e+02   2.266570e+02
   1.614934e+02   1.211763e+03
  -8.074863e+02   8.235749e+02
  -1.045079e+03   7.915758e+01
  -5.548444e+02  -8.314157e+02
   1.400574e+02  -8.479095e+02
   6.611725e+02  -1.473760e+02
   4.435511e+02   6.807440e+02
  -3.055866e+02   7.369352e+02
  -5.566365e+02   5.350444e+01
  -3.691457e+02  -6.958621e+02
   2.929253e+02  -6.781935e+02
   5.567431e+02  -1.477541e+02
   3.943388e+02   3.568397e+02
   6.813822e+01   4.698195e+02
  -2.256752e+02   3.064665e+02
  -1.946614e+02   3.431892e+01
   7.931670e+01  -8.314897e+01
   4.025429e+02   1.308747e+02
   2.108147e+02   4.006607e+02
  -3.967359e+02   3.978906e+02
  -8.968179e+02  -3.277019e+01
  -4.998594e+02  -4.757200e+02
   2.952411e+02  -4.508521e+02
   7.342507e+02  -4.858381e+01
   3.579778e+02   4.524058e+02
  -1.940213e+02   5.123658e+02
  -5.525495e+02   2.143724e+02
  -4.101338e+02  -2.368572e+02
  -1.426473e+02  -4.400624e+02
   1.068244e+02  -3.237368e+02
   1.713202e+02   1.659946e+02
  -1.073420e+02   3.689623e+02
  -4.343809e+02   2.165208e+01
  -3.111012e+02  -6.823188e+02
   2.401379e+02  -6.554750e+02
   6.144142e+02  -6.626100e+01
   3.074070e+02   5.384608e+02
  -2.295043e+02   3.007740e+02
  -4.141874e+02  -2.864273e+02
   3.439699e+01  -5.592323e+02
   4.971266e+02  -1.453850e+02
   5.821353e+02   3.384521e+02
   2.078175e+02   5.746488e+02
  -3.264548e+02   3.813692e+02
  -6.282301e+02  -1.000717e+02
  -3.665315e+02  -3.991466e+02
   8.774201e+01  -3.698249e+02
   4.441689e+02  -7.233980e+01
   2.656397e+02   1.331733e+02
  -9.528081e+01   1.122887e+02
  -1.092782e+02  -1.483123e+02
   1.447526e+02  -1.823917e+02
   3.358521e+02   8.134660e+01
   1.478590e+02   2.894106e+02
  -1.956635e+02   2.799315e+02
  -3.425155e+02   6.004923e+01
  -2.116721e+02  -1.052193e+02
   2.835059e+01  -2.257563e+02
   2.169042e+02  -3.145144e+02
   3.431010e+02  -2.184337e+02
   2.893696e+02   1.240266e+02
   1.264801e+02   4.264908e+02
  -8.713725e+01   3.879634e+02
  -1.280558e+02   1.570310e+02
  -5.326172e+01   7.824713e+00
  -5.973953e+01   7.255311e+01
  -2.116744e+02   1.232594e+02
  -2.684554e+02  -6.486761e+01
  -1.604591e+02  -2.685154e+02
   8.470447e+01  -2.541646e+02
   2.195051e+02  -1.143177e+01
   2.165240e+02   2.104137e+02
  -7.871764e+00   2.771212e+02
  -2.645063e+02   1.253830e+02
  -3.633248e+02  -1.749733e+02
  -2.141393e+02  -3.174464e+02
   8.155029e+01  -3.099663e+02
   2.323726e+02  -1.648994e+02
   1.650061e+02  -2.203046e+01
   1.164904e+02  -5.307559e+01
   2.605046e+02  -5.504689e+01
   4.063930e+02   5.159270e+01
   3.348230e+02   2.681599e+02
   2.868315e+01   4.337127e+02
  -3.605329e+02   4.308418e+02
  -4.817536e+02   2.313025e+02
  -3.363012e+02  -8.972660e+01
  -5.916418e+01  -2.945841e+02
   9.898986e+01  -2.460131e+02
   7.868939e+01  -5.033272e+01
  -9.442972e+01   1.145538e+02
  -1.754764e+02   1.999314e+01
  -5.256942e+01  -2.011991e+02
   1.510373e+02  -1.609108e+02
   1.629759e+02   3.919067e+01
  -6.591184e+00   1.754565e+02
  -1.875047e+02   3.030475e+01
  -1.528211e+02  -2.416517e+02
   2.955417e+01  -3.719917e+02
   2.260148e+02  -1.993529e+02
   3.372033e+02   6.410575e+01
   2.896795e+02   2.458585e+02
   9.439264e+01   2.632887e+02
  -1.078328e+02   1.561336e+02
  -1.913673e+02   1.990389e+01
  -5.086461e+01  -2.603348e+01
   6.595040e+01   3.622026e+01
   3.156380e+01   1.084146e+02
  -1.256380e+02   1.111760e+02
  -1.763973e+02  -9.720241e+00
  -6.541344e+01  -7.045865e+01
   8.694355e+01  -2.468064e+01
   5.130493e+01   7.041432e+01
  -1.321096e+02   7.768255e+01
  -2.708410e+02   1.041651e+00
  -2.724353e+02  -1.515310e+02
  -5.755470e+01  -2.644940e+02
   1.753442e+02  -2.634480e+02
   2.571535e+02  -1.226916e+02
   1.621087e+02   3.154105e+01
  -1.560526e+01   1.083385e+02
  -9.315771e+01   1.172110e+01
   2.700841e+01  -9.962090e+01
   1.914070e+02  -6.721198e+01
   2.220695e+02   9.581201e+01
   6.900230e+01   2.135946e+02
  -8.935529e+01   1.605138e+02
  -1.478049e+02   2.871174e+01
  -6.431828e+01  -4.336431e+01
   2.984915e+01   1.302649e+00
   3.748332e+01   8.193469e+01
  -6.774006e+01   1.052278e+02
  -1.971814e+02   3.800556e+01
  -1.886671e+02  -1.191784e+02
  -1.314915e+01  -2.109969e+02
   1.437246e+02  -1.884710e+02
   1.924863e+02  -1.421245e+01
   7.113304e+01   1.062176e+02
  -5.955431e+01   1.100459e+02
  -8.468485e+01   3.639798e+01
  -2.394052e+01  -2.367677e+01
   2.243616e+01  -1.132219e+01
  -5.014291e+00   9.872943e+00
  -7.386328e+01  -7.924993e+00
  -9.145272e+01  -8.992334e+01
  -1.297570e+01  -1.556556e+02
   1.218537e+02  -1.575290e+02
   2.279632e+02  -4.369415e+01
   2.060731e+02   1.381758e+02
   5.222525e+01   2.350893e+02
  -1.126951e+02   1.829827e+02
  -1.374234e+02   2.647908e+01
  -7.117794e+01  -5.110444e+01
  -3.255278e+01  -3.608018e+01
  -5.601024e+01   1.075073e+01
  -8.331087e+01   7.855238e+00
  -4.801779e+01  -5.197546e+01
   4.072892e+01  -8.365177e+01
   1.017958e+02  -7.143892e+01
   8.724963e+01   4.171591e+01
  -2.273360e+01   1.153397e+02
  -1.391902e+02   9.128243e+01
  -1.984374e+02  -4.782069e+01
  -1.079796e+02  -1.853136e+02
   1.064906e+02  -2.245469e+02
   2.632759e+02  -1.018258e+02
   2.521134e+02   8.067986e+01
   1.063515e+02   1.662107e+02
  -3.441259e+01   1.479618e+02
  -9.449964e+01   8.953329e+01
  -8.403509e+01   7.365247e+01
  -6.383962e+01   1.009958e+02
  -9.150855e+01   7.480781e+01
  -1.357153e+02  -2.001510e+01
  -1.217824e+02  -1.488908e+02
  -3.826866e+01  -2.291139e+02
   1.003590e+02  -1.765124e+02
   1.741883e+02  -2.427010e+01
   1.389895e+02   1.219943e+02
   1.832062e+01   1.593646e+02
  -6.976319e+01   9.836693e+01
  -5.698465e+01   4.177476e+00
  -3.394711e-01  -3.750416e+01
   1.227444e+01  -3.548591e+01
  -3.499729e+01  -1.623225e+01
  -8.048182e+01  -2.265308e+01
  -4.526144e+01  -4.063605e+01
   6.199323e+01  -3.768579e+01
   1.570613e+02  -7.270703e+00
   1.452049e+02   5.095774e+01
   1.063178e+01   8.314321e+01
  -1.265089e+02   6.705959e+01
  -1.427317e+02   1.450784e+01
  -4.531410e+01  -4.057317e+01
   6.342656e+01  -3.821270e+01
   7.979258e+01   1.769771e+01
   6.693908e+00   7.107218e+01
  -5.272680e+01   6.145441e+01
  -6.226504e+01  -7.169250e-01
  -4.837052e+01  -4.728253e+01
  -4.665532e+01  -4.126340e+01
  -6.275203e+01   3.233991e+00
  -6.827603e+01   7.711819e-02
  -3.637187e+01  -6.992959e+01
   2.782941e+01  -1.498234e+02
   1.140078e+02  -1.458826e+02
   1.698985e+02  -2.687254e+01
   1.210066e+02   9.088276e+01
   1.092405e+01   1.249319e+02
  -8.891280e+01   6.397989e+01
  -6.063831e+01  -1.552900e+01
   5.822574e+01  -2.025301e+01
   1.390506e+02   3.353914e+01
   7.697037e+01   1.109884e+02
  -7.099786e+01   1.105033e+02
  -1.924238e+02   6.270943e+01
  -1.658645e+02  -2.594748e+01
  -4.135109e+01  -8.308606e+01
   5.380919e+01  -7.476951e+01
   4.807304e+01  -6.877639e+00
  -3.691967e+01   2.791872e+01
  -9.361572e+01  -1.858440e+01
  -3.116661e+01  -1.213365e+02
   8.796772e+01  -1.571993e+02
   1.606629e+02  -6.502423e+01
   1.292258e+02   8.533612e+01
   7.182193e+00   2.061921e+02
  -8.808066e+01   1.451996e+02
  -1.040757e+02   4.843566e-01
  -5.955662e+01  -1.118286e+02
  -1.098744e+00  -1.086095e+02
   4.830842e+01  -1.904641e+01
   5.064052e+01   3.136524e+01
   2.513919e+01   6.822593e+00
   2.413397e+00  -1.995090e+01
   2.429441e+01   1.668067e+01
   5.969086e+01   8.814586e+01
   5.093838e+01   1.055325e+02
  -4.396136e+01   4.460702e+01
  -1.409790e+02  -2.890416e+01
  -1.296287e+02  -6.434280e+01
  -1.963273e+01  -4.800778e+01
   8.771252e+01  -2.622553e+01
   8.799117e+01  -8.655844e+00
   1.024519e+01   8.269479e+00
  -3.716560e+01   2.440317e+01
  -1.264117e+01   1.666495e+01
   2.104396e+01  -3.203216e+00
  -6.473070e+00  -7.859928e+00
  -7.674381e+01  -3.959492e+00
  -9.197813e+01  -2.312163e+01
  -1.289571e+01  -8.323202e+01
   1.144099e+02  -1.207851e+02
   1.891066e+02  -5.375323e+01
   1.430696e+02   6.526655e+01
   3.179302e+01   1.652523e+02
  -7.382549e+01   1.487643e+02
  -1.169754e+02   6.862049e+01
  -8.130644e+01  -1.862553e+01
  -2.274990e+01  -3.506606e+01
   1.006948e+00  -8.551989e+00
  -1.035822e+01  -5.365387e+00
  -3.220259e+01  -4.519231e+01
  -2.841678e+01  -8.832126e+01
   3.038174e+01  -7.556444e+01
   8.456690e+01   1.323643e+01
   7.845481e+01   1.006519e+02
   2.051586e+00   1.090245e+02
  -7.866049e+01   2.851079e+01
  -1.065594e+02  -6.940301e+01
  -3.572109e+01  -1.029410e+02
   6.714732e+01  -6.089119e+01
   9.951827e+01   1.455462e+01
   3.842470e+01   5.240043e+01
  -3.377627e+01   5.468334e+01
  -3.067784e+01   2.679407e+01
   3.533554e+01  -4.090954e+00
   7.098054e+01  -8.868754e+00
   1.642950e+01   2.433987e+01
  -7.770665e+01   6.544988e+01
  -1.065669e+02   5.643052e+01
  -6.068852e+01  -9.655494e+00
   1.180733e+01  -8.254473e+01
   5.458245e+01  -8.307995e+01
   3.944032e+01  -7.777552e+00
   6.686477e+00   5.834299e+01
  -2.609734e+01   4.324922e+01
  -3.907730e+01  -1.504201e+01
  -2.782955e+01  -5.240418e+01
   3.178468e+00  -3.294346e+01
   3.439668e+01   7.077294e+00
   4.171189e+01   2.068572e+01
   1.977933e+01   1.378338e+00
   1.678391e-01  -1.260439e+01
  -7.515915e+00   3.228882e+00
  -5.401894e+00   3.854045e+01
  -1.258958e+01   4.401590e+01
  -3.184381e+01   1.236163e+01
  -3.399056e+01  -4.764654e+01
  -1.055758e+00  -6.314163e+01
   4.173691e+01  -1.985072e+01
   5.956858e+01   3.611277e+01
   1.969583e+01   5.992713e+01
  -5.558229e+01   3.341812e+01
  -8.964415e+01  -1.694373e+01
  -5.075431e+01  -4.367407e+01
   2.968711e+01  -4.297814e+01
   6.414408e+01  -2.242759e+01
   2.612764e+01  -3.593293e+00
  -3.578337e+01  -3.807890e-01
  -3.853410e+01  -1.276273e+01
   2.992982e+01  -2.998072e+01
   9.231831e+01  -2.211102e+01
