
 $NMID
 id='ANONYMOUS ', fmtdat='(2E16.6)'
 volume=1.0
 tramp=1.0
 $END
   4.465200e+03  -2.736561e+02
   2.431364e+03   2.349639e+03
  -6.112205e+02   2.773684e+03
  -1.917198e+03   8.666131e+02
  -1.004168e+03  -3.548051e+02
   5.781127e+02  -5.402040e+02
   7.609015e+02   3.805464e+02
  -2.287351e+02   9.249759e+02
  -9.123733e+02   8.056416e+02
  -9.112816e+02  -1.176854e+02
  -4.416462e+02  -8.210670e+02
   1.668275e+02  -8.195647e+02
   4.980348e+02  -1.916020e+02
   3.661742e+02   7.060228e+02
  -1.713703e+02   6.859256e+02
  -6.624557e+02   5.296075e+01
  -2.301566e+02  -6.946473e+02
   2.881026e+02  -6.665526e+02
   5.634974e+02  -1.511124e+02
   3.998973e+02   3.535241e+02
   2.179515e+01   4.065042e+02
  -2.418928e+02   2.837587e+02
  -1.924310e+02   5.378015e+01
   1.571281e+02  -4.948667e+01
   3.706987e+02   1.606137e+02
   1.650109e+02   4.295738e+02
  -5.319794e+02   3.662573e+02
  -7.950498e+02  -1.165576e+02
  -3.967184e+02  -5.852994e+02
   4.413752e+02  -4.315658e+02
   7.110042e+02   1.431234e+02
   3.403667e+02   4.738161e+02
  -2.502108e+02   4.858787e+02
  -5.627458e+02   1.678129e+02
  -4.081138e+02  -2.098370e+02
  -4.337257e+01  -4.639645e+02
   1.822320e+02  -2.558482e+02
   1.971454e+02   1.769987e+02
  -1.708280e+02   3.562797e+02
  -4.187494e+02  -1.445054e+01
  -1.247904e+02  -6.753945e+02
   3.387925e+02  -6.889176e+02
   5.179040e+02   2.898709e+01
   1.833915e+02   4.915556e+02
  -3.242673e+02   3.172838e+02
  -3.316792e+02  -3.911149e+02
   1.521457e+02  -5.051102e+02
   5.298831e+02  -8.778045e+01
   6.468326e+02   3.658116e+02
   1.372420e+02   5.846667e+02
  -3.864858e+02   3.377516e+02
  -5.964617e+02  -8.158408e+01
  -3.544796e+02  -3.498477e+02
   1.271887e+02  -3.596037e+02
   4.446287e+02  -3.477941e+01
   2.579364e+02   1.720269e+02
  -7.414978e+01   1.204943e+02
  -1.201350e+02  -1.303941e+02
   1.791552e+02  -1.528273e+02
   3.312183e+02   6.870167e+01
   1.334923e+02   2.713818e+02
  -1.722441e+02   2.646533e+02
  -3.506562e+02   8.839876e+01
  -2.089148e+02  -9.063228e+01
   4.784680e+01  -2.359155e+02
   2.274065e+02  -3.403020e+02
   3.353678e+02  -2.006010e+02
   2.978666e+02   1.475816e+02
   5.872382e+01   4.677549e+02
  -1.044680e+02   4.156899e+02
  -9.599744e+01   1.345626e+02
  -2.895905e+01   1.834845e+00
  -5.876511e+01   1.051283e+02
  -2.000849e+02   1.129688e+02
  -2.724427e+02  -5.846825e+01
  -1.220213e+02  -2.862535e+02
   5.384363e+01  -2.227916e+02
   2.304044e+02  -1.766061e+00
   1.895454e+02   2.703111e+02
  -5.497171e+00   3.044564e+02
  -2.633027e+02   1.091219e+02
  -3.674858e+02  -1.659935e+02
  -1.990955e+02  -3.678583e+02
   9.477321e+01  -3.163189e+02
   2.277776e+02  -1.262868e+02
   1.513789e+02  -2.408149e+01
   1.080158e+02  -2.666191e+01
   2.431745e+02  -5.013233e+01
   3.784534e+02   7.345439e+01
   3.399172e+02   2.888020e+02
  -6.327602e+00   4.640078e+02
  -3.744347e+02   4.527535e+02
  -5.096363e+02   1.925679e+02
  -3.280363e+02  -1.117279e+02
  -5.325514e+01  -2.654836e+02
   1.367065e+02  -2.714581e+02
   6.781197e+01  -4.899803e+01
  -1.085856e+02   9.679356e+01
  -2.047373e+02  -1.903787e+01
  -2.882407e+01  -1.842078e+02
   1.526277e+02  -1.573947e+02
   1.743658e+02   5.881855e+01
  -2.002457e+01   1.757059e+02
  -1.877774e+02   3.350274e+01
  -1.644022e+02  -2.570818e+02
   2.103295e+01  -3.499626e+02
   2.392510e+02  -1.990791e+02
   3.420337e+02   7.753015e+01
   2.793457e+02   2.595749e+02
   9.065751e+01   2.655859e+02
  -1.188198e+02   1.591622e+02
  -1.702403e+02   2.025615e+01
  -6.679656e+01  -3.208462e+01
   8.011986e+01   4.053711e+01
   3.200910e+01   1.378692e+02
  -1.226872e+02   8.197137e+01
  -1.772454e+02  -1.841898e+01
  -5.232222e+01  -7.277625e+01
   8.203702e+01  -4.861915e+00
   6.178022e+01   7.929504e+01
  -1.288401e+02   9.828910e+01
  -2.939007e+02  -5.389447e+00
  -2.600638e+02  -1.531606e+02
  -5.897712e+01  -2.710179e+02
   1.674872e+02  -2.581267e+02
   2.868880e+02  -1.071988e+02
   1.706483e+02   5.231897e+01
  -3.045905e+01   1.013241e+02
  -8.943466e+01   1.170812e+00
   3.914672e+01  -1.018055e+02
   2.015931e+02  -4.941956e+01
   2.236668e+02   1.046222e+02
   5.972957e+01   2.057759e+02
  -9.592047e+01   1.526259e+02
  -1.384198e+02   3.498365e+01
  -6.572544e+01  -3.163872e+01
   2.503903e+01  -1.578918e+00
   3.067500e+01   8.765188e+01
  -7.502151e+01   1.226354e+02
  -1.928606e+02   3.078644e+01
  -2.030871e+02  -1.299744e+02
  -1.778966e+01  -2.209833e+02
   1.675261e+02  -1.493242e+02
   1.849772e+02  -8.432706e+00
   6.028040e+01   1.160527e+02
  -7.376527e+01   1.150002e+02
  -8.327633e+01   3.245401e+01
  -1.319371e+01  -2.312825e+01
   3.008701e+01  -1.957983e+01
  -1.330214e+01   1.378216e+01
  -7.376678e+01  -4.652722e+00
  -9.313749e+01  -8.482174e+01
  -2.660133e+01  -1.623494e+02
   1.278799e+02  -1.547938e+02
   2.424692e+02  -1.708489e+01
   2.013046e+02   1.617284e+02
   3.754770e+01   2.495698e+02
  -1.108357e+02   1.651559e+02
  -1.331160e+02   3.116338e+01
  -7.192720e+01  -5.662675e+01
  -2.924986e+01  -3.364566e+01
  -5.703783e+01   1.429853e+01
  -8.670860e+01  -1.376229e-01
  -4.241990e+01  -5.447346e+01
   4.536719e+01  -9.644712e+01
   1.045095e+02  -5.722308e+01
   9.377522e+01   3.885239e+01
  -1.087917e+01   1.050192e+02
  -1.547973e+02   8.681344e+01
  -1.979837e+02  -5.226474e+01
  -1.105470e+02  -2.064034e+02
   1.159561e+02  -2.337535e+02
   2.479115e+02  -1.034265e+02
   2.607064e+02   8.942033e+01
   1.154283e+02   1.820934e+02
  -4.548422e+01   1.545650e+02
  -9.532407e+01   8.589586e+01
  -7.538752e+01   6.656804e+01
  -6.913065e+01   8.837984e+01
  -9.689350e+01   7.598760e+01
  -1.253200e+02  -2.070267e+01
  -1.247732e+02  -1.467596e+02
  -3.274138e+01  -2.263640e+02
   1.020945e+02  -1.699041e+02
   1.784558e+02  -1.472670e+01
   1.462981e+02   1.301770e+02
   9.291199e+00   1.616296e+02
  -7.013291e+01   8.232291e+01
  -6.289409e+01  -2.627681e+00
  -8.793136e+00  -4.537984e+01
   1.340244e+01  -3.335374e+01
  -3.635365e+01  -1.993531e+01
  -8.462438e+01  -2.521658e+01
  -4.883375e+01  -3.850363e+01
   6.641415e+01  -3.987093e+01
   1.634145e+02   1.011021e+00
   1.387418e+02   5.315755e+01
   1.852252e+01   9.234604e+01
  -1.320506e+02   7.595228e+01
  -1.586024e+02   1.411489e+01
  -5.021839e+01  -4.170066e+01
   6.100591e+01  -3.815334e+01
   8.034233e+01   2.269427e+01
   7.470110e+00   7.262127e+01
  -5.554162e+01   6.292998e+01
  -6.459521e+01  -1.079428e+00
  -4.656242e+01  -5.569703e+01
  -4.522440e+01  -4.413867e+01
  -6.188409e+01  -4.898868e+00
  -6.631810e+01   4.561653e-01
  -3.638858e+01  -7.269156e+01
   2.676758e+01  -1.447285e+02
   1.239704e+02  -1.377713e+02
   1.739185e+02  -3.418985e+01
   1.199730e+02   9.709562e+01
   4.886407e+00   1.265248e+02
  -8.397824e+01   6.096994e+01
  -6.364354e+01  -1.339856e+01
   6.233211e+01  -2.213910e+01
   1.329713e+02   4.428321e+01
   7.142472e+01   1.093950e+02
  -8.099054e+01   1.170304e+02
  -1.932698e+02   4.983136e+01
  -1.550447e+02  -3.387075e+01
  -4.069369e+01  -8.989928e+01
   6.178166e+01  -6.916843e+01
   4.723052e+01  -2.950105e+00
  -4.000728e+01   2.567152e+01
  -9.277008e+01  -1.949407e+01
  -3.480735e+01  -1.177161e+02
   9.007844e+01  -1.595261e+02
   1.765686e+02  -6.412410e+01
   1.352460e+02   9.707920e+01
   1.852167e+01   1.993007e+02
  -7.847701e+01   1.427100e+02
  -1.048161e+02  -9.091161e+00
  -5.469738e+01  -1.184636e+02
   7.864871e+00  -9.996263e+01
   4.757604e+01  -2.141705e+01
   5.205470e+01   3.084780e+01
   2.427344e+01   6.103401e+00
   4.346027e+00  -2.115028e+01
   2.070315e+01   1.494441e+01
   6.004159e+01   9.079021e+01
   4.019714e+01   1.109136e+02
  -5.487146e+01   4.877828e+01
  -1.427612e+02  -3.458937e+01
  -1.357083e+02  -7.119869e+01
  -1.967317e+01  -4.950860e+01
   8.648323e+01  -2.330802e+01
   8.746527e+01  -4.427030e+00
   1.114066e+01   8.075507e+00
  -4.146239e+01   2.140118e+01
  -1.480052e+01   2.019358e+01
   2.163715e+01  -3.890060e+00
  -6.132955e+00  -9.535733e+00
  -7.196931e+01  -2.998575e+00
  -9.456137e+01  -1.933431e+01
  -8.201011e+00  -8.471749e+01
   1.155922e+02  -1.080816e+02
   1.826148e+02  -7.338891e+01
   1.450728e+02   7.036454e+01
   2.771782e+01   1.674395e+02
  -8.715308e+01   1.546195e+02
  -1.221782e+02   5.812261e+01
  -7.970009e+01  -2.121186e+01
  -2.491725e+01  -3.823292e+01
   3.629958e+00  -9.555300e+00
  -1.088800e+01  -4.538318e+00
  -3.155198e+01  -4.806384e+01
  -1.968566e+01  -8.997223e+01
   3.199269e+01  -7.284097e+01
   7.723050e+01   1.778023e+01
   7.896085e+01   1.062758e+02
   2.010535e+00   1.110879e+02
  -8.082110e+01   2.336775e+01
  -1.043869e+02  -7.885472e+01
  -3.628203e+01  -1.060877e+02
   6.489322e+01  -5.446065e+01
   1.042236e+02   1.254528e+01
   3.905582e+01   5.187976e+01
  -3.286479e+01   5.288194e+01
  -3.600302e+01   2.769819e+01
   3.448114e+01  -2.626019e+00
   6.895235e+01  -7.018659e+00
   1.558287e+01   2.599661e+01
  -7.802266e+01   6.430723e+01
  -1.236461e+02   6.160787e+01
  -6.306135e+01  -8.409145e+00
   1.130383e+01  -8.404068e+01
   5.617351e+01  -7.990530e+01
   3.682772e+01  -7.173785e+00
   3.009231e+00   5.548216e+01
  -2.562538e+01   4.240139e+01
  -3.669874e+01  -1.672033e+01
  -2.519405e+01  -5.435946e+01
   1.052486e+00  -3.413007e+01
   3.486950e+01   7.897007e+00
   3.822224e+01   2.095900e+01
   2.055854e+01   1.990225e+00
  -2.266581e+00  -1.488547e+01
  -4.404014e+00  -9.896526e-01
  -2.073437e+00   3.257851e+01
  -2.061555e+01   4.719492e+01
  -3.063178e+01   8.388151e+00
  -3.039147e+01  -3.966418e+01
  -2.195429e+00  -5.923497e+01
   4.664663e+01  -2.192354e+01
   6.119410e+01   4.083663e+01
   1.801647e+01   6.548087e+01
  -5.347739e+01   3.062011e+01
  -8.720878e+01  -1.354483e+01
  -5.162501e+01  -4.394779e+01
   3.055570e+01  -4.221981e+01
   6.732451e+01  -2.146205e+01
   2.385185e+01  -5.018364e+00
  -3.456388e+01   8.212879e-01
  -3.922623e+01  -1.550491e+01
   2.760988e+01  -3.279329e+01
   9.068674e+01  -2.149253e+01
