
 $NMID
 id='ANONYMOUS ', fmtdat='(2E16.6)'
 volume=1.0
 tramp=1.0
 $END
   4.107480e+03  -1.478513e+02
   2.518011e+03   2.320172e+03
  -9.007855e+02   2.427107e+03
  -1.834465e+03   7.203279e+02
  -8.816298e+02  -1.293573e+02
   5.684112e+02  -3.783989e+02
   6.660141e+02   2.890499e+02
   9.176608e+00   8.705692e+02
  -7.713084e+02   7.142601e+02
  -9.227564e+02  -4.067655e+01
  -4.568656e+02  -7.773193e+02
   3.091362e+02  -8.059224e+02
   5.478294e+02  -7.644206e+01
   3.993921e+02   5.329601e+02
  -2.722804e+02   7.569390e+02
  -5.391780e+02  -3.416257e+01
  -3.894033e+02  -6.198444e+02
   2.795047e+02  -6.553527e+02
   5.578028e+02  -1.596142e+02
   3.912450e+02   2.835184e+02
   4.476247e+01   3.808671e+02
  -1.889779e+02   2.566728e+02
  -2.074855e+02   9.022933e+00
   1.416321e+02  -7.938603e+01
   3.747321e+02   1.735878e+02
   1.484082e+02   3.872288e+02
  -4.414269e+02   3.322092e+02
  -8.047105e+02  -1.148170e+02
  -4.161506e+02  -5.001609e+02
   4.111559e+02  -4.056489e+02
   7.098127e+02   1.313490e+02
   3.010060e+02   4.754621e+02
  -3.036709e+02   4.992632e+02
  -5.186887e+02   2.039615e+02
  -4.027393e+02  -2.006598e+02
  -4.670220e+01  -4.102544e+02
   2.070325e+02  -2.591472e+02
   7.862055e+01   1.809480e+02
  -1.290952e+02   3.480990e+02
  -4.162415e+02  -1.264738e+02
  -1.680818e+02  -5.847612e+02
   2.935130e+02  -6.309853e+02
   5.293461e+02  -1.348623e+01
   2.014782e+02   5.067295e+02
  -2.018416e+02   2.713918e+02
  -2.645033e+02  -2.903483e+02
   5.640515e+01  -4.824908e+02
   5.392975e+02  -6.581607e+01
   5.761204e+02   4.154290e+02
   1.801498e+02   5.347709e+02
  -3.668655e+02   3.582746e+02
  -5.902273e+02  -9.324002e+01
  -3.851865e+02  -3.893159e+02
   9.295541e+01  -2.775557e+02
   4.154280e+02  -4.237935e+01
   2.141797e+02   1.270093e+02
  -8.681412e+01   7.333750e+01
  -1.263149e+02  -1.009364e+02
   1.528454e+02  -1.299823e+02
   3.171725e+02   4.931084e+01
   1.216005e+02   2.760302e+02
  -2.015590e+02   2.558866e+02
  -3.344126e+02   7.988769e+01
  -2.078290e+02  -8.392415e+01
   3.839365e+01  -2.673291e+02
   2.412673e+02  -3.198415e+02
   3.208388e+02  -2.017502e+02
   2.866871e+02   1.260911e+02
   6.085897e+01   4.187020e+02
  -9.906312e+01   3.548823e+02
  -9.432029e+01   1.556968e+02
  -2.295259e+01   1.198587e+01
  -9.001922e+01   8.642175e+01
  -1.945979e+02   1.224628e+02
  -2.781916e+02  -6.361548e+01
  -1.282278e+02  -2.757762e+02
   9.323851e+01  -2.287012e+02
   2.136314e+02  -1.972542e+00
   1.714152e+02   2.232492e+02
  -1.878817e+01   2.660305e+02
  -2.777827e+02   1.012921e+02
  -3.530440e+02  -1.681836e+02
  -1.871941e+02  -3.357489e+02
   1.004138e+02  -2.864000e+02
   2.261635e+02  -1.429154e+02
   1.587689e+02  -4.068138e+00
   1.164035e+02  -4.360859e+01
   2.469212e+02  -5.313542e+01
   4.076292e+02   7.496823e+01
   3.628007e+02   2.889972e+02
  -1.738947e+01   4.427869e+02
  -3.502223e+02   3.700812e+02
  -5.274849e+02   1.972006e+02
  -3.271769e+02  -1.108154e+02
  -4.226824e+01  -2.794616e+02
   1.315357e+02  -2.380865e+02
   5.223277e+01  -2.329869e+01
  -1.197975e+02   7.251356e+01
  -1.716115e+02  -8.545329e+00
  -3.748533e+01  -1.769626e+02
   1.268864e+02  -1.342039e+02
   1.627845e+02   6.161589e+01
  -4.236105e+01   1.731164e+02
  -2.064314e+02   6.306767e+00
  -1.645235e+02  -2.545729e+02
   3.291906e+01  -3.500856e+02
   2.468794e+02  -2.005360e+02
   3.339842e+02   5.787109e+01
   2.787268e+02   2.509761e+02
   7.709935e+01   2.716234e+02
  -1.209325e+02   1.552570e+02
  -1.728185e+02   2.028705e+01
  -5.090033e+01  -2.042681e+01
   6.730748e+01   4.526469e+01
   2.781287e+01   1.216293e+02
  -1.272384e+02   9.259359e+01
  -1.824835e+02  -3.071987e+01
  -4.490600e+01  -6.620500e+01
   8.456517e+01  -6.620651e+00
   5.204951e+01   8.379464e+01
  -1.289241e+02   9.060985e+01
  -2.820765e+02  -2.664343e+01
  -2.678114e+02  -1.681081e+02
  -4.602262e+01  -2.635147e+02
   1.806053e+02  -2.624411e+02
   2.837001e+02  -1.424392e+02
   1.670169e+02   4.442434e+01
  -2.381665e+01   9.522590e+01
  -8.051971e+01   5.837211e+00
   4.312985e+01  -1.042796e+02
   2.023529e+02  -5.479654e+01
   1.954652e+02   9.963221e+01
   6.929871e+01   2.218249e+02
  -1.019371e+02   1.555498e+02
  -1.429113e+02   2.414448e+01
  -6.711399e+01  -3.548393e+01
   3.087344e+01   2.641164e+00
   3.533762e+01   9.731249e+01
  -6.817455e+01   1.113350e+02
  -1.912127e+02   3.690307e+01
  -1.891010e+02  -1.131512e+02
  -5.690792e+00  -2.299414e+02
   1.636145e+02  -1.512042e+02
   1.894081e+02  -2.263773e+01
   6.361661e+01   1.106933e+02
  -6.034128e+01   1.060448e+02
  -8.029165e+01   3.159165e+01
  -1.554386e+01  -2.415052e+01
   2.276697e+01  -1.700442e+01
  -8.874286e+00   1.501322e+01
  -7.391558e+01  -1.534887e+01
  -9.072303e+01  -8.258526e+01
  -1.391489e+01  -1.518147e+02
   1.297507e+02  -1.576524e+02
   2.360310e+02  -2.279031e+01
   2.079621e+02   1.629513e+02
   4.145190e+01   2.339759e+02
  -1.088918e+02   1.692528e+02
  -1.350547e+02   2.766718e+01
  -7.052178e+01  -5.704607e+01
  -3.004747e+01  -3.278076e+01
  -5.081143e+01   1.326993e+01
  -8.409757e+01   7.023053e-01
  -4.515206e+01  -5.326770e+01
   4.437236e+01  -9.024186e+01
   1.084649e+02  -5.896744e+01
   7.652143e+01   3.327092e+01
  -1.218879e+01   1.117925e+02
  -1.473558e+02   8.084331e+01
  -2.073430e+02  -5.245571e+01
  -1.163208e+02  -2.104497e+02
   1.141296e+02  -2.370130e+02
   2.802053e+02  -7.419158e+01
   2.515708e+02   8.229196e+01
   1.038964e+02   1.707758e+02
  -3.453686e+01   1.402655e+02
  -9.762758e+01   8.050966e+01
  -7.787542e+01   6.364152e+01
  -6.148500e+01   8.927744e+01
  -9.033207e+01   7.582831e+01
  -1.241509e+02  -2.312449e+01
  -1.147055e+02  -1.676995e+02
  -2.643575e+01  -2.247631e+02
   9.888174e+01  -1.738060e+02
   1.770161e+02  -1.612349e+01
   1.326320e+02   1.214197e+02
   6.785995e+00   1.620012e+02
  -7.228406e+01   9.214683e+01
  -5.933717e+01  -9.888688e-01
  -5.848201e+00  -4.807180e+01
   1.956253e+01  -3.552389e+01
  -3.330236e+01  -1.776251e+01
  -8.004989e+01  -2.256977e+01
  -4.642136e+01  -4.094908e+01
   6.021511e+01  -3.214762e+01
   1.542006e+02  -7.661283e+00
   1.405009e+02   5.778561e+01
   1.322309e+01   9.390783e+01
  -1.211977e+02   7.898078e+01
  -1.394620e+02   1.223891e+01
  -4.375490e+01  -4.032463e+01
   6.363159e+01  -4.141204e+01
   7.460298e+01   1.876072e+01
   1.346868e+01   7.048680e+01
  -4.984335e+01   5.535197e+01
  -6.103163e+01  -1.705758e+00
  -4.995322e+01  -4.723694e+01
  -4.369669e+01  -4.135675e+01
  -5.970103e+01  -2.459306e+00
  -6.579818e+01   1.499284e+00
  -3.603643e+01  -6.825100e+01
   2.809523e+01  -1.461602e+02
   1.046805e+02  -1.433596e+02
   1.640602e+02  -3.273081e+01
   1.262456e+02   9.385114e+01
   7.803116e+00   1.319725e+02
  -8.646386e+01   6.514394e+01
  -5.791076e+01  -1.611907e+01
   5.896648e+01  -2.036837e+01
   1.279894e+02   3.902498e+01
   6.325995e+01   1.062753e+02
  -8.825789e+01   1.134664e+02
  -1.793877e+02   4.732703e+01
  -1.569937e+02  -3.699758e+01
  -4.075727e+01  -8.231070e+01
   5.679645e+01  -6.329198e+01
   4.887745e+01  -2.801602e+00
  -3.927644e+01   2.612939e+01
  -8.850011e+01  -2.138978e+01
  -3.635574e+01  -1.165167e+02
   9.494155e+01  -1.479472e+02
   1.647074e+02  -6.725649e+01
   1.261223e+02   1.032862e+02
   7.159366e+00   1.888350e+02
  -7.900013e+01   1.432741e+02
  -9.911048e+01  -9.204999e+00
  -5.350517e+01  -1.140242e+02
   1.009202e+01  -1.085221e+02
   5.220619e+01  -1.890668e+01
   4.492903e+01   3.028880e+01
   2.106208e+01   7.807005e+00
   2.827586e+00  -1.919966e+01
   2.497246e+01   1.662346e+01
   5.397844e+01   8.797913e+01
   3.913399e+01   1.085469e+02
  -4.632835e+01   4.626848e+01
  -1.373564e+02  -3.636807e+01
  -1.170153e+02  -6.670331e+01
  -1.792065e+01  -5.032509e+01
   8.136408e+01  -2.890311e+01
   8.841754e+01  -6.476679e+00
   1.049222e+01   6.914512e+00
  -3.718498e+01   2.216998e+01
  -1.695722e+01   1.561534e+01
   1.933813e+01  -2.025741e+00
  -3.442109e+00  -8.124590e+00
  -6.568889e+01  -1.913850e+00
  -8.973619e+01  -2.357406e+01
  -1.154010e+01  -8.287039e+01
   1.207366e+02  -1.124701e+02
   1.820579e+02  -6.089686e+01
   1.443658e+02   6.139825e+01
   3.506253e+01   1.569094e+02
  -8.652392e+01   1.505415e+02
  -1.158539e+02   6.552876e+01
  -7.869903e+01  -1.909570e+01
  -2.393113e+01  -3.353548e+01
   3.606968e-01  -9.272803e+00
  -1.047235e+01  -5.679223e+00
  -3.295400e+01  -4.679882e+01
  -2.616732e+01  -8.848434e+01
   3.345827e+01  -6.757754e+01
   8.152097e+01   1.372980e+01
   7.574798e+01   1.139287e+02
   1.488019e+01   1.068182e+02
  -8.818302e+01   2.668532e+01
  -9.928973e+01  -6.353021e+01
  -3.218528e+01  -1.047078e+02
   6.256615e+01  -5.822984e+01
   1.015192e+02   7.381572e+00
   3.906719e+01   5.709550e+01
  -3.165901e+01   5.179471e+01
  -3.291100e+01   2.582785e+01
   2.983405e+01  -1.840342e+00
   6.687828e+01  -7.850267e+00
   1.578442e+01   2.470709e+01
  -7.371975e+01   6.059821e+01
  -1.179280e+02   5.565103e+01
  -6.797503e+01  -1.389135e+01
   1.333588e+01  -8.477540e+01
   5.603567e+01  -8.386764e+01
   3.639760e+01  -1.141546e+01
   2.384600e+00   5.701447e+01
  -2.567452e+01   4.239005e+01
  -3.824309e+01  -1.424705e+01
  -2.817386e+01  -5.225166e+01
   3.192738e+00  -3.025507e+01
   3.389850e+01   8.194164e+00
   4.321896e+01   2.033806e+01
   2.037129e+01   3.049201e+00
  -1.179937e+00  -1.561410e+01
  -4.413686e+00  -1.037111e+00
  -4.480405e+00   3.854561e+01
  -1.158115e+01   4.678995e+01
  -3.432595e+01   1.368029e+01
  -2.907549e+01  -3.804147e+01
   1.867855e+00  -6.130079e+01
   4.327505e+01  -2.297682e+01
   5.829845e+01   3.543458e+01
   1.686705e+01   6.053901e+01
  -5.242867e+01   3.320352e+01
  -8.746447e+01  -1.271501e+01
  -4.685123e+01  -3.986696e+01
   3.021903e+01  -4.093103e+01
   6.443345e+01  -2.237486e+01
   2.356199e+01  -6.062797e+00
  -3.654212e+01  -3.038608e+00
  -3.379172e+01  -1.541089e+01
   3.245860e+01  -2.508844e+01
   8.634423e+01  -2.061264e+01
