
 $NMID
 id='ANONYMOUS ', fmtdat='(2E16.6)'
 volume=1.0
 tramp=1.0
 $END
   4.763623e+03   4.424148e+02
   2.279207e+03   2.841386e+03
  -1.067832e+03   2.716695e+03
  -2.233821e+03   9.240999e+02
  -9.671833e+02  -8.265471e+02
   8.117124e+02  -6.312552e+02
   8.518602e+02   4.360475e+02
  -5.337301e+01   1.050126e+03
  -8.708727e+02   7.437244e+02
  -9.937215e+02  -1.613536e+02
  -3.981244e+02  -9.541807e+02
   2.594703e+02  -8.707354e+02
   7.499017e+02  -3.488827e+01
   3.384605e+02   8.647469e+02
  -3.353142e+02   7.073223e+02
  -6.557941e+02  -4.424665e+01
  -1.640868e+02  -7.390145e+02
   3.585028e+02  -5.815139e+02
   5.818829e+02  -2.880679e+01
   3.912702e+02   3.778038e+02
   1.983552e+01   4.298376e+02
  -2.411308e+02   2.653217e+02
  -2.199085e+02  -1.045285e+01
   1.668393e+02  -1.017324e+02
   3.899436e+02   1.090311e+02
   1.667282e+02   4.637340e+02
  -5.161107e+02   4.349993e+02
  -8.586254e+02  -1.409770e+02
  -3.768381e+02  -6.165035e+02
   4.158428e+02  -5.240681e+02
   7.968513e+02   1.384830e+02
   3.366719e+02   5.059855e+02
  -3.562341e+02   5.476185e+02
  -6.333962e+02   1.707619e+02
  -4.006287e+02  -2.617515e+02
  -2.976033e+01  -4.626953e+02
   2.141910e+02  -2.237525e+02
   1.961114e+02   2.987582e+02
  -2.630897e+02   4.415268e+02
  -4.578501e+02  -4.251637e+01
  -2.594409e+02  -7.808305e+02
   4.177027e+02  -7.218706e+02
   6.510094e+02  -1.191148e+01
   2.573458e+02   6.476175e+02
  -3.517078e+02   3.394559e+02
  -4.359403e+02  -4.097729e+02
   1.357156e+02  -5.422371e+02
   5.693410e+02  -1.533704e+02
   6.120442e+02   4.642635e+02
   1.257378e+02   6.252934e+02
  -4.426492e+02   3.367482e+02
  -6.696870e+02  -8.901357e+01
  -3.476310e+02  -4.137810e+02
   2.019076e+02  -3.263411e+02
   4.167465e+02  -4.811237e+01
   2.167636e+02   2.095687e+02
  -1.486971e+02   8.534284e+01
  -1.554600e+02  -1.754964e+02
   1.986925e+02  -1.836631e+02
   3.547916e+02   9.395988e+01
   1.422405e+02   2.915427e+02
  -2.464982e+02   2.565461e+02
  -3.342646e+02   7.668658e+01
  -1.868284e+02  -6.930859e+01
   1.034733e+01  -2.130323e+02
   2.455688e+02  -3.210492e+02
   3.443397e+02  -2.318792e+02
   3.055748e+02   1.307527e+02
   6.405921e+01   4.523463e+02
  -1.610119e+02   3.912044e+02
  -1.014929e+02   7.908997e+01
   1.040726e+01  -1.793868e+01
  -3.685339e+01   8.345763e+01
  -2.201998e+02   1.313711e+02
  -3.106073e+02  -4.479038e+01
  -1.579564e+02  -2.899900e+02
   7.565300e+01  -2.633477e+02
   2.481234e+02   1.377206e+01
   2.211186e+02   2.444727e+02
  -8.566040e+00   3.235526e+02
  -2.686652e+02   1.162980e+02
  -3.730852e+02  -1.875458e+02
  -1.774329e+02  -3.619597e+02
   1.123955e+02  -3.076804e+02
   2.287241e+02  -1.132149e+02
   1.456439e+02  -1.064393e+01
   9.198797e+01  -4.333302e+01
   2.280576e+02  -7.078330e+01
   3.860564e+02   6.310474e+01
   3.310614e+02   3.084309e+02
  -1.284925e+01   4.499433e+02
  -3.984104e+02   4.064139e+02
  -5.343947e+02   1.696174e+02
  -3.558210e+02  -1.057261e+02
  -4.986423e+01  -3.127999e+02
   1.468759e+02  -2.647295e+02
   9.975251e+01  -2.026576e+01
  -1.148677e+02   1.305069e+02
  -2.196685e+02  -2.443751e+01
  -3.196318e+01  -2.101355e+02
   1.908972e+02  -1.817489e+02
   2.049587e+02   6.798920e+01
  -3.192096e+01   1.996523e+02
  -2.000459e+02   4.015147e+01
  -1.736091e+02  -2.679730e+02
   5.284125e+01  -3.462098e+02
   2.332100e+02  -1.919625e+02
   3.416677e+02   6.932294e+01
   2.774524e+02   2.336451e+02
   1.029604e+02   2.723670e+02
  -1.144862e+02   1.651992e+02
  -1.831456e+02   1.253528e+01
  -6.354960e+01  -4.765910e+01
   7.995657e+01   3.770053e+01
   3.246746e+01   1.364084e+02
  -1.312190e+02   1.090880e+02
  -1.711265e+02  -2.166269e+01
  -6.616381e+01  -8.522758e+01
   7.988513e+01  -1.967811e+01
   6.708559e+01   6.850227e+01
  -1.187261e+02   8.379534e+01
  -2.767541e+02   2.521589e+00
  -2.512265e+02  -1.263309e+02
  -5.899592e+01  -2.553230e+02
   1.990835e+02  -2.651915e+02
   2.895095e+02  -1.350580e+02
   1.822585e+02   6.880534e+01
  -3.079784e+01   1.182248e+02
  -1.031505e+02  -4.344123e+00
   3.902567e+01  -9.953320e+01
   2.149529e+02  -5.261510e+01
   2.210740e+02   1.109455e+02
   5.936155e+01   2.030695e+02
  -9.910610e+01   1.479731e+02
  -1.567955e+02   1.440086e+01
  -7.101601e+01  -5.587000e+01
   3.400004e+01  -1.854591e+01
   4.709062e+01   7.938007e+01
  -7.044021e+01   1.095028e+02
  -2.075174e+02   4.738750e+01
  -2.009362e+02  -1.284693e+02
  -1.665209e+01  -2.234857e+02
   1.802276e+02  -1.736704e+02
   1.971119e+02  -1.536935e+00
   6.566643e+01   1.247139e+02
  -7.639648e+01   1.098931e+02
  -9.043522e+01   2.708876e+01
  -2.076264e+01  -3.198110e+01
   2.309296e+01  -2.343372e+01
  -9.446586e+00   5.600135e+00
  -6.394783e+01  -5.225412e+00
  -9.552807e+01  -8.270518e+01
  -2.707495e+01  -1.602333e+02
   1.249622e+02  -1.502782e+02
   2.320614e+02  -3.484911e+01
   1.927466e+02   1.706174e+02
   4.612140e+01   2.300275e+02
  -1.301831e+02   1.720686e+02
  -1.370096e+02   2.213934e+01
  -6.213267e+01  -5.809928e+01
  -2.787883e+01  -3.857041e+01
  -5.301417e+01   1.260799e+01
  -8.207089e+01   9.189103e+00
  -3.694806e+01  -5.060819e+01
   4.023182e+01  -8.842109e+01
   1.038435e+02  -5.755781e+01
   8.094303e+01   2.868459e+01
  -1.443252e+01   1.115174e+02
  -1.404607e+02   8.470868e+01
  -1.838450e+02  -5.010734e+01
  -1.096148e+02  -2.220671e+02
   9.379884e+01  -2.307262e+02
   2.670874e+02  -1.058754e+02
   2.569005e+02   8.436167e+01
   1.193006e+02   1.821213e+02
  -5.192886e+01   1.552382e+02
  -9.260170e+01   8.958933e+01
  -7.735773e+01   7.022045e+01
  -7.204892e+01   9.021513e+01
  -9.525411e+01   7.604733e+01
  -1.329587e+02  -2.995854e+01
  -1.227781e+02  -1.522526e+02
  -2.583245e+01  -2.304116e+02
   9.602127e+01  -1.804665e+02
   1.756191e+02  -1.665485e+01
   1.484548e+02   1.287510e+02
   2.224570e+01   1.515650e+02
  -6.630462e+01   1.028346e+02
  -6.700852e+01   4.433676e-01
  -6.929664e+00  -4.405397e+01
   5.120184e+00  -3.478684e+01
  -3.429061e+01  -1.875149e+01
  -8.087330e+01  -2.771696e+01
  -4.129739e+01  -3.764312e+01
   6.153966e+01  -4.019735e+01
   1.628952e+02  -4.641030e+00
   1.484705e+02   4.891027e+01
   1.823340e+01   9.404435e+01
  -1.262115e+02   7.286226e+01
  -1.428642e+02   6.264115e+00
  -5.180216e+01  -4.215864e+01
   6.156560e+01  -3.560318e+01
   7.745749e+01   2.034991e+01
   4.130157e+00   6.639774e+01
  -6.018381e+01   5.275159e+01
  -6.694948e+01  -4.750451e+00
  -4.104443e+01  -4.949652e+01
  -4.237654e+01  -4.516980e+01
  -6.366454e+01  -5.004476e+00
  -6.638800e+01   2.799427e-01
  -3.537979e+01  -6.755202e+01
   3.960022e+01  -1.371409e+02
   1.263381e+02  -1.488876e+02
   1.680064e+02  -4.146380e+01
   1.245264e+02   8.828707e+01
   9.915351e+00   1.202219e+02
  -8.646961e+01   5.739848e+01
  -6.004041e+01  -1.480222e+01
   5.513762e+01  -2.195868e+01
   1.475445e+02   3.500037e+01
   7.292187e+01   1.088825e+02
  -8.319159e+01   1.189277e+02
  -1.936806e+02   5.899728e+01
  -1.709949e+02  -2.791341e+01
  -3.988118e+01  -8.758470e+01
   6.542899e+01  -7.236567e+01
   5.229070e+01  -4.735095e+00
  -3.762924e+01   2.582976e+01
  -8.759815e+01  -2.162633e+01
  -3.846260e+01  -1.183840e+02
   8.731478e+01  -1.431291e+02
   1.677526e+02  -6.221969e+01
   1.210394e+02   1.001740e+02
   5.687311e+00   2.029539e+02
  -8.192111e+01   1.327336e+02
  -1.090933e+02  -6.737276e+00
  -6.141381e+01  -1.182491e+02
   3.478804e+00  -1.052255e+02
   4.548601e+01  -2.070797e+01
   5.277679e+01   2.996217e+01
   2.877221e+01   1.014277e+01
   5.050005e+00  -2.184991e+01
   2.015135e+01   1.555378e+01
   6.257900e+01   9.006379e+01
   4.070257e+01   1.163024e+02
  -4.822297e+01   4.583842e+01
  -1.339933e+02  -4.114075e+01
  -1.351791e+02  -8.239837e+01
  -1.694187e+01  -5.082625e+01
   9.415140e+01  -2.494919e+01
   8.670976e+01  -7.511175e+00
   1.085124e+01   6.888737e+00
  -3.990672e+01   2.135427e+01
  -1.372785e+01   2.137284e+01
   2.231990e+01   5.023341e-01
  -5.587653e+00  -1.076593e+01
  -7.874623e+01  -7.112420e+00
  -9.110750e+01  -2.400078e+01
  -8.512989e+00  -7.497638e+01
   1.273918e+02  -1.091812e+02
   1.857319e+02  -5.890162e+01
   1.314616e+02   6.748618e+01
   2.576710e+01   1.584625e+02
  -8.112967e+01   1.467374e+02
  -1.101363e+02   5.996742e+01
  -7.901162e+01  -2.302688e+01
  -2.587807e+01  -3.614358e+01
   3.451678e+00  -5.962671e+00
  -9.992905e+00  -4.130303e+00
  -3.452229e+01  -4.594584e+01
  -1.928435e+01  -9.547500e+01
   2.996852e+01  -6.862510e+01
   8.276884e+01   2.207872e+01
   7.104907e+01   1.088601e+02
  -3.125011e+00   1.113823e+02
  -8.445472e+01   1.817146e+01
  -9.693447e+01  -8.415376e+01
  -3.444931e+01  -1.015967e+02
   7.244317e+01  -4.785576e+01
   9.654856e+01   1.236578e+01
   4.319216e+01   4.829769e+01
  -3.259320e+01   4.657496e+01
  -3.087226e+01   3.091097e+01
   3.342806e+01   2.133502e+00
   6.888246e+01  -9.658591e+00
   1.500034e+01   2.458305e+01
  -8.059259e+01   6.987258e+01
  -1.179436e+02   6.207497e+01
  -6.159537e+01  -9.350971e+00
   1.186484e+01  -8.080439e+01
   5.303117e+01  -7.467162e+01
   3.522304e+01  -4.742749e+00
   7.302473e-01   5.448331e+01
  -2.772894e+01   3.976076e+01
  -3.474984e+01  -2.230775e+01
  -2.805262e+01  -5.145019e+01
   2.039537e+00  -3.213084e+01
   2.893982e+01   8.396698e+00
   4.149104e+01   2.046175e+01
   2.323264e+01  -4.988561e-01
  -1.766511e+00  -1.298583e+01
  -8.231454e+00   3.502328e+00
  -7.507504e+00   3.344084e+01
  -2.047541e+01   4.290298e+01
  -2.781463e+01   2.528005e+00
  -2.952058e+01  -4.333654e+01
   3.766790e+00  -5.766333e+01
   4.494280e+01  -1.826871e+01
   5.677446e+01   4.246224e+01
   1.353509e+01   6.230021e+01
  -5.388337e+01   3.945780e+01
  -9.042448e+01  -1.410116e+01
  -4.940343e+01  -4.479459e+01
   3.134186e+01  -3.841605e+01
   6.550790e+01  -1.884784e+01
   2.380772e+01  -3.680824e+00
  -3.595787e+01  -6.781987e+00
  -3.808297e+01  -1.797216e+01
   3.290983e+01  -3.032043e+01
   9.393187e+01  -1.202614e+01
