
 $NMID
 id='ANONYMOUS ', fmtdat='(2E16.6)'
 volume=1.0
 tramp=1.0
 $END
  -4.662513e+03  -3.783404e+02
  -2.487811e+03  -2.490969e+03
   6.767088e+02  -2.815266e+03
   2.352785e+03  -8.610919e+02
   9.572057e+02   8.581931e+02
  -7.829141e+02   5.032198e+02
  -8.717352e+02  -4.800569e+02
   5.746782e+01  -1.073056e+03
   8.621129e+02  -8.335500e+02
   1.068733e+03   2.007503e+02
   4.140247e+02   9.155049e+02
  -3.037980e+02   9.391856e+02
  -7.218304e+02  -2.644498e+01
  -3.972220e+02  -8.485334e+02
   2.821401e+02  -7.828795e+02
   6.374770e+02   4.575024e+01
   1.748475e+02   7.153645e+02
  -3.906275e+02   6.454770e+02
  -5.945603e+02   5.091869e+01
  -4.038927e+02  -4.333322e+02
   1.179178e+01  -4.198931e+02
   2.508090e+02  -2.571038e+02
   2.223960e+02  -6.155325e+00
  -1.567266e+02   1.112103e+02
  -4.018159e+02  -1.314652e+02
  -2.305572e+02  -4.687443e+02
   5.278553e+02  -4.237080e+02
   9.548350e+02   9.324653e+01
   4.030708e+02   5.721728e+02
  -4.811351e+02   4.785135e+02
  -7.953614e+02  -7.427870e+01
  -4.239030e+02  -4.712955e+02
   3.010438e+02  -5.284216e+02
   5.667511e+02  -1.567323e+02
   4.207810e+02   2.271070e+02
   7.005330e+01   4.618700e+02
  -2.194544e+02   2.574319e+02
  -1.854211e+02  -3.042375e+02
   1.959956e+02  -4.927638e+02
   4.762545e+02   2.016807e+01
   2.473419e+02   8.100262e+02
  -3.300269e+02   7.681783e+02
  -6.711056e+02  -2.704792e+00
  -2.581863e+02  -6.043403e+02
   3.200659e+02  -3.624666e+02
   4.153257e+02   3.992819e+02
  -8.588358e+01   5.595073e+02
  -5.942722e+02   1.481143e+02
  -6.382394e+02  -4.374783e+02
  -1.403282e+02  -6.012928e+02
   4.232719e+02  -3.324599e+02
   6.806307e+02   9.543703e+01
   3.934954e+02   4.656865e+02
  -1.763045e+02   3.591486e+02
  -4.756896e+02   1.047066e+02
  -2.297038e+02  -2.481025e+02
   1.522099e+02  -1.126378e+02
   1.690673e+02   1.581456e+02
  -1.981009e+02   1.758514e+02
  -4.029691e+02  -6.162556e+01
  -1.589815e+02  -3.339579e+02
   2.165983e+02  -2.747698e+02
   3.500626e+02  -8.430922e+01
   2.090731e+02   8.417872e+01
  -3.138634e+01   1.986670e+02
  -2.318421e+02   3.402623e+02
  -3.570918e+02   2.567891e+02
  -3.119034e+02  -1.094860e+02
  -5.525113e+01  -4.667301e+02
   1.106237e+02  -3.748126e+02
   1.043750e+02  -1.052461e+02
   1.495293e+01   2.771535e+01
   3.820008e+01  -8.444828e+01
   2.161258e+02  -1.245204e+02
   3.044463e+02   2.730470e+01
   1.614399e+02   3.008621e+02
  -6.337274e+01   2.856467e+02
  -2.233592e+02   1.769848e+01
  -1.929913e+02  -2.614799e+02
   3.740580e+01  -3.250765e+02
   2.702131e+02  -1.394057e+02
   3.719734e+02   1.962389e+02
   1.636234e+02   3.634139e+02
  -1.065249e+02   3.095559e+02
  -2.430674e+02   1.205219e+02
  -1.568850e+02  -8.749684e+00
  -9.312993e+01   1.937428e+01
  -2.438127e+02   6.521271e+01
  -4.001776e+02  -4.802176e+01
  -3.389692e+02  -2.987252e+02
  -1.526655e+01  -4.249006e+02
   3.669087e+02  -4.089080e+02
   5.022882e+02  -1.796958e+02
   3.585483e+02   1.047244e+02
   6.964346e+01   3.234457e+02
  -1.515679e+02   2.692025e+02
  -1.013197e+02   2.371516e+01
   1.196223e+02  -1.374154e+02
   2.055131e+02   9.306443e+00
   5.379368e+01   2.114622e+02
  -1.841231e+02   1.781760e+02
  -2.029469e+02  -7.560448e+01
   3.005193e+01  -1.866307e+02
   1.931671e+02  -5.844349e+01
   1.528297e+02   2.645582e+02
  -1.827201e+01   3.618848e+02
  -2.370131e+02   1.869794e+02
  -3.272459e+02  -7.070873e+01
  -2.705931e+02  -2.324473e+02
  -1.128113e+02  -2.734984e+02
   1.251847e+02  -1.761612e+02
   1.860469e+02  -2.514404e+01
   6.618596e+01   4.180910e+01
  -7.837237e+01  -3.828174e+01
  -3.314592e+01  -1.326779e+02
   1.275657e+02  -1.134697e+02
   1.810928e+02   1.926273e+01
   6.481791e+01   7.892371e+01
  -8.159903e+01   2.266175e+01
  -5.731507e+01  -6.702139e+01
   1.129241e+02  -1.005253e+02
   2.902534e+02   1.781266e+00
   2.517168e+02   1.318942e+02
   7.510310e+01   2.528382e+02
  -1.735442e+02   2.596644e+02
  -2.940722e+02   1.328033e+02
  -1.665244e+02  -5.648202e+01
   2.177981e+01  -1.274602e+02
   9.130320e+01  -4.416655e+00
  -2.914066e+01   1.226078e+02
  -2.174015e+02   5.711239e+01
  -2.343489e+02  -1.048223e+02
  -6.657320e+01  -2.061314e+02
   9.144519e+01  -1.525978e+02
   1.533715e+02  -2.528502e+01
   7.464035e+01   3.952355e+01
  -2.822035e+01   5.027138e+00
  -4.210689e+01  -8.125383e+01
   6.485118e+01  -1.171637e+02
   2.022918e+02  -4.277785e+01
   1.874092e+02   1.177014e+02
   2.983407e+01   2.108711e+02
  -1.842720e+02   1.720079e+02
  -1.997116e+02   5.550399e+00
  -6.228657e+01  -1.229772e+02
   6.995957e+01  -1.172241e+02
   8.408889e+01  -2.859898e+01
   1.975202e+01   2.730236e+01
  -2.244796e+01   1.976840e+01
   1.403513e+01  -5.655006e-01
   6.897538e+01   1.839566e+01
   8.994890e+01   8.441810e+01
   2.409615e+01   1.509033e+02
  -1.178216e+02   1.547692e+02
  -2.419032e+02   3.746561e+01
  -2.006694e+02  -1.403144e+02
  -3.910827e+01  -2.407518e+02
   1.142019e+02  -1.624455e+02
   1.343247e+02  -2.652692e+01
   7.152734e+01   5.458722e+01
   2.797705e+01   3.805061e+01
   5.469602e+01  -1.297337e+01
   7.696084e+01  -2.894610e+00
   3.656094e+01   4.707894e+01
  -4.018801e+01   8.660659e+01
  -1.051042e+02   4.817065e+01
  -8.564614e+01  -3.408956e+01
   2.016887e+01  -1.059661e+02
   1.353031e+02  -8.584597e+01
   1.943569e+02   3.917459e+01
   1.076319e+02   2.016898e+02
  -9.971967e+01   2.191585e+02
  -2.679050e+02   9.999914e+01
  -2.727911e+02  -7.854940e+01
  -1.134444e+02  -1.726887e+02
   3.936404e+01  -1.431278e+02
   9.457532e+01  -9.001422e+01
   7.785197e+01  -7.721251e+01
   6.978047e+01  -9.194151e+01
   9.549057e+01  -7.478346e+01
   1.344791e+02   2.495503e+01
   1.187676e+02   1.483503e+02
   2.876129e+01   2.333481e+02
  -1.008001e+02   1.799410e+02
  -1.732079e+02   1.765991e+01
  -1.401661e+02  -1.259942e+02
  -2.386349e+01  -1.536559e+02
   6.607096e+01  -1.037435e+02
   6.439927e+01  -7.091477e-01
   9.473731e+00   3.893695e+01
  -4.996662e+00   3.090269e+01
   3.866445e+01   1.853592e+01
   7.480656e+01   2.861674e+01
   3.999244e+01   3.657407e+01
  -6.490287e+01   3.710449e+01
  -1.568690e+02   6.496783e+00
  -1.441576e+02  -4.564940e+01
  -1.495835e+01  -8.340370e+01
   1.315596e+02  -7.010873e+01
   1.429352e+02  -1.492565e+01
   4.761112e+01   3.966231e+01
  -5.867642e+01   3.520558e+01
  -7.274259e+01  -2.082701e+01
  -5.048933e+00  -6.331653e+01
   5.407449e+01  -5.712053e+01
   6.230430e+01   2.329057e+00
   3.975551e+01   5.024029e+01
   4.115937e+01   4.367896e+01
   6.266707e+01   1.897461e+00
   7.028899e+01   4.347010e+00
   3.301731e+01   7.377695e+01
  -3.169407e+01   1.469035e+02
  -1.159512e+02   1.476638e+02
  -1.726911e+02   2.525097e+01
  -1.226721e+02  -9.596319e+01
  -4.446361e+00  -1.181360e+02
   8.762647e+01  -5.792529e+01
   6.496580e+01   1.715343e+01
  -5.495455e+01   2.274786e+01
  -1.435017e+02  -4.721914e+01
  -7.801926e+01  -1.083972e+02
   7.650975e+01  -1.062422e+02
   2.018543e+02  -6.000093e+01
   1.727435e+02   3.118257e+01
   4.337463e+01   8.442822e+01
  -5.951185e+01   6.751070e+01
  -4.769337e+01   8.375769e+00
   3.997045e+01  -2.655300e+01
   9.199099e+01   2.391846e+01
   3.000019e+01   1.219722e+02
  -8.412371e+01   1.524221e+02
  -1.778225e+02   5.698576e+01
  -1.265532e+02  -1.029268e+02
  -4.036442e+00  -1.957125e+02
   8.284029e+01  -1.586927e+02
   1.118246e+02   1.492342e+01
   6.464101e+01   1.192160e+02
  -1.637316e+00   1.073248e+02
  -4.220202e+01   1.929062e+01
  -5.580508e+01  -3.132549e+01
  -2.915182e+01  -5.794244e+00
  -3.637226e+00   2.068498e+01
  -2.109010e+01  -1.314520e+01
  -5.768321e+01  -8.765547e+01
  -4.411024e+01  -1.113097e+02
   4.739877e+01  -4.502140e+01
   1.343242e+02   3.870901e+01
   1.334623e+02   8.551797e+01
   1.863665e+01   4.968093e+01
  -9.313178e+01   1.971481e+01
  -8.753329e+01   9.218416e+00
  -1.085112e+01  -6.141858e+00
   4.184105e+01  -2.062659e+01
   1.509912e+01  -1.953236e+01
  -2.347136e+01   1.202019e+00
   6.244605e+00   1.033154e+01
   7.848441e+01   4.548895e+00
   9.387405e+01   2.434490e+01
   1.352264e+01   7.302447e+01
  -1.212972e+02   1.107291e+02
  -1.819649e+02   5.696249e+01
  -1.384396e+02  -6.939471e+01
  -2.422026e+01  -1.582528e+02
   8.641593e+01  -1.430554e+02
   1.123683e+02  -5.366029e+01
   8.428105e+01   1.732842e+01
   2.752502e+01   3.674378e+01
  -4.179243e+00   6.981012e+00
   1.043039e+01   4.189869e+00
   3.319700e+01   4.375220e+01
   1.613292e+01   9.283075e+01
  -3.013172e+01   7.221208e+01
  -8.046385e+01  -2.600651e+01
  -6.855574e+01  -1.100924e+02
  -2.676595e+00  -1.160007e+02
   8.415435e+01  -1.672709e+01
   1.036527e+02   8.279161e+01
   3.013893e+01   1.066066e+02
  -6.902430e+01   5.670762e+01
  -9.110692e+01  -1.523174e+01
  -3.548246e+01  -5.051404e+01
   3.316118e+01  -4.842505e+01
   3.032288e+01  -3.066488e+01
  -3.458135e+01  -2.656604e+00
  -7.073369e+01   5.854025e+00
  -1.475514e+01  -2.513405e+01
   8.064849e+01  -7.019977e+01
   1.089952e+02  -5.059099e+01
   5.893037e+01   5.241975e+00
  -1.293987e+01   7.952852e+01
  -5.253499e+01   7.416990e+01
  -3.420111e+01   3.996755e+00
   1.064475e+00  -5.262516e+01
   2.510456e+01  -4.208988e+01
   3.402467e+01   1.792211e+01
   2.577377e+01   5.704726e+01
   1.962423e-01   3.318900e+01
  -3.266712e+01  -9.386158e+00
  -4.080647e+01  -1.765480e+01
  -2.194584e+01  -3.736478e-01
  -2.110146e-01   1.287645e+01
   4.218943e+00  -5.322179e+00
   8.093451e+00  -3.674228e+01
   1.799384e+01  -3.925028e+01
   3.487140e+01  -1.180073e+00
   3.067355e+01   4.207421e+01
  -6.319504e+00   6.186361e+01
  -4.461920e+01   1.966809e+01
  -5.670301e+01  -4.237249e+01
  -1.134701e+01  -6.218204e+01
   5.532341e+01  -3.273269e+01
   8.791299e+01   1.548372e+01
   4.622307e+01   4.570509e+01
  -2.885186e+01   4.058639e+01
  -5.963929e+01   2.079339e+01
  -2.446333e+01   4.160417e+00
   3.675804e+01   3.256483e+00
   3.693389e+01   1.825500e+01
  -3.401945e+01   3.324981e+01
  -8.754008e+01   1.661408e+01
