
 $NMID
 id='ANONYMOUS ', fmtdat='(2E16.6)'
 volume=1.0
 tramp=1.0
 $END
  -3.556283e+03  -2.058464e+02
  -1.920354e+03  -1.866571e+03
   9.799309e+01  -2.044445e+03
   1.412399e+03  -1.407476e+03
   9.945746e+02   3.305728e+01
  -9.997351e+01   2.743625e+02
  -3.256838e+02  -1.707658e+02
   4.421307e+01  -5.998588e+02
   5.556359e+02  -6.505520e+02
   6.701146e+02  -5.298511e+01
   3.686372e+02   6.290747e+02
   3.231876e-01   7.036890e+02
  -2.304522e+02   1.318667e+02
  -2.241493e+02  -4.214437e+02
   7.811974e+01  -5.906744e+02
   4.970299e+02  -3.754685e+01
   2.783547e+02   4.940730e+02
  -8.711696e+01   6.705402e+02
  -5.000432e+02   2.454785e+02
  -4.154323e+02  -1.987837e+02
  -9.953886e+01  -3.260404e+02
   1.326247e+02  -2.526329e+02
   1.059393e+02  -5.860196e+01
  -1.731644e+02  -8.279173e+01
  -3.188200e+02  -2.931207e+02
   5.175703e-01  -3.737297e+02
   4.941259e+02  -1.865871e+02
   6.622494e+02   1.597045e+02
   2.266155e+02   4.412267e+02
  -4.289536e+02   2.573456e+02
  -4.993682e+02  -1.950832e+02
  -2.153726e+02  -3.881584e+02
   2.552038e+02  -3.721464e+02
   4.642581e+02  -1.500205e+02
   3.702781e+02   2.076538e+02
   7.306033e+01   3.020025e+02
  -5.914804e+01   1.803952e+02
   2.076121e+01  -1.168412e+02
   2.701389e+02  -1.269231e+02
   1.979543e+02   1.095292e+02
   5.215419e+01   6.099480e+02
  -2.587480e+02   4.543836e+02
  -3.564064e+02  -4.557723e+01
  -1.505838e+02  -3.410812e+02
   2.378846e+02  -1.755310e+02
   1.397191e+02   2.802353e+02
  -1.399159e+02   4.245103e+02
  -4.896405e+02   4.629763e+01
  -5.131050e+02  -4.223370e+02
  -1.331503e+02  -4.857413e+02
   3.131083e+02  -2.714045e+02
   5.737798e+02   6.523809e+01
   3.697265e+02   2.612564e+02
  -7.481965e+01   1.916080e+02
  -2.958868e+02   1.165592e+02
  -1.980829e+02  -8.102492e+01
   5.013244e+01  -2.394336e+01
   1.011768e+02   7.547398e+01
  -1.077879e+02   7.187960e+01
  -2.436689e+02  -6.295533e+01
  -1.329761e+02  -1.869039e+02
   1.375527e+02  -2.489186e+02
   3.640505e+02  -1.235408e+02
   2.598906e+02   8.642296e+01
  -1.087771e+01   3.083618e+02
  -3.078237e+02   3.762664e+02
  -3.695121e+02   1.440063e+02
  -2.538344e+02  -1.496533e+02
  -3.689181e+01  -3.711912e+02
   5.898023e+01  -2.800791e+02
   9.643453e+00  -1.903420e+02
   3.877555e+01  -9.697543e+01
   1.470142e+02  -1.242798e+02
   2.741506e+02  -7.233512e+01
   2.464117e+02   1.098543e+02
   1.282498e+02   2.550318e+02
  -1.114757e+02   2.152190e+02
  -1.932683e+02  -3.305584e+01
  -1.280193e+02  -2.469809e+02
   5.847217e+01  -2.767198e+02
   2.601187e+02  -7.150365e+01
   3.029977e+02   1.914991e+02
   1.414394e+02   3.227892e+02
  -3.510625e+01   2.823810e+02
  -1.850153e+02   1.594730e+02
  -1.568619e+02   7.670396e+01
  -1.404780e+02   6.563150e+01
  -2.765749e+02   3.491200e+01
  -4.148828e+02  -7.802464e+01
  -3.318474e+02  -2.897175e+02
   9.125831e+00  -4.401700e+02
   3.914182e+02  -3.843331e+02
   4.768317e+02  -1.814102e+02
   3.246782e+02   1.023491e+02
   1.207934e+01   2.348934e+02
  -9.342489e+01   2.020707e+02
  -2.931420e+01   1.371892e+01
   1.261742e+02  -4.555521e+01
   1.281940e+02   5.002089e+01
  -1.008693e+01   1.614523e+02
  -1.177122e+02   1.284383e+02
  -1.122188e+02  -5.558041e+01
   1.631966e+01  -1.526613e+02
   1.720189e+02  -7.669773e+00
   1.588938e+02   2.514569e+02
  -2.556167e+01   3.316259e+02
  -2.413553e+02   2.123046e+02
  -3.630891e+02  -4.161462e+01
  -2.607565e+02  -2.427393e+02
  -6.411081e+01  -2.948868e+02
   1.345815e+02  -1.492783e+02
   1.631100e+02  -1.703353e+01
   3.336295e+01   2.360390e+01
  -6.053440e+01  -5.318106e+01
  -5.358500e+00  -1.204673e+02
   1.282996e+02  -8.164378e+01
   1.549990e+02   1.110319e+01
   2.476788e+01   5.933843e+01
  -8.484760e+01  -1.400590e+01
  -4.520829e+01  -8.274200e+01
   1.508122e+02  -9.858486e+01
   3.096317e+02   1.022927e+01
   2.598241e+02   1.650926e+02
   4.399859e+01   2.634084e+02
  -2.015749e+02   2.505166e+02
  -2.746562e+02   1.054851e+02
  -1.363498e+02  -4.748573e+01
   3.618686e+01  -7.711871e+01
   7.590774e+01   2.197012e+00
  -5.201762e+01   8.911269e+01
  -1.999558e+02   4.384348e+01
  -1.942952e+02  -1.014671e+02
  -6.495688e+01  -1.947691e+02
   9.403343e+01  -1.414334e+02
   1.314272e+02  -2.633032e+01
   5.257549e+01   4.242928e+01
  -4.161613e+01  -1.648798e+01
  -2.992618e+01  -1.080897e+02
   8.933271e+01  -1.237845e+02
   2.155134e+02  -1.134115e+01
   1.772515e+02   1.547115e+02
   1.366080e+01   2.143309e+02
  -1.577758e+02   1.396142e+02
  -1.764294e+02   1.210170e+01
  -6.127398e+01  -9.570070e+01
   6.301004e+01  -9.770991e+01
   6.807672e+01  -1.615037e+01
  -2.340811e+00   2.821380e+01
  -3.732593e+01   6.066345e+00
   9.267467e+00  -2.239942e+01
   9.292877e+01  -2.491805e+00
   9.911668e+01   9.180957e+01
   1.784483e+01   1.771230e+02
  -1.449787e+02   1.523203e+02
  -2.378247e+02   1.306466e+01
  -2.022346e+02  -1.606382e+02
  -4.225998e+01  -2.363920e+02
   1.093605e+02  -1.615719e+02
   1.315426e+02  -2.959414e+01
   7.437680e+01   4.283737e+01
   3.512181e+01   2.857680e+01
   5.649481e+01  -1.246505e+01
   8.656831e+01  -8.311146e+00
   5.334930e+01   5.660633e+01
  -3.925722e+01   1.100616e+02
  -1.276958e+02   6.350469e+01
  -1.060879e+02  -3.942389e+01
   1.437305e+01  -1.359942e+02
   1.684585e+02  -9.678013e+01
   2.157306e+02   6.282335e+01
   9.036760e+01   2.226528e+02
  -1.121933e+02   2.237614e+02
  -2.670702e+02   8.325731e+01
  -2.703749e+02  -9.009309e+01
  -9.769634e+01  -1.723794e+02
   3.816392e+01  -1.336101e+02
   8.734175e+01  -8.332927e+01
   7.372774e+01  -7.068398e+01
   5.796598e+01  -9.923669e+01
   9.123199e+01  -8.360353e+01
   1.324749e+02   2.516616e+01
   1.216220e+02   1.550179e+02
   2.154760e+01   2.228547e+02
  -1.090647e+02   1.707354e+02
  -1.707381e+02   1.182997e+01
  -1.327988e+02  -1.436025e+02
  -1.305740e+01  -1.559337e+02
   7.965668e+01  -8.255623e+01
   6.442892e+01   1.358329e+01
  -3.485573e+00   5.459351e+01
  -2.468832e+01   3.639189e+01
   3.003099e+01   1.215117e+01
   8.421324e+01   1.340918e+01
   5.177640e+01   3.898266e+01
  -7.358832e+01   4.179670e+01
  -1.685289e+02   6.244116e+00
  -1.493230e+02  -6.006012e+01
  -1.905818e-01  -9.735487e+01
   1.442602e+02  -8.063014e+01
   1.504659e+02  -4.872160e+00
   4.579652e+01   5.472266e+01
  -6.103150e+01   4.354810e+01
  -8.171169e+01  -1.771195e+01
  -1.951554e+01  -7.153847e+01
   4.720986e+01  -6.885592e+01
   6.837226e+01  -5.420703e+00
   5.973442e+01   4.990628e+01
   4.930187e+01   4.519166e+01
   5.477925e+01   4.203898e+00
   6.959280e+01   1.229314e+00
   4.778436e+01   7.148407e+01
  -1.884956e+01   1.542706e+02
  -1.275668e+02   1.486302e+02
  -1.827240e+02   3.892405e+01
  -1.362320e+02  -9.823239e+01
  -8.107077e+00  -1.338638e+02
   9.548555e+01  -7.123714e+01
   6.342640e+01   8.920960e+00
  -6.051215e+01   2.158681e+01
  -1.282090e+02  -4.133370e+01
  -7.443931e+01  -1.069388e+02
   8.108873e+01  -1.034120e+02
   1.887727e+02  -3.686599e+01
   1.587422e+02   5.163757e+01
   3.027451e+01   8.483707e+01
  -6.558772e+01   6.343838e+01
  -4.796413e+01  -2.671269e+00
   4.096334e+01  -2.903193e+01
   9.284127e+01   1.595915e+01
   3.801213e+01   1.211510e+02
  -8.365945e+01   1.533826e+02
  -1.624383e+02   7.128143e+01
  -1.231568e+02  -9.189767e+01
  -9.286973e+00  -1.979569e+02
   8.075520e+01  -1.350403e+02
   1.016391e+02   1.516931e+01
   5.492240e+01   1.259893e+02
  -1.313721e+01   1.090156e+02
  -5.090130e+01   1.358295e+01
  -4.645378e+01  -3.251199e+01
  -1.797729e+01  -9.544010e+00
  -6.641984e+00   1.923268e+01
  -3.355186e+01  -2.072262e+01
  -5.319027e+01  -9.659573e+01
  -2.600534e+01  -1.020100e+02
   5.646908e+01  -4.300513e+01
   1.316440e+02   3.272027e+01
   1.171300e+02   7.546320e+01
   1.912209e+01   5.135845e+01
  -7.713291e+01   2.499445e+01
  -8.806937e+01   5.087918e+00
  -1.633598e+01  -1.169898e+01
   3.536391e+01  -2.011123e+01
   2.028698e+01  -1.270108e+01
  -1.488292e+01   1.795107e+00
   3.926009e+00   5.687624e+00
   6.816619e+01   3.491765e-01
   9.379695e+01   2.553642e+01
   1.598955e+01   8.036696e+01
  -1.096370e+02   1.238689e+02
  -1.867444e+02   8.304531e+01
  -1.519403e+02  -5.210686e+01
  -2.671815e+01  -1.587820e+02
   7.659219e+01  -1.587386e+02
   1.080119e+02  -6.781655e+01
   8.444660e+01   1.926613e+01
   2.845979e+01   3.899199e+01
   4.675472e+00   1.150807e+01
   1.406552e+01   8.441069e+00
   3.693294e+01   4.895727e+01
   2.317016e+01   9.241917e+01
  -2.824767e+01   7.392288e+01
  -7.984023e+01  -1.310021e+01
  -8.630080e+01  -1.049942e+02
  -2.136336e+01  -1.101475e+02
   7.379982e+01  -3.331428e+01
   1.064009e+02   6.539930e+01
   4.464662e+01   1.041345e+02
  -6.419935e+01   6.244572e+01
  -1.047951e+02  -4.246190e+00
  -4.750553e+01  -5.753491e+01
   3.070941e+01  -6.292159e+01
   3.996420e+01  -2.977475e+01
  -2.379527e+01   6.099722e+00
  -7.013833e+01   5.454427e+00
  -1.883554e+01  -2.587466e+01
   7.580838e+01  -6.623357e+01
   1.278563e+02  -5.620615e+01
   7.151167e+01   1.394796e+01
  -1.070837e+01   8.388395e+01
  -5.422325e+01   8.581919e+01
  -4.172861e+01   1.578870e+01
  -7.375900e+00  -5.381017e+01
   2.005911e+01  -4.887224e+01
   3.786169e+01   9.580980e+00
   2.871079e+01   5.523800e+01
  -3.289840e-01   3.863502e+01
  -3.353282e+01  -4.164940e+00
  -4.375798e+01  -2.387381e+01
  -2.155791e+01  -5.491867e+00
   7.172601e+00   2.126909e+01
   6.475129e+00   1.013790e+01
  -4.348177e+00  -3.172679e+01
   4.829157e+00  -5.199847e+01
   2.618772e+01  -2.051264e+01
   3.794526e+01   3.424550e+01
   1.520043e+01   5.999037e+01
  -4.035944e+01   2.644418e+01
  -6.060249e+01  -2.961159e+01
  -2.066884e+01  -5.559795e+01
   5.742110e+01  -3.757422e+01
   9.355543e+01   9.056083e+00
   5.441142e+01   4.536559e+01
  -2.579809e+01   4.586323e+01
  -6.683107e+01   2.863476e+01
  -2.972325e+01   8.635888e+00
   2.932037e+01  -5.602873e+00
   3.468927e+01   8.492945e+00
  -2.130645e+01   2.744983e+01
  -8.211369e+01   2.171236e+01
