
 $NMID
 id='ANONYMOUS ', fmtdat='(2E16.6)'
 volume=1.0
 tramp=1.0
 $END
   3.568046e+03  -3.262059e+02
   2.415258e+03   2.052664e+03
  -4.836577e+02   2.413986e+03
  -1.565437e+03   9.332417e+02
  -9.265626e+02  -2.214161e+02
   1.912908e+02  -5.351861e+02
   7.450232e+02   2.236173e+02
  -1.839812e+02   7.891843e+02
  -5.641200e+02   6.806725e+02
  -7.879897e+02  -4.929122e+01
  -5.025569e+02  -6.788228e+02
   1.110957e+02  -7.541793e+02
   4.359828e+02  -2.030239e+02
   3.266222e+02   5.543579e+02
  -1.686422e+02   6.068883e+02
  -4.542501e+02   6.339210e+00
  -2.099259e+02  -5.958369e+02
   1.438353e+02  -6.720391e+02
   5.357913e+02  -1.414651e+02
   4.283607e+02   2.397355e+02
   7.969551e+01   3.967601e+02
  -1.930249e+02   2.259966e+02
  -1.188775e+02   6.581803e+01
   1.674943e+02  -2.209410e+01
   3.250264e+02   2.040320e+02
   4.629097e+01   3.643470e+02
  -3.920703e+02   3.426361e+02
  -6.734668e+02  -1.280242e+02
  -2.379094e+02  -5.251879e+02
   3.037814e+02  -4.076537e+02
   6.659298e+02   1.277311e+02
   2.146487e+02   4.414388e+02
  -2.999912e+02   4.510365e+02
  -4.965256e+02   1.462234e+02
  -3.119548e+02  -1.797384e+02
  -8.294960e+01  -3.813332e+02
   8.319621e+01  -1.794923e+02
   1.420108e+02   1.541688e+02
  -1.463361e+02   2.894064e+02
  -2.754100e+02  -1.068602e+01
  -5.661901e+01  -5.658333e+02
   2.548954e+02  -5.876803e+02
   4.349780e+02   5.413983e+01
   1.658621e+02   4.274845e+02
  -2.338620e+02   2.285101e+02
  -2.767990e+02  -2.936400e+02
   8.979737e+01  -4.679482e+02
   5.176572e+02  -8.808482e+01
   5.512783e+02   3.599630e+02
   1.638973e+02   5.276483e+02
  -3.497970e+02   2.902851e+02
  -5.470503e+02  -6.048345e+01
  -3.695745e+02  -2.717905e+02
   8.854779e+01  -2.686315e+02
   3.437648e+02  -5.651785e+01
   2.403178e+02   1.079831e+02
  -6.663517e+01   6.722147e+01
  -8.192340e+01  -6.574485e+01
   1.085884e+02  -1.282802e+02
   3.000584e+02   4.517673e+01
   1.286229e+02   2.425572e+02
  -1.900921e+02   2.233599e+02
  -3.391060e+02   1.184088e+02
  -2.384580e+02  -8.103471e+01
   4.065949e+01  -2.618262e+02
   2.439221e+02  -3.536563e+02
   3.478261e+02  -1.902250e+02
   2.742230e+02   1.362519e+02
   5.733736e+01   4.056306e+02
  -4.755457e+01   3.809342e+02
  -6.197927e+01   1.266997e+02
  -4.062709e+01   4.947459e+01
  -9.860235e+01   1.098617e+02
  -1.787209e+02   7.845918e+01
  -2.398788e+02  -5.515515e+01
  -1.187650e+02  -2.518711e+02
   6.330439e+01  -2.259091e+02
   2.046985e+02   7.823346e+00
   1.669306e+02   2.645489e+02
  -6.291908e+00   2.787876e+02
  -2.483768e+02   8.273835e+01
  -3.378779e+02  -1.567433e+02
  -1.967041e+02  -3.323736e+02
   7.074936e+01  -2.847052e+02
   1.785464e+02  -1.269345e+02
   1.296100e+02  -4.584890e+01
   1.378297e+02  -4.649986e+01
   2.541945e+02  -4.809326e+01
   3.914973e+02   8.594774e+01
   3.360370e+02   2.911060e+02
   5.462318e+00   4.082162e+02
  -3.480897e+02   4.037293e+02
  -4.688351e+02   1.686247e+02
  -3.187022e+02  -1.038884e+02
  -4.699835e+01  -2.843183e+02
   1.106225e+02  -2.295747e+02
   4.016616e+01  -2.916976e+01
  -1.184124e+02   7.788060e+01
  -1.571242e+02  -3.817784e+01
  -2.410359e+01  -1.585999e+02
   1.374136e+02  -1.199442e+02
   1.366936e+02   5.677295e+01
  -3.734224e+01   1.556092e+02
  -1.712980e+02   1.379317e+01
  -1.706006e+02  -2.346208e+02
   3.286333e+01  -3.457857e+02
   2.462310e+02  -2.111270e+02
   3.333748e+02   6.366701e+01
   2.731160e+02   2.525822e+02
   8.244041e+01   2.707429e+02
  -1.137595e+02   1.583476e+02
  -1.544000e+02  -9.125326e+00
  -5.340180e+01  -1.961670e+01
   6.285424e+01   5.365775e+01
   1.336531e+01   1.263963e+02
  -1.196326e+02   7.342442e+01
  -1.581662e+02  -2.218597e+01
  -4.174791e+01  -6.291502e+01
   7.629882e+01  -2.109428e+00
   3.899898e+01   8.400623e+01
  -1.259217e+02   8.904361e+01
  -2.934543e+02  -7.656066e+00
  -2.622390e+02  -1.808114e+02
  -5.191450e+01  -2.551430e+02
   1.857679e+02  -2.282604e+02
   2.851653e+02  -9.724477e+01
   1.589022e+02   5.204913e+01
  -2.717595e+01   9.050531e+01
  -7.616036e+01   5.205715e+00
   5.090943e+01  -8.514264e+01
   1.871435e+02  -3.857901e+01
   1.982331e+02   9.852430e+01
   5.523249e+01   1.868349e+02
  -9.350123e+01   1.448895e+02
  -1.237148e+02   2.286276e+01
  -5.321933e+01  -3.942055e+01
   3.445275e+01   9.970028e+00
   2.985539e+01   9.737268e+01
  -7.733429e+01   1.159220e+02
  -2.010211e+02   3.447286e+01
  -1.916632e+02  -1.244437e+02
  -3.570503e+01  -2.109432e+02
   1.666035e+02  -1.558078e+02
   1.759660e+02  -1.038438e+00
   5.582940e+01   9.720594e+01
  -5.963979e+01   1.051710e+02
  -7.071260e+01   3.449688e+01
  -1.060233e+01  -2.485002e+01
   2.832451e+01  -1.362711e+01
  -1.294748e+01   2.093690e+01
  -8.212533e+01   2.396897e-01
  -8.938858e+01  -8.219012e+01
  -1.441329e+01  -1.627875e+02
   1.246044e+02  -1.582073e+02
   2.347971e+02  -2.115626e+01
   1.932982e+02   1.405490e+02
   5.260694e+01   2.276938e+02
  -1.009156e+02   1.466494e+02
  -1.334555e+02   3.799825e+01
  -7.540266e+01  -4.726508e+01
  -2.966622e+01  -3.192957e+01
  -5.431533e+01   1.328269e+01
  -8.349652e+01   4.784251e+00
  -5.060525e+01  -5.367684e+01
   4.511211e+01  -9.461708e+01
   1.063588e+02  -5.975697e+01
   9.869098e+01   3.417950e+01
  -1.492670e+01   1.153667e+02
  -1.441193e+02   8.785295e+01
  -1.930374e+02  -5.953207e+01
  -1.000583e+02  -1.967034e+02
   1.115089e+02  -2.395572e+02
   2.588821e+02  -9.047238e+01
   2.459393e+02   8.354653e+01
   1.100003e+02   1.705804e+02
  -3.096336e+01   1.390901e+02
  -8.552158e+01   8.175259e+01
  -7.031922e+01   6.294051e+01
  -6.129731e+01   9.440788e+01
  -8.834939e+01   7.709780e+01
  -1.243588e+02  -1.628591e+01
  -1.223850e+02  -1.482571e+02
  -3.382867e+01  -2.183010e+02
   1.056157e+02  -1.651421e+02
   1.714786e+02  -1.222428e+01
   1.257358e+02   1.194910e+02
   5.560308e+00   1.600940e+02
  -6.709296e+01   8.109934e+01
  -6.097284e+01  -8.697965e+00
  -3.742755e+00  -5.061653e+01
   1.778136e+01  -4.086419e+01
  -3.288780e+01  -1.405347e+01
  -8.349221e+01  -1.626599e+01
  -4.789067e+01  -3.935451e+01
   6.237150e+01  -3.771667e+01
   1.630633e+02  -4.167753e+00
   1.410632e+02   5.371102e+01
   9.901858e+00   9.423070e+01
  -1.235830e+02   7.422573e+01
  -1.495524e+02   1.386655e+01
  -4.860270e+01  -4.435146e+01
   6.006849e+01  -3.966585e+01
   7.321824e+01   1.800955e+01
   1.808235e+01   7.113604e+01
  -4.525001e+01   6.480126e+01
  -6.680046e+01  -3.021619e-01
  -5.121450e+01  -4.782388e+01
  -4.549585e+01  -4.104253e+01
  -5.763964e+01  -2.620092e+00
  -6.386760e+01  -1.996497e-01
  -3.345392e+01  -7.117385e+01
   2.182424e+01  -1.525408e+02
   1.173094e+02  -1.491548e+02
   1.690349e+02  -2.583615e+01
   1.309132e+02   9.146317e+01
   7.066782e+00   1.305971e+02
  -8.494365e+01   6.623119e+01
  -6.019214e+01  -1.285232e+01
   5.795510e+01  -1.946413e+01
   1.388880e+02   4.588230e+01
   7.348652e+01   1.030159e+02
  -7.751225e+01   1.129725e+02
  -1.909844e+02   6.024431e+01
  -1.573746e+02  -3.742958e+01
  -3.746433e+01  -8.502453e+01
   5.899620e+01  -6.626189e+01
   4.876847e+01  -6.155625e+00
  -3.810312e+01   2.948381e+01
  -8.771854e+01  -1.877341e+01
  -3.536021e+01  -1.132443e+02
   7.973906e+01  -1.556745e+02
   1.521125e+02  -7.623037e+01
   1.291835e+02   9.124059e+01
   2.088694e+01   1.847135e+02
  -7.150902e+01   1.385681e+02
  -1.017668e+02  -7.673119e+00
  -5.965263e+01  -1.107468e+02
   1.093071e+01  -9.970416e+01
   4.686304e+01  -1.706851e+01
   4.590641e+01   2.985952e+01
   2.200130e+01   6.404619e+00
   4.214307e+00  -1.934081e+01
   2.341155e+01   2.134408e+01
   5.602341e+01   8.588882e+01
   3.407401e+01   1.083368e+02
  -5.035862e+01   4.349823e+01
  -1.374482e+02  -4.030101e+01
  -1.292770e+02  -6.212436e+01
  -1.884524e+01  -5.062733e+01
   8.376186e+01  -2.924183e+01
   8.286269e+01  -8.916391e+00
   1.363079e+01   8.353821e+00
  -3.474013e+01   2.163907e+01
  -1.409338e+01   1.406509e+01
   1.731354e+01  -2.660815e+00
  -4.516468e+00  -7.072623e+00
  -6.441306e+01   4.022610e-01
  -9.454778e+01  -1.778494e+01
  -1.959612e+01  -8.009285e+01
   1.041069e+02  -1.060496e+02
   1.875532e+02  -7.361782e+01
   1.411761e+02   4.695293e+01
   3.651827e+01   1.601875e+02
  -7.743743e+01   1.576985e+02
  -1.120688e+02   6.057153e+01
  -8.269422e+01  -2.038038e+01
  -2.511997e+01  -3.583504e+01
   4.215122e-01  -1.122874e+01
  -1.147572e+01  -5.862597e+00
  -3.244436e+01  -4.436117e+01
  -2.221906e+01  -9.035871e+01
   2.845990e+01  -6.928777e+01
   8.065180e+01   1.783884e+01
   7.777466e+01   1.014537e+02
   1.410632e+01   1.074812e+02
  -7.401355e+01   2.874339e+01
  -1.117143e+02  -7.122987e+01
  -3.705121e+01  -1.046599e+02
   5.977720e+01  -6.148171e+01
   9.887589e+01   5.396511e+00
   4.272396e+01   5.229560e+01
  -3.111096e+01   6.007155e+01
  -3.432626e+01   2.958159e+01
   3.205605e+01  -2.745446e+00
   6.802964e+01  -6.609337e+00
   1.724493e+01   2.579006e+01
  -7.323965e+01   6.590072e+01
  -1.141348e+02   6.076939e+01
  -6.856668e+01  -1.111840e+01
   1.501667e+01  -8.068610e+01
   5.144932e+01  -7.975929e+01
   4.258207e+01  -1.136475e+01
   4.066643e+00   5.116667e+01
  -2.006234e+01   4.645293e+01
  -3.695303e+01  -1.580681e+01
  -2.899597e+01  -5.184203e+01
  -1.112017e-01  -3.395970e+01
   3.368400e+01   6.055796e+00
   3.888594e+01   2.413254e+01
   2.149504e+01   3.159276e+00
  -3.372809e+00  -1.676559e+01
  -5.295566e+00  -1.955780e+00
  -3.268894e+00   3.310909e+01
  -6.726058e+00   5.048249e+01
  -2.829243e+01   1.763383e+01
  -3.466641e+01  -3.133739e+01
  -8.566448e+00  -5.933621e+01
   4.181008e+01  -2.541421e+01
   5.965007e+01   3.565584e+01
   2.254074e+01   6.047857e+01
  -5.379996e+01   3.831661e+01
  -8.895601e+01  -1.123298e+01
  -5.064011e+01  -4.392197e+01
   2.802017e+01  -4.366045e+01
   6.547199e+01  -2.762168e+01
   2.636730e+01  -6.733970e+00
  -3.198399e+01   6.308762e-01
  -3.460288e+01  -8.554780e+00
   2.246283e+01  -3.234257e+01
   8.045571e+01  -1.956282e+01
