
 $NMID
 id='ANONYMOUS ', fmtdat='(2E16.6)'
 volume=1.0
 tramp=1.0
 $END
  -3.184469e+03  -2.908833e+02
  -1.636456e+03  -1.672382e+03
   1.488329e+02  -1.961531e+03
   1.126807e+03  -1.290366e+03
   8.812784e+02  -1.502682e+02
   1.645077e+02   3.166906e+02
  -3.535809e+02  -3.360581e+02
   1.656838e+01  -4.238866e+02
   3.656268e+02  -6.251071e+02
   5.623714e+02  -5.957965e+01
   3.413825e+02   5.387947e+02
  -8.592565e+00   5.286609e+02
  -2.402386e+02   1.711783e+02
  -1.205307e+02  -4.821085e+02
   4.700485e+01  -5.388195e+02
   4.113077e+02  -3.778773e+01
   2.878525e+02   4.500858e+02
  -6.123601e+01   5.963842e+02
  -4.251732e+02   2.670792e+02
  -4.200970e+02  -1.955773e+02
  -1.090929e+02  -3.435223e+02
   1.218981e+02  -2.206155e+02
   6.314900e+01  -8.192291e+01
  -2.155664e+02  -1.489277e+02
  -2.405653e+02  -3.353361e+02
   4.203665e+01  -4.154726e+02
   4.993706e+02  -1.328914e+02
   5.485643e+02   1.465013e+02
   1.565740e+02   4.218285e+02
  -3.666839e+02   1.788242e+02
  -4.847477e+02  -1.980027e+02
  -1.601436e+02  -4.146823e+02
   2.706700e+02  -3.111340e+02
   4.593688e+02  -1.063065e+02
   3.198060e+02   1.309408e+02
   2.397015e+01   2.440864e+02
  -3.416884e+01   1.078669e+02
   2.683888e+01  -1.495789e+02
   2.850734e+02  -1.535210e+02
   1.849176e+02   1.421989e+02
   4.294497e+01   5.968975e+02
  -3.140445e+02   4.196072e+02
  -3.301956e+02  -2.254104e-01
  -1.243084e+02  -3.099474e+02
   1.836933e+02  -1.236560e+02
   1.187717e+02   3.174564e+02
  -1.749397e+02   3.846919e+02
  -4.290720e+02  -7.898695e-01
  -4.830132e+02  -4.547466e+02
  -9.394433e+01  -5.025916e+02
   2.850364e+02  -2.506501e+02
   4.944709e+02   7.988393e+01
   2.799719e+02   2.346791e+02
  -8.467115e+01   1.748919e+02
  -2.609407e+02   6.762827e+01
  -2.261053e+02  -6.087120e+01
   1.015022e+01  -3.200668e+00
   3.644409e+01   5.469210e+01
  -1.171955e+02   3.638083e+01
  -2.044274e+02  -4.987416e+01
  -1.131171e+02  -1.409986e+02
   1.424393e+02  -2.511405e+02
   3.546146e+02  -1.025061e+02
   2.736825e+02   9.345044e+01
  -1.801741e+01   3.138350e+02
  -3.475732e+02   3.778793e+02
  -3.972653e+02   1.151388e+02
  -2.258617e+02  -1.893185e+02
  -8.898496e+00  -3.797133e+02
   4.953569e+01  -3.265856e+02
  -1.043063e+01  -1.663669e+02
   2.891991e+01  -9.058340e+01
   1.638152e+02  -1.209312e+02
   2.540503e+02  -4.589407e+01
   2.471700e+02   1.440798e+02
   6.620536e+01   2.448960e+02
  -1.135737e+02   1.781618e+02
  -1.835629e+02  -4.579393e+01
  -1.276003e+02  -2.669939e+02
   8.117217e+01  -2.358555e+02
   2.577032e+02  -5.252909e+01
   2.860172e+02   1.782148e+02
   1.523895e+02   3.141209e+02
  -6.446456e+01   2.500803e+02
  -1.497779e+02   1.431912e+02
  -1.412289e+02   9.011466e+01
  -1.512100e+02   7.761513e+01
  -2.849793e+02   3.004699e+01
  -4.110449e+02  -1.147031e+02
  -3.074355e+02  -3.012190e+02
   1.806526e+01  -4.314798e+02
   4.063940e+02  -3.788476e+02
   4.745480e+02  -1.432933e+02
   2.739065e+02   1.056644e+02
  -4.532228e+00   2.553058e+02
  -1.276881e+02   1.659352e+02
  -1.056524e+01   1.313129e+01
   1.205007e+02  -5.361670e+01
   1.361134e+02   7.409127e+01
  -5.549666e+00   1.428659e+02
  -1.235569e+02   7.821210e+01
  -1.012727e+02  -7.517594e+01
   3.556981e+01  -1.198771e+02
   1.590279e+02   1.893325e+01
   1.299229e+02   2.416876e+02
  -2.396835e+01   3.310044e+02
  -2.383934e+02   2.053740e+02
  -3.506138e+02  -6.397907e+01
  -2.692526e+02  -2.719088e+02
  -6.258210e+01  -2.725223e+02
   1.449065e+02  -1.394815e+02
   1.573278e+02   8.354503e+00
   2.273399e+01   2.569964e+01
  -5.216469e+01  -6.679347e+01
   1.588305e+01  -1.191904e+02
   1.243047e+02  -5.701725e+01
   1.450423e+02   3.420305e+01
   2.103989e+01   6.933110e+01
  -9.109728e+01  -1.615659e+01
  -4.337014e+01  -9.732218e+01
   1.565000e+02  -7.969496e+01
   3.085405e+02   2.641220e+01
   2.421833e+02   1.702024e+02
   1.407519e+01   2.471463e+02
  -2.236397e+02   2.309083e+02
  -2.852320e+02   8.391304e+01
  -1.280967e+02  -5.195574e+01
   4.592477e+01  -7.392517e+01
   7.695626e+01   1.197398e+01
  -6.812959e+01   7.688866e+01
  -1.863459e+02   2.239032e+01
  -1.838116e+02  -1.220601e+02
  -4.285312e+01  -1.799926e+02
   9.420700e+01  -1.298754e+02
   1.256000e+02  -1.805394e+01
   3.978907e+01   4.381449e+01
  -4.618990e+01  -1.844639e+01
  -2.859999e+01  -1.264742e+02
   9.796540e+01  -1.198151e+02
   2.201085e+02  -4.117730e+00
   1.748378e+02   1.442315e+02
   6.828201e+00   2.036212e+02
  -1.552932e+02   1.377293e+02
  -1.796016e+02   5.225645e+00
  -5.266737e+01  -8.402756e+01
   7.159441e+01  -9.096818e+01
   7.174409e+01  -1.822726e+01
  -3.753221e+00   2.873115e+01
  -3.895678e+01   8.812855e+00
   5.921279e+00  -2.902818e+01
   9.531424e+01  -7.804832e+00
   1.056869e+02   1.044503e+02
   1.045825e+01   1.716809e+02
  -1.493962e+02   1.443511e+02
  -2.509199e+02   4.019055e+00
  -1.870320e+02  -1.598541e+02
  -3.156752e+01  -2.319603e+02
   1.078990e+02  -1.445166e+02
   1.239347e+02  -2.972584e+01
   7.019586e+01   4.586873e+01
   3.060638e+01   2.669331e+01
   5.738132e+01  -9.668902e+00
   9.009173e+01  -4.069078e+00
   5.379476e+01   6.046630e+01
  -3.490827e+01   1.049556e+02
  -1.271039e+02   7.146973e+01
  -1.104142e+02  -4.965383e+01
   1.881621e+01  -1.329556e+02
   1.711656e+02  -9.739196e+01
   2.001077e+02   7.515742e+01
   8.582939e+01   2.326120e+02
  -1.326076e+02   2.294857e+02
  -2.770167e+02   8.281613e+01
  -2.374391e+02  -1.010252e+02
  -9.449265e+01  -1.660206e+02
   5.262407e+01  -1.356451e+02
   8.599052e+01  -7.429512e+01
   7.041038e+01  -6.108983e+01
   6.077509e+01  -9.263054e+01
   8.904083e+01  -8.143665e+01
   1.219882e+02   2.698005e+01
   1.143789e+02   1.590131e+02
   1.981882e+01   2.295746e+02
  -1.025179e+02   1.670847e+02
  -1.671736e+02  -1.962850e+00
  -1.141990e+02  -1.355419e+02
  -3.011176e+00  -1.518984e+02
   8.112798e+01  -7.978084e+01
   6.497883e+01   1.959413e+01
  -7.744921e+00   5.753429e+01
  -3.029573e+01   3.997449e+01
   2.389220e+01   1.403536e+01
   8.291231e+01   1.574134e+01
   4.751942e+01   3.953841e+01
  -7.593991e+01   3.760528e+01
  -1.750125e+02   8.282072e+00
  -1.459073e+02  -7.086336e+01
   8.803630e-01  -9.936647e+01
   1.387876e+02  -7.325184e+01
   1.544666e+02   5.440977e+00
   4.071602e+01   5.286745e+01
  -6.074269e+01   4.375067e+01
  -7.551843e+01  -1.597703e+01
  -1.575622e+01  -7.182244e+01
   4.489972e+01  -6.244827e+01
   6.632065e+01  -4.933053e+00
   5.999634e+01   5.368599e+01
   4.937753e+01   4.551636e+01
   5.152226e+01   5.003312e+00
   6.550201e+01   3.075469e+00
   4.306564e+01   7.226927e+01
  -3.090403e+01   1.518814e+02
  -1.222067e+02   1.459322e+02
  -1.874510e+02   2.886045e+01
  -1.341255e+02  -1.037678e+02
  -5.046636e+00  -1.303424e+02
   9.521429e+01  -7.094521e+01
   6.244604e+01   1.402936e+01
  -6.063997e+01   1.556780e+01
  -1.339263e+02  -4.739213e+01
  -6.040603e+01  -1.102329e+02
   8.313094e+01  -1.059908e+02
   2.039959e+02  -3.196894e+01
   1.488373e+02   5.215966e+01
   2.331662e+01   8.733839e+01
  -6.673696e+01   5.437442e+01
  -4.712222e+01  -4.007070e+00
   3.948619e+01  -3.037769e+01
   9.773060e+01   1.805841e+01
   3.108020e+01   1.129178e+02
  -8.822624e+01   1.587306e+02
  -1.547074e+02   6.980946e+01
  -1.193886e+02  -9.637912e+01
  -8.337441e+00  -1.818367e+02
   8.547357e+01  -1.383857e+02
   1.043041e+02   1.436656e+01
   4.672321e+01   1.269640e+02
  -1.974592e+01   1.016146e+02
  -4.973579e+01   1.268856e+01
  -4.417728e+01  -3.334738e+01
  -1.542789e+01  -9.450193e+00
  -7.468028e+00   1.783548e+01
  -3.128653e+01  -2.375213e+01
  -5.321361e+01  -9.175544e+01
  -2.467535e+01  -1.071419e+02
   5.861293e+01  -3.911646e+01
   1.363617e+02   4.171110e+01
   1.161638e+02   7.687018e+01
   1.723723e+01   5.322454e+01
  -7.887808e+01   2.024585e+01
  -8.624991e+01   2.171368e+00
  -2.055380e+01  -1.116282e+01
   3.425530e+01  -1.882402e+01
   2.155933e+01  -1.208761e+01
  -1.277347e+01   1.816227e+00
   3.891412e+00   4.049669e+00
   6.726525e+01   3.126495e+00
   8.404728e+01   2.434167e+01
   2.025956e+01   7.938810e+01
  -1.127929e+02   1.143359e+02
  -1.762852e+02   6.357614e+01
  -1.482084e+02  -5.730516e+01
  -2.491334e+01  -1.648025e+02
   8.251156e+01  -1.572596e+02
   1.182886e+02  -7.085964e+01
   7.840030e+01   1.924717e+01
   2.788134e+01   4.001267e+01
   5.795802e+00   1.005433e+01
   1.721882e+01   9.658466e+00
   2.845357e+01   4.803566e+01
   2.081986e+01   9.128230e+01
  -2.900806e+01   7.164659e+01
  -7.186402e+01  -1.398270e+01
  -8.028070e+01  -9.944608e+01
  -1.117328e+01  -1.127423e+02
   7.287126e+01  -3.333318e+01
   9.635146e+01   6.678949e+01
   4.177145e+01   9.916156e+01
  -6.812902e+01   6.515796e+01
  -1.013165e+02  -8.252915e+00
  -4.464461e+01  -5.780241e+01
   3.582991e+01  -6.221846e+01
   4.334638e+01  -3.276301e+01
  -2.214043e+01   4.509077e+00
  -6.880010e+01   8.706332e+00
  -1.942150e+01  -2.702738e+01
   8.234127e+01  -6.772312e+01
   1.281558e+02  -4.944839e+01
   7.260418e+01   1.711170e+01
  -1.010649e+01   8.284956e+01
  -5.772599e+01   8.165858e+01
  -4.469947e+01   1.570643e+01
  -7.735518e+00  -4.810580e+01
   2.308887e+01  -4.579454e+01
   3.475225e+01   1.003969e+01
   2.865370e+01   5.291364e+01
   1.966491e+00   4.017612e+01
  -3.316563e+01  -3.962212e+00
  -4.081355e+01  -2.481883e+01
  -2.176421e+01  -6.499665e+00
   6.727495e+00   2.011727e+01
   5.982960e+00   7.976962e+00
  -4.671603e+00  -2.583395e+01
   6.016369e-01  -5.312678e+01
   2.566342e+01  -2.535950e+01
   3.382570e+01   3.189050e+01
   1.417893e+01   5.518549e+01
  -4.135478e+01   2.169628e+01
  -5.951771e+01  -3.132514e+01
  -1.989930e+01  -5.630542e+01
   5.683665e+01  -3.672303e+01
   9.397067e+01   1.236702e+01
   4.684177e+01   4.467442e+01
  -2.990745e+01   4.591855e+01
  -6.790830e+01   2.651363e+01
  -2.842309e+01   6.164344e+00
   2.507496e+01  -5.105396e+00
   2.772262e+01   8.849871e+00
  -2.012700e+01   2.398162e+01
  -7.404879e+01   1.899543e+01
