
 $NMID
 id='ANONYMOUS ', fmtdat='(2E16.6)'
 volume=1.0
 tramp=1.0
 $END
   3.444345e+03  -3.110467e+02
   2.223156e+03   1.854379e+03
  -2.327688e+02   2.106731e+03
  -1.463654e+03   9.509619e+02
  -7.800924e+02   5.907802e+00
   1.732980e+02  -2.455603e+02
   4.631158e+02   9.531554e+01
   5.673177e+01   6.612846e+02
  -5.171426e+02   5.902086e+02
  -5.870825e+02   1.851626e+01
  -4.897966e+02  -5.891362e+02
   1.364796e+02  -7.546126e+02
   3.121410e+02  -2.074510e+02
   3.475399e+02   3.986861e+02
  -1.805397e+02   5.522066e+02
  -4.178708e+02   2.116769e+01
  -2.917948e+02  -4.727634e+02
   1.903451e+02  -6.126681e+02
   5.098226e+02  -2.777663e+02
   3.873950e+02   2.065563e+02
   6.905875e+01   3.832899e+02
  -8.946607e+01   2.288912e+02
  -1.046171e+02   6.013795e+01
   1.840470e+02   4.605731e+01
   2.610879e+02   2.447482e+02
   2.773843e+00   3.582718e+02
  -4.693678e+02   2.019950e+02
  -6.101713e+02  -7.798472e+01
  -2.394546e+02  -4.276266e+02
   3.311242e+02  -2.350941e+02
   5.145328e+02   6.672289e+01
   2.440956e+02   3.854251e+02
  -2.780413e+02   3.715546e+02
  -4.578090e+02   9.763196e+01
  -3.396423e+02  -1.951750e+02
  -8.380115e+01  -3.390469e+02
   1.007552e+02  -1.565252e+02
   4.580233e+01   8.744043e+01
  -1.797104e+02   1.876971e+02
  -2.703021e+02  -1.315276e+02
  -4.330673e+01  -5.657567e+02
   2.026055e+02  -4.813090e+02
   3.676394e+02   1.157148e+02
   1.976424e+02   3.424620e+02
  -1.671497e+02   1.309184e+02
  -2.159436e+02  -2.292486e+02
   5.401504e+01  -3.882760e+02
   4.479462e+02  -4.938337e+01
   5.061156e+02   3.831751e+02
   1.249512e+02   4.563411e+02
  -3.008118e+02   2.800019e+02
  -5.030734e+02  -5.288249e+01
  -3.531911e+02  -2.885530e+02
   6.231324e+01  -2.166598e+02
   3.491734e+02  -7.745901e+01
   2.202436e+02   8.127744e+01
  -2.400284e+01   3.592614e+01
  -9.149549e+01  -7.493077e+01
   1.187693e+02  -7.188384e+01
   2.372628e+02   2.890339e+01
   1.303514e+02   2.167571e+02
  -1.397396e+02   2.530690e+02
  -3.161629e+02   1.285673e+02
  -2.496494e+02  -1.001205e+02
   9.584872e+00  -2.758993e+02
   2.649711e+02  -3.374998e+02
   3.334747e+02  -1.426975e+02
   2.395664e+02   1.528870e+02
   4.893044e+01   3.543946e+02
  -1.316866e+01   3.050700e+02
  -2.170021e+01   1.828205e+02
  -5.564650e+01   6.227574e+01
  -1.218978e+02   1.119057e+02
  -2.397652e+02   7.282041e+01
  -2.415848e+02  -8.295698e+01
  -1.128748e+02  -2.638297e+02
   9.297438e+01  -1.861608e+02
   2.003926e+02   2.031450e+01
   1.290012e+02   2.326246e+02
  -4.021718e+01   2.480156e+02
  -2.482620e+02   1.071792e+02
  -3.022554e+02  -1.615815e+02
  -1.344054e+02  -2.943505e+02
   5.578461e+01  -2.697469e+02
   1.695137e+02  -1.361354e+02
   1.458914e+02  -5.514104e+01
   1.274823e+02  -6.063314e+01
   2.613736e+02  -6.019388e+01
   3.818161e+02   6.404366e+01
   3.362083e+02   2.892074e+02
  -2.559757e+01   4.087889e+02
  -3.098632e+02   3.718696e+02
  -4.690200e+02   1.680119e+02
  -3.025735e+02  -1.175666e+02
  -2.371746e+01  -2.576555e+02
   1.158315e+02  -1.937800e+02
   2.857481e+01  -2.435997e+01
  -1.047828e+02   3.759715e+01
  -1.209882e+02  -4.019072e+01
  -1.995877e+01  -1.417270e+02
   1.193352e+02  -1.216686e+02
   9.876474e+01   6.432290e+01
  -1.798879e+01   1.221274e+02
  -1.607685e+02   1.509224e+01
  -1.428106e+02  -2.251518e+02
   4.536533e+01  -3.415463e+02
   2.285103e+02  -1.982115e+02
   3.393324e+02   6.789300e+01
   2.568205e+02   2.616044e+02
   7.194280e+01   2.685320e+02
  -1.181102e+02   1.594694e+02
  -1.470076e+02   6.750976e+00
  -3.989377e+01  -1.491038e+01
   5.194398e+01   5.422478e+01
  -1.205118e+01   1.126682e+02
  -1.138671e+02   7.300825e+01
  -1.510467e+02  -2.451021e+01
  -3.601013e+01  -4.939032e+01
   8.219185e+01   5.962240e+00
   4.463807e+01   9.619251e+01
  -1.401476e+02   8.817585e+01
  -2.799828e+02  -4.684174e-01
  -2.532331e+02  -1.759652e+02
  -2.376737e+01  -2.450799e+02
   1.948184e+02  -2.290645e+02
   2.533378e+02  -1.069928e+02
   1.344056e+02   4.068639e+01
  -3.267752e+01   8.448702e+01
  -6.108866e+01  -2.055669e+00
   4.080871e+01  -8.690821e+01
   1.816541e+02  -4.951101e+01
   1.781090e+02   8.884483e+01
   5.671360e+01   1.985267e+02
  -9.153454e+01   1.395776e+02
  -1.341042e+02   2.938538e+01
  -5.001955e+01  -3.618130e+01
   4.067067e+01   1.257262e+01
   3.420089e+01   1.025583e+02
  -9.689596e+01   1.116355e+02
  -2.058862e+02   9.683605e+00
  -1.714563e+02  -1.271863e+02
  -1.790258e+00  -2.087186e+02
   1.417681e+02  -1.507472e+02
   1.713257e+02   3.646944e+00
   4.487416e+01   9.948047e+01
  -5.568589e+01   8.607648e+01
  -7.218142e+01   1.825233e+01
  -4.744680e+00  -2.411109e+01
   3.478299e+01  -7.130176e+00
  -1.103356e+01   2.082192e+01
  -7.697427e+01   2.818635e+00
  -8.667292e+01  -8.063547e+01
  -1.221407e+01  -1.659466e+02
   1.252364e+02  -1.641856e+02
   2.245005e+02  -3.065188e+01
   1.860153e+02   1.577786e+02
   2.214439e+01   2.197902e+02
  -9.891530e+01   1.503881e+02
  -1.270097e+02   2.239118e+01
  -7.163201e+01  -4.880348e+01
  -2.761600e+01  -3.048357e+01
  -5.098495e+01   1.325104e+01
  -8.284043e+01   1.154920e+01
  -5.211567e+01  -5.289336e+01
   3.332762e+01  -9.695704e+01
   1.121295e+02  -5.996784e+01
   1.011530e+02   3.679406e+01
  -1.192943e+01   1.183070e+02
  -1.531871e+02   8.560460e+01
  -2.088262e+02  -5.439428e+01
  -8.932896e+01  -2.069288e+02
   1.094131e+02  -2.272345e+02
   2.547953e+02  -9.619949e+01
   2.400125e+02   6.941742e+01
   8.495548e+01   1.582885e+02
  -3.100117e+01   1.320861e+02
  -9.511454e+01   7.593843e+01
  -7.029502e+01   7.138641e+01
  -4.904081e+01   8.822788e+01
  -8.629942e+01   7.990790e+01
  -1.244743e+02  -1.442501e+01
  -1.230254e+02  -1.633571e+02
  -2.363333e+01  -2.167188e+02
   9.465308e+01  -1.751297e+02
   1.621388e+02  -2.125092e+01
   1.228308e+02   1.286109e+02
   1.032355e+01   1.544186e+02
  -7.647634e+01   8.757635e+01
  -5.852997e+01  -1.342643e+01
   1.101325e+00  -4.796286e+01
   2.551892e+01  -3.523875e+01
  -2.972633e+01  -8.892668e+00
  -8.027770e+01  -2.340660e+01
  -4.969336e+01  -3.829910e+01
   6.819982e+01  -3.529240e+01
   1.618309e+02  -1.096932e+01
   1.440027e+02   5.458851e+01
   8.296324e+00   9.566005e+01
  -1.320518e+02   7.080286e+01
  -1.383684e+02   7.751509e+00
  -4.517136e+01  -4.612585e+01
   5.899621e+01  -4.060788e+01
   7.433438e+01   1.770347e+01
   1.960126e+01   6.878603e+01
  -4.281793e+01   6.261578e+01
  -6.169140e+01   3.041482e+00
  -6.125277e+01  -4.991955e+01
  -4.577756e+01  -3.779486e+01
  -5.647632e+01  -9.961425e-01
  -6.453256e+01  -4.757537e+00
  -4.105913e+01  -6.359896e+01
   2.424158e+01  -1.422969e+02
   1.060144e+02  -1.482478e+02
   1.681125e+02  -3.577187e+01
   1.210334e+02   8.798161e+01
   1.003979e+01   1.324881e+02
  -8.501104e+01   5.557494e+01
  -5.801286e+01  -1.057293e+01
   5.888204e+01  -1.934891e+01
   1.282169e+02   3.862903e+01
   7.695119e+01   9.987814e+01
  -8.307871e+01   1.041554e+02
  -1.739256e+02   4.888778e+01
  -1.475908e+02  -3.870692e+01
  -3.392422e+01  -7.981948e+01
   5.727495e+01  -5.547123e+01
   4.499169e+01   3.240623e+00
  -3.852303e+01   2.762952e+01
  -8.780335e+01  -1.818938e+01
  -3.681916e+01  -1.110157e+02
   6.978633e+01  -1.556989e+02
   1.556986e+02  -5.755874e+01
   1.246682e+02   8.670740e+01
   1.159646e+01   1.770640e+02
  -8.497247e+01   1.334380e+02
  -9.670496e+01  -9.945393e+00
  -4.840351e+01  -1.154056e+02
   9.369134e+00  -1.043741e+02
   5.227998e+01  -1.623756e+01
   4.341664e+01   3.358523e+01
   1.482827e+01   7.345181e+00
   5.160789e+00  -1.678358e+01
   2.728445e+01   2.208415e+01
   5.722833e+01   8.487802e+01
   3.168273e+01   1.004951e+02
  -5.465013e+01   3.801474e+01
  -1.334433e+02  -3.219627e+01
  -1.164865e+02  -6.674828e+01
  -1.557062e+01  -5.125636e+01
   7.608904e+01  -2.751650e+01
   8.134459e+01  -7.169424e+00
   1.658163e+01   8.225778e+00
  -2.950802e+01   1.818971e+01
  -1.848782e+01   1.107777e+01
   1.536320e+01  -3.169095e+00
  -2.527676e+00  -5.758663e+00
  -6.072827e+01   1.287655e+00
  -8.738561e+01  -2.366745e+01
  -2.007690e+01  -7.607446e+01
   1.028333e+02  -1.168572e+02
   1.858395e+02  -5.994452e+01
   1.535339e+02   5.604262e+01
   1.548158e+01   1.491968e+02
  -7.140557e+01   1.518137e+02
  -1.107987e+02   6.538447e+01
  -8.064957e+01  -1.605270e+01
  -2.549185e+01  -3.092599e+01
  -4.390566e+00  -1.221716e+01
  -1.468579e+01  -7.883290e+00
  -3.072916e+01  -4.614159e+01
  -2.166561e+01  -8.482478e+01
   2.627500e+01  -6.966114e+01
   7.408572e+01   1.535563e+01
   8.484094e+01   1.001588e+02
   4.925600e+00   1.041533e+02
  -7.257089e+01   3.438268e+01
  -9.949695e+01  -6.051636e+01
  -4.369528e+01  -9.553528e+01
   5.895331e+01  -6.104371e+01
   9.904659e+01   1.001665e+01
   4.546608e+01   5.503213e+01
  -3.305066e+01   5.983363e+01
  -3.547753e+01   2.805529e+01
   2.234089e+01  -4.843719e+00
   6.081980e+01  -1.094342e+01
   1.585212e+01   2.485670e+01
  -7.009161e+01   5.930183e+01
  -1.130816e+02   4.906263e+01
  -6.792479e+01  -1.590893e+01
   1.368541e+01  -8.406172e+01
   5.590102e+01  -8.274139e+01
   4.242497e+01  -8.806516e+00
   1.190764e+01   4.887199e+01
  -2.231097e+01   4.342671e+01
  -3.720648e+01  -9.482792e+00
  -2.636319e+01  -5.185944e+01
   2.472198e+00  -3.581608e+01
   3.200328e+01   6.850505e+00
   4.215955e+01   2.391195e+01
   1.988836e+01   4.024619e+00
  -3.834836e+00  -1.642389e+01
  -5.879519e+00  -5.475356e+00
   7.264507e+00   3.313028e+01
   3.199348e+00   4.650795e+01
  -2.869580e+01   1.884580e+01
  -3.692994e+01  -3.424385e+01
  -4.295484e+00  -5.636175e+01
   3.784093e+01  -2.421942e+01
   5.878028e+01   2.922773e+01
   1.746384e+01   5.815935e+01
  -5.341200e+01   3.477733e+01
  -8.779011e+01  -1.287449e+01
  -4.667671e+01  -4.163737e+01
   2.546314e+01  -4.525633e+01
   6.099463e+01  -2.672588e+01
   2.647702e+01  -5.403777e+00
  -3.143842e+01   2.659327e+00
  -3.578034e+01  -5.801996e+00
   2.399304e+01  -2.494354e+01
   7.713726e+01  -1.841291e+01
