
 $NMID
 id='ANONYMOUS ', fmtdat='(2E16.6)'
 volume=1.0
 tramp=1.0
 $END
   3.365382e+03   8.668385e+01
   1.973105e+03   1.898703e+03
  -3.237300e+02   2.173439e+03
  -1.440891e+03   9.361873e+02
  -7.955032e+02  -1.467232e+02
   3.200764e+02  -3.204627e+02
   5.350485e+02   2.541340e+02
  -2.141127e+01   7.160313e+02
  -5.591726e+02   6.342679e+02
  -7.202372e+02   7.362303e+01
  -3.563366e+02  -5.561169e+02
   1.062876e+02  -6.781904e+02
   3.802312e+02  -1.267335e+02
   2.111375e+02   5.119344e+02
  -1.079229e+02   5.620845e+02
  -4.251261e+02   6.508923e+00
  -2.456237e+02  -4.839235e+02
   2.115461e+02  -6.007315e+02
   4.318386e+02  -1.553585e+02
   4.113375e+02   2.745280e+02
   4.397160e+01   3.405271e+02
  -1.504690e+02   2.250413e+02
  -5.788189e+01   7.032715e+01
   1.803995e+02   3.398528e+01
   3.150369e+02   1.734359e+02
   1.009159e+02   3.860204e+02
  -3.177009e+02   3.272858e+02
  -6.045037e+02  -1.578707e+02
  -2.429995e+02  -4.191558e+02
   3.409066e+02  -2.249124e+02
   6.077607e+02   5.666387e+01
   2.894415e+02   4.119963e+02
  -1.903343e+02   3.601698e+02
  -4.690030e+02   1.251727e+02
  -3.061947e+02  -1.955805e+02
  -5.829031e+01  -4.081634e+02
   1.244676e+02  -2.602640e+02
   2.746061e+01   1.723229e+02
  -1.585464e+02   2.561237e+02
  -3.033475e+02  -9.860219e+01
  -1.162531e+02  -4.957646e+02
   2.922464e+02  -4.652581e+02
   3.885442e+02  -1.704563e+01
   1.420743e+02   4.229295e+02
  -1.787396e+02   1.752083e+02
  -2.007552e+02  -2.306278e+02
   5.351886e+01  -4.469655e+02
   4.630583e+02  -7.226313e+01
   4.854658e+02   3.528711e+02
   1.186692e+02   4.085280e+02
  -2.787947e+02   3.213379e+02
  -4.543827e+02  -1.567037e+01
  -2.607119e+02  -2.672343e+02
   8.006632e+01  -2.913611e+02
   2.835381e+02  -2.867208e+01
   2.261902e+02   1.477264e+02
  -5.331419e+01   6.252332e+01
  -7.007662e+01  -1.014284e+02
   1.235809e+02  -7.910060e+01
   2.208737e+02   4.390932e+01
   9.494415e+01   2.177182e+02
  -1.288188e+02   2.718369e+02
  -2.737889e+02   1.562216e+02
  -2.270173e+02  -3.628003e+01
  -3.257642e+00  -2.524594e+02
   2.397449e+02  -2.941084e+02
   2.938204e+02  -1.297311e+02
   2.576968e+02   1.609175e+02
   6.668542e+01   2.969106e+02
  -3.505818e+01   3.362466e+02
  -6.745248e+01   1.424091e+02
  -1.077842e+01   4.895918e+01
  -1.070606e+02   1.395103e+01
  -1.310537e+02   1.314303e+01
  -2.512034e+02  -6.582667e+01
  -1.829838e+02  -2.447565e+02
   2.951531e+01  -1.864731e+02
   1.740036e+02   5.957779e+01
   1.371519e+02   1.884443e+02
  -5.127458e+01   2.228844e+02
  -1.879004e+02   1.130533e+02
  -2.863721e+02  -1.346202e+02
  -1.790423e+02  -2.960005e+02
   6.648214e+01  -2.212627e+02
   1.965085e+02  -1.394890e+02
   1.241545e+02  -5.162207e+01
   1.026868e+02  -5.700341e+00
   2.245366e+02  -3.186861e+01
   3.848122e+02   1.434031e+01
   2.586541e+02   2.777100e+02
  -3.901372e+01   3.853812e+02
  -3.107281e+02   3.667705e+02
  -3.937942e+02   1.691573e+02
  -2.463632e+02  -9.274900e+01
   2.502445e+01  -2.154480e+02
   1.163399e+02  -2.299294e+02
   7.128220e+01  -5.163107e+01
  -7.071405e+01   4.702388e+01
  -7.607535e+01  -2.238104e+01
  -5.293100e+00  -1.579445e+02
   1.343853e+02  -1.598355e+02
   1.172567e+02   5.583330e+01
  -6.950613e+01   1.192809e+02
  -1.177947e+02  -4.599472e+01
  -1.212921e+02  -2.298046e+02
   2.229778e+00  -3.376590e+02
   2.341153e+02  -2.153430e+02
   3.357157e+02   7.145015e+01
   2.092563e+02   2.774151e+02
  -4.191218e+00   2.165116e+02
  -1.308317e+02   1.521019e+02
  -1.631635e+02   3.483624e+01
  -7.876823e+01   3.158022e+00
   1.093007e+02   3.059775e+01
   1.807238e+01   7.244564e+01
  -1.093126e+02   8.272243e+01
  -1.580669e+02  -1.103081e+02
  -6.383099e+01  -1.083625e+02
   1.078337e+02  -4.270153e+01
   4.735289e+01   4.760307e+01
  -5.765562e+01   3.588053e+01
  -2.758691e+02  -4.566531e+01
  -2.281631e+02  -1.596262e+02
  -1.558108e+01  -2.247781e+02
   1.609839e+02  -2.411100e+02
   2.891412e+02  -6.498594e+01
   1.442571e+02   9.120079e+01
  -3.141071e+01   9.578058e+01
  -5.018780e+01  -5.485693e+01
   7.182361e+01   1.751648e+00
   1.869244e+02   4.229184e+01
   1.744069e+02   7.735956e+01
   5.789266e+01   1.843185e+02
  -1.533388e+02   1.193718e+02
  -1.512930e+02   3.237187e+01
  -6.064142e+01  -5.161067e+01
   4.161769e+01  -4.680580e+01
   2.262530e-01   1.272086e+02
  -7.181897e+01   1.169790e+02
  -1.382768e+02   1.281527e+01
  -1.726735e+02  -1.314407e+02
  -8.405934e+01  -1.830401e+02
   9.415562e+01  -1.070804e+02
   1.257614e+02   2.163167e+01
   5.648885e+01   1.160300e+02
  -1.663078e+01   8.816277e+01
  -2.615152e+01   2.170986e+01
  -9.442479e-01  -5.603508e-01
   5.519256e+01  -9.297700e+00
  -2.229922e+00  -4.089991e+01
  -3.160449e+01   1.094234e+01
  -1.191173e+02  -2.496950e+01
   1.248508e+01  -2.036543e+02
   1.118589e+02  -1.243178e+02
   2.419567e+02  -1.368181e+01
   1.431813e+02   9.526886e+01
  -8.287475e+00   1.496025e+02
  -1.115938e+02   1.416206e+02
  -1.030328e+02   5.862668e+01
  -1.059282e+02  -2.888899e+01
  -1.955781e+01  -2.073477e+01
  -8.388751e+01  -5.755976e+01
  -8.857353e+01  -2.604441e+01
  -4.955999e+01   9.994598e-01
   4.874011e+01  -5.939332e+01
   7.138000e+01  -9.819562e+01
   9.610930e+01   5.550754e+01
  -4.233870e+01   8.783338e+01
  -1.530163e+02   6.509212e+01
  -1.975472e+02  -9.028672e+01
  -1.146880e+02  -2.132288e+02
   7.571008e+01  -1.473323e+02
   2.310017e+02  -7.762716e+01
   2.322788e+02   9.408703e+01
   4.201832e+01   1.760109e+02
  -5.048707e+01   1.177370e+02
  -9.669807e+01   8.787346e+01
  -1.028796e+02   6.200388e+01
  -5.021594e+01   7.879162e+01
  -5.320956e+01   8.863847e+01
  -1.130561e+02  -9.384840e+01
  -1.293804e+02  -1.263890e+02
   2.179151e+01  -2.213523e+02
   8.807724e+01  -1.747836e+02
   1.082828e+02   6.773316e+00
   1.024243e+02   8.899683e+01
   5.961113e+00   1.404520e+02
  -6.825982e+01   4.630864e+01
  -1.600112e+01   1.798446e+01
   3.464627e+01   2.638743e+01
  -8.552445e+01  -2.681295e+01
  -2.848049e+01   1.384183e+01
  -2.540079e+01   3.242294e+00
  -9.941107e+00  -4.252083e+01
   8.307488e+01  -1.901032e+01
   1.688629e+02   8.957747e+00
   1.140164e+02   8.488229e+01
   7.730030e+00   8.825404e+01
  -1.042787e+02   4.701844e+01
  -1.390874e+02  -1.041854e+01
  -3.160883e+01   7.643146e+00
   5.062176e+00  -5.421266e+00
   4.601224e+01  -4.565995e+01
   3.630987e+01   8.975461e+01
  -7.452704e+01   2.644461e+01
   6.814982e+00  -1.194135e+01
  -8.564923e+01  -5.084776e+01
  -2.303872e+01  -4.709679e+01
  -4.783358e+01   2.607325e+01
  -3.365389e+01  -2.101922e+01
  -7.175390e+01  -8.992438e+01
   2.950507e+01  -1.439267e+02
   6.952176e+01  -1.474739e+02
   1.359020e+02  -2.625002e+00
   1.542652e+02   7.802998e+01
   7.100023e+01   1.214786e+02
  -9.963811e+01   6.870587e+01
  -5.029300e+01  -5.598140e+01
   6.372342e+01  -3.472544e+00
   5.508967e+01   5.040302e+01
   2.575465e+01   5.972407e+01
  -2.629224e+01   9.221937e+01
  -2.030195e+02  -2.396113e+01
  -1.723172e+02  -1.302974e+02
  -1.613842e+01  -1.039989e+02
   2.391267e+01  -5.288275e+01
   3.907033e+01  -2.120311e+01
  -1.597844e+01  -2.114187e+01
  -8.436629e+01  -3.059670e+01
   2.203003e+01  -5.750351e+01
   1.015343e+02  -1.529882e+02
   1.084589e+02  -2.421956e+01
   8.323387e+01   7.434069e+01
   7.487117e+01   1.463461e+02
  -8.912328e+01   1.531960e+02
  -6.099336e+01  -6.517360e-01
  -2.960147e+01  -7.308270e+01
  -5.603914e+01  -6.587269e+01
   6.105397e+01  -3.184616e+01
   2.540003e+01   3.003484e+01
  -9.888331e+00  -6.209031e+01
   1.246964e+01  -1.503086e+01
  -2.590773e+01   4.553752e+01
   6.832479e+01   6.825296e+01
   4.986524e+01   1.280340e+02
  -5.887161e+01   6.724199e+00
  -1.653487e+02   3.727766e+01
  -7.793685e+01   2.238283e+01
  -1.565464e+01  -7.544555e+01
   9.526830e+01  -2.513881e+01
   9.658465e+01   3.337548e+01
   1.249310e+01   4.352030e+01
  -6.984309e+01   5.354142e+01
   4.115588e+00  -3.563796e+01
  -3.588749e+01   3.990783e+01
  -3.579566e+01   4.061292e+01
  -3.143274e+01  -4.581654e+01
  -7.666201e+01  -1.997109e+01
   7.313342e+00  -9.683327e+01
   8.324789e+01  -1.132589e+02
   1.846790e+02  -7.923152e+01
   9.475601e+01   4.852153e+01
   2.834796e+01   1.453728e+02
  -3.847257e+01   1.312447e+02
  -7.455344e+01   6.376376e+01
  -9.399077e+01  -1.965422e+01
   2.523107e+01  -3.694356e+01
   8.562978e+00  -4.176154e+01
  -2.050086e+01  -1.275740e+01
  -3.415920e+01  -9.418097e+01
   7.606303e+00  -3.902847e+01
   3.701699e+01  -5.238464e+01
   8.349261e+01   7.050338e+00
  -1.808441e+00   9.239749e+01
  -3.048671e+01   1.577392e+02
  -6.510058e+01  -1.750906e+01
  -1.062774e+02  -2.430820e+01
  -4.565919e+01  -7.625997e+01
   5.992648e+01   3.225930e+01
   1.065913e+02   3.168256e+01
   1.363703e+01   1.359921e+01
  -1.144325e+01   8.194370e+01
  -4.104803e+01   6.734840e+00
   1.062790e+01  -2.813654e+01
   7.830427e+01  -3.658362e+01
   2.545047e+01   7.166188e+01
  -5.196231e+01   1.032500e+02
  -1.173220e+02   3.241310e+01
  -8.036264e+01  -7.522707e+00
   7.341365e+01  -6.899791e+01
   8.808480e+01  -1.209967e+02
  -3.109629e+00   3.062014e+01
   7.375830e+00   1.813535e+01
   1.500909e+01   9.974689e+01
  -2.054771e+01   1.174246e+01
  -7.107279e+01  -3.987376e+01
   1.848218e+01  -4.421288e+01
   4.352494e+01   5.870286e+01
  -4.607089e+00   4.012299e+01
   3.132210e+01   2.183655e+01
  -5.930780e+01  -5.874766e+01
  -2.626241e+01  -4.292578e+01
  -1.205095e+01   6.111421e+01
   9.588365e+01   1.062118e+02
  -4.928757e+01   9.025979e+00
  -3.858958e+01  -9.666535e+01
   3.276209e+00  -9.930399e+01
   8.796298e+00  -2.418550e+01
   1.025445e+02   6.742917e+01
  -4.059666e+01   4.333779e+01
  -6.864617e+01  -1.667436e+01
  -7.805578e+01  -2.546869e+01
  -6.611667e+01  -4.035213e+01
   1.891388e+01  -4.941931e+01
   1.368601e+01  -3.128112e+00
  -1.649958e+01   3.087920e+01
  -1.923936e+01   1.021199e+01
  -1.260389e+01   2.191150e+01
   4.436364e+01   1.656539e+01
   6.703989e+01   2.617227e-01
