
 $NMID
 id='ANONYMOUS ', fmtdat='(2E16.6)'
 volume=1.0
 tramp=1.0
 $END
  -9.185256e+02  -1.832649e+01
  -6.591840e+02  -3.178951e+02
  -1.150842e+02  -5.154157e+02
   2.537613e+02  -4.771766e+02
   3.417478e+02  -2.484205e+02
   1.612875e+02  -2.889243e+01
  -5.094370e+01   2.778557e+01
  -8.731775e+01  -8.818569e+01
   6.356841e+01  -1.762835e+02
   1.120792e+02  -8.583516e+01
   1.793450e+02   8.815187e+01
   5.467651e+01   1.284332e+02
  -3.386306e+01   4.821349e+01
  -4.403649e+01  -9.079214e+01
   1.344353e+01  -1.291465e+02
   8.450628e+01  -1.177173e+01
   5.621623e+01   8.584794e+01
   8.935449e+01   1.712038e+02
  -1.053157e+02   4.317097e+01
  -1.693028e+02  -3.140046e+01
  -9.634218e+01  -9.272576e+01
   7.211270e+01  -7.987501e+01
  -1.112767e+00  -1.862524e+01
  -1.044409e+02  -1.103044e+01
  -9.756333e+01  -8.362365e+01
   1.282205e-01  -1.627280e+02
   1.816446e+02  -1.415345e+01
   1.126975e+02   7.327062e+01
   2.577024e+01   6.211821e+01
  -1.054755e+02   6.876882e+01
  -1.208191e+02  -4.549962e+01
  -3.566065e+01  -7.665586e+01
   2.379901e+01  -8.667741e+01
   1.918566e+02  -3.137210e+01
   9.968272e+01   3.031944e+01
   2.333405e+01   1.128163e+02
   3.010393e+01   7.902039e+01
   6.888047e+01   2.019807e+01
   6.565814e+01   1.450791e+00
   1.039942e+01   1.071044e+02
  -2.293201e+01   1.412698e+02
  -7.843103e+01   8.602538e+01
  -9.086209e+01   4.374871e+01
  -4.260524e+01  -3.049911e+01
   2.255470e+01  -5.643565e+00
   1.632336e+01   1.272553e+02
  -9.009520e+01   9.268117e+01
  -1.356531e+02   1.334886e+01
  -1.553155e+02  -7.918507e+01
  -1.222306e+02  -1.808939e+02
   6.542591e+01  -8.301032e+01
   1.496988e+02   2.552227e+01
   7.853039e+01   8.178471e+01
   4.369565e+01   1.010954e+02
  -5.526930e+01   3.054291e+01
  -2.981231e+01   4.701737e+01
   2.551864e+01   1.325435e+00
   1.194052e+01  -8.111815e+00
  -5.625223e+00  -1.629085e+01
  -8.528604e+01  -2.823366e+01
  -1.005315e+01  -4.004197e+01
  -2.212655e+00  -1.203981e+02
   1.524787e+02   1.124142e+01
   3.178926e+01   6.071825e+01
   5.478872e+01   1.482725e+02
  -1.194664e+02   8.812952e+01
  -6.798292e+01   6.494945e+01
  -5.040872e+01  -7.094834e+01
   2.569344e+00  -1.165115e+02
   2.454455e+01  -6.126924e+01
  -4.113453e+01  -1.935852e+01
   1.712259e+01  -2.819413e+01
   1.846560e+01  -1.701690e+01
   6.271999e+01  -1.239606e+01
   2.415166e+01   8.485312e+01
   5.771923e+01   9.622487e+01
  -3.923200e+01   5.461105e+01
  -8.090638e+01  -5.644500e+00
  -6.192172e+01  -7.881412e+01
   5.842920e+01  -1.318071e+02
   8.192781e+01  -1.445784e+01
   1.209482e+02   2.834087e+01
   6.541198e+01   8.487786e+01
  -3.715066e+01   5.505463e+01
  -9.007232e+01   2.614063e+01
  -7.691745e+01  -2.103191e+01
  -9.984504e+01  -3.612414e-01
  -1.303457e+02   1.597386e+01
  -1.125897e+02  -8.726412e+01
  -1.055475e+02  -1.021936e+02
   1.456911e+01  -8.750261e+01
   9.084164e+01  -1.506281e+02
   1.796762e+02  -6.199780e+01
   1.053392e+02   2.830159e+01
  -1.121212e+01   6.414477e+01
  -6.395824e+01   7.807336e+01
   2.754791e+01   2.053159e+01
   2.655586e+01   2.616714e+01
   1.881898e+01   2.719092e+00
   1.505273e+00   6.942680e+01
  -7.389631e+01  -3.512108e+01
  -5.731025e+01  -7.960092e+00
   1.500414e+01  -3.167827e+01
   4.294501e+01  -3.440962e+01
   6.368390e+01   1.204473e+02
   1.341166e+01   1.250980e+02
  -4.950152e+01   1.107598e+02
  -1.272012e+02   3.592395e+01
  -1.347156e+02  -9.421252e+01
  -4.297222e+01  -9.596552e+01
   2.025743e+01  -3.953210e+01
   7.319241e+01   3.904141e+01
  -2.778952e+01   3.128676e+01
  -1.194783e+01   7.621549e+00
   2.608917e+01  -7.597926e+01
   8.174025e+00  -4.064247e+01
   6.104278e+01   4.226428e+01
   4.434026e+00  -9.333693e+00
  -2.084271e+01  -3.910344e+01
  -1.031538e+01  -2.108865e+01
   5.584250e+01  -9.801106e+00
   1.104671e+02  -5.021709e+01
   6.767664e+01   4.542185e+01
  -2.670480e+01   8.425329e+01
  -1.607116e+01   1.131918e+02
  -1.251766e+02   5.064510e+01
  -8.742870e+01   9.626669e+00
   1.305971e+01  -2.548933e+01
   4.575179e+01   1.708784e+01
  -5.510831e+01   3.193647e+01
  -2.115846e+01  -8.367982e+00
  -2.675951e+01  -4.319947e+01
   1.031488e+01  -9.928134e+01
   9.819003e+01  -4.493008e+01
   8.265171e+00  -5.802684e+01
   2.133282e+01   6.983313e+01
  -2.792296e+01  -5.987269e+01
   1.093742e+01  -4.010722e+01
   7.200454e+01  -3.918922e+00
   8.847143e+01  -8.316719e+01
   6.876653e+01   1.056094e+01
  -3.310369e+01   7.275712e+01
  -9.826079e+01   2.645923e+01
  -8.082975e+01   1.388403e+01
  -9.916341e+00  -2.361152e+01
   1.876348e+01  -6.041695e+01
   5.744070e+01  -4.160909e+01
  -5.740087e+01   8.050750e-01
  -2.559807e+01   4.302833e+01
  -2.922727e+01  -2.030705e+01
   2.254313e+01  -5.086462e+01
   2.495130e+01   1.036891e+02
   5.994221e+00   7.824963e+01
  -9.416889e+00   4.224420e+01
  -1.177553e+02  -2.734517e+01
  -1.561398e+01   1.114248e+00
  -2.263355e+01  -6.327066e+01
   9.849239e+01   1.026136e+01
   6.527142e+01  -1.060714e+01
  -1.455116e+01  -4.958328e+01
   2.103080e+00   1.072341e+02
  -7.606737e+00  -3.265893e+01
   2.122189e+01   1.059163e+01
   2.897477e+01   4.910083e+01
  -4.398188e+01   3.353412e+01
  -5.510106e+01   3.770480e+01
  -3.016340e+01  -6.406113e+01
  -1.292203e+01  -3.646466e+01
   4.928029e+01  -2.704351e+01
   5.099383e+01  -5.843490e-01
   6.130772e+01   1.060337e+02
  -7.967193e+01   4.464412e+01
  -1.066619e+02   4.194404e+01
  -7.785547e+01  -1.332683e+02
  -4.247595e+01  -5.913211e+01
  -4.291733e+01  -7.741374e+01
   3.177634e+01   2.993502e+01
   2.485011e+01   8.219654e+00
   7.106281e+01  -7.120137e+01
   6.376965e+00  -1.903307e+01
   8.992565e+01   4.824976e+01
   7.768672e+01   1.151730e+02
   1.640613e+01   5.705495e+01
  -9.584560e+01   5.138774e+01
  -4.429214e+01  -5.110754e+01
  -2.208524e+01  -7.235291e+01
  -6.393830e+01  -4.323789e+01
   2.228418e+01  -4.634687e+01
   5.963618e+01   6.169312e+01
  -1.689926e+01   7.758437e-01
  -2.843844e-02   2.914438e+01
   5.478209e+01   9.796906e+00
   3.168980e+01  -3.098880e+01
   8.027510e+01  -2.436151e+01
  -6.479734e+00   2.063085e+01
  -4.732265e+01  -1.844221e+01
  -6.853513e+01  -5.650967e+01
   1.090023e+01  -6.299489e+01
   1.982635e+01  -9.413319e+01
   3.787460e+01   6.461753e+00
  -2.256047e+01   2.753890e+01
   9.519550e+00   7.578253e+01
   3.500628e+00   2.679768e+01
  -8.243394e+01  -5.491563e+01
   3.144755e+01  -2.845614e+01
   3.389754e+01  -1.361035e+01
  -1.848040e+01   2.873706e+01
   2.986383e+01  -8.492899e+00
   5.026957e+01   2.309754e+01
   2.587149e+01   1.610094e+01
   7.633963e+01   3.011809e+01
   5.441355e+00   9.791449e+01
  -1.446206e+01   5.884307e+01
  -6.087355e+01   1.529680e+01
  -8.274654e+01  -5.200299e+01
  -6.083930e+00  -2.554860e+01
   4.254671e+01  -8.547084e+00
   1.899959e+01   1.128163e+01
  -3.929750e+01   5.607779e+01
  -7.414908e+01  -8.815770e+00
   1.980066e+01  -2.005720e+01
   4.171761e+01  -7.390604e+01
   6.972357e+01  -2.058308e+01
   7.598405e+00   9.617749e+00
   7.304245e+01   4.470539e+01
  -3.422814e+01   6.237420e+01
  -1.855884e+01  -1.974187e+01
   2.155400e+01  -6.582606e+01
   3.497821e+01  -1.891838e+01
  -8.118382e+00   2.595841e+01
  -9.082788e+01   4.913558e+01
  -7.583983e+01   4.780701e+00
  -4.118432e+01   6.646291e+00
   1.984035e+01  -2.059953e+01
   7.272304e+01  -7.660947e+01
   4.891206e+01   7.919771e+01
   6.650744e+01   3.497478e+01
  -2.409106e+01   1.278051e+01
  -4.149005e+00   3.294652e+00
  -5.996895e+01  -3.845698e+01
  -4.317278e+00  -8.119250e+01
  -2.006155e+01   4.364316e+01
   1.483779e+01  -1.532816e+01
  -3.862798e+01  -9.410410e+01
   1.068268e+01  -3.356087e+01
   1.519396e+01  -2.406131e+00
   1.427897e+01  -1.006015e+01
   2.741557e+01  -3.073106e+01
   2.298801e+01   5.505877e+01
   4.382097e-01  -2.939586e+01
  -4.070865e+01  -5.664603e+01
  -4.004404e+01   5.207862e+01
  -3.737417e+01  -2.399581e+01
  -3.827432e+01   5.196836e+00
  -1.853358e+01  -3.035413e+01
  -5.104409e+01   7.157870e+00
   4.918420e+01   3.247994e+01
  -3.091578e+01  -1.366216e+01
   3.517628e+01  -3.232931e+01
   1.645438e+01   7.538643e+01
  -6.950498e+01   4.052685e+01
  -5.756654e+01  -3.797268e+01
   3.047821e+01  -6.217368e+01
   5.417260e+00  -3.441696e+01
   5.134601e+01  -5.171382e+01
  -3.143746e+01  -4.753922e+00
   7.060135e+01  -4.034598e+01
   1.592934e+01   1.190277e+01
  -5.204738e+01   3.531107e+01
   3.964179e+00  -1.257050e+01
  -2.498194e+01   2.683994e+01
  -2.603162e+01   1.295786e+01
   2.417152e+01  -3.013270e+01
  -5.923326e+00   5.288447e+01
  -7.158577e+01  -4.264143e+01
   8.646117e+01   2.645326e+01
   1.523260e+01  -4.392284e+01
  -3.505032e+01   6.082159e+01
  -1.775024e+01  -1.493201e+01
  -2.039749e+01  -5.038968e+01
  -3.916497e+01  -2.064732e+01
   1.211783e+00  -5.047018e+01
   2.910224e+01  -6.413057e+00
   2.445692e+01  -1.964871e+01
   2.090955e+01  -2.299132e+01
  -4.433760e+01   2.116705e+01
  -2.814650e+01   2.383227e+01
   9.905226e+01  -1.194095e+01
  -9.591639e+00  -4.922721e-01
  -3.177978e+01   1.097354e+01
  -2.349694e+01   8.886489e+01
   5.000871e+01   7.688154e+01
  -3.541679e+01   2.895869e+01
  -7.282342e+01   4.780316e+00
   7.627496e+01  -1.282781e+01
  -3.615288e+01  -1.955348e+01
  -3.773220e+01   3.514551e+01
  -7.642519e+00   5.806795e+01
  -5.390433e+01   2.170818e+01
  -2.360797e+00  -1.739337e+01
   4.971707e+01   3.683407e+00
   1.948778e+01   3.343237e+01
   3.299618e+00  -4.901154e+00
  -2.460195e+00  -3.645119e+01
  -2.601661e+01   1.701920e+01
  -1.205162e+01   4.305541e+01
  -5.776493e+00   4.668090e+01
   1.528089e+01  -4.615148e+01
  -3.489162e+01  -4.248604e+01
  -3.081047e+00  -9.334635e-01
   8.392144e+01  -3.171159e+01
   3.368347e+01  -5.774313e+00
   1.416656e+01  -2.581945e+01
  -4.986471e+01   1.383619e+01
  -3.648419e+01  -1.599586e+01
  -6.060424e+00   9.279505e-01
  -1.094989e+01   1.678602e+00
  -1.148606e+01  -6.543023e+01
  -2.588096e+01  -3.521203e+00
  -5.943045e+01   2.589994e+01
