
 $NMID
 id='ANONYMOUS ', fmtdat='(2E16.6)'
 volume=1.0
 tramp=1.0
 $END
  -2.160930e+02  -6.140820e+01
  -2.027409e+02  -1.391263e+02
   1.789699e+01  -1.105483e+02
   6.424867e+01  -1.254977e+02
   9.242186e+01  -7.739737e+01
  -5.196558e+00  -5.988721e+01
  -6.905293e+01  -2.231979e+01
  -4.810204e+01  -1.209124e+01
   3.861143e+01  -8.285244e+01
   2.992888e+01   1.854455e+01
   3.758681e+01   5.335139e+01
   4.429120e+01   6.308744e+01
  -5.294192e+01   7.096850e+01
  -7.288238e+01  -9.592345e+01
   1.915871e+01  -2.216756e+01
   4.737746e+01   1.299317e+01
  -6.274175e+00   1.396378e+01
   9.564133e+00  -4.084521e+00
  -7.545641e+00   4.712872e+01
  -4.488847e+01  -2.362588e+01
  -1.677357e+01  -7.314032e+01
   2.339642e+01  -3.747721e+01
  -1.467206e+01  -2.018604e+00
  -1.155046e+01   5.863426e+01
   4.083356e+00  -1.444562e+01
   8.058898e+00  -3.645967e+01
   1.066542e+02   5.806543e+01
   7.073513e+01   1.859282e+01
   1.235492e+01   3.210981e+01
  -1.166588e+01   2.845570e+01
  -5.040783e+01  -3.272491e+00
  -3.432321e+01  -4.422590e+01
  -7.195856e-01   3.761176e+01
  -1.262042e+01   3.020203e+01
   1.188407e+01   2.943444e+01
  -2.668136e+00   4.513789e+01
  -4.644102e+01   7.382718e+00
   3.787212e+00   5.445306e+01
  -3.016232e+00   2.898098e+00
  -4.244348e+00   7.752260e+01
   4.724474e+01   6.928153e+01
  -6.475764e+01   4.864314e+01
  -8.338439e+01  -6.158709e+01
   5.268755e+01  -5.925288e+01
   4.420329e+01   2.262087e+01
   4.816576e+01   3.870349e+01
  -5.192241e+01   6.047976e+01
  -6.357546e+01  -1.007728e+01
  -7.097210e+01  -4.607148e+01
   2.384378e+01  -3.995508e+01
  -1.111491e+00  -1.120836e+01
   7.547064e+01  -7.246421e+01
   9.385758e+00   3.113851e+01
  -2.486258e+01   2.890284e+01
   1.289835e+01  -2.165754e+01
   1.189809e+00   5.580404e+01
   4.403302e+00  -7.254589e+01
  -1.259722e+01  -2.950460e+01
  -3.435765e+01   9.491717e-01
  -2.466071e+01  -2.807568e+01
  -2.668705e+01  -4.168747e+01
   2.047066e+01  -3.831078e+01
  -1.129402e+01  -1.658946e+01
   3.532132e+01   1.991742e+01
   2.445478e+01   5.565661e+01
  -4.745352e+01   3.740409e+01
  -2.700046e+01  -2.689559e+01
  -3.840415e+01   6.360685e+01
   2.905017e+01  -3.190567e+01
  -4.985910e+00  -6.354533e+00
   7.473905e+01  -4.714443e+01
  -2.623245e+01   5.708290e+00
   2.640096e+01  -2.231244e+01
   2.811136e+01  -7.421271e+00
  -2.484053e+00   3.882418e+01
  -1.192876e+01   3.935231e+01
   1.189498e+01   1.524307e+01
  -3.887089e+00   6.267725e+01
   1.514997e+01  -2.884814e+01
  -7.360505e+01  -4.787727e+01
  -2.136398e+01  -1.229048e+01
   8.115350e+01   3.631822e+01
  -5.377740e+00   3.703428e+01
  -6.494436e+01  -1.997849e+00
   5.538300e+01   5.793036e+01
  -2.131068e+01   1.286193e+01
   1.121988e+01  -1.647446e+01
  -8.187276e+01  -4.538066e+01
  -6.795624e+01   2.183533e+00
  -7.472021e+01  -1.633755e+01
  -6.047478e+01   1.583851e-01
   4.033699e+01  -5.807822e+00
  -8.947156e+00  -1.155124e+01
  -2.170112e+01  -4.151624e+01
   2.195357e+00   4.463196e+01
   1.385577e+00   1.533625e+01
  -7.964148e+00   2.174712e+01
   2.923740e+01   7.860845e+01
  -4.656472e+01   2.863385e+01
   5.966152e+00  -7.817627e+01
  -3.090236e+00  -2.775685e+00
   5.706466e+01  -4.227642e+01
   5.407688e+01  -7.568176e+01
  -2.982334e+00  -3.113823e+01
   6.979327e+00   6.321759e+00
  -3.571380e+01  -1.808218e+01
  -5.220740e+00   5.235524e+01
  -2.349711e+01   1.925336e+00
  -2.382088e+01  -8.345987e+00
   4.202659e-02   2.479413e+01
  -4.255750e+01  -2.986121e+01
   1.019918e+01   2.911324e+01
  -1.434115e+01  -4.842173e+00
   2.183892e+01  -3.983367e+00
  -1.745566e+01   3.952162e+00
   4.033014e+01  -4.195106e+00
   2.654075e+01   6.087459e+00
   1.062044e+00  -4.010804e+01
   3.262763e+01  -1.675633e+01
   1.229255e+01  -8.423170e+00
  -1.763795e+01   4.332022e+00
   6.836644e+00  -3.814519e+01
  -6.981570e+00   3.978318e+01
  -1.386924e+01   1.560988e+01
   2.978329e+01   6.654518e+01
  -2.445535e+01   1.983252e+01
   5.800132e+01   2.266983e+01
  -1.647084e+01  -3.500283e+01
   3.228496e+01   3.557630e+00
   9.001568e+00   3.646606e+00
  -5.067938e+01  -4.373514e+01
  -1.080529e+01  -6.679938e+00
  -3.108526e+01  -4.806999e+01
  -1.010835e+01   1.016817e+01
   6.398556e+01   3.473160e+01
   1.593547e+01   9.054014e+00
   3.200849e+01   6.558124e+01
   1.887366e+01  -1.214127e+01
   6.995820e+01  -2.240702e+01
   9.076711e+01   2.598620e+01
  -4.331144e+01  -3.745627e+01
   2.318520e+01  -7.022476e+01
  -1.915026e+01   8.867621e+00
   1.645242e+00   2.917729e+01
  -3.200560e+00  -3.504535e+01
   7.185956e+00   1.788401e+01
   3.020423e+01  -2.750458e+01
   8.485107e+00  -2.824814e+01
  -2.063546e+01  -4.301369e+01
  -3.524126e+01  -1.195043e+01
  -3.257049e+01  -3.770054e+01
  -6.893309e+01   4.496534e+01
  -9.875642e+00  -3.704402e+01
  -4.695039e+01   2.592275e+01
   7.503548e+00  -6.351257e+01
  -5.120570e+01  -2.630302e+01
   2.974940e+01  -1.020705e+01
  -4.946666e+01  -5.904072e+01
   1.539160e+01   6.391124e+01
   6.052338e+01   4.974259e+01
   1.692333e+01   5.552911e+01
  -1.130400e+00   1.489294e+01
  -3.621754e+01   2.343105e+01
   2.490410e+01   1.598848e+01
  -3.950521e+01   7.658605e+01
  -1.932109e+01  -7.567581e-01
   1.278446e+00  -3.758309e+01
   3.540299e+01  -2.499290e+01
   1.603435e+01   5.430455e+01
   6.434864e+01   1.501040e+01
   9.303216e+00  -2.362477e+01
  -2.270296e+00   3.056899e+01
  -3.727396e-01   3.367364e+01
  -5.415089e+01  -7.336328e+01
   4.763810e+01  -1.820081e+01
   3.645763e+01   4.569440e+01
   4.275106e+01  -8.275088e+01
  -2.956245e+01  -2.066392e+01
   3.384499e+01   2.899093e+01
   3.702608e+01  -1.955663e+01
   3.409090e+01  -1.550207e+01
   3.297248e+01   3.022281e+01
   2.815340e+01   1.743471e+01
  -5.625380e+00   2.237721e+01
   1.637974e+01  -4.476109e+01
   3.338170e+00  -2.136300e+01
  -1.129332e+01  -3.355755e+01
  -3.362845e+01  -1.165873e+01
  -3.812109e+01   9.184474e+00
   1.619833e+01  -4.050789e+01
   2.366517e+01   1.078242e+01
  -2.214644e+01   1.434121e+01
   3.341078e+01  -5.712642e+01
  -2.331355e+01  -1.335616e+01
  -3.214154e+01   6.073469e+01
   1.216345e+00  -2.869341e+01
  -5.147575e+01  -4.500827e+01
   2.849656e+00   2.150397e+01
  -7.419817e+00   2.347737e+01
   4.819832e+01   4.781874e+01
   4.078933e+01   5.880399e+01
   5.792286e+01   1.716061e+01
   3.221978e+01  -3.361969e+01
   3.280518e+01   1.725268e+01
   7.470791e+00  -1.673168e+01
   2.225227e+01   7.866240e+01
  -2.062371e+01   4.811021e+01
  -2.611909e+01   3.006970e+01
  -2.312992e+01   9.162708e-01
  -4.934942e+00  -7.301827e+01
   6.392324e+01   4.276580e+01
   1.846714e+01  -7.069807e+01
  -3.079856e+01   2.082482e+01
  -2.658637e+01  -2.920947e+01
  -9.421430e+00  -5.299768e+01
   1.436393e+01  -4.654630e+00
   3.519295e+01  -8.819880e+00
  -3.720208e+01   1.751621e+01
   3.221699e+01   2.071390e+01
  -1.666794e+01   9.426894e-01
  -2.609634e+01  -8.369583e+00
  -2.590072e+01  -1.524698e+00
   4.990064e+01   2.269852e+01
   1.272957e+01   1.921722e+01
   2.537244e+01   3.581143e+01
  -4.875591e-01   2.417559e+01
  -9.951193e+00   2.247713e+00
   5.144979e+00  -1.336553e+01
   1.321161e+01  -9.280194e+00
   1.755690e+01   6.560335e+00
  -4.506571e+00   2.127814e+00
  -1.454709e+01  -1.834535e+01
  -2.914249e+01  -5.940717e+01
  -4.307889e+01  -3.242475e+01
  -2.487538e+01   5.280100e+00
  -2.399291e+01  -4.237260e+01
  -1.284040e+01  -4.313667e+00
  -1.496882e+01   2.467157e+00
   2.475151e+01   4.978418e+00
   1.773834e+01   4.221648e+01
  -3.750486e+00  -5.618502e+01
   1.110215e+01  -2.578553e+01
   4.941128e+01   1.231093e+01
  -6.045839e+00   3.405785e+01
  -5.357435e+01   3.088228e+00
  -2.620303e+00   4.927891e+01
  -5.118924e+00  -3.671529e+01
   4.830889e+01   4.165745e+01
  -4.215977e+01   1.812826e+00
  -4.886681e+01  -2.948409e+00
  -7.369328e+01   5.603588e+01
  -1.544647e+01  -5.059688e-01
  -1.678629e+01  -4.583305e+01
  -6.841648e+00  -4.832959e+01
   5.836028e+01   2.444465e+01
   2.541968e+01   9.181129e+00
  -1.907358e+01   2.290833e+01
   7.204240e+01  -1.166432e+01
   6.092252e+01   3.646379e+01
   3.128706e+01   1.068647e+01
  -7.225467e+01  -4.886351e+00
  -1.423583e+01   1.430745e+01
  -4.906626e+01  -6.854914e+01
  -3.133505e+01  -3.116494e+01
   3.178645e+01   1.275922e+01
  -6.660302e+00  -4.071081e+01
   1.668422e+01  -2.477644e+01
   3.424688e+01  -3.787314e-01
   1.671019e+01  -3.033062e+01
   4.032373e+01  -2.033376e+01
   1.108787e+01  -4.475984e+01
  -4.538545e+01   8.724463e+01
  -1.393816e+01  -1.454268e+01
   5.543981e+01   3.684021e+01
   1.921834e-01  -3.703139e+01
   5.478489e+01  -4.607944e+01
  -3.155791e+01   3.361825e+01
  -9.438142e+00  -7.898128e+00
  -4.790038e+00   4.007008e+00
  -3.554197e+01  -2.683548e+01
   2.813512e+01  -4.991474e+00
   8.505062e+01  -3.136814e+01
   1.038283e+01   5.936912e+01
  -1.678243e+01  -2.900477e+01
   2.055768e+01  -1.948123e+01
   2.929822e+01  -5.824369e-01
   3.139879e+01  -3.130119e+01
  -1.368143e+01   4.478067e+01
   3.345872e+01   5.875884e+01
  -4.187981e+01   5.916199e+01
   9.736189e+01  -1.183686e+01
   6.386870e+01   2.542190e+01
   1.579274e+01  -3.707420e+00
   9.903561e+00   1.691062e+01
   9.829107e-01  -3.222455e+01
   1.369211e+00   3.839204e+01
   1.169736e+00   4.139387e+01
   5.785716e+00  -2.405763e+01
   3.147029e+01  -3.283078e+01
  -2.466823e+01   5.000062e+00
  -2.180838e+00   2.356288e+01
   1.234150e+01  -9.826459e+01
  -5.910402e+01   2.853147e+01
   1.839802e+01  -4.880397e+00
  -9.995927e+00  -4.303203e-01
  -1.909858e+01  -9.998946e+00
  -6.968744e+01   1.553369e+01
   2.781728e+01   5.320046e+01
  -2.607399e+01  -1.381418e+01
  -2.546919e+01  -2.526826e-01
   3.141153e+00  -3.261823e+01
   5.971511e+01  -3.063086e+00
   5.478745e+01  -1.025475e+01
   8.138559e+00  -3.761468e+00
   1.278632e+01  -1.862743e+01
  -7.325851e+01  -1.006992e+01
   3.854570e-01  -1.434440e+01
  -1.286386e+00  -1.871294e+01
  -1.207110e+01  -6.779174e+01
   1.937484e+01  -1.644157e+01
