
 $NMID
 id='ANONYMOUS ', fmtdat='(2E16.6)'
 volume=1.0
 tramp=1.0
 $END
   1.067015e+03  -8.860159e+01
   7.279749e+02   4.122211e+02
   1.321507e+02   7.166476e+02
  -3.036164e+02   5.248171e+02
  -3.961621e+02   1.767747e+02
  -1.470222e+02  -7.447190e+01
   1.416204e+02  -8.324554e+01
   6.199869e+01   1.829733e+02
  -6.605447e+01   2.159373e+02
  -2.554529e+02   4.797638e+01
  -1.627130e+02  -1.881506e+02
  -1.007846e+02  -2.066930e+02
   6.991728e+01  -1.086910e+02
   9.978423e+01   9.280758e+01
  -1.914194e+01   1.581625e+02
  -1.125031e+02   2.235021e+01
  -1.783671e+02  -1.814258e+02
   1.479668e+01  -2.083504e+02
   2.009986e+02  -1.704800e+02
   1.610683e+02   7.012377e+01
   6.204865e+01   1.212873e+02
  -5.928702e+01   9.039646e+01
  -7.002998e+01   8.052792e+01
   3.383960e+01   4.997213e+01
   7.525525e+01   1.639757e+02
  -5.144707e+01   1.180188e+02
  -1.280072e+02  -3.500508e+01
  -1.973201e+02  -7.250559e+01
  -4.650608e+00  -8.077538e+01
   1.165456e+02  -3.549547e+01
   1.343290e+02   4.534032e+01
  -7.238495e+00   9.211649e+01
  -3.945457e+01   9.759816e+01
  -1.319946e+02   4.538537e+01
  -9.196136e+01  -4.222777e+01
  -2.616515e+01  -1.406567e+02
  -2.081648e+00  -1.431003e+02
  -1.116794e+01  -5.970667e+01
  -1.265013e+01   1.369162e+01
   1.903427e+00  -1.061560e+02
   4.060390e+01  -1.567774e+02
   8.359196e+01  -7.450353e+01
   8.047972e+01  -1.111734e+01
   5.610336e+01   5.956844e+01
   9.734872e+00   4.127135e+01
  -3.102791e+01  -1.470306e+01
   3.450506e+01  -1.129000e+02
   1.731981e+02  -2.782147e+01
   2.204778e+02   1.283293e+02
   1.011961e+02   2.245863e+02
  -1.130280e+02   2.653790e+01
  -1.281965e+02  -5.756414e+00
  -1.518476e+02  -8.247561e+01
   2.375891e+01  -8.927349e+01
   1.023154e+02  -5.654633e+01
   1.139532e+02   3.161200e+01
   2.291329e+01   1.682330e+01
  -1.154128e+01   3.644712e+01
   2.517617e+01  -3.185316e+01
   6.673663e+01  -8.130751e+00
   3.909478e+01   2.462749e+01
  -5.365220e+01   6.094660e+01
  -7.423946e+01  -3.296091e+01
  -8.268109e+01  -2.476375e+01
   2.538114e+01  -1.607688e+02
   1.464932e+02  -9.735962e+01
   8.959825e+01   3.021634e+00
   1.057336e+02   3.139637e+01
   1.034015e+01   4.953360e+01
  -2.020219e+00   3.055147e+01
   4.011706e-01   8.759864e+01
   2.053311e+01   4.461238e+01
  -6.358812e+01   5.948909e+01
  -1.241170e+02  -1.209539e+01
  -1.408728e+02   4.065157e+00
  -1.463821e+01  -8.696588e+01
   3.344737e+01  -7.684193e+01
   8.000173e+01   2.534914e+01
   2.042106e+01   1.183750e+02
  -1.266587e+01   1.326330e+02
  -3.806713e+01   2.097641e+01
  -5.306224e+01  -3.664362e+01
  -6.733206e+01  -1.322831e+02
  -3.081708e+01  -7.019695e+01
   7.001411e+01  -4.758344e+01
   9.277216e+01  -6.375691e+01
   3.427354e+01  -7.188036e+01
   1.060446e+02  -2.046641e+01
   9.213939e+01   1.204931e+02
   1.250757e+02   7.517353e+01
  -3.675090e+01   1.408799e+02
  -1.675053e+02   2.051651e+02
  -1.600202e+02   3.288503e+01
  -1.065854e+02  -1.655314e+01
  -1.461783e+01  -1.317468e+02
  -3.743281e+01  -8.388396e+01
  -2.169212e+01  -2.955837e+01
  -8.748541e+01   1.550988e-02
  -1.700236e+01  -2.887748e+01
  -2.410283e+00  -2.928043e+01
   3.990627e+01  -3.875767e+01
  -2.807816e+01  -6.162036e+00
   3.243018e+01   1.726962e+01
  -4.889296e+01  -3.013466e+01
  -5.322338e+01  -8.118737e+01
   5.990084e+00  -1.612855e+02
   6.553762e+01  -7.027338e+01
   1.043683e+02   2.076487e+01
   1.134366e+02   1.056778e+02
   3.898485e+01   9.486099e+01
  -6.241239e+01   4.278259e+01
  -3.286864e+01   3.019484e+00
   2.045218e+01   3.214612e+01
  -2.614035e+01   1.703147e+01
  -2.410718e+01   1.215556e+01
  -9.020372e+01   6.346803e+00
  -3.597855e+01  -3.926043e+01
   3.600852e+01  -1.370379e+01
   3.219738e+01  -3.395488e+01
  -3.055326e+00  -1.047836e+01
  -1.804663e+01   1.899909e+01
  -6.618882e+01   6.929256e-01
  -1.092637e+02  -7.245704e+01
  -5.796996e-01  -1.147036e+02
   7.287020e+01  -1.242795e+02
   4.554055e+01  -4.365099e+01
   6.246731e+01   3.972370e+01
  -9.891559e+00   6.009822e+01
  -7.501048e+01   1.985071e+01
   4.433104e+01   7.105701e+00
   7.082140e+01  -2.283043e+01
   2.645427e+01   6.297572e+01
   6.322660e+00   1.189881e+01
   9.105456e+00   3.059492e+01
  -4.411666e+01  -4.309518e+01
  -7.396772e+01  -9.459257e+01
  -1.004605e+01  -1.050229e+01
   1.433014e+01   6.700297e+01
  -6.158444e+01   4.074147e+00
  -9.079444e+01   2.443146e+01
  -4.981847e+01  -2.943826e+01
  -3.678328e+01  -8.418455e+01
   5.445599e+01  -5.000442e+01
   1.206637e+02   4.153432e+01
   7.217311e+01   3.148533e+01
  -4.400513e+01  -1.494763e+00
  -2.988458e+01  -8.610214e+01
   6.680768e-01   1.124304e+01
   8.679919e+01  -1.814235e+01
   2.676497e+01   2.123145e+01
  -1.510482e+01   1.390017e+01
  -3.665417e+01   1.745072e+01
   1.663081e+01  -5.826359e+01
   4.215982e+01  -4.115519e+01
   1.645992e+02   1.825570e+01
   8.261510e+01   2.827517e+01
  -5.355244e+01   1.258919e+02
  -1.091585e+01   4.537163e+01
  -3.593593e+01  -5.566418e+00
   5.335275e+00   2.498153e+01
  -1.008998e+02  -3.642981e+01
  -1.148160e+01  -1.938556e+01
  -3.933891e+01  -3.319073e+01
  -5.289871e+01  -5.294359e+00
   4.081584e+01  -6.131198e+01
   6.542216e+01  -5.005086e+01
   3.256370e+01   4.810692e+01
  -1.459117e+01   6.430936e+01
  -8.337554e+01   7.666594e+00
  -6.047314e+01  -1.929817e+01
  -3.086132e+00  -1.178951e+02
   4.318116e+00  -4.520774e+01
   1.326736e+02  -1.121999e+02
   1.168335e+02   8.676634e+01
   2.091217e+01   5.315928e+01
   1.598121e+01   5.910261e+01
  -1.711529e+01   2.518094e+01
   3.026438e+00   3.121538e+01
  -8.976161e+00   8.359248e+01
  -6.683948e+01  -4.302615e-03
   3.455725e+00   3.664764e+01
  -8.246711e+01  -9.952470e+01
  -7.168003e+00  -1.252853e+02
   6.553221e+01  -9.306409e+01
   9.254707e+01   1.364325e+01
   2.491203e+01  -2.331339e+01
  -3.904404e+01   5.575132e+00
  -6.504287e+01   7.510237e+01
  -1.183194e+02  -6.058906e+01
   6.643340e+01   4.958779e+00
   3.513286e+01  -8.335935e+01
   3.716634e+00   4.170724e+01
  -3.400364e+01  -8.852451e+00
  -3.666686e+01  -6.718383e+01
  -1.622273e+01   5.143209e+00
   8.369649e+01   4.080508e-01
   8.517864e+01   4.755782e+01
  -2.925046e+01   7.152617e+00
  -7.192203e+01   4.961056e+01
  -3.341000e+01  -2.180880e+01
  -1.948223e+01  -4.060995e+01
   2.561925e+01  -1.274680e+01
   5.528685e+00   8.646549e+01
   8.174849e+00   1.083729e+01
  -3.318689e-01  -2.594821e+01
  -2.320942e+01  -6.824897e+00
   2.372481e+01   1.317273e+01
  -4.489923e+01  -9.399581e+00
  -4.719260e+01   9.563377e+00
   2.460310e+01  -8.362843e+00
   4.376372e+00  -2.284163e+01
   3.677397e+01  -4.484887e+01
   2.081536e+01  -1.322228e+02
   8.600559e+01  -3.786791e+01
   5.562321e+01   1.799397e+01
  -3.140427e+01  -1.541613e+01
  -3.816307e+01   3.999013e+01
  -2.358615e+00  -8.091828e+00
   1.572606e+01   2.809357e+01
   1.329065e+01   4.629791e+01
   3.132159e+01   3.391738e+01
  -3.226637e+01  -4.730458e-01
  -1.079488e+02   7.495585e+00
  -3.588272e+01  -1.633524e+01
   5.395197e+01  -2.078334e+01
   3.507354e+01  -5.753519e+01
   9.758669e+00  -5.628178e+01
   7.785694e+00   5.017964e+01
  -1.287879e+00   3.233877e+01
   4.447092e+01  -5.857671e+01
   6.366585e+01  -2.871586e+01
   3.261786e+01  -6.519607e+01
   2.665169e+01   4.850056e+01
  -5.752732e+01   6.655182e+01
  -2.803638e+01   6.073467e+01
  -6.891617e+01  -7.673954e+01
  -3.257843e+01  -2.039367e+01
  -1.929836e+01  -7.669599e+01
   5.947857e+01  -7.275150e-01
   1.794772e+01   3.899101e+01
   4.578219e+01  -2.745141e+01
  -5.205211e+01  -2.723361e+01
   7.843288e-01   4.513222e+01
   3.827928e+01   9.496290e+01
  -5.112710e+01   6.767100e+00
  -3.692602e+01   2.367022e+01
  -1.113448e+01   4.637024e+01
  -6.585302e+01  -3.477722e+01
  -1.419217e+01  -2.681357e+00
   2.145359e+01   3.348525e+01
   2.472822e+01  -1.465791e+01
   2.971101e+01   3.903354e+01
  -9.934505e+01   4.423012e+01
  -4.701884e+01   1.271788e+00
   5.803089e+01   6.735837e+01
   1.353024e+00  -3.378370e+01
  -2.796417e+01   3.757710e+01
  -2.070459e+01   7.144400e+00
   2.803030e+01  -2.626887e+01
   2.256363e+01  -1.377552e+01
   7.056356e+01  -5.422190e+00
   5.376848e+01  -2.862051e+01
   1.137948e+01   7.775652e+01
   3.887570e+00   2.518209e+01
  -9.334387e+01   4.787638e+01
  -7.110492e+01   2.794451e+01
  -2.470379e+01  -1.699959e-01
   7.360500e+01  -4.499347e+00
  -3.460019e+01  -1.824850e+01
  -9.331029e+00  -9.885964e+01
   3.727438e+01  -6.725564e+01
   4.323133e+01  -3.582557e+01
  -3.221309e+01  -1.141030e+01
   3.134272e+01  -2.487624e+01
  -8.643863e+00   1.100652e+02
  -2.102739e+01  -2.200953e+01
  -2.190997e+01  -5.689930e+01
  -2.756069e+01   1.559146e+01
  -1.316639e+01  -4.405308e+01
   7.089022e+01   1.528731e+01
   3.503864e+01   9.037093e+00
  -2.450671e+01   4.969588e+01
  -2.231495e+01   4.467674e+01
  -2.388945e+00   5.220074e+01
  -2.684548e+01  -5.182258e+01
   5.246658e+01  -9.079769e+00
   1.304303e+01   1.458493e+01
  -6.614884e+01  -1.147828e+01
  -3.058159e+01  -9.916787e-01
   4.357821e+00  -3.861127e+00
   7.020007e-02   2.645954e+00
   3.642063e+01   4.550075e+01
  -2.400454e+01   2.015258e+01
  -2.227333e+00   3.607538e+01
  -3.991204e+01   3.779996e+01
   4.770467e+01   2.972803e+01
  -2.349762e+01  -3.224266e+01
   9.508051e+01   7.940878e+01
   1.375861e+01   7.806558e+00
  -1.821405e+01   3.234683e+01
  -2.369413e+01   1.147899e+01
  -3.862678e+01  -5.016132e+01
   9.016096e+00  -1.230578e+01
  -4.273066e+00   6.090449e+01
   3.092300e+01   2.440095e+01
   4.587533e+01   4.066715e+01
   1.958290e+01   2.650209e+01
   4.476027e+00   8.652804e+00
  -6.825070e+00   1.501897e+01
  -1.999846e+01  -7.632672e+00
  -3.003070e+01   7.799282e+00
  -5.907579e+01   2.343934e+01
  -1.485840e+00  -1.316925e+01
   5.828170e+01  -3.225589e+01
   1.672689e+01   1.441197e+01
  -2.113741e+01   1.801042e+01
  -5.578372e+01  -3.029089e+01
  -4.738775e+00  -5.067694e+01
   6.306087e+01   1.849971e+01
   8.000450e+01  -5.820633e+00
