
 $NMID
 id='ANONYMOUS ', fmtdat='(2E16.6)'
 volume=1.0
 tramp=1.0
 $END
  -2.877192e+03   1.094203e+01
  -1.976798e+03  -1.240950e+03
  -3.395878e+02  -1.766979e+03
   8.608675e+02  -1.372371e+03
   9.285908e+02  -5.427631e+02
   2.809786e+02   7.280172e+01
  -1.262455e+02   1.069337e+01
  -6.526712e+01  -3.085687e+02
   2.991442e+02  -4.818665e+02
   5.540290e+02  -1.673320e+02
   4.605006e+02   4.175116e+02
   1.209561e+02   5.665265e+02
  -1.737616e+02   1.932467e+02
  -2.417403e+02  -2.904950e+02
   4.324153e+01  -4.683709e+02
   3.492358e+02  -1.782741e+02
   2.883130e+02   3.930793e+02
  -2.744215e+01   6.473531e+02
  -4.569840e+02   3.255252e+02
  -4.818146e+02  -6.592439e+01
  -2.148875e+02  -2.629368e+02
   1.565771e+02  -2.767043e+02
   3.505273e+01  -1.087900e+02
  -2.322215e+02  -1.815828e+02
  -2.405121e+02  -3.227498e+02
   1.081990e+02  -2.972196e+02
   4.610344e+02  -8.271515e+01
   5.004082e+02   2.177962e+02
   1.448973e+02   3.229704e+02
  -2.687658e+02   8.785200e+01
  -4.176727e+02  -1.872877e+02
  -1.349861e+02  -3.656102e+02
   3.188371e+02  -2.747984e+02
   3.564259e+02  -1.729411e+02
   3.150905e+02   6.281328e+01
   7.035032e+01   2.601265e+02
   2.449517e+01   1.728870e+02
   1.087761e+02  -7.184275e+01
   1.859230e+02  -8.943446e+01
   1.363796e+02   2.541891e+02
  -5.786875e+01   4.469430e+02
  -2.011856e+02   3.968918e+02
  -2.823281e+02  -1.040032e+01
  -7.016871e+01  -2.618915e+02
   8.680168e+01  -1.059714e+02
   1.335996e+02   2.706388e+02
  -1.469595e+02   3.442149e+02
  -3.463075e+02   3.823786e+00
  -4.135850e+02  -3.687935e+02
  -1.154666e+02  -4.659472e+02
   2.620857e+02  -2.179417e+02
   4.310633e+02   4.074381e+01
   3.148186e+02   2.528164e+02
  -4.670205e+01   1.697217e+02
  -2.328469e+02   6.099054e+01
  -2.230689e+02   3.188580e+01
  -5.079819e+01  -1.749116e+01
   2.371037e+01  -1.158861e+01
  -7.697154e+01   2.309335e+01
  -1.571018e+02  -9.560859e+01
  -1.350443e+02  -1.439553e+02
   1.110704e+02  -2.315295e+02
   3.727697e+02  -1.742310e+02
   3.291408e+02   7.382141e+01
  -1.270708e+01   3.603919e+02
  -3.450603e+02   3.818110e+02
  -3.752038e+02   2.152578e+02
  -1.930131e+02  -1.909136e+02
   5.673066e+00  -3.354436e+02
  -2.253609e+00  -2.807188e+02
  -4.746907e+01  -1.977909e+02
  -1.610683e+01  -1.400795e+02
   1.846291e+02  -1.249353e+02
   2.492338e+02  -6.627211e+01
   2.712088e+02   1.376422e+02
   1.131267e+02   2.538205e+02
  -1.085936e+02   1.633428e+02
  -1.956547e+02   3.272194e+01
  -1.039947e+02  -2.073331e+02
   7.191586e+01  -2.396089e+02
   2.192649e+02  -1.677003e+01
   3.324585e+02   1.353383e+02
   1.546104e+02   2.587989e+02
   9.669706e+00   2.482410e+02
  -1.490584e+02   1.552956e+02
  -1.476016e+02   7.982921e+01
  -1.618117e+02   1.187916e+02
  -2.422823e+02   5.060001e+01
  -3.569108e+02  -6.389655e+01
  -3.383919e+02  -3.434493e+02
  -3.811514e+01  -4.559075e+02
   3.822465e+02  -3.730998e+02
   4.320222e+02  -2.026138e+02
   2.809086e+02   1.243452e+02
  -3.482212e+01   2.921595e+02
  -2.380440e+01   1.252401e+02
  -4.717336e+00   8.725154e+01
   1.066189e+02  -3.243717e+01
   1.088054e+02   3.909755e+01
  -6.284674e+00   1.276902e+02
  -1.001996e+02   7.150802e+01
  -1.067101e+02  -5.872385e+01
   2.403097e+01  -8.257003e+01
   1.617653e+02  -8.191409e+00
   1.132453e+02   2.068994e+02
  -6.337783e+01   3.174524e+02
  -2.314836e+02   2.466566e+02
  -4.704392e+02  -3.680547e+01
  -2.850336e+02  -2.194313e+02
  -3.344773e+01  -2.405680e+02
   1.330665e+02  -1.447335e+02
   1.173928e+02  -4.217115e+01
   1.084472e+01   1.482668e+01
  -7.846879e+01  -5.318414e+01
   5.050017e+01  -1.730913e+02
   1.205547e+02  -9.389771e+01
   1.094388e+02   4.737536e+01
   5.798392e+01   1.570553e+01
  -1.152952e+02   2.763026e+01
   2.634850e+00  -1.677971e+02
   1.554434e+02  -1.195572e+02
   3.585858e+02   6.217893e+01
   2.072363e+02   1.888731e+02
   2.159770e+01   2.369010e+02
  -2.874566e+02   2.232438e+02
  -2.968352e+02   8.791866e+00
  -8.578265e+01  -3.030773e+01
   8.296100e+01  -5.799944e+01
   4.179073e+01   3.004325e+01
  -6.320357e+01   3.005032e+01
  -1.688306e+02   7.657852e+01
  -1.840436e+02  -1.396430e+02
  -6.196646e+01  -2.128449e+02
   9.839871e+01  -1.573179e+02
   1.734815e+02   2.423993e+01
  -4.460724e+00   2.033591e+01
  -8.021105e+01  -2.192203e+00
  -3.675394e+01  -9.952640e+01
   8.723536e+01  -1.453365e+02
   2.287158e+02  -1.754583e+01
   1.996694e+02   7.858591e+01
   5.014791e+01   2.381625e+02
  -1.140181e+02   1.435625e+02
  -1.189499e+02  -9.974919e+00
  -2.690715e+01  -8.150067e+01
   8.765125e+01  -6.590008e+01
   8.492949e+00  -2.119120e+01
  -3.124975e+01   6.635850e+00
  -4.334967e+01  -3.670143e+01
   2.621611e+01   3.267919e+01
   1.342910e+02  -4.049735e+01
   3.273486e+01   6.904149e+01
  -4.915905e+01   2.053294e+02
  -1.836736e+02   1.283608e+02
  -2.641797e+02  -5.140443e+01
  -2.266603e+02  -1.475754e+02
  -8.191646e+01  -2.295614e+02
   1.188742e+02  -1.833878e+02
   1.194825e+02  -5.105305e+01
   5.873362e+01  -1.002044e+01
   1.113379e+02   6.145057e+01
   4.526728e+01   2.185651e+01
   1.501191e+02  -2.243198e+01
  -4.169921e+00   8.917156e+01
  -6.870824e+01   9.334532e+01
  -1.279198e+02   1.283912e+02
  -7.325144e+01  -2.868549e+01
   3.190663e+00  -1.520420e+02
   1.818587e+02  -6.453399e+01
   2.599254e+02   1.011443e+02
   8.235043e+01   2.404514e+02
  -1.411509e+02   2.105591e+02
  -2.135766e+02   1.130912e+02
  -3.089841e+02  -1.143441e+02
  -6.103206e+01  -1.446798e+02
   8.637815e+01  -1.287577e+02
   1.201626e+02  -9.923848e+01
   4.645841e+01  -7.677056e+01
   6.835758e+01  -1.378057e+02
   8.054010e+01  -4.985726e+01
   9.538475e+01   4.357644e+01
   1.469719e+02   1.919592e+02
   1.117981e+02   2.451593e+02
  -5.898375e+01   2.320720e+02
  -1.934635e+02  -5.658570e+01
  -1.115458e+02  -2.277016e+02
  -3.815017e+01  -1.108883e+02
   9.902629e+01  -6.146983e+01
   8.978394e+01   4.817289e+01
  -1.172220e+01   1.261690e+01
  -4.701654e+01   2.901342e+01
   6.756137e+01  -1.024345e+00
   8.343992e+01   3.097186e+01
   1.824363e+01   4.897247e+01
  -4.287422e+01   2.411030e+01
  -2.064132e+02  -1.801659e+01
  -1.506446e+02  -1.115240e+02
   4.656733e+01  -9.349124e+01
   1.301598e+02  -9.929185e+01
   1.619078e+02   3.461296e+01
   5.636996e+01   9.289695e+01
  -3.337367e+01   6.823639e+01
  -5.381781e+01  -2.886188e+01
  -1.229211e+01  -4.067151e+01
   6.055515e+01  -5.286683e+01
   1.154179e+02   6.753093e+00
   7.164993e+01   7.577596e+01
   9.134990e+01   1.025773e+01
  -4.379203e+00   9.769658e+00
   7.569103e+01  -2.498170e+01
   8.109407e+01   6.576446e+01
  -1.158137e+01   1.710191e+02
  -1.219442e+02   1.535231e+02
  -1.967461e+02   3.585880e+01
  -1.283969e+02  -1.537075e+02
  -1.694896e+01  -1.645834e+02
   1.161221e+02  -8.914770e+01
   1.079568e+02  -1.852243e+00
   3.028117e+00  -1.845401e+01
  -4.541500e+01  -1.040009e+01
  -5.442901e+01  -1.793605e+02
   1.362228e+02  -8.460345e+01
   1.626626e+02   2.383309e-01
   1.738403e+02   5.840946e+01
   1.091306e+01   1.248295e+02
  -8.346764e+01   1.011698e+02
  -7.057350e+01  -6.147622e+01
  -3.195987e+00  -5.750326e+01
   1.091535e+02   3.279566e+01
   2.349343e+00   9.139567e+01
  -1.165706e+02   1.636731e+02
  -1.382577e+02   9.329879e+01
  -1.942035e+02  -7.673177e+01
   1.632883e+01  -2.284007e+02
   1.045057e+02  -1.196928e+02
   1.492227e+02   4.641788e+01
   9.947012e+01   1.484177e+02
  -3.410944e+01   1.143034e+02
  -6.132701e+01   1.098560e+01
  -4.749938e+01  -1.683460e+01
  -6.192532e+00  -3.015384e+01
  -1.586393e-01  -1.118718e+00
  -4.866155e+01   9.460549e+00
  -6.822436e+01  -1.065826e+02
  -2.523453e+01  -8.427440e+01
   1.192641e+01   1.927160e+01
   1.846482e+02   2.995036e+01
   1.063799e+02   9.803552e+01
   6.308440e+01   6.356790e+01
  -1.089083e+02   2.945277e+01
  -3.069318e+01  -9.180661e+00
   3.195794e+01   2.896901e+01
   4.582449e+01  -3.598452e+01
   3.498623e+01   3.431234e+01
  -4.029149e+01   1.039607e+02
   8.266948e+00  -2.375363e+01
   6.098162e+01   7.893275e+01
   9.034995e+01  -3.342114e+00
  -8.327231e+00   4.270684e+01
  -1.004903e+02   1.881864e+02
  -1.804194e+02   4.984284e+01
  -2.014754e+02  -8.942632e+01
  -6.979331e+01  -1.424509e+02
   9.860982e+01  -1.402206e+02
   1.229925e+02  -9.270854e+01
   1.425006e+02   2.878623e+01
  -4.301855e+00   6.007371e+01
  -3.952428e+00   5.380197e+01
  -5.731843e+00  -2.466034e+01
   4.350627e+01   8.337937e+01
  -1.530563e+00   9.264812e+01
   9.525091e+00   6.654495e+00
  -6.391427e+01  -1.289751e+01
  -1.022811e+02  -1.164652e+02
  -4.311135e+01  -1.373577e+02
   9.957243e+01  -3.091443e+01
   7.461925e+01   6.084354e+01
   1.424063e+01   8.696196e+01
  -9.439420e+01   3.625436e+01
  -9.563516e+01  -5.575588e+01
  -1.589650e+01  -1.053617e+02
   9.416706e-01  -1.234035e+02
   1.236025e+02  -3.784831e+01
   1.404613e+01   4.097424e+01
  -6.907249e+01  -1.021137e+01
  -8.799772e+00  -2.008201e+01
   1.862569e+02  -6.436918e+01
   1.249120e+02  -7.757148e+01
   5.632185e+01  -3.393511e+01
  -9.095862e+00   2.695619e+01
  -2.293117e+01   1.328273e+02
  -1.232192e+01   2.417874e+01
  -3.824246e+01  -9.326062e+01
   2.331052e+01  -2.088821e+01
   1.783364e+01   1.808366e+01
   1.687619e+01   5.722152e+01
   1.604232e+01   4.057379e+01
  -4.409717e+01  -1.883439e+01
  -3.035487e+01  -4.214675e+01
   6.001663e+01   2.567621e+01
  -1.220406e+01   4.922711e+01
   6.688166e+01   3.512344e+00
  -1.596259e+01  -8.189809e+01
  -1.905775e+01  -2.253268e+01
   2.922640e+01  -1.632493e+01
  -1.523323e+01   8.113333e+01
  -3.952432e+00   8.544766e+01
  -1.925385e+01   4.802982e+01
  -1.444096e+02  -1.796859e+00
  -1.885382e+01  -3.534979e+01
   4.216737e+01   4.611361e+00
   9.617923e+01  -1.325079e+01
   1.242019e+02   4.728919e+00
  -1.905584e+01   2.972084e+01
  -3.216138e+01  -1.353060e+01
  -1.928945e+01   9.251620e+00
  -8.107048e+00  -4.341307e+01
   6.001473e+01   2.316548e+01
  -4.920046e+00   5.778301e+01
  -7.227887e+01  -9.869601e+00
