
 $NMID
 id='ANONYMOUS ', fmtdat='(2E16.6)'
 volume=1.0
 tramp=1.0
 $END
   4.132461e+03   4.841282e+01
   2.438704e+03   2.413679e+03
  -5.499756e+02   2.612604e+03
  -1.963189e+03   8.839568e+02
  -9.594718e+02  -4.796341e+02
   5.075846e+02  -4.626256e+02
   7.592007e+02   4.038984e+02
  -1.026491e+01   9.289300e+02
  -7.480887e+02   7.247694e+02
  -8.941565e+02  -4.127329e+01
  -4.501704e+02  -7.384722e+02
   2.363700e+02  -8.081423e+02
   5.568741e+02  -1.315050e+02
   3.673883e+02   7.237642e+02
  -2.119610e+02   7.334538e+02
  -5.824728e+02  -1.245738e+01
  -2.089223e+02  -6.489889e+02
   2.933616e+02  -6.283313e+02
   6.129334e+02  -1.061863e+02
   4.228046e+02   3.363315e+02
   4.278223e+01   4.256219e+02
  -2.495066e+02   2.898411e+02
  -1.046345e+02   5.478845e+01
   9.514147e+01  -6.332616e+00
   3.706048e+02   1.470903e+02
   1.746623e+02   4.285695e+02
  -5.007744e+02   3.356992e+02
  -8.162500e+02  -1.007116e+02
  -3.631994e+02  -4.674447e+02
   3.737237e+02  -4.362378e+02
   6.994458e+02   8.972257e+01
   3.506407e+02   4.592661e+02
  -2.773928e+02   4.713047e+02
  -5.050559e+02   2.087768e+02
  -4.261545e+02  -2.129706e+02
  -1.131214e+02  -4.261885e+02
   2.145255e+02  -2.597092e+02
   1.167200e+02   1.837577e+02
  -1.953514e+02   3.383893e+02
  -3.478060e+02  -2.483573e+01
  -1.548116e+02  -6.462739e+02
   3.242683e+02  -6.795570e+02
   4.549579e+02  -3.707157e+00
   2.117102e+02   5.179764e+02
  -2.788757e+02   2.779642e+02
  -3.300298e+02  -2.943413e+02
   7.120733e+01  -4.737042e+02
   4.725286e+02  -6.443342e+01
   5.769313e+02   4.084297e+02
   1.097848e+02   5.816159e+02
  -3.767877e+02   2.730604e+02
  -6.160790e+02   3.090150e+00
  -4.197402e+02  -3.547608e+02
   1.543692e+02  -3.404394e+02
   3.706519e+02  -3.134456e+01
   2.570595e+02   1.635089e+02
  -3.583527e+01   1.486565e+02
  -1.206787e+02  -1.921020e+02
   1.617856e+02  -1.146497e+02
   3.414651e+02   1.094995e+02
   1.517425e+02   2.621137e+02
  -1.762093e+02   2.860963e+02
  -3.644599e+02   4.800813e+01
  -2.283847e+02  -1.137524e+02
   5.073466e+01  -2.391810e+02
   2.270361e+02  -3.593225e+02
   3.308555e+02  -2.205843e+02
   2.395354e+02   1.261352e+02
   7.424559e+01   4.593642e+02
  -8.564105e+01   3.497515e+02
  -1.437439e+02   1.586425e+02
  -3.086036e+01   1.103426e+01
  -2.247927e+01   1.311342e+02
  -1.964532e+02   1.191773e+02
  -2.919698e+02  -8.972401e+01
  -1.305801e+02  -2.466486e+02
   1.178377e+02  -2.456122e+02
   1.700200e+02  -1.820899e+01
   2.347543e+02   2.282496e+02
  -1.604232e+01   2.925233e+02
  -3.037393e+02   1.380920e+02
  -2.979175e+02  -1.848013e+02
  -1.983083e+02  -3.006475e+02
   1.040933e+02  -3.349360e+02
   1.868136e+02  -1.615178e+02
   2.007039e+02  -8.009018e+01
   1.247907e+02  -3.852179e+01
   2.466636e+02  -3.400963e+01
   3.959164e+02   9.175166e+01
   3.317885e+02   3.184059e+02
  -2.669292e+01   4.289056e+02
  -3.845718e+02   4.290318e+02
  -4.512377e+02   2.009915e+02
  -2.910714e+02  -1.222074e+02
  -1.953444e-01  -2.801669e+02
   1.075137e+02  -2.075217e+02
  -1.012271e+00  -4.943771e+00
  -1.758129e+02   1.455384e+02
  -1.974999e+02  -4.972245e+01
  -2.882907e+01  -1.341694e+02
   1.436431e+02  -1.608415e+02
   6.916181e+01   9.504984e+01
  -4.253448e+01   2.006638e+02
  -2.567653e+02  -1.812126e+01
  -1.752303e+02  -2.491565e+02
   2.750964e+01  -3.770615e+02
   2.495991e+02  -2.215114e+02
   2.951409e+02   9.061459e+01
   3.046874e+02   2.713211e+02
   1.060047e+02   2.820310e+02
  -1.423486e+02   1.310342e+02
  -1.902967e+02   8.568937e+00
  -5.855924e+01  -3.161597e+01
   1.183528e+02   2.582541e+01
   8.186916e+01   1.179975e+02
  -9.754277e+01   9.152233e+01
  -1.737346e+02   1.259967e+01
  -1.242067e+02  -1.084685e+02
   1.088766e+02   1.817681e+01
   1.568892e+01   1.321051e+02
  -9.169497e+01   1.115292e+02
  -3.027417e+02   1.274928e+01
  -2.223740e+02  -1.932309e+02
  -5.667878e+01  -2.544287e+02
   1.912286e+02  -2.475710e+02
   2.988560e+02  -1.417605e+02
   1.432621e+02   7.189484e+01
   4.307825e+01   4.441752e+01
  -4.944299e+01   3.903440e+00
   4.893177e+01  -1.533030e+02
   1.573683e+02  -3.422073e+01
   1.885915e+02   1.682118e+02
   3.116989e+01   1.750596e+02
  -5.832679e+01   1.125051e+02
  -1.428411e+02   3.095557e+01
  -5.805813e+01  -3.239002e+01
   1.297302e+01  -4.214840e+01
   3.757681e+01   7.935214e+01
  -1.073250e+02   1.241015e+02
  -1.634454e+02   2.790798e+01
  -1.820816e+02  -1.449308e+02
  -4.810171e+01  -2.807427e+02
   1.756573e+02  -1.417186e+02
   2.069519e+02   8.274210e+00
   1.106032e+02   1.473178e+02
  -8.421733e+01   1.186459e+02
  -1.920220e+02   6.841774e+01
   2.074201e-01  -3.576799e+01
   3.750441e+01  -5.811733e+01
   3.783878e+01  -1.274716e+01
  -6.707059e+01   3.294092e+01
  -5.732447e+01  -1.117347e+02
  -2.142534e+01  -1.996150e+02
   1.507960e+02  -7.961353e+01
   2.727815e+02  -7.120319e+00
   1.772775e+02   1.465338e+02
  -7.969205e-01   1.569662e+02
  -1.400292e+02   1.545247e+02
  -1.725068e+02  -4.806150e+01
  -9.964607e+01  -8.635831e+01
  -2.897356e+01  -4.792681e+01
  -7.059042e+01  -1.491366e+01
  -9.489073e+01   2.731630e+01
  -4.883362e+01  -5.160747e+01
   2.219247e+01  -1.359242e+02
   9.618221e+01  -5.187146e+01
   9.977649e+01   5.168949e+01
   3.312070e+00   1.330288e+02
  -1.944985e+02   6.246218e+01
  -1.809254e+02  -5.608519e+01
  -7.649435e+01  -2.179139e+02
   6.896332e+01  -2.151115e+02
   2.635292e+02  -3.528538e+01
   1.615858e+02   5.845331e+01
   1.194955e+02   1.680549e+02
  -5.968861e+01   1.131467e+02
  -1.533746e+02   2.400345e+01
  -5.598941e+01   7.982421e+01
  -4.163440e+01   5.661559e+01
  -7.884944e+01   8.099161e+01
  -1.780213e+02   1.158156e+01
  -1.456318e+02  -2.401499e+02
  -8.779405e+00  -1.661573e+02
   9.597409e+01  -1.389315e+02
   1.959138e+02  -1.729278e+00
   1.605252e+02   1.257591e+02
   3.033078e+01   9.389643e+01
  -5.361595e+01   1.320596e+02
  -6.195309e+01  -5.196479e+01
   6.192178e+01  -2.853030e+01
   3.322037e+01  -2.172483e+01
  -1.322296e+00   1.684927e+01
  -1.007409e+02  -2.568157e+01
  -8.473113e+01  -1.924004e+01
   3.423832e+01  -1.426850e+01
   1.996935e+02   1.469811e+01
   1.560597e+02   8.982632e+01
   2.510535e+01   1.368713e+02
  -1.030498e+02   1.301916e+02
  -1.174808e+02   3.491836e+01
  -4.381427e+01  -4.973742e+01
   6.553761e+01   1.320731e+00
   2.548196e+01   6.176854e+01
   1.694199e+01   7.991943e+01
  -6.205428e+01   1.012253e+02
  -9.279460e+01   9.889537e+00
  -1.426940e+02  -1.629510e+01
  -9.794528e+00  -4.598447e+01
  -4.558184e+01   4.690620e+00
  -7.603724e+01   2.418265e+01
   3.386958e+00  -1.028141e+02
   9.491925e+00  -1.625799e+02
   6.785460e+01  -1.109924e+02
   1.594263e+02  -4.630875e+01
   1.386947e+02   1.141547e+02
   5.866577e-01   1.164029e+02
  -1.105227e+02   1.059338e+02
  -7.802175e+01  -7.148336e+01
   2.882509e+01   3.959408e+01
   1.277224e+02  -3.376968e+01
   4.694433e+01   9.547990e+01
  -8.505179e+01   1.316208e+02
  -2.008854e+02   4.510842e+01
  -2.034574e+02  -6.281544e+01
   3.086356e+00  -1.015112e+02
   2.916008e+01  -9.180965e-01
   1.620960e+01  -4.131993e+01
  -8.996507e+01   3.648088e+01
  -3.756291e+01  -1.899389e+01
  -5.217144e+01  -7.163196e+01
   1.116874e+02  -1.514894e+02
   1.767967e+02  -7.856026e+01
   1.452222e+02   1.040233e+02
  -5.531172e+01   1.534681e+02
  -8.751038e+01   1.495814e+02
  -8.867505e+01   3.931064e+00
  -8.221144e+01  -7.630269e+01
  -4.252194e+01  -1.241148e+02
   5.156645e+01  -2.685536e+01
   9.444238e+01   5.157353e+01
   3.756543e+00   4.921290e+01
   2.065814e+01  -1.349505e+01
   8.345603e+00  -6.205148e+01
   5.932199e+01   8.479838e+01
  -1.118493e+01   8.335111e+01
  -7.612438e+01   2.899604e+01
  -1.536932e+02  -5.273926e+00
  -1.149418e+02  -8.884083e+01
   9.166334e+00  -2.717463e+01
   6.792685e+01  -9.687822e+00
   8.740649e+01   2.933532e+01
  -5.480072e+00   8.797039e+00
  -7.742224e+01   8.098311e+01
  -2.076839e+01   3.768727e+01
   1.207178e+01  -5.979207e+01
   2.925220e+00  -3.398208e+01
  -6.310854e+01  -4.302488e+01
  -1.055956e+02   1.987020e+00
  -2.972530e+01  -1.294696e+02
   7.760980e+01  -1.487019e+02
   1.507499e+02  -2.025812e+01
   9.661066e+01   3.892393e+01
  -1.327648e+01   1.342240e+02
  -8.188953e+01   1.530645e+02
  -1.265580e+02   1.000799e+02
  -1.001231e+02  -5.993134e+01
  -6.785910e+01  -3.615306e+01
   4.464418e+01  -6.971440e+00
  -6.361833e+01  -3.747095e+01
  -4.365894e+01  -1.040467e+01
  -2.159022e+01  -8.357398e+01
   7.080135e+01  -7.882834e+01
   3.869861e+01  -5.645712e+01
   4.316135e+01   1.377401e+02
   3.626678e+01   7.164864e+01
  -1.419841e+02   7.206001e+01
  -1.037083e+02  -9.267529e+01
  -6.514844e+01  -1.348945e+02
   2.235403e-01   7.612021e-01
   1.184648e+02  -9.562765e+00
   4.931988e+01   2.248460e+01
  -2.534356e+01   6.022173e+01
  -3.145307e+01   3.105525e+01
   1.551307e+01   1.165909e+01
   2.956654e+01  -5.333506e+01
   2.881834e+01   1.802757e+01
  -5.331412e+01   5.809639e+01
  -1.007100e+02   5.622580e+01
  -1.098788e+02  -7.768374e+00
   3.083943e+01  -6.186328e+01
   7.259267e+01  -9.253150e+01
   8.017580e+01   5.389964e+01
  -1.074662e+00   1.152231e+02
  -8.739845e+01   5.126311e+01
  -4.383091e+01  -4.629725e+01
  -2.275253e+01  -5.466759e+01
  -1.722903e+01  -3.865339e+01
   9.197861e+01   1.829420e+01
   3.421764e+01   4.462078e+01
   3.652245e+01  -1.070679e+01
   4.856332e+01  -9.658364e+00
  -1.279684e+01   1.352308e+01
   6.971867e+00   1.237261e+01
  -1.030582e+01   5.797630e+01
  -3.186356e+01  -1.641159e+00
  -3.116302e+01  -8.622387e+01
   9.294877e+00  -9.273902e+01
   5.354655e+01  -8.594920e+01
   5.722551e+01   6.219393e+01
  -1.519834e+01   1.826582e+01
  -4.479137e+01  -2.168163e+01
  -1.303393e+02   6.198734e+00
  -4.966085e+01  -5.278551e+01
   5.505494e+01  -5.178314e+01
   8.786287e+01  -5.697383e+01
   1.466807e+00   3.723569e+00
  -4.801827e+01   2.348668e+01
  -9.719021e+00  -1.282299e+00
   3.590013e+01   9.532595e+00
   5.270871e+01  -7.334748e+01
