
 $NMID
 id='ANONYMOUS ', fmtdat='(2E16.6)'
 volume=1.0
 tramp=1.0
 $END
   4.598782e+03   5.822782e+01
   2.648371e+03   2.871611e+03
  -9.328296e+02   2.873279e+03
  -2.334280e+03   8.215742e+02
  -1.011542e+03  -8.469470e+02
   7.894556e+02  -6.896102e+02
   9.879283e+02   5.213895e+02
  -6.868914e+01   1.170012e+03
  -9.042131e+02   7.773364e+02
  -1.031408e+03  -1.066261e+02
  -4.541742e+02  -9.362058e+02
   2.809043e+02  -9.801373e+02
   6.922222e+02  -1.297505e+02
   3.700875e+02   7.936764e+02
  -2.772203e+02   7.945625e+02
  -6.580950e+02  -3.402989e+01
  -2.659962e+02  -7.377427e+02
   3.909900e+02  -6.106486e+02
   5.825945e+02  -9.026180e+01
   3.665270e+02   4.759090e+02
   2.233110e+01   4.336662e+02
  -2.991611e+02   2.446892e+02
  -2.392460e+02   8.754344e+01
   9.993644e+01  -1.640421e+02
   4.399026e+02   8.160074e+01
   2.344819e+02   4.550617e+02
  -4.627366e+02   4.320318e+02
  -8.947766e+02  -6.106428e+01
  -4.618611e+02  -5.924515e+02
   3.544241e+02  -5.499182e+02
   8.005358e+02   7.406811e+01
   4.037621e+02   4.881432e+02
  -3.221327e+02   5.907404e+02
  -5.506182e+02   1.826901e+02
  -4.185312e+02  -2.139349e+02
  -8.991311e+01  -5.514948e+02
   1.940381e+02  -3.401568e+02
   2.165725e+02   1.771346e+02
  -1.259875e+02   4.341271e+02
  -4.543248e+02   1.766548e+01
  -2.606054e+02  -7.193900e+02
   3.579680e+02  -7.354096e+02
   6.913764e+02  -3.884437e+01
   2.561357e+02   6.631331e+02
  -2.941660e+02   4.321479e+02
  -4.352927e+02  -3.756763e+02
   4.227663e+01  -5.704963e+02
   5.883104e+02  -1.393838e+02
   5.733540e+02   4.445448e+02
   2.058018e+02   5.802756e+02
  -4.652866e+02   3.646601e+02
  -6.397725e+02  -7.928250e+01
  -3.762884e+02  -3.812873e+02
   1.539763e+02  -4.244799e+02
   5.075854e+02  -3.946429e+01
   2.601979e+02   3.014532e+02
  -1.007518e+02   1.076506e+02
  -1.809161e+02  -2.012481e+02
   1.847303e+02  -2.222862e+02
   3.984149e+02   1.132793e+02
   1.712657e+02   3.284998e+02
  -3.067652e+02   1.851551e+02
  -2.930711e+02   1.190617e+02
  -1.977573e+02  -8.346967e+01
  -2.618146e+00  -1.593969e+02
   1.721512e+02  -2.747668e+02
   3.101384e+02  -2.225349e+02
   3.079700e+02   1.301717e+02
   4.815815e+01   3.939354e+02
  -1.405438e+02   4.028729e+02
  -1.052247e+02   8.195308e+01
  -1.375845e+01  -6.625035e+01
  -3.086156e+01   1.126120e+02
  -2.154409e+02   1.584192e+02
  -2.391962e+02  -7.284434e+01
  -1.930656e+02  -2.566906e+02
   9.459496e+01  -2.936174e+02
   2.666141e+02   9.113753e+00
   2.079417e+02   2.109822e+02
  -7.204099e+00   2.770828e+02
  -2.846673e+02   7.426064e+01
  -3.297204e+02  -1.733776e+02
  -1.400542e+02  -3.829127e+02
   1.078266e+02  -2.964902e+02
   2.577376e+02  -9.273629e+01
   2.065962e+02  -1.283663e+01
   9.590583e+01  -1.543126e+01
   2.068701e+02  -1.034095e+02
   4.071689e+02   3.575498e+01
   3.203231e+02   3.078346e+02
   4.491752e+01   4.700350e+02
  -3.576368e+02   3.580112e+02
  -4.986585e+02   1.984170e+02
  -3.944481e+02  -7.258477e+01
  -6.444034e+01  -2.977990e+02
   1.166937e+02  -2.765144e+02
   1.329500e+02  -1.540626e+01
  -1.089107e+02   9.610030e+01
  -2.022608e+02   5.486194e+01
  -9.725202e+01  -1.473372e+02
   1.593096e+02  -2.112323e+02
   1.782175e+02   8.496066e+01
  -8.357414e+00   2.275859e+02
  -2.008351e+02   7.259962e+01
  -2.031825e+02  -1.916839e+02
   4.632860e+01  -3.377465e+02
   2.489163e+02  -1.729659e+02
   2.767761e+02   8.362736e+01
   2.455215e+02   1.828010e+02
   1.490251e+02   2.108573e+02
  -1.487259e+02   1.246675e+02
  -1.739758e+02  -4.469321e+01
  -7.276700e+01  -2.953382e+01
   8.855341e+01  -2.889638e+01
   8.654278e+00   1.343759e+02
  -1.629305e+02   5.908219e+01
  -1.617979e+02  -2.559806e+01
  -6.558901e+01  -9.005345e+00
   1.078913e+02  -1.140456e+00
   3.233320e+01   1.152282e+01
  -3.634825e+01   3.307181e+01
  -2.341785e+02  -1.189127e+01
  -2.982354e+02  -1.320309e+02
  -6.791659e+01  -2.425627e+02
   2.059154e+02  -2.778431e+02
   2.717006e+02  -1.691472e+02
   2.004493e+02   8.343092e+01
  -2.154455e+00   1.728259e+02
  -9.073281e+01   4.512651e-01
   1.773002e+01  -5.508431e+01
   2.052270e+02  -6.645457e+01
   1.944917e+02   1.039757e+02
   1.830257e+01   2.544813e+02
  -3.369916e+01   1.332320e+02
  -1.865264e+02   6.071690e+00
  -1.002223e+02   8.782557e+00
   3.014342e+01  -5.281246e+01
   3.879042e+01   1.024280e+02
  -9.688317e+01   1.657103e+02
  -1.367042e+02  -2.405776e+01
  -1.918188e+02  -1.638205e+02
  -5.783634e+01  -1.941463e+02
   1.241836e+02  -1.626980e+02
   2.165445e+02  -2.994445e+01
   6.731172e+01   1.597624e+02
  -8.016983e+01   6.755936e+01
  -5.743009e+01   5.455387e+01
   2.489590e+00  -6.697939e+01
   2.273715e+01  -3.902524e+01
   2.595405e+01  -2.937686e+01
  -3.479091e+01   2.309918e+01
  -8.302073e+01  -1.048170e+02
  -4.644890e+01  -1.397507e+02
   1.217990e+02  -1.275349e+02
   2.065313e+02  -4.994301e+01
   1.725612e+02   1.531892e+02
   4.276272e+01   1.484910e+02
  -1.307112e+02   1.890195e+02
  -1.089953e+02   1.203131e+01
  -7.407439e+01  -8.330856e+01
  -2.134026e+01  -7.280645e+01
  -4.292645e+01   9.342707e+01
  -1.125181e+02  -2.790887e+01
  -1.876758e+01   5.088514e+00
   3.320046e+01  -1.020544e+02
   1.011102e+02  -8.177831e+01
   6.834907e+01   3.876276e+01
  -2.988719e+01   1.405340e+02
  -1.722252e+02   4.972876e+01
  -2.177218e+02  -5.888064e+01
  -1.313456e+02  -1.036202e+02
   9.653867e+01  -2.282798e+02
   3.099790e+02  -8.116534e+01
   2.149354e+02   6.022865e+01
   1.084979e+02   1.493657e+02
  -5.409490e+01   1.502943e+02
  -1.035581e+02   5.505006e+01
  -1.105175e+02   7.801987e+01
  -7.955459e+01   5.583384e+01
  -1.278815e+02   1.423252e+02
  -1.469555e+02  -2.968691e+01
  -8.168610e+01  -5.269940e+01
  -2.802416e+01  -2.270211e+02
   8.475066e+01  -1.849257e+02
   1.956661e+02   4.754128e+01
   4.650574e+01   9.765325e+01
   8.308074e+00   1.533492e+02
  -8.521918e+01   6.138121e+01
  -1.507961e+02  -1.341950e+01
  -2.994101e+01  -3.486349e+01
   6.354205e+01   3.142932e+00
  -3.656898e+01  -1.140428e+01
  -3.086369e+01  -1.077412e+01
   5.812684e+00  -5.444908e+01
  -3.216273e+01   7.439142e+00
   8.299740e+01   5.274338e+01
   1.305285e+02   6.624555e+01
  -1.887363e+01   4.503964e+01
  -7.100509e+01   1.028076e+02
  -1.168636e+02  -1.247508e+01
  -6.492375e+01  -8.336523e+01
   4.792020e+01   2.026106e+01
   1.213840e+02   4.934491e+01
   2.800289e+01   9.989292e+01
  -3.077009e+01   8.770718e+01
  -5.664660e+01   9.793259e+00
  -1.515162e+01  -7.622173e+01
  -5.171589e+01  -4.664594e+01
  -4.927087e+01  -3.698280e+00
  -7.906685e+01   2.689819e+01
  -6.007364e+01  -1.403868e+02
   8.928301e+00  -1.446481e+02
   1.477860e+02  -1.945137e+02
   1.242482e+02   2.498459e+01
   1.756578e+02   6.299518e+01
   7.113020e+00   1.541474e+02
  -4.291186e+01   5.146067e+01
  -4.658508e+01  -5.214334e+01
   5.697269e+01  -9.777619e+00
   1.764975e+02   3.665951e+01
   4.159342e+01   1.231338e+02
  -1.195339e+02   1.456966e+02
  -1.727670e+02   1.103870e+02
  -2.644089e+02  -5.273307e+01
  -4.990744e+00  -4.855792e+01
   6.323810e+01  -9.585224e+01
   3.920382e+01  -1.921580e+00
  -8.643282e+01   2.599526e+01
  -8.187145e+01  -8.342815e+01
  -4.942539e+01  -1.065105e+02
   7.924980e+01  -1.292909e+02
   1.819867e+02  -5.529354e+01
   1.217762e+02   1.365063e+02
  -1.177631e+01   2.463745e+02
  -1.491670e+02   1.668325e+02
  -1.328373e+02   2.116309e+00
   9.378623e+00  -1.133436e+02
  -1.180149e+01  -9.349033e+01
   5.980612e+00  -4.989660e+01
   8.562826e+01   2.111674e+01
   1.590922e+00   2.106068e+01
   1.224366e+01  -3.034520e+01
   7.928015e+01   9.978176e+00
   3.217685e+01   1.486558e+02
   5.999901e+01   1.581892e+02
  -4.026641e+01   7.849265e+01
  -1.048099e+02  -7.437545e+01
  -1.803581e+02  -3.504009e+01
  -4.273993e+01  -6.349483e+01
   1.148770e+02   3.418553e+00
   7.530852e+01  -4.219940e+01
  -2.016796e+00  -1.036799e+02
  -1.409825e+01   3.062160e+01
  -1.449228e+01   2.368510e+01
   2.626350e+01  -3.884766e+01
   9.576549e+00  -2.102452e+01
  -7.348216e+01  -1.272417e+01
  -1.332221e+02  -6.148700e+01
   4.787941e+00  -8.949152e+01
   1.297759e+02  -1.636233e+02
   2.039896e+02   3.363246e+01
   1.033056e+02   2.669033e+01
  -1.130380e+00   1.592887e+02
  -7.802389e+01   7.614561e+01
  -6.560515e+01   5.543861e+01
  -6.989340e+01   1.005726e+00
  -8.235542e+00  -5.670529e+01
  -1.203717e+01   4.203481e+01
   8.467368e+00   2.120898e+00
  -2.377566e+01  -8.766272e+01
  -3.161804e+01  -6.650157e+01
   5.353467e+01  -1.191965e+02
   6.705205e+01   3.148876e+01
   1.190140e+02   1.384845e+02
   4.513693e+01   9.718908e+01
  -1.256781e+02  -4.974042e+01
  -8.803765e+01  -7.576961e+01
  -4.147308e+01  -6.761343e+01
   3.642109e+01  -2.327506e+00
   7.087212e+01   1.088792e+01
   4.199586e+01   2.372372e+01
  -4.793537e+00   3.022408e+01
  -3.202760e+01   4.759588e+01
   8.635293e+01   3.060255e+01
   8.252509e+01   1.352172e+01
   4.401391e+01  -7.913767e-02
  -1.402333e+02   4.161623e+01
  -1.669115e+02   4.372638e+01
  -2.627582e+01  -2.364103e+01
   5.474355e+01  -9.494799e+01
   1.032295e+02  -7.057648e+01
   2.055476e+01  -5.815045e-01
   6.662950e+01   8.571803e+01
   2.070399e+01   6.163424e+01
  -7.411550e+01  -4.970378e+01
  -1.649387e+01  -5.935221e+01
   9.658041e+00  -6.349609e+01
   6.937203e+01   1.005253e+01
   3.339214e+01  -1.107699e+01
   1.434308e+01   3.429172e+01
  -5.785811e+00   1.359161e+01
   2.142816e+01   7.561883e+01
   1.305464e+00   7.492993e+01
  -1.999901e+01   9.171769e+01
  -1.158930e+01  -2.341561e+01
   2.444051e+01  -7.575357e+01
   3.414623e-01  -1.139302e+02
   7.592331e+01  -5.395860e+01
   8.140260e+01   2.279897e+01
  -4.074911e+00   9.743169e+01
  -9.009873e+01  -1.788383e+01
  -1.288919e+02  -5.926349e+01
  -2.366566e+01  -2.434233e+01
   4.950617e+01  -4.891454e+01
   1.586999e+01  -5.279667e+01
   3.058225e+01  -3.479123e+01
  -4.054084e+01   4.173829e+00
  -2.619653e+01   1.094597e+01
   6.758898e+00  -4.511325e+01
   1.326171e+02  -3.890084e+01
