
 $NMID
 id='ANONYMOUS ', fmtdat='(2E16.6)'
 volume=1.0
 tramp=1.0
 $END
  -4.607841e+03   1.006110e+02
  -2.800573e+03  -2.819780e+03
   8.393010e+02  -3.027899e+03
   2.347119e+03  -9.159880e+02
   1.043004e+03   7.876232e+02
  -7.481901e+02   7.181480e+02
  -1.041513e+03  -4.426299e+02
  -4.776794e+01  -1.186656e+03
   8.730540e+02  -9.025531e+02
   1.057507e+03   1.066140e+02
   5.209479e+02   9.600982e+02
  -2.931048e+02   9.588136e+02
  -6.907610e+02   1.079495e+02
  -4.172235e+02  -8.417662e+02
   3.109874e+02  -8.002671e+02
   6.831639e+02  -4.088372e+00
   2.748221e+02   6.911146e+02
  -3.961228e+02   6.851003e+02
  -7.026214e+02   3.902581e+01
  -4.228270e+02  -3.754825e+02
   5.215230e+01  -4.528207e+02
   2.581014e+02  -2.610793e+02
   2.141666e+02  -8.854697e+01
  -9.822871e+01   5.893610e+01
  -4.460612e+02  -7.907157e+01
  -1.712669e+02  -4.136142e+02
   4.950529e+02  -4.420873e+02
   8.607514e+02   5.244342e+01
   4.798789e+02   5.438813e+02
  -3.470574e+02   5.327652e+02
  -7.720268e+02   3.372450e+01
  -3.733982e+02  -4.921819e+02
   2.461873e+02  -6.088527e+02
   6.363372e+02  -1.994101e+02
   4.811927e+02   2.804299e+02
   7.640939e+01   5.169744e+02
  -2.736804e+02   3.492049e+02
  -2.334873e+02  -2.601087e+02
   1.201937e+02  -4.919035e+02
   4.888424e+02  -1.257903e+01
   2.692040e+02   7.226728e+02
  -3.055850e+02   7.564243e+02
  -6.228658e+02  -3.878443e+00
  -3.300965e+02  -5.918958e+02
   2.365497e+02  -4.204014e+02
   4.551574e+02   3.490545e+02
  -5.590253e+01   5.529000e+02
  -5.375561e+02   1.995176e+02
  -6.020444e+02  -3.838212e+02
  -1.448034e+02  -6.292011e+02
   4.145289e+02  -3.687111e+02
   6.589445e+02   6.688178e+01
   4.061136e+02   4.330100e+02
  -1.254395e+02   4.051795e+02
  -4.697327e+02   5.036435e+01
  -2.746880e+02  -2.733981e+02
   1.536293e+02  -3.905712e+01
   1.651010e+02   1.618899e+02
  -1.388763e+02   2.468765e+02
  -3.846452e+02  -2.513273e+01
  -2.034774e+02  -3.103761e+02
   2.437584e+02  -3.150206e+02
   3.293314e+02  -1.253927e+02
   2.296478e+02   1.563878e+02
  -5.163127e+01   1.771636e+02
  -2.204803e+02   2.611526e+02
  -3.527232e+02   2.104617e+02
  -3.113377e+02  -1.185760e+02
   9.249534e+00  -5.697190e+02
   6.915293e+01  -4.045927e+02
   1.182997e+02  -8.015189e+01
   4.803122e+01   2.318131e+01
   3.542693e+01  -1.092499e+01
   2.094732e+02  -2.090385e+02
   3.444800e+02   7.173050e+01
   1.591811e+02   2.899088e+02
  -9.402869e+01   2.449357e+02
  -2.265411e+02   4.033393e+01
  -2.111380e+02  -1.721423e+02
   1.446845e+00  -3.368172e+02
   2.952084e+02  -1.575828e+02
   3.701435e+02   1.847983e+02
   2.515413e+02   3.955150e+02
  -1.333097e+02   2.996678e+02
  -2.935893e+02   1.596210e+02
  -1.047369e+02   4.084405e+01
  -1.839547e+02   5.740194e+00
  -2.358380e+02   6.496760e+01
  -4.367003e+02  -4.822120e+01
  -3.417243e+02  -3.112381e+02
   2.370206e-01  -4.393370e+02
   3.724323e+02  -3.986808e+02
   5.319140e+02  -2.554392e+02
   3.714128e+02   1.250271e+02
   4.899334e+01   2.762772e+02
  -1.353189e+02   3.170188e+02
  -6.521595e+01   1.344595e+01
   1.250183e+02  -3.290276e+01
   1.929563e+02   3.366096e+01
   1.265752e+02   2.348790e+02
  -1.313523e+02   1.502746e+02
  -2.172867e+02  -5.003315e+01
   6.755883e+01  -1.721073e+02
   2.235218e+02  -9.041178e+01
   1.601847e+02   2.274079e+02
  -4.390829e+00   3.757246e+02
  -2.536514e+02   1.954534e+02
  -3.447555e+02  -3.247646e+01
  -2.881021e+02  -2.233234e+02
  -7.987932e+01  -2.703765e+02
   1.437907e+02  -1.730357e+02
   2.152704e+02  -1.306698e+01
   9.971184e+00  -1.360198e+01
  -5.877382e+01  -8.410634e+01
  -1.267129e+01  -1.263019e+02
   1.134368e+02  -1.067126e+02
   2.010751e+02   2.817895e+01
   4.787193e+01   3.575040e+01
  -7.480999e+01  -2.467648e+01
  -8.363189e+01  -7.593413e+01
   1.553298e+02  -8.059598e+01
   2.392959e+02   1.430633e+01
   2.460198e+02   1.076031e+02
   4.615487e+01   2.193084e+02
  -1.765157e+02   2.136642e+02
  -2.479577e+02   8.556566e+01
  -1.823661e+02  -9.464839e+01
  -4.670711e+00  -1.082411e+02
   1.426077e+02   3.016190e+01
  -4.314779e+01   1.104215e+02
  -2.262823e+02   7.533685e+01
  -2.178278e+02  -1.539275e+02
  -1.311827e+02  -2.510979e+02
   9.363118e+01  -1.887508e+02
   2.164201e+02  -2.387494e+01
   3.047964e+01   4.366910e+01
  -2.593709e+01  -1.281443e+01
  -4.195164e+01  -1.357623e+02
   5.831687e+01  -1.029483e+02
   1.978862e+02   2.928325e+01
   1.900189e+02   3.728176e+01
  -2.360441e+00   2.106210e+02
  -1.332224e+02   1.700264e+02
  -1.835594e+02   3.251525e+01
  -6.061595e+01  -5.801526e+01
   4.442277e+01  -7.988609e+01
   7.255800e+01  -1.519983e+01
   4.336950e+01   8.956601e+01
  -1.140173e+01   2.178360e+01
   1.395512e+01  -1.579372e+01
   3.439429e+01   3.510587e+01
   1.019281e+02   4.452910e+01
   3.615593e+01   1.547370e+02
  -1.129772e+02   1.383856e+02
  -2.417392e+02   3.192931e+01
  -1.640526e+02  -2.183309e+02
  -1.040647e+02  -2.703007e+02
   1.579286e+02  -1.837627e+02
   1.874377e+02  -6.638583e+01
   1.110877e+02   4.945914e+01
   2.616976e+01   3.539512e+00
   6.375725e+01   6.258476e+00
   1.084048e+02  -2.837398e+00
   9.387350e+01   4.629241e+01
  -1.427345e+01   1.140670e+02
  -6.526838e+01   6.555076e+01
  -1.446989e+01  -4.944401e+01
   2.050869e+01  -1.007306e+02
   1.872211e+02  -5.483803e+01
   1.776697e+02   4.572487e+01
   8.623548e+01   2.663437e+02
  -1.343531e+02   1.989075e+02
  -2.558783e+02   1.161000e+02
  -3.080815e+02  -9.880853e+01
  -1.293843e+02  -1.994082e+02
   3.156684e+01  -1.292759e+02
   1.208015e+02  -5.895309e+01
   1.064155e+02  -5.605860e+01
   1.257052e+02  -1.004766e+02
   1.358719e+02  -8.749228e+01
   1.757099e+02  -3.569827e+01
   1.211785e+02   1.278869e+02
   5.300991e+01   2.627742e+02
  -1.337020e+02   1.421205e+02
  -1.592515e+02   3.226511e+01
  -9.463411e+01  -1.566708e+02
  -1.219088e+00  -1.671577e+02
   1.401205e+02  -6.833747e+01
   6.929178e+01  -7.755144e+00
  -3.130813e+01   6.541499e+01
  -2.068456e+01   8.179916e+01
  -1.118894e+01   3.805666e+01
   1.085464e+02   5.368617e+01
   4.749280e+01   6.011293e-01
  -1.166009e+02   5.980973e+01
  -1.354618e+02   2.259453e+01
  -1.993173e+02  -7.882709e+01
  -2.404411e+01  -6.947901e+01
   1.623868e+02  -6.086835e+01
   9.671504e+01  -9.858763e+00
   1.542094e+01   8.726892e+00
  -3.863614e+01   5.069681e+01
  -8.255013e+01  -1.434021e+01
  -7.851117e-01  -8.092498e+01
   6.157358e+01  -4.618481e+01
   6.315284e+01   8.815859e+01
   2.978827e+01   6.606581e+01
   4.300286e+01   6.289462e+01
   7.013013e+01   7.197686e+01
   4.297711e+01  -4.595740e+01
   2.611752e+01   5.792475e+01
  -1.370203e+01   2.169768e+02
  -1.462825e+02   1.549322e+02
  -2.108864e+02   1.536548e+00
  -1.568381e+02   1.614144e+00
  -1.060789e+01  -1.756773e+02
   9.080949e+01  -4.796768e+01
   8.549321e+01   3.757812e+01
  -6.744343e+01   1.754011e+01
  -1.157472e+02  -4.623061e+01
  -1.378069e+02  -1.172796e+02
   8.581520e+01  -1.317672e+02
   1.695321e+02  -9.670313e+01
   1.496429e+02   5.057718e+01
   7.358775e+00   6.892652e+01
  -4.666398e+01   1.915477e+01
  -5.308698e+01   3.927418e+01
   3.744670e+01  -7.320424e+01
   1.038605e+02   4.617595e+01
   2.304767e+01   8.205083e+01
  -1.123618e+02   1.441684e+02
  -1.670648e+02   1.384968e+02
  -1.858803e+02  -9.780865e+01
  -2.222667e+01  -1.373031e+02
   5.878056e+01  -1.754117e+02
   1.821458e+02   3.661864e+01
   2.799299e+01   1.312693e+02
  -2.853077e+01   9.949462e+01
  -8.180091e+00  -7.336548e+01
  -2.478978e+01  -7.938321e+01
  -1.058160e+02  -9.211129e+00
  -1.353171e+01   2.709710e+01
  -1.325462e+01   4.572253e+01
   4.250175e+00  -6.690954e+01
  -7.478469e+01  -9.391399e+01
   9.077516e+01  -6.801079e+01
   1.731758e+02   3.360447e+01
   1.190003e+02   7.316330e+01
  -2.078354e+01   1.924714e+01
  -7.428978e+01  -4.337040e-01
  -7.524582e+01   4.908881e+01
   6.517053e+01   2.543248e+01
   4.563819e+01  -7.835417e+01
   1.321131e+01  -5.505516e+01
   2.661383e+01   2.091193e+00
  -2.177153e+01  -2.288115e+01
  -4.413058e+01   5.328741e+01
   7.693943e+01  -3.244355e+01
   3.372509e+01   6.362175e+01
  -1.601265e+02   1.498298e+02
  -1.859109e+02   8.144439e+01
  -1.615886e+02  -9.893561e+01
  -1.137503e+01  -1.295655e+02
   1.369358e+02  -1.159420e+02
   1.427465e+02   1.392290e+01
   8.849957e+01   7.505728e+00
   5.059286e+01   7.453333e+00
  -4.353126e+01  -6.527219e+00
   7.750433e+01   6.547782e+01
   4.233491e+00  -7.662639e+00
   9.419625e+01   1.189976e+02
  -1.070839e+01   1.109690e+02
  -1.389912e+02  -2.648126e+01
  -8.433995e+01  -1.349018e+02
  -4.959535e+01  -8.099239e+01
   9.455618e+01  -1.588938e+01
   8.951435e+01   1.219678e+02
   3.688550e+01   1.238750e+02
  -9.452489e+01   7.511885e+00
  -1.839384e+02  -2.412660e+01
  -8.893195e+00  -1.008693e+02
   7.410516e+01  -7.803913e+01
   6.013971e+00  -2.622959e+01
  -5.732357e+01  -2.606144e+01
  -2.075257e+01   1.859653e+01
  -3.551885e+00  -5.877805e+01
   1.054810e+02  -8.545194e+01
   1.178341e+02  -6.116792e+01
   5.455159e+01   8.668609e+00
   8.139573e-01   1.209467e+02
  -8.283333e+00   2.994559e+01
  -4.015115e+01  -4.289829e+01
   2.391954e+01  -6.733672e+01
   3.136686e+00   1.109469e+01
   1.233870e+01  -1.836014e+00
   3.026431e+01   2.579470e+01
  -4.073009e+01   2.577545e+00
  -5.215541e+01  -4.705039e+00
  -7.270584e+01  -2.688725e+01
  -5.315198e+00   3.467274e+01
  -2.794650e+01  -1.531639e+01
  -2.025953e+01  -3.751132e+01
  -4.600084e+00   2.442561e+01
   1.606928e+01  -7.475280e+01
   3.597946e+01  -9.446758e+00
   8.044686e+01   6.598875e+00
   6.388161e+00   1.191513e+01
  -1.577264e+01   5.508565e+01
  -5.492415e+01  -3.009972e+01
  -2.045560e+01  -5.240420e+01
   4.989491e+01   1.199158e+01
   7.357871e+01   1.028555e+01
   7.569956e+01   7.646269e+01
  -3.412370e+01   3.319007e+01
  -1.431613e+02   3.658492e+01
   4.348279e+00   3.984352e+01
   2.192914e+01  -1.122415e+01
   1.300086e+01   2.341474e+01
  -2.490493e+01  -6.747658e+00
  -1.446696e+02   7.612780e+01
