
 $NMID
 id='ANONYMOUS ', fmtdat='(2E16.6)'
 volume=1.0
 tramp=1.0
 $END
  -1.639951e+03   4.826483e+01
  -1.213821e+03  -6.434808e+02
  -2.999446e+02  -1.069212e+03
   5.173139e+02  -8.735588e+02
   5.260330e+02  -3.872784e+02
   1.903795e+02   3.001053e+01
  -9.898249e+01   6.498712e+01
  -7.915941e+01  -2.330083e+02
   1.702030e+02  -3.534722e+02
   3.296831e+02  -4.622890e+01
   2.251832e+02   1.948935e+02
   1.316124e+02   2.817441e+02
  -1.524114e+02   1.696489e+02
  -2.056939e+02  -1.436383e+02
   3.542272e+01  -2.410248e+02
   1.978901e+02  -4.680461e+01
   1.373466e+02   1.827506e+02
   3.941100e+01   3.826338e+02
  -2.530232e+02   2.521769e+02
  -3.187060e+02  -9.775701e+01
  -1.356812e+02  -1.452211e+02
   2.611759e+01  -1.560680e+02
   2.320786e+01  -1.311987e+02
  -1.482624e+02  -8.969120e+01
  -8.432799e+01  -2.247658e+02
   4.954847e+01  -2.613361e+02
   3.013082e+02  -1.434466e+02
   2.567485e+02   1.442223e+02
   7.924152e+01   1.472812e+02
  -2.035094e+02   4.511205e+01
  -2.518173e+02  -1.308208e+02
  -6.292482e+01  -1.573379e+02
   1.609918e+02  -1.484761e+02
   2.365562e+02  -7.672238e+01
   1.884399e+02   6.028376e+01
   8.687831e+01   1.413183e+02
   4.474077e+01   7.464454e+01
   1.242163e+02  -6.167041e+01
   1.116023e+02  -3.974683e+01
   7.917963e+01   1.179064e+02
  -5.167382e+01   2.058579e+02
  -1.272507e+02   2.050698e+02
  -1.580398e+02   1.300539e+01
  -1.690892e+01  -7.646469e+01
   1.050315e+02  -1.144997e+02
   7.730846e+01   1.144708e+02
  -1.956362e+02   2.555321e+02
  -2.578485e+02  -3.092810e+00
  -2.991480e+02  -2.366865e+02
  -3.917486e+01  -2.022774e+02
   1.449642e+02  -1.331399e+02
   2.525648e+02   1.080842e+01
   1.755736e+02   1.190573e+02
   7.758224e+01   3.843282e+01
  -1.852453e+02   2.912682e+01
  -1.599302e+02   3.382108e+01
  -9.716066e+01   1.649551e+01
   4.078526e+00   8.513259e+00
  -2.400510e+01  -1.392928e+01
  -1.394093e+02  -5.103115e+01
  -1.066476e+01  -7.285523e+01
  -1.581158e+01  -1.640674e+02
   2.053687e+02  -1.131925e+02
   1.365302e+02   5.803447e+01
  -3.939662e+01   1.451109e+02
  -1.932830e+02   2.132685e+02
  -2.306302e+02   1.096509e+02
  -1.474172e+02  -1.277941e+02
   2.479383e+01  -2.293248e+02
  -1.771762e+01  -1.935734e+02
   7.865175e-01  -1.671940e+02
   4.744381e+01  -5.684335e+01
   6.331072e+01  -6.855396e+01
   1.435468e+02   1.714757e+00
   1.158327e+02   1.117292e+02
   8.583976e+01   1.449285e+02
  -7.873183e+01   2.414838e+01
  -1.121283e+02  -2.823440e+01
   3.414463e+00  -1.340370e+02
   3.730513e+01  -1.664863e+02
   1.228721e+02  -3.661759e+01
   1.858238e+02   9.545224e+01
   9.465899e+01   1.552683e+02
  -4.560487e+01   1.340250e+02
  -8.003158e+01   1.050176e+02
  -1.154949e+02  -6.929369e+00
  -1.051570e+02   4.822082e+01
  -1.967495e+02  -3.370079e+00
  -3.188691e+02  -6.469268e+01
  -1.694154e+02  -1.726287e+02
  -1.534705e+00  -2.883965e+02
   2.339671e+02  -1.914935e+02
   2.872158e+02  -7.040240e+01
   1.624834e+02   7.505513e+01
   4.940610e+01   8.496419e+01
  -3.378627e+01   6.146800e+01
   9.528636e+00   7.447849e+01
   1.111152e+02   2.078052e+01
   6.879984e+01   5.771094e+01
  -2.898875e+01  -1.118989e+01
  -3.312299e+01   3.017173e+01
  -4.350903e+01  -6.346788e+01
   1.395474e+01  -5.312721e+01
   5.943698e+01  -1.410170e+01
   6.025179e+01   9.215128e+01
  -1.533048e+01   2.111786e+02
  -1.278049e+02   1.601319e+02
  -2.549071e+02  -4.020098e+01
  -1.498640e+02  -1.781938e+02
  -4.265341e+01  -1.818187e+02
   1.319830e+02  -1.217082e+02
   4.913267e+01   5.966578e+01
  -7.248888e+00   3.890650e+01
  -5.513852e+01  -2.644228e+01
   2.552257e+01  -7.572884e+01
   9.085984e+01  -5.416629e+01
   8.002550e+01   3.854661e+01
   6.691379e+01   9.059493e+00
  -5.482363e+01   2.738728e+01
  -1.593373e+01  -1.398059e+02
   7.034840e+01  -1.243539e+02
   1.899314e+02   1.592339e+01
   1.932534e+02   1.439561e+02
  -1.585945e+01   2.111659e+02
  -1.219733e+02   1.778271e+02
  -1.891746e+02   3.828424e+01
  -7.311737e+01  -6.494974e+01
   6.565239e+01   4.290165e+00
   5.810304e+00   8.762967e+00
  -4.253454e+01   1.295393e+01
  -6.874962e+01   2.211489e+01
  -1.158691e+02  -5.862548e+01
  -3.385782e+01  -1.283039e+02
   5.020253e+01  -1.428236e+02
   7.940934e+01   8.347840e+01
  -7.456964e-01   3.196749e+01
   2.415878e+01   3.721719e+01
  -4.493131e+01  -2.990392e+01
   1.526215e+01  -7.832613e+01
   1.017605e+02  -2.750429e+01
   5.858888e+01   8.370080e+01
   1.947353e+01   1.122560e+02
  -1.105394e+02   8.454222e+01
  -1.258992e+02  -3.124970e+01
  -8.623582e+01  -6.312186e+01
   4.990289e+01  -4.560206e+01
   2.436346e+01  -4.181273e+01
  -5.078466e+01   5.441350e+01
   2.635405e+01   7.787229e+00
  -2.672512e+01  -4.260462e+01
   8.183438e+01  -2.731773e+00
   7.850510e+01   1.945430e+01
   2.254233e+00   1.319629e+02
  -1.306833e+02   1.221148e+02
  -1.150486e+02   5.185169e+01
  -1.310693e+02  -1.251889e+02
   2.560742e+01  -6.947115e+01
   9.093265e+01  -1.025733e+02
   1.002301e+02  -4.259093e+01
   1.113248e+02   2.902993e+01
   5.541922e+01  -5.116727e+01
   3.034600e+01  -1.005533e+01
   7.134568e+01   1.734368e+01
   1.438666e+01   2.516188e+01
  -2.354903e+01   2.464686e+01
  -6.587692e+01  -3.067624e+00
  -8.481210e+01  -6.774182e+01
  -1.825805e+01  -2.960829e+01
   1.174596e+02  -6.965488e+01
   1.642483e+02   4.658476e+01
   1.873409e+01   1.698175e+02
  -8.432802e+01   8.177120e+01
  -1.445271e+02   5.860878e+01
  -1.460825e+02  -8.542191e+01
  -3.767338e+01  -9.351150e+01
  -4.850188e+01   1.884310e+00
   2.812801e+01  -7.030774e+01
  -2.939973e+00  -8.696213e+01
  -1.987151e+01  -3.983832e+01
   9.027434e+01  -6.124425e+01
   4.703990e+01   1.753654e+01
   4.644859e+01   1.223388e+01
  -4.070918e+01   1.954507e+02
  -6.230942e+01   7.430155e+01
  -7.827086e+01   6.397292e+00
  -7.503587e+01   2.160997e+01
  -1.537046e+01  -9.266034e+01
   2.010372e+01   5.963364e+00
   4.522045e+01  -4.199024e+01
  -6.654032e+01   5.548376e+01
  -5.030549e+01   4.673841e+01
  -1.312965e+01   1.924122e+01
   7.716918e+01   1.145369e+01
   7.129086e+00   3.738885e+01
  -3.633285e+01  -3.162029e+01
  -1.547374e+02   2.108105e+01
  -6.113296e+01  -1.036771e+01
   4.140115e+01  -9.986280e+01
   1.247478e+02  -4.632788e+01
   1.307314e+02  -6.877557e+01
   5.221433e+01  -3.235329e+01
  -4.700220e+01   2.631704e+01
  -6.598412e+01  -3.775163e+01
   5.486189e+00  -9.971851e+01
  -4.346191e+00  -6.318383e+01
   8.323226e+01  -1.547950e+00
  -1.085579e+01   4.071365e+01
   3.012234e+01   5.289946e+01
   4.994177e+01   1.200646e+01
   6.293127e+01   2.784920e+01
   2.748558e+01   6.622074e+01
  -2.843854e+01   1.209863e+02
  -9.439577e+01   7.182939e+01
  -9.227200e+01   2.620297e+01
  -1.150487e+02  -7.787888e+01
   5.393786e+01  -1.074982e+00
   7.241316e+01  -7.730026e+01
   9.636709e+01   1.807067e+01
  -5.621898e+01   1.688599e+01
  -4.864556e+01   6.303653e+01
  -5.490346e+01  -5.120977e+01
   4.956459e+01  -9.720985e+01
   1.073510e+02  -5.260755e+00
   6.687288e+01   3.736626e+00
   5.352963e+01   1.086935e+02
  -4.040502e+01   3.776086e+01
  -4.552707e+01   4.124102e+01
   5.464842e+01  -5.207899e+01
   3.368538e+01   2.208324e-01
  -7.605423e+00   6.492814e+01
  -5.354276e+01   6.092507e+01
  -4.766270e+01   4.411624e+01
  -1.807165e+02  -8.503835e+01
  -2.033467e+01  -1.531094e+02
   4.183762e+01  -1.615392e+01
   9.386534e+01   3.294067e+00
   3.388340e+00   6.768374e+01
  -9.025306e+00   5.747335e+01
  -3.742462e+01  -4.355625e+01
  -4.431444e+01  -2.572807e+01
   5.079066e+00  -2.887662e+01
   3.691196e+01   1.871476e+00
  -5.476399e+01   1.195802e+01
  -2.848931e+01  -1.114684e+01
  -1.125657e+01  -1.095298e+02
   2.560353e+01   7.699829e+00
   5.608340e+01   1.363452e+01
   7.339859e+01   9.731636e+01
  -1.620089e+01   6.101146e+00
  -6.411846e+01   2.006693e+01
  -4.882774e+00   6.111865e+00
   1.489272e+01   6.604376e+01
   6.158540e+00   1.679937e-01
   9.907037e+00   1.391741e+01
   1.988196e+01  -1.233311e+01
  -3.725810e+01   1.335402e+01
   2.893854e+01  -1.965918e+01
   2.710890e+01  -1.599560e+01
  -6.936106e+00   6.630370e+01
  -9.026118e+01   3.491828e+01
  -3.971703e+01   3.000768e+01
  -1.028125e+02  -4.805621e+01
  -1.616367e+01  -1.021347e+02
   1.056405e+01  -1.008765e+02
   2.508918e+01  -5.661121e+01
   8.916296e+01  -1.208564e+00
  -2.677795e+01   5.473288e+01
   2.496844e+01  -1.223636e+01
   5.617489e+01   1.372057e+01
   8.652340e+01   9.444188e+01
   2.500920e+01   1.682495e+01
  -8.666320e+00   3.160332e+01
  -9.092056e+01  -4.642903e+01
   5.978857e+00  -6.042555e+01
  -1.618686e+01  -2.907379e+01
   7.061498e+01   2.418357e+01
   7.107861e+01   2.274570e+01
  -3.520653e+00   6.880636e+01
  -1.109287e+01   2.611703e+01
  -8.479094e+01  -2.283767e+01
  -5.706990e+01  -4.318174e+01
   3.041866e+00  -3.062717e+01
   8.316235e+01  -3.196372e+01
  -6.677815e+01  -2.709338e+01
  -5.647455e+01   1.414399e+01
  -3.235142e+01   8.671994e+00
  -3.049077e+01  -1.013224e+02
   5.670529e+01  -4.726194e+01
   6.160910e+01   5.755442e+01
  -3.043532e+01   8.239979e+01
  -9.692078e+01   8.017018e+01
  -7.360606e+01   1.530313e-01
  -3.395489e-01  -8.452002e+00
  -1.832637e+01   4.353337e+01
  -2.787218e+01   4.077445e+01
  -3.094305e+00   2.351317e+01
   2.183482e+00   3.938205e+01
   2.074127e+01   2.740818e+01
   2.738464e+01  -9.274387e+00
   3.625034e+00  -5.002958e+01
  -2.650371e+01  -7.230813e+00
   2.299596e+01   7.978603e+00
  -8.223725e+00  -5.134728e+01
   1.100495e+01  -3.841215e+01
   6.913801e+00  -3.250881e+01
   6.005110e+01   4.530212e+01
  -1.830022e+01   3.181861e+01
  -6.161690e+01   1.828083e+01
  -6.456325e+01  -2.313757e+01
   1.442082e+01  -9.841678e+01
   6.467117e+00  -3.534363e+01
   4.126269e+01  -3.079457e+01
   2.459679e+01   5.416471e+01
  -1.945222e+01  -1.522306e+01
  -2.714864e+01   1.409071e+01
  -3.588386e+00   5.276847e+01
   4.394188e+01  -3.871052e+00
  -3.475376e+01  -2.227365e+01
   6.591361e+01   6.037615e+01
  -3.828750e-01   1.290972e+01
