
 $NMID
 id='ANONYMOUS ', fmtdat='(2E16.6)'
 volume=1.0
 tramp=1.0
 $END
   2.035828e+03   5.838443e+01
   1.473952e+03   9.690692e+02
   2.973245e+02   1.344656e+03
  -6.935229e+02   1.046470e+03
  -7.171358e+02   3.711114e+02
  -2.242888e+02  -5.679420e+01
   1.442146e+02  -5.204454e+01
   7.708055e+01   2.586982e+02
  -2.259658e+02   3.475106e+02
  -4.393797e+02   1.197166e+02
  -3.865688e+02  -2.764356e+02
  -8.951760e+01  -5.009537e+02
   1.047542e+02  -1.824326e+02
   1.655177e+02   2.158847e+02
  -3.818327e+01   3.668493e+02
  -2.147257e+02   6.440639e+01
  -2.758906e+02  -2.852436e+02
   9.469416e+01  -4.883697e+02
   3.383606e+02  -2.808670e+02
   3.210996e+02   7.527396e+01
   1.404898e+02   2.563457e+02
  -5.550316e+01   1.955950e+02
  -3.406516e+01   7.294685e+01
   1.714774e+02   1.298151e+02
   1.703680e+02   2.630416e+02
  -5.635643e+01   2.203645e+02
  -3.905871e+02   7.580858e+01
  -3.645431e+02  -1.899591e+02
  -1.344187e+02  -1.599058e+02
   2.171141e+02  -3.849524e+01
   2.707232e+02   9.766380e+01
   7.313972e+01   2.364556e+02
  -2.181937e+02   2.124946e+02
  -3.204394e+02   1.190070e+02
  -1.833733e+02  -1.149711e+02
  -1.023561e+02  -1.995330e+02
  -9.951610e+01  -9.894626e+01
  -6.031981e+01   3.796852e+01
  -1.600591e+02   1.919214e+01
  -6.886814e+01  -1.083620e+02
   1.050381e+02  -2.646202e+02
   1.833630e+02  -2.946973e+02
   1.880632e+02   5.377142e+00
   4.974154e+01   1.590466e+02
  -3.775629e+01   4.428464e+01
  -6.162173e+01  -1.790900e+02
   7.418279e+01  -2.300396e+02
   2.888345e+02  -3.913770e+00
   2.861254e+02   2.817923e+02
   8.537405e+01   3.616308e+02
  -1.900089e+02   1.898013e+02
  -3.302074e+02  -5.673074e+01
  -2.153606e+02  -1.507362e+02
   3.489016e+01  -1.329406e+02
   1.634883e+02  -9.403338e+01
   1.302428e+02  -9.353563e+00
   3.051498e+01   2.713615e+01
   7.367687e+00  -1.098978e+01
   6.647669e+01   5.085909e-01
   1.620764e+02   4.946213e+01
   1.389816e+02   1.201229e+02
  -8.237974e+01   1.739188e+02
  -2.520763e+02   1.724391e+02
  -2.595518e+02  -8.322258e+01
  -3.515055e+01  -3.543332e+02
   1.908934e+02  -3.350826e+02
   2.790134e+02  -7.807983e+01
   1.493390e+02   1.072990e+02
   5.004394e+01   2.207212e+02
  -4.142713e+01   2.568372e+02
  -3.091207e+00   1.509284e+02
  -5.116176e+00   1.226486e+02
  -1.426147e+02   1.591283e+02
  -2.213514e+02   1.302835e+01
  -1.279571e+02  -1.692803e+02
  -2.899286e+01  -2.162793e+02
   9.838986e+01  -1.354130e+02
   1.601045e+02   1.676451e+01
   1.524089e+02   1.512819e+02
   3.296977e+00   1.354940e+02
  -1.246656e+02  -4.253385e+00
  -2.386070e+02  -1.013907e+02
  -5.869171e+01  -2.060937e+02
   6.047077e+01  -2.035059e+02
   9.492534e+01  -1.398433e+02
   8.748211e+01  -7.115338e+01
   1.336509e+02  -9.078585e+01
   2.973421e+02  -1.548138e+01
   3.517312e+02   7.422820e+01
   2.260129e+02   2.454902e+02
  -6.316947e+01   3.234393e+02
  -3.313161e+02   1.928675e+02
  -4.003277e+02   8.239976e+01
  -2.571704e+02  -7.908125e+01
  -2.694365e+01  -1.597152e+02
   4.429795e+01  -9.015218e+01
  -2.504993e+01  -8.851860e+01
  -1.143488e+02  -3.444280e+01
  -8.218669e+01  -7.581337e+01
  -2.922479e+00  -1.351648e+02
   8.260755e+01  -6.999616e+00
   1.028363e+02  -3.610112e+01
   5.870024e+01   3.434967e+01
  -1.221596e+02   6.689449e+00
  -1.347659e+02  -1.916396e+02
   1.053523e+02  -2.694864e+02
   1.996639e+02  -1.841049e+02
   2.828500e+02   5.704596e+01
   1.825484e+02   2.161793e+02
   4.453604e+01   2.189504e+02
  -4.829416e+01   1.274378e+02
  -1.010141e+02  -2.615413e+01
  -1.809649e+01  -1.131403e+01
   5.383519e+00   2.217826e+01
  -3.370497e+01   4.262026e+01
  -6.324423e+01   1.026371e+02
  -1.602352e+02  -3.536081e+01
  -6.301979e+00   9.826040e+00
   2.027013e+01   7.195810e+01
  -2.299365e+01   1.129214e+02
  -1.422441e+02   7.128859e+01
  -2.527984e+02  -6.125534e+01
  -1.863904e+02  -1.701801e+02
  -8.393452e+00  -2.614946e+02
   2.006038e+02  -1.383792e+02
   2.770101e+02  -8.466344e+01
   3.026650e+01  -4.265581e+00
   1.168389e+00   6.930881e+01
   1.898276e+01  -3.072974e+01
   2.973890e+01  -1.105910e+02
   1.123976e+02   1.580194e+00
   1.758730e+02   8.123168e+01
   4.455453e+01   1.502217e+02
  -8.171052e+01   9.476336e+01
  -7.465540e+01  -1.350156e+01
   1.660331e+00  -6.056161e+01
   6.919593e+01  -1.258007e+01
   8.118078e+00   1.257229e+02
  -3.891794e+01   1.290206e+02
  -1.451565e+02  -7.786638e+01
  -1.201267e+02  -1.777990e+02
   5.853948e+01  -1.287850e+02
   1.098360e+02  -1.215819e+02
   6.587855e+01  -3.143013e+00
  -3.442827e+01   8.996540e+01
   8.365570e+00   5.695479e+01
  -4.735265e+01   9.503456e+00
   9.499573e+00  -2.757868e+01
   6.539591e+01   3.274279e+00
  -2.277472e+01   2.365661e+01
  -1.304725e+02  -1.555420e+01
  -1.399917e+02  -5.581302e+01
  -1.108808e+01  -1.498431e+02
   1.305259e+02  -1.190573e+02
   1.652745e+02   5.213447e-02
   1.333241e+02   1.204108e+02
   3.357687e+01   9.625003e+01
  -1.912166e+01   1.543892e+02
  -6.348282e+01   1.535992e+01
   2.847965e+01   2.756481e+01
  -7.109503e+00  -2.066080e+01
  -4.434304e+01   2.294876e+01
  -5.106064e+01   5.963385e+01
  -1.997193e+01  -3.088787e+01
   2.937565e+01  -7.395448e+01
   6.137779e+01  -1.441802e+02
   1.299057e+02   8.589844e+01
  -3.396359e+01   8.972338e+01
  -1.862535e+02   4.600939e+01
  -1.569134e+02  -4.608521e+01
  -6.294678e+01  -1.162753e+02
   1.240682e+02  -1.578922e+02
   2.295117e+02  -6.666307e+01
   1.919735e+02   7.061891e+01
   8.723169e+01   1.374600e+02
  -7.512350e+00   1.144702e+02
  -6.219876e+01   5.680399e+01
  -2.889379e+01   7.448781e+01
  -7.286099e+01   1.108867e+02
  -3.399052e+01   6.054740e+01
  -9.178936e+01  -1.551023e+01
  -6.757816e+01  -1.636142e+02
  -4.490323e+01  -2.071183e+02
   1.591244e+02  -1.650160e+02
   1.068419e+02   2.216811e+00
   8.831125e+01   1.146605e+02
  -4.386451e+01   1.481095e+02
  -5.849839e+01   1.260424e+01
  -1.549073e+02  -5.021053e+01
   1.570947e+01  -3.857736e+01
   5.322481e+01  -4.997555e+01
   3.417156e+00   4.039022e+01
  -9.414189e+01   1.298115e+01
  -4.745035e+01  -7.826164e+01
   4.333681e+00  -1.943016e+01
   1.464256e+02  -1.390559e+01
   1.225655e+02   3.979770e+01
   4.553399e+01   6.552171e+01
  -1.051898e+02   4.794857e+01
  -7.845513e+01  -4.929923e+01
   7.534995e+00  -2.786642e+01
   4.579611e+01  -6.817906e+01
   6.432879e+01   6.351811e+01
   2.475818e+01   4.494157e+01
   3.692610e+01   7.497593e+01
  -1.170923e+00   4.193918e+01
  -8.125770e+01   3.321713e+00
  -8.880854e+00   9.546809e+00
  -2.574037e+01   5.391299e+01
  -1.035328e+02   9.007087e+00
  -6.372439e+01  -1.120294e+01
   3.133999e+01  -1.630327e+02
   9.590402e+01  -1.075197e+02
   2.022318e+02  -7.239274e+01
   7.788902e+01   1.239506e+02
  -2.503980e+00   8.640821e+01
  -3.170271e+01   7.582889e+01
  -7.395617e+01  -1.346476e+01
   1.967363e+01  -4.796607e+01
   6.110114e+01   5.131583e+01
   2.237805e+01   1.057720e+02
  -1.312928e+02   4.440348e+01
  -1.597740e+02   1.374722e+01
  -1.647514e+02  -3.809325e+00
  -8.071846e+00  -5.573719e+01
   4.704929e+01  -5.724029e+01
   2.808462e+01  -1.237234e+01
  -6.248200e+01   3.250820e+01
  -7.143767e+01  -5.535343e+01
   1.340625e+01  -8.781789e+01
   4.715356e+01  -1.087159e+02
   1.077307e+02  -3.065522e+01
   1.187539e+02   5.845789e+01
  -2.561789e+01   1.045386e+02
  -5.309204e+01   7.352827e+01
  -9.800910e+01  -4.228286e+01
  -7.487755e+01  -1.294022e+02
   2.154665e+01  -7.073354e+01
   4.429777e+01  -3.900590e+00
   1.126822e+01   7.923742e+01
   4.162863e+01  -7.641466e+01
   6.002395e+01  -2.369551e+01
   3.850494e+01  -1.756754e+01
   2.134057e+01   4.800406e+01
   7.891723e+01  -2.045091e+01
  -5.310865e+01   3.862726e+00
  -1.363174e+02  -9.290296e+01
  -1.210973e+02  -7.620781e+01
   2.608420e+01  -2.317748e+01
   7.133480e+01   7.364450e+00
   1.401784e+02   8.485401e+00
  -3.009752e+01   2.947895e+01
  -2.601722e+01   4.196416e+01
   1.650743e+01   5.000162e+01
  -1.923924e+01  -8.423726e+00
  -5.017801e+01   2.171813e+01
  -2.874487e+01   2.041284e+01
  -5.264284e+01  -4.172236e+01
  -1.271953e+01  -7.903771e+01
   9.060724e+01  -1.217858e+02
   1.760728e+02  -7.473199e+01
   3.932485e+01   2.882379e+00
  -1.873947e+01   6.895145e+01
  -6.912298e+01   1.153994e+02
  -5.819243e+01   2.663812e+01
  -8.301831e+01  -1.664760e+01
  -2.554487e+01   2.533178e+01
   2.090126e+01  -6.029799e+01
   4.721652e+00   7.972647e+00
   1.693573e+01  -2.923123e+01
   8.150428e+01  -5.103377e+01
   6.304603e+01  -4.007700e+01
   1.508619e+02  -1.728585e+01
   9.850267e+01   5.439808e+01
   2.743904e+01   8.485118e+01
  -3.731531e+01   8.721819e+00
  -1.122448e+02  -5.602169e+01
   9.150309e+00  -5.600394e+01
   8.982497e+01  -2.921218e+01
   6.222602e+01  -1.916645e+01
   3.361662e+01   5.185526e+01
  -6.078923e+01   6.454310e+01
  -2.748401e+01   3.797829e+01
   2.231206e+01   1.504202e+01
   1.735559e+01  -1.781981e+01
   2.361878e+01   2.310158e+00
  -6.355695e+01   3.204968e+01
  -1.086957e+02   2.784662e+01
  -6.301340e+01  -4.897032e+01
  -8.176715e+00  -3.630955e+01
   4.183180e+01  -3.403882e+01
   8.648193e+01  -8.581180e+01
  -1.913201e+01   3.519179e+01
  -6.015537e+00   5.488582e+01
  -3.036535e+01  -2.769715e+01
  -1.190306e+01  -2.638407e+01
  -1.114608e+01  -9.400813e+00
  -1.059235e+01  -2.885422e+01
   4.590080e+01  -3.434692e+01
   3.295784e+01  -2.122875e+01
   4.172997e+00   4.152584e+01
   3.736568e+01   1.073873e+01
  -3.034852e+01   4.081197e+01
   7.815544e+01   9.288974e+00
  -8.760012e+01   3.444638e+01
   2.778085e+01  -5.701602e+01
  -1.375713e+01  -8.080927e+01
   5.627500e+01   1.479934e+01
   3.744692e+01  -4.468473e+01
   5.783850e+01  -5.232187e+00
  -5.671854e+01  -6.285553e+00
  -2.146588e+01  -1.049830e+01
  -2.372572e+01   6.565899e+00
  -5.238730e+00  -8.412985e+01
   5.355226e+01  -1.365717e+01
   5.976909e+01  -2.650663e+01
  -3.931357e+00   3.474087e+01
   9.591530e+00  -9.693912e+00
   8.722573e+00   1.660147e+00
   6.045597e+01  -2.008126e+01
