
 $NMID
 id='ANONYMOUS ', fmtdat='(2E16.6)'
 volume=1.0
 tramp=1.0
 $END
   1.648440e+03   3.454645e+01
   1.178035e+03   7.585452e+02
   1.078133e+02   1.035977e+03
  -5.501298e+02   7.340908e+02
  -4.873988e+02   2.474002e+02
  -1.641970e+02  -1.854725e+00
   9.950927e+01  -2.052285e+01
   3.115572e+01   2.478006e+02
  -1.722713e+02   2.626474e+02
  -3.294125e+02   1.097020e+02
  -2.646845e+02  -1.732323e+02
  -7.212715e+01  -3.066059e+02
   7.593977e+01  -8.399600e+01
   6.745140e+01   1.720958e+02
  -3.543801e+01   2.471561e+02
  -1.922224e+02  -7.991870e+00
  -1.889006e+02  -2.694234e+02
   2.684127e+01  -3.439879e+02
   1.957704e+02  -2.068747e+02
   2.134170e+02   4.305932e+01
   3.304273e+01   1.879249e+02
  -5.002013e+01   1.428287e+02
  -4.781872e+01   5.997650e+01
   1.769973e+02   6.575337e+01
   1.542541e+02   1.830533e+02
  -9.470259e+01   1.441531e+02
  -2.830144e+02  -6.275657e+01
  -3.651349e+02  -7.776650e+01
  -8.832497e+01  -1.966508e+02
   1.454891e+02  -1.006769e+02
   2.640162e+02   8.390261e+01
   8.515804e+01   1.792140e+02
  -1.503831e+02   1.881959e+02
  -2.048872e+02   3.669370e+01
  -9.175983e+01  -7.215291e+01
  -3.297525e+01  -1.277660e+02
   1.233193e+01  -3.168468e+01
   5.278624e+00   6.248414e+00
  -3.452804e+01   2.756918e+01
  -1.108439e+02  -9.484668e+01
   4.586905e+00  -2.076058e+02
   1.393568e+02  -2.075885e+02
   1.239130e+02   1.862517e+01
   6.518451e+01   1.261322e+02
  -9.628046e+01   2.931635e+01
  -8.173266e+01  -8.226063e+01
   9.009616e+01  -1.454931e+02
   2.711033e+02  -4.946816e+01
   3.293632e+02   1.353263e+02
   8.913499e+01   2.868222e+02
  -1.590776e+02   1.247406e+02
  -2.377935e+02  -3.272473e+01
  -1.286200e+02  -1.069217e+02
  -5.613760e+00  -1.204977e+02
   1.330431e+02  -7.538367e+01
   1.423597e+02  -2.591097e+01
   7.468357e+00   1.817936e+01
  -4.469304e+01  -3.112361e+01
   1.481165e+02  -1.950571e+01
   1.151921e+02   1.510737e+01
   6.138446e+01  -5.572925e+00
  -1.052682e+02   1.506233e+02
  -1.421835e+02   1.049673e+02
  -1.089469e+02  -4.597185e+01
   1.384398e+01  -1.696622e+02
   9.418971e+01  -1.662535e+02
   1.700411e+02  -7.786301e+01
   1.297568e+02   4.284971e+01
   1.740001e+01   1.803404e+02
  -5.265340e+01   1.476384e+02
  -1.847832e+01   4.859507e+01
   6.993918e+01   5.973454e+01
  -6.020338e+01   1.029767e+02
  -1.384172e+02   4.194685e+01
  -1.558705e+02  -8.773505e+01
  -9.344427e+01  -1.536064e+02
   5.681331e+01  -7.429369e+01
   1.382008e+02   5.808645e+01
   8.666101e+01   1.248772e+02
  -3.710601e+01   1.747505e+02
  -1.831817e+02   3.512495e+01
  -1.579544e+02  -6.160480e+01
  -8.264630e+01  -1.140625e+02
  -2.554833e+00  -1.405892e+02
   1.051208e+02  -9.841448e+01
   2.846808e+01  -2.844272e+01
   1.016829e+02  -4.616604e+01
   1.041007e+02  -5.315538e+01
   2.782684e+02   6.904826e+01
   1.639514e+02   1.324015e+02
  -4.645343e+01   2.372274e+02
  -1.619163e+02   1.841155e+02
  -2.295619e+02   7.328421e+01
  -1.469360e+02  -3.178761e+01
   2.883255e+01  -1.221360e+02
   4.502917e+01  -1.092187e+02
  -7.066943e-01  -4.190137e+01
  -8.553499e+01  -2.027648e+00
  -7.779061e+01  -5.943134e+01
  -8.733455e+00  -7.556068e+01
   1.438927e+02   4.799666e+01
   4.838927e+01   4.782098e+01
  -3.310443e+01   8.028092e+01
  -1.026644e+02  -3.314136e-02
  -9.871996e+01  -2.033714e+02
   3.866667e+00  -2.499973e+02
   1.093339e+02  -9.600090e+01
   1.443536e+02   4.225389e+01
   1.515909e+02   1.988513e+02
   6.064389e+01   1.182187e+02
  -7.572030e+01   9.011686e+01
  -6.751773e+01   3.793076e+01
   1.134046e+01  -2.338108e+01
  -2.557104e+00   2.671714e+01
  -8.462548e+01   4.737610e+01
  -6.750403e+01   6.147694e+01
  -5.202450e+01  -4.280655e+01
  -3.495235e+01  -3.290873e+01
   4.132995e+01   5.410938e+01
   6.842128e+01   1.008643e+01
  -2.075687e+01   3.853718e+01
  -2.258168e+02   1.057057e+01
  -1.103524e+02  -6.998931e+01
  -2.314019e+01  -1.765981e+02
   1.157252e+02  -1.269731e+02
   1.240043e+02  -3.912364e+01
   2.796423e+01  -2.428660e+01
  -3.474815e+01   4.643515e+01
  -2.949208e+01  -3.779971e+01
  -9.525374e+00  -3.711387e+01
   5.796473e+01   2.060936e+01
   6.520843e+01   7.067674e+01
   9.871697e+00   1.083927e+02
  -4.821404e+01   4.646858e+01
  -6.171426e+01  -1.728836e+01
  -3.664455e+01  -4.123821e+01
  -1.248697e+01   6.047695e+01
  -4.503942e+00   6.389782e+00
  -8.114851e+01   9.379904e+01
  -1.292228e+02  -1.586027e+01
  -5.744091e+01  -4.545804e+01
   2.915937e+01  -1.392399e+02
   1.168364e+02  -6.283739e+01
   1.048449e+02   3.246838e+00
   4.112152e+01   1.015379e+02
  -6.485118e+01  -9.619067e-01
  -4.237200e+01   1.770143e+01
  -2.821774e+01  -3.062379e+01
   3.852061e+01  -4.634986e+01
   5.939196e+01   5.894617e+01
  -4.116005e+01  -1.988568e+01
  -3.014599e+01  -8.593304e+01
   1.638617e+01  -1.024226e+02
   1.562436e+02  -1.391843e+02
   1.105594e+02   2.882409e+01
   8.078131e+01   9.296104e+01
  -1.627025e+01   1.000406e+02
  -1.196095e+02   5.140496e+01
  -9.318467e+01   6.793802e+00
  -7.454824e+01  -1.233378e+01
  -5.487042e+01  -3.028236e+00
   2.008551e+01   4.513099e+00
  -4.229176e+01   1.820169e+01
  -3.231140e+01   1.304139e+01
   5.838110e+01  -7.563115e+01
   6.816457e+01  -7.428465e+01
   9.953020e+01   5.038089e+01
   3.792915e+00   1.237221e+02
  -9.920563e+01   4.038276e+01
  -7.595932e+01  -2.941664e+01
  -2.883539e+01  -1.405481e+02
   1.429118e+01  -1.158499e+02
   1.576559e+02  -1.023731e+01
   1.257010e+02   5.828255e+01
   2.490014e+01   8.361122e+01
  -7.032885e+01   1.595443e+02
  -6.004577e+01   1.631101e+01
   3.449541e+00   7.335845e+01
   1.864281e+01   6.465345e+01
  -2.370811e+01   7.420340e+01
  -1.616053e+02  -5.769755e+01
  -1.528139e+02  -6.112032e+01
  -5.505277e+01  -1.920840e+02
   1.118395e+01  -1.409146e+02
   7.194677e+01   1.013971e+02
   1.170551e+02   3.492088e+01
  -7.616721e+00   7.251152e+01
  -8.697902e+01   9.016138e+01
  -5.667965e+01  -5.546695e+01
  -5.381344e+01  -5.859589e+01
  -8.620426e+00   8.505723e+00
   2.414520e+00  -4.117982e+01
   1.831177e+01   6.981489e+00
  -3.896557e+01  -3.588708e+01
   3.606198e+01  -4.899545e+01
   9.512206e+01   2.419318e-01
   6.231808e+01   8.349453e+01
  -8.159482e+01   3.267546e+01
  -8.307419e+01   9.051073e+01
  -2.721787e+01   5.033398e+01
  -3.728222e+01  -5.467319e+01
   4.136373e+01   7.284345e+00
   3.271778e+01   7.310458e+01
   6.844949e+01   7.607687e+01
  -2.262234e+01  -3.516917e+01
  -2.881912e+01   3.189547e+01
   8.394871e+00  -7.672434e+01
  -4.027292e+01  -1.892480e+01
  -3.637073e+01  -1.102683e+01
  -9.867876e+00   2.270649e+01
  -1.929121e+01  -6.068022e+00
   5.008964e+00  -1.073126e+02
   6.736132e+01  -1.545360e+02
   1.329434e+02  -4.879709e+01
   3.786172e+01   5.957979e+01
   4.553736e+01   5.217324e+01
  -6.762659e+01   4.859200e+01
  -3.004593e+01  -9.089158e+00
   7.772107e+01  -3.021796e+01
   1.064409e+02   7.100542e+01
   1.358939e+01   7.020827e+01
  -3.092378e+01   6.022434e+01
  -1.094895e+02   2.220122e+01
  -1.113753e+02  -1.258750e+01
   2.376027e+01  -3.841269e+01
   5.985438e+01  -1.950802e+00
   3.553431e+01   2.969617e+00
  -2.196545e+01   3.435402e+01
  -1.352600e+02  -8.514649e+01
  -7.355540e+01  -3.547238e+01
  -2.595257e+00  -1.453993e+02
   6.307274e+01  -3.282122e+01
   1.102099e+02   1.563215e+01
   6.175277e+01   1.346318e+02
  -6.167177e+01   9.620232e+01
  -2.899363e+01  -5.227326e+00
  -5.492055e+01  -8.254265e+01
  -1.245280e+01  -9.107052e+01
   2.381129e+01  -4.134986e+01
   3.360793e+00   5.555277e+01
   1.490968e+01   5.724695e+01
   5.902899e+00  -6.808766e+01
   3.944495e+01  -2.760144e+01
   5.603965e+01   1.588925e+01
  -1.753749e+01   4.746745e+01
  -4.357915e+01   2.718384e+01
  -9.689903e+01  -1.642474e+01
  -7.450725e+01  -1.240728e+01
  -2.416502e+01  -6.128593e+01
   6.076676e+01  -4.025775e+01
   4.029330e+01   3.713381e+01
   7.093493e+01   4.757602e+01
  -1.375572e+01   4.785311e+01
  -4.241706e+01  -2.342655e+01
  -4.737463e+00   1.250862e+01
   3.592389e+01   5.328139e+01
  -5.448162e+01  -1.886965e+01
  -6.321675e+01  -4.782075e+01
   2.288055e+01   9.050714e+00
   1.079601e+02  -7.891037e+01
   1.264129e+02   4.169314e-01
   1.152999e+02   4.967807e+01
  -1.510955e+00   4.137936e+01
  -6.358903e+01   7.460158e+01
  -5.596756e+01  -1.082213e+01
  -2.056459e+01  -8.704988e+00
   4.442028e+00  -2.185983e+01
   2.023663e+01   2.208590e+01
  -1.639351e+01   2.276645e+01
   3.179352e+01  -6.065502e+01
   1.281851e+01  -3.640013e+01
   5.472175e+00  -1.988946e+01
   7.799527e+01   2.453066e+01
   1.009354e+01   9.525947e+01
   4.521423e+01   4.734400e+01
   1.002269e+01  -4.728836e+00
  -4.180579e+01  -8.943631e+00
  -2.704667e+01  -4.951095e+01
   6.470952e+01  -3.724395e+01
   4.905606e+01  -4.691871e+01
   1.407904e+01   2.730145e+01
  -6.067208e+01   3.454080e+01
  -5.758576e+01  -1.153108e-01
   1.614330e+01  -1.195469e+01
   2.375146e+01   2.670968e+00
  -2.956953e+01   3.505780e+01
  -1.185211e+01   2.147768e+01
  -1.029037e+02   6.748995e+01
  -5.546566e+01   1.408247e+01
  -2.180169e+01   3.542756e+01
   2.639932e+01  -5.833027e+01
   3.350935e+01  -7.508283e+00
  -2.444491e+01   4.474912e+01
  -2.858929e+01   3.027313e+01
   8.080649e-01   3.476075e+01
  -2.856016e+01  -1.516497e+01
  -1.251678e+01  -1.546283e+01
   5.868792e+01  -3.176123e+01
   4.701146e+01   6.074821e+01
   6.460803e+00  -4.192038e+01
   6.554758e+01  -1.376186e+01
  -1.315660e+01  -2.858982e-01
   5.305230e+01  -3.406810e+01
  -1.788406e+01   8.170180e-01
   1.087692e+01   1.827490e+01
  -8.399023e+01  -5.237562e+01
  -1.051803e+01  -8.237230e+00
   3.118395e+01  -4.408178e+01
   4.480252e+00  -1.721358e+01
   3.394889e+00   3.457654e+01
   5.194272e+00   1.356854e+01
  -7.782018e+01  -4.289081e+01
   4.759706e+00  -7.542137e+01
   2.961311e+01  -3.688423e+01
   2.829046e+01  -1.244979e+01
  -5.090521e+00  -2.983094e+01
  -1.127019e+01   6.722219e+01
  -6.707492e+01   2.337497e+01
   4.010875e+01   1.900466e+01
   2.189603e+01  -4.441577e+01
