
 $NMID
 id='ANONYMOUS ', fmtdat='(2E16.6)'
 volume=1.0
 tramp=1.0
 $END
  -4.667581e+03   1.199991e+02
  -2.637803e+03  -2.887052e+03
   8.054701e+02  -3.007688e+03
   2.325795e+03  -8.611591e+02
   9.892752e+02   8.554300e+02
  -7.733721e+02   6.703813e+02
  -9.942564e+02  -4.438389e+02
   3.864062e+01  -1.226000e+03
   9.363227e+02  -8.872945e+02
   9.983275e+02   9.401845e+01
   5.213396e+02   9.308657e+02
  -2.440882e+02   9.917925e+02
  -6.860211e+02   1.638820e+02
  -3.806438e+02  -8.024103e+02
   2.981879e+02  -8.149741e+02
   6.589046e+02  -1.315937e+01
   2.517358e+02   6.744447e+02
  -3.854387e+02   6.884972e+02
  -6.840852e+02   2.913221e+01
  -4.331376e+02  -3.901894e+02
   4.252868e+01  -4.794234e+02
   2.911455e+02  -2.939068e+02
   2.624081e+02  -4.565186e+01
  -5.729638e+01   6.836846e+01
  -4.249536e+02  -9.700326e+01
  -2.784233e+02  -4.908150e+02
   3.742049e+02  -4.471344e+02
   8.805967e+02   9.603169e+01
   4.724041e+02   5.537228e+02
  -4.156608e+02   5.612393e+02
  -7.463628e+02  -1.110783e+02
  -3.708412e+02  -4.944107e+02
   3.651479e+02  -5.539825e+02
   5.758772e+02  -2.479232e+02
   4.728101e+02   2.118876e+02
   1.274466e+02   5.234975e+02
  -2.014753e+02   3.467644e+02
  -2.577416e+02  -1.401241e+02
   1.446566e+02  -5.095254e+02
   5.222589e+02  -2.838238e+01
   2.987863e+02   6.693293e+02
  -3.113477e+02   7.843218e+02
  -6.439972e+02  -3.193856e+01
  -3.657396e+02  -6.442731e+02
   2.546473e+02  -3.673607e+02
   4.310235e+02   2.988965e+02
  -2.002175e+01   5.073326e+02
  -5.346513e+02   1.379016e+02
  -6.285392e+02  -3.745273e+02
  -1.228667e+02  -6.576612e+02
   4.236707e+02  -3.833556e+02
   6.867284e+02   5.923443e+01
   3.909588e+02   4.504583e+02
  -1.417220e+02   4.274633e+02
  -5.148834e+02   1.037962e+02
  -2.578813e+02  -2.451379e+02
   2.021751e+02  -1.639386e+02
   1.659974e+02   1.628791e+02
  -1.947460e+02   1.693605e+02
  -4.446291e+02  -9.851565e+01
  -1.347430e+02  -3.238059e+02
   2.342987e+02  -2.534954e+02
   3.365440e+02  -9.480574e+01
   1.471937e+02   9.695511e+01
  -3.561415e+01   2.186816e+02
  -2.103794e+02   3.007243e+02
  -3.412653e+02   2.335051e+02
  -3.074023e+02  -1.450006e+02
  -7.367276e+01  -4.308410e+02
   1.275004e+02  -3.774069e+02
   1.197754e+02  -1.695430e+02
   3.599933e+01  -1.325941e+01
   9.561067e+00  -5.491107e+01
   1.714952e+02  -1.203465e+02
   2.980602e+02   7.329391e+01
   2.216333e+02   2.873174e+02
  -1.023840e+02   2.753134e+02
  -2.181253e+02   2.025387e+01
  -2.735795e+02  -2.727826e+02
   3.221158e+01  -3.367058e+02
   2.801029e+02  -1.216981e+02
   3.736885e+02   1.292925e+02
   2.274872e+02   3.718915e+02
  -8.568755e+01   3.145776e+02
  -2.314223e+02   1.236747e+02
  -1.566349e+02   4.669374e+01
  -6.166126e+01   4.361522e+01
  -2.298830e+02   3.378092e+01
  -3.451396e+02  -2.535210e+01
  -3.753468e+02  -2.711123e+02
  -1.912924e+01  -4.895701e+02
   3.635563e+02  -4.846738e+02
   5.257877e+02  -2.147018e+02
   4.005890e+02   1.073596e+02
   1.176806e+02   3.360094e+02
  -7.548377e+01   2.385855e+02
  -1.158419e+02   6.319468e+01
   1.155159e+02  -1.586420e+02
   2.463425e+02   5.752386e+01
   1.160173e+02   2.285355e+02
  -1.499303e+02   2.211671e+02
  -1.983803e+02  -7.587368e+01
   1.388098e+01  -1.774899e+02
   1.999649e+02  -7.889296e+01
   1.940985e+02   2.272143e+02
  -4.143410e+01   3.055148e+02
  -2.290473e+02   1.594194e+02
  -3.165408e+02  -6.125636e+01
  -2.778179e+02  -2.669082e+02
  -1.377627e+02  -2.578859e+02
   1.377038e+02  -1.596278e+02
   2.437166e+02  -1.725432e+01
   6.117477e+01   9.074836e+00
  -4.959923e+01   7.835623e+00
  -6.482557e+01  -1.360369e+02
   1.180813e+02  -9.432998e+01
   2.492362e+02  -3.537249e+01
   6.611024e+01   6.565455e+01
  -1.028702e+02   6.060559e+00
  -5.687263e+01  -1.078483e+02
   1.269883e+02  -6.839718e+01
   2.830168e+02   1.461889e+01
   2.406729e+02   1.061094e+02
   9.484614e+01   2.175622e+02
  -2.132451e+02   3.686993e+02
  -3.064839e+02   1.321657e+02
  -2.028030e+02  -1.403016e+02
   3.036999e+01  -1.010914e+02
   3.364666e+01  -9.490219e+00
  -6.419401e+01   7.893019e+01
  -2.244506e+02   9.386007e+01
  -2.256232e+02  -7.722061e+01
  -4.546407e+01  -2.085878e+02
   1.000709e+02  -1.773371e+02
   1.803450e+02  -7.370098e+01
   5.274995e+01   6.015916e+00
   2.198943e+01  -1.488038e+01
  -2.906601e+01  -8.464974e+01
   6.590571e+01  -7.208881e+01
   1.521314e+02  -3.378410e+01
   1.618418e+02   1.203711e+02
   2.188605e+01   2.622075e+02
  -1.753173e+02   1.338632e+02
  -1.936459e+02  -1.611472e+01
  -7.474995e+01  -1.199797e+02
   1.824003e+01  -1.457242e+02
   9.671765e+01  -6.345098e+01
  -2.596538e+01   2.321918e+01
  -2.275372e+01   2.672906e+01
   8.625342e+01  -1.577963e+01
   1.248021e+02   2.871167e+01
   6.424304e+01   7.750938e+01
   6.741705e+01   7.866064e+01
  -1.291928e+02   1.465900e+02
  -1.987930e+02   4.456802e+01
  -2.170120e+02  -1.360664e+02
  -4.340305e+01  -2.642055e+02
   6.720596e+01  -1.939151e+02
   1.579128e+02   3.782188e+00
   1.306997e+02   7.548596e+01
   1.766917e+01   6.185012e+00
   9.089717e+01   3.144393e+01
   9.274218e+01  -1.600946e+01
   3.275830e+00   2.270298e+01
  -5.089641e+01   1.449813e+02
  -7.951572e+01   7.352893e+01
  -1.244869e+02  -1.346000e+01
   3.045857e+00  -1.342546e+02
   1.771414e+02  -5.934326e+01
   1.329858e+02   7.755731e+01
   1.084731e+02   2.562721e+02
  -1.525257e+02   2.662434e+02
  -2.688609e+02   1.007437e+02
  -3.037278e+02  -6.317678e+01
  -1.075383e+02  -1.618359e+02
   3.474926e+01  -1.504950e+02
   1.377688e+02  -5.573202e+01
   6.610482e+01  -1.233192e+02
   3.214271e+01  -9.374723e+01
   8.203367e+01  -3.362880e+01
   1.146303e+02  -1.105276e+01
   1.684646e+02   1.541048e+02
   3.495064e+01   2.334718e+02
  -9.216518e+01   1.782681e+02
  -1.743794e+02   2.631063e+01
  -1.704779e+02  -1.269853e+02
  -2.280115e+01  -1.869975e+02
   7.915917e+01  -9.436679e+01
   2.642249e+01   1.350836e+00
  -4.076765e+01   3.502954e+01
  -3.460403e+01   3.278530e+01
   1.774084e+01   7.597131e+00
   7.202694e+01  -9.798571e+00
   4.498855e+01  -1.584341e+01
  -5.298425e+01   6.739731e+01
  -1.900305e+02   5.457074e+01
  -1.361047e+02  -6.315747e+01
  -1.888188e+01  -5.741194e+01
   2.851844e+01  -2.082486e+01
   1.486636e+02  -6.140898e+01
  -2.681949e+01   6.729987e+01
  -3.933387e+01   4.090208e+01
  -1.144885e+02  -3.493090e+01
   3.397280e+00  -7.203940e+01
   9.413349e+01  -1.061544e+01
   7.640460e+01  -1.329193e+01
   8.374721e+01   9.911113e+01
   8.655023e+01   5.571908e+00
   6.802273e+01   8.424486e-01
   1.119153e+02  -7.724234e+01
  -9.731515e+00   6.292083e+01
   4.831053e+01   9.852359e+01
  -9.769540e+01   1.491011e+02
  -1.920696e+02   1.235052e+01
  -1.067293e+02  -6.453745e+01
  -4.412989e+01  -5.292902e+01
   1.390007e+02  -1.064591e+02
   6.406952e+00   1.559465e+01
  -3.512509e+01  -1.876318e+01
  -1.400833e+02  -5.082838e+01
  -8.824521e+01  -1.234797e+02
   3.384209e+01  -1.284886e+02
   1.825644e+02  -5.059992e+01
   1.358398e+02   6.440958e+01
   5.632039e+01   6.025926e+01
  -8.218543e+01   6.896906e+01
   1.141047e+01   4.074467e+01
   4.124674e+01   1.753664e+01
   6.741287e+01  -2.666403e+01
   2.299262e+01   6.960771e+01
  -1.110390e+02   1.367300e+02
  -1.727144e+02   9.147612e+01
  -1.842964e+02  -1.161854e+02
   2.758108e+00  -1.804833e+02
   1.329290e+02  -1.309121e+02
   1.352346e+02   4.392937e+01
   1.129322e+02   1.212143e+02
   1.365959e+01   1.038353e+02
  -1.133724e+02  -1.894999e+01
   3.379999e+00  -7.674513e+01
  -2.255001e+01  -1.823773e+01
   1.844652e+01   7.800999e+01
   1.508676e+01  -4.784534e+01
  -6.878063e+01  -1.263701e+02
  -4.996381e+01  -1.179753e+02
   3.306909e+01  -1.186446e+01
   9.948063e+01   7.430516e-02
   1.188064e+02   9.872376e+01
   2.830797e+01   4.968014e+01
  -1.180015e+02  -1.221058e+01
  -1.443664e+02  -1.024735e+01
  -3.579526e+00   2.196004e+01
   3.345772e+00   1.931904e+01
  -5.397710e+01  -3.256186e+01
  -2.199998e+01   5.484099e+01
   4.743371e+01  -1.070124e+01
   5.700876e+01   5.755416e+00
   8.745205e+01   3.338828e+01
  -9.193562e+00   1.284189e+02
  -1.208744e+02   8.672150e+01
  -1.932616e+02   7.926348e+01
  -2.123745e+02  -9.596263e+01
  -9.769398e+01  -1.382407e+02
   4.359471e+01  -1.582859e+02
   7.812367e+01  -2.050492e+01
   4.400644e+01  -4.672334e+01
   5.233316e+01   2.263978e+01
  -3.178524e+01  -2.148119e+01
   1.203079e+00   1.515478e+01
   3.387201e+01   6.980973e+01
   1.359496e+01   1.457501e+02
  -2.280864e+01   5.661338e+01
  -6.654833e+01   3.074923e+00
  -6.998099e+01  -5.488213e+01
  -1.771380e+01  -7.940151e+01
   9.801532e+01  -2.013222e+01
   1.404770e+02   1.113135e+02
   1.118644e+02   2.619919e+01
  -1.258493e+01   3.720878e+01
  -1.446259e+02  -5.626474e+00
   2.213947e+01  -9.638352e+01
   9.231119e-01  -5.243124e+00
  -1.461909e+01  -5.125496e+01
  -2.852011e+01   1.229622e+01
  -1.403828e+02  -2.142449e+01
   1.426181e+01  -1.054685e+01
   5.066817e+01  -4.995316e+01
   9.466385e+01  -8.647496e+01
   7.023314e+01   4.006634e+01
  -2.762209e+01   9.834250e+01
  -3.492572e+01   4.195900e+01
  -9.782175e+01  -6.850283e+01
  -7.612367e+00  -2.888637e+01
   2.633651e+01  -1.222694e+02
  -1.188504e+01   3.614061e+01
  -5.668758e+00   3.092563e+01
   2.239203e+00  -2.023501e+01
  -8.234397e+01   2.284168e+01
  -9.724941e+01  -4.966100e+01
  -2.828267e+01   6.659565e+00
   1.212510e+01   7.728820e+01
   8.764612e+01   3.592954e+00
   2.512658e+01  -3.848375e+01
   4.673761e+01  -3.890890e+01
   3.415702e+01   6.382940e+01
   5.489345e+01   7.062175e+01
  -5.462454e+00   5.507021e+01
  -2.853527e+01   3.902599e+01
   6.299674e+00  -3.147822e+01
   1.504109e+01  -3.307683e+01
   3.891236e+01  -5.242600e+01
   1.146849e+02   1.590252e+01
   5.774362e+01  -2.273624e+01
  -2.758333e+01  -2.084321e+01
  -8.964925e+01   2.307745e+01
  -4.517356e+01  -7.483755e+00
   7.467043e+00   5.121754e+01
  -1.144264e+01   4.540300e+01
  -1.917846e+01   2.316392e+01
  -7.841533e+01  -1.018003e+01
