
 $NMID
 id='ANONYMOUS ', fmtdat='(2E16.6)'
 volume=1.0
 tramp=1.0
 $END
  -4.325269e+03  -3.539217e+01
  -2.518012e+03  -2.686967e+03
   8.063762e+02  -2.782765e+03
   2.198713e+03  -8.343700e+02
   9.605061e+02   7.487474e+02
  -6.454673e+02   6.522590e+02
  -9.141290e+02  -4.019019e+02
   1.210885e+01  -1.075606e+03
   8.542776e+02  -7.638954e+02
   9.844085e+02   9.576752e+01
   3.595943e+02   9.427375e+02
  -3.091528e+02   9.270257e+02
  -6.245632e+02   8.856035e+01
  -3.761686e+02  -7.903178e+02
   3.025984e+02  -7.624790e+02
   6.030558e+02  -5.735376e+00
   2.257025e+02   6.764971e+02
  -3.470734e+02   6.511521e+02
  -6.036758e+02   6.791130e+01
  -4.307435e+02  -3.937199e+02
  -1.858470e+01  -4.282597e+02
   2.763030e+02  -2.535347e+02
   2.714799e+02  -1.650971e+00
  -1.433060e+02   1.117657e+02
  -3.730587e+02  -1.067379e+02
  -2.417435e+02  -4.573066e+02
   4.876276e+02  -3.715972e+02
   8.118839e+02   6.038055e+01
   5.026245e+02   4.998380e+02
  -4.148658e+02   5.037266e+02
  -7.497299e+02  -4.269228e+01
  -3.442067e+02  -4.997255e+02
   2.500027e+02  -5.537415e+02
   6.240965e+02  -2.311203e+02
   3.884888e+02   2.123669e+02
   9.585627e+01   4.978566e+02
  -2.251869e+02   2.992533e+02
  -2.016160e+02  -1.699598e+02
   1.145851e+02  -4.504210e+02
   4.441241e+02   3.401851e+01
   2.517468e+02   7.175951e+02
  -3.283868e+02   7.029668e+02
  -5.775552e+02  -1.190387e+01
  -2.717476e+02  -5.520138e+02
   3.456277e+02  -3.405939e+02
   3.908980e+02   3.125198e+02
  -1.035610e+02   5.151679e+02
  -4.770957e+02   1.436781e+02
  -6.001379e+02  -4.064952e+02
  -1.563898e+02  -5.727998e+02
   4.099002e+02  -3.358074e+02
   5.975206e+02   1.461041e+02
   3.747134e+02   3.944235e+02
  -1.976583e+02   3.279100e+02
  -4.909892e+02   8.067677e+01
  -2.610564e+02  -1.878231e+02
   1.332203e+02  -1.595385e+02
   1.069719e+02   2.063109e+02
  -1.532678e+02   1.561377e+02
  -3.524197e+02  -9.315215e+01
  -1.375213e+02  -3.263115e+02
   2.356278e+02  -2.228272e+02
   3.344831e+02  -1.225343e+02
   1.746367e+02   1.212768e+02
  -7.983609e+01   2.563272e+02
  -1.980144e+02   3.291071e+02
  -3.735001e+02   1.679838e+02
  -2.817890e+02  -1.492486e+02
  -3.425258e+01  -4.173421e+02
   1.807849e+02  -3.185551e+02
   1.358518e+02  -1.238818e+02
   3.852357e+01  -2.066733e+01
   1.303089e+01  -6.774083e+01
   1.441348e+02  -2.082930e+02
   2.882000e+02   5.789454e+01
   1.324592e+02   2.549024e+02
  -8.303222e+01   2.319125e+02
  -2.088403e+02  -1.604380e+01
  -1.962270e+02  -2.735214e+02
  -1.081972e+01  -3.275716e+02
   2.376086e+02  -1.206002e+02
   3.240093e+02   1.467361e+02
   1.644926e+02   3.706076e+02
  -1.360066e+02   3.029749e+02
  -2.661970e+02   1.134290e+02
  -1.254810e+02  -1.829462e+01
  -7.337511e+01   1.621923e+01
  -2.233945e+02   4.337290e+01
  -4.296928e+02  -3.674409e+01
  -3.770080e+02  -3.316776e+02
   1.767362e+01  -4.710714e+02
   3.693335e+02  -3.737577e+02
   5.035215e+02  -2.067259e+02
   2.814865e+02   1.076422e+02
   2.550521e+01   2.505447e+02
  -1.324700e+02   2.467764e+02
  -2.006084e+01   2.109045e+01
   1.549734e+02  -1.048840e+02
   1.504244e+02   1.956734e+00
   9.605307e+01   1.511129e+02
  -1.610749e+02   2.030378e+02
  -2.208506e+02  -5.994545e+01
   4.046810e+01  -2.277429e+02
   1.729858e+02  -5.105131e+01
   1.095104e+02   2.299749e+02
  -3.635133e+01   2.919991e+02
  -2.636929e+02   1.942577e+02
  -3.093932e+02  -5.577380e+01
  -2.907406e+02  -2.422741e+02
  -1.183549e+02  -3.078976e+02
   1.165112e+02  -1.255098e+02
   1.931896e+02   2.215595e+01
   1.073635e+02  -5.088620e+01
  -4.304425e+01   3.979672e+01
  -2.348215e+01  -1.053263e+02
   1.348284e+02  -1.405875e+02
   2.252580e+02   3.050267e+01
   3.749541e+01   5.536594e+01
  -1.130776e+02   2.736372e+01
  -3.407654e+01  -5.867860e+01
   1.637957e+02  -9.560406e+01
   2.828379e+02  -3.269778e+01
   2.359387e+02   1.631195e+02
   8.549490e+01   2.659010e+02
  -2.419443e+02   2.283772e+02
  -2.909920e+02   1.722400e+02
  -2.111230e+02  -2.565495e+01
   1.727383e+01  -1.145860e+02
   1.160204e+02  -4.900077e+01
  -2.862708e+00   9.110864e+01
  -1.145090e+02   8.035676e+01
  -1.777483e+02  -3.981278e+01
  -8.547036e+01  -2.215868e+02
   4.303912e+01  -1.532979e+02
   1.506618e+02  -1.010019e+01
   3.762953e+01   1.208089e+01
  -3.676288e+01   1.851809e+01
  -4.881126e+00  -5.720694e+01
   7.045708e+01  -3.617311e+01
   2.341290e+02  -7.880609e+01
   1.820983e+02   1.722647e+02
  -3.319156e+01   2.825872e+02
  -1.376608e+02   1.568103e+02
  -1.549636e+02  -9.013018e+00
  -4.801420e+01  -1.144592e+02
   6.695909e+01  -9.251825e+01
   1.333700e+02  -1.106752e+02
   6.349134e+01  -4.086386e+00
   2.643498e+01   3.834946e+01
   2.228514e+01  -2.935963e+00
   7.331445e+01   2.740933e+01
   1.581687e+02   5.145574e+01
   6.065927e+01   1.433870e+02
  -1.366202e+02   1.366699e+02
  -2.385712e+02   1.828337e+00
  -2.591480e+02  -1.538445e+02
  -8.793322e+00  -2.411374e+02
   1.737691e+02  -1.563189e+02
   1.224159e+02   9.455993e+00
   1.187847e+02   7.398955e+01
   1.444120e+01   6.542907e+00
   2.240284e+01   1.041829e+01
   9.310402e+00  -4.487220e+01
   2.097618e+01   1.040994e+02
  -7.574293e+01   1.027346e+02
  -1.018923e+02   3.338464e+01
  -8.318864e+01  -7.344230e+01
   5.465665e+00  -1.031625e+02
   1.555724e+02  -1.438019e+02
   2.044257e+02   5.021430e+01
   9.313896e+01   2.179876e+02
  -6.935168e+01   2.551085e+02
  -2.085133e+02   1.337494e+02
  -2.562400e+02  -8.966216e+01
  -1.254749e+02  -1.296319e+02
   2.346627e+01  -1.640747e+02
   6.177023e+01  -3.337616e+01
   1.118936e+02  -6.317708e+01
   1.095397e+02  -6.697876e+01
   1.102041e+02   3.497898e+01
   7.545386e+01   4.547540e+01
   1.425872e+02   1.937270e+02
   4.682656e+01   2.242254e+02
  -7.871871e+01   1.740644e+02
  -1.999186e+02  -3.289817e+01
  -1.520163e+02  -8.124299e+01
  -5.689477e+00  -1.756742e+02
   7.397205e+01  -1.483184e+02
   6.005000e+01   1.389236e+01
   3.962339e+01   8.118154e+01
  -4.733777e+01   4.931882e+01
   1.540075e+01   5.785021e+01
   7.126774e+01   2.238578e+00
   1.266360e+02   5.720470e+01
  -8.089172e+01   6.768759e+01
  -1.289126e+02  -2.039930e+01
  -1.558576e+02  -3.142636e+01
  -1.862351e+01  -3.119567e+01
   1.558789e+02  -5.092240e+01
   1.062836e+02  -3.753634e+01
   9.845254e+01   3.072134e+01
  -6.396870e+01   7.771252e+01
  -5.305454e+01  -4.873147e+00
  -2.510705e+01  -9.868182e+01
   6.026709e+01  -5.225500e+01
   1.057260e+02  -4.105858e+01
   9.190880e+01   9.029342e+01
   2.908246e+01   2.337623e+01
   7.761430e+01  -1.248357e+00
   8.640975e+01  -2.327652e+01
  -2.362389e+01   3.512511e+01
  -3.600392e+01   1.463005e+02
  -1.433619e+02   1.745842e+02
  -1.712479e+02  -2.087559e+01
  -1.867027e+02  -6.500233e+01
  -2.825474e+01  -1.427732e+02
   4.584590e+01  -4.848358e+01
   3.626489e+00   2.408738e+01
  -8.538121e+01   1.168398e+01
  -1.298596e+02  -1.284341e+01
  -6.913143e+01  -9.402798e+01
   1.081648e+02  -9.844793e+01
   2.352809e+02  -5.225445e+01
   1.467071e+02  -2.224814e+00
   7.339256e+01   8.348194e+01
  -1.491761e+02   4.510928e+01
  -1.280581e+01  -1.073875e+01
   2.351124e+01   9.716457e+00
   9.508018e+01   6.008031e+00
   4.388028e+01   1.403382e+02
  -1.281357e+02   2.178722e+02
  -1.944892e+02   4.856502e+01
  -9.384661e+01  -1.155701e+02
   1.486163e+01  -1.615005e+02
   1.231993e+02  -1.659744e+02
   1.000589e+02  -1.457477e+01
   5.817716e+01   3.978725e+01
  -5.574832e+01   6.183790e+01
  -6.244674e+01  -1.113213e+01
  -2.840590e+01  -5.912275e+01
   3.561304e+01  -7.937243e+00
  -4.657043e+01   5.153292e+01
  -7.014357e+01   4.540849e+01
  -2.743436e+01  -8.760276e+01
  -4.854826e+01  -1.238467e+02
   1.454902e+01  -7.558520e+01
   1.172269e+02   7.994174e+01
   1.261152e+02   5.001091e+01
   2.666525e+01   1.498732e+01
  -8.201575e+01   2.836058e+01
  -9.104732e+01   3.212515e+01
  -1.415653e+01   3.585913e+01
   3.007048e+01  -4.645237e+01
   7.144940e+01   1.417839e+01
   2.325781e+00   5.504908e+01
  -3.660409e+01   2.106940e+01
   2.147850e+01   5.469529e+01
   1.118745e+02   6.448463e+01
  -2.050630e+01   7.388593e+01
  -1.057906e+02   1.299200e+02
  -1.666256e+02   5.286119e+01
  -1.404790e+02  -7.666249e+01
  -1.324765e+01  -1.209387e+02
   1.028446e+02  -9.340378e+01
   1.340830e+02  -5.275706e+01
   4.151031e+01   4.646460e+01
   9.958766e+01   4.244666e+00
   2.809753e+01   2.390972e+01
  -2.444688e+01  -2.740474e+01
  -4.430732e+01   1.905038e+01
   1.291651e+00   8.104418e+01
  -4.625453e+01   4.338175e+01
   2.951313e+01  -1.224719e+01
  -5.856729e+01  -1.188414e+02
  -4.710063e+00  -1.307610e+02
   1.147977e+02   1.348025e+01
   1.533335e+02   5.290831e+01
   3.223573e+01   8.926776e+01
  -8.611547e+01   1.145288e+02
  -1.372431e+02   6.455932e+01
  -3.790100e+01  -9.816063e+01
  -1.669220e+01  -4.591745e+01
   6.862339e+00  -5.667251e+00
  -4.965779e+01  -1.220752e+01
  -6.360313e+01   2.836054e+01
  -1.129465e+01  -5.114787e+01
   9.988579e+01  -7.710202e+01
   1.269642e+02  -2.975532e+01
   1.374666e+02  -1.204950e+01
   3.063647e+00   4.317901e+01
  -8.462359e+01   1.317634e+01
  -3.176645e+01   1.172948e+01
   5.964184e+01  -7.126896e+01
   4.154243e+01   6.062755e+00
   5.459817e+01   4.385658e+01
   9.644307e+00   5.423446e+01
  -2.136038e+01  -1.907678e+01
  -2.676816e+01   4.525361e+01
  -1.800565e+01  -2.236016e+01
   2.157868e+01  -1.999150e+01
   4.808856e+01   2.476685e+01
  -7.433551e+00  -6.002224e+00
  -1.350335e+01   2.166717e+00
  -1.260167e+00  -6.427061e+01
   3.000430e+00  -4.763115e+01
   2.736817e+01   3.387191e+00
   1.236513e+01   8.905343e+01
  -3.764723e+01  -5.056670e+00
  -8.108309e+01  -4.096251e+01
  -2.182469e+01  -1.159813e+01
  -1.331332e+00  -2.639710e+01
   8.628349e+01   3.314678e+01
   6.011820e+01   3.984583e+01
   9.248671e+00   2.251440e+01
  -5.605071e+01  -3.343080e+00
  -1.154407e+01   1.925363e+01
   1.560189e+01  -1.026629e+01
   4.424623e+01   1.166931e+01
  -2.478620e+01  -9.269522e+00
  -1.680644e+02   5.331158e+01
