
 $NMID
 id='ANONYMOUS ', fmtdat='(2E16.6)'
 volume=1.0
 tramp=1.0
 $END
  -2.551729e+03   1.362449e+01
  -1.865290e+03  -1.078097e+03
  -3.146984e+02  -1.693991e+03
   9.604228e+02  -1.331054e+03
   9.511806e+02  -5.359066e+02
   3.172511e+02   6.912955e+01
  -1.731896e+02   5.630248e+01
  -1.208512e+02  -3.423603e+02
   2.469353e+02  -4.657157e+02
   5.275407e+02  -1.741625e+02
   4.158786e+02   3.486000e+02
   1.499833e+02   5.186846e+02
  -1.576162e+02   2.320817e+02
  -2.053937e+02  -3.146619e+02
   4.830915e+01  -4.288025e+02
   3.010732e+02  -9.676613e+01
   3.123478e+02   3.683459e+02
   5.226400e+01   6.234387e+02
  -4.121334e+02   3.339263e+02
  -4.462303e+02  -1.500371e+02
  -1.289407e+02  -3.658044e+02
   6.059554e+01  -2.309044e+02
   5.773273e+00  -8.223761e+01
  -1.769539e+02  -1.838405e+02
  -2.326318e+02  -2.319829e+02
   9.652608e+01  -3.149680e+02
   3.787389e+02  -2.795378e+00
   4.306372e+02   2.005707e+02
   1.711624e+02   2.490104e+02
  -2.876965e+02   6.088984e+01
  -3.517506e+02  -9.868693e+01
  -1.046537e+02  -3.020672e+02
   2.551923e+02  -2.769024e+02
   4.256010e+02  -8.109327e+01
   3.227990e+02   1.185541e+02
   9.161902e+01   2.190743e+02
   2.548504e+01   1.173473e+02
   9.567455e+01  -6.600674e+01
   1.273418e+02  -3.178710e+01
   1.049141e+02   1.761026e+02
  -6.482003e+01   3.799903e+02
  -1.805426e+02   3.358899e+02
  -1.847524e+02   1.279387e+01
  -1.231616e+02  -1.573305e+02
   8.936298e+01  -1.068671e+02
   3.491003e+01   2.065291e+02
  -1.226484e+02   2.773396e+02
  -3.736593e+02   7.039434e+01
  -3.803656e+02  -3.587378e+02
  -1.560886e+02  -4.453043e+02
   2.779301e+02  -2.497969e+02
   4.200883e+02   7.520450e+00
   3.294126e+02   1.852906e+02
  -1.309396e+01   1.766867e+02
  -1.705620e+02   8.468460e+01
  -1.544459e+02   5.353268e+00
  -6.623492e+01   3.045817e+01
   2.010262e+01   1.346174e+00
  -6.278675e+01  -3.279178e+01
  -2.008637e+02  -2.257232e+01
  -3.352413e+01  -1.199734e+02
   7.907052e+01  -2.167470e+02
   3.088463e+02  -1.764629e+02
   2.620633e+02   1.125013e+02
  -5.291167e+01   3.648812e+02
  -2.263761e+02   3.504507e+02
  -3.019090e+02   1.214364e+02
  -2.168272e+02  -2.283106e+02
  -2.478022e+00  -3.005237e+02
  -5.449078e+01  -1.981434e+02
   1.587810e+01  -2.495589e+02
   1.060936e+01  -8.661479e+01
   1.929611e+02  -8.175791e+01
   2.376974e+02  -3.202252e+01
   2.167219e+02   1.738675e+02
  -2.061874e+01   2.174091e+02
  -7.775550e+01   1.358397e+02
  -2.100626e+02  -6.958622e+01
  -9.672712e+01  -2.039990e+02
   5.442408e+01  -1.643219e+02
   2.944453e+02  -4.923789e+01
   2.612300e+02   2.010798e+02
   1.330592e+02   2.011629e+02
  -3.214441e+01   2.241492e+02
  -1.432909e+02   1.692395e+02
  -2.055674e+02   8.164838e+01
  -1.617872e+02   2.915303e+01
  -2.476875e+02   2.508435e+01
  -2.993210e+02  -1.040612e+02
  -2.619583e+02  -2.327678e+02
  -2.295766e+01  -3.853044e+02
   4.228886e+02  -3.374141e+02
   4.264520e+02  -1.324666e+02
   2.096627e+02   9.173069e+01
   1.112617e+01   2.257830e+02
  -5.020513e+01   1.576285e+02
   1.814365e+01   3.925425e+00
   8.070570e+01  -6.334151e+01
   9.486246e+01   1.128173e+02
  -5.729863e+01   1.276841e+02
  -1.067233e+02   2.865522e+01
  -4.073446e+01   1.056230e+01
   3.390154e+01  -1.668315e+02
   1.371410e+02   3.096410e+01
   1.238910e+02   2.358496e+02
  -4.307920e+01   3.020908e+02
  -1.955779e+02   1.672147e+02
  -3.387648e+02  -1.848956e+01
  -2.545203e+02  -2.464307e+02
   2.580848e+01  -2.762119e+02
   1.148440e+02  -1.421206e+02
   1.874571e+02   2.032474e+01
  -6.351236e+01   4.798755e+01
  -1.195698e+02   4.114886e+00
   1.651458e+01  -1.038727e+02
   1.096658e+02  -6.935689e+01
   1.328698e+02   2.817316e+01
   7.361393e+01  -8.986308e+00
  -1.022204e+02   1.009691e+01
  -6.648548e+01  -1.171372e+02
   1.681681e+02  -1.292874e+02
   3.185706e+02   3.382272e+01
   2.223221e+02   2.054456e+02
  -5.128156e+00   2.815338e+02
  -1.373899e+02   2.186791e+02
  -2.746760e+02   4.669463e+01
  -1.160975e+02  -6.023324e+01
   3.822709e+01  -3.917590e+01
  -2.397201e+00   3.405476e+01
  -5.835024e+01   6.208703e+01
  -1.177787e+02   4.288857e+01
  -1.414600e+02  -7.341943e+01
   3.486877e+01  -1.496255e+02
   1.550248e+01  -1.374106e+02
   1.497536e+02   5.041024e+01
   2.538744e+00  -1.059416e+01
  -7.930745e+01  -4.392583e+01
   3.384353e+01  -1.139363e+02
   8.781134e+01  -1.384151e+02
   1.950532e+02   9.974278e+00
   2.193759e+02   1.544026e+02
  -2.905725e+01   1.474525e+02
  -9.760197e+01   1.308422e+02
  -9.575431e+01   5.170563e+01
  -3.000411e+01  -7.687467e+01
   5.144240e+01  -4.263183e+01
   5.238612e+01  -7.256491e+01
  -3.930587e+01  -1.958160e+01
  -3.446573e+01   2.182178e+01
  -4.209692e+01  -8.250851e+00
   2.539250e+01  -2.490877e+01
   7.330984e+01   3.804900e+01
   5.629863e+01   1.639996e+02
  -1.522936e+02   1.498463e+02
  -1.966108e+02  -1.569019e+01
  -1.621918e+02  -1.694318e+02
  -4.762726e+01  -1.737544e+02
   1.597635e+02  -1.749969e+02
   9.784982e+01  -2.442668e+01
   3.414815e+01   1.005168e+02
   4.519487e+01  -1.653335e+01
   6.635924e+01  -1.129818e+01
   6.889415e+01   9.164177e+00
   1.093377e+02   8.335051e+01
  -4.712530e+01   1.427613e+02
  -1.654738e+02   9.474634e+01
  -9.082990e+01   6.031382e+00
   6.794079e+00  -1.386674e+02
   1.943264e+02  -3.111489e+01
   1.382739e+02   6.916205e+01
   5.199660e+01   2.234873e+02
  -8.630013e+01   1.595815e+02
  -2.423308e+02   7.476520e+01
  -1.919576e+02  -1.119491e+02
  -4.379720e+01  -8.606260e+01
   5.912062e+01  -1.366763e+02
   7.574100e+01  -9.705166e+01
   5.690615e+01  -7.282104e+01
   9.227130e+00  -1.021664e+02
   8.453170e+01  -6.435727e+00
   1.089009e+02   6.988369e+01
   1.264937e+02   1.678329e+02
  -1.491247e+01   2.616221e+02
  -1.524686e+02   1.356310e+02
  -1.364301e+02  -1.496498e+01
  -1.104107e+02  -1.441702e+02
   4.775547e+01  -7.431508e+01
   7.331680e+01  -5.700132e+01
   5.799652e+01  -1.936861e+01
  -4.709535e+01   6.414750e+01
  -2.159322e+01   1.127375e+01
  -3.547912e+00  -3.667210e+01
   2.324963e+01  -1.310735e+01
   6.148086e+01   6.028595e+01
  -9.640350e+01   8.116470e+01
  -1.550121e+02  -1.702245e+01
  -1.145711e+02  -7.458378e+01
  -2.351980e+01  -1.514248e+02
   1.292498e+02  -5.291920e+01
   1.632180e+02   1.119505e+01
   8.778628e+00   3.791743e+01
  -4.162543e+01   3.004998e+00
  -9.542132e+01  -6.162336e+01
  -3.420655e+01  -1.053529e+02
   4.115628e+01   2.209942e+01
   9.597852e+01   6.583768e+00
   5.140822e+01   5.289053e+01
   5.920808e+01   5.305908e+01
   4.250106e+01   4.920461e+01
   6.050344e+00  -5.660151e+01
   6.469775e+01  -5.804208e+00
   1.273648e+01   1.281038e+02
  -8.499958e+01   8.872831e+01
  -2.012464e+02   4.899134e+01
  -1.382265e+02  -5.863732e+01
  -2.389718e+00  -1.125347e+02
   1.730915e+02  -8.135429e+01
   1.478242e+01  -9.539063e+00
  -1.130034e+02   6.115285e+01
  -5.353071e+01  -5.188820e+01
   3.226597e+00  -1.111304e+02
   8.607556e+01  -6.280755e+01
   1.395601e+02  -1.184246e+02
   1.277776e+02   2.739483e+01
   3.415851e+01   5.153254e+01
  -7.750396e+01   2.729124e+01
  -7.272935e+01  -3.141967e+00
  -2.691216e+00  -2.241382e+01
   7.081665e+01  -2.386515e+01
   2.744601e+01   3.211104e+01
  -5.912022e+01   1.198880e+02
  -1.492226e+02   9.035851e+01
  -1.042728e+02  -8.712367e+01
   3.150847e+01  -2.224721e+02
   6.722336e+01  -1.690229e+02
   9.219348e+01  -2.871434e+01
   5.138571e+01   1.004157e+02
  -9.412541e+00   1.001550e+02
  -6.909354e+01   2.127383e+00
  -8.033196e+01   1.265511e+01
  -8.636031e+01  -1.643561e+01
  -2.472903e+01   2.222187e+01
  -3.656806e+01  -5.008584e+01
  -4.742207e+01  -2.793511e+01
   7.658926e+00  -9.435940e+01
   6.196084e+01  -4.382328e+01
   1.749118e+02   4.024977e+01
   7.748410e+01   1.104011e+02
  -3.459684e+01   5.570341e+01
  -8.550232e+01   5.540887e+01
  -3.919402e+01   1.531966e+01
  -4.020035e+01   1.410735e+01
   8.938122e+01  -4.801059e+00
  -1.758346e+01  -4.727948e+01
   3.630608e+00  -8.031765e+01
  -3.544585e+01  -2.381036e+01
   6.319323e+01  -3.812455e+00
   1.111493e+02   2.735861e+01
   8.687699e+00   7.852547e+01
  -9.955588e+01   8.885329e+01
  -1.782580e+02   8.265718e+01
  -1.384514e+02  -2.673364e+01
  -4.858243e+01  -1.026655e+02
   5.759291e+01  -2.001926e+02
   8.647155e+01  -7.933692e+01
   5.722382e+01   4.602259e+01
   5.941430e+00   1.818954e+01
  -1.337170e+01  -4.507801e+01
  -4.370542e+01   6.238250e+01
   6.014782e+01   4.561001e+01
   1.658393e+01   8.371040e+01
  -4.944104e+01   2.073734e+01
  -6.502285e+01  -3.200266e+01
  -8.327126e+01  -1.213154e+02
   4.205962e+01  -1.145119e+02
   1.236132e+02  -4.888127e-01
   1.503415e+02   4.836305e+00
   7.747425e+01   9.035571e+01
  -5.003373e+01   7.307025e+01
  -1.419266e+02  -8.220551e+01
  -5.608065e+01  -4.023946e+01
   7.454341e+01  -3.213665e+01
   5.286040e+01  -1.913889e+01
   1.228023e+01   8.029441e+01
  -4.237163e+01   3.911438e+01
  -2.289137e+01  -7.006435e+01
   5.249901e+01  -2.784814e+01
   1.794301e+02  -5.512659e+01
   6.910185e+01   4.003364e+01
  -4.186782e+00   2.578979e+01
  -1.398985e+01   1.035827e+02
  -4.662414e+01  -1.845056e+01
   1.377887e+01  -5.061523e+01
  -1.731361e+01  -2.720128e+00
  -5.277177e+00   1.783548e+01
   3.745442e+01   7.954115e+01
  -1.419705e+01   9.286268e+01
  -9.990250e+00  -2.155347e+01
  -6.802197e+01  -6.828442e+01
   6.176425e+00  -3.507720e+00
   5.212500e+01   3.047949e+01
   9.106483e+00   4.673229e+01
  -4.443940e+01  -1.723704e+01
  -9.090131e+00  -6.137566e+01
   5.922170e+01  -7.570901e+00
   3.836242e+01   6.294202e+01
   8.744461e+01   4.621990e+01
   4.821899e+00   1.750780e+01
  -1.792777e+01  -6.321958e+01
   1.443876e+00   2.047153e+01
   5.312443e+00  -6.419517e+01
   8.677383e+01   1.277703e+01
   7.485909e+01   1.047473e+01
  -3.310388e+01   1.412556e+02
  -5.892517e+01   2.071081e+01
  -4.015660e+01  -1.252017e+01
   1.955510e+01   4.685916e+01
   2.556953e+01   1.665807e+01
   5.081861e+01  -2.360102e+01
  -7.918909e+01   6.097611e+01
