
 $NMID
 id='ANONYMOUS ', fmtdat='(2E16.6)'
 volume=1.0
 tramp=1.0
 $END
   2.947657e+03  -3.178907e+01
   2.061978e+03   1.307639e+03
   2.356498e+02   1.874440e+03
  -9.443918e+02   1.419474e+03
  -9.551088e+02   5.030972e+02
  -2.454312e+02  -3.566725e+01
   1.993815e+02   3.015018e+01
   1.318237e+02   4.691894e+02
  -3.398728e+02   5.545771e+02
  -5.528441e+02   2.146429e+02
  -4.474109e+02  -4.568348e+02
  -7.302204e+01  -5.735698e+02
   2.085463e+02  -2.386402e+02
   2.559914e+02   3.089845e+02
  -1.142641e+02   4.862287e+02
  -2.976320e+02   9.039261e+01
  -3.561169e+02  -4.026014e+02
   9.071052e+01  -6.782514e+02
   4.596478e+02  -3.213122e+02
   4.873409e+02   7.902353e+01
   2.357950e+02   3.131346e+02
  -1.203843e+02   2.658635e+02
  -7.756184e+00   8.277777e+01
   2.544238e+02   1.240752e+02
   2.735862e+02   3.370113e+02
  -8.350931e+01   3.843620e+02
  -4.728973e+02   1.395554e+02
  -5.338116e+02  -2.432107e+02
  -1.938567e+02  -2.301395e+02
   2.875028e+02  -1.849062e+02
   4.844733e+02   1.399532e+02
   1.802382e+02   3.015896e+02
  -2.338401e+02   2.873092e+02
  -4.174010e+02   1.173864e+02
  -2.438164e+02  -1.812932e+02
  -8.276979e+01  -2.761056e+02
  -5.758435e+01  -1.850296e+02
  -1.090427e+02   4.714293e+01
  -1.609686e+02   5.008688e+01
  -9.326841e+01  -1.723764e+02
   7.312044e+01  -4.115095e+02
   2.437215e+02  -3.464915e+02
   2.452492e+02  -1.233961e+01
   1.127885e+02   1.986509e+02
  -5.853209e+01   1.246525e+02
  -1.409773e+02  -2.196943e+02
   1.661401e+02  -3.139573e+02
   4.098190e+02  -3.836127e+00
   5.180504e+02   3.103298e+02
   2.070785e+02   4.114686e+02
  -2.987980e+02   2.536991e+02
  -4.861691e+02  -6.112689e+01
  -3.429494e+02  -1.356753e+02
  -3.441797e+00  -1.849928e+02
   2.361834e+02  -1.183201e+02
   1.776051e+02  -5.065227e+01
   4.906522e+00  -1.084461e+01
  -5.595454e+00   8.096726e+00
   2.696856e+00   1.888693e+01
   2.131358e+02   5.320016e+01
   1.105051e+02   1.457407e+02
  -1.827983e+02   3.233788e+02
  -3.746816e+02   1.614139e+02
  -3.485554e+02  -1.239085e+02
   2.047914e+01  -3.563799e+02
   3.858176e+02  -3.773372e+02
   3.966457e+02  -1.221329e+02
   1.816633e+02   1.692798e+02
   2.532221e+01   3.310469e+02
  -7.317107e+01   3.361635e+02
   5.540838e+01   1.466055e+02
  -5.959807e+01   1.290349e+02
  -1.460064e+02   1.979866e+02
  -2.630061e+02   7.610288e+01
  -2.780330e+02  -1.323745e+02
  -4.000553e+01  -1.758370e+02
   1.332902e+02  -1.725319e+02
   1.345681e+02   9.883719e+01
   9.834919e+01   2.880991e+02
   1.518304e+01   2.544514e+02
  -2.442344e+02   3.337176e+01
  -3.015588e+02  -1.432271e+02
  -1.282150e+02  -3.135517e+02
   2.701537e+01  -2.694802e+02
   1.598225e+02  -1.517731e+02
   1.735748e+02  -8.189124e+01
   1.965911e+02  -1.216455e+02
   2.642352e+02   1.793781e+01
   4.676635e+02   9.743473e+01
   3.090090e+02   2.532247e+02
  -3.913741e+01   4.513496e+02
  -3.800669e+02   4.144058e+02
  -4.662692e+02   1.552915e+02
  -2.867311e+02  -4.600048e+01
   4.722795e+01  -2.524978e+02
   1.165006e+02  -1.867621e+02
   3.969110e+01  -7.335103e+01
  -1.525789e+02   4.255458e+01
  -1.282571e+02  -7.509446e+01
   6.030723e+00  -1.566119e+02
   7.292417e+01  -2.994225e+01
   8.377825e+01   6.520550e+01
  -1.498715e+01   8.531152e+01
  -1.670204e+02  -6.269389e+01
  -1.799590e+02  -1.936202e+02
   4.160220e+01  -3.521646e+02
   2.306806e+02  -2.219216e+02
   3.619187e+02   2.820649e+01
   2.746407e+02   2.584434e+02
   5.573681e+01   2.490169e+02
  -1.063697e+02   1.545899e+02
  -1.118331e+02   9.452141e+00
  -9.750342e+01   6.677396e-01
   9.841567e+01   8.530795e+01
   6.582551e+00   8.515824e+01
  -2.435190e+02   2.891944e+01
  -1.272962e+02  -6.591576e+01
   1.124998e+01  -9.417811e+01
   1.113453e+02  -4.195389e+01
   3.228272e+01   1.058677e+02
  -1.824047e+02   3.968603e+01
  -3.238437e+02  -5.728644e+01
  -2.679810e+02  -1.863722e+02
  -8.214824e+00  -2.841786e+02
   1.357045e+02  -2.716611e+02
   2.561212e+02  -6.066373e+01
   1.455679e+02   2.856752e+01
  -1.726359e+01   7.002769e+01
  -2.760298e+01  -1.026640e+01
   3.291165e+01  -5.473231e+01
   1.850842e+02  -5.945488e+01
   1.833302e+02   1.264550e+02
   4.551492e+01   1.746582e+02
  -1.104155e+02   1.317429e+02
  -8.718837e+01   6.493716e+01
  -2.779257e+01  -4.924280e+01
   6.487408e+01   6.619416e+01
   4.131835e+01   1.674868e+02
  -1.220278e+02   1.593676e+02
  -2.210975e+02  -4.511814e+01
  -1.868199e+02  -1.673456e+02
   1.736167e+01  -1.801566e+02
   1.533379e+02  -1.596127e+02
   1.783840e+02  -9.630653e+00
   3.868338e+01   1.031261e+02
  -3.590885e+01   1.455544e+02
  -9.797323e+01   4.390914e+01
  -1.154491e+00   1.050766e+01
   5.147888e+01  -7.369215e+00
  -5.063111e+01  -5.906415e+00
  -7.362236e+01   3.714082e+01
  -9.635216e+01  -1.400809e+02
   2.697519e+01  -1.863666e+02
   1.112360e+02  -1.128499e+02
   3.222849e+02  -2.313284e+01
   1.534950e+02   2.189178e+02
   2.561230e+01   2.108214e+02
  -9.836911e+01   1.004857e+02
  -1.278449e+02   4.042302e+01
  -6.109820e+01  -3.637431e+01
  -3.991552e+01  -4.651414e+01
  -3.185408e+01  -3.114797e+01
  -5.299181e+01  -3.078023e+01
  -7.033214e+01  -8.463490e+01
   4.175520e+01  -8.913260e+01
   1.820644e+02  -1.269915e+02
   1.504027e+02   5.706881e+01
   3.469629e+01   1.190667e+02
  -1.849439e+02   7.631461e+01
  -2.037083e+02  -3.333508e+00
  -4.258905e+01  -2.540074e+02
   1.220154e+02  -2.580980e+02
   2.912089e+02  -7.891542e+01
   2.433343e+02   5.440825e+01
   9.782500e+01   1.720744e+02
  -6.503955e+00   1.666303e+02
  -1.683804e+02   7.517716e+01
  -1.103210e+02   6.168568e+01
  -1.105677e+02   9.426279e+01
  -8.210197e+01   6.280972e+01
  -9.409038e+01  -5.114748e+01
  -1.341270e+02  -1.568710e+02
  -4.328558e+01  -2.399604e+02
   1.160755e+02  -1.858107e+02
   1.561924e+02  -2.987323e+01
   1.440565e+02   1.207260e+02
  -8.349577e+00   1.813129e+02
  -1.295830e+02   3.715443e+01
  -1.235686e+02   1.714338e+01
  -2.820382e+01  -7.603549e+01
   4.521915e+01  -6.735576e+00
  -6.584379e+01   1.091556e+01
  -1.108527e+02  -2.850843e+00
  -5.449559e+01  -5.153509e+01
   1.041722e+02  -4.929808e+01
   1.454804e+02  -5.672742e+01
   1.734391e+02   7.494877e+01
   5.566005e+00   1.051838e+02
  -1.434472e+02   8.705460e+01
  -1.401181e+02   9.291974e+00
  -5.119584e+01  -1.095311e+02
   6.156204e+01  -1.059313e+02
   8.180489e+01   7.785021e+00
   1.502861e+01   1.052828e+02
  -2.353189e+01   2.487453e+01
  -5.357920e+01   1.362005e+01
  -1.038449e+02  -8.481400e+01
  -9.832160e+01   5.071062e+00
  -5.245988e+01  -3.809738e+01
  -5.426367e+01   7.823266e+00
  -3.777965e+01  -8.310638e+01
   5.726664e+01  -1.303658e+02
   1.524026e+02  -1.719930e+02
   1.757655e+02  -1.355073e+01
   8.276861e+01   1.004590e+02
   2.953493e-01   1.122760e+02
  -1.089039e+02   1.842985e+01
  -1.081285e+02  -6.532873e+01
   3.002180e+01  -3.705090e+00
   1.405030e+02   1.330874e+01
   4.231315e+01   8.202210e+01
  -1.195840e+02   1.138534e+02
  -2.098126e+02   8.508188e+01
  -1.851145e+02  -7.243239e+01
  -2.487602e+01  -5.937460e+01
   1.069226e+02  -2.518494e+01
  -3.522299e+00  -2.606379e+01
  -9.925363e+01   8.946001e+01
  -4.420680e+01   6.995998e+01
  -9.896875e+01  -1.323928e+02
   6.694744e+01  -1.536759e+02
   1.162027e+02  -6.108473e+01
   1.637116e+02   4.952017e+01
  -1.016403e+01   1.609758e+02
  -3.365140e+01   9.895080e+01
  -1.444600e+02   1.798818e+00
  -1.966292e+01  -5.913282e+01
   3.824718e+01  -1.173294e+02
   2.886117e+01  -7.840201e+01
   7.331399e+01   6.559060e+01
   5.225679e+01  -6.185658e+01
  -4.088082e+01  -4.984652e+01
   4.007970e+01   6.682770e+01
   7.745812e+01   1.024604e+02
   8.525481e+00   1.078800e+02
  -7.041222e+01   7.289368e+01
  -4.688241e+01  -8.422904e+01
  -5.038023e+01  -4.407559e+01
  -5.760175e+01  -1.883225e+01
   3.017686e+01  -1.221461e+01
   1.498618e+02   1.074021e+01
   2.281789e+01  -7.615630e+00
  -2.700924e+01   3.772146e+01
  -6.703757e+01  -1.613031e+01
   3.503073e+01   2.520069e+01
  -2.902054e+01   2.223338e+01
  -1.906570e+01   7.212253e+01
  -1.355716e+02   3.607667e+01
  -2.849237e+01  -7.218470e+01
   1.024795e+02  -1.623879e+02
   2.448898e+02  -5.620333e+01
   1.846466e+02   8.771544e+01
  -5.162782e-01   1.451474e+02
  -6.325943e+01   1.693618e+02
  -1.705970e+02   1.087808e+02
  -4.487671e+01  -2.510751e+01
  -3.272298e+01  -3.845458e+01
   1.914903e+00  -1.520350e+01
   8.529153e+00   4.314719e+01
   1.472952e+01  -3.536945e+01
  -1.730859e+01  -9.555594e+01
   2.637831e+01  -1.248632e+02
   8.887936e+01   4.888104e+01
   8.853347e+01   7.005293e+01
  -2.776599e+01   1.304362e+02
  -1.064665e+02   1.031380e+02
  -1.299411e+02  -9.052126e+01
  -3.117583e+01  -9.785373e+01
  -1.991861e+00  -4.943098e+01
   1.163827e+02   3.037732e+01
   7.200126e+01   4.963530e+01
  -2.196724e+01   2.617845e+01
  -2.464116e+01   3.302418e+01
   3.703934e+01  -7.115108e+01
   1.915578e+01   8.857254e+00
   7.737500e+01   3.386654e+01
  -8.828641e+01   6.706879e+01
  -1.571076e+02   4.174694e+01
  -7.364694e+01   2.951640e+01
   5.424023e+01  -2.371123e+01
   2.793936e+01  -1.770963e+01
   6.438008e+01  -4.603296e+01
  -6.378828e+00   8.894988e+01
  -5.475432e+01   3.110461e+01
  -2.750075e+01   3.063638e+01
  -7.227344e+01  -6.041707e+01
   4.978247e+01  -1.369470e+01
   4.867080e+01   1.138291e-01
   4.756270e+01   4.399484e+01
  -3.550815e+01   3.553836e+00
  -7.464471e+01  -4.396786e+00
   1.236460e+01  -6.471960e+00
   1.747918e+01   1.113815e+01
   5.732427e-01   1.088492e+02
  -5.094512e+01   1.741712e+01
  -4.453206e+01  -7.912187e+01
   1.276575e+00  -7.123909e+01
   2.861393e+01  -1.967236e+01
   5.909828e+01   1.908935e+01
   1.187004e+01   7.016174e+01
  -1.344906e+01   3.941544e+01
  -8.248864e+01   2.970640e+01
  -6.746805e+01  -2.593942e+01
  -8.341359e+00  -9.764713e+01
   3.977363e+01  -6.231663e+00
   2.402989e+01   1.635639e+01
  -1.056634e+01   6.610439e+00
  -3.224707e+01   5.255406e+00
   7.060880e+01   1.680102e+00
  -1.900292e+01  -2.513992e+01
