
 $NMID
 id='ANONYMOUS ', fmtdat='(2E16.6)'
 volume=1.0
 tramp=1.0
 $END
   4.534362e+03   1.039886e+02
   2.588784e+03   2.821706e+03
  -9.326042e+02   2.863286e+03
  -2.273099e+03   8.638762e+02
  -9.210558e+02  -7.469116e+02
   7.177410e+02  -5.335826e+02
   9.163231e+02   4.887164e+02
  -4.676710e+01   1.171223e+03
  -9.072205e+02   7.561824e+02
  -9.975412e+02  -1.063814e+02
  -4.226002e+02  -9.463320e+02
   3.169335e+02  -8.991543e+02
   6.676750e+02  -9.288539e+01
   4.573897e+02   7.837132e+02
  -3.173665e+02   7.878767e+02
  -6.397937e+02  -6.251246e+00
  -2.949264e+02  -7.712618e+02
   3.610676e+02  -5.966771e+02
   6.325367e+02  -6.532536e+01
   3.046523e+02   4.147850e+02
   1.797110e+01   4.291964e+02
  -2.488685e+02   3.376897e+02
  -1.976094e+02  -3.933305e+01
   1.309975e+02  -6.961058e+01
   4.045572e+02   9.075431e+01
   1.883879e+02   4.854965e+02
  -4.348289e+02   4.725402e+02
  -8.827188e+02  -1.536489e+02
  -4.361998e+02  -5.657420e+02
   4.431024e+02  -5.143325e+02
   7.912979e+02   5.862323e+01
   3.202318e+02   5.113275e+02
  -3.084107e+02   5.262925e+02
  -5.186870e+02   1.596065e+02
  -4.445924e+02  -2.089467e+02
  -5.844355e+01  -5.096610e+02
   2.265231e+02  -2.574880e+02
   2.314483e+02   2.285922e+02
  -1.401460e+02   4.811527e+02
  -4.642029e+02   1.739026e+00
  -2.040894e+02  -7.290218e+02
   3.296697e+02  -7.293303e+02
   6.942153e+02  -3.058695e+00
   2.571126e+02   6.266226e+02
  -2.907844e+02   3.390532e+02
  -4.104244e+02  -3.808118e+02
   5.402192e+01  -5.220674e+02
   5.469294e+02  -1.441263e+02
   5.819607e+02   3.980802e+02
   2.246825e+02   5.780014e+02
  -4.065647e+02   3.540314e+02
  -6.433967e+02  -1.184831e+02
  -3.575399e+02  -4.156679e+02
   2.160768e+02  -4.348361e+02
   4.052785e+02  -4.704450e+01
   2.518943e+02   1.687133e+02
  -1.813882e+02   1.482335e+02
  -1.529874e+02  -1.996468e+02
   2.088912e+02  -1.652004e+02
   3.587279e+02   8.401627e+01
   1.808449e+02   3.359101e+02
  -2.486497e+02   2.459854e+02
  -2.772100e+02   1.314622e+02
  -2.420065e+02  -7.680369e+01
   9.544690e+01  -2.723798e+02
   2.532318e+02  -2.870228e+02
   3.481240e+02  -2.148244e+02
   2.658774e+02   1.072951e+02
   1.405577e+02   4.022219e+02
  -1.403534e+02   3.758490e+02
  -1.401050e+02   7.167509e+01
  -1.958218e+01  -3.938944e+01
  -4.075335e+01   8.919499e+01
  -1.726917e+02   1.274340e+02
  -2.889364e+02   3.982019e+00
  -1.305326e+02  -2.635458e+02
   7.582624e+01  -2.509502e+02
   2.198767e+02   3.267654e+01
   1.723755e+02   2.620825e+02
  -3.921383e+01   2.798068e+02
  -3.254975e+02   1.528623e+02
  -4.167633e+02  -1.730093e+02
  -2.326344e+02  -3.441065e+02
   1.301640e+02  -3.194731e+02
   2.468923e+02  -1.103558e+02
   1.425264e+02  -1.395032e+01
   6.963105e+01  -2.966080e+01
   1.731244e+02  -4.369912e+01
   4.061808e+02   6.068945e+01
   3.430165e+02   2.850640e+02
   1.842130e+01   4.192286e+02
  -3.744245e+02   4.010282e+02
  -4.868872e+02   2.023330e+02
  -3.574679e+02  -8.775383e+01
  -9.403850e+01  -2.780228e+02
   1.418096e+02  -2.089186e+02
   1.038119e+02  -6.945762e+01
  -8.036004e+01   1.066145e+02
  -2.437350e+02  -5.539484e+01
  -7.309358e+01  -1.833303e+02
   1.338811e+02  -2.372267e+02
   1.885600e+02   7.245621e+01
  -2.858635e+01   2.384664e+02
  -1.754401e+02   2.558417e+01
  -1.438380e+02  -1.927444e+02
   1.000480e+02  -3.729482e+02
   2.045969e+02  -2.355643e+02
   3.169781e+02   6.564521e+01
   2.344627e+02   2.707642e+02
   1.291171e+02   2.392340e+02
  -1.083748e+02   1.271216e+02
  -1.835311e+02   6.466040e+01
  -1.412310e+02  -1.753072e+01
   6.493484e+01   8.146161e+01
  -1.066751e+01   1.218959e+02
  -8.237171e+01   9.238321e+01
  -2.099573e+02  -6.556918e+00
  -6.616024e+01  -1.050590e+02
   1.195842e+02   2.268229e+00
   9.214743e+01   7.201912e+01
  -1.174497e+02   1.112140e+02
  -2.568019e+02   5.873050e+01
  -2.746272e+02  -1.346843e+02
  -1.096358e+02  -2.803391e+02
   2.074350e+02  -2.324415e+02
   2.235410e+02  -7.129379e+01
   1.757405e+02   5.358377e+01
   3.737553e+01   8.454275e+01
  -9.589128e+01   3.218296e+01
   5.762406e+01  -1.290788e+02
   2.282364e+02  -5.329192e+01
   2.117631e+02   8.755576e+01
   5.493572e+01   2.210731e+02
  -2.739140e+01   2.032964e+02
  -1.241988e+02  -5.730426e+00
  -9.437471e+00  -4.327787e+01
   3.513996e+01  -1.002225e+01
   5.384184e+01   3.855449e+01
  -4.714245e+01   9.338770e+01
  -2.092362e+02   2.329596e+01
  -2.561794e+02  -1.069522e+02
   9.555757e+00  -2.169752e+02
   1.891107e+02  -1.938640e+02
   1.776039e+02  -4.075881e+01
   6.094226e+01   1.225502e+02
  -9.170367e+01   1.387414e+02
  -7.597335e+01   4.627309e+00
  -6.259129e+01  -7.535179e+01
   2.506911e+01   3.752065e+00
   5.497157e+00  -2.960087e+00
  -6.250448e+01  -2.306735e+01
  -1.173715e+02  -1.336922e+02
  -1.436530e+01  -1.641978e+02
   1.193840e+02  -2.073990e+02
   2.664445e+02   2.002641e+01
   1.717676e+02   1.580214e+02
   6.521878e+01   2.546072e+02
  -9.369495e+01   1.871186e+02
  -8.744536e+01   2.162588e+01
  -7.349794e+01  -7.045592e+01
  -4.185107e+01  -1.015639e+01
  -1.032436e+02   4.860729e+01
  -7.762410e+01   2.613281e+01
  -1.022954e+01  -9.394424e+01
   1.595504e+01  -1.107639e+02
   1.284670e+02  -3.209450e+01
   7.945542e+01  -2.574417e+01
  -6.864555e+01   1.420059e+02
  -1.584357e+02   9.130828e+01
  -2.046860e+02  -5.720332e+01
  -1.527889e+02  -1.798936e+02
   8.683796e+01  -2.126683e+02
   2.988723e+02  -9.471028e+01
   2.650169e+02   7.066780e+01
   1.154256e+02   1.942850e+02
  -7.971763e+00   1.265553e+02
  -9.425450e+01   1.125438e+02
  -8.197247e+01   7.563114e+01
  -6.352854e+01   9.827453e+01
  -1.468729e+02   1.167503e+02
  -1.172421e+02   2.752465e+01
  -7.165960e+01  -1.880104e+02
   3.379412e+01  -2.655644e+02
   1.258450e+02  -1.521706e+02
   1.845250e+02  -1.007062e+02
   1.025096e+02   1.940081e+02
  -7.469807e+00   2.355197e+02
  -7.032598e+01   5.627762e+01
  -4.687912e+01  -7.282188e+01
  -2.026418e+01  -3.571006e+01
   9.264477e+01   1.184902e+00
  -7.085107e+01  -3.869605e+01
  -9.163833e+01  -2.804587e+01
  -4.000850e+01  -2.094901e+01
   1.040469e+02  -5.239883e+01
   2.012502e+02   1.779023e+00
   1.551216e+02   5.676096e+01
  -3.248393e+00   1.193893e+02
  -1.389518e+02   8.027009e+01
  -1.177135e+02   4.705190e+01
  -9.657666e+00  -1.083079e+02
   7.130231e+01  -1.121607e+01
   1.104531e+02   4.473339e+01
   1.354937e+01   6.421375e+01
  -6.348778e+01   1.161107e+01
  -3.984960e+01  -5.160185e-01
  -6.767293e+01  -4.426906e+01
  -8.524041e+01  -7.286501e+01
  -6.816557e+01  -8.665158e+00
  -7.308604e+01   6.718887e+00
   1.938402e+01  -1.107864e+02
   8.770158e+01  -1.220305e+02
   1.123113e+02  -1.400451e+02
   1.527775e+02  -1.305345e+01
   1.035465e+02   7.785485e+01
   2.110715e+01   9.578479e+01
  -1.141785e+02   2.190475e+01
  -6.238871e+01   5.242596e+01
   9.582194e+01  -6.989910e+01
   1.134755e+02   1.128517e+02
   1.094478e+02   1.071285e+02
  -9.658185e+01   1.205669e+02
  -1.664094e+02   1.041844e+02
  -2.162481e+02  -4.269298e+01
  -4.542482e+01  -8.670410e+01
   4.567682e+01  -9.687775e+01
   5.180078e+01   4.775203e+01
  -7.113350e+01  -7.154189e+00
  -1.688453e+02  -1.785163e+01
   4.217698e+00  -1.441084e+02
   1.193331e+02  -1.591099e+02
   1.083007e+02  -7.259926e+01
   1.261927e+02   1.605198e+02
  -3.252303e-01   1.858108e+02
  -9.810814e+01   1.750214e+02
  -6.818402e+01  -3.682607e+01
  -1.101758e+01  -1.575162e+02
  -4.490483e+01  -6.735707e+01
   4.381771e+01   3.812223e+00
   6.446948e+01   7.445674e+01
   4.511730e+01   9.159288e+00
   1.370138e+01  -5.330401e-01
  -1.109109e+01   1.295026e+01
   1.011318e+02   1.242811e+02
   5.495912e+01   9.428118e+01
  -1.943828e+01   4.822819e+01
  -9.629161e+01  -6.254552e+01
  -1.482035e+02  -5.784893e+01
   1.839499e+01  -3.694199e+01
   1.494572e+02  -5.036622e+01
   1.135817e+02  -1.372109e+00
   7.659569e+00  -1.468982e+01
  -6.821511e+01   3.800513e+01
  -4.573964e+01   3.288299e+01
   6.874296e+01   1.114653e+01
   2.623268e+01  -1.957794e+01
  -8.956430e+01   5.593790e+01
  -8.770007e+01  -6.107721e+01
   1.109583e+00  -1.088197e+02
   1.001573e+02  -1.566028e+02
   2.025173e+02  -4.479610e+01
   1.682210e+02   7.962870e+01
  -1.639911e+01   1.840029e+02
  -9.710046e+01   1.562789e+02
  -8.148627e+01   1.325835e+02
  -7.152354e+01  -3.073964e+01
  -2.556594e+01  -4.312678e+01
   1.279513e+01  -1.107701e+00
   7.276247e+01   1.245662e+01
  -5.551398e+01  -5.123556e+01
  -6.301368e+01  -1.147668e+02
  -6.992275e+00  -9.151354e+01
   4.993634e+01   3.228336e+01
   5.246120e+01   1.406022e+02
  -1.862850e+01   1.393283e+02
  -1.023861e+02   5.888539e+01
  -8.296301e+01  -9.204576e+01
  -1.633361e+01  -1.055230e+02
   8.292030e+01  -3.629203e+01
   1.022655e+02   2.276016e+01
  -2.821559e+00   4.952210e+01
  -1.791282e+01   4.999655e+01
  -5.271743e+01  -2.974494e+01
   4.600511e+01   3.392748e+01
   6.080783e+01   1.742557e+01
   2.200808e-02  -4.451548e-01
  -1.188360e+02   7.528743e+01
  -1.534705e+02   4.400954e+01
  -2.317739e+01   2.453815e+01
   4.945561e+00  -6.914812e+01
   7.802040e+01  -3.672140e+01
   4.114494e+01  -3.848992e+01
   5.597124e+01   5.885100e+01
  -8.867850e+01  -2.147987e+00
  -9.265992e+01   3.918924e+00
   4.058219e+00  -4.773908e+01
   1.740237e+01  -2.958169e+01
   2.511451e+01  -4.397030e+00
   3.829819e+01   7.238608e+01
   3.703236e+01  -2.730901e+00
   1.906483e+01   2.488109e+01
   1.253308e+01  -2.481071e+01
   1.133351e+01   8.992473e+01
   1.471619e+01   2.008023e+01
  -2.529311e+01   5.111618e+01
  -3.680623e+01  -6.544006e+01
  -4.343797e+01  -1.534781e+02
   5.486800e+01  -1.414758e+01
   8.061066e+01   1.171288e+02
  -2.345797e+01   6.891988e+01
  -8.250685e+00   1.576778e+01
  -1.199900e+02  -2.603089e+01
  -2.915516e+01  -4.335445e+01
   5.085497e+01  -6.574012e+01
   4.476285e+01  -5.238465e+01
   2.548578e+01   1.274643e+01
  -6.064634e+01   1.450054e+01
  -1.306953e+01  -7.048611e+01
   4.830905e+01  -4.663408e+01
   8.694840e+01  -2.175076e+01
