
 $NMID
 id='ANONYMOUS ', fmtdat='(2E16.6)'
 volume=1.0
 tramp=1.0
 $END
   4.682951e+03   7.653865e+01
   2.630262e+03   2.913393e+03
  -9.294559e+02   2.980049e+03
  -2.340526e+03   8.182929e+02
  -9.614041e+02  -8.262436e+02
   7.876467e+02  -6.639633e+02
   9.735429e+02   5.250033e+02
  -6.772015e+01   1.165011e+03
  -9.320328e+02   7.909249e+02
  -9.502234e+02  -1.282220e+02
  -4.455155e+02  -9.529485e+02
   3.067164e+02  -1.000401e+03
   6.913927e+02  -6.035863e+01
   3.947263e+02   7.657488e+02
  -2.516531e+02   8.414537e+02
  -6.444349e+02  -3.094191e+01
  -2.511292e+02  -7.744905e+02
   3.851828e+02  -6.476156e+02
   6.268287e+02  -3.805593e+01
   3.936576e+02   3.621095e+02
   3.733358e+00   4.512309e+02
  -2.523391e+02   2.992461e+02
  -2.820957e+02  -2.950557e+01
   1.192648e+02  -9.851939e+01
   4.328884e+02   1.048041e+02
   2.150940e+02   5.155378e+02
  -4.560981e+02   4.301117e+02
  -8.978772e+02  -8.478787e+01
  -4.855184e+02  -5.523577e+02
   4.266470e+02  -5.002108e+02
   8.116919e+02   5.837853e-01
   3.894378e+02   5.255881e+02
  -2.907559e+02   5.210445e+02
  -6.173024e+02   2.185145e+02
  -4.163291e+02  -2.657118e+02
  -9.421754e+01  -5.812000e+02
   2.786103e+02  -3.926906e+02
   1.760250e+02   2.416889e+02
  -1.581029e+02   5.280203e+02
  -4.651355e+02  -2.596829e+01
  -2.888984e+02  -7.234806e+02
   2.944005e+02  -7.407367e+02
   5.810991e+02  -1.615205e+01
   3.204582e+02   6.269544e+02
  -3.724638e+02   3.857720e+02
  -4.507155e+02  -4.379089e+02
   3.436698e+01  -6.451749e+02
   6.449022e+02  -1.097077e+02
   6.329137e+02   4.400837e+02
   1.971717e+02   5.459126e+02
  -3.942237e+02   3.742942e+02
  -6.841975e+02  -7.188878e+01
  -3.885867e+02  -3.817973e+02
   1.563320e+02  -3.682562e+02
   4.855781e+02  -3.287557e+01
   2.524026e+02   1.557756e+02
  -1.699358e+02   2.002642e+02
  -2.045885e+02  -1.789355e+02
   1.867330e+02  -1.864157e+02
   3.826789e+02   7.300768e+01
   1.683173e+02   3.329694e+02
  -2.491790e+02   2.915471e+02
  -3.505471e+02   5.000652e+01
  -1.734450e+02  -1.467152e+02
   4.520819e+01  -1.935327e+02
   1.680296e+02  -2.535968e+02
   3.195459e+02  -2.410009e+02
   2.577899e+02   1.347678e+02
   4.694600e+01   4.921333e+02
  -1.159877e+02   4.037616e+02
  -1.576084e+02   1.701062e+02
  -2.681758e+01  -4.881130e+01
  -5.714171e+01   3.832486e+01
  -2.307992e+02   1.136619e+02
  -3.043089e+02  -6.563003e+01
  -1.455230e+02  -3.074331e+02
   4.208771e+01  -2.454591e+02
   2.415602e+02   3.120998e-01
   2.283650e+02   2.436852e+02
   4.915261e+00   3.171213e+02
  -2.602516e+02   1.187332e+02
  -3.854451e+02  -1.457610e+02
  -1.782969e+02  -3.728450e+02
   1.066832e+02  -2.996851e+02
   2.289898e+02  -1.407906e+02
   1.688894e+02   4.749998e+01
   3.743238e+01  -3.695747e+01
   2.356104e+02  -4.242319e+01
   3.875176e+02   8.602376e+01
   3.313137e+02   3.121736e+02
   3.072770e+01   4.377443e+02
  -3.610259e+02   4.103227e+02
  -4.617496e+02   2.024753e+02
  -3.217120e+02  -5.539468e+01
  -1.027864e+02  -3.203166e+02
   1.025543e+02  -3.261203e+02
   7.271208e+01  -2.272072e+01
  -1.458866e+02   1.555512e+02
  -2.210291e+02  -2.240757e+01
  -5.250644e+01  -2.081289e+02
   1.819522e+02  -1.179385e+02
   2.218624e+02   8.902949e+01
  -1.883517e+01   2.259409e+02
  -2.422540e+02   5.441397e+01
  -1.736816e+02  -2.692420e+02
   5.896271e+01  -3.646632e+02
   2.880528e+02  -1.333641e+02
   2.950551e+02   4.801585e+01
   2.682951e+02   2.346454e+02
   9.371884e+01   2.757875e+02
  -3.593204e+01   2.020991e+02
  -1.414856e+02   7.962191e+01
   4.466081e+00  -5.855368e+01
   1.375780e-01   3.159553e+01
   5.800655e+01   1.317101e+02
  -1.598818e+02   1.579715e+02
  -1.695032e+02  -4.293016e+01
  -1.248312e+02  -1.246340e+02
   6.222221e+01   2.105140e+01
   1.022318e+02   6.105912e+01
  -1.457051e+02   6.873784e+01
  -2.263606e+02   5.083619e+01
  -2.893800e+02  -1.187957e+02
  -1.058925e+02  -1.866017e+02
   2.282225e+02  -2.641777e+02
   2.869241e+02  -7.190448e+01
   1.567746e+02   7.976168e+01
  -1.878402e+01   1.473780e+02
  -1.224770e+02  -4.294350e+00
  -1.463736e+01  -1.141028e+02
   1.900197e+02   1.351618e+00
   2.328988e+02   7.640625e+01
   8.304854e+01   2.215971e+02
  -9.863835e+01   1.539602e+02
  -8.051974e+01   2.606282e+01
  -5.528132e+01  -5.810977e+01
   4.658755e+01   2.396125e+01
   3.156577e+01   8.854719e+01
  -8.104550e+01   8.169350e+01
  -1.997388e+02   4.891607e+01
  -1.703251e+02  -1.197493e+02
  -5.094782e+01  -2.175672e+02
   1.517851e+02  -2.046330e+02
   1.505560e+02   6.589349e+01
   9.819350e+01   1.557956e+02
  -4.908017e+01   1.741499e+02
  -5.989654e+01   3.372061e+01
   3.403081e+00  -7.314478e+00
  -2.604236e+01  -1.985060e+01
  -2.045026e+01   2.689489e+01
  -5.482826e+01   2.276063e+01
  -8.914138e+01  -1.304714e+02
  -4.722317e+01  -1.877882e+02
   1.929503e+02  -1.931136e+02
   2.183584e+02  -6.059504e+01
   1.608246e+02   1.293601e+02
   5.704655e+01   2.417503e+02
  -1.921795e+02   1.524441e+02
  -1.781752e+02   5.274296e+01
  -7.955506e+01  -6.208561e+01
  -5.768836e+01  -4.023999e+01
  -7.636585e+01  -4.590599e+01
  -8.305579e+01   1.881704e+01
  -7.484138e+01  -7.205445e+01
   7.285663e+01  -1.294083e+02
   1.062207e+02  -4.564690e+01
   1.100602e+02   4.434890e+01
   1.753646e+01   9.552166e+01
  -1.646970e+02   8.272200e+01
  -1.785452e+02  -3.857446e+01
  -9.667089e+01  -2.148106e+02
   1.424458e+02  -2.212840e+02
   2.417962e+02  -1.198440e+02
   2.329721e+02   7.390091e+01
   7.906673e+01   2.006549e+02
  -1.839740e+01   1.313245e+02
  -1.367260e+02   5.376583e+01
  -1.416131e+02   6.848852e+01
  -4.952381e+01   1.286204e+02
  -1.195024e+02   4.432236e+01
  -1.345878e+02  -2.212381e+01
  -1.303058e+02  -1.053819e+02
  -2.581270e+01  -2.978821e+02
   1.072903e+02  -1.393031e+02
   1.277575e+02  -8.549157e+01
   1.936323e+02   1.333138e+02
  -1.036994e+01   1.502328e+02
  -4.350395e+01   5.347017e+01
  -5.400081e+01   2.543512e+00
  -1.658475e+01   3.678247e+01
  -1.008238e+02  -6.407877e+00
  -3.157836e+01  -3.033389e-01
  -8.416589e+01  -3.925089e+01
  -2.132895e+01  -2.499965e+01
   9.500714e+01  -2.661368e+00
   8.303420e+01  -1.569158e+01
   1.878475e+02   5.090988e+01
   2.917969e+01   1.251177e+02
  -9.243498e+01   7.720897e+01
  -2.440548e+02   5.532865e+01
  -5.508265e+01  -2.102676e+01
   8.000446e+01  -2.066393e+01
   5.080768e+01   1.279102e+01
  -4.478149e+00   7.308668e+01
  -6.948855e+01   1.870205e+00
  -6.670443e+00  -1.598574e+01
  -6.244088e+01  -3.915201e+01
  -5.794353e+01  -2.382162e+01
  -1.026041e+02  -2.427096e+01
  -7.442911e+01   1.756821e+01
  -1.721639e+01  -7.736450e+01
   3.633016e+01  -1.087091e+02
   9.012244e+01  -1.535695e+02
   1.738354e+02  -1.670398e+01
   1.549001e+02   1.346921e+02
   3.576671e+01   1.181754e+02
  -5.993005e+01   4.658808e+01
  -9.210438e+01  -2.088114e+00
   7.940528e+01  -3.994261e+01
   1.551185e+02   3.617423e+01
   8.051975e+01   1.741141e+02
  -1.166574e+02   2.525636e+01
  -2.164984e+02   5.916800e+01
  -1.265271e+02  -5.207913e+01
  -8.825790e+00  -3.221501e+01
   5.320697e+01  -5.738752e+01
   5.108090e+01  -5.979831e+00
  -5.142342e+01  -1.547203e+01
  -7.896466e+01  -1.081989e+02
  -1.869647e+01  -1.252646e+02
   4.171735e+01  -1.207776e+02
   1.956654e+02  -4.108010e+01
   1.324225e+02   3.641284e+01
  -2.293545e+01   1.966435e+02
  -1.374845e+02   1.217043e+02
  -1.479239e+02  -1.957164e+01
  -2.321599e+01  -8.245716e+01
  -3.216608e+00  -9.071963e+01
   8.336276e+01   2.604691e+01
   3.944207e+01   6.109263e+01
   2.330938e+01   7.327061e+00
   3.213415e+01  -2.307395e+01
  -9.616377e+00   8.882564e-01
   5.864823e+01   9.057464e+01
   5.988415e+01   1.846668e+02
  -4.978560e+01   9.886687e+00
  -1.948464e+02  -2.283167e+01
  -1.396138e+02  -8.409971e+01
  -1.984704e+01  -3.874949e+01
   1.370872e+02  -4.662098e+01
   1.008505e+02   2.166487e+01
   1.917391e+01   1.300749e+00
  -2.230506e+01   8.045727e+00
   8.574614e+01   7.065066e+01
   2.502095e+01  -3.636996e+01
  -2.545411e+00  -2.187010e+01
  -9.059414e+00  -1.821997e+01
  -1.205637e+02  -4.416507e+01
   4.507093e+00  -4.549990e+01
   1.478847e+02  -9.188286e+01
   2.042979e+02  -3.649353e+01
   1.819229e+02   5.380375e+01
   3.858732e+01   1.651427e+02
  -6.484713e+01   2.068920e+02
  -1.745606e+02   7.119609e+01
  -1.057225e+02  -1.825003e+01
   6.632008e+00  -5.491660e+01
   1.925851e+01  -1.519611e+01
   1.447084e+00   1.759885e+01
  -3.845344e+01   1.945991e+00
  -2.017837e+01  -9.224927e+01
   4.145878e+01  -1.639409e+02
   9.640628e+01   8.902889e+00
   2.522880e+01   1.167392e+02
   8.790036e-01   1.330716e+02
  -8.987456e+01  -2.259917e+01
  -7.374968e+01  -1.227365e+02
  -2.530932e+01  -7.192274e+01
   4.955527e+01  -9.563683e+01
   1.099893e+02   1.552657e+01
  -1.146108e+01   7.566219e+01
  -1.624716e+01   3.707859e+01
  -9.007692e+00   7.319346e+01
  -2.373515e+01   2.462006e+01
  -1.302777e+01   2.952212e+01
   1.247336e+01   6.767317e+01
  -7.022218e+01   1.487177e+02
  -8.023821e+01   5.178255e+01
  -3.415733e+01  -3.200668e+01
  -1.388487e+01  -1.029135e+02
   4.704942e+01  -7.179945e+01
   4.656830e+01   7.037024e+01
   1.483928e+01   4.684967e+01
  -1.437333e+01   1.757249e+01
  -4.404682e+01  -6.070920e+01
  -1.555953e+01  -8.611772e+01
  -4.530695e+01   2.407648e+01
   3.493272e+01   2.096827e+01
   7.986155e+01   6.107810e+00
   5.559528e-01   2.805988e+01
  -2.533824e+01   4.087801e+01
  -2.742059e+01  -3.916673e+01
   2.678690e+01   4.243233e+01
  -8.723273e+01   3.814217e+01
  -5.643776e+01   1.100688e+01
   1.182279e+01  -6.834753e+01
  -5.698331e+01  -6.651070e+01
   8.218140e+01   7.959970e+00
   1.004448e+02   4.925832e+01
   5.549598e+01   8.093488e+01
  -9.639173e+01   3.406759e+01
  -6.667633e+01  -9.634721e+00
  -7.925602e+01  -4.332000e+01
   1.825624e+01  -4.610114e+01
   2.752417e+01  -5.832490e+01
  -2.162888e+01  -1.812398e+01
  -6.481677e+01  -5.774983e+00
   1.619277e+01  -1.739367e+01
   8.325949e+01  -7.822814e+01
   5.566554e+01  -2.685982e+00
