
 $NMID
 id='ANONYMOUS ', fmtdat='(2E16.6)'
 volume=1.0
 tramp=1.0
 $END
   3.298829e+03  -5.296493e+00
   2.123568e+03   1.670063e+03
   3.426884e+01   2.050956e+03
  -1.233968e+03   1.256157e+03
  -9.261148e+02   2.869906e+02
  -1.176703e+01  -1.663476e+02
   3.376669e+02   1.439817e+02
   3.918786e+01   5.814066e+02
  -4.364988e+02   6.006656e+02
  -6.625927e+02   4.718969e+01
  -4.022186e+02  -5.141076e+02
   6.469193e+01  -6.123726e+02
   2.768048e+02  -1.847182e+02
   1.979128e+02   3.785035e+02
  -1.078594e+02   5.179749e+02
  -3.962696e+02   7.472954e+01
  -2.682584e+02  -5.560685e+02
   1.174647e+02  -6.539045e+02
   5.155872e+02  -3.166353e+02
   4.586085e+02   1.668318e+02
   1.643736e+02   3.907025e+02
  -5.625814e+01   2.272031e+02
  -9.878289e+00   5.676398e+01
   1.787159e+02   7.645507e+01
   3.038684e+02   2.608816e+02
   7.666449e-01   4.125862e+02
  -5.406734e+02   1.016970e+02
  -6.478404e+02  -1.858888e+02
  -1.743943e+02  -4.003116e+02
   3.479119e+02  -1.489160e+02
   4.981815e+02   1.163837e+02
   1.932892e+02   3.595072e+02
  -3.209997e+02   3.393844e+02
  -5.151548e+02   1.101526e+02
  -3.397497e+02  -9.139975e+01
  -1.245312e+02  -3.320715e+02
   1.865800e+01  -2.257747e+02
  -5.789025e+01   7.368440e+01
  -1.832510e+02   9.475188e+01
  -2.582873e+02  -2.038229e+02
   3.913088e+01  -5.423068e+02
   2.395031e+02  -4.349314e+02
   3.843927e+02  -3.624230e+01
   8.996479e+01   2.701039e+02
  -1.673785e+02   1.855883e+02
  -1.361047e+02  -3.033643e+02
   1.745525e+02  -4.060465e+02
   3.861089e+02  -6.490306e+01
   4.827325e+02   3.567866e+02
   1.289657e+02   5.264455e+02
  -2.912293e+02   2.462047e+02
  -5.268391e+02  -8.964447e+01
  -2.938036e+02  -2.543386e+02
   3.282586e+01  -2.395200e+02
   2.502522e+02  -7.156130e+01
   2.314184e+02   4.063059e+01
   1.637405e+01  -1.865508e+01
  -6.711279e+01  -5.439064e+01
   1.388861e+02  -2.951287e+01
   1.940330e+02   2.878940e+01
   1.218494e+02   1.605644e+02
  -1.390980e+02   2.494732e+02
  -3.363890e+02   1.325028e+02
  -2.749094e+02  -1.024135e+02
   4.285077e+01  -2.820391e+02
   2.994440e+02  -3.617450e+02
   3.703589e+02  -1.824144e+02
   2.638594e+02   1.551862e+02
   8.274786e+01   4.064356e+02
  -6.493937e+01   3.252964e+02
   2.032684e+01   2.033783e+02
   2.295329e+00   9.622602e+01
  -1.281285e+02   1.388017e+02
  -2.494400e+02   7.952202e+01
  -3.192581e+02  -1.507987e+02
  -1.242284e+02  -2.424046e+02
   1.350834e+02  -2.189212e+02
   1.530461e+02   9.538907e+01
   1.665603e+02   1.907678e+02
  -1.375801e+02   1.973803e+02
  -2.821626e+02   4.722163e+01
  -2.312542e+02  -1.862523e+02
  -1.357965e+02  -2.599644e+02
   8.730458e+01  -2.702698e+02
   1.803054e+02  -1.588455e+02
   1.860922e+02  -1.157066e+02
   1.853218e+02  -5.054496e+01
   3.040986e+02  -3.143374e+01
   4.330441e+02   1.499502e+02
   2.558224e+02   3.068545e+02
   2.013662e+01   4.510824e+02
  -4.326679e+02   4.190243e+02
  -5.436815e+02   1.848722e+02
  -3.042203e+02  -1.306227e+02
  -2.572947e+01  -2.824986e+02
   1.121671e+02  -2.221376e+02
   3.949041e+01  -5.843685e+01
  -1.252891e+02   5.858403e+01
  -9.784140e+01  -2.340760e+01
  -3.557847e+01  -1.639055e+02
   1.856924e+02  -9.301028e+01
   1.581699e+02   7.244872e+01
  -5.883279e+01   7.095896e+01
  -1.564286e+02  -7.507176e+00
  -1.389692e+02  -2.841558e+02
  -1.217345e+01  -3.789979e+02
   1.930297e+02  -1.943855e+02
   3.306820e+02   1.048258e+02
   3.001459e+02   2.871587e+02
   8.360010e+01   3.598859e+02
  -1.235493e+02   1.246408e+02
  -2.067591e+02  -7.390681e+00
  -2.365196e+01  -4.596134e+01
   7.799285e+01   2.952523e+01
  -3.924382e+01   1.761306e+02
  -1.160707e+02   1.304190e+02
  -1.669997e+02  -4.435261e+01
  -4.990090e+00  -8.252089e+01
   1.180634e+02   1.438328e+01
   2.685092e+01   9.619691e+01
  -1.645698e+02   1.104598e+02
  -2.889503e+02  -1.838411e+01
  -2.587902e+02  -1.274111e+02
  -4.122307e+01  -3.035585e+02
   1.768621e+02  -1.730143e+02
   2.824831e+02  -7.609843e+01
   1.142333e+02   7.699283e+01
  -5.125394e+01   3.345123e+01
  -4.176840e+01  -2.673485e+01
   7.118386e+01  -1.239338e+02
   1.765688e+02   2.263393e+01
   2.049072e+02   1.600739e+02
   1.392584e+02   1.979290e+02
  -1.316182e+02   1.328228e+02
  -1.105802e+02  -2.337212e+01
  -5.443521e+01  -1.593888e+01
   8.754970e+01   6.740127e+01
   1.043399e+02   1.020921e+02
  -1.352312e+02   1.243041e+02
  -2.508771e+02  -1.326119e+01
  -2.064510e+02  -1.879460e+02
  -2.044229e+01  -1.974720e+02
   1.843564e+02  -1.536246e+02
   2.331733e+02   9.678329e+00
   5.301038e+01   5.841729e+01
  -5.471453e+01   1.020103e+02
  -6.213437e+01   5.924385e+01
  -4.427704e+01   3.160105e+01
   2.862621e+01  -7.111121e+01
   6.201506e+00   2.033589e+00
  -1.432515e+02  -1.000478e+01
  -1.428916e+02  -1.322722e+02
   2.215132e+01  -1.904529e+02
   1.266078e+02  -1.561966e+02
   2.091192e+02  -7.528348e+00
   1.851466e+02   1.610540e+02
   5.676994e+01   1.901686e+02
  -1.414260e+02   1.849832e+02
  -1.629867e+02  -3.873967e+01
  -3.943047e+01  -7.057300e+01
  -1.748293e+01   1.210088e+00
  -6.730562e+01  -1.662149e+01
  -1.071610e+02   7.241498e+01
  -1.172049e+01  -7.976650e+01
   5.741704e+01  -1.116785e+02
   2.064980e+02  -6.479323e+01
   7.049800e+01   9.137195e+01
  -3.834257e+00   1.464004e+02
  -1.887728e+02   1.191911e+02
  -1.588441e+02  -8.835472e+01
  -7.150925e+01  -2.509515e+02
   1.394814e+02  -1.773330e+02
   2.343312e+02  -1.167641e+02
   2.921944e+02   7.363347e+01
   1.135881e+02   2.132596e+02
  -4.553181e+01   1.792957e+02
  -7.081677e+01   1.062585e+02
  -4.351670e+01   4.960295e+01
  -4.949407e+01   1.551517e+02
  -1.066795e+02   6.913498e+01
  -9.315169e+01  -4.093944e+01
  -1.016536e+02  -1.259401e+02
  -4.698067e+01  -2.358244e+02
   7.997069e+01  -1.513820e+02
   1.777229e+02   3.488064e+01
   1.491921e+02   1.566123e+02
   1.453721e+01   1.447904e+02
  -4.046687e+01   6.927039e+01
  -3.862965e+01   8.082055e+00
  -4.805119e+00  -8.569376e+01
   2.310240e+01  -6.743940e+00
  -4.665104e+01  -1.157373e+01
  -1.020931e+02  -3.149700e+01
  -3.777514e+01  -5.113325e+01
   1.282267e+02  -5.774098e+01
   1.789138e+02  -8.115668e+01
   1.706189e+02   7.747418e+01
  -1.865239e+01   1.357399e+02
  -1.423397e+02   9.481131e+01
  -1.438500e+02   8.833440e+00
   4.282088e+00  -3.852036e+01
  -3.294252e+00  -4.174053e+01
   2.050045e+01   1.792358e+01
   7.404737e+01   6.707594e+01
  -2.233277e+01   5.425135e+01
  -7.785158e+01   3.702400e+00
  -6.337657e+01  -3.024776e+01
  -1.110772e+01  -8.488449e+01
  -7.477154e+01  -5.376281e+00
  -1.101166e+02   7.554492e+00
  -9.088826e+01  -5.332149e+01
  -1.664469e+01  -1.476072e+02
   1.690749e+02  -7.358587e+01
   1.610955e+02  -9.582020e+01
   1.076222e+02   8.774198e+01
   2.434391e+01   1.571707e+02
  -1.054177e+02   7.637513e+01
  -1.019421e+02  -5.942163e+01
   4.494255e+01  -2.877875e+01
   8.732406e+01   4.587352e+01
   1.037275e+02   1.737304e+02
  -1.194532e+02   1.251684e+02
  -1.730558e+02   5.481167e+01
  -1.307369e+02  -1.926946e+01
   9.928979e-01  -8.377964e+01
   5.403826e+01  -7.487175e+01
   4.824481e+01   5.494000e+00
  -3.777441e+01   6.913835e+01
  -7.270528e+01  -7.608944e+00
  -5.447061e+00  -1.681172e+02
   2.997841e+01  -1.688517e+02
   9.459435e+01  -3.303987e+01
   9.927673e+01   9.710964e+01
  -1.073375e+01   1.602751e+02
  -8.310713e+01   1.512202e+02
  -3.704577e+01  -2.471229e+01
  -1.487160e+01  -1.754705e+02
   1.487860e+01  -1.114298e+02
   3.306215e+01  -5.693602e+01
   4.569902e+01   5.007361e+01
  -3.934308e+00  -5.023882e+01
  -5.129212e+01   1.671310e+01
   1.648768e+00   3.485145e+01
   3.120492e+01   3.314039e+01
   4.626414e+01   8.451473e+01
  -6.405436e+01   7.857653e+01
  -1.475300e+02  -9.104952e+01
  -4.716601e+01  -1.247238e+02
  -1.872336e+01  -2.353612e+01
   7.004105e+01  -5.765423e+01
   6.221178e+01  -8.801546e-01
  -3.930327e+01   2.157100e+01
  -3.674210e-01   1.627714e+01
  -3.625398e+01   1.875528e+01
   2.515683e+01   4.726164e+01
  -2.545325e+01   4.037702e+00
  -2.136710e+01   5.050892e+00
  -1.262766e+02  -5.858519e+01
  -1.759264e+01  -8.115136e+01
   9.049584e+01  -1.513392e+02
   2.100526e+02  -2.969351e+01
   1.970007e+02   1.050363e+02
   4.394534e-01   1.255177e+02
  -1.243135e+02   1.199943e+02
  -1.304278e+02   1.111170e+02
  -8.846570e+01   1.050685e+01
  -2.522334e+01  -2.214140e+01
   1.900262e+00  -2.968129e+00
  -5.285730e+00   4.844680e+01
  -6.535559e+01  -8.047613e+01
  -3.335444e+00  -4.632210e+01
   4.045084e+01  -8.775003e+01
   5.060478e+01   2.001579e+00
   1.008485e+02   1.843931e+02
   3.346645e+01   1.314904e+02
  -1.247448e+02   2.933254e+01
  -1.142440e+02  -3.981483e+01
  -9.454411e+01  -1.523324e+02
   8.646065e+01   2.633721e+01
   1.106250e+02   3.742261e+01
   9.339436e+01   3.329510e+01
  -5.608428e+01   5.690226e+01
  -1.407536e+01   2.738434e+01
   2.559315e+01  -2.811799e+01
   4.059679e+01  -9.324719e+01
   1.512139e+01   2.321022e+01
  -9.065869e+01   2.040430e+01
  -9.711015e+01   5.125943e+01
  -1.078519e+02  -2.182472e+01
   2.973783e+01  -5.430503e+01
   8.788623e+01  -1.151315e+02
  -2.688356e+00   1.753983e+01
  -2.394952e+01   5.967070e+01
  -7.215300e+01   4.419129e+01
   2.649729e+00   5.019067e+01
  -7.163998e+01  -4.057087e+01
  -6.553324e+01  -4.185341e+01
  -7.451400e+00  -4.236971e+01
   4.515359e+01   5.612769e+01
   3.470617e+01   3.125742e+01
  -1.268604e+01  -6.587515e+01
   5.326334e+01  -2.726682e+01
   1.892777e+01   1.850182e+01
  -4.876269e+01   2.682611e+01
  -3.253891e+01  -5.252287e+00
  -5.229500e+01   3.957078e+01
  -2.701648e+01  -6.729433e+01
   4.246078e+01  -8.595629e+01
   7.040860e+01  -1.883599e+01
  -5.643008e+00   7.908475e+01
  -4.468621e+01   7.665200e+01
  -1.176512e+02   6.864683e+00
  -4.859488e+01  -6.837477e+01
   2.900703e+01  -1.265524e+02
   6.869613e+01   1.128566e+00
  -2.757403e+01   2.372261e+01
  -2.912003e+01   1.597670e+01
  -2.974849e+01   1.061432e+00
   7.682745e+00   1.405609e+00
   1.086609e+02  -6.413329e+01
