
 $NMID
 id='ANONYMOUS ', fmtdat='(2E16.6)'
 volume=1.0
 tramp=1.0
 $END
   4.529338e+03  -8.085283e+01
   2.637024e+03   2.697403e+03
  -7.794551e+02   2.929051e+03
  -2.217926e+03   9.473773e+02
  -1.062301e+03  -7.339121e+02
   7.080165e+02  -6.528012e+02
   9.900564e+02   4.250294e+02
   3.801257e+01   1.097993e+03
  -8.171776e+02   8.510703e+02
  -1.004726e+03  -1.468096e+02
  -5.088909e+02  -9.437141e+02
   2.587646e+02  -9.355851e+02
   6.774029e+02  -1.324838e+02
   4.540662e+02   7.571462e+02
  -2.149098e+02   7.953898e+02
  -6.114715e+02   3.127525e+01
  -2.857193e+02  -7.924036e+02
   3.677327e+02  -6.986466e+02
   6.303975e+02  -3.833069e+01
   4.493200e+02   4.007166e+02
   5.646406e-01   4.495127e+02
  -2.139019e+02   2.565040e+02
  -1.800130e+02  -2.445223e+01
   8.116182e+01  -1.016550e+02
   4.399288e+02   1.180626e+02
   2.328342e+02   4.609593e+02
  -4.997223e+02   4.359683e+02
  -8.701190e+02   1.856100e+00
  -4.490908e+02  -5.260901e+02
   4.381491e+02  -4.953850e+02
   7.985105e+02   4.214267e+01
   3.609866e+02   5.098242e+02
  -2.849478e+02   5.095653e+02
  -6.209896e+02   2.896988e+02
  -4.086555e+02  -2.167901e+02
  -5.605974e+01  -4.343208e+02
   1.710676e+02  -2.709407e+02
   1.330930e+02   2.097141e+02
  -1.125660e+02   4.702744e+02
  -4.215361e+02  -8.358371e-01
  -2.358062e+02  -7.054662e+02
   3.233405e+02  -8.130617e+02
   6.646281e+02  -5.814449e+01
   3.190042e+02   5.197948e+02
  -2.996904e+02   3.192213e+02
  -3.860737e+02  -3.530728e+02
   9.264008e+01  -4.822035e+02
   6.040164e+02  -1.067599e+02
   6.526693e+02   4.339771e+02
   1.869127e+02   6.158598e+02
  -3.545284e+02   3.967217e+02
  -6.296672e+02  -6.432487e+01
  -3.825738e+02  -3.640671e+02
   1.108968e+02  -3.940521e+02
   4.535887e+02  -1.199376e+02
   2.800571e+02   1.956045e+02
  -6.282054e+01   1.152051e+02
  -1.747682e+02  -1.757349e+02
   1.333791e+02  -1.743985e+02
   3.890928e+02   5.503264e+01
   1.719874e+02   2.643682e+02
  -2.353066e+02   2.462117e+02
  -3.384946e+02   6.760314e+01
  -2.474977e+02  -5.255842e+01
  -2.829024e+01  -1.964622e+02
   2.304667e+02  -3.312284e+02
   3.842637e+02  -2.496817e+02
   3.152833e+02   2.088874e+02
   1.395624e+02   5.149891e+02
  -6.871580e+01   4.328035e+02
  -1.334720e+02   8.741719e+01
  -7.056623e+01   1.043343e+01
  -7.217733e+00   9.036803e+01
  -1.939363e+02   1.204076e+02
  -2.873542e+02  -4.793886e+01
  -1.477564e+02  -2.540120e+02
  -3.611739e+01  -3.145335e+02
   2.044327e+02   2.297477e+01
   1.888929e+02   2.884112e+02
   6.590880e+01   3.119160e+02
  -2.742217e+02   1.075682e+02
  -3.044868e+02  -2.165233e+02
  -1.812912e+02  -3.845059e+02
   1.044248e+02  -2.848124e+02
   2.697540e+02  -1.572419e+02
   1.211597e+02   2.109232e+00
   7.670309e+01  -8.661077e+01
   2.507724e+02  -5.671948e+01
   4.070113e+02   8.073055e+01
   3.760376e+02   2.586149e+02
  -1.326607e+01   5.054322e+02
  -3.622684e+02   4.491324e+02
  -4.437088e+02   2.012042e+02
  -4.048212e+02  -8.896567e+01
  -2.787266e+01  -3.627245e+02
   1.153195e+02  -2.887716e+02
   7.937090e+01  -5.490397e+01
  -6.853052e+01   1.545595e+02
  -2.163057e+02   1.529135e+00
  -6.160374e+01  -1.459841e+02
   1.125686e+02  -2.007588e+02
   2.275570e+02   2.228508e+01
   5.531342e+01   1.767299e+02
  -2.115617e+02   4.830873e+01
  -1.945609e+02  -1.984640e+02
   6.638350e+01  -3.362693e+02
   2.798238e+02  -1.425504e+02
   3.183486e+02   7.848860e+01
   3.297823e+02   2.250324e+02
   1.340536e+02   2.689221e+02
  -1.098800e+02   1.696759e+02
  -1.807546e+02   4.895236e+00
  -5.966009e+01  -7.835826e+01
   6.595196e+01   8.493733e+01
   2.392770e+01   8.241029e+01
  -1.199006e+02   8.882964e+01
  -1.692578e+02  -1.607569e+01
  -7.730675e+01  -7.683396e+01
   6.962401e+01   2.354405e+01
   7.543852e+01   1.240682e+02
  -1.552985e+02   9.126073e+01
  -3.406229e+02  -7.661044e+00
  -2.526922e+02  -1.145690e+02
  -3.598411e+01  -2.340163e+02
   1.310824e+02  -3.480763e+02
   3.078607e+02  -1.297740e+02
   1.762989e+02   1.925732e+01
   7.507003e+01   1.535147e+02
  -1.406860e+02  -8.689987e+00
   9.006124e+01  -8.927805e+01
   2.129514e+02  -7.235176e+01
   2.762498e+02   1.128721e+02
   1.245202e+02   2.046378e+02
  -4.205541e+01   7.942950e+01
  -1.449597e+02   4.488161e+01
  -9.217466e+01  -3.165149e+01
   5.836608e+01   1.343839e+01
   4.790957e+01   9.490477e+01
  -5.013670e+01   8.716238e+01
  -2.278837e+02   8.230454e+00
  -1.917821e+02  -1.329782e+02
   7.222546e+00  -2.346431e+02
   1.656765e+02  -1.783668e+02
   1.918818e+02  -5.548204e+01
   2.045475e+01   1.007189e+02
  -6.136415e+01   1.470491e+02
  -7.144997e+01   1.965190e+01
  -4.303402e+01   1.200557e+01
  -2.477428e+01  -6.086686e+01
  -9.843341e+00  -4.966666e+01
  -5.494777e+01  -1.698510e+01
  -1.255793e+02  -4.492918e+01
  -4.063289e+00  -2.422058e+02
   1.274405e+02  -7.697304e+01
   2.902016e+02  -5.473086e+01
   2.051667e+02   1.513958e+02
   2.623694e+01   1.898490e+02
  -1.126228e+02   1.223917e+02
  -1.569438e+02   1.865951e+01
  -6.745567e+01   2.126324e+01
  -2.883698e+01  -4.922281e+01
  -6.419511e+01   2.091227e+01
  -1.254089e+02   3.057822e+01
  -4.726136e+01  -6.064956e+01
   3.888823e+01  -8.490415e+01
   6.262225e+01  -9.158466e+01
   2.010776e+01   1.297505e+01
   2.450303e+00   1.140471e+02
  -1.376003e+02   1.368581e+02
  -1.538061e+02  -2.319264e+01
  -7.846747e+01  -2.081088e+02
   7.951443e+01  -2.263492e+02
   2.909236e+02  -1.724177e+02
   2.959158e+02   1.006576e+02
   7.438180e+01   1.817941e+02
  -2.806691e+01   1.105659e+02
  -7.226134e+01   6.574775e+01
  -5.621808e+01   1.221210e+02
  -9.610779e+01   1.475890e+02
  -8.671276e+01   8.753611e+01
  -1.517298e+02   2.401525e+01
  -1.041332e+02  -1.427806e+02
   4.812934e+00  -2.381856e+02
   1.879076e+02  -1.623329e+02
   1.923025e+02  -4.845381e+01
   2.078778e+02   1.269274e+02
   9.476370e+01   1.477174e+02
  -4.098600e+01   1.057425e+02
  -6.180752e+01   1.356211e+01
  -9.237498e+00  -5.818280e+01
   5.662451e+00  -3.442246e+01
  -2.863117e+01  -2.043105e+01
  -6.730962e+01   5.146634e-01
  -1.173637e+01  -9.151451e+01
   5.105917e+01  -6.769120e+01
   1.867527e+02   1.557444e+01
   1.614249e+02   3.072684e+01
   2.202058e+01   5.426066e+01
  -8.207681e+01   6.481765e+01
  -1.324466e+02   1.041776e+01
  -2.763079e+01  -4.454392e+01
   3.287795e+01  -3.513964e+01
   3.246132e+01   5.368677e+00
   4.690931e+01   6.520071e+01
  -1.102808e+02   2.044188e+01
  -1.055606e+02  -3.280030e+01
  -4.939810e+01  -5.528011e+01
  -5.338531e+01  -3.968674e+01
  -9.217336e+01   1.234502e+01
  -1.005086e+02  -8.738752e+00
   2.262686e+01  -7.676524e+01
   3.963313e+00  -1.811432e+02
   6.543834e+01  -2.180131e+02
   1.486754e+02  -3.129351e+01
   1.718599e+02   2.634026e+01
   1.231381e+01   1.315550e+02
  -7.167480e+01   4.456338e+01
  -5.597433e+01   5.855925e+00
   9.392407e+01  -4.352075e+01
   1.239287e+02   7.393965e+01
   1.050503e+02   9.591286e+01
  -1.762823e+02   1.496361e+02
  -2.400390e+02   7.737084e+01
  -1.555642e+02  -3.547227e+01
  -1.352496e+00  -1.139619e+02
   8.026275e+01  -1.534998e+02
   5.946520e+01  -2.576629e+01
  -2.942151e+01   1.717791e+01
  -1.141640e+02  -9.739363e-01
  -3.692985e+01  -8.212969e+01
   3.650520e+01  -1.634186e+02
   2.047786e+02  -3.514246e+01
   1.247279e+02   6.195671e+01
   5.945888e+00   2.245123e+02
  -1.019638e+02   1.444274e+02
  -1.121401e+02   3.334203e+01
  -1.103322e+02  -1.093298e+02
  -2.280872e+01  -7.774955e+01
   4.727626e+01  -8.733879e+00
   2.371536e+01   2.906873e+01
   4.597142e+00   3.213359e+01
  -2.439527e+01  -3.783936e+01
   1.472305e+01  -3.929029e+00
   5.956347e+00   1.439888e+02
   3.652952e+01   1.267523e+02
   3.809719e+01   8.011420e+00
  -9.962048e+01  -6.866708e+01
  -1.211648e+02  -4.048275e+01
  -4.705735e+01  -4.377761e+01
   5.401744e+01   5.323616e+00
   9.000873e+01  -3.223773e+01
   4.276230e+01   4.571341e+01
  -4.971750e+01   2.279745e+01
  -3.309443e+01   2.253148e+01
  -1.421525e+01   2.340802e+01
   3.836038e+01  -5.837879e+01
  -1.013468e+02   2.725001e+01
  -1.013077e+02  -2.559391e+01
  -4.058238e+01  -4.014097e+01
   8.617321e+01  -7.766372e+01
   2.237725e+02  -3.018717e+01
   1.840619e+02   7.169577e+01
   5.154251e+01   1.946175e+02
  -1.760874e+01   1.140982e+02
  -7.433036e+01   8.032184e+01
  -1.524533e+02  -3.467947e+00
  -3.446477e+01  -1.850524e+01
   6.604286e-01  -3.923272e+01
  -1.034178e+01   4.383983e+00
  -1.341609e+01  -1.183086e+02
  -2.232670e+01  -7.785494e+01
   6.252482e+01  -5.826481e+01
   7.016102e+01  -7.209731e+00
   4.561732e+01   7.945018e+01
   3.226940e+01   1.371556e+02
  -7.046707e+01   4.400783e+01
  -9.262849e+01  -1.071580e+02
  -7.958997e+01  -1.186745e+02
   6.991606e+01  -8.811585e+01
   1.251812e+02  -2.103278e+01
   7.274338e+01   4.874242e+01
   6.915081e+01   6.176004e+01
  -3.166743e+01   9.148228e+01
   8.935980e+01   4.899595e-01
   7.742381e+01  -3.553438e+01
   9.770811e+01  -1.922966e+01
  -8.794739e+01   3.586453e+01
  -1.277344e+02   5.456057e+01
  -2.751031e+01   2.104943e+01
   6.692985e+01  -1.263184e+02
   5.154487e+01  -2.151068e+01
   5.511215e+01  -5.618711e+00
   2.961877e+01   1.524868e+01
  -2.448871e+01   9.759187e+01
  -9.647106e+01  -1.894234e+01
  -7.067485e+01  -7.965860e+01
   3.690917e+01  -7.476522e+01
   3.359847e+01   7.503020e+00
   8.708779e+01   8.747312e+00
   5.727075e+01  -4.953229e+01
  -3.594646e+01  -2.010174e+01
   6.122522e+01  -4.107070e+01
   5.632229e+01   3.310760e+01
  -1.390464e+00  -2.929893e+01
  -5.589597e+01   3.094292e+01
  -4.206327e+01  -3.391947e+01
   3.428356e+01  -1.294872e+02
   8.704511e-01  -1.511892e+01
   8.109662e+01   1.976889e+01
  -8.243728e+00   7.737543e+01
  -8.067785e+01   6.635501e+01
  -7.702552e+01  -7.937842e+01
  -9.978150e+01  -2.494138e+01
   4.405437e+01  -6.175996e+01
   8.366456e+01  -1.832802e+01
   6.185034e-01   1.378137e+01
  -2.198796e+01   1.068556e+01
  -1.120831e+01  -1.502813e+01
   4.295665e+01  -1.111138e+02
   1.003914e+02  -5.232258e+01
