
 $NMID
 id='ANONYMOUS ', fmtdat='(2E16.6)'
 volume=1.0
 tramp=1.0
 $END
   3.532928e+03  -1.219157e+02
   2.306938e+03   1.802916e+03
  -1.279289e+02   2.309301e+03
  -1.479858e+03   1.226808e+03
  -9.937849e+02   3.434273e+01
   1.387731e+02  -3.256151e+02
   5.314913e+02   2.279844e+02
   4.954173e+01   6.968922e+02
  -5.118043e+02   6.177807e+02
  -7.019339e+02   4.734330e+01
  -4.713685e+02  -5.718562e+02
   5.480191e+01  -7.240419e+02
   4.224387e+02  -2.012410e+02
   2.996752e+02   5.475598e+02
  -1.513781e+02   5.963114e+02
  -4.888182e+02   7.338269e+01
  -3.534214e+02  -5.056484e+02
   1.320316e+02  -6.689756e+02
   5.157892e+02  -2.413780e+02
   4.399902e+02   1.798027e+02
   1.119532e+02   3.767203e+02
  -1.194155e+02   2.265599e+02
  -9.152523e+01   7.193338e+01
   1.936386e+02   2.410873e+01
   3.289452e+02   2.009807e+02
  -2.052511e+01   4.296306e+02
  -4.555935e+02   2.176893e+02
  -6.470164e+02  -1.190039e+02
  -3.170366e+02  -4.002747e+02
   3.159162e+02  -3.026627e+02
   5.211852e+02   1.552121e+02
   1.956305e+02   3.859888e+02
  -2.744278e+02   4.273439e+02
  -4.079217e+02   1.683272e+02
  -3.361022e+02  -1.486322e+02
  -1.310933e+02  -3.244522e+02
   6.889063e+01  -1.937210e+02
   1.207751e+01   1.449875e+02
  -1.519601e+02   1.982630e+02
  -2.657899e+02  -1.324297e+02
  -1.129753e+02  -5.837639e+02
   2.342356e+02  -5.672427e+02
   3.421667e+02   7.400696e+00
   1.538471e+02   3.947561e+02
  -1.677942e+02   1.207533e+02
  -2.471556e+02  -2.322871e+02
   8.724010e+01  -4.257530e+02
   4.579970e+02  -1.053359e+02
   4.669975e+02   3.375923e+02
   2.111057e+02   4.840604e+02
  -3.338875e+02   3.109088e+02
  -6.444477e+02  -3.859494e+01
  -3.675057e+02  -2.786145e+02
   3.562670e+01  -2.558854e+02
   2.874142e+02  -7.462919e+01
   1.999759e+02   1.266796e+02
  -3.510677e+01  -2.386991e+00
  -3.546373e+01  -6.801216e+01
   1.692880e+02  -9.250236e+01
   2.519842e+02   4.847677e-01
   1.171909e+02   2.287110e+02
  -1.734374e+02   2.623014e+02
  -3.841192e+02   1.273510e+02
  -2.770683e+02  -7.329230e+01
   2.352934e+01  -3.161816e+02
   2.724748e+02  -3.948636e+02
   3.236897e+02  -1.717968e+02
   2.411791e+02   1.428074e+02
   9.837331e+01   4.084069e+02
   1.817044e+01   3.037689e+02
  -1.093060e+01   2.250893e+02
  -4.974860e+01   6.934856e+01
  -1.177600e+02   1.466239e+02
  -2.604742e+02   1.146967e+02
  -3.010210e+02  -4.797980e+01
  -9.283169e+01  -2.347576e+02
   7.197478e+01  -2.058580e+02
   2.014219e+02   4.724185e+01
   1.483132e+02   2.221429e+02
  -6.656414e+01   2.080614e+02
  -2.482978e+02   6.819039e+01
  -3.194568e+02  -1.390232e+02
  -2.285897e+02  -2.862071e+02
   3.971410e+01  -2.701962e+02
   1.677904e+02  -1.807199e+02
   1.495096e+02  -1.006243e+02
   1.382409e+02  -6.240637e+01
   2.297290e+02  -8.655114e+01
   4.496938e+02   4.673292e+01
   3.204302e+02   2.309253e+02
  -1.676718e+01   4.695116e+02
  -3.346498e+02   3.808456e+02
  -4.588773e+02   2.118604e+02
  -3.093991e+02  -8.458713e+01
   2.466379e+01  -2.584031e+02
   1.413474e+02  -1.938056e+02
  -1.386172e+01  -1.985958e+01
  -1.530298e+02   9.624450e+01
  -1.803689e+02  -7.967306e+01
  -6.045051e+01  -1.931852e+02
   1.605848e+02  -1.357398e+02
   9.626496e+01   5.251681e+01
  -2.148563e+01   1.787533e+02
  -9.652025e+01   3.051981e+01
  -1.740751e+02  -1.934715e+02
   4.026405e+01  -3.954305e+02
   3.013291e+02  -2.399160e+02
   3.640011e+02  -1.847494e+00
   3.044452e+02   2.655866e+02
   2.010860e+01   2.309999e+02
  -1.346051e+02   1.087809e+02
  -9.986685e+01  -1.050950e+01
   1.647922e+01   5.086505e+00
   1.033293e+02   4.333275e+01
  -2.360371e+01   1.059824e+02
  -1.542876e+02   8.595896e+01
  -1.798406e+02  -6.888317e+01
  -5.259891e+01  -7.958440e+01
   9.359815e+01  -4.303684e+01
   3.903653e+01   8.246931e+01
  -1.896701e+02   1.025716e+02
  -3.111305e+02  -1.133168e+01
  -2.770606e+02  -1.893082e+02
  -3.878232e+01  -2.296048e+02
   1.857742e+02  -2.618475e+02
   3.158676e+02  -1.141367e+02
   1.294723e+02  -5.516858e+00
   2.855977e+01   8.314101e+01
  -6.137431e+01  -3.206907e+01
   4.290845e+01  -9.681883e+01
   2.095323e+02  -1.915906e+01
   1.914928e+02   1.487179e+02
   5.162045e+01   1.596398e+02
  -1.039052e+02   1.711454e+02
  -8.780529e+01  -6.725007e+01
  -1.651394e+01  -1.439764e+02
   9.449165e+01   6.449119e+01
   2.908589e+00   7.152481e+01
  -7.914337e+01   1.091686e+02
  -2.049663e+02  -8.378900e+00
  -1.315587e+02  -1.013580e+02
   3.958143e+00  -2.310376e+02
   1.155771e+02  -1.085041e+02
   1.477031e+02   3.023510e+01
   4.453064e+01   8.477569e+01
  -6.047469e+01   2.084777e+01
  -8.869714e+01   7.613106e+01
  -2.202103e+00  -6.676399e+00
   3.665812e+01  -5.404489e+01
  -1.750482e+01  -1.905490e+01
  -5.858842e+01   6.884064e+00
  -1.641802e+02  -1.251654e+02
   4.970824e+01  -1.820416e+02
   1.562759e+02  -1.722355e+02
   2.113202e+02  -2.444119e+01
   1.746868e+02   1.813528e+02
   7.478746e+01   2.137722e+02
  -1.154022e+02   2.209507e+02
  -1.501578e+02   4.464426e+01
  -1.284378e+02  -3.549076e+01
  -4.261568e+01  -6.446720e+01
  -2.459924e+01  -5.484032e+00
  -1.265535e+02   6.997868e+00
  -7.996109e+01  -2.145461e+01
   5.334629e+00  -1.027196e+02
   1.009210e+02  -4.673814e+01
   1.532647e+02   2.305804e+00
  -2.177683e+01   1.083677e+02
  -1.269325e+02   6.329250e+01
  -1.791508e+02  -1.166585e+02
  -8.035384e+01  -1.973296e+02
   1.546359e+02  -2.333917e+02
   2.167971e+02  -1.356403e+02
   2.366501e+02   7.918617e+01
   1.253236e+02   1.862907e+02
  -6.941905e+01   1.155203e+02
  -2.400121e+01   8.631754e+01
  -1.221062e+02   7.378480e+01
  -5.500879e+01   8.035199e+01
  -8.320786e+01   5.625225e+01
  -1.507051e+02   7.631814e+00
  -1.883952e+02  -2.129677e+02
   1.564853e+01  -1.966370e+02
   1.166566e+02  -1.748252e+02
   1.877267e+02   9.749786e-01
   1.156561e+02   1.702881e+02
  -6.954172e+01   2.391674e+02
  -1.141581e+02   1.106797e+02
  -3.263695e+01   1.433133e+01
   3.912316e+00  -6.825041e+01
   2.180259e+01   2.404703e+01
  -5.295250e+01  -6.065799e+00
  -1.248732e+02   3.433447e+00
  -2.127611e+01   1.255259e+01
   9.902364e+01  -6.846805e+01
   1.697196e+02   3.094995e+01
   1.359833e+02   8.831475e+01
   4.731567e+01   2.601282e+01
  -8.889894e+01   9.049527e+01
  -1.823593e+02   5.437093e+00
  -2.666061e+01  -6.703227e+00
   3.910463e+01  -7.949970e+01
   1.029968e+02   1.335040e+01
   2.244236e+01   9.082017e+01
  -7.729074e+01   7.644388e+01
  -4.415627e+01  -2.010853e+01
  -8.276884e+01  -1.923917e+01
  -3.972827e+01  -4.932861e+00
  -8.978310e+01  -5.560810e+01
  -1.428255e+02  -1.059310e+00
  -6.602528e+01  -8.202475e+01
   5.713368e+01  -1.379387e+02
   1.302218e+02  -1.453701e+02
   1.503837e+02  -3.273199e+01
   1.886292e+02   1.090281e+02
   9.569563e+01   1.449464e+02
  -8.821580e+01   1.154172e+02
  -4.753091e+01  -2.076708e+01
   4.967559e+01   4.964106e+00
   1.814236e+02  -3.830644e+00
   2.632500e+01   7.437035e+01
  -4.298296e+01   1.033791e+02
  -1.799333e+02   7.340039e+01
  -1.227029e+02  -6.145241e+01
  -8.385316e+00  -9.063743e+01
   1.248355e+02  -7.029027e+01
   5.564785e+01  -5.697781e+01
   1.553270e+01   1.841490e+01
  -1.265721e+02  -3.128863e+01
   1.414361e+01  -6.469446e+01
   1.199364e+01  -1.580584e+02
   1.230627e+02  -3.293316e+01
   1.030741e+02   5.231959e+01
   6.806664e+01   2.424619e+02
  -8.923051e+01   1.729352e+02
  -1.012768e+02  -2.545535e+01
   3.181589e+00  -8.138240e+01
   4.965683e+01  -8.434500e+01
   7.785046e+01   2.686001e+01
   5.884624e+01   4.475506e+01
   1.546064e+01   5.323250e+01
  -9.294424e+00  -4.687633e+01
   4.835466e+01  -1.924823e+01
   7.082232e+01   1.224895e+02
  -1.106559e+01   5.945754e+01
  -6.175512e+01   8.387035e+01
  -1.232862e+02  -7.899655e+01
  -1.497570e+02  -7.929135e+01
  -4.548579e+01  -3.961622e+00
   7.287352e+01  -2.364708e+01
   3.337138e+01  -4.627295e+01
  -1.314613e+01   4.404926e+00
   3.140602e+00   9.487031e+00
   3.167342e+01   5.626911e+01
  -3.993492e+00   1.482898e+01
  -3.575348e+01  -3.359272e+01
  -9.409633e+01   1.667678e+01
  -1.281029e+02  -9.203187e+01
  -7.351308e+01  -9.100911e+01
   6.244345e+01  -1.292854e+02
   1.996682e+02  -5.452028e+01
   1.229494e+02   2.686678e+01
   2.718622e+01   1.547130e+02
  -1.113423e+02   1.325804e+02
  -1.157832e+02   1.530563e+01
  -6.773034e+01  -6.044984e+01
  -5.719047e+01  -3.902864e+01
  -7.802889e+00  -2.108108e+01
   3.059933e+01  -6.431144e+01
  -4.945556e+01  -5.380173e+01
  -2.356875e+01  -1.042166e+02
  -5.391791e+01  -1.347351e+02
   6.499877e+01   1.053583e+02
   1.145897e+02   7.869793e+01
   7.006111e+00   1.454531e+02
  -4.634473e+01   1.457994e+01
  -5.137727e+01  -1.953076e+01
  -3.442732e+01  -8.615481e+01
   7.760525e+01  -7.530008e+01
   9.672988e+01  -9.988437e+00
   7.852007e+00   3.727975e+01
  -9.328052e+01   6.090725e+01
  -9.465422e+01  -3.568885e+01
   2.739381e+01  -2.987043e+01
   8.165857e+01  -2.178897e+01
   2.812430e+00   6.312343e+01
  -1.719507e+02   9.245846e+01
  -1.608129e+02   2.560652e+01
  -3.866580e+01  -6.434558e+01
   4.969414e+01  -7.555671e+01
   3.026498e+01  -1.334630e+02
   1.192041e+01  -7.353136e+01
   6.576286e+01   7.833288e+01
  -3.865735e+01   7.529072e+01
  -2.129954e+00  -7.211296e+00
   7.795640e+00  -5.451952e+01
   4.324394e+01  -7.922686e+00
   9.174530e+01  -2.087260e+01
   5.797045e+01   3.574651e+01
   3.540274e+01   1.016935e+01
  -1.710961e+01   1.172630e+01
   3.390485e+01  -2.212213e+01
   3.373828e+00  -1.048015e+01
  -6.830582e+01   5.602822e+01
   2.990605e+01   2.228449e+01
  -5.122082e+01   1.040839e+01
  -7.001833e+01  -7.459665e+01
   3.303180e+01   8.836373e+00
   6.885620e+01   3.865898e+00
   4.423390e+01   4.980776e+01
  -1.894613e+01   2.381784e+01
  -1.440653e+02  -1.862119e+01
  -7.985842e+01  -4.812782e+01
   4.733735e+01  -5.913028e+01
   6.013765e+01  -9.063062e+00
  -1.082980e+01  -3.539289e+01
  -2.495770e+01   3.437968e+01
  -6.341709e+00  -3.180926e+01
   1.072085e+01  -1.190419e+02
   8.584669e+01  -5.781727e+01
