
 $NMID
 id='ANONYMOUS ', fmtdat='(2E16.6)'
 volume=1.0
 tramp=1.0
 $END
   3.875592e+03  -2.086518e+01
   2.450887e+03   2.128801e+03
  -3.648470e+02   2.502055e+03
  -1.705835e+03   1.080031e+03
  -9.270827e+02  -2.869845e+02
   3.615891e+02  -3.530390e+02
   6.890193e+02   3.344652e+02
  -2.226443e+01   8.755527e+02
  -6.614935e+02   7.504527e+02
  -8.068853e+02  -3.982036e+01
  -4.455550e+02  -7.429491e+02
   1.240193e+02  -7.909715e+02
   5.147293e+02  -1.583359e+02
   2.631213e+02   6.017420e+02
  -1.614010e+02   7.137997e+02
  -5.625644e+02   3.395305e+01
  -3.034939e+02  -6.230123e+02
   1.725886e+02  -6.901222e+02
   5.008035e+02  -1.579842e+02
   3.973659e+02   2.630031e+02
   8.640571e+01   4.372094e+02
  -1.697783e+02   3.017977e+02
  -1.180157e+02   4.267320e+01
   1.453426e+02  -2.462642e+01
   3.537627e+02   1.949783e+02
   1.342611e+02   3.635295e+02
  -3.815964e+02   3.981969e+02
  -7.260543e+02  -1.680140e+02
  -3.486678e+02  -4.925827e+02
   3.474877e+02  -3.169857e+02
   7.065135e+02   9.947834e+01
   2.598497e+02   4.133027e+02
  -2.789179e+02   4.582604e+02
  -5.114842e+02   2.329399e+02
  -3.924494e+02  -1.783309e+02
  -6.801539e+01  -3.897398e+02
   8.640380e+01  -2.467631e+02
   1.406233e+01   1.867902e+02
  -2.681776e+02   3.356329e+02
  -3.657948e+02  -3.017654e+01
  -1.581590e+02  -6.164988e+02
   2.920959e+02  -6.240449e+02
   4.941967e+02  -2.060216e+01
   2.001147e+02   4.816946e+02
  -1.994448e+02   2.281474e+02
  -3.264280e+02  -3.245749e+02
   1.041086e+02  -4.577850e+02
   6.344064e+02  -9.709527e+01
   5.572946e+02   3.964484e+02
   1.912144e+02   5.486559e+02
  -2.905400e+02   3.410065e+02
  -6.114350e+02  -5.950927e+01
  -3.982295e+02  -3.435026e+02
   8.811826e+01  -3.011364e+02
   3.721232e+02  -7.690410e+01
   2.065693e+02   1.573985e+02
  -4.418801e+01   8.221881e+01
  -1.114553e+02  -5.683010e+01
   1.533811e+02  -1.883781e+02
   3.278477e+02   7.741711e+01
   1.334570e+02   3.076278e+02
  -1.755265e+02   2.022390e+02
  -3.255595e+02   1.160506e+02
  -2.370222e+02  -9.238424e+01
   3.293114e+00  -3.290982e+02
   2.548617e+02  -4.115833e+02
   3.902950e+02  -2.393296e+02
   2.573744e+02   1.977789e+02
   1.502037e+02   4.614593e+02
  -1.111403e+02   3.873484e+02
  -5.138464e+01   1.632948e+02
  -6.912014e+01   3.448590e+01
  -1.549013e+02   8.821225e+01
  -2.907919e+02   1.230447e+02
  -3.052236e+02  -4.628263e+01
  -1.651128e+02  -2.413634e+02
   8.476988e+01  -1.720114e+02
   1.877877e+02   3.029549e+01
   1.712606e+02   1.924936e+02
   4.982980e+00   3.213508e+02
  -1.769296e+02   1.443799e+02
  -3.453257e+02  -1.703229e+02
  -1.772058e+02  -2.852288e+02
   4.854282e+01  -3.114528e+02
   1.939197e+02  -1.908697e+02
   1.635907e+02  -4.501213e+01
   9.059512e+01  -1.848194e+01
   2.426079e+02  -2.524919e+01
   4.382715e+02   1.453459e+01
   3.545336e+02   2.724991e+02
  -4.728496e+00   4.639987e+02
  -3.371657e+02   4.042896e+02
  -4.588244e+02   1.505580e+02
  -2.736194e+02  -1.491455e+02
  -2.908931e+01  -2.475133e+02
   1.143109e+02  -2.297868e+02
   4.467959e+01   2.168427e+01
  -1.326311e+02   1.031675e+02
  -1.917245e+02  -3.748025e+01
  -3.437027e+01  -1.943193e+02
   1.340016e+02  -1.543793e+02
   2.068302e+02   8.635872e+01
  -5.928888e+00   1.621317e+02
  -1.507142e+02  -9.120398e+00
  -1.498226e+02  -2.550383e+02
   7.437474e+01  -3.688540e+02
   2.911632e+02  -1.969527e+02
   3.573179e+02   2.024881e+01
   3.220963e+02   3.012526e+02
   1.196920e+02   2.666300e+02
  -1.352057e+02   1.931175e+02
  -1.728270e+02  -5.673971e-01
  -3.843676e+01  -3.610506e+01
   3.593273e+01   4.496666e+01
   4.795277e+01   1.109241e+02
  -1.468294e+02   6.957830e+01
  -1.442756e+02   2.306519e+01
  -5.864146e+00  -9.064111e+00
   5.263737e+01  -3.565751e+01
   3.068983e+01   4.747774e+01
  -8.721333e+01   1.121008e+02
  -3.008948e+02  -6.470199e+01
  -2.410162e+02  -1.455649e+02
  -6.864211e+01  -2.461098e+02
   2.037402e+02  -2.249388e+02
   2.835187e+02  -1.096893e+02
   1.594097e+02   4.957002e+01
   4.923334e+01   1.057270e+02
  -5.613009e+01   3.843351e+01
  -5.904669e+00  -4.426589e+01
   2.396588e+02  -8.146805e+01
   2.197683e+02   7.072200e+01
   7.900204e+01   2.477904e+02
  -1.287177e+02   2.320764e+02
  -1.581416e+02   2.707581e+01
  -6.384977e+01  -6.370637e+01
   7.136090e+00   8.743487e+01
   8.991954e+01   8.650718e+01
  -4.262579e+01   1.091038e+02
  -2.350703e+02  -5.229982e+00
  -2.304591e+02  -1.255855e+02
   3.339897e+00  -2.216965e+02
   1.517850e+02  -1.255111e+02
   1.888218e+02   1.166174e+00
   5.988298e+01   1.323814e+02
  -3.389982e+01   1.142077e+02
  -6.396394e+01   1.016447e+01
  -1.046537e+02  -3.459933e+01
   5.091178e+00  -4.720237e+01
  -2.316702e+01   4.196087e+01
  -9.774110e+01   3.091360e+01
  -1.343668e+02  -1.519066e+01
  -6.402649e+01  -2.173984e+02
   2.089559e+02  -1.436518e+02
   2.601561e+02  -1.971994e+00
   2.168348e+02   1.213424e+02
   5.843001e+01   2.314870e+02
  -1.008971e+02   1.620709e+02
  -1.806940e+02  -2.522527e+01
  -4.951902e+01   2.555265e+01
  -7.790983e+01  -3.036125e+00
  -7.420394e+01  -1.402925e+01
  -9.940123e+01  -4.958288e-01
  -5.720865e+01  -2.442859e+01
   3.681702e+01  -7.010903e+01
   9.322575e+01  -1.371404e+02
   5.651238e+01   7.596283e+01
   8.697241e+00   1.243208e+02
  -1.693006e+02   6.764585e+01
  -2.353365e+02  -3.277842e+01
  -9.973067e+01  -2.040450e+02
   9.197245e+01  -2.750027e+02
   2.866140e+02  -1.230280e+02
   2.958226e+02   7.075614e+01
   1.721829e+02   1.213526e+02
  -8.359858e-01   1.545556e+02
  -1.064407e+02   6.321758e+01
  -3.926345e+01   3.698403e+01
  -1.111368e+02   7.020199e+01
  -9.634280e+01   8.098643e+01
  -1.370095e+02  -3.171345e+01
  -1.191556e+02  -1.562641e+02
  -7.437797e+01  -1.906129e+02
   7.298135e+01  -1.352890e+02
   1.793004e+02  -3.304185e+01
   1.132635e+02   1.245791e+02
   3.694163e+01   1.704952e+02
  -4.440251e+00   5.337497e+01
  -3.513077e+01   5.566954e+01
  -1.036948e+01  -8.706555e+01
  -8.934433e+00  -6.349171e-01
  -4.963891e+01  -1.408888e+00
  -5.914129e+01  -3.805495e+01
  -4.571484e+01  -9.066569e+00
   9.462275e+01  -4.567931e+00
   1.015314e+02  -6.464034e+00
   1.574604e+02   3.666986e+01
  -5.053415e+01   2.896964e+01
  -1.159190e+02   9.906510e+01
  -9.802317e+01   1.304362e+01
  -5.642907e+01  -4.192880e+01
   5.767345e+01  -5.408597e+00
   7.415334e+01  -4.041029e+01
   7.339673e-01   9.021338e+01
  -2.500883e+01   2.384122e+01
  -7.063897e+01  -9.249708e-01
  -3.702008e+01  -8.194942e+00
   5.499036e+00  -4.833686e+01
  -4.924185e+01  -5.356753e+01
  -2.876276e+01   2.308605e+01
  -1.720589e+01  -4.983923e+01
  -2.924289e+01  -1.019222e+02
   8.458791e+01  -1.503308e+02
   1.905479e+02  -8.049804e+01
   1.567774e+02   9.533108e+01
   9.152439e+00   1.540832e+02
  -4.447557e+01   5.516676e+01
  -3.346837e+01  -4.952481e+00
   6.663334e+00  -2.329372e+01
   1.762355e+02   4.535150e+01
   8.518869e+01   9.159558e+01
  -6.998003e+01   1.602469e+02
  -2.052434e+02   7.155724e+01
  -2.101436e+02  -6.864657e+01
  -2.492241e+01  -8.738543e+01
   6.106287e+01  -4.829163e+01
   2.415798e+01  -4.640548e-02
  -3.605940e+01   1.829302e+01
  -1.018139e+02  -4.698132e+01
  -6.971787e+01  -1.599575e+02
   1.132453e+02  -1.622967e+02
   1.694788e+02  -7.003875e+01
   8.701122e+01   8.745487e+01
   7.859108e+01   2.625076e+02
  -7.284085e+01   1.776532e+02
  -1.316204e+02   8.389147e+00
  -5.908431e+01  -1.035753e+02
  -8.185002e+00  -1.678887e+02
  -7.115808e+01   3.190701e+01
   6.293627e+01   4.058079e+01
  -1.228243e+01   1.788929e+00
   3.949405e+01   9.034776e+00
   2.509444e+01   5.816361e+00
   1.071873e+02   7.228933e+01
   4.094981e+01   6.021280e+01
  -9.103452e+01   2.175999e+01
  -1.869016e+02  -1.771865e+00
  -1.173004e+02   3.399985e+01
   9.921647e+00  -4.852637e+01
   1.335065e+02  -2.218763e+01
   5.480708e+01  -3.519574e+01
  -5.566212e+00   6.611519e+00
  -3.344407e+01   7.572305e+01
   3.042723e+01   4.141279e+00
   4.287851e+01   1.313746e+01
   1.700871e+01  -3.445868e+01
  -9.400068e+01  -5.044373e+01
  -1.296181e+02  -7.241077e+01
  -4.957808e+01  -1.167777e+02
   1.037797e+02  -1.077948e+02
   1.977236e+02  -6.891152e+01
   1.878232e+02   7.140429e+01
   8.034204e+00   2.161413e+02
  -7.367050e+01   1.228342e+02
  -1.144782e+02   4.165155e+01
  -6.907239e+01  -3.057771e+01
  -7.082349e+01   2.095838e+01
  -8.849804e+00   2.504892e+01
  -3.405037e+01   8.206523e+00
  -4.381303e+01  -4.478347e+01
   4.611122e+01  -1.215954e+02
   8.852608e+00  -6.699859e+01
   6.484355e+01   3.421190e+01
   4.332536e+01   5.708387e+01
   9.080145e+01   6.867884e+01
  -1.298904e+02  -6.313737e+00
  -1.706688e+02  -6.789494e+01
  -2.781622e+01  -9.971533e+01
   8.442647e+01  -3.377931e+01
   7.423795e+01   1.728573e+01
   7.146434e+01   6.136127e+01
  -4.451512e+01   9.085824e+01
   8.883627e+00   2.147179e+01
   2.514149e+01   5.642183e+01
   7.704108e+01  -3.964378e+01
  -2.769156e+00   4.363080e+01
  -3.714107e+01   7.891049e+01
  -8.643308e+01   7.937525e+01
  -2.204510e+01  -1.739024e+01
   3.022264e+01  -7.937509e+01
   7.367946e+01  -1.397086e+02
   1.538533e+01  -3.369356e+00
  -1.685649e+01   4.360177e+01
  -1.676937e+01   3.863732e+01
   3.780217e+00   1.056175e+01
  -4.636383e+01  -7.257012e+01
  -6.909246e+01  -5.737784e+01
   5.419499e+01   8.811047e+01
   6.363884e+01   2.711339e+01
   7.977087e+01   1.289828e+01
   3.006703e+01  -1.763799e+01
  -8.039399e+00  -6.618254e+00
   8.862648e+00   2.897844e+01
  -1.271687e+01   7.603192e+01
  -4.657909e+01   1.675619e+01
  -6.528490e+01  -7.938175e+01
  -2.932871e+01   7.448041e+00
  -8.597231e-01  -2.046923e+01
   8.425616e+01   6.334788e+01
   3.636054e+01   6.575164e+01
  -4.364507e+01   4.744611e+01
  -6.251526e+01   1.114197e+01
  -8.967320e+01  -2.529599e+01
   1.967989e+01  -1.929710e+01
  -7.036790e+00  -1.789306e+01
   2.954142e+01   2.536396e+01
   3.047837e+01   2.492389e+01
  -4.077703e+01  -2.151226e+01
  -2.545668e+01  -5.711673e+01
   1.030944e+02  -2.504521e+01
