
 $NMID
 id='ANONYMOUS ', fmtdat='(2E16.6)'
 volume=1.0
 tramp=1.0
 $END
  -4.659968e+03   7.813833e+00
  -2.615259e+03  -2.877360e+03
   7.974038e+02  -2.959328e+03
   2.375419e+03  -8.491246e+02
   9.196854e+02   8.052077e+02
  -7.489763e+02   6.274665e+02
  -9.743478e+02  -5.087845e+02
   5.533941e+01  -1.173759e+03
   9.645102e+02  -8.302164e+02
   1.098890e+03   1.709996e+02
   4.781312e+02   9.718419e+02
  -3.280385e+02   9.451992e+02
  -7.020047e+02   1.014695e+02
  -4.491946e+02  -7.811633e+02
   3.678011e+02  -8.160884e+02
   7.009592e+02   4.437781e+01
   2.457482e+02   7.396217e+02
  -4.163720e+02   6.743208e+02
  -5.552651e+02   8.244512e+01
  -3.665345e+02  -3.566438e+02
   3.197748e+01  -4.397863e+02
   2.715661e+02  -2.764881e+02
   2.145938e+02   4.411165e+00
  -1.350011e+02   1.629851e+02
  -4.691538e+02  -7.848851e+01
  -1.777929e+02  -5.076876e+02
   4.702673e+02  -4.706452e+02
   9.042187e+02   6.998143e+01
   4.667276e+02   5.973209e+02
  -4.043836e+02   5.474362e+02
  -8.235336e+02  -1.985419e+01
  -4.129572e+02  -5.413979e+02
   2.841506e+02  -5.754263e+02
   6.189454e+02  -1.891824e+02
   4.691441e+02   2.190055e+02
   1.093684e+02   5.365606e+02
  -2.166162e+02   2.187356e+02
  -1.553499e+02  -2.455704e+02
   2.111544e+02  -5.221233e+02
   5.506123e+02   5.851721e+00
   3.067165e+02   6.955345e+02
  -3.027852e+02   7.414284e+02
  -6.531011e+02   6.845203e+00
  -3.362515e+02  -6.152275e+02
   2.989499e+02  -3.824023e+02
   4.360267e+02   3.312025e+02
  -7.746650e+01   6.107314e+02
  -5.896688e+02   1.273688e+02
  -6.055545e+02  -4.429828e+02
  -1.668452e+02  -5.963691e+02
   4.528544e+02  -3.497370e+02
   6.691943e+02   7.467649e+01
   4.031111e+02   3.681189e+02
  -9.238872e+01   4.011971e+02
  -4.401725e+02   6.308547e+01
  -2.049277e+02  -3.028553e+02
   1.722986e+02  -7.989389e+01
   1.951290e+02   1.683556e+02
  -1.872653e+02   1.979423e+02
  -3.662828e+02  -9.904457e+01
  -1.983673e+02  -3.581775e+02
   2.943802e+02  -1.884372e+02
   3.579315e+02  -9.938667e+01
   2.211882e+02   5.337328e+01
  -7.053826e+01   1.286886e+02
  -1.826190e+02   3.352005e+02
  -3.331542e+02   2.332842e+02
  -3.430453e+02  -1.103215e+02
  -7.397077e+01  -5.389632e+02
   8.999636e+01  -3.740358e+02
   9.053089e+01  -1.187541e+02
   1.966593e+01   1.762601e+01
   7.395833e+01  -6.571764e+01
   2.090557e+02  -1.195236e+02
   2.402820e+02  -5.109625e+00
   2.060683e+02   3.055107e+02
  -6.983115e+01   2.866453e+02
  -2.080547e+02   8.740347e+00
  -1.894466e+02  -2.141679e+02
   5.868181e+01  -3.126991e+02
   2.523413e+02  -1.605030e+02
   3.821827e+02   1.334033e+02
   2.257490e+02   3.737293e+02
  -4.518186e+01   3.612985e+02
  -1.923895e+02   1.124505e+02
  -1.611811e+02  -2.155236e+01
  -1.049628e+02   3.936955e+01
  -1.870681e+02   2.461251e+01
  -4.196365e+02  -1.886462e+01
  -3.500121e+02  -2.783626e+02
   5.833200e+00  -4.799356e+02
   4.264175e+02  -4.432167e+02
   4.690132e+02  -1.890875e+02
   3.437763e+02   9.111262e+01
   2.911414e+01   3.185991e+02
  -1.750450e+02   2.667317e+02
  -1.163988e+02   6.672594e+01
   1.687807e+02  -1.451480e+02
   2.801809e+02  -1.517973e+01
  -1.300672e+01   2.718333e+02
  -1.626351e+02   1.624650e+02
  -2.168260e+02  -6.393489e+01
  -5.331760e+00  -2.229149e+02
   1.710084e+02  -1.336117e+01
   1.665075e+02   2.884544e+02
  -9.788981e+01   3.790377e+02
  -2.763784e+02   1.837138e+02
  -2.862913e+02  -2.889682e+01
  -2.948740e+02  -2.876675e+02
  -1.113103e+02  -2.808543e+02
   9.559228e+01  -1.669989e+02
   1.822172e+02  -3.415269e+01
   7.695801e+01   3.596194e+01
  -3.165403e+01   2.457545e+00
  -1.022453e+02  -1.394455e+02
   1.066193e+02  -1.287285e+02
   1.725798e+02   5.971967e+01
   1.099443e+02   9.613755e+01
  -6.876150e+01   6.344247e+01
  -4.867187e+01  -5.194553e+01
   9.431472e+01  -1.106661e+02
   3.335080e+02  -2.178595e+01
   2.875329e+02   1.865559e+02
   8.067692e+01   2.390525e+02
  -1.581325e+02   2.633040e+02
  -3.233365e+02   1.380239e+02
  -2.052432e+02  -8.102217e+01
   9.057298e-01  -1.064994e+02
   1.478752e+02  -3.475926e+01
   3.355420e+00   2.392196e+01
  -1.845156e+02   1.255141e+01
  -2.459340e+02  -7.933452e+01
  -4.928226e+01  -1.924822e+02
   1.159575e+02  -1.392286e+02
   1.838787e+02  -4.029129e+01
   9.866431e+01   3.606610e+01
  -1.767579e+01   2.975913e+01
  -2.090962e+01  -4.819352e+01
   7.157795e+01  -4.261060e+01
   1.993800e+02  -5.819229e+01
   2.150944e+02   1.432894e+02
  -4.644807e+01   2.520369e+02
  -1.477189e+02   1.941941e+02
  -1.914511e+02  -1.527209e+01
  -9.478365e+01  -9.557043e+01
   6.944053e+01  -6.912637e+01
   9.918545e+01   1.802266e+01
   3.409701e+01   2.364351e+01
   3.767795e-01  -1.245989e+01
  -3.413584e+00  -1.543049e+00
   1.200798e+02   3.293025e+01
   7.264822e+01   1.038012e+02
   4.950604e+00   2.069027e+02
  -9.877565e+01   1.304197e+02
  -2.147221e+02   6.661293e+01
  -2.269419e+02  -2.012202e+02
  -2.971884e+01  -1.727160e+02
   1.044113e+02  -1.720934e+02
   1.622748e+02  -4.296629e+01
   6.171029e+01   3.568646e+01
   2.670712e+01   3.525207e+01
   1.303704e+02  -5.456636e+00
   1.043572e+02  -2.489237e+01
  -2.359536e+00   9.458638e+01
  -6.612285e+01   1.169748e+02
  -1.151867e+02   6.027247e+01
  -1.203102e+02  -6.378759e+01
   4.511086e+01  -5.440662e+01
   1.465454e+02  -4.458417e+01
   1.474222e+02   6.135500e+01
   1.055006e+02   2.355004e+02
  -1.472555e+02   2.300318e+02
  -2.517940e+02   1.289460e+02
  -3.059907e+02  -4.659105e+01
  -1.181459e+02  -1.983891e+02
   6.099507e+01  -1.486652e+02
   8.699942e+01  -3.636984e+01
   1.357361e+02  -7.672005e+01
   3.861401e+01  -5.798656e+01
   6.964353e+01  -1.114277e+02
   8.634707e+01   7.546078e+01
   1.715937e+02   1.417968e+02
   7.799458e+01   2.458056e+02
  -5.902087e+01   1.647686e+02
  -2.228522e+02   9.800209e+01
  -1.482007e+02  -1.693463e+02
  -3.360136e+01  -2.029864e+02
   9.367197e+01  -1.566660e+02
   2.070913e+00   2.744006e+01
   1.862345e+01   2.978098e+01
  -2.686735e+01   7.089800e+01
   2.042442e+01   3.897546e+01
   1.082685e+02   5.841587e+01
   5.853961e+01   4.591378e+00
  -6.138580e+01   3.531807e+01
  -1.383020e+02   2.573325e+00
  -1.798301e+02  -3.709497e+01
   2.649010e+01  -1.115090e+02
   1.496698e+02  -8.443959e+01
   1.309738e+02  -2.739015e+01
   2.545116e+01   5.650685e+01
  -8.176284e+01   1.689725e+01
  -1.208465e+02  -9.683472e+00
  -2.307357e+00  -7.603703e+01
   1.066658e+02  -5.930726e+01
   7.100916e+01  -4.924644e+00
   4.479330e+01   4.471006e+01
   7.955698e+01   6.638779e+01
   7.252667e+01   5.358126e+01
   7.470168e+01   1.283052e+01
   3.815352e+01   2.468628e+01
   3.498108e+00   1.484483e+02
  -1.000054e+02   2.063788e+02
  -1.170140e+02   6.873356e+01
  -6.420827e+01  -4.948861e+01
  -1.305612e+01  -1.153717e+02
   8.889600e+01  -7.569957e+01
   1.153295e+02   1.701651e+01
  -6.892202e+01   2.257008e+01
  -1.769160e+02   2.329141e+01
  -3.325629e+01  -1.109201e+02
   8.888231e+01  -1.261759e+02
   1.865542e+02  -3.612285e+01
   1.604372e+02   1.361998e+01
   1.158357e+02   3.720375e+01
  -9.039841e+01   1.111106e+02
  -2.480675e+01  -7.890492e+01
   4.960360e+00  -3.522858e+01
   5.688802e+01  -3.674973e+01
   2.240633e+00   1.596173e+02
  -7.248418e+01   9.200252e+01
  -1.917991e+02   1.782815e+01
  -1.694735e+02  -1.428397e+02
  -3.580217e+01  -1.620036e+02
   9.262438e+01  -1.784152e+02
   1.413369e+02  -2.857452e+01
   2.392741e+00   1.224921e+02
   3.460989e+00   1.138596e+02
  -6.666882e+01  -3.096836e+01
  -6.362901e+01   3.571160e+01
  -3.420234e+00  -2.244940e+00
  -9.798213e+00   1.982353e+01
   1.424338e+01  -6.442488e+01
  -1.262245e+02  -6.655107e+01
   1.488055e+01  -8.745937e+01
  -1.935222e+01  -7.949833e+01
   1.972527e+02   1.552431e+01
   1.393081e+02   1.249586e+02
   5.741938e+01   3.546360e+01
  -6.040970e+01   8.830683e+00
  -2.731193e+01   2.814499e+00
   4.516000e+01  -8.744091e+01
   4.314415e+01   1.088591e+00
   2.503881e+01  -3.419882e+01
  -3.945101e+01   7.574378e+01
  -2.418313e+01  -1.699051e+01
   1.360756e+02   2.870282e+01
   9.733440e+01   2.587208e+01
   6.352297e+00   4.288927e+01
  -1.035980e+02   1.148003e+02
  -1.555144e+02   5.844490e+01
  -1.438425e+02  -7.800719e+01
  -2.344515e+01  -1.948589e+02
   5.285819e+01  -1.947731e+02
   6.676954e+01  -8.859147e+01
   2.957245e+01   2.933112e+01
  -2.265059e+01   5.517413e+01
   1.955710e+01   6.692176e+01
  -1.417208e+01  -1.703760e+01
  -1.306657e+01   8.140227e+01
   6.010219e+01   7.206026e+01
  -5.636556e+01   1.112025e+02
  -1.006272e+00  -7.561872e+01
  -9.293845e+01  -6.572380e+01
  -1.696513e+00  -9.076478e+01
   5.233262e+01  -3.286022e+01
   6.465075e+01   3.461527e+01
   4.276640e+01   9.443167e+01
  -1.025488e+02  -6.072320e+00
  -1.004741e+02  -1.840412e+00
  -2.943740e+01  -3.020723e+01
   2.988021e+01  -4.292570e+01
   3.016151e+01  -8.524028e+00
  -2.241057e+01  -2.159265e+01
  -1.009894e+02  -3.114876e+00
   1.033133e+01   1.375986e+01
   7.039708e+01  -7.395040e+01
   9.989524e+01  -7.751978e+01
  -3.544440e+01   2.048611e+01
  -3.706749e+01   8.660489e+01
  -5.527698e+01   1.419554e+02
  -1.047563e+00  -5.943714e+01
   1.329369e+01  -7.995660e+01
   2.976048e+01  -6.332254e+01
   4.318373e+01   4.424222e+01
   3.023084e+00   7.107411e+01
   1.919124e+00  -1.672930e+01
  -3.896756e+01  -7.509831e+00
  -1.561205e+01   1.983494e+01
  -4.475122e+01  -4.661605e+01
   6.714027e+00  -6.234090e+01
   6.308516e+00   2.712258e+01
  -2.946418e+01  -5.072928e+01
   3.121191e+01  -4.368051e+01
   2.098395e+01  -1.955889e+01
   1.486600e+01   6.148226e+01
  -3.388234e+01   5.801979e+01
  -2.155646e+01   5.322356e+01
  -8.806580e+01  -5.575608e+01
  -2.489939e-01  -6.187146e+01
   8.499877e+01  -2.546421e+01
   3.078712e+01   9.703738e+00
   1.105446e+02  -2.074658e+01
  -2.881998e+01   8.791453e+00
  -2.940639e+01  -4.471515e+00
   3.555996e+01   2.313723e+01
   4.103598e+01   6.319611e+01
   6.446715e+01   4.849269e+01
  -4.013047e+01   6.247968e+01
  -1.080975e+02   9.973006e+01
