
 $NMID
 id='ANONYMOUS ', fmtdat='(2E16.6)'
 volume=1.0
 tramp=1.0
 $END
   4.612956e+03   1.226352e+01
   2.589030e+03   2.841698e+03
  -8.833812e+02   2.864859e+03
  -2.370267e+03   8.509641e+02
  -9.151235e+02  -7.866584e+02
   7.874821e+02  -6.776550e+02
   9.599835e+02   4.765330e+02
  -4.401871e+01   1.206290e+03
  -9.155011e+02   8.249973e+02
  -1.046246e+03  -1.509806e+02
  -4.518371e+02  -9.740260e+02
   2.731042e+02  -9.267937e+02
   6.647351e+02  -1.115989e+02
   4.675433e+02   8.070396e+02
  -3.214705e+02   7.796511e+02
  -7.043742e+02  -4.207378e+01
  -2.840947e+02  -7.665991e+02
   3.382237e+02  -6.749861e+02
   6.215360e+02  -6.857074e+01
   4.011191e+02   4.319278e+02
  -2.823644e+01   4.866048e+02
  -2.720850e+02   2.725102e+02
  -2.345765e+02   3.092656e+01
   9.498858e+01  -1.029743e+02
   4.881346e+02   1.159384e+02
   2.177491e+02   3.986606e+02
  -4.912857e+02   4.914521e+02
  -8.657112e+02  -5.924936e+01
  -4.146322e+02  -6.243653e+02
   4.216396e+02  -4.624786e+02
   7.804200e+02   2.485252e+01
   4.360622e+02   5.585567e+02
  -2.935809e+02   5.774539e+02
  -6.441413e+02   2.227004e+02
  -4.317963e+02  -2.715158e+02
  -9.951102e+01  -4.777166e+02
   1.750964e+02  -2.990118e+02
   1.996549e+02   2.481694e+02
  -1.423109e+02   5.045656e+02
  -5.516853e+02   1.115122e+01
  -3.247349e+02  -7.419252e+02
   3.519977e+02  -8.277602e+02
   6.781480e+02   4.872497e+00
   2.992578e+02   5.686899e+02
  -3.247179e+02   4.085964e+02
  -3.999627e+02  -3.500364e+02
   5.864318e+00  -6.237327e+02
   6.522460e+02  -1.688919e+02
   6.487679e+02   4.474746e+02
   2.343947e+02   6.094607e+02
  -3.937322e+02   3.679137e+02
  -6.804380e+02  -8.294053e+01
  -4.166780e+02  -3.935498e+02
   1.757893e+02  -3.604605e+02
   4.779516e+02  -6.667031e+01
   2.080829e+02   2.325484e+02
  -1.398699e+02   1.011259e+02
  -1.571690e+02  -1.683093e+02
   2.149925e+02  -2.461841e+02
   4.078098e+02   7.607825e+01
   2.193001e+02   3.108763e+02
  -1.954834e+02   2.502410e+02
  -3.361738e+02   7.840846e+01
  -2.175028e+02  -9.929951e+01
   2.669395e+01  -2.215219e+02
   2.576810e+02  -2.934756e+02
   3.680981e+02  -1.837647e+02
   3.317053e+02   1.531473e+02
   1.066024e+02   4.529700e+02
  -1.287638e+02   4.836273e+02
  -1.760125e+02   8.629420e+01
  -7.493987e+01  -1.795976e+01
  -3.566167e+01   7.839963e+01
  -2.446024e+02   1.818643e+02
  -2.732971e+02  -5.422736e+01
  -1.944988e+02  -3.216986e+02
   9.798651e+01  -2.616893e+02
   2.546019e+02   1.734427e+01
   2.223354e+02   2.502662e+02
   4.410895e+01   3.298589e+02
  -2.896358e+02   1.336516e+02
  -4.198608e+02  -2.034418e+02
  -1.637208e+02  -3.373006e+02
   9.962513e+01  -2.986554e+02
   1.950028e+02  -1.129361e+02
   1.421763e+02   3.695805e+00
   5.675955e+01   1.365534e+00
   2.331260e+02  -1.003982e+02
   4.158110e+02   7.612117e+01
   2.973680e+02   2.612081e+02
   1.376239e+01   4.574546e+02
  -3.447817e+02   4.580687e+02
  -4.730712e+02   2.281312e+02
  -3.111690e+02  -8.465241e+01
  -1.095664e+02  -3.069184e+02
   1.596767e+02  -3.058237e+02
   1.023745e+02  -5.032282e+00
  -1.788679e+02   1.972677e+02
  -2.410586e+02   1.431325e+01
  -8.710908e+01  -2.636138e+02
   1.690587e+02  -1.787422e+02
   1.678905e+02   7.747834e+01
   3.303437e+01   2.449710e+02
  -2.119862e+02   7.364620e+01
  -1.789180e+02  -2.770352e+02
   4.258003e+01  -4.320510e+02
   2.482398e+02  -2.140115e+02
   3.535110e+02   7.507207e+01
   2.853838e+02   2.967054e+02
   8.674588e+01   2.896311e+02
  -1.730462e+02   1.309799e+02
  -1.739759e+02   4.280773e+01
  -4.354262e+01  -8.822360e+01
   9.910750e+01   7.989937e+00
   8.680659e+01   1.135861e+02
  -7.585911e+01   1.422767e+02
  -1.685146e+02   4.254628e+00
  -7.048827e+01  -7.141138e+01
   4.718846e+01  -2.783558e+01
   1.883237e+01   8.835341e+01
  -8.993007e+01   9.874961e+01
  -2.753699e+02   4.094179e+01
  -2.875577e+02  -1.901449e+02
  -9.563973e+01  -2.439798e+02
   1.625739e+02  -2.700175e+02
   2.609933e+02  -1.017095e+02
   1.253338e+02   7.678740e+01
  -1.947511e+01   9.512822e+01
  -6.474672e+01   1.079113e+01
   1.358400e+01  -1.286894e+02
   2.042621e+02  -1.228620e+02
   2.540444e+02   1.044630e+02
   7.992606e+01   2.083202e+02
  -1.047552e+02   1.929872e+02
  -1.987105e+02   7.329629e+01
  -5.829197e+01   3.504994e+01
  -1.194923e+01   3.383053e+01
   2.788578e+01   8.744392e+01
  -3.551558e+01   7.000908e+01
  -1.778027e+02   6.571515e+01
  -1.520383e+02  -1.142470e+02
  -6.742690e+01  -2.366162e+02
   1.716533e+02  -1.519053e+02
   1.746214e+02  -4.549538e+01
   4.911966e+01   1.266806e+02
  -5.466876e+01   1.109713e+02
  -6.120384e+01   4.077727e+01
  -1.985334e+01  -9.447588e+01
   1.886156e+01   2.686316e+01
  -5.381890e+01   1.227172e+01
  -6.428766e+01   1.806660e+01
  -4.693777e+01  -1.082568e+02
  -3.062875e+01  -1.130655e+02
   9.379123e+01  -1.860084e+02
   2.639082e+02  -4.857799e+01
   1.850124e+02   2.021838e+02
   1.037809e+02   2.936954e+02
  -9.830902e+01   1.851156e+02
  -1.661875e+02  -1.622884e+01
  -5.884891e+01  -5.589005e+01
  -7.759436e+01  -3.049632e+01
  -9.938651e+01   1.923582e+01
  -1.077600e+02  -3.884871e+01
  -2.456248e+01  -6.577861e+01
   9.118944e+01   1.550580e+01
   1.146542e+02  -4.977667e+01
   1.398175e+02   1.904404e+01
  -1.100006e+00   1.457104e+02
  -1.336617e+02   1.299095e+02
  -2.031539e+02  -1.396938e+02
  -6.010175e+01  -1.688609e+02
   7.152119e+01  -2.094294e+02
   2.009347e+02  -7.144868e+01
   2.298577e+02   5.000446e+01
   1.220661e+02   1.891447e+02
   8.316704e+00   1.356940e+02
  -8.481321e+01   8.307315e+01
  -4.811386e+01   2.408448e+01
  -8.608137e+01   1.040113e+02
  -4.127733e+01   1.300016e+02
  -1.214556e+02  -2.641727e+01
  -1.196170e+02  -1.713477e+02
  -2.200336e+01  -1.991063e+02
   2.955633e+01  -1.698153e+02
   1.639394e+02  -6.018676e+00
   1.331881e+02   1.454773e+02
   4.518362e+01   1.562526e+02
  -3.993364e+01   7.422310e+00
  -5.906181e+01   1.473360e+01
   1.605292e+01  -3.580123e+01
  -3.279797e+01  -3.741205e+01
  -2.113072e+01   1.295526e+01
  -7.958283e+01  -7.125284e+01
  -7.012995e+01  -5.735476e+00
   5.908053e+01  -5.871336e+01
   1.618921e+02  -3.260625e+01
   1.255648e+02   6.417367e+01
   6.405097e+01   1.362049e+02
  -1.036294e+02   8.649990e+01
  -1.646871e+02  -1.837837e+01
  -7.760825e+01  -8.306951e+01
   6.282311e+01  -1.391882e+01
   8.296186e+01   2.333293e+01
   2.207715e+01   8.630101e+01
  -6.301424e+01   7.319870e+01
  -1.048544e+02   3.250612e+01
  -6.423367e+01  -2.429858e+01
  -5.619798e-01  -1.258698e+01
  -7.923179e+01  -8.496654e+00
  -4.559269e+01   5.543325e+00
   4.975441e+01  -3.802406e+01
   7.067186e+01  -2.108226e+02
   9.899925e+01  -9.060192e+01
   1.957169e+02  -7.188523e+01
   1.482474e+02   5.264023e+01
   1.278529e+01   1.694568e+02
  -1.247731e+02   6.201983e+01
  -6.172138e+01  -1.622393e+01
   4.694002e+01  -4.795955e+01
   1.244205e+02  -1.820420e+00
   8.635000e+01   1.036942e+02
  -3.628111e+01   4.051561e+01
  -2.250650e+02   8.296375e+01
  -1.723167e+02  -5.140364e+01
   6.845745e+00  -6.322756e+01
   1.063369e+02  -7.870671e+01
   5.427155e+01  -6.360970e+01
  -2.482080e+01   3.237993e+01
  -8.872999e+01   1.825789e+00
   2.792148e+00  -1.139921e+02
   8.382349e+01  -1.872480e+02
   1.567747e+02  -2.061349e+01
   1.492310e+02   9.840662e+01
   1.899873e+01   1.739168e+02
  -2.126206e+01   1.257619e+02
  -7.136755e+01  -5.886023e+01
  -1.084507e+02  -1.337279e+02
   4.475987e+00  -8.452807e+01
   9.892929e+00   1.149040e+00
   3.213228e+01  -3.922450e+01
   4.670696e+01   7.441250e+00
  -4.523092e+01   2.447947e+01
   5.143661e+00   6.037813e+01
   1.227846e+02   7.293281e+01
   3.393402e+01   1.237323e+02
  -7.197093e+01   5.961639e+01
  -1.326327e+02  -2.673479e+01
  -1.545572e+02  -5.749435e+01
  -1.006453e+01  -1.098938e+02
   6.402588e+01   2.298747e+01
   1.509746e+02   2.833583e+01
  -1.123442e+01  -1.091895e+01
   9.939633e+00   2.283663e+01
  -1.879747e+01   6.185439e+01
   1.394608e+01  -2.325411e+01
  -3.942882e+00  -6.395457e+01
  -8.666325e+01  -8.047621e+01
  -4.561473e+01  -2.641070e+01
  -2.696620e+01  -8.045560e+01
   1.255176e+02   9.304564e+00
   2.161001e+02  -7.367354e+01
   1.101677e+02   9.906647e+01
   4.754821e+01   1.372146e+02
  -1.361145e+02   1.499736e+02
  -5.452360e+01   5.335378e+01
  -7.247684e+01  -7.655790e+01
   1.253304e+01   2.772073e+01
  -2.366731e+01   1.046274e+01
  -7.913523e+00  -1.279594e+01
  -3.007867e+01  -7.699773e+01
  -6.161876e+01  -1.044629e+02
   4.627562e+01  -8.701491e+01
   5.401962e+01  -3.638537e+01
   8.922335e+01   1.013487e+02
  -2.839199e+01   8.840289e+01
  -4.790427e+01   7.532738e+00
  -1.105597e+02  -1.299788e+02
  -1.205694e+02  -1.059876e+02
   4.037172e+01  -4.392880e+01
   1.703246e+02  -2.503924e+01
   4.204537e+01   5.831553e+01
  -9.230119e+00   2.925147e+00
  -4.003710e+01   6.702758e+01
   6.357252e+01   5.000040e+00
   1.860020e+01  -2.663360e+01
  -1.601055e+01   2.188082e+01
  -8.487271e+01   7.104057e+01
  -7.521018e+01   4.606814e+01
  -4.718031e+01  -1.731484e+01
   1.838552e+01  -1.454101e+02
   2.628554e+01  -1.150956e+02
  -3.221746e+01   6.130894e+00
  -1.835217e+01   2.291322e+01
  -4.617252e+01   7.024347e+00
   2.898795e+01   3.804826e+00
  -7.038005e+00  -7.448719e+01
   2.064586e+01  -1.845469e+01
   8.497346e+00  -2.677885e+01
   2.679959e+00   4.518700e+01
  -2.606299e+00  -1.447451e+01
  -3.119175e+01   5.560656e+01
  -1.822934e+01   1.795870e+00
  -7.086729e+00   4.846166e+01
  -4.370157e+01  -7.764500e+00
   1.470931e+01   1.953849e+01
  -5.217759e+01  -7.385563e+01
   4.520321e+01  -5.627691e+01
   4.923427e+01   2.110502e+01
   4.915720e+01  -3.031273e+01
   1.249134e+01   7.132279e+01
  -3.590946e+01   1.007609e+02
  -1.509620e+02   1.456118e+01
  -7.271068e+01  -6.788506e+01
  -2.530479e+01  -3.123423e+01
   2.656236e+01  -2.607785e+00
   5.177371e+01   2.161106e+00
  -7.872653e+01  -8.093430e+00
  -1.393480e+01  -9.417705e+01
   3.297325e+00  -1.193208e+01
   1.091251e+02  -1.102392e+01
