
 $NMID
 id='ANONYMOUS ', fmtdat='(2E16.6)'
 volume=1.0
 tramp=1.0
 $END
   2.739037e+03   3.822672e+01
   1.913056e+03   1.387654e+03
   6.840711e+01   1.752446e+03
  -1.074571e+03   1.146543e+03
  -8.277629e+02   2.369239e+02
  -1.192440e+01  -1.216180e+02
   2.860244e+02  -2.714063e+01
   6.502298e+01   4.460340e+02
  -3.574602e+02   4.457903e+02
  -5.265108e+02   4.561540e+01
  -3.421596e+02  -3.824855e+02
   3.356390e+01  -5.923838e+02
   2.231389e+02  -1.578532e+02
   1.618226e+02   3.653320e+02
  -5.899081e+01   4.289110e+02
  -3.655948e+02   4.800414e+01
  -2.534353e+02  -3.881507e+02
   5.129229e+01  -5.480950e+02
   4.032556e+02  -2.827845e+02
   3.835856e+02   1.407651e+02
   1.818269e+02   3.005170e+02
  -1.182808e+02   2.033308e+02
  -7.778959e+01   9.016495e+01
   1.762552e+02   4.670053e+01
   1.752480e+02   2.331491e+02
  -4.579000e+01   2.979060e+02
  -3.889297e+02   8.106295e+01
  -5.215044e+02  -1.756557e+02
  -2.095477e+02  -3.008606e+02
   2.637986e+02  -1.635013e+02
   4.078147e+02   1.040957e+02
   1.110547e+02   2.968435e+02
  -2.175377e+02   3.291422e+02
  -3.767836e+02   7.263376e+01
  -2.504667e+02  -1.300925e+02
  -7.393017e+01  -3.103396e+02
   3.652072e+00  -1.562299e+02
  -1.304191e+01   9.246281e+01
  -1.396710e+02   1.377196e+02
  -1.368404e+02  -9.093597e+01
  -5.062393e+01  -4.392540e+02
   2.254759e+02  -3.755242e+02
   2.406542e+02  -3.903943e+00
   9.806882e+01   2.085466e+02
  -5.633409e+01   1.250802e+02
  -1.766358e+02  -1.525649e+02
   1.109613e+02  -3.801419e+02
   3.710832e+02  -9.315620e+01
   4.024776e+02   3.875394e+02
   1.613845e+02   3.954695e+02
  -2.576895e+02   2.535270e+02
  -4.278414e+02  -3.334134e+01
  -2.567121e+02  -2.682817e+02
   7.469917e+01  -1.496014e+02
   2.461206e+02  -3.595624e+01
   1.926991e+02   1.978729e+01
   7.461742e+01  -2.452897e+00
  -4.772005e+01  -5.594488e+01
   4.559123e+01   5.658667e+00
   1.751630e+02   6.828126e+01
   9.349673e+01   1.700359e+02
  -1.154203e+02   2.264404e+02
  -3.492201e+02   1.286761e+02
  -1.946694e+02  -4.407018e+01
   3.909350e+01  -2.699325e+02
   2.170193e+02  -3.283584e+02
   3.015395e+02  -1.001403e+02
   2.281447e+02   1.317762e+02
   4.883633e+01   3.430673e+02
  -3.302726e+01   2.640969e+02
  -3.914377e+01   9.139171e+01
  -6.619235e+01   1.128471e+02
  -1.838863e+02   1.063105e+02
  -1.821084e+02   1.682331e+02
  -2.476998e+02  -9.938257e+01
  -7.259969e+01  -2.113795e+02
   1.045274e+02  -2.107281e+02
   1.413353e+02   2.572515e+01
   1.352562e+02   2.328029e+02
  -7.806657e+01   1.903955e+02
  -1.657053e+02   4.381216e+01
  -3.572675e+02  -1.977550e+02
  -1.365914e+02  -2.951439e+02
   8.074119e+01  -2.658898e+02
   1.135504e+02  -1.462307e+02
   1.926135e+02  -1.597099e+02
   1.230469e+02  -4.096021e+01
   2.817205e+02  -2.994051e+01
   3.710440e+02   7.163563e+01
   2.723311e+02   2.410481e+02
  -3.004616e+01   3.900711e+02
  -3.232796e+02   3.766330e+02
  -3.807378e+02   1.389264e+02
  -2.039605e+02  -9.333727e+01
  -8.908618e+00  -2.406102e+02
   1.175230e+02  -1.934036e+02
   2.169948e+01  -2.921552e+01
  -1.487579e+02   1.089922e+02
  -1.461712e+02  -4.398303e+00
   2.662446e+01  -1.325459e+02
   1.249969e+02  -9.003567e+01
   8.839635e+01   9.756865e+01
  -6.803233e+00   9.357068e+01
  -2.064160e+02  -4.828691e+00
  -1.077752e+02  -2.087444e+02
   3.758450e+01  -2.430946e+02
   1.823261e+02  -1.896236e+02
   3.046333e+02   2.627455e+01
   2.249761e+02   2.003199e+02
   2.055370e+01   2.805888e+02
  -1.052119e+02   1.226762e+02
  -1.169080e+02   4.690844e+01
  -9.567228e+01   1.758501e-01
   3.846893e+01   7.786605e+01
  -9.642424e+00   8.906866e+01
  -1.010652e+02   1.066632e+02
  -1.568331e+02  -4.898884e+01
   6.122820e+00  -5.166011e+01
   4.712076e+01   3.217738e+01
   6.359168e+01   8.199688e+01
  -1.310567e+02   1.376146e+02
  -2.405477e+02  -5.636945e+01
  -1.901100e+02  -1.003434e+02
  -4.808779e+01  -2.191651e+02
   1.648711e+02  -1.792046e+02
   2.395831e+02  -1.321262e+02
   1.599009e+02   3.352106e+01
  -4.051620e+01   1.345649e+02
  -4.961617e+01  -3.679487e+01
   8.890453e+01  -5.035713e+01
   1.982743e+02  -3.871577e+01
   1.183489e+02   1.134718e+02
   7.305949e+01   1.712657e+02
  -9.780981e+01   1.216655e+02
  -1.128747e+02   8.140408e-01
  -6.354480e+01  -5.676986e+01
   2.983940e+01   2.809683e+01
   4.488829e+01   1.407526e+02
  -1.036948e+02   1.125185e+02
  -2.044156e+02   7.223146e+01
  -1.377794e+02  -1.406509e+02
  -2.418050e+01  -1.884784e+02
   1.569608e+02  -1.286313e+02
   1.953785e+02  -1.654395e+01
   7.876944e+01   1.338560e+02
  -1.081745e+02   7.079845e+01
  -4.983634e+01   7.369835e+00
   5.652678e+01  -9.259949e+00
   6.229604e+01  -2.137641e+01
   2.469065e+01  -1.078381e+01
  -1.112820e+02   2.562030e+01
  -5.421109e+01  -1.002478e+02
   8.863123e+00  -1.669067e+02
   1.091611e+02  -2.027289e+02
   2.577607e+02   6.863481e+01
   2.103516e+02   1.432859e+02
   6.853792e+00   2.118679e+02
  -9.999078e+01   1.224828e+02
  -1.108553e+02   1.540803e+01
  -2.019753e+01  -6.462199e+01
   2.199390e+01  -9.902435e+00
  -2.776923e+01   1.266150e+01
  -1.143406e+02  -5.509764e-01
  -5.641542e+01  -1.305836e+02
   4.639905e+01  -1.168853e+02
   7.372059e+01  -1.051818e+02
   1.187829e+02   2.303698e+01
  -1.447057e+01   9.455232e+01
  -1.815341e+02   9.719459e+01
  -2.143997e+02  -2.329904e+01
  -1.201619e+02  -2.139578e+02
   1.203614e+02  -1.929833e+02
   2.526135e+02  -7.661889e+01
   2.419521e+02   8.710904e+01
   1.082508e+02   1.301600e+02
  -2.063531e+01   9.572373e+01
  -1.085741e+02   1.006588e+02
  -1.357555e+02   6.343590e+01
  -3.239975e+01   9.721241e+01
  -8.904150e+01   6.531435e+01
  -1.084541e+02   1.040348e+01
  -1.329549e+02  -1.264668e+02
  -6.111994e+01  -2.144851e+02
   8.875240e+01  -1.058956e+02
   2.136225e+02  -3.306765e+01
   1.650417e+02   1.311968e+02
   1.273975e+01   1.679816e+02
  -6.098139e+01   2.290246e+01
   3.005354e+00   1.059010e+01
   2.123951e+01  -6.606576e+01
   5.766958e+01  -2.210504e+01
   6.704436e+00   2.460761e+00
  -8.914696e+01  -2.882110e+01
  -4.067284e+01   3.412107e+01
   4.193807e+01  -9.136354e+01
   2.099399e+02  -3.085474e+01
   1.034757e+02   1.104309e+02
  -7.190428e+01   4.932376e+01
  -1.508693e+02   7.234159e+01
  -1.149127e+02   4.298937e+01
  -6.304725e+01  -1.341227e+01
   3.271072e+01   1.660675e+00
   8.542348e+01  -3.792232e+01
  -3.375952e+00   5.451089e+00
  -9.784530e+01   4.960333e+01
  -4.753151e+01   2.244857e+00
  -6.127064e+01  -9.790405e+01
  -4.794073e+01  -3.958146e+01
  -5.082405e+01  -2.227129e+01
  -1.042194e+02  -2.950971e+01
   1.675999e+01  -1.002176e+02
  -1.899884e+00  -1.135819e+02
   7.453117e+01  -7.310853e+01
   8.428672e+01  -2.724091e+01
   1.389732e+02   1.000363e+02
   1.178682e+01   1.146871e+02
  -5.451038e+01   3.026068e+01
  -5.667078e+01  -1.098004e+01
   8.724022e+01  -3.415045e+01
   1.008856e+02   2.310475e+01
   9.012437e+01   6.235807e+01
  -1.198331e+02   4.937506e+01
  -2.089252e+02   1.233202e+01
  -9.935462e+01  -7.240630e+01
   5.428668e+01  -4.462374e+01
   5.175243e+01   2.366796e+01
   7.339325e+01  -2.327951e+01
  -5.468599e+01   4.957976e+01
  -1.247116e+02  -3.637675e+00
  -1.653100e+00  -8.586057e+01
   3.129490e+01  -1.631373e+02
   1.993844e+02  -6.413726e+01
   1.385103e+02   8.777645e+01
   3.410261e+01   1.953182e+02
  -1.067054e+02   6.403864e+01
  -6.580930e+01  -3.258645e+01
  -8.591965e+01  -6.329693e+01
   4.648881e+01  -1.571346e+02
   5.411836e+01  -1.459774e+01
  -1.568028e+01   1.846596e+01
   1.720868e+01   3.121851e+01
  -3.035902e+01  -4.589916e+01
   5.386335e+01   1.757599e+01
   9.475711e+01   1.238941e+02
   1.454751e+01   2.702455e+01
  -1.556903e+00  -7.955538e+00
  -1.640560e+02  -5.631456e+01
  -9.152246e+01  -1.704361e+01
  -3.590891e+01  -4.757441e+01
   9.243721e+01   1.547857e+01
   1.589252e+02  -2.405826e+01
   4.194701e+01  -2.384658e+00
  -4.876352e+01   4.412815e+01
   2.885173e+01  -1.541975e+01
   4.692670e+01   4.511227e+01
  -1.846768e+01   5.528063e+01
  -2.365300e+01   3.339867e+00
  -5.548845e+01   2.055775e+01
  -1.876399e+01  -3.764456e+01
   7.665966e+01  -1.277571e+02
   1.080114e+02  -3.764746e+01
   1.479556e+02   2.608110e+01
   1.547764e+01   1.312348e+02
  -1.372100e+02   1.511195e+02
  -8.339117e+01   8.393071e+01
  -7.528644e+01   2.993027e+01
  -5.893185e+01   2.269312e+01
  -5.295177e+01  -2.009963e+01
   1.126244e+01  -3.850000e+00
  -2.366067e+01  -3.385387e+01
   2.879747e+01  -8.631205e+01
  -9.580470e-01  -9.358569e+01
   1.012601e+02  -8.188265e+01
   4.006195e+01   7.354074e+01
  -6.573938e+00   1.666270e+02
  -6.069016e+01   2.005893e+01
  -1.180434e+02  -3.689600e+01
  -1.083685e+02  -6.439627e+01
   8.948065e+01   4.739735e+00
   1.435082e+02   9.621011e+01
   1.019108e+02   5.691867e+01
  -5.032856e+00   1.079046e+02
  -7.632094e+01   4.069681e+01
  -1.940518e+01   1.965271e+01
   5.840096e+01  -1.387292e+01
   8.642626e+01   3.710970e+01
  -6.615083e+01   6.576082e+01
  -1.761094e+02   3.840966e+01
  -8.421944e+01   1.190050e+01
   8.164758e+00  -8.848805e+01
   4.543554e+01  -8.471552e+01
   1.169182e+02   5.354937e+01
   3.011829e+01  -9.180724e+00
  -5.607650e+01  -3.232810e+01
  -5.032714e+01  -2.836261e+01
  -1.373040e+01  -3.956215e+01
   6.085307e+01  -6.218803e+01
   6.831833e+01   7.756860e+00
   5.772113e+01   6.516511e+00
   5.439186e+01   2.687995e-01
  -4.657023e+01   4.669490e+01
  -3.807425e+01  -6.375304e+00
   1.965258e+01   3.506500e+01
  -2.870800e+00   1.209434e+01
  -5.296543e+01   5.711264e+01
  -1.179087e+01   2.170593e+00
   1.845561e+00  -3.014207e+01
   3.633277e+01   6.487261e+00
   3.374018e+01   2.462937e+01
   8.812407e+00   7.372479e+01
  -9.214908e+01   7.695616e+01
  -1.119147e+02  -4.301349e+01
  -4.394798e+01  -6.732204e+01
   3.678815e+01  -2.820745e+01
   1.004651e+02  -3.482017e+01
   2.471308e+01  -3.313768e+01
   3.391472e+01  -1.847420e+01
  -5.186994e+01  -4.824703e+01
  -1.808669e+01   1.341951e+01
   4.486246e+01  -8.345495e+00
