
 $NMID
 id='ANONYMOUS ', fmtdat='(2E16.6)'
 volume=1.0
 tramp=1.0
 $END
  -3.472566e+03   4.701572e+01
  -2.225933e+03  -1.852027e+03
   1.290433e+02  -2.227081e+03
   1.403439e+03  -1.085547e+03
   9.491720e+02  -6.755077e+01
  -1.433799e+02   2.318178e+02
  -5.143850e+02  -2.194670e+02
  -2.017108e+01  -6.627021e+02
   5.143434e+02  -6.008777e+02
   7.502825e+02  -1.778088e+01
   4.567060e+02   6.167257e+02
  -1.710997e+01   6.567273e+02
  -3.863881e+02   1.734003e+02
  -2.272531e+02  -4.352400e+02
   1.407938e+02  -5.805684e+02
   4.458050e+02  -8.129449e+01
   3.347267e+02   5.504647e+02
  -1.947240e+02   6.414708e+02
  -5.244945e+02   2.545195e+02
  -4.053621e+02  -2.081110e+02
  -8.703225e+01  -3.576837e+02
   1.133336e+02  -2.359920e+02
   6.466306e+01  -1.390986e+01
  -1.207275e+02  -1.468377e+01
  -3.021001e+02  -2.816788e+02
  -3.056178e+00  -4.306896e+02
   4.530180e+02  -2.175816e+02
   7.708542e+02   1.315134e+02
   2.786693e+02   3.553736e+02
  -3.647886e+02   2.676524e+02
  -5.905069e+02  -1.210985e+02
  -2.810744e+02  -4.528652e+02
   2.891282e+02  -3.671042e+02
   4.847812e+02  -1.115945e+02
   3.191125e+02   1.710235e+02
   9.329769e+01   3.497801e+02
  -9.596629e+01   1.974042e+02
   8.497721e+00  -1.454934e+02
   1.753852e+02  -1.882467e+02
   3.326878e+02   9.702168e+01
   5.756323e+01   5.440491e+02
  -2.801231e+02   5.094417e+02
  -4.569082e+02  -1.026090e+01
  -1.381349e+02  -3.777036e+02
   1.862222e+02  -1.777156e+02
   2.014182e+02   3.023200e+02
  -8.330716e+01   3.986617e+02
  -4.880741e+02   1.314817e+02
  -4.826987e+02  -4.014984e+02
  -1.313996e+02  -5.563061e+02
   3.315926e+02  -3.621919e+02
   5.069304e+02   8.485918e+01
   3.515500e+02   3.031233e+02
  -1.321884e+02   2.475024e+02
  -3.237548e+02   1.282420e+02
  -2.089918e+02  -1.401870e+01
   2.890866e+01  -5.910163e+01
   5.025086e+01   1.084173e+02
  -1.356105e+02   7.624721e+01
  -2.261171e+02  -5.104528e+01
  -1.369789e+02  -2.177638e+02
   1.601668e+02  -2.237859e+02
   3.562046e+02  -1.803876e+02
   2.666586e+02   5.429618e+01
  -1.009303e+01   3.253060e+02
  -2.728646e+02   3.377372e+02
  -3.920975e+02   2.429402e+02
  -2.963946e+02  -2.449040e+02
  -5.854166e+01  -4.004240e+02
   8.827567e+01  -3.362105e+02
   9.167682e+01  -1.481383e+02
   3.168444e+01  -3.201077e+01
   1.400663e+02  -1.188266e+02
   2.478934e+02  -1.145759e+02
   2.195333e+02   1.378767e+02
   1.026797e+02   3.311903e+02
  -1.552857e+02   2.124706e+02
  -1.942201e+02  -7.461553e+00
  -1.150500e+02  -2.175618e+02
   5.656086e+01  -2.809595e+02
   2.702732e+02  -2.167494e+01
   3.362650e+02   1.601312e+02
   1.302090e+02   3.655323e+02
  -6.622692e+01   2.289489e+02
  -2.333417e+02   1.609634e+02
  -1.367046e+02   9.727784e+01
  -1.630400e+02   1.186961e+02
  -3.120814e+02   5.388036e+01
  -3.909551e+02  -1.011412e+02
  -3.366171e+02  -3.376032e+02
   4.222947e+01  -4.331839e+02
   4.254974e+02  -3.714432e+02
   4.717050e+02  -1.501158e+02
   2.839629e+02   1.072290e+02
   1.456876e+01   3.142579e+02
  -1.011708e+02   2.033526e+02
  -1.639795e+01   3.473884e+01
   1.294000e+02  -1.094490e+02
   2.140247e+02   4.228536e+01
  -1.949735e+01   2.363585e+02
  -1.202909e+02   1.075349e+02
  -8.449362e+01  -1.043406e+02
   9.374899e+00  -1.245256e+02
   1.550250e+02   5.825400e+01
   1.531921e+02   2.790851e+02
  -7.793089e+00   3.572021e+02
  -2.414596e+02   2.216303e+02
  -3.068636e+02  -8.221079e+01
  -2.647712e+02  -2.732409e+02
  -1.121487e+02  -2.658982e+02
   1.701225e+02  -1.440600e+02
   1.424566e+02  -1.829199e+01
   5.552781e+01   4.483819e+01
  -7.700600e+01  -5.086564e+01
   5.372460e+01  -9.099106e+01
   1.349313e+02  -7.645949e+01
   2.616436e+02   1.437618e+00
   3.183690e+01   2.217195e+01
  -4.882458e+01  -1.761668e+01
  -7.604149e+01  -8.349973e+01
   1.847713e+02  -1.157292e+02
   2.537958e+02  -9.529652e+01
   2.796499e+02   1.609959e+02
   8.813462e+01   2.434551e+02
  -2.147756e+02   2.605657e+02
  -3.283824e+02   1.183537e+02
  -8.522139e+01  -3.571399e+01
   3.677901e+01  -1.153953e+02
   2.997163e+01  -1.957387e+01
  -3.798789e+01   1.339328e+01
  -1.534196e+02   1.655365e+01
  -1.868331e+02  -9.353334e+01
  -3.915828e+01  -1.965391e+02
   1.108125e+02  -9.346491e+01
   1.179912e+02   3.273556e+00
   7.097201e+01   5.371006e+00
   2.612558e+01  -4.068472e+01
  -6.025929e+01  -1.220488e+02
   1.226518e+02  -5.012273e+01
   2.228715e+02   7.237780e-01
   2.038075e+02   1.194818e+02
   1.176140e+01   2.213721e+02
  -2.056848e+02   1.421599e+02
  -1.570838e+02  -4.542332e+00
  -1.011050e+02  -1.353396e+02
   6.068878e+01  -1.062279e+02
   5.419056e+01  -7.665639e+01
  -2.914533e+01   4.291728e+01
  -4.358806e+01   5.869289e+00
   1.053964e+01  -2.138279e+01
   1.059915e+02  -2.580193e+01
   1.319131e+02   6.488335e+01
  -4.927658e+01   1.949724e+02
  -1.186486e+02   1.583414e+02
  -1.821327e+02   7.019148e+01
  -1.911322e+02  -1.917130e+02
  -7.917925e+01  -2.067397e+02
   3.250757e+01  -1.477363e+02
   1.545199e+02  -4.974697e+01
   9.634495e+01   1.139745e+01
   6.619619e+01   5.195039e+01
   7.899825e+01   1.123605e+01
   9.603060e+01   1.787525e+01
   4.681797e+01   5.013263e+01
   2.225732e+01   7.039417e+01
  -7.839777e+01   7.178153e+01
  -1.131637e+02  -5.977975e+01
   2.508992e+01  -1.171563e+02
   1.478615e+02  -8.572575e+01
   2.544704e+02   5.221985e+01
   4.263461e+01   1.893189e+02
  -9.502301e+01   2.652522e+02
  -2.476228e+02   1.149348e+02
  -2.748051e+02  -1.294005e+02
  -1.397540e+02  -1.647966e+02
   5.495222e+01  -1.141155e+02
   1.248180e+02  -8.180148e+01
   1.366163e+02  -1.031048e+02
   1.069523e+02  -1.535384e+02
   1.064000e+02  -2.023715e+01
   1.265673e+02  -1.165034e+01
   1.757548e+02   1.272367e+02
   2.678321e+01   2.326039e+02
  -1.027655e+02   2.036146e+02
  -1.449075e+02   3.890362e+01
  -1.143078e+02  -9.575586e+01
  -1.417911e+01  -1.727869e+02
   5.224389e+01  -9.926950e+01
   8.029724e+01   7.462663e+00
  -4.549495e+01   8.509705e+01
  -4.370118e+01   6.809823e+01
   3.360026e+01  -2.442046e+01
   6.149317e+01   1.740760e+01
   6.123027e+01   3.548500e+01
  -6.908888e+01   8.195628e+01
  -9.980330e+01  -2.694610e+01
  -1.211484e+02  -9.870314e+01
   1.689045e+01  -5.472727e+01
   1.306086e+02  -8.417720e+01
   1.310698e+02   2.696409e+01
   4.035222e+01  -5.132262e-01
  -3.748443e+01   6.033329e+01
  -7.364600e+00   7.588401e+00
  -3.506801e+01  -6.026668e+01
   2.597916e+01  -9.010826e+01
   9.465407e+01   3.229466e+01
   1.238566e+02   5.764737e+01
   4.386798e+01   5.571031e+01
   9.625322e+01  -3.053862e+01
   3.781101e+01  -3.191437e+01
   3.422091e+01   1.002902e+02
   6.647769e+00   9.631210e+01
  -1.552322e+02   1.697801e+02
  -1.228142e+02   5.547148e+01
  -5.454072e+01  -9.383971e+01
   6.427584e+00  -1.080515e+02
   1.327483e+02  -7.658461e+01
   6.548394e+01   4.406099e+01
  -1.589521e+00  -1.158794e+01
  -1.919628e+02  -1.534504e+01
  -2.541918e+01  -1.172200e+02
   1.073928e+02  -1.338676e+02
   1.886270e+02  -4.413985e+00
   2.136089e+02   6.153987e+01
   1.083148e+02   4.380987e+01
  -6.770392e+01   3.512912e+01
  -1.753238e+01  -1.699109e+01
   6.697534e+01  -8.906086e+01
   1.222482e+02   5.905298e+01
  -3.751700e+00   7.852893e+01
  -3.708235e+01   9.292252e+01
  -8.741460e+01   1.012482e+02
  -1.420485e+02  -7.690993e+01
  -1.461558e+01  -1.940527e+02
   7.149312e+01  -9.640200e+01
   7.345754e+01   1.284317e+02
   6.812987e+01   1.129156e+02
  -1.244190e+01   1.308102e+02
   1.550253e+01   4.757515e+01
  -7.554235e+01   1.158864e+01
  -5.992535e+01   8.677987e-01
  -2.179121e+00   1.373589e+01
  -6.543409e+01  -2.385542e+01
  -1.063380e+02  -1.590939e+02
  -1.700045e+01  -1.151132e+02
   6.649045e+01  -5.096592e+01
   1.393258e+02   5.577758e+01
   1.044284e+02   9.422721e+01
   9.200644e+01   1.034236e+02
  -5.929579e+01   8.726091e+01
  -6.818928e+01   4.855541e+01
  -3.367455e+01   5.081548e+01
   2.474235e+01  -5.830848e+01
   5.135671e+01  -4.485075e+01
  -9.128239e-01   7.632756e+01
   2.153869e+01   2.524057e+01
   8.665623e+01  -1.492332e+01
   1.036960e+02   1.473844e+01
   7.145099e+01   6.285263e+01
  -1.032977e+02   1.667960e+02
  -1.851900e+02   3.161636e+01
  -1.437375e+02  -5.347319e+01
  -1.061869e+02  -1.702884e+02
   3.150863e+01  -1.483492e+02
   1.188541e+02  -6.968677e+01
   1.347315e+02   2.833522e+01
   2.854170e+01   5.117967e+01
   1.494998e+01   3.678871e+01
   3.680994e+01   2.069751e+01
   1.484639e+01   6.929752e+01
   1.298697e+01   1.718181e+02
  -4.184986e+00   1.234405e+02
  -2.184719e+01  -1.438575e+01
  -1.284322e+02  -4.688575e+01
  -1.015892e+01  -7.142805e+01
   3.971572e+01   1.348606e+01
   1.180914e+02   4.044842e+01
   3.367688e+00   7.968992e+01
  -4.927668e+01   6.484414e+01
  -4.188059e+01   6.552691e+01
  -7.188559e+01  -1.145472e+01
  -2.089579e+00  -4.073901e+01
   1.419554e+01   1.791562e+00
  -9.862577e+01  -3.012904e+01
  -1.150014e+02  -1.825933e+01
  -6.223886e+01  -2.264859e+01
   5.762730e+01  -1.647233e+01
   1.443858e+02  -1.037805e+02
   5.294737e+01  -1.674751e+01
  -2.652679e+01   9.075466e+01
  -8.206349e+01   6.629532e+01
  -5.239289e+01  -1.742769e-01
   1.364117e+01  -9.740030e+01
   1.148226e+01  -3.646032e+01
   3.083134e+01   3.032630e+01
   6.200555e+01   5.108437e+01
  -3.876325e-01   2.595573e+01
   4.673332e+01  -9.189637e+00
  -3.000121e+01  -7.378837e+01
  -1.466953e+01  -3.705739e+01
   1.036013e+01   3.808980e+01
   1.496930e+01   9.269254e+00
   1.530391e+01  -7.835541e+01
  -5.961761e+01  -4.802473e+01
  -5.698872e+00  -2.189128e+01
   2.963799e+01  -1.253992e+01
   8.939742e+00   3.183087e+01
  -1.013708e+02   4.304714e+01
  -3.095719e+01   3.811906e+01
  -3.587168e+01  -5.947318e+01
   5.575239e+01   1.866180e+01
   1.080727e+02   2.043419e+00
   1.046202e+02   1.046879e+01
  -3.298115e+01   4.960637e+01
  -5.827903e+01   1.670722e+01
   5.722605e+01   3.747851e+01
   3.244614e+01  -1.378341e+01
   9.571164e+01   3.915223e+01
  -6.582846e+01   2.408022e+01
  -8.502325e+01   9.477640e+00
