
 $NMID
 id='ANONYMOUS ', fmtdat='(2E16.6)'
 volume=1.0
 tramp=1.0
 $END
  -3.684718e+03   1.307814e+01
  -2.379331e+03  -2.037355e+03
   2.740736e+02  -2.338897e+03
   1.580673e+03  -1.200368e+03
   9.483820e+02   6.192025e+01
  -2.446740e+02   3.630804e+02
  -5.828744e+02  -2.611590e+02
  -2.419503e+01  -7.485042e+02
   6.067045e+02  -6.214132e+02
   7.673022e+02   4.919689e+00
   5.001933e+02   6.128533e+02
  -6.028342e+01   7.423926e+02
  -4.337266e+02   1.936764e+02
  -2.844794e+02  -5.719495e+02
   1.545803e+02  -6.708690e+02
   5.386959e+02  -4.957211e+01
   2.868615e+02   6.044552e+02
  -1.912266e+02   6.277999e+02
  -4.830083e+02   1.631981e+02
  -4.577075e+02  -2.193766e+02
  -1.008069e+02  -4.577258e+02
   1.656494e+02  -3.094386e+02
   1.098746e+02  -5.501245e+01
  -1.549016e+02  -5.162437e+01
  -3.027873e+02  -1.904416e+02
  -4.304670e+01  -3.404164e+02
   4.856307e+02  -2.845232e+02
   6.936843e+02   1.369154e+02
   3.013275e+02   4.497821e+02
  -3.826030e+02   2.825655e+02
  -6.340434e+02  -1.358407e+02
  -2.517850e+02  -4.248587e+02
   2.424615e+02  -4.216455e+02
   4.997787e+02  -1.878021e+02
   3.812083e+02   2.407715e+02
   8.780267e+01   4.066954e+02
  -1.902865e+02   2.420694e+02
  -2.164106e+01  -1.288003e+02
   1.854174e+02  -2.982325e+02
   2.924570e+02   1.161148e+02
   1.575644e+02   5.645132e+02
  -2.341961e+02   5.962732e+02
  -4.098882e+02   6.798165e+00
  -2.020859e+02  -3.969984e+02
   2.206809e+02  -1.948259e+02
   2.242104e+02   3.211313e+02
  -5.825805e+01   4.232023e+02
  -4.662364e+02   9.159041e+01
  -5.341448e+02  -3.634055e+02
  -2.070190e+02  -5.516501e+02
   3.425396e+02  -3.010835e+02
   5.567666e+02   9.654509e+01
   3.878124e+02   3.341814e+02
  -1.026388e+02   3.048437e+02
  -3.635171e+02   1.060826e+02
  -2.423299e+02  -7.797059e+01
   8.716604e+01  -3.984889e+01
   1.260758e+02   9.432531e+01
  -1.319157e+02   1.100429e+02
  -2.587560e+02  -6.735446e+01
  -1.414669e+02  -2.038130e+02
   1.439556e+02  -2.622228e+02
   3.753585e+02  -6.246030e+01
   2.887217e+02   1.247262e+02
  -1.195081e+01   2.667470e+02
  -2.954197e+02   3.583595e+02
  -3.651457e+02   1.905149e+02
  -2.631325e+02  -1.727281e+02
  -6.714334e+01  -3.483391e+02
   8.289918e+01  -3.408490e+02
   4.876383e+01  -1.544485e+02
   3.672862e+01  -6.594399e+01
   5.409914e+01  -1.373280e+02
   2.188109e+02  -8.152481e+01
   2.534025e+02   5.089162e+01
   1.179200e+02   3.079031e+02
  -2.986047e+01   2.556070e+02
  -1.989662e+02   1.593402e+01
  -1.570496e+02  -3.215551e+02
   7.181279e+01  -2.154889e+02
   2.920362e+02  -1.430159e+02
   2.818591e+02   1.651384e+02
   2.269044e+02   3.053427e+02
  -5.311871e+01   2.353486e+02
  -1.210519e+02   1.024048e+02
  -1.497470e+02   5.451763e+01
  -1.718863e+02   1.923163e+01
  -3.250653e+02   5.225371e+01
  -4.173951e+02  -6.680277e+01
  -2.779111e+02  -3.229280e+02
   3.453924e+01  -4.125962e+02
   3.659298e+02  -4.045879e+02
   4.401465e+02  -2.234780e+02
   2.701055e+02   9.975900e+01
   1.062924e+02   2.337163e+02
  -5.752051e+01   2.305762e+02
  -2.522008e+01   9.364030e+00
   7.920405e+01  -7.508720e+01
   1.104194e+02  -1.727127e+01
  -1.543288e+01   1.258141e+02
  -1.142689e+02   1.068113e+02
  -1.327063e+02  -3.774981e+01
   2.273108e+01  -2.109920e+02
   2.025562e+02   8.109421e+01
   1.765161e+02   2.914201e+02
  -2.748230e+01   3.181988e+02
  -2.485412e+02   2.299618e+02
  -3.637165e+02  -9.143144e+01
  -2.430205e+02  -2.206003e+02
  -9.877398e+01  -3.883713e+02
   9.590904e+01  -1.219075e+02
   1.091767e+02  -4.137037e+01
   6.231694e+01   2.986025e+00
  -9.217005e+01  -7.179427e+01
   5.802078e+00  -1.109913e+02
   1.288147e+02  -8.516800e+01
   1.353649e+02  -1.517161e+01
   2.077275e+01   5.378963e+01
  -8.946544e+01  -2.487375e+01
  -4.683074e+00  -8.697433e+01
   1.783540e+02  -1.033620e+02
   3.042728e+02   2.209413e+01
   2.332322e+02   1.618106e+02
   2.500892e+01   2.402789e+02
  -1.909533e+02   2.631515e+02
  -2.582534e+02   1.434676e+02
  -1.747429e+02  -2.329689e+01
   2.442746e+01  -1.090050e+02
   7.259733e+00   3.846759e+01
   9.468217e-01   1.575928e+02
  -1.644240e+02   1.939604e+01
  -2.716057e+02  -1.264445e+02
  -4.474067e+01  -1.664049e+02
   1.711668e+02  -1.557818e+02
   1.421196e+02  -7.569515e+01
   3.289770e+01  -9.858906e+00
  -1.723815e+01  -1.055844e+01
  -6.907652e+01  -1.135721e+02
   5.017998e+01  -1.201379e+02
   2.201552e+02  -2.200593e+01
   1.590712e+02   1.387973e+02
  -2.158076e+01   1.417738e+02
  -1.812984e+02   2.261062e+02
  -1.372080e+02   3.508718e+01
  -8.290922e+01  -9.953223e+01
   6.305688e+01  -5.603344e+01
   1.432629e+01  -4.400266e+01
   3.303820e+01   1.782958e+01
  -3.926378e+01  -6.605973e+00
   1.192654e+01  -1.945226e+01
   7.978152e+01  -3.317142e+01
   9.542517e+01   1.045299e+02
  -4.614998e+01   1.781870e+02
  -1.567206e+02   1.610187e+02
  -2.962422e+02  -2.246888e+00
  -2.127632e+02  -1.300268e+02
  -4.344982e+01  -2.269070e+02
   9.008662e+01  -1.523766e+02
   1.437265e+02  -5.289439e+01
   7.677947e+01   5.510293e+01
   5.775957e+01   2.137070e+01
   9.136937e+01   2.994575e+01
   7.235264e+01   1.462204e+01
   5.793334e+01   6.394480e+01
  -8.051200e+01   1.426033e+02
  -1.104211e+02   1.124895e+02
  -1.314499e+02  -2.607196e+01
   4.941451e+01  -9.849292e+01
   1.638916e+02  -1.429334e+02
   1.768712e+02   6.169945e+01
   1.537071e+02   1.987745e+02
  -7.824358e+01   2.732278e+02
  -2.899152e+02   1.071408e+02
  -2.541348e+02  -1.050275e+02
  -1.045317e+02  -1.836393e+02
   6.375527e+01  -1.565185e+02
   9.241932e+01  -3.390902e+01
   9.174225e+01  -6.459822e+01
   1.211241e+02  -1.355988e+02
   2.042718e+01  -3.652328e+01
   7.454281e+01   3.066191e+01
   1.317769e+02   1.839044e+02
   7.074696e+01   2.379948e+02
  -1.518259e+02   1.348442e+02
  -1.921524e+02   8.370207e+01
  -1.754637e+02  -1.272463e+02
  -5.014016e+01  -1.138993e+02
   5.977597e+01  -8.773923e+01
   1.282821e+01   2.258644e+01
   3.195016e+01   7.060085e+01
  -7.765747e+01   3.947047e+01
   5.489217e+01   4.639168e+01
   6.768686e+01   4.061282e+01
   1.058360e+02   3.753713e+01
  -8.725601e+01   5.709096e+01
  -2.189755e+02  -1.750787e+01
  -1.621069e+02  -1.009557e+02
  -9.116771e+00  -1.224360e+02
   1.116067e+02  -9.062320e+01
   1.812915e+02  -1.368378e+01
   4.662562e+01   6.813609e+01
  -8.216635e+01   4.527086e+01
  -9.240498e+01  -3.142156e+01
  -1.844940e+01  -6.066500e+01
   9.035512e+01  -7.191022e+01
   7.420080e+01   2.788065e+01
   2.434512e+01   7.229875e+01
   8.670541e+01  -1.146575e+00
  -1.405107e+01  -3.234867e+01
   8.318823e+01  -6.442624e+01
   4.841259e+01   1.010306e+02
  -1.777981e+01   1.581499e+02
  -1.716411e+02   1.616170e+02
  -1.164691e+02   5.781460e+01
  -1.248473e+02  -8.822471e+01
   1.974405e+01  -1.792239e+02
   4.175720e+01  -4.906910e+01
   1.095360e+01  -6.114114e+01
  -1.052173e+02  -1.248477e+01
  -1.225970e+02  -5.863356e+01
  -7.406637e+01  -1.274761e+02
   6.070039e+01  -4.890234e+01
   2.418224e+02   1.094873e+00
   2.205867e+02  -8.926854e+00
   2.014050e+00   1.144987e+02
  -7.510227e+01   1.095992e+02
  -7.027228e+01  -5.034590e+01
   1.732440e+01  -1.814264e+01
   1.211194e+02   6.839563e+00
   2.618886e+01   1.255705e+02
  -8.381325e+01   2.239240e+02
  -2.018008e+02   7.721272e+01
  -1.522235e+02  -1.090685e+02
   1.072801e+01  -2.659134e+02
   8.348446e+01  -9.352848e+01
   1.487535e+02  -7.227189e+00
   3.408472e+01   1.283789e+02
  -4.123546e+01   8.734653e+01
  -4.637507e+01   1.875762e+01
  -6.040116e+01  -1.506319e+01
  -2.067630e+01   1.877453e+01
  -2.501121e+01  -5.966620e+01
  -6.568131e+01   1.025331e+01
  -6.961203e+01  -1.188663e+02
  -1.726060e+01  -1.486131e+02
  -2.381964e+01  -6.744193e+01
   1.724672e+02   3.478448e+01
   6.558246e+01   8.161625e+01
   1.955437e+00   1.128799e+02
  -1.425183e+02  -3.082692e+01
  -2.523096e+01   4.021857e+01
  -4.183154e-01  -3.459420e+00
   3.005914e+01  -4.381366e+01
   5.530614e+01  -1.109962e+01
  -1.731354e+01  -9.790782e+00
   2.860512e+01  -1.290551e+01
   4.826069e+01  -1.012381e+01
   1.090239e+02  -1.531445e+01
  -2.562436e+01   8.240571e+01
  -9.179680e+01   1.222124e+02
  -1.856931e+02   9.406935e+01
  -1.159082e+02  -5.533462e+01
  -4.953784e+01  -1.697332e+02
   1.237123e+02  -1.583404e+02
   1.256425e+02  -3.213684e+01
   3.776145e+01  -2.255938e+01
   3.872527e+01   5.796658e+00
  -1.381624e+01  -5.437707e+00
  -2.111805e+00  -1.472260e+01
   4.762887e+01  -2.045584e+00
   1.093087e+01   8.498564e+01
   5.602310e+00   8.474841e+01
  -8.697911e+01  -3.668350e+01
  -6.639266e+01  -2.614761e+01
   2.204911e+01  -1.891693e+02
   7.899720e+01   9.372221e+00
   1.066690e+02   9.558148e+01
   9.983378e+01   4.331868e+01
  -1.245476e+02   4.485730e+01
  -1.370060e+02  -1.024843e+01
  -5.999016e+01  -3.225346e+01
  -9.282335e+00  -5.922008e+01
   6.313205e+01   1.607511e+01
  -4.878438e+01   1.703033e+01
  -9.490686e+01  -5.448023e+01
  -7.628510e+01  -3.670536e+01
   9.663233e+01  -7.550093e+01
   1.464975e+02  -1.127042e+02
   2.489624e+01  -2.462536e+01
   2.157704e+01   7.974482e+01
  -8.205449e+01   1.309550e+02
  -2.393693e+01   3.330796e+01
  -2.547007e+01  -2.148313e+01
   5.075412e+01  -4.195987e+01
   3.326749e+01   2.229864e+01
   4.188112e+01   9.827838e+01
   1.649538e+00   9.361424e+01
   9.928436e-01  -3.819207e+01
   4.949977e+00  -2.318200e+01
  -6.198793e+01   2.581658e+01
   1.888805e+01  -3.436513e-02
   3.773216e+00   1.667941e+01
   1.992218e+01  -6.702991e+01
  -4.412246e+00  -4.860263e+01
   2.609301e+01  -2.495593e+01
   3.762017e+01   3.407701e+00
  -5.798525e+01   6.417444e+01
  -2.356334e+01   6.775144e+01
  -3.329322e+01  -5.431835e+01
   2.448439e+01  -3.806221e+01
   2.579948e+01  -2.116837e+01
   8.600323e+01   2.627640e+01
   6.460890e+01   4.410215e+01
   2.266572e+01   4.330128e+01
  -7.594887e+01   2.271790e+01
  -3.218439e+01   5.521135e+01
   8.879793e+01  -3.360493e+01
   3.283021e+01   2.097393e+01
   1.974982e+01   2.132557e+01
  -1.268804e+02  -9.336480e+00
