
 $NMID
 id='ANONYMOUS ', fmtdat='(2E16.6)'
 volume=1.0
 tramp=1.0
 $END
  -3.523459e+03  -1.787080e+01
  -2.019184e+03  -2.160689e+03
   6.694848e+02  -2.141159e+03
   1.651011e+03  -6.949792e+02
   6.471139e+02   6.049221e+02
  -6.218514e+02   4.411267e+02
  -6.626578e+02  -3.836245e+02
   5.591553e+01  -8.488374e+02
   6.983630e+02  -6.897014e+02
   7.869563e+02   1.044823e+02
   3.575801e+02   6.820541e+02
  -2.013647e+02   7.388660e+02
  -5.423947e+02   5.341027e+01
  -2.985481e+02  -6.427757e+02
   1.843338e+02  -6.175385e+02
   4.800956e+02   5.292769e+01
   2.505739e+02   5.202871e+02
  -2.337022e+02   4.327629e+02
  -5.130747e+02   3.082962e+01
  -2.979344e+02  -2.758291e+02
   1.521391e+00  -3.829933e+02
   1.974851e+02  -2.181064e+02
   1.440416e+02   3.382216e+01
  -4.313378e+01   7.115798e+01
  -3.892055e+02  -9.897500e+01
  -2.112488e+02  -4.037022e+02
   4.085640e+02  -3.818262e+02
   7.574730e+02   6.734224e+01
   3.807894e+02   4.551833e+02
  -3.731048e+02   4.039739e+02
  -6.499688e+02  -7.049039e+01
  -2.940373e+02  -4.137407e+02
   1.919884e+02  -4.323115e+02
   4.420686e+02  -1.769789e+02
   3.243736e+02   2.134536e+02
  -3.269389e+00   3.322741e+02
  -1.108051e+02   2.027068e+02
  -1.548908e+02  -1.993879e+02
   1.451024e+02  -3.523883e+02
   3.941503e+02   3.185772e+01
   2.213146e+02   5.750150e+02
  -2.763201e+02   6.102476e+02
  -5.376960e+02  -1.206691e-02
  -1.588019e+02  -4.296582e+02
   2.287688e+02  -2.849599e+02
   3.425353e+02   2.355886e+02
  -2.822356e+01   4.997687e+02
  -4.058038e+02   1.290811e+02
  -4.789474e+02  -3.333278e+02
  -1.039917e+02  -4.807912e+02
   3.402446e+02  -3.282538e+02
   5.360837e+02   8.723029e+01
   2.920313e+02   3.236536e+02
  -1.215324e+02   2.776114e+02
  -3.196339e+02   3.378891e+01
  -2.252145e+02  -1.835110e+02
   1.347997e+02  -8.362643e+01
   8.486787e+01   1.425828e+02
  -1.485473e+02   1.632497e+02
  -3.457146e+02  -5.156454e+01
  -9.942191e+01  -2.144181e+02
   1.352908e+02  -1.970846e+02
   2.129377e+02  -6.518849e+01
   1.147797e+02   6.073361e+01
  -1.368782e+01   2.007220e+02
  -1.728684e+02   2.687956e+02
  -2.798512e+02   1.617422e+02
  -2.579672e+02  -7.249707e+01
  -6.227921e+01  -3.225864e+02
   8.461990e+01  -2.888157e+02
   7.569572e+01  -1.146550e+02
  -2.833384e+01   7.759615e+01
   5.974865e+01  -1.139519e+02
   1.213234e+02  -1.551703e+02
   2.218254e+02   5.541017e+01
   1.273356e+02   1.832500e+02
  -5.621967e+01   2.351896e+02
  -1.389632e+02   2.589303e+01
  -2.030231e+02  -2.749713e+02
  -9.999708e+00  -2.098228e+02
   1.904368e+02  -1.102490e+02
   2.994811e+02   1.049584e+02
   1.899311e+02   2.141870e+02
  -4.113152e+01   3.030322e+02
  -1.724660e+02   1.563045e+02
  -8.848692e+01  -1.481384e+01
  -8.814497e+01   5.284873e+01
  -1.738188e+02   2.714438e+01
  -3.222568e+02   8.250640e+00
  -1.834016e+02  -2.341517e+02
   2.452931e+00  -3.478907e+02
   2.770015e+02  -3.600045e+02
   3.465313e+02  -2.093036e+02
   3.245092e+02   2.336290e+01
   5.679221e+01   2.788596e+02
  -1.237469e+02   2.453304e+02
  -9.176254e+01   1.642886e+01
   5.461055e+01  -9.619704e+01
   1.883744e+02   4.514713e+01
   5.104978e+01   1.924265e+02
  -1.537885e+02   1.826967e+02
  -1.186524e+02  -7.002036e+01
   1.343436e+01  -2.056330e+02
   1.853573e+02  -2.677334e+00
   1.618196e+02   1.826787e+02
  -5.358151e+01   2.897839e+02
  -2.186462e+02   7.863886e+01
  -2.190036e+02  -5.660227e+01
  -2.459485e+02  -1.371870e+02
  -7.839918e+01  -1.925039e+02
   1.270014e+02  -1.229798e+02
   8.981563e+01  -5.161110e+01
   8.328791e+01   7.183197e+01
  -1.169841e+01  -5.065913e+01
  -3.139850e+01  -1.039798e+02
   1.369883e+02  -1.151207e+02
   1.878437e+02   1.027457e+01
   1.093891e+02   6.196821e+01
  -1.789918e+01  -3.309072e+01
  -3.062551e+01  -1.249514e+02
   5.574043e+01  -1.123222e+02
   2.151441e+02  -2.913046e+01
   2.212258e+02   1.279604e+02
   4.487616e+01   1.951004e+02
  -7.931457e+01   2.124984e+02
  -2.088195e+02   1.129826e+02
  -1.151632e+02  -7.635415e+00
  -1.762499e+01  -8.260837e+01
   7.864680e+01   3.072043e+01
  -3.595719e+01   4.647716e+01
  -1.278904e+02   7.131523e+01
  -1.961125e+02  -7.425169e+01
  -4.443100e+01  -1.484883e+02
   5.130114e+01  -1.115214e+02
   1.547375e+02   3.783707e+01
   7.873848e+01   6.909080e+01
  -5.326714e+01   4.788804e+01
  -7.801132e+01  -1.264743e+02
   5.865747e+01  -9.963905e+01
   1.141596e+02  -1.377433e+01
   1.659846e+02   4.702605e+01
   3.160561e+00   2.147360e+02
  -1.630788e+02   1.046088e+02
  -1.410727e+02  -7.364532e+01
  -4.546325e+01  -1.431139e+02
  -1.096341e+00  -9.587177e+01
   7.123391e+01  -7.194499e+00
   2.098157e+01  -1.264293e+01
  -4.221042e+01   5.532429e+01
   6.731291e+01  -6.943222e+01
   2.647249e+01   2.321437e+01
   7.725911e+01   8.322409e+01
   4.641807e+01   1.511836e+02
  -1.615725e+02   9.884615e+01
  -2.019510e+02  -1.639099e+01
  -1.326687e+02  -1.942971e+02
  -2.490808e+01  -1.257222e+02
   1.297791e+02  -1.651213e+02
   8.649586e+01  -4.695586e+01
   3.067452e+01   3.867878e+01
   7.772350e+01   3.168869e+01
   4.346029e+01  -1.993653e+01
   4.624465e+01   4.361187e+01
   5.512669e+01  -4.720065e+01
  -1.816950e+01   1.341023e+02
  -5.542147e+01  -2.011439e+01
  -2.934136e+01  -1.508298e+01
  -1.129645e+01  -9.436862e+01
   1.222478e+02  -7.299431e+01
   1.959394e+02   5.237333e+00
   1.197820e+02   9.213813e+01
  -1.004991e+02   2.400976e+02
  -1.935962e+02   5.691282e+01
  -1.987600e+02  -8.295408e+01
  -1.684532e+02  -1.726538e+02
   6.162201e+01  -6.070018e+01
   3.932151e+01  -3.715360e+01
   8.595895e+01  -4.431127e+01
   2.767689e+01  -1.501675e+02
   4.878166e+01  -5.536346e+01
   1.421919e+02  -9.740491e+00
   4.248067e+01   1.176389e+02
   5.799549e+01   7.937182e+01
  -1.000978e+02   2.149486e+02
  -1.270334e+02   2.245167e+01
  -1.575069e+02  -1.190311e+02
  -2.908052e+01  -1.141051e+02
   4.293359e+01  -7.583253e+01
   4.772744e+01   1.031596e+00
   1.993872e+01   2.410299e+01
   1.235570e+01   2.544571e+01
  -6.954537e+00  -2.393064e+01
   5.620365e+01   2.254028e+01
  -6.801916e+00   2.828123e+01
   2.063120e+01   2.668274e+01
  -1.266067e+02  -5.650510e+00
  -1.277581e+02  -4.035402e+01
  -5.516102e+01  -4.618175e+00
   1.028995e+02  -8.273612e+01
   1.156274e+02  -1.159981e+00
  -2.852872e+01   3.363244e+01
  -8.630586e+01   9.626271e+00
  -6.062186e+01  -2.759372e+00
   1.180974e+00  -6.751057e+01
   3.835719e+01  -5.012377e+01
   2.113191e+01   3.919696e+00
   1.440817e+01   4.747276e+01
   5.597329e+01   5.323744e+01
   3.883602e+01   2.084565e+01
   1.468299e+01  -1.597681e+01
   7.813799e+00   8.250070e+01
  -3.303018e+01   1.005723e+02
  -8.428713e+01   9.780853e+01
  -8.820210e+01  -3.171135e+00
  -1.420554e+02  -5.202726e+01
  -4.417771e+00  -1.226666e+02
   1.459180e+02  -5.077081e+01
   1.455639e+01   3.991648e+01
  -2.690061e+01   8.230920e+00
  -1.442782e+02  -3.227300e+01
  -8.245271e+01  -9.895386e+01
   2.574842e+01  -1.295673e+02
   1.016082e+02  -4.533411e+01
   8.308922e+01   3.829983e+01
   7.652491e+01   3.361299e+01
  -3.438514e+01   4.227665e+01
   5.262470e+01  -5.901295e+00
   3.661120e+01  -8.707959e-01
   5.620036e+01   4.409876e+01
   6.347316e+01   8.766583e+01
  -8.675061e+01   1.612421e+02
  -1.763605e+02   5.612020e+01
  -8.272673e+01  -2.526656e+01
  -2.012109e+01  -1.443335e+02
   1.129993e+02  -1.391451e+02
   7.026518e+01   6.233447e+00
   3.912931e+01   1.223582e+02
   3.453273e+01   4.235754e+01
  -3.037930e+01   5.235611e+01
  -9.347833e-01  -4.654890e+01
  -1.764933e+01   9.184287e+00
  -1.703861e+01   2.174255e+01
  -2.348813e+01   1.591440e+01
  -6.258056e+01  -7.257271e+01
  -4.941534e+01  -1.020875e+02
   5.469041e+01  -8.112648e+01
   9.258941e+01   2.630042e+01
   7.785341e+01   6.224679e+01
   4.516753e+01   6.732484e+01
  -1.272860e+02   1.920049e+01
  -5.377486e+01  -7.085943e+00
   6.364488e-01  -7.315044e+00
   3.557327e+01  -2.186510e+01
  -6.391892e+00   2.753881e+01
  -2.598326e+01   3.347928e+01
   1.233855e+01   4.526948e+01
   7.052378e+01   4.776866e+01
   5.277869e+01   1.966562e+01
  -1.917422e+01   3.133230e+01
  -1.263679e+02   4.364259e+01
  -9.960152e+01   4.805099e+00
  -6.047844e+01  -3.381553e+01
   1.641829e+01  -1.637827e+02
   3.651751e+01  -1.368690e+02
   1.239355e+02  -9.811536e+01
   6.845174e+01   5.662265e+01
  -1.972470e+01   8.094820e+00
   2.790490e+00   3.619226e+00
   3.611414e+01   4.229379e+01
   2.313652e+01  -1.773069e+01
  -2.016610e+01   2.960046e+01
  -4.969550e+01   7.617990e+01
  -9.265009e+01   1.824762e+01
  -9.516822e+01  -8.811987e+01
  -4.495800e+00  -9.700160e+01
   6.194396e+01  -5.229765e+01
   8.806641e+01   6.078076e+01
   2.920441e+01   7.792034e+01
  -7.716416e+01   8.167925e+01
  -9.765358e+01   1.098766e+01
  -1.203109e+01  -3.984568e+01
  -5.370311e+00  -1.825791e+01
   1.343946e+01  -6.586331e+01
  -5.903705e+00  -3.274765e-01
  -4.899359e+01   1.703653e+01
   3.869732e+01  -4.563450e+01
   1.015091e+02  -5.413826e+01
   9.464501e+01  -5.152070e+01
   4.793775e+01   6.662144e+00
  -3.792566e+01   3.526842e+01
  -1.264712e+02   3.225238e+01
   8.158216e+00  -1.870130e+01
  -1.871272e+01  -7.548918e+01
   9.826662e+01  -3.861973e+01
  -4.379564e+01   4.761083e+01
   1.289700e+01   7.900364e+01
   9.809007e+01   6.657302e+01
   9.098094e+00  -2.664718e+01
  -8.454650e+00  -8.154995e+00
  -2.644411e+01  -5.547424e+01
  -3.990191e+01  -1.497702e+00
  -3.167440e+01  -4.384775e+00
   2.857214e+01   2.045193e+00
  -8.440026e+00  -3.365794e+01
   7.038622e+00   6.939210e+01
   5.895125e+01   4.741245e+00
  -2.030195e+01   4.204882e+01
  -5.321978e+01   6.357209e+00
  -4.632384e+01  -6.837047e+01
  -1.904558e+01   1.891650e+01
   3.289386e+01  -4.939080e+01
   5.711197e+01  -1.708471e+01
  -1.428828e+01   3.227416e+01
   1.834603e+01   4.267823e+01
  -5.594920e+01   2.759313e+01
  -5.708172e+01  -1.340019e+01
   6.251005e+00   6.118871e+01
   9.979991e+01   5.643395e+01
   3.571113e+01   1.344185e+01
  -2.361321e+01   2.393917e+01
