
 $NMID
 id='ANONYMOUS ', fmtdat='(2E16.6)'
 volume=1.0
 tramp=1.0
 $END
   4.614881e+03  -7.498007e+00
   2.671372e+03   2.879524e+03
  -8.977252e+02   2.938506e+03
  -2.323206e+03   8.103791e+02
  -9.566604e+02  -8.190314e+02
   8.494244e+02  -6.583901e+02
   9.429832e+02   4.677049e+02
  -3.401384e+01   1.203260e+03
  -9.094715e+02   8.379351e+02
  -1.033151e+03  -8.895772e+01
  -4.486575e+02  -9.712716e+02
   2.958318e+02  -9.376725e+02
   7.155596e+02  -1.339478e+02
   4.390850e+02   7.730154e+02
  -3.106199e+02   8.721923e+02
  -6.353829e+02  -6.459457e+01
  -2.973442e+02  -7.490835e+02
   4.451766e+02  -6.952168e+02
   5.792402e+02   4.899152e+00
   3.342507e+02   3.501931e+02
   9.947576e+00   4.318837e+02
  -2.778616e+02   2.938678e+02
  -1.930431e+02  -2.809848e+01
   1.090656e+02  -1.840865e+02
   4.376505e+02   1.227321e+02
   3.292275e+02   4.695349e+02
  -4.698636e+02   4.314285e+02
  -9.175445e+02  -9.858569e+01
  -4.307955e+02  -6.027732e+02
   3.837128e+02  -4.831006e+02
   7.987089e+02  -5.293190e+01
   3.614692e+02   5.352696e+02
  -3.082220e+02   4.877564e+02
  -6.170999e+02   1.756961e+02
  -4.700119e+02  -2.670122e+02
  -7.793549e+01  -5.044898e+02
   2.789149e+02  -2.533767e+02
   1.827799e+02   2.532187e+02
  -1.606956e+02   4.979837e+02
  -4.873809e+02   4.963333e+01
  -2.868409e+02  -6.907416e+02
   2.908842e+02  -7.608932e+02
   6.569402e+02  -2.346028e+01
   2.606231e+02   5.436855e+02
  -3.679242e+02   3.590097e+02
  -4.249338e+02  -3.431644e+02
   6.099903e+01  -5.426227e+02
   5.293153e+02  -1.744593e+02
   6.030121e+02   4.096629e+02
   1.686851e+02   6.074936e+02
  -3.919901e+02   3.310051e+02
  -6.785800e+02  -6.836248e+01
  -4.421805e+02  -4.769339e+02
   1.399752e+02  -3.616258e+02
   4.561140e+02  -4.084270e+01
   2.170698e+02   2.612495e+02
  -1.159850e+02   1.165647e+02
  -1.280018e+02  -1.380692e+02
   2.015284e+02  -2.215213e+02
   3.352148e+02   3.601256e+01
   1.191865e+02   3.336102e+02
  -1.970047e+02   3.014471e+02
  -3.080367e+02   6.103536e+01
  -1.670136e+02  -1.179908e+02
   4.187484e+01  -2.089090e+02
   1.683642e+02  -3.097119e+02
   3.328159e+02  -2.192728e+02
   3.171202e+02   1.322282e+02
   1.260215e+02   4.816939e+02
  -1.569751e+02   3.838911e+02
  -1.525842e+02   1.214188e+02
  -3.759256e+01  -2.689721e+01
  -6.278284e+01   3.947426e+01
  -1.943977e+02   1.655386e+02
  -3.260818e+02  -7.681526e+01
  -1.565659e+02  -3.016807e+02
   1.063757e+02  -2.555008e+02
   2.065692e+02  -5.531729e+01
   1.976567e+02   2.566688e+02
  -4.681261e+01   2.678039e+02
  -2.646476e+02   1.256624e+02
  -3.547164e+02  -1.442781e+02
  -1.461327e+02  -3.674707e+02
   1.402272e+02  -3.607808e+02
   2.639018e+02  -1.188507e+02
   1.416475e+02   6.044248e+00
   8.093460e+01  -6.104061e+01
   2.150829e+02  -8.209379e+01
   4.488456e+02  -1.937497e+00
   3.193173e+02   3.393394e+02
   3.744481e+01   3.756804e+02
  -3.880379e+02   4.021132e+02
  -5.010886e+02   1.964912e+02
  -3.966544e+02  -8.711644e+01
  -7.680345e+01  -2.453130e+02
   1.285945e+02  -2.608926e+02
   1.098716e+02  -5.985594e+01
  -1.155018e+02   1.159867e+02
  -1.945557e+02   3.704234e+01
  -1.073055e+02  -1.441997e+02
   2.344334e+02  -2.274220e+02
   2.122181e+02   1.049007e+02
  -3.687751e+01   1.821300e+02
  -1.765878e+02   3.107520e+01
  -1.944271e+02  -3.279708e+02
   8.800655e+01  -3.727971e+02
   2.666316e+02  -2.074527e+02
   3.253491e+02   4.552139e+01
   2.888674e+02   2.584072e+02
   1.199615e+02   2.766624e+02
  -8.434135e+01   1.747853e+02
  -1.396112e+02   7.439576e+01
  -2.712412e+01  -6.518272e+01
   1.186875e+02  -2.457601e+00
   6.479741e+01   1.520410e+02
  -8.774119e+01   1.342411e+02
  -1.916981e+02  -2.538515e+01
  -7.743963e+01  -8.363199e+01
   1.154200e+02  -2.676948e+01
   3.922577e+01   6.606723e+01
  -1.169512e+02   7.188957e+01
  -3.125916e+02   5.219316e+01
  -2.660132e+02  -1.809365e+02
  -8.116065e+01  -3.266197e+02
   1.434761e+02  -1.940731e+02
   3.151309e+02  -9.845523e+01
   1.621065e+02   8.768633e+01
  -1.009204e+02   9.058424e+01
  -1.318457e+02   2.664380e+01
   3.444683e+01  -1.371389e+02
   1.732721e+02   2.152339e+01
   1.679454e+02   9.563973e+01
   5.885984e+01   2.261352e+02
  -9.675400e+01   1.135634e+02
  -1.657062e+02   9.909354e+00
  -6.610185e+01   1.612814e+01
   2.783970e+01  -8.696458e+01
   2.318564e+01   6.421867e+01
  -1.436441e+02   7.996096e+01
  -1.985221e+02   4.507964e+01
  -2.305232e+02  -7.482641e+01
  -1.817796e+01  -2.147533e+02
   1.650956e+02  -2.075961e+02
   2.007275e+02  -3.629985e-01
   6.301022e+01   1.016559e+02
  -8.836058e+01   9.486523e+01
  -1.092396e+02   8.987867e+01
  -8.563644e+00   3.500607e+00
   5.793459e+01  -4.206799e+01
  -1.568569e+01  -7.465940e+00
  -2.004429e+01  -2.428156e+01
  -8.997738e+01  -2.907070e+01
   2.627488e+01  -1.860523e+02
   1.024885e+02  -1.418071e+02
   2.931626e+02  -6.340776e+01
   2.613753e+02   1.040795e+02
   4.467838e+01   1.881390e+02
  -7.283451e+01   1.787270e+02
  -1.642359e+02   4.583210e+01
  -8.587172e+01  -3.441228e+01
  -7.278514e+00  -6.830318e+01
  -9.795178e+01   4.810042e+01
  -7.562150e+01   1.412414e+00
  -2.086660e+01  -3.852807e+01
   5.318988e+01  -1.077092e+02
   6.589148e+01  -1.690023e+01
   2.144930e+01   7.301628e+00
  -4.188206e+01   1.112341e+02
  -1.694281e+02   5.687333e+01
  -1.276670e+02  -5.857625e+01
  -6.751164e+01  -1.982121e+02
   1.225594e+02  -2.296025e+02
   2.543568e+02  -1.013585e+02
   2.183459e+02   6.661635e+01
   1.374048e+02   2.258298e+02
   2.859508e+01   1.126520e+02
  -9.428546e+01   9.843394e+01
  -7.351315e+01   7.144284e+01
  -4.049430e+01   1.192479e+02
  -1.189269e+02   9.493164e+01
  -1.350944e+02   4.957925e+01
  -1.337255e+02  -1.227419e+02
   1.397342e+01  -2.313731e+02
   1.277809e+02  -2.199890e+02
   1.647645e+02  -4.657202e+01
   1.901001e+02   9.090105e+01
   1.921510e-01   1.616886e+02
  -4.489553e+01   7.682184e+01
  -7.861144e+01   2.288909e+00
   3.041072e+01  -4.973690e+01
   3.858606e+00  -3.081612e+01
   1.177851e+01  -3.038799e+01
  -5.265791e+01   1.295423e+01
   2.818453e+00  -2.580088e+01
   8.085749e+01  -8.443852e+01
   1.162736e+02  -3.297498e+01
   1.685230e+02   3.567843e+00
   1.035730e+01   7.424877e+01
  -1.266297e+02   2.708881e+01
  -1.696879e+02   1.718802e+01
  -4.299786e+01  -5.577750e+01
   3.049194e+00  -6.128908e+01
   5.260340e+01  -8.733427e+00
  -2.129414e+01   9.246054e+01
  -7.634752e+00   1.923590e+01
  -5.042958e+01   2.336453e+01
  -2.609539e+01   1.212196e+01
   3.523297e+01  -7.733861e+01
  -1.028245e+02   1.646651e+01
  -8.367187e+01  -2.263267e+01
  -1.249116e+01  -7.169732e+01
   5.006683e+01  -1.639053e+02
   1.576222e+02  -8.767325e+01
   2.305737e+02  -4.300389e+00
   1.324718e+02   7.506331e+01
  -1.445571e+01   1.111471e+02
  -6.710607e+01   8.090204e+01
  -1.424909e+01  -6.831664e+01
   4.359218e+01   4.890920e+01
   1.118135e+02   4.235737e+01
   8.034924e+01   8.471865e+01
  -7.213429e+01   8.776515e+01
  -2.364554e+02   2.553267e+01
  -2.041952e+02  -5.137106e+01
  -2.433137e+01  -8.579690e+01
   7.561167e+01  -6.628445e+01
   1.326078e+02   4.534385e+01
  -4.149743e+01   1.690253e+01
  -1.587016e+02  -7.607628e+01
  -3.880670e+01  -1.453620e+02
   1.195158e+02  -1.343448e+02
   1.822861e+02  -5.937556e+01
   1.175197e+02   3.514020e+01
   4.518467e+01   2.090634e+02
  -1.262174e+02   1.555924e+02
  -9.767354e+01  -4.695400e+01
  -7.390096e+01  -1.392522e+02
  -3.507664e+01  -1.331541e+02
   6.517126e+01   3.367567e+01
   7.580330e+01   7.645067e+01
   6.951038e+01   4.053092e+01
   3.829231e+01  -4.836919e+01
   6.747493e+00   1.564605e+01
   9.657937e+01   1.076091e+02
  -5.573871e+00   1.388880e+02
  -1.055049e+01   3.413230e+01
  -9.581459e+01  -4.268150e+01
  -1.680790e+02  -1.093742e+02
  -9.837682e+00  -4.000196e+01
   3.563551e+01   1.394401e+01
   7.728394e+01  -5.333645e+01
  -2.786264e+01  -4.158800e+01
   1.778362e+01   2.044606e+01
   3.543695e+01   8.828348e-01
   3.058728e+01  -4.076272e+01
  -3.558928e+01  -6.586855e+00
  -3.944406e+01  -4.715393e+01
  -1.357381e+02  -2.418786e+01
   5.854394e+01  -4.893464e+01
   8.225980e+01  -7.528430e+01
   1.124814e+02  -9.234763e+00
   1.310382e+02   4.134090e+01
   7.983769e+00   1.277173e+02
  -1.179650e+02   1.460746e+02
  -1.337580e+02   3.658088e+01
  -2.365446e+01  -4.021125e+01
  -8.936724e+01  -7.976649e+01
  -4.005929e+01   2.744486e+00
  -9.875178e+01   1.205569e+01
  -6.611197e+00   1.829119e+01
   3.156797e+00  -1.326377e+02
   1.396252e+01  -7.138144e+01
   7.717449e+01   3.560203e+01
   5.736636e+01   7.145876e+01
  -3.451197e+01   1.185271e+02
  -8.862207e+01  -3.147762e+00
  -1.027615e+02  -4.239653e+01
  -1.496025e+01  -9.509160e+01
   5.905677e+01  -5.465634e+01
   5.613215e+01  -2.201636e+01
   4.116915e+01   6.142689e+01
  -5.756629e+01   5.645665e+00
  -6.721936e+00  -1.148374e+01
  -7.538151e+00  -1.301603e+01
   1.015716e+02   6.220697e+00
  -8.940339e+00   6.146032e+01
  -6.298021e+01   3.265105e+01
  -4.420251e+01   7.642030e+01
  -1.426216e+02  -3.239786e+01
   3.292293e+01  -7.887929e+01
   4.437127e+01  -6.626462e+01
   1.089814e+01  -2.443604e+00
  -6.106372e+00   6.273255e+01
  -1.832554e+01   2.951396e+01
  -4.530648e+01  -6.322008e+00
  -2.672687e+01  -7.040444e+01
  -1.603825e+01  -6.551428e+01
   1.477004e+01  -1.168150e+01
   1.043519e+02  -4.893659e+01
  -3.791930e+01  -2.212018e+01
   7.590047e+00  -8.968844e+00
  -5.794165e+01   2.645825e+01
  -6.394565e+01   2.632703e+01
   2.408532e+01   2.104528e+01
  -1.338446e+01  -6.074982e+00
  -7.472822e+01  -6.374176e+01
  -1.924050e+01  -4.047488e+01
   1.112284e+01   6.133437e+00
   3.160207e+01   3.484295e+01
  -9.346275e+00   5.471206e+01
  -1.074564e+02  -3.614789e+01
  -1.420397e+02  -7.070255e+00
  -6.336731e+01  -3.131788e+01
   3.268351e+01  -6.241509e+01
   6.377754e+01   1.587732e+01
   2.960224e+01   4.771838e+01
  -5.978329e+01  -3.557752e+00
  -1.000597e+01  -2.570685e+01
   7.034847e+01  -4.041394e+01
   1.799747e+02   2.011391e+01
