
 $NMID
 id='ANONYMOUS ', fmtdat='(2E16.6)'
 volume=1.0
 tramp=1.0
 $END
  -3.149679e+03   1.019455e+01
  -2.196725e+03  -1.522718e+03
  -2.083551e+02  -2.008567e+03
   1.105826e+03  -1.376538e+03
   9.958219e+02  -3.152807e+02
   1.688800e+02   2.092549e+02
  -2.724742e+02  -1.137744e+01
  -1.169753e+02  -4.935621e+02
   4.028485e+02  -5.156020e+02
   5.846670e+02  -1.194806e+02
   4.674177e+02   3.900078e+02
   4.752318e+01   6.223770e+02
  -1.972318e+02   2.132289e+02
  -2.068528e+02  -3.470197e+02
   9.108700e+01  -5.385618e+02
   4.493360e+02  -8.146538e+01
   3.446501e+02   4.547293e+02
  -1.113756e+02   6.584380e+02
  -4.925452e+02   2.954904e+02
  -4.345056e+02  -5.828650e+01
  -1.389920e+02  -3.828472e+02
   1.542117e+02  -2.921647e+02
   4.426037e+01  -7.264982e+01
  -1.571380e+02  -1.432009e+02
  -1.879273e+02  -3.044256e+02
   4.968631e+01  -3.877393e+02
   4.662594e+02  -1.033371e+02
   6.113455e+02   1.941296e+02
   1.852395e+02   3.329748e+02
  -3.176230e+02   2.088489e+02
  -4.872427e+02  -7.871411e+01
  -1.680905e+02  -3.105695e+02
   3.105146e+02  -3.518816e+02
   3.620963e+02  -1.053695e+02
   3.328052e+02   1.205677e+02
   1.556986e+02   2.445442e+02
  -4.725826e+01   1.402207e+02
   4.958398e+01  -2.526861e+01
   1.244563e+02  -9.288318e+01
   1.714982e+02   1.662543e+02
  -6.171625e+01   4.549651e+02
  -2.419266e+02   3.825566e+02
  -3.017471e+02   2.104873e+01
  -1.312582e+02  -2.618417e+02
   6.047632e+01  -1.443157e+02
   1.397417e+02   3.140368e+02
  -1.296966e+02   3.606818e+02
  -3.798922e+02   3.576692e+01
  -4.778556e+02  -3.278702e+02
  -1.047461e+02  -4.454829e+02
   2.518132e+02  -2.789376e+02
   5.386858e+02   8.403149e+01
   3.771781e+02   2.434814e+02
  -6.855649e+01   2.407671e+02
  -2.553535e+02   1.091322e+02
  -2.074961e+02   4.087344e+00
  -3.024114e+01  -7.216275e+00
   6.318842e+01   8.227354e+00
  -1.160570e+02   2.429440e+01
  -1.967436e+02  -4.686294e+01
  -1.375100e+02  -1.848181e+02
   1.036002e+02  -2.942950e+02
   3.650582e+02  -1.946892e+02
   2.498683e+02   1.190677e+02
  -5.267076e+00   3.224113e+02
  -2.707131e+02   3.977635e+02
  -3.303172e+02   1.011796e+02
  -1.808063e+02  -1.725444e+02
  -7.084488e+01  -2.896962e+02
  -3.860297e+01  -2.918325e+02
  -1.585661e+01  -1.757381e+02
   7.466292e+01  -1.359075e+02
   1.343122e+02  -8.474630e+01
   2.854340e+02  -1.000575e+02
   2.108776e+02   1.573609e+02
   1.073976e+02   2.725611e+02
  -8.544297e+01   1.613229e+02
  -1.620589e+02  -4.857975e+01
  -1.668166e+02  -1.738605e+02
   3.130090e+00  -2.326786e+02
   2.621078e+02  -3.423710e+01
   3.259052e+02   1.699279e+02
   1.456571e+02   3.145597e+02
  -4.974361e+01   2.612792e+02
  -1.726307e+02   1.591472e+02
  -2.102615e+02   6.340960e+01
  -1.712161e+02   9.074659e+01
  -3.165480e+02  -3.787512e+01
  -4.434020e+02  -1.043641e+02
  -3.552948e+02  -2.902581e+02
   5.490256e+01  -4.218451e+02
   3.881524e+02  -4.136577e+02
   4.713660e+02  -1.218309e+02
   2.530081e+02   6.647108e+01
   1.399403e+01   2.590599e+02
  -7.882036e+01   1.786240e+02
  -1.730136e+01  -3.494259e+01
   1.200283e+02  -4.250393e+01
   1.074132e+02   6.749457e+01
   3.075925e+01   1.533667e+02
  -1.322178e+02   8.055835e+01
  -9.685492e+01  -2.110285e+01
  -5.265459e+00  -1.285491e+02
   1.419325e+02  -3.102116e+01
   1.618158e+02   1.913346e+02
  -1.355920e+01   3.825136e+02
  -2.126422e+02   1.402983e+02
  -3.244803e+02  -6.281239e+01
  -2.512354e+02  -2.483869e+02
  -8.638862e+01  -2.603915e+02
   1.193107e+02  -1.018924e+02
   1.317473e+02   8.303657e+01
  -5.367530e+00   2.296408e+01
  -8.202746e+01  -9.620410e+01
   1.494767e+01  -1.247247e+02
   1.159442e+02  -4.111377e+01
   1.887631e+02   6.178014e+01
  -8.802816e+00   3.295171e+01
  -8.763018e+01   2.361304e+01
  -4.678472e+01  -4.178893e+01
   1.835902e+02  -1.145117e+02
   2.999516e+02  -1.238897e+01
   2.201747e+02   1.924525e+02
  -1.409394e+01   2.819792e+02
  -2.244069e+02   2.356885e+02
  -2.663868e+02   5.457269e+01
  -1.081131e+02  -4.585618e+01
   1.894187e+01  -2.330807e+01
   8.451488e+01   2.658495e+01
  -8.225303e+01   1.166702e+02
  -2.285087e+02   6.599892e+01
  -1.503030e+02  -1.065951e+02
  -6.212538e+01  -2.291158e+02
   1.152991e+02  -1.719581e+02
   9.393781e+01  -3.478709e+00
   3.187195e+01   1.698349e+00
  -2.174515e+01   2.590451e+01
   8.691546e+00  -1.705925e+02
   1.042167e+02  -9.456337e+01
   2.911359e+02  -2.829102e+01
   1.356030e+02   1.676836e+02
   1.393091e+01   2.217313e+02
  -2.020042e+02   1.417216e+02
  -1.704630e+02   4.751843e+01
  -9.087921e+01  -6.384528e+01
   1.030336e+02  -1.446792e+02
   5.578774e+01  -5.043092e+01
  -2.997448e+01   4.608822e+01
  -1.367046e+01   6.612169e+01
   4.496390e+01  -2.391000e+01
   1.077823e+02  -1.259226e+01
   1.562744e+02   1.185892e+02
   3.148879e+00   1.717532e+02
  -1.565218e+02   1.515449e+02
  -2.655944e+02   4.522438e+01
  -1.925128e+02  -2.103116e+02
  -5.798654e+01  -1.570531e+02
   1.391045e+02  -1.636447e+02
   1.407094e+02  -6.134151e+01
   5.296331e+01   4.453707e+01
   7.470609e+01   7.219438e+00
   5.738177e+01  -3.970730e+01
   9.991334e+01  -1.198373e+01
   1.024264e+02   2.956083e+01
   2.250027e+00   8.701491e+01
  -1.590454e+02   1.547985e+02
  -8.966231e+01  -5.707627e+01
   2.684086e+01  -2.107961e+02
   2.500927e+02  -1.381532e+02
   2.000674e+02   3.421385e+01
   7.809136e+01   2.233923e+02
  -1.276430e+02   1.872767e+02
  -2.885869e+02   2.951733e+01
  -2.502017e+02  -8.661527e+01
  -1.002560e+02  -1.859731e+02
   4.591372e+01  -1.190623e+02
   1.429534e+02  -8.193655e+00
   1.275177e+02  -2.864366e+01
   7.409039e+00  -6.968922e+01
   1.302610e+02  -9.030361e+01
   1.288338e+02   5.280612e+01
   1.849432e+02   1.434307e+02
   2.211980e+00   1.909231e+02
  -1.265604e+02   1.677904e+02
  -1.664242e+02  -3.136568e+01
  -1.098145e+02  -1.592256e+02
  -7.541692e+00  -1.662682e+02
   1.138430e+02  -6.808815e+01
  -2.227003e+01  -1.659097e+01
  -6.597357e+00   6.967206e+01
  -8.968949e+01  -2.385955e+01
   1.479576e+00   8.785069e+00
   1.114273e+02   2.798583e+01
  -1.510418e+01   5.367467e+01
  -7.854635e+01   2.796189e+01
  -1.284422e+02  -5.336983e+01
  -1.104307e+02  -4.420948e+01
  -2.034637e+01  -1.213435e+02
   9.001606e+01  -5.198655e+01
   2.160106e+02   1.828095e+01
  -8.224716e-01   1.023292e+01
  -7.048238e+01   5.485813e+01
  -3.409472e+01  -2.572402e+01
  -5.871855e+01  -1.035064e+02
   2.825944e+01  -8.562434e+01
   8.643183e+01   5.737719e+00
   2.861697e+01  -5.154161e-01
   3.067110e+01   3.213277e+01
   7.908730e+01   8.317666e+00
   6.588115e+01   2.347206e+01
   1.195247e+01   4.915958e+01
  -7.344120e+01   1.472225e+02
  -1.435086e+02   1.160045e+02
  -2.109651e+02  -1.303049e+01
  -1.399393e+02  -1.140334e+02
   1.127668e+01  -1.321088e+02
   5.783098e+01  -4.176126e+01
   6.572149e+01  -7.532949e+00
  -1.625582e+02  -1.675875e+00
  -1.190939e+02  -2.126673e+01
  -6.406489e+01  -1.223269e+02
   1.016617e+02  -6.663874e+01
   2.757842e+02  -5.468634e+01
   9.493488e+01   6.608991e-01
   4.499077e+01   6.403092e+01
  -1.233279e+02   4.314985e+01
  -7.081133e+01  -4.281738e+00
  -2.002200e+01  -2.189075e+01
   1.070137e+02  -3.123283e+01
   3.477877e+01   9.406227e+01
  -9.284700e+01   1.675276e+02
  -2.338384e+02   1.788231e+01
  -2.054285e+02  -4.709241e+01
  -6.324178e+01  -2.011818e+02
   2.885823e+01  -9.474713e+01
   5.305811e+01  -3.818015e+01
   3.235394e+01   1.290478e+02
  -2.781760e+01   1.204781e+02
  -5.032731e+01  -3.342518e+01
  -5.251188e+01  -3.818677e+01
  -7.773402e+01  -5.801221e+01
   1.283225e+01  -2.439928e+01
   2.376366e+00  -3.903950e+01
  -3.469636e+01  -1.097570e+02
  -3.476046e+01  -4.257357e+01
   6.434035e+01  -1.375835e+01
   1.171641e+02  -5.996214e+01
   1.397997e+02   1.164682e+02
   6.592404e+01   7.152347e+01
  -5.120515e+01   3.713241e+01
  -1.377333e+02   1.216227e+01
  -5.384612e+01   1.828416e+01
   2.385750e+01  -6.896371e+01
   7.630516e+01   3.273778e-01
  -1.447868e+01   5.178867e+01
   3.330529e+01   7.411668e+00
   8.417635e+01  -3.887501e+01
   7.753061e+01   1.863460e+01
   7.415924e+01   6.568536e+01
  -1.302670e+02   1.618352e+02
  -1.942018e+02   3.907852e+01
  -1.819790e+02  -5.727163e+01
  -1.728123e+01  -2.115577e+02
   1.279608e+02  -2.167555e+02
   1.560477e+02  -3.268949e+01
   1.460600e+02   2.532487e+01
   3.787770e+01   7.998096e+01
   1.740308e+01   2.159332e+01
   1.918168e+01  -3.782386e+01
   9.371436e+01   6.799079e+01
   3.574192e+01   1.004955e+02
  -6.376006e+00   1.174826e+02
  -4.778315e+01  -4.438362e+01
  -6.957738e+01  -5.744726e+01
  -6.867911e+00  -1.358779e+02
   1.032054e+02   2.969427e+01
   1.021440e+02   4.462152e+01
   8.545518e+01   1.117354e+02
  -8.509512e+01   4.187111e+01
  -1.043659e+02   5.541266e+00
  -3.704910e+01  -6.939646e+01
   4.702986e+01  -7.229729e+01
   3.833800e+01  -4.558431e+01
   3.222394e+01   3.547580e+01
  -9.860621e+01  -3.848794e+01
  -1.830841e+01  -5.880455e+01
   1.138600e+02  -8.492919e+01
   1.880795e+02  -2.608885e+01
   7.477145e+01   1.894455e+01
   1.325691e+01   8.989566e+01
  -9.718557e+01   1.024693e+02
  -1.089323e+02   9.189452e+01
  -1.993089e+01  -2.408357e+01
   1.734540e+01  -1.271610e+02
   4.955144e+01   5.469029e+00
   5.260577e+01   7.289861e+01
   4.875824e+01   7.385743e+01
  -1.356576e+02  -2.282903e+01
  -9.537461e+01  -1.561526e+01
  -2.026892e+01  -6.141410e+01
   2.591563e+01   5.582665e+00
   1.000046e+01   2.511468e+01
   2.059275e+01  -5.143313e+01
   1.597787e+01  -4.239040e+01
   5.010198e+01  -4.782310e+01
   9.535711e+01   5.262980e+01
  -2.211095e+01   4.658681e+01
  -6.197272e+01  -2.902472e+00
  -8.090017e+01   1.610274e+01
  -3.095915e+01  -6.349314e+01
   1.310465e+02  -1.033007e+02
   1.114501e+02  -2.552492e+01
   6.297030e+01   1.897165e+01
  -9.553850e+00   8.271739e+01
  -8.155341e+01   2.648152e+01
   1.965699e+01   3.190602e+01
   2.829819e+01   3.383018e+01
   8.196906e+01   3.662565e+01
  -2.361264e+01   5.548960e+01
  -1.231762e+01   2.258405e+01
