
 $NMID
 id='ANONYMOUS ', fmtdat='(2E16.6)'
 volume=1.0
 tramp=1.0
 $END
   2.913600e+03   6.872931e+01
   2.051451e+03   1.445530e+03
   1.905804e+02   1.863327e+03
  -1.126698e+03   1.353864e+03
  -9.543488e+02   4.558651e+02
  -2.256216e+02  -1.370177e+02
   2.251204e+02  -3.534613e+00
   7.896690e+01   4.023314e+02
  -3.451432e+02   5.641779e+02
  -6.087889e+02   1.148584e+02
  -4.149978e+02  -4.401826e+02
  -9.252392e+01  -5.910821e+02
   2.647018e+02  -2.015595e+02
   2.460782e+02   3.453289e+02
  -5.229104e+01   4.416319e+02
  -3.353815e+02   1.102765e+02
  -2.875936e+02  -4.756709e+02
   9.927895e+01  -5.689958e+02
   4.235043e+02  -2.777809e+02
   4.580171e+02   1.623287e+02
   1.371694e+02   3.579440e+02
  -7.929863e+01   2.323496e+02
  -6.806132e+01   4.988714e+01
   2.329005e+02   3.850194e+01
   1.887912e+02   3.210350e+02
  -6.295622e+01   3.091108e+02
  -4.681364e+02   6.983340e+01
  -5.200277e+02  -2.171080e+02
  -1.598696e+02  -3.588559e+02
   3.114263e+02  -1.933135e+02
   5.156358e+02   1.881439e+02
   1.531069e+02   3.139523e+02
  -2.864290e+02   2.613716e+02
  -3.776178e+02   1.803772e+02
  -3.059087e+02  -1.599710e+02
  -4.437922e+01  -2.682815e+02
   2.791679e+00  -1.331004e+02
  -1.051048e+02   5.777524e+01
  -2.161646e+02   8.214041e+01
  -1.462358e+02  -1.965208e+02
   5.575231e+01  -4.840713e+02
   2.337176e+02  -4.145679e+02
   2.318415e+02   2.552432e+00
   5.441196e+01   2.094066e+02
  -1.494374e+02   8.848091e+01
  -1.524366e+02  -2.728819e+02
   1.091277e+02  -3.574399e+02
   4.112599e+02  -3.901893e+01
   4.512491e+02   3.768376e+02
   1.990538e+02   4.203416e+02
  -2.739875e+02   2.685403e+02
  -4.874309e+02  -9.673585e+01
  -3.200147e+02  -2.332024e+02
  -1.429390e+01  -1.495098e+02
   2.362404e+02  -1.245705e+02
   1.402248e+02  -1.938129e+01
   7.319512e+01  -7.203627e+01
  -1.141003e+01   2.565351e+01
   1.169674e+02  -6.067688e+01
   2.084596e+02   3.723576e+01
   1.374820e+02   1.120587e+02
  -1.049104e+02   2.584392e+02
  -3.196389e+02   1.364649e+02
  -2.644103e+02  -8.331180e+01
  -2.330761e+01  -3.032855e+02
   3.777007e+02  -4.157671e+02
   3.624877e+02  -9.597995e+01
   2.601742e+02   1.635139e+02
   9.129902e+01   3.634283e+02
   2.955686e+01   3.249333e+02
  -2.672836e+01   1.720796e+02
  -7.625399e+01   1.550026e+02
  -1.545176e+02   1.100945e+02
  -2.438718e+02   5.454497e+01
  -2.428239e+02  -1.872441e+02
  -7.905016e+01  -2.872978e+02
   6.387735e+01  -1.742718e+02
   1.360473e+02   4.935982e+01
   4.665583e+01   2.590074e+02
  -1.204292e+02   2.066012e+02
  -2.088869e+02   6.831330e+01
  -3.232092e+02  -1.712556e+02
  -9.846260e+01  -2.767445e+02
  -3.953714e+01  -3.072854e+02
   1.630301e+02  -1.687724e+02
   1.380513e+02  -1.347753e+02
   1.472847e+02  -1.928990e+01
   2.985779e+02   1.697312e+01
   4.125928e+02   5.624477e+01
   3.042585e+02   3.470078e+02
  -9.216151e+01   4.416919e+02
  -3.983421e+02   3.481257e+02
  -4.560730e+02   1.326570e+02
  -2.584318e+02  -8.957797e+01
  -3.382338e+01  -2.722668e+02
   5.138068e+01  -2.428034e+02
  -2.796396e+01  -5.550667e+01
  -9.586528e+01   5.193890e+01
  -1.370524e+02  -6.553359e+01
   2.798881e+00  -1.438875e+02
   1.013260e+02  -8.165644e+01
   6.686482e+01   1.089410e+02
  -3.233094e+01   1.077378e+02
  -1.415867e+02   2.269466e+01
  -1.785574e+02  -2.544713e+02
  -8.187917e+00  -3.197253e+02
   2.680199e+02  -2.358118e+02
   3.967424e+02   9.722912e+01
   2.496106e+02   2.628788e+02
   1.821745e+01   2.545482e+02
  -1.593243e+02   1.069390e+02
  -1.520660e+02  -1.649358e+00
  -8.047239e+01  -1.176447e+00
   2.705292e+01   6.281612e+01
  -3.229862e+01   7.818896e+01
  -1.284190e+02   3.667689e+01
  -1.152176e+02  -6.706284e+01
   4.001718e+00  -8.492411e+01
   6.605197e+01  -2.603758e+01
  -1.346657e+01   1.001997e+02
  -1.953913e+02   7.193494e+01
  -2.668571e+02   1.326212e+01
  -2.442161e+02  -2.028721e+02
   4.523145e+01  -2.759384e+02
   2.057774e+02  -2.080461e+02
   2.697101e+02  -8.037925e+01
   1.729882e+02   3.222983e+01
  -4.127361e+01   7.323977e+01
  -5.149324e+01  -2.083457e+00
   6.557399e+01  -1.106059e+02
   1.653721e+02  -3.653483e+01
   2.036349e+02   1.478705e+02
   5.052433e+01   2.428615e+02
  -1.084850e+02   8.176571e+01
  -1.028139e+02   2.712097e+01
  -8.603227e+01  -8.806484e+01
   8.486888e+01   5.435734e+01
   8.021383e+01   1.795163e+02
  -6.717213e+01   1.223468e+02
  -2.411702e+02   2.925204e+01
  -1.639295e+02  -1.577548e+02
  -2.852443e+01  -1.836434e+02
   1.817514e+02  -1.828738e+02
   1.695641e+02  -8.470745e+00
   6.228861e+01   9.007258e+01
  -9.422332e+01   9.062309e+01
  -1.029630e+02   6.409797e+01
   9.581018e+00  -6.597924e+01
   4.594147e+01   3.427222e+01
  -3.572961e+01   6.999531e+01
  -1.076991e+02   1.617530e+01
  -9.739826e+01  -6.727686e+01
  -7.848818e+00  -2.323527e+02
   9.049231e+01  -1.487453e+02
   2.976411e+02   1.246080e+01
   1.761514e+02   1.431574e+02
  -4.428075e+01   2.536384e+02
  -1.084935e+02   2.046147e+02
  -1.165958e+02  -1.692616e+01
  -1.035504e+02  -6.238296e+01
  -6.848780e+01  -2.968863e+01
  -9.473142e+01  -5.964667e+00
  -1.073415e+02   1.497858e+00
  -3.332536e+01  -1.018581e+02
   5.896380e+01  -1.857389e+02
   8.818810e+01  -1.162275e+02
   1.610978e+02   4.715853e+01
   2.772945e+01   9.766871e+01
  -1.196362e+02   1.257355e+02
  -2.235494e+02  -2.760748e+01
  -1.260345e+02  -2.327342e+02
   1.739035e+02  -2.424171e+02
   2.656389e+02  -4.389370e+01
   1.380011e+02   6.134825e+01
   7.544878e+01   1.930437e+02
  -1.903432e+01   1.720355e+02
  -8.735704e+01   1.370551e+02
  -5.132753e+01   8.199178e+01
  -4.223943e+01   5.659668e+01
  -1.237424e+02   7.854567e+01
  -1.029889e+02  -2.589897e+01
  -1.637240e+02  -1.095725e+02
  -5.470535e+01  -2.247018e+02
   9.942344e+01  -1.543109e+02
   1.666100e+02  -5.453091e+01
   1.206057e+02   1.852289e+02
   1.357048e+01   9.449378e+01
  -1.698652e+01   8.813092e+01
  -1.753681e+00  -1.294599e+01
   1.583822e+01  -8.439473e+01
  -7.713766e+00  -2.120400e+01
  -2.747349e+01   1.652444e+01
  -1.058350e+02  -7.121628e+01
  -7.166259e+01   2.087891e+01
   1.022179e+02  -7.225198e+01
   1.749466e+02  -7.103175e+01
   1.381466e+02   6.988720e+01
  -3.418169e+00   1.101793e+02
  -1.642351e+02   8.486803e+01
  -1.328674e+02   2.864362e+00
  -3.387859e+01  -1.514874e+00
   5.630847e+01  -3.139811e+01
   9.189408e+01   7.039329e+01
   3.708040e+01   5.400668e+01
  -5.173520e+01   6.015861e+01
  -1.385127e+01   1.648568e+01
  -9.924136e+01  -5.226637e+01
  -2.788824e+01  -2.315574e+01
  -5.935448e+01   1.190536e+01
  -9.691835e+01  -2.907894e+01
  -9.210862e+01  -5.834634e+01
  -4.934247e+01  -1.502754e+02
   2.101904e+02  -1.473297e+02
   2.515242e+02  -5.866746e+01
   1.699106e+02   1.586254e+02
  -2.553265e+01   1.620729e+02
  -1.720979e+02   4.681788e+01
  -1.026250e+01   8.297822e+00
   5.659728e+01  -4.010956e+01
   1.033833e+02   5.576293e+01
   1.294117e+02   8.986476e+01
  -9.698288e+01   7.677157e+01
  -1.573497e+02   3.470898e+01
  -1.572977e+02  -2.758958e+01
  -6.284683e+01  -1.055667e+02
   1.030338e+02  -5.559338e+01
   7.888815e+01  -1.979593e+01
  -2.282866e+01   9.662707e+01
  -1.134544e+02  -5.530647e+01
  -1.116854e+02  -1.196428e+02
   2.405133e+01  -1.650101e+02
   1.687961e+02  -5.739130e+01
   1.520394e+02   1.094903e+02
   6.708769e+01   1.828532e+02
  -1.345777e+02   1.531193e+02
  -1.120069e+02   1.221253e+01
  -4.267192e+01  -7.086804e+01
  -2.918060e+01  -1.060332e+02
   3.306670e+00  -4.325677e+01
   3.090327e+01  -1.339227e+01
  -5.083317e+01   6.198352e+00
  -3.122169e+01   6.974188e+00
   6.365571e+01  -4.685069e+00
   6.647594e+01   1.562796e+02
   7.296389e+01   1.047670e+02
  -2.445479e+01   7.013484e+01
  -1.116658e+02  -9.162594e+01
  -1.407231e+02  -9.571872e+01
  -6.008310e+01  -5.247623e+01
   7.811280e+01  -1.450507e+01
   6.098893e+01  -1.643727e+01
   1.684623e+01  -6.627310e+01
  -8.552949e+00  -4.912677e+00
   9.597753e-02  -2.942098e+01
   6.105256e+00  -8.826573e+00
  -2.755368e+01   3.862566e+00
  -9.131829e+01   4.328104e+00
  -9.499534e+01  -2.111721e+01
   3.227639e+01  -4.000813e+01
   1.600651e+02  -9.931262e+01
   1.133258e+02  -7.786303e+01
   1.417910e+02  -4.666363e+00
   5.431016e+01   1.643648e+02
  -8.306268e+01   1.606406e+02
  -1.127566e+02   5.996442e+01
  -5.248790e+01  -2.800972e+01
  -9.065933e+01  -4.900104e+01
   2.321099e+01  -1.496149e+01
  -1.062120e+01  -6.088228e-01
  -4.098648e+01  -6.753255e+01
  -3.435142e+00  -1.335581e+02
   4.966592e+01  -8.768978e+01
   1.506147e+01  -1.922500e+01
   1.283121e+02   8.953888e+01
   1.740875e+01   1.096778e+02
  -6.071860e+01   4.177537e+01
  -1.169206e+02  -8.029512e+01
  -2.330721e+01  -1.095259e+02
   6.627656e+01  -4.897174e+01
   1.093364e+02   4.622001e+00
   2.285017e+01   1.021841e+02
   1.196586e+01   5.509927e+01
   5.585634e-01  -9.304915e-01
   4.265351e+01  -4.026272e+01
   6.284904e+01  -6.744913e+01
  -1.288448e+01   3.182162e+01
  -1.154450e+02   3.572018e+01
  -1.341118e+02   1.152079e+02
  -1.120625e+02  -3.434739e+01
   4.511826e+01  -1.038396e+02
   2.130087e+01  -7.255685e+01
   4.320548e+01  -1.997152e+00
   2.263398e+01   8.058301e+01
  -6.761387e+01   1.531984e+00
  -5.161821e+01  -5.729255e+01
   1.457547e+01  -7.766590e+01
   7.035017e+01   3.873436e+00
   4.180929e+01  -3.576548e+01
   6.106861e+01   8.603353e+01
   8.441243e+01   1.671005e+01
  -2.952387e+01  -6.310771e+01
   1.029252e+01  -3.166532e+01
  -4.828444e+01   9.310796e+01
   2.341177e+01   9.582516e+01
  -2.473131e+01   3.906526e+01
  -6.080110e+00  -2.439395e+01
  -1.488078e+01  -7.197238e+01
   7.159408e+01  -1.793364e+01
   1.173248e+02   4.915911e+01
  -1.557839e+00   1.093830e+02
  -3.239428e+01   5.508272e+01
  -9.126010e+01  -6.007065e+00
  -6.088901e+01  -2.666927e+01
   3.973529e+01  -8.087623e+01
   3.142190e+01  -4.741934e+01
   3.009370e+01  -6.409525e+01
  -3.138337e+01   1.766278e+01
  -7.169370e+00  -8.834041e+01
  -2.222047e+01  -4.901333e+01
   1.282647e+02  -3.157026e+01
