
 $NMID
 id='ANONYMOUS ', fmtdat='(2E16.6)'
 volume=1.0
 tramp=1.0
 $END
  -5.403806e+03   4.099793e+01
  -3.119989e+03  -3.273145e+03
   9.940138e+02  -3.501017e+03
   2.673161e+03  -9.449582e+02
   1.171926e+03   9.788607e+02
  -9.596416e+02   8.054543e+02
  -1.180046e+03  -6.201603e+02
   4.471015e+01  -1.445666e+03
   1.056123e+03  -9.889673e+02
   1.156891e+03   1.824419e+02
   5.982372e+02   1.134762e+03
  -3.730102e+02   1.135510e+03
  -8.546706e+02   7.766593e+01
  -5.170566e+02  -8.810381e+02
   3.357945e+02  -9.732774e+02
   8.015633e+02   2.595531e+01
   3.707580e+02   8.364974e+02
  -4.549646e+02   7.641949e+02
  -7.315952e+02   2.945760e+01
  -4.007793e+02  -4.690476e+02
   4.523896e+01  -5.858288e+02
   3.008133e+02  -3.503895e+02
   2.982205e+02   6.274467e+00
  -8.393194e+01   1.570091e+02
  -5.167105e+02  -1.023094e+02
  -2.877419e+02  -5.293034e+02
   5.350374e+02  -6.078234e+02
   1.067416e+03   5.128149e+01
   5.731145e+02   6.786132e+02
  -4.464556e+02   6.965377e+02
  -9.450069e+02  -1.100333e+01
  -4.620390e+02  -5.747491e+02
   3.378955e+02  -5.597878e+02
   6.939663e+02  -2.843154e+02
   5.649844e+02   2.683162e+02
   6.212774e+01   6.133869e+02
  -3.011306e+02   3.815408e+02
  -2.442166e+02  -2.815668e+02
   1.605586e+02  -6.330628e+02
   6.194158e+02  -6.398098e+01
   3.691404e+02   7.964771e+02
  -3.832060e+02   9.410833e+02
  -7.909112e+02  -1.559437e-01
  -3.621854e+02  -6.808225e+02
   3.811269e+02  -4.220452e+02
   5.868266e+02   3.070809e+02
  -2.535841e+01   7.019667e+02
  -6.828649e+02   1.980712e+02
  -7.947873e+02  -4.498179e+02
  -2.158829e+02  -7.617617e+02
   4.668199e+02  -4.163517e+02
   7.294530e+02   1.029166e+02
   4.907000e+02   4.981083e+02
  -2.379942e+02   4.722014e+02
  -6.143930e+02   6.266172e+01
  -3.364276e+02  -3.076911e+02
   1.775871e+02  -1.258828e+02
   2.571210e+02   1.860506e+02
  -1.944624e+02   2.391181e+02
  -4.603397e+02  -1.276214e+02
  -1.511495e+02  -4.049406e+02
   2.548842e+02  -2.513384e+02
   3.970220e+02  -9.028990e+01
   1.972887e+02   4.823660e+01
  -8.750792e+01   2.441757e+02
  -2.275898e+02   3.295143e+02
  -4.303781e+02   2.994483e+02
  -3.789439e+02  -1.699207e+02
  -1.778086e+02  -5.320205e+02
   1.532138e+02  -4.587857e+02
   1.915744e+02  -1.312693e+02
  -1.963202e+01   6.668682e+01
   4.106642e+01  -1.196443e+02
   1.892628e+02  -1.828194e+02
   2.749205e+02   6.427283e+01
   2.062401e+02   3.366563e+02
  -3.751657e+01   3.338662e+02
  -2.759005e+02   8.465824e+01
  -2.148965e+02  -2.783466e+02
   2.423175e+01  -4.053679e+02
   3.031173e+02  -1.184602e+02
   4.692485e+02   1.828662e+02
   2.630943e+02   4.464075e+02
  -1.112552e+02   4.222189e+02
  -2.481374e+02   1.288705e+02
  -1.898575e+02  -8.449784e+01
  -1.256257e+02   7.146208e+01
  -2.637378e+02   5.021759e+01
  -4.372069e+02  -2.226800e+01
  -4.161139e+02  -3.083390e+02
  -3.132361e+00  -4.628347e+02
   3.938427e+02  -4.725405e+02
   5.457844e+02  -2.422879e+02
   4.081130e+02   1.292464e+02
   6.334135e+01   3.244516e+02
  -1.075022e+02   3.266033e+02
  -1.313930e+02   6.964433e+01
   1.361304e+02  -5.342132e+01
   2.644339e+02  -1.961612e+01
   8.034613e+01   2.510369e+02
  -1.925262e+02   2.464615e+02
  -2.640354e+02  -5.770485e+01
   1.608056e+01  -2.588718e+02
   1.930099e+02  -5.755398e+01
   2.658649e+02   2.860512e+02
  -5.372808e+01   4.776164e+02
  -2.811754e+02   2.512071e+02
  -3.679105e+02  -8.146509e+01
  -3.104206e+02  -2.012534e+02
  -1.294645e+02  -3.235914e+02
   1.839009e+02  -2.310220e+02
   2.253740e+02  -3.380028e+01
   7.148554e+01   2.016617e+01
  -1.066764e+02  -3.891003e+00
  -6.799031e+01  -1.313080e+02
   1.354703e+02  -1.420084e+02
   2.066321e+02   3.331992e+01
   1.265002e+02   9.665822e+01
  -9.036613e+01   1.356870e+01
  -1.143285e+02  -4.062783e+01
   1.155725e+02  -1.138128e+02
   3.402702e+02  -4.312872e+01
   3.170100e+02   1.581951e+02
   1.195257e+02   2.751047e+02
  -1.839265e+02   2.523877e+02
  -3.103778e+02   2.252547e+02
  -2.700247e+02  -4.507884e+01
   2.610480e+01  -1.469706e+02
   1.483643e+01   6.469960e+00
  -2.061032e+01   1.784162e+02
  -1.865262e+02   1.271045e+02
  -2.066899e+02  -1.519275e+02
  -9.216830e+01  -2.700392e+02
   8.229111e+01  -2.276793e+02
   1.302020e+02  -9.369087e+01
   5.702476e+01   6.565118e+00
   8.261989e+00  -2.709294e+00
  -6.693963e+01  -1.039558e+02
   9.510686e+01  -1.566130e+02
   1.740956e+02  -2.327100e+01
   2.085373e+02   1.130031e+02
   3.529090e+01   2.801727e+02
  -1.846882e+02   2.075150e+02
  -2.293225e+02  -1.316577e+00
  -2.168814e+01  -1.811392e+02
   7.476797e+01  -1.102964e+02
   8.075314e+01  -1.518690e+01
   5.366368e+01  -1.772481e+01
   2.595030e+01   6.574126e+00
  -1.726470e+01  -1.393757e+01
   6.892412e+01  -5.769107e+01
   1.090095e+02   1.027091e+02
   2.803968e+01   1.848534e+02
  -1.253070e+02   1.660220e+02
  -2.218552e+02   3.783662e+01
  -2.284217e+02  -2.139466e+02
  -1.074309e+02  -2.758201e+02
   6.206816e+01  -2.108608e+02
   1.235630e+02   7.158122e+00
   8.327803e+01   1.254226e+02
   3.992867e+01  -2.499174e+01
   8.905500e+01  -3.711515e+01
   6.846518e+01   2.747617e+00
   3.715478e+01   6.321373e+01
  -1.998044e+01   3.975484e+01
  -5.958303e+01   3.314866e+01
  -1.372338e+02  -2.481556e+01
   2.427914e+01  -1.910249e+02
   1.337291e+02  -1.235142e+02
   2.552063e+02   4.563996e+01
   1.632772e+02   1.998712e+02
  -1.528465e+02   2.322411e+02
  -2.948515e+02   1.954230e+02
  -3.099799e+02  -1.211339e+02
  -1.067310e+02  -2.162099e+02
   8.898716e+01  -1.708001e+02
   1.415986e+02  -9.565801e+01
   1.435261e+02  -1.166549e+02
   1.073923e+02  -9.955066e+01
   1.219950e+02  -7.913584e+01
   1.272944e+02  -1.596931e+01
   1.072330e+02   1.205707e+02
   4.356894e+01   2.336884e+02
  -7.916822e+01   1.651311e+02
  -2.010970e+02   4.147435e+01
  -2.424785e+02  -8.794027e+01
  -4.237470e+01  -1.440625e+02
   3.269466e+01  -8.527835e+01
   5.353595e+01   6.463667e+00
   1.361500e+00   1.963339e+01
   3.149761e+01   3.481160e+01
   8.237795e+01   5.550496e+01
   1.981776e+02   2.894758e+01
   4.915378e+01   4.762818e+01
  -1.066113e+02   4.405410e+01
  -1.049475e+02  -3.123949e+01
  -1.080399e+02  -3.673952e+00
  -4.412446e+00  -1.152806e+02
   1.024217e+02  -7.365113e+01
   2.140246e+02  -3.236591e+01
   6.474830e+01   2.879623e+01
  -5.561617e+01   7.498396e+01
  -1.127120e+02  -1.834096e+01
  -1.911497e+01  -1.259109e+02
   6.043991e+01  -4.478345e+01
   6.515480e+01   9.478819e+00
   4.503599e+01  -1.879439e+01
   6.862498e+01   7.380172e+01
   7.147878e+01   4.958836e+01
   5.843494e+01   8.693438e-01
   1.349799e+01  -9.847029e+00
  -2.530788e+01   2.260588e+02
  -1.349134e+02   1.695273e+02
  -1.535559e+02   6.745858e+01
  -2.158304e+02  -1.298658e+02
  -1.132177e+01  -1.358034e+02
   1.404744e+02  -7.654635e+01
   1.074597e+01   3.878046e+01
  -6.263072e+01   2.393318e+01
  -1.163462e+02  -4.160879e+01
  -6.136252e+01  -1.277470e+02
   8.812942e+01  -1.527588e+02
   1.675902e+02  -9.919964e+01
   1.622466e+02   3.897403e+01
   6.656650e+01   8.142914e+01
  -1.182156e+02   9.150908e+01
  -8.412869e+01  -2.963420e+01
   2.643639e+01  -6.875710e+01
   4.972947e+01  -6.907965e+01
  -3.671679e+01   7.573801e+01
  -6.426708e+01   1.283602e+02
  -2.459091e+02   1.108435e+02
  -1.428168e+02  -7.649660e+01
  -3.547785e+01  -2.250139e+02
   1.044665e+02  -2.162024e+02
   1.451577e+02  -2.084058e+01
   1.279602e+02   9.601899e+01
   2.585849e+01   1.807085e+02
  -6.625128e+01  -7.435981e+00
  -6.679855e+01  -4.679038e+01
  -7.254690e+01  -6.827604e+00
  -1.522221e+01   1.133197e+01
  -8.234359e+00  -5.978090e+01
  -3.946178e+01  -1.610900e+02
  -5.744732e+01  -1.380820e+02
   3.226786e+01  -8.556115e+01
   1.142590e+02   1.348877e+02
   1.571135e+02   7.004110e+01
   1.408902e+01   6.454141e+01
  -1.368813e+02   5.075705e+00
  -1.950403e+02   3.585620e+01
  -4.325833e+01  -4.949603e+01
   3.854495e+01  -7.119416e+01
   5.170186e+00  -2.258112e+01
  -4.893749e+01   1.412193e+01
   1.730094e+01   3.390050e+01
   9.729163e+01   5.304987e+00
   7.553919e+01   1.596746e+01
   6.333343e+00   1.265534e+02
  -1.151032e+02   1.671483e+02
  -2.370755e+02   4.354698e+01
  -1.778898e+02  -7.361159e+01
  -3.275331e+01  -2.025659e+02
   6.737280e+01  -2.293726e+02
   1.269222e+02  -1.513342e+01
   5.134508e+01   2.699087e+01
   4.200144e-01   7.742685e+01
  -3.619518e+01  -2.389675e+01
   2.348984e+00   4.136008e+01
   5.906679e+01   2.417217e+01
  -2.690963e+01   5.423369e+01
  -3.988363e+01   6.179977e+01
  -8.340754e+01  -4.001768e+01
  -1.279204e+02  -1.111635e+02
  -5.330823e+00  -1.431252e+02
   4.981356e+01  -1.066990e+02
   1.480587e+02   1.118842e+02
   1.961680e+01   9.326398e+01
  -1.016409e+02   9.548168e+01
  -6.301000e+01   3.241902e+01
  -5.418231e+01  -3.350295e+01
   5.685331e+01  -6.502610e+01
  -5.475213e+01  -2.727614e+01
  -1.065302e+00  -1.277308e+01
  -9.468075e+01  -2.946279e+00
   7.725556e-01   2.458265e+01
   8.305550e+01  -3.638353e+01
   1.548372e+02  -8.578473e+01
   8.820111e+01   5.243185e+00
  -4.238237e+01   1.072679e+02
  -1.245967e+02   8.595685e+01
  -3.495456e+01   3.994574e+01
  -1.278049e+01  -7.468092e+01
   4.064046e+01  -9.385861e+01
   6.689968e+01   2.199287e+00
   2.174556e+01   9.728934e+01
   5.249443e-01  -4.194933e+00
  -1.028524e+01  -2.298266e+01
  -8.149760e+01  -1.614537e+01
  -2.466091e+01   3.324783e+01
  -3.400513e+01  -3.323293e+01
  -3.646212e+01   3.822332e+01
   7.168299e+01  -2.378362e+01
   2.961099e+01  -5.609586e+01
   3.409146e+01   1.752162e+01
   7.045529e+01   4.709592e+01
   1.938921e+01   4.933199e+01
  -7.263537e+01   8.973935e+00
  -7.379246e+01  -7.585805e+01
  -7.592481e+01  -5.389364e+01
   5.379412e+01   1.883726e+01
   1.145772e+02   5.217860e+01
   1.025013e+02  -1.451051e+01
  -7.198857e+01   4.554671e+01
  -6.934213e+01   3.118388e+01
  -1.427508e+01   1.915752e+01
  -1.537457e+00   2.202894e+01
   6.927297e+01   7.099425e+01
  -7.011433e+01   2.639058e+01
  -1.001352e+02   2.239245e+01
