
 $NMID
 id='ANONYMOUS ', fmtdat='(2E16.6)'
 volume=1.0
 tramp=1.0
 $END
   4.964015e+03   9.562205e+01
   2.797527e+03   3.034648e+03
  -9.039410e+02   3.112425e+03
  -2.439819e+03   8.972858e+02
  -1.072501e+03  -8.401408e+02
   7.364653e+02  -6.545221e+02
   1.052445e+03   5.251198e+02
  -6.569642e+01   1.191742e+03
  -9.886246e+02   9.229902e+02
  -1.077659e+03  -1.243972e+02
  -4.867005e+02  -1.026034e+03
   3.000387e+02  -1.003061e+03
   7.303916e+02  -7.551448e+01
   4.557381e+02   8.693425e+02
  -2.934817e+02   8.647219e+02
  -6.980013e+02   4.183212e+00
  -2.736793e+02  -7.355377e+02
   4.298241e+02  -7.678694e+02
   6.752887e+02  -8.822649e+01
   3.799538e+02   4.762247e+02
  -1.646838e+00   5.028080e+02
  -3.154049e+02   2.340598e+02
  -3.007935e+02   2.858909e+01
   1.208961e+02  -1.122873e+02
   3.778175e+02   1.001819e+02
   2.870467e+02   4.756816e+02
  -4.718784e+02   4.689481e+02
  -8.753805e+02  -6.829365e+01
  -4.790877e+02  -6.494717e+02
   4.099667e+02  -5.245284e+02
   8.582284e+02   5.365571e+01
   3.285513e+02   5.759629e+02
  -3.155789e+02   5.781269e+02
  -6.538173e+02   2.573409e+02
  -4.677339e+02  -2.531522e+02
  -6.553540e+01  -5.300167e+02
   2.694285e+02  -3.706286e+02
   2.115091e+02   2.255703e+02
  -1.799655e+02   5.394176e+02
  -5.339422e+02   6.357324e+01
  -3.263036e+02  -7.117805e+02
   4.101661e+02  -8.107525e+02
   6.374895e+02  -5.092318e+01
   3.286484e+02   6.060547e+02
  -3.641194e+02   3.962486e+02
  -4.398484e+02  -4.409972e+02
   1.322999e+02  -6.368923e+02
   6.371127e+02  -1.776472e+02
   6.789175e+02   4.906658e+02
   1.189982e+02   6.799485e+02
  -3.644454e+02   3.570040e+02
  -6.803630e+02  -1.172708e+02
  -4.344649e+02  -3.814764e+02
   1.255236e+02  -3.628305e+02
   5.527867e+02  -6.000605e+01
   2.415125e+02   2.442016e+02
  -2.010007e+02   1.043554e+02
  -1.755371e+02  -2.029279e+02
   1.916043e+02  -2.299336e+02
   4.306356e+02   4.111753e+01
   1.609473e+02   3.935680e+02
  -2.752173e+02   2.596705e+02
  -3.504570e+02   1.377077e+02
  -2.263552e+02  -1.085168e+02
   3.137105e+01  -1.927049e+02
   2.720144e+02  -2.842254e+02
   3.502160e+02  -2.656081e+02
   2.907831e+02   1.220371e+02
   6.743681e+01   4.904487e+02
  -1.268993e+02   4.156207e+02
  -1.253164e+02   1.134858e+02
  -2.169934e+01  -5.911776e+01
  -2.088942e+01   1.206010e+02
  -2.127515e+02   1.201350e+02
  -3.694383e+02  -1.133239e+01
  -1.921785e+02  -2.285598e+02
   6.501943e+01  -2.906623e+02
   2.524646e+02  -4.148837e+01
   2.223888e+02   2.990638e+02
  -2.224160e+00   3.537531e+02
  -2.762939e+02   9.319202e+01
  -4.151399e+02  -2.559752e+02
  -1.343413e+02  -4.242246e+02
   1.450254e+02  -3.036060e+02
   3.308121e+02  -1.525193e+02
   1.377828e+02   9.928271e+00
   9.567778e+01  -4.260331e+01
   2.478910e+02  -9.296036e+01
   4.549149e+02   5.585492e+01
   3.591311e+02   3.385884e+02
  -7.558683e+00   4.687426e+02
  -4.604484e+02   3.873360e+02
  -5.482380e+02   1.968457e+02
  -3.930375e+02  -9.157698e+01
  -6.935619e+01  -3.130818e+02
   1.488720e+02  -3.091203e+02
   1.027244e+02  -7.422856e+01
  -9.818413e+01   1.325967e+02
  -2.108252e+02  -1.760322e+01
  -1.084185e+02  -2.711730e+02
   1.279934e+02  -2.205352e+02
   2.438526e+02   6.511388e+01
  -3.444729e+01   2.678154e+02
  -2.248672e+02   3.413409e+01
  -2.279575e+02  -2.385725e+02
   8.818795e+01  -4.497309e+02
   2.811189e+02  -2.785657e+02
   3.536732e+02   9.957203e+01
   3.642154e+02   3.154629e+02
   1.100738e+02   3.290678e+02
  -1.406591e+02   2.089832e+02
  -1.938103e+02  -1.831399e+01
  -3.970255e+01   1.101823e+01
   4.469448e+01   8.336477e+01
   4.341327e+01   1.243288e+02
  -1.441998e+02   1.337945e+02
  -1.434297e+02  -6.430549e+01
  -7.042366e+01  -1.112249e+02
   9.156654e+01   2.793706e+01
   2.716932e+01   1.158683e+02
  -1.474891e+02   8.000418e+01
  -3.027291e+02  -3.367930e+01
  -2.922272e+02  -1.299936e+02
  -9.076646e+01  -2.897672e+02
   2.484419e+02  -2.568977e+02
   3.580552e+02  -1.547125e+02
   9.988417e+01   7.582244e+01
  -1.868467e+01   1.176427e+02
  -1.224892e+02   2.338899e+01
   3.396037e+01  -9.320157e+01
   2.060480e+02  -8.241103e+01
   2.583992e+02   1.138965e+02
   6.742334e+01   2.640787e+02
  -9.890041e+01   1.337022e+02
  -1.162393e+02   3.339497e+01
  -8.986148e+01   7.116349e+00
   7.737292e+01   2.462479e+01
  -2.721408e+01   1.364731e+02
  -4.950825e+01   8.226399e+01
  -2.954215e+02   9.050215e+01
  -2.424735e+02  -1.661665e+02
  -7.197039e+01  -2.293045e+02
   1.466929e+02  -1.598822e+02
   2.522311e+02  -9.506586e+00
   1.054609e+02   1.304434e+02
  -1.236161e+02   1.062614e+02
  -8.445975e+01   3.623016e+01
   1.669103e+01   1.122408e+01
   3.085014e+01  -1.297463e+00
   1.962136e+01  -1.293557e+01
  -1.138851e+02  -5.012143e+01
  -1.073718e+02  -6.552726e+01
  -3.419543e+01  -1.617466e+02
   9.975738e+01  -1.616496e+02
   2.341569e+02   1.581291e+00
   2.386633e+02   1.581709e+02
   2.844105e+01   2.345328e+02
  -1.816055e+02   1.502109e+02
  -1.410928e+02   3.065917e+01
  -1.100180e+02  -4.758563e+01
   5.232989e+01  -4.734152e+01
  -1.197972e+02   1.266199e+02
  -6.926302e+01  -3.008667e+01
  -7.236022e+01   1.097651e+01
   7.070328e+01  -1.256581e+02
   7.846524e+01  -6.160460e+01
   1.685663e+02   6.861440e+01
  -3.756535e+01   1.381499e+02
  -1.129557e+02   7.362744e+01
  -1.756596e+02  -2.004068e+01
  -1.015198e+02  -2.716186e+02
   1.600750e+02  -2.775011e+02
   2.580101e+02  -9.781347e+01
   3.279401e+02   1.243519e+02
   1.411603e+02   1.592523e+02
  -5.082120e+01   1.269337e+02
  -3.454138e+01   1.351476e+02
  -4.765508e+01   1.045519e+02
  -8.039574e+01   8.001924e+01
  -1.204917e+02   3.455217e+01
  -1.287793e+02  -4.694855e+01
  -1.203676e+02  -1.221619e+02
  -4.314364e+01  -2.356286e+02
   1.061457e+02  -1.585827e+02
   1.973329e+02  -2.580713e+01
   1.861920e+02   1.423495e+02
   3.000715e+01   1.541682e+02
  -3.766294e+01   9.506506e+01
  -8.469611e+01   3.154655e+01
  -8.789946e+00  -3.538786e+01
  -1.757092e+01  -3.738175e+01
  -6.244493e+01  -3.892756e+01
  -1.051731e+02   1.787989e+01
  -6.338419e+01  -2.865311e+01
   6.989936e+01  -6.152398e+01
   2.026045e+02   1.955785e+01
   1.113836e+02   7.708148e+01
   6.178741e+01   1.556235e+02
  -1.692937e+02   2.141505e+01
  -1.312147e+02  -3.072016e+01
  -4.808919e+01  -2.296229e+01
   9.234334e+01   9.188594e+00
   7.107649e+01  -1.604273e+01
   3.838728e+01   6.173422e+01
  -7.572510e+01   4.834747e+01
  -6.338143e+01  -3.953058e+01
  -4.424902e+01  -1.404303e+01
  -7.348233e+01  -5.584933e+01
  -1.752386e+01   5.258468e+01
  -8.079588e+01  -5.341013e+00
  -2.823434e+01  -4.697741e+01
   7.249437e+01  -1.120813e+02
   6.256898e+01  -1.619636e+02
   1.085271e+02  -5.097584e+01
   2.013570e+02   1.293024e+02
   8.173236e+00   1.427465e+02
  -1.323350e+02   5.245617e+01
  -6.659267e+01   3.227555e+01
   9.437427e+01  -2.372201e+01
   1.023534e+02   5.008182e+01
   3.384288e+01   1.644420e+02
  -4.910899e+01   1.347518e+02
  -1.583049e+02   9.594559e+01
  -1.447615e+02  -1.450756e+01
   5.088495e+00  -7.648481e+01
   8.750143e+01  -1.164947e+02
   7.686559e+01  -2.991658e+01
  -1.848312e+01   9.725743e+01
  -9.810935e+01  -3.652300e+01
  -4.876008e+01  -1.659705e+02
   8.684077e+01  -1.771450e+02
   2.236943e+02  -9.973357e+01
   1.328151e+02   1.076964e+02
   4.718646e+01   2.339247e+02
  -1.141496e+02   1.792623e+02
  -1.060208e+02  -5.216544e+01
  -1.197158e+02  -1.011391e+02
   3.101112e+01  -1.351840e+02
   8.482760e-01  -6.831377e+01
  -5.955536e+00   1.080430e+01
   6.375536e+01  -2.239611e+01
   1.930803e+01  -5.051909e+01
  -5.353749e+00  -4.000362e+01
   1.010179e+02   1.241954e+02
   6.434461e+01   8.953743e+01
  -6.516662e+01   2.983643e+01
  -1.621098e+02  -8.945918e+01
  -1.160439e+02  -1.514548e+01
  -2.417987e+01  -2.116138e+01
   7.658852e+01   1.973305e+01
   8.055929e+01  -4.449602e+00
  -6.406980e+00   1.592776e+01
  -9.659894e+00  -3.347209e+00
   1.442024e+01  -3.066778e+01
   6.542594e+01  -8.249391e+00
   2.453475e+01   5.015036e+01
  -2.532014e+01  -3.393073e+00
  -1.174632e+02  -3.733668e+01
  -8.654230e+01  -8.427783e+01
   1.410492e+02  -1.366640e+02
   1.942656e+02   2.379020e+01
   1.417815e+02   8.698690e+01
   2.360443e+01   1.809618e+02
  -1.143533e+02   1.763167e+02
  -1.356576e+02   6.740546e+01
  -7.131975e+01  -6.210517e+01
   2.569859e+01  -5.978736e+01
  -3.400991e+01   3.135675e+01
  -5.159358e+00  -1.222621e+01
  -4.746229e+01  -1.050974e+02
  -4.627695e+00  -9.579208e+01
   1.200369e+01  -9.323674e+01
   5.782009e+01  -6.887875e+00
   1.061943e+02   1.003436e+02
   2.465404e+01   1.369970e+02
  -8.280756e+01  -2.151871e+01
  -6.438239e+01  -7.703102e+01
  -1.142666e+02  -1.484580e+02
   6.449085e+01  -8.042193e+01
   1.066253e+02   8.346237e+01
   5.576519e+01   7.637957e+01
  -3.905742e+01   6.903447e+01
  -3.130849e+01   7.837013e+01
   1.739477e+01  -1.122121e+01
   1.011161e+02   3.880730e+01
   2.083814e+01   8.392062e+00
  -7.538486e+01   7.234256e+01
  -1.244444e+02   2.200100e+01
  -7.600130e+01  -1.978949e+01
   5.698784e+01  -1.515069e+02
   6.218343e+01  -1.054972e+02
   7.694758e+01  -5.200575e+01
  -2.740432e+01   5.032440e+01
  -6.297217e+01   7.311430e+01
   5.119586e-01  -9.154540e+00
  -8.146500e+01  -9.756600e+01
  -5.106486e+00  -2.739112e+01
   4.079455e+01   2.294298e+01
   3.780651e+01  -9.839760e+00
   4.244538e+01   3.900045e+00
  -1.644766e+01  -6.960763e+01
  -6.178156e+01  -9.769793e+00
  -3.058492e+01   3.612077e+01
  -7.199118e+01   5.016155e+01
  -4.652260e+01   3.041110e+01
  -5.463950e+01  -6.149088e+01
   3.586983e+01  -1.017908e+02
   5.317723e+01  -1.161894e+01
   2.055259e+01   1.859705e+01
  -1.954843e+00   1.040157e+02
  -1.094015e+02  -5.193156e+00
  -7.432405e+01  -6.787028e+01
  -4.253711e+01  -3.950483e+01
  -9.273667e+00  -1.226365e+01
   6.623161e+01  -2.390036e+01
   7.673309e+01   2.346559e+01
  -5.277858e+01   1.492053e+01
  -1.428958e+02  -4.081962e+01
   5.765691e+01   7.878816e+00
   8.375925e+01   1.254660e+01
