
 $NMID
 id='ANONYMOUS ', fmtdat='(2E16.6)'
 volume=1.0
 tramp=1.0
 $END
   4.711587e+03   1.301981e+02
   2.719996e+03   2.952634e+03
  -9.733648e+02   2.926076e+03
  -2.385712e+03   7.527929e+02
  -9.933210e+02  -8.419296e+02
   8.083614e+02  -5.821659e+02
   9.637022e+02   5.959395e+02
  -3.134011e+01   1.124425e+03
  -9.732024e+02   8.267156e+02
  -9.459989e+02  -1.547620e+02
  -4.818122e+02  -9.705929e+02
   2.791834e+02  -9.005631e+02
   6.905474e+02  -1.457939e+02
   3.801117e+02   7.902306e+02
  -2.935939e+02   8.399312e+02
  -6.060188e+02  -1.872657e+01
  -2.453336e+02  -7.463538e+02
   3.872810e+02  -6.529719e+02
   6.293259e+02  -3.774432e+01
   4.042983e+02   4.251414e+02
   2.229454e+01   4.242519e+02
  -2.053359e+02   2.779467e+02
  -1.957307e+02  -3.084277e-01
   1.393100e+02  -1.270487e+02
   4.594277e+02   8.658203e+01
   2.768498e+02   4.241273e+02
  -5.020175e+02   4.893620e+02
  -8.918750e+02  -5.823196e+01
  -4.563157e+02  -6.330919e+02
   4.626630e+02  -5.027527e+02
   7.563538e+02   7.502733e+01
   4.197369e+02   5.920631e+02
  -2.933778e+02   5.786234e+02
  -5.706271e+02   1.741053e+02
  -4.202380e+02  -2.205894e+02
  -6.105139e+01  -5.133169e+02
   1.973496e+02  -2.823669e+02
   2.546170e+02   2.131700e+02
  -2.392406e+02   4.849483e+02
  -4.656334e+02   5.193101e+00
  -2.665317e+02  -7.823386e+02
   3.738246e+02  -7.590169e+02
   6.559869e+02  -3.248367e+01
   2.903679e+02   6.348604e+02
  -3.689753e+02   3.321291e+02
  -3.900660e+02  -3.229481e+02
   1.157335e+02  -5.987821e+02
   6.003807e+02  -1.389796e+02
   5.833690e+02   4.172596e+02
   8.393853e+01   5.996622e+02
  -4.451151e+02   3.366309e+02
  -6.701666e+02  -1.525508e+02
  -4.322065e+02  -4.716831e+02
   2.395966e+02  -4.171558e+02
   5.043558e+02  -5.366901e+01
   2.742798e+02   2.048174e+02
  -1.726313e+02   1.241975e+02
  -1.260178e+02  -1.591297e+02
   1.771499e+02  -1.903573e+02
   3.945523e+02   3.935729e+01
   1.811349e+02   3.430238e+02
  -2.336456e+02   2.235922e+02
  -3.464668e+02   8.752850e+01
  -2.043562e+02  -7.039879e+01
   3.182745e+01  -2.171489e+02
   2.085948e+02  -3.876297e+02
   4.009731e+02  -3.130656e+02
   2.979260e+02   1.609019e+02
   1.365918e+02   5.126538e+02
  -1.057158e+02   3.394059e+02
  -1.568426e+02   1.445685e+02
  -3.059306e+01  -5.620507e+01
  -3.840969e+01   7.688012e+01
  -1.842616e+02   1.413568e+02
  -2.646695e+02   1.269845e+01
  -2.132110e+02  -2.652695e+02
   9.171128e+01  -3.412739e+02
   2.364843e+02  -4.830806e+01
   2.304146e+02   2.403672e+02
   3.269043e+01   3.777140e+02
  -2.730226e+02   1.524705e+02
  -3.665495e+02  -1.705893e+02
  -1.642736e+02  -3.827590e+02
   1.328759e+02  -2.984914e+02
   2.506270e+02  -1.136745e+02
   2.109353e+02  -1.617062e+01
   6.248132e+01  -1.987333e+01
   1.903510e+02  -1.108854e+02
   4.288438e+02   4.649965e+01
   3.933995e+02   2.589204e+02
  -1.210415e+01   4.749266e+02
  -3.461412e+02   4.453643e+02
  -5.583174e+02   2.534011e+02
  -3.275466e+02  -1.669172e+02
  -1.009451e+02  -3.327528e+02
   1.061179e+02  -2.736389e+02
   9.443130e+01  -6.467108e+01
  -1.007231e+02   8.661812e+01
  -2.848294e+02  -1.942781e+00
  -6.153286e+01  -2.071264e+02
   1.729062e+02  -2.326224e+02
   2.298802e+02   9.311541e+01
  -3.716552e+01   1.701610e+02
  -2.019793e+02   3.746140e+01
  -1.651989e+02  -2.146493e+02
   1.834309e+01  -3.845114e+02
   2.310692e+02  -1.896127e+02
   3.285047e+02   5.844718e+00
   3.317896e+02   2.090999e+02
   1.317723e+02   2.226188e+02
  -1.110782e+02   2.261132e+02
  -1.967123e+02   7.773921e+01
  -3.386849e+01  -1.567875e+01
   9.927029e+01   2.363433e+01
   5.467657e+01   1.310074e+02
  -9.925786e+01   7.664868e+01
  -2.243784e+02   1.311736e+01
  -8.122492e+01  -8.571217e+01
   7.171532e+01   1.208575e+01
   6.301893e+01   8.423353e+01
  -1.229115e+02   8.180986e+01
  -2.481425e+02   7.603540e+01
  -3.199099e+02  -1.097428e+02
  -6.304920e+01  -2.555024e+02
   2.140319e+02  -2.629780e+02
   2.899775e+02  -1.752390e+02
   2.318617e+02   7.298144e+01
   3.987274e+00   1.250078e+02
  -9.504107e+01   1.974264e+01
  -1.377982e+01  -9.146260e+01
   1.701087e+02  -5.941851e+01
   3.039317e+02   1.290061e+02
   1.089759e+02   2.107348e+02
  -1.060243e+02   1.374390e+02
  -1.479282e+02   5.409437e+01
  -6.483534e+01  -3.419770e+01
   4.895063e+01  -3.411232e+01
   3.315485e+01   7.004178e+01
  -4.554961e+01   1.539429e+02
  -1.726513e+02   3.255541e+01
  -2.152015e+02  -1.468076e+02
   2.140555e+00  -2.339718e+02
   1.616898e+02  -1.766161e+02
   2.876979e+02  -1.144554e+01
   8.962698e+01   1.002435e+02
  -7.538388e+01   9.683785e+01
  -1.041692e+02   1.640704e+01
  -2.775489e+00  -2.846851e+00
   2.393706e+01  -5.267963e+01
   4.490062e+01   3.144775e+00
  -6.253683e+01  -1.066587e+02
  -9.252961e+01  -3.996385e+01
  -2.381002e+01  -1.098355e+02
   1.051284e+02  -2.148513e+02
   2.648030e+02  -7.299784e+01
   2.407925e+02   1.678059e+02
   3.086431e+01   2.617052e+02
  -1.437490e+02   1.631286e+02
  -1.413097e+02   1.710787e+01
  -5.220752e+01  -6.948509e+01
  -2.175628e+01  -4.392347e+00
  -8.605288e+01  -3.868713e+01
  -3.884355e+01  -5.363185e+01
  -4.142444e+01  -7.637327e+01
   1.449638e+01  -2.568012e+01
   1.548475e+02  -5.272117e+01
   1.264832e+02   4.038417e+01
  -1.801830e+01   1.437275e+02
  -7.809487e+01   1.053238e+02
  -1.775896e+02  -5.278553e+01
  -9.947185e+01  -1.787563e+02
   1.099831e+02  -2.064635e+02
   2.132673e+02  -6.294100e+01
   2.645026e+02   1.000531e+02
   9.574812e+01   2.195927e+02
  -6.174358e+01   1.529529e+02
  -5.098617e+01   1.165141e+02
  -1.331423e+02   5.570122e+01
  -6.501013e+01   1.320013e+02
  -8.464493e+01   1.256869e+02
  -1.136041e+02   1.119216e+01
  -1.099595e+02  -1.504727e+02
   7.079974e+00  -1.909190e+02
   6.262820e+01  -2.155149e+02
   2.186697e+02  -3.896782e+01
   1.283463e+02   1.670759e+02
   1.584266e+01   1.412463e+02
  -3.010716e+01   1.132943e+02
  -6.363892e+01  -2.558043e+01
  -3.455445e+01  -1.467675e+01
  -2.551083e+01  -2.151076e+01
  -6.866985e+00  -4.809619e+01
  -4.151403e+01  -5.361533e+01
  -1.588932e+01   2.872210e+01
   4.279389e+01  -4.866384e+01
   1.853968e+02   3.094578e+01
   1.974504e+02   7.049757e+01
  -6.003663e+00   4.876418e+01
  -1.340746e+02   7.742942e+01
  -1.222544e+02  -2.838579e+01
  -6.209932e+01  -1.305050e+02
   8.073625e+01   1.022255e+01
   2.150263e+01  -6.434621e+00
  -3.716173e+01   9.971847e+01
   3.514050e+01   6.571782e+01
  -5.061175e+01   3.368047e+00
  -4.229480e+01  -1.309611e+01
  -7.882970e+01  -4.682905e+00
  -1.672657e+01   3.118123e+01
  -2.940587e+01  -1.601607e+01
  -2.727490e+01  -6.659810e+01
   8.166032e+00  -1.541149e+02
   1.047042e+02  -1.361522e+02
   1.842346e+02  -4.627062e+01
   2.239292e+02   1.064389e+02
  -6.741395e+01   1.419896e+02
  -7.590185e+01   5.443377e+01
  -8.524247e+01  -2.120456e+01
   7.574594e+01  -1.759856e+01
   1.298255e+02   9.711009e+01
   4.578243e+01   9.001885e+01
  -8.790768e+01   9.326798e+01
  -1.753183e+02   1.138035e+02
  -1.685609e+02   1.376546e+01
  -6.535406e+01  -7.559888e+01
   8.374117e+01  -7.397381e+01
   3.631433e+01  -2.130361e+01
  -4.049938e+01  -1.805299e+01
  -6.448540e+01  -5.860804e+01
  -3.894562e+01  -1.182587e+02
   7.897270e+01  -1.615094e+02
   1.523140e+02  -7.445767e+01
   1.896734e+02   1.849377e+02
   7.124529e+01   1.785949e+02
  -1.154986e+02   1.697818e+02
  -9.737956e+01  -4.399809e+00
  -3.578712e+00  -1.003666e+02
   3.388866e+01  -8.650610e+01
  -7.816962e+00  -4.001842e+01
  -3.239546e+01   1.122995e+02
  -2.060879e+01  -2.562212e+00
   1.085256e+01  -9.467809e+00
   7.129361e+01   7.620698e+01
   1.015444e+02   8.614583e+01
   6.878358e+01   9.868301e+01
  -5.811835e+01   3.210284e+01
  -9.498507e+01  -4.600344e+01
  -1.299223e+02  -9.688910e+01
  -1.692187e+00  -3.629568e+01
   1.223058e+02  -8.323926e+00
   8.816695e+01  -1.279611e+01
   1.136263e+01  -3.992785e+01
  -4.962676e+01   6.035656e+01
   1.505273e+01   7.327326e+01
   3.485226e+01   4.190106e+01
   9.368579e+00   2.967144e+00
  -4.737617e+01   2.935346e+01
  -6.483374e+01   2.719024e+01
  -1.936942e+01  -8.980263e+01
   5.059258e+01  -1.484379e+02
   1.764593e+02  -1.973063e+01
   1.426982e+02   9.571409e+01
   2.400190e+01   1.650703e+02
  -4.807878e+01   1.778774e+02
  -2.068119e+02   1.015884e+02
  -6.715654e+01  -1.673005e+01
  -2.954398e+01  -1.982737e+01
  -2.867408e+01   2.183327e+01
  -1.240462e+01  -2.169874e+01
  -4.050498e+01  -8.573633e+01
  -2.916112e+00  -1.031549e+02
   7.542118e+01  -4.704986e+01
   1.451389e+02   4.236984e+01
   5.916183e+01   6.953681e+01
   2.473307e+01   1.382042e+02
  -1.186222e+02  -6.450416e+01
  -9.067604e+01  -8.291159e+01
  -4.160552e+01  -7.352562e+01
   8.161239e+01  -9.645011e+01
   1.286878e+02   4.337098e+00
   4.810496e+01   8.355539e+01
  -4.948303e+01   9.647636e+01
  -1.571336e+01   2.431839e+01
   5.039815e+01   2.368348e+01
   2.747630e+01  -1.049163e+01
  -3.711702e+01  -4.925058e+01
  -9.611999e+01   5.028026e+01
  -1.198017e+02   3.790770e+01
  -9.618987e+01  -2.823773e+01
  -2.465603e+00  -1.297327e+02
   4.890600e+01  -1.424645e+02
   6.623913e+01  -1.690701e+01
  -4.438465e+01   2.576920e+01
  -2.291660e+01   5.294529e+01
  -4.586879e+01  -5.442275e+01
  -7.505884e+00  -7.049030e+00
   2.130054e+01  -7.685356e+01
   3.457039e+01  -3.583857e+01
   2.356992e+01   2.604398e+01
   3.992869e+01  -2.368902e+01
  -2.298125e+00  -9.271725e+00
   3.757909e+00   2.740813e+01
   3.030476e+01   6.155191e+01
  -5.655092e+01   8.659209e+01
  -6.594546e+01  -9.427531e+00
  -6.468105e+01  -1.101228e+02
  -4.187220e+01  -1.185126e+02
   6.129699e+01   1.999348e+01
   4.555530e+01   5.475383e+01
   1.920634e+01   1.025170e+02
  -1.041366e+02   3.226292e+01
  -8.473584e+01   6.706488e+00
  -4.080741e+00  -9.247403e-01
   1.610993e+01  -4.890862e+01
   1.218695e+02  -5.424165e+01
   4.183725e+01   9.763337e+00
  -2.191953e+01   6.050805e+01
  -5.123645e+01  -4.633753e+01
   6.511802e+01  -4.270706e+01
   1.257968e+02   2.352692e+00
