
 $NMID
 id='ANONYMOUS ', fmtdat='(2E16.6)'
 volume=1.0
 tramp=1.0
 $END
   4.548007e+03   1.573433e+01
   2.637595e+03   2.753977e+03
  -8.289582e+02   2.880999e+03
  -2.264341e+03   8.828500e+02
  -9.990908e+02  -7.888201e+02
   7.384060e+02  -6.745634e+02
   1.045890e+03   4.728967e+02
  -4.032965e+01   1.131586e+03
  -9.212127e+02   8.469381e+02
  -1.024798e+03  -1.047447e+02
  -4.266191e+02  -8.908073e+02
   3.339278e+02  -9.211203e+02
   6.541228e+02  -1.226070e+02
   4.323889e+02   7.172739e+02
  -3.056877e+02   8.300148e+02
  -6.682668e+02   2.126193e+01
  -2.452681e+02  -7.012410e+02
   3.923273e+02  -5.826299e+02
   6.134164e+02  -1.572295e+01
   3.502291e+02   4.191088e+02
   2.224303e+01   4.769196e+02
  -2.766040e+02   2.835237e+02
  -2.643297e+02  -1.068985e+01
   1.032506e+02  -1.484177e+02
   3.989035e+02   7.592564e+01
   2.722127e+02   4.426570e+02
  -4.951851e+02   3.857937e+02
  -8.469068e+02  -1.048016e+01
  -4.208971e+02  -5.291759e+02
   3.979350e+02  -5.248986e+02
   7.903685e+02  -1.156409e+01
   4.484591e+02   4.880470e+02
  -2.665498e+02   5.840718e+02
  -6.305459e+02   2.287471e+02
  -4.583192e+02  -3.220619e+02
  -7.564179e+01  -4.612319e+02
   2.442494e+02  -3.032303e+02
   2.019707e+02   2.275210e+02
  -2.006990e+02   4.450008e+02
  -4.565881e+02  -2.850726e+01
  -2.533858e+02  -6.839021e+02
   3.657463e+02  -7.501970e+02
   6.381884e+02  -5.140014e+00
   2.505519e+02   5.691202e+02
  -3.066308e+02   3.095070e+02
  -4.022226e+02  -2.933395e+02
   8.117953e+01  -5.465984e+02
   5.402819e+02  -1.391352e+02
   6.418514e+02   3.642291e+02
   1.392738e+02   6.197513e+02
  -4.213560e+02   3.700813e+02
  -6.459603e+02  -8.450026e+01
  -3.715429e+02  -4.263662e+02
   1.413915e+02  -3.696590e+02
   4.483543e+02  -3.861603e+01
   2.690869e+02   2.793253e+02
  -1.875085e+02   1.289371e+02
  -1.317559e+02  -1.315109e+02
   2.058665e+02  -2.476458e+02
   3.185906e+02   8.930508e+01
   9.806470e+01   3.336300e+02
  -2.191403e+02   2.428502e+02
  -2.618389e+02   5.346601e+01
  -1.613756e+02  -8.496946e+01
   2.207658e+01  -2.024696e+02
   2.327996e+02  -3.080340e+02
   3.401573e+02  -1.963490e+02
   2.639088e+02   1.864548e+02
   7.564952e+01   4.490537e+02
  -1.002514e+02   3.552659e+02
  -1.477089e+02   1.357841e+02
  -2.202608e+01   4.097274e+01
  -1.093093e+02   1.100616e+02
  -1.746658e+02   1.671308e+02
  -2.903329e+02  -2.492162e+01
  -2.151802e+02  -2.904860e+02
   2.149997e+01  -2.096464e+02
   2.350899e+02  -3.314783e+01
   2.136367e+02   2.434312e+02
  -5.914072e+01   2.758947e+02
  -2.899437e+02   1.180490e+02
  -4.072132e+02  -2.008448e+02
  -1.544656e+02  -4.141541e+02
   1.490208e+02  -3.899091e+02
   2.664698e+02  -1.513918e+02
   1.115446e+02   1.376853e+00
   8.570445e+01  -3.260438e+01
   2.604813e+02  -3.411609e+01
   4.301786e+02   5.477248e+01
   3.822915e+02   2.743730e+02
  -6.092444e+01   4.450196e+02
  -4.068146e+02   3.440068e+02
  -5.375846e+02   1.817684e+02
  -2.268048e+02  -1.208797e+02
  -4.203192e+01  -3.459794e+02
   1.332148e+02  -2.404735e+02
   9.950031e+01   4.412628e+01
  -1.195225e+02   6.876628e+01
  -2.484792e+02  -6.210594e+00
  -1.382620e+01  -1.329994e+02
   1.437176e+02  -2.030974e+02
   2.054626e+02   7.549742e+01
  -2.838103e+01   2.356357e+02
  -1.848214e+02   5.823650e+01
  -2.016928e+02  -1.904507e+02
   6.838240e+01  -3.183399e+02
   2.113302e+02  -2.212798e+02
   2.475824e+02   8.336533e+01
   1.913328e+02   2.618791e+02
   6.948770e+01   2.373605e+02
  -1.211181e+02   1.306784e+02
  -1.518527e+02   5.518147e+01
  -1.304839e+02  -5.381847e+00
   1.173053e+02   9.248148e+00
  -3.984884e+00   1.279531e+02
  -1.464651e+02   2.901201e+01
  -2.148030e+02   6.283381e+00
  -4.702638e+01  -8.488780e+01
   1.256583e+02  -3.271228e+01
   2.488089e+01   4.267779e+01
  -1.625513e+02   1.505699e+02
  -2.280908e+02  -3.066656e+01
  -2.731436e+02  -1.230433e+02
  -8.516455e+01  -2.537124e+02
   1.523832e+02  -2.751878e+02
   2.442248e+02  -1.627782e+02
   1.361928e+02   6.658698e+01
  -3.537133e+01   1.643983e+02
  -7.437141e+01   3.739245e+01
   3.817872e+01  -1.032225e+02
   1.885598e+02  -1.160909e+02
   2.185320e+02   6.612887e+01
   4.073842e+01   2.163445e+02
  -9.445612e+01   1.084764e+02
  -2.071354e+02   2.801861e+01
  -6.233335e+01  -8.705064e+01
   1.679089e+01   2.938103e+01
   3.884496e+01   6.446271e+01
  -6.622045e+01   1.146764e+02
  -2.096739e+02   5.039621e+01
  -1.727186e+02  -9.106586e+01
  -3.162190e+01  -1.838139e+02
   1.330524e+02  -1.442326e+02
   1.452362e+02   1.315307e+01
   7.521475e+01   8.000064e+01
  -7.531941e+01   1.431393e+02
  -8.080131e+01   9.191827e+00
  -4.890373e+01  -7.333766e+01
   3.049629e+01  -1.602215e+00
   3.549881e+01  -1.713013e+01
  -8.988225e+01  -3.082653e+01
  -5.607288e+01  -8.800801e+01
  -6.710530e+01  -1.034466e+02
   7.576487e+01  -1.527189e+02
   2.496090e+02  -3.568643e+01
   1.704470e+02   1.297716e+02
   1.351746e+01   2.023050e+02
  -1.051319e+02   1.562816e+02
  -1.516740e+02  -3.046849e+01
  -1.470452e+01  -9.685904e+01
  -2.093602e+01  -3.060233e+00
  -2.572894e+01  -1.979851e+01
   2.134027e+01   3.718921e+00
  -6.601846e+01  -2.583371e+01
   8.255221e+01  -3.309509e+01
   4.316240e+01  -2.938562e+01
   8.891380e+01   1.983122e+01
  -2.487257e+01   1.263593e+02
  -9.427201e+01   9.498094e+01
  -1.756109e+02  -3.615638e+01
  -2.702569e+01  -2.412181e+02
   5.574200e+01  -2.662379e+02
   2.478325e+02  -8.277334e+01
   2.862522e+02   5.848675e+01
   1.031745e+02   1.762406e+02
  -5.212768e+01   1.412532e+02
  -9.950640e+01   8.586046e+01
  -5.628147e+01   8.306094e+01
  -9.702218e+01   8.158066e+01
  -8.118549e+01   9.017074e+01
  -1.337629e+02  -3.199222e+01
  -1.001684e+02  -1.088502e+02
  -1.248776e+01  -2.350619e+02
   7.416214e+01  -2.037491e+02
   1.976237e+02  -1.800656e+00
   1.567977e+02   9.508456e+01
   3.885588e+01   1.514161e+02
  -1.022644e+02   7.120775e+01
  -6.868685e+01  -5.071233e+01
  -2.827987e+01  -5.252526e+01
  -6.484750e-01   6.844931e+00
  -4.424945e+01  -3.390274e+01
  -5.422295e+01   2.381593e+01
  -9.063964e+01   1.637081e+01
   4.511117e+01  -9.519825e+00
   1.203500e+02   2.090061e+01
   8.946053e+01   2.763521e+01
   3.575937e+01   8.726060e+01
  -6.200203e+01   6.979938e+01
  -8.649221e+01   5.504001e+01
  -3.529083e+01  -8.459076e+01
   5.636268e+00  -8.096753e+00
   1.293368e+02   6.815361e+01
   1.223697e+01   8.529732e+01
  -3.644928e+01   3.485468e+01
  -1.049229e+02   2.484864e+01
  -4.438279e+01  -8.641486e+01
  -4.440185e+01  -7.632922e+01
  -3.398639e+01   4.187101e+01
  -5.203469e+01   2.785070e+01
  -3.854291e+01  -8.360867e+01
   5.242175e+01  -1.792115e+02
   1.257944e+02  -1.399910e+02
   9.850348e+01   1.977889e+01
   1.353389e+02   3.895362e+01
   5.951813e+01   1.280204e+02
  -1.059811e+02   5.710082e+01
  -9.213709e+01   7.551060e+00
   1.010399e+02  -2.612380e+01
   1.572010e+02   5.769838e+01
   7.504071e+01   1.174131e+02
  -4.141154e+01   9.506149e+01
  -1.566316e+02  -1.174170e+01
  -1.362862e+02   4.407844e+01
  -5.506750e+01  -1.225514e+02
   7.578369e+01  -1.256929e+02
   4.417593e+01   4.659753e+01
  -4.635435e+01  -2.498116e+01
  -9.522247e+01  -1.051761e+01
  -8.972625e+01  -4.268154e+01
   1.336455e+02  -1.518478e+02
   1.568248e+02  -5.171599e+01
   1.303953e+02   1.138668e+02
   5.243684e+01   1.614548e+02
  -4.799205e+01   1.586428e+02
  -1.101553e+02  -5.245138e+01
  -9.517698e+01  -9.047882e+01
   3.267218e+01  -9.520466e+01
   1.687400e+01  -3.709178e+00
   1.421687e+01  -6.235869e+00
  -3.485585e+00   4.668003e+01
   1.423767e+01   6.337057e+00
   1.917351e+01   2.647249e+01
   4.413959e+01   7.286452e+01
   4.100297e+01   1.184607e+02
  -2.347755e+01   6.581386e+01
  -1.719279e+02  -3.666900e+01
  -1.835057e+02  -6.968448e+01
  -4.366154e+01  -3.643685e+01
   8.082616e+01  -2.186035e+01
   1.264582e+02   2.626846e+01
   2.153756e+00   2.705231e+01
  -4.432452e+00   6.670976e+00
   4.483068e+00   1.562827e+01
   2.148535e+01   5.046064e+01
  -5.838869e+00   1.799877e+01
  -1.174211e+02  -5.645561e+01
  -9.989857e+01  -1.327345e+01
  -1.117642e+01  -1.270318e+02
   9.464576e+01  -1.451008e+02
   2.359389e+02  -2.010810e+01
   1.411741e+02   4.468527e+01
   1.013257e+01   1.582821e+02
  -7.649654e+01   1.023173e+02
  -9.680569e+01   2.116490e+01
  -9.099317e+01  -4.661808e+00
  -5.377949e+01  -6.652040e+01
  -5.621243e+01   1.795117e+01
   1.257368e+01   4.109497e+01
  -3.390166e+01  -1.327054e+01
  -1.014603e+01  -1.129631e+02
  -8.772064e+00  -6.186692e+01
   9.346563e+01   3.668925e+01
   7.803668e+01   1.106380e+02
   1.969083e+01   4.104539e+01
  -1.342622e+02   2.852676e+01
  -7.438667e+01  -1.455634e+02
  -8.099966e+00  -5.747355e+01
   6.249897e+01  -2.434342e+01
   1.115799e+02   2.679913e+01
   3.643506e+01   5.173722e+01
   7.002073e+00   6.969071e+01
  -9.895285e+00   6.643256e+01
   6.889722e+01   5.995989e+01
   1.248409e+02  -1.614433e+01
   3.763734e+01  -3.122483e+01
  -5.885816e+01   7.807661e+01
  -8.084221e+01   6.303911e+01
  -7.177282e+01   6.078254e+01
   4.639751e+01  -7.761634e+01
   3.410902e+01  -6.644595e+01
   3.935649e+01   5.575407e+01
  -2.776772e+01   5.158146e+01
  -4.318687e+00   1.872038e+01
  -5.795667e+01   5.185672e+01
  -2.819236e+01  -1.409665e+01
   3.243483e+00  -2.091585e+01
   3.023085e+01   6.592969e+01
  -4.931022e-01   1.049039e+01
   5.037489e+01   3.153613e+01
  -4.868068e+01   1.820987e+01
  -2.501626e+01   6.325983e+01
  -1.371892e+01   9.967262e+01
  -1.167285e+01   7.170501e+01
  -7.186246e+01  -2.221335e+01
  -5.368650e+01  -5.237768e+01
  -2.419421e+01  -5.269993e+00
   3.760029e+01  -1.587851e+01
   6.589364e+01   3.752418e+01
  -1.617255e+00   9.321675e+01
  -2.810788e+01   2.638654e+01
  -6.426952e+01  -5.834625e+01
  -7.956377e+01  -1.417030e+01
   7.527003e+01  -2.803099e+01
   1.155352e+02  -2.314774e+01
   3.377307e+01   2.436668e+01
  -4.182173e+01   3.321244e+01
  -6.462615e+01  -2.551944e+01
  -4.975626e+00   2.770692e+01
   1.173055e+02   2.685072e+01
