
 $NMID
 id='ANONYMOUS ', fmtdat='(2E16.6)'
 volume=1.0
 tramp=1.0
 $END
  -3.701500e+03   6.999802e+01
  -2.314668e+03  -2.014205e+03
   3.382732e+02  -2.338642e+03
   1.634502e+03  -1.063293e+03
   9.519806e+02   1.437980e+02
  -3.459949e+02   3.473240e+02
  -5.835369e+02  -2.201077e+02
  -4.608485e+01  -7.557363e+02
   6.155076e+02  -6.482242e+02
   7.334063e+02  -1.194655e+01
   4.655288e+02   6.200560e+02
  -9.623388e+01   7.122039e+02
  -4.160227e+02   1.913269e+02
  -3.214174e+02  -5.490365e+02
   2.547845e+02  -7.044230e+02
   5.052072e+02  -2.274059e+01
   3.787436e+02   6.071395e+02
  -2.055576e+02   5.796554e+02
  -4.690568e+02   2.327729e+02
  -3.959039e+02  -2.125567e+02
  -8.705297e+01  -4.349798e+02
   2.018116e+02  -2.530148e+02
   1.425664e+02  -7.696663e+01
  -2.009534e+02  -6.718572e+01
  -3.652909e+02  -1.737354e+02
  -4.956774e+01  -3.630975e+02
   4.846662e+02  -3.240221e+02
   6.917513e+02   9.578087e+01
   2.970968e+02   4.979711e+02
  -3.052746e+02   3.478571e+02
  -5.826962e+02  -7.040582e+01
  -2.750454e+02  -4.680670e+02
   3.139449e+02  -4.444320e+02
   5.021397e+02  -1.728808e+02
   4.009446e+02   1.761099e+02
   2.628953e+01   4.003899e+02
  -6.338235e+01   1.901285e+02
  -1.314046e+02  -1.351912e+02
   1.624075e+02  -2.510751e+02
   3.380224e+02   5.876550e+01
   1.379637e+02   5.857614e+02
  -2.425943e+02   5.077275e+02
  -4.233162e+02   6.804296e+00
  -2.476814e+02  -3.590755e+02
   1.927126e+02  -2.115111e+02
   2.777577e+02   2.765100e+02
  -7.875241e+01   4.515303e+02
  -4.118785e+02   4.183482e+01
  -5.145893e+02  -3.510293e+02
  -1.809034e+02  -5.295532e+02
   4.213811e+02  -3.034820e+02
   5.693281e+02   7.460814e+01
   3.339977e+02   3.115505e+02
  -1.503998e+02   2.962856e+02
  -3.493908e+02   1.232500e+02
  -2.296152e+02  -7.193372e+01
  -2.726323e-01  -8.331508e+01
   1.236352e+02   7.781162e+01
  -1.406244e+02   1.273392e+02
  -2.295195e+02  -9.145677e-01
  -1.391725e+02  -2.757706e+02
   1.845172e+02  -3.104255e+02
   3.336068e+02  -1.476795e+02
   2.094487e+02   9.874876e+01
  -3.012994e+01   3.303359e+02
  -2.574082e+02   3.691396e+02
  -3.203289e+02   2.150746e+02
  -2.853419e+02  -1.410468e+02
  -1.105630e+02  -4.039438e+02
   6.157999e+01  -3.390392e+02
   6.190708e+01  -1.185065e+02
   4.797976e+01  -2.241485e+01
   9.411865e+01  -1.087138e+02
   1.944541e+02  -9.128181e+01
   2.794250e+02   6.669105e+01
   1.391829e+02   2.147856e+02
  -8.526336e+01   2.199129e+02
  -1.674308e+02   1.400850e+00
  -1.975074e+02  -2.788819e+02
   9.224931e+01  -2.794918e+02
   2.691034e+02  -1.637605e+02
   3.112402e+02   1.176657e+02
   1.387725e+02   3.492543e+02
  -9.221614e+01   2.662665e+02
  -1.758746e+02   1.515905e+02
  -1.888989e+02   1.022821e+01
  -4.385367e+01  -4.771898e+01
  -2.471895e+02   4.019723e+01
  -3.922620e+02  -9.735884e+01
  -2.891402e+02  -2.846308e+02
  -8.770760e+00  -4.182318e+02
   3.368584e+02  -3.974143e+02
   4.710052e+02  -1.663865e+02
   3.127655e+02   7.847887e+01
   7.781384e+01   2.588398e+02
  -1.401799e+02   1.843727e+02
  -1.851270e+01   7.920099e+01
   1.209827e+02  -7.536012e+01
   1.565555e+02  -1.967368e+01
   4.546721e+01   1.325429e+02
  -1.726451e+02   1.348922e+02
  -1.815242e+02  -5.525756e+01
   9.373287e+00  -1.711952e+02
   1.628508e+02   2.635260e+01
   1.614854e+02   2.040476e+02
   4.786917e+01   3.493410e+02
  -2.468310e+02   1.832655e+02
  -3.765671e+02  -1.064642e+02
  -2.533271e+02  -2.412448e+02
  -1.203360e+02  -2.296490e+02
   1.110290e+02  -1.198585e+02
   1.483031e+02   4.506731e+00
   6.507961e+01   3.372227e+01
  -1.196876e+01  -4.321444e+01
  -3.367220e+01  -8.359870e+01
   1.224263e+02  -1.017521e+02
   1.859033e+02  -2.604222e+01
  -3.533476e+00   6.405629e+01
  -7.359316e+01   2.151121e+01
  -6.696100e+01  -1.000625e+02
   1.680647e+02  -1.099671e+02
   2.112234e+02  -1.887429e+00
   2.162307e+02   1.035201e+02
   6.659772e+01   2.850650e+02
  -1.196016e+02   3.002112e+02
  -2.981383e+02   7.624728e+01
  -1.373716e+02  -2.098968e+00
   4.366205e+01  -1.215712e+02
   6.011545e+01   2.568345e+00
  -2.946607e+01   9.071202e+01
  -2.129492e+02   3.718231e+01
  -1.688896e+02  -1.121506e+02
  -5.987359e+01  -1.706019e+02
   1.531472e+02  -1.702767e+02
   8.505226e+01  -4.402560e+01
   7.351811e+01   1.366869e+01
  -6.800104e+01  -4.011437e+01
  -5.399804e+01  -7.248204e+01
   8.991995e+01  -1.283960e+02
   2.023652e+02  -1.456241e+01
   2.138896e+02   1.327884e+02
   2.291514e+01   2.070245e+02
  -1.266288e+02   6.953350e+01
  -1.711308e+02   1.067311e+01
  -3.037279e+01  -1.667406e+02
   5.511036e+01  -1.030557e+02
   3.156340e+01  -4.988276e+01
   2.063321e+01   3.238133e+01
  -5.350200e+01   1.892844e+01
  -1.885107e+00   1.031588e+01
   1.558394e+02   1.956686e+01
   8.407931e+01   1.067896e+02
   1.021858e+01   1.099915e+02
  -1.337307e+02   1.309632e+02
  -2.545989e+02   2.976238e+01
  -1.873746e+02  -9.379702e+01
  -7.971534e+01  -1.947689e+02
   1.479256e+02  -1.854283e+02
   1.447474e+02  -4.897027e+00
   7.039033e+01   9.794838e+01
   7.384975e+01   3.532020e+01
   3.938487e+01  -3.561871e+01
   7.503416e+01  -2.719685e+01
   1.068617e+02   1.186452e+02
  -1.721715e+01   1.094723e+02
  -1.554564e+02  -2.675950e+00
  -1.148647e+02  -4.261373e+01
   4.362473e+01  -1.049504e+02
   1.325462e+02  -4.545486e+01
   1.692265e+02   4.313029e+01
   1.121969e+02   1.588482e+02
  -1.539795e+02   2.483772e+02
  -2.256642e+02   1.113599e+02
  -2.157775e+02  -9.323055e+01
  -8.310815e+01  -1.843257e+02
   5.431065e+01  -1.822735e+02
   2.350017e+01  -1.805003e+02
   6.551243e+01  -3.002698e+01
   4.698430e+01  -1.675429e+02
   1.014219e+02  -8.786874e+01
   1.684108e+02   4.989969e+01
   6.729871e+01   1.497715e+02
   4.835228e-01   2.527157e+02
  -1.312176e+02   2.032323e+02
  -1.499803e+02  -3.980497e+01
  -1.563065e+02  -8.036252e+01
  -3.201513e+01  -2.317594e+02
   3.176834e+01  -7.668642e+01
   2.643656e+01  -8.292488e+00
   5.805435e+01   3.770731e+01
   2.429425e+00  -2.291979e+01
   4.165580e+01   6.835764e+00
   7.107467e+01  -5.461904e+00
   3.654901e+01   7.459632e+01
  -8.694127e+01   7.070580e+01
  -1.322969e+02  -2.188051e+00
  -1.568589e+02  -5.786429e+01
   1.749892e+01  -5.105031e+01
   1.126399e+02  -3.961766e+01
   1.888414e+02  -3.775839e+01
   4.622728e+01   4.241754e+01
  -3.507436e+01   3.944827e+00
  -6.858312e+01  -1.863953e+01
  -6.685337e+00  -9.607545e+01
   9.448979e+01  -7.065263e+01
   6.034656e+01  -3.494736e+01
   5.920799e+01   3.312606e+01
   4.416649e+00  -2.221718e+00
   7.008597e+01   1.215728e+01
   8.481438e+00  -3.158767e+01
  -1.398052e+01   5.196225e+01
  -5.341529e+01   1.068987e+02
  -9.171792e+01   1.567249e+02
  -2.070111e+02   4.297727e+01
  -6.729499e+01  -1.053660e+02
   2.736724e+01  -1.071456e+02
   7.638308e+01  -2.842924e+01
   7.013677e+01   1.086276e+01
  -1.066740e+01  -3.069989e+00
  -1.725968e+02  -9.411865e+00
  -8.592280e+01  -9.779729e+01
   5.764933e+01  -8.691498e+01
   2.411874e+02  -5.360370e+01
   9.840651e+01   4.586046e+01
   2.515204e+01   5.470561e+01
  -4.086115e+01   5.999886e+01
  -2.822455e+01   1.846675e+01
   4.866368e+01   4.367166e+00
   9.042191e+01   5.519546e+01
   5.586165e+01   1.642153e+02
  -7.695971e+01   1.612480e+02
  -1.968135e+02   8.448782e+01
  -1.037034e+02  -5.529131e+01
  -5.549717e+01  -1.581853e+02
   6.910509e+01  -1.099733e+02
   7.274686e+01   5.521245e+01
   2.514320e+01   1.491079e+02
   6.969008e-01   6.938458e+01
  -3.231528e+01  -6.326025e+00
  -1.019248e+02   9.458700e+00
   1.917330e+01   3.686798e+01
  -1.495426e+00   5.324712e+01
  -2.912501e+01  -2.322281e+01
  -8.172575e+01  -8.360998e+01
  -1.134061e+01  -1.256496e+02
   8.911342e+01   1.726903e+00
   1.437080e+02   2.045631e+00
   4.875476e+01   6.498082e+01
  -4.752303e+00   5.297132e+01
  -1.013826e+02  -4.779145e+00
  -2.226613e+01   5.781596e+01
  -4.923315e+00  -4.261383e+01
   3.463014e+01  -1.308473e+01
   8.785047e+00  -1.226043e+01
  -1.848901e+01   1.602793e+01
   1.444723e+01  -3.794176e+00
   8.388929e+01  -1.031027e+01
   1.056638e+02   4.073616e+01
   4.337046e+01   7.797102e+01
  -1.281139e+02   1.625693e+02
  -1.949485e+02   1.006407e+02
  -1.777284e+02  -9.148721e+01
  -7.271306e+01  -1.183950e+02
   1.194159e+02  -1.680931e+02
   1.374246e+02  -4.225440e+01
   1.299571e+02   8.976615e+00
   3.643386e+01   5.815501e+01
  -2.793775e+00   1.048297e+01
   1.006634e+01   6.181654e+01
   1.327802e+01   2.486099e+01
   5.469494e+01   7.251403e+01
  -2.096445e+01   1.281181e+00
  -2.340588e+00   6.382813e+00
  -6.144296e+01  -5.634213e+01
   3.896503e+01  -8.363646e+01
   6.767088e+01   3.728669e+01
   8.726065e+01   4.801456e+01
   3.465526e+00   1.097019e+02
  -9.705138e+00   9.200029e+01
  -6.741892e+01  -2.474026e+01
  -4.304972e+01  -6.916543e+01
  -3.101562e+01  -1.483466e+01
  -5.698069e+00  -3.403113e+01
  -2.383560e+01   2.319012e+01
  -8.912053e+01   1.402221e+01
   2.669129e+01   2.750740e+01
   8.618555e+01  -8.561501e+01
   1.154697e+02  -5.379292e+01
   5.479812e+01   3.466813e+01
  -1.380460e+01   1.224391e+02
  -7.262285e+01   5.182412e+01
   7.013569e-01   2.704860e+01
  -5.054916e+00  -6.497639e+01
   9.880850e+01  -7.156816e+01
  -3.919868e+01   2.420534e+00
   6.385683e+00   2.216782e+00
   1.822064e+00   6.892340e+00
  -1.762181e+01  -4.603899e+01
  -6.791680e+01  -1.624031e+01
  -1.453161e+01   7.112511e+01
   1.753338e+01  -4.550057e+01
   1.201941e+01  -3.535054e+01
  -4.608345e+01   2.957406e+01
   2.698719e+00  -4.495828e+01
   4.919007e+01  -3.461399e+01
   1.506126e+01   1.009103e+02
   1.411551e+01   7.325815e+01
   3.812511e+01   5.173270e+01
  -1.938127e+01  -2.118660e+01
  -2.348449e+01  -3.764961e+01
   2.731729e+01  -2.320625e+01
   1.033532e+02   2.109878e+01
   4.774223e+01   5.453930e+01
  -1.039097e+01   4.990303e+00
  -7.664134e+01   1.143005e+01
  -1.160898e+01  -1.018430e+02
   1.655104e+01  -1.457537e-01
   7.128300e+01   7.489375e+01
  -4.175129e+01   3.190965e+01
  -9.315786e+01   6.406040e+01
