
 $NMID
 id='ANONYMOUS ', fmtdat='(2E16.6)'
 volume=1.0
 tramp=1.0
 $END
   1.858331e+03   5.073595e+00
   1.202870e+03   1.036751e+03
  -1.442060e+02   1.180747e+03
  -8.656751e+02   5.480937e+02
  -4.012569e+02  -6.519108e+01
   1.556804e+02  -1.641025e+02
   3.229862e+02   1.403458e+02
  -2.034401e+00   4.135487e+02
  -3.082121e+02   3.159425e+02
  -3.763817e+02  -6.412411e+00
  -2.655074e+02  -2.941323e+02
   3.508200e+01  -3.912748e+02
   1.897062e+02  -1.071465e+02
   5.595948e+01   2.970831e+02
  -9.878265e+01   3.633713e+02
  -1.910187e+02   1.362376e+01
  -1.298567e+02  -3.132430e+02
   1.148865e+02  -3.304364e+02
   2.837028e+02  -7.271513e+01
   2.332323e+02   1.241501e+02
   1.749199e+01   1.949209e+02
  -9.930934e+01   1.656701e+02
  -6.538445e+01   1.101232e+01
   1.266040e+02  -2.068621e+00
   2.091028e+02   1.193350e+02
   1.317951e+01   1.941734e+02
  -2.621400e+02   1.797334e+02
  -3.419196e+02  -2.521927e+01
  -1.422423e+02  -2.214527e+02
   1.963586e+02  -1.547778e+02
   3.376841e+02   6.108995e+01
   1.208502e+02   1.811219e+02
  -1.491128e+02   1.834346e+02
  -2.488927e+02   9.435671e+01
  -1.628850e+02  -6.988326e+01
   2.939450e+01  -1.719051e+02
  -1.728891e+00  -9.304840e+01
   4.014543e+00   4.752756e+01
  -8.250584e+01   1.307818e+02
  -1.599332e+02  -5.396306e+01
  -1.085363e+02  -3.512835e+02
   1.128114e+02  -2.568564e+02
   2.347773e+02   1.912181e+00
   9.117041e+01   2.153202e+02
  -1.003136e+02   1.236101e+02
  -1.336099e+02  -1.251132e+02
   3.359709e+01  -2.644248e+02
   2.704012e+02  -1.960339e+01
   3.197088e+02   1.982716e+02
   1.304831e+02   2.986319e+02
  -1.249953e+02   2.029972e+02
  -2.746073e+02  -1.566376e+01
  -2.076310e+02  -1.151642e+02
   2.439655e+01  -9.258825e+01
   1.993028e+02   1.758695e+01
   8.376361e+01   5.515537e+01
  -2.396423e+01  -8.557859e+00
  -3.005470e+01  -9.312003e+01
   7.477007e+01  -1.220530e+02
   9.778862e+01   2.987725e+01
   2.986845e+01   7.399361e+01
  -4.223108e+01   1.128733e+02
  -2.411708e+02   5.759238e+01
  -1.164735e+02  -3.758194e+01
   3.569162e+01  -9.232344e+01
   1.228410e+02  -1.985859e+02
   1.487647e+02  -1.014864e+02
   1.641605e+02   1.047292e+02
  -1.713288e+01   2.333920e+02
  -1.758037e+01   1.918322e+02
  -3.390480e+01   1.909585e+00
  -3.162956e+01  -5.738543e+01
  -7.325626e+01   2.658725e+01
  -1.154295e+02   1.086216e+01
  -1.369454e+02  -4.225222e+01
  -8.726678e+01  -1.224009e+02
   1.035262e+02  -9.116456e+01
   9.796920e+01   3.456490e+01
   6.834508e+01   7.110875e+01
   3.015489e+01   1.084635e+02
  -1.366927e+02   1.097992e+01
  -1.605727e+02  -9.948468e+01
  -9.044211e+01  -1.794162e+02
   1.416143e+01  -1.543517e+02
   1.248054e+02  -9.380698e+01
   6.111930e+01  -8.186660e+01
   8.944422e+01  -5.826803e+01
   1.067027e+02  -2.294953e+01
   2.225990e+02   5.621968e+01
   1.321609e+02   1.113884e+02
  -1.077336e+00   2.288111e+02
  -2.045019e+02   1.620774e+02
  -2.955915e+02   9.233338e+01
  -1.994450e+02  -5.272783e+01
  -5.120967e+01  -1.650957e+02
   5.860043e+01  -1.013934e+02
   1.003876e+01  -5.928754e+01
  -8.285835e+01   6.305590e+01
  -1.349361e+02   2.970252e+01
  -2.604997e+01  -7.163850e+01
   8.304422e+01  -6.241848e+01
   5.900996e+01   4.315758e+01
   2.503686e+01   1.069341e+02
  -5.064108e+01  -2.401101e+01
  -5.452046e+01  -1.006652e+02
   6.219385e+01  -1.125770e+02
   8.499501e+01  -8.775359e+01
   1.658763e+02   3.986042e+01
   1.937226e+02   6.943869e+01
   3.426776e+01   1.290805e+02
  -8.866405e+01   7.254821e+01
  -9.610840e+01   2.941899e+01
  -2.537490e+01  -4.329645e+01
   3.022093e+01   1.501073e+01
  -6.017393e+01   3.157746e+01
  -5.783564e+01   5.540466e+00
  -5.633824e+01  -1.433204e+01
  -6.643648e+01   3.144018e+01
   2.932112e+01  -9.152349e+00
  -1.397862e+01   6.582953e+01
  -3.153133e+01   3.692227e+01
  -1.317899e+02  -1.892728e+01
  -1.480498e+02  -7.423713e+01
   6.172019e-02  -1.923760e+02
   1.416022e+02  -9.674734e+01
   1.568563e+02  -1.313972e+02
   1.144372e+02   2.481523e+00
  -8.734778e+01   1.006285e+02
   3.689463e+01  -3.969913e+00
  -2.416305e+01  -5.637252e+01
   1.070198e+02  -3.932682e-02
   1.057460e+02   9.986183e+01
   2.827660e+01   1.398850e+02
  -3.199627e+00   1.143698e+02
  -1.461051e+01   2.871720e+01
  -2.910524e+01  -9.076940e+01
  -4.716549e+01   2.901518e+01
   2.983434e+01   5.554989e+01
  -3.209262e+01   2.589445e+01
  -7.097696e+01   2.673279e+01
  -9.662418e+01  -3.595575e+01
  -2.369380e+01  -6.105274e+01
   9.211157e+01  -2.376189e+01
   1.370487e+02  -9.575358e-01
   4.916038e+01   1.596527e+01
  -5.957165e+01   1.014964e+02
  -4.357863e+01   2.478143e+01
   7.865262e+00  -2.909689e+01
  -8.061890e+00  -5.125817e+01
  -3.700396e+01  -2.343089e+01
  -8.345759e+01  -3.954226e+00
  -5.639362e+01  -7.822787e+01
   3.161621e+01  -1.115314e+02
   1.041902e+02  -5.837383e+01
   1.316492e+02   4.730486e+01
   1.344667e+02   5.012785e+01
   6.304747e+01   1.497163e+02
  -1.187804e+02   1.086381e+02
  -8.030516e+01   3.649991e+00
  -3.621594e+01  -2.800283e+01
  -4.215497e+01   3.634174e+01
  -3.732856e+01   3.811262e+01
  -1.237796e+01   3.230699e+01
   2.892629e+01  -3.730709e+00
   4.874205e+01  -4.647905e+01
   4.874526e+01   4.182356e+00
  -4.563912e+01   8.220923e+01
  -4.200493e+01   3.088068e+01
  -1.329528e+02   6.438828e+01
  -1.086202e+02  -8.898461e+01
  -7.923222e+01  -8.865268e+01
   1.110489e+01  -1.246512e+02
   1.474505e+02  -3.798471e+01
   7.321767e+01   5.211209e+01
   2.473371e+01   1.023274e+02
  -4.922064e+01   3.844807e+01
  -9.340902e+01   1.212561e+01
  -9.927084e+00   2.861099e+01
  -3.909059e+01   8.882284e+01
  -2.356105e+01   3.292659e+01
  -4.180170e+01  -1.595072e+01
  -7.959500e+01  -9.988037e+01
  -3.162401e+01  -9.984854e+01
   2.002256e+01  -8.342780e+01
   3.114864e+01   5.934324e+00
   4.120512e+01   8.011124e+01
   1.864368e+01   1.049773e+02
   1.839880e-01  -3.752311e-01
  -1.681362e+01   2.927116e+01
  -4.075646e+01  -1.579380e+01
   1.864929e+01  -7.882217e+01
  -2.033266e+01  -7.905577e-01
  -9.323774e+01   7.951615e+00
  -2.975047e+01   6.015594e+00
   8.606685e+00  -2.879284e+01
   7.092156e+01  -5.005213e+01
   6.299268e+01   1.956418e+01
   4.730296e+01   7.082788e+01
  -8.289541e+01   1.205478e+00
  -6.494451e+01  -5.750058e+00
  -5.006442e+00  -7.101025e+00
   6.258528e+01  -8.695798e+00
   5.354903e+01  -2.214708e+00
   8.537196e-01   1.719562e+01
  -6.717649e+01   7.630526e+00
   3.775115e+00  -3.133244e+01
  -6.268061e+01  -1.566296e+01
  -9.395365e+00  -5.992931e+00
  -1.427398e+01  -3.227749e+01
  -3.433537e+01  -6.994884e+01
  -1.075493e+01  -6.662442e+00
   3.147589e+01  -4.421480e+01
   2.745544e+01  -9.558799e+01
   1.331601e+02  -2.658350e+01
   6.939347e+01   7.516766e+01
   4.705755e+01   9.070867e+01
  -3.665071e+01  -1.087248e+01
  -4.071890e+01   3.291283e+01
   4.559226e+01  -3.135017e+00
   6.872019e+01  -9.764579e+00
   5.993111e+01   1.006263e+02
  -2.739500e+01  -1.044065e+01
  -5.831542e+01  -8.608293e+00
  -7.270357e+01  -5.903954e+01
   3.323567e+00  -5.659597e+01
   6.259005e+01  -1.416117e+01
   3.717381e+01  -2.943792e+00
  -2.908570e+01  -3.104928e+01
  -6.952374e+01  -2.930535e+00
  -2.712162e+01  -8.751165e+01
   4.788427e+01  -1.035574e+02
   7.852588e+01  -3.258157e+01
   3.017094e+01   2.235421e+01
   3.559897e+01   1.083150e+02
  -5.345837e+01   4.949111e+01
  -2.505458e+01   2.411149e+01
  -7.735284e+00  -4.811726e+01
  -2.806863e+01  -4.362672e+01
  -2.377135e+00   1.063299e+00
  -1.543597e+01   9.458900e+00
  -8.283416e+00  -3.080496e+01
   4.881188e+01   4.782259e+01
   6.077255e+01   1.579557e+01
  -2.391294e+01   2.333117e+01
  -1.250519e+01   9.653014e+01
  -5.860292e+01  -2.322436e+00
  -8.729981e+01  -5.695427e+01
  -6.932150e+01  -1.992562e+01
  -3.064858e+01  -2.161891e+00
   6.780357e+01  -3.016211e+01
  -3.196652e+01  -1.236550e+01
   5.636442e+01   8.472270e+00
   2.341057e+01  -4.197410e+01
  -3.413506e-01  -1.961995e+01
  -1.924947e-01  -5.737991e+01
  -1.576467e+01   4.956714e+01
  -7.837648e+00  -9.512244e+00
  -5.570715e+01   7.277275e+00
  -4.183947e+01  -2.039084e+01
   7.504358e+01  -5.376591e+01
   8.603681e+01  -8.703882e+01
   1.009394e+02   7.787622e+00
  -6.317462e+00   1.058990e+02
  -1.829404e+00   8.045977e+01
  -4.772130e+01   1.784255e+01
  -8.856073e+00  -5.194434e+00
   1.625718e+01  -5.598683e+01
  -2.558096e+01   3.527526e+01
   1.704917e+01  -5.905320e+01
  -1.080288e+01  -7.653307e+00
  -2.537076e+01  -3.869036e+01
   3.387641e+01  -5.422930e+01
   3.095065e+01  -6.234437e-04
   2.434738e+01   1.173355e+00
  -2.534209e+01   7.994149e+01
  -3.408768e+01  -2.882208e+01
  -2.095788e+01  -7.486518e+01
  -2.584259e+01   5.693419e-01
   4.479536e+01   1.296043e+00
   8.451445e+01  -4.929433e+01
  -4.312954e+01   3.107003e+01
  -3.989008e+01   7.601358e+01
  -9.076328e+00  -1.756932e+01
   2.697204e+01  -7.043908e+01
   1.409335e+01  -7.278656e+01
   1.981578e+01  -3.827863e+00
  -8.976564e+01   1.479539e+00
  -3.928717e+01   6.944248e+01
  -6.175681e+01  -2.847332e+01
   1.244922e+01  -7.169386e+01
   3.218302e+01  -3.961233e+01
   2.521303e+01   4.117056e+01
  -2.913059e+00  -7.662296e-01
   4.441321e+00  -7.506338e+00
   8.845664e+00  -3.335139e+01
   4.063735e+00  -2.143735e+01
   2.248548e+01   3.185155e+00
  -3.935488e+01   3.579705e+01
  -1.934599e+01  -1.668524e+01
  -3.137735e+00  -7.265890e+00
   9.637752e-01  -1.599140e+01
   2.595021e+01   4.412907e+00
  -2.828232e+01  -4.339877e+01
   1.453787e+00   8.260006e+01
  -1.890073e+01   3.682860e+01
  -3.094981e+01   2.400996e+01
   1.831762e+01  -1.753833e+01
   6.980628e+01  -4.575911e+01
   1.070143e+02   2.182563e+00
   6.769986e-01   2.943167e+01
  -2.877786e+01   3.749432e+01
  -1.897652e+01  -2.946301e+01
  -1.630152e+00   7.545107e+01
  -1.537700e+01  -4.510935e+01
   1.835691e+01  -3.161763e+01
  -3.453700e+01  -9.584271e+00
   3.329803e+01   9.001635e+00
  -2.719549e+01  -5.298663e+01
  -1.682952e+01  -5.872311e+01
   2.139008e+01   3.477112e+00
