
 $NMID
 id='ANONYMOUS ', fmtdat='(2E16.6)'
 volume=1.0
 tramp=1.0
 $END
   4.006607e+03   2.472758e+01
   2.491908e+03   2.284348e+03
  -4.810701e+02   2.527266e+03
  -1.807166e+03   1.029523e+03
  -9.885958e+02  -2.913435e+02
   4.051078e+02  -4.664326e+02
   7.306482e+02   3.484248e+02
   7.130807e+00   9.034290e+02
  -7.688236e+02   7.467582e+02
  -8.848415e+02  -7.459400e+01
  -4.434070e+02  -7.916591e+02
   1.406199e+02  -8.303453e+02
   5.274503e+02  -1.258725e+02
   3.420583e+02   6.739417e+02
  -2.231160e+02   6.662917e+02
  -5.582884e+02   2.862189e+01
  -3.083434e+02  -6.962686e+02
   2.488309e+02  -6.565129e+02
   5.693336e+02  -1.363231e+02
   4.074857e+02   3.127260e+02
   4.603722e+01   4.151222e+02
  -2.295611e+02   2.992682e+02
  -1.625998e+02   6.685009e+01
   1.322512e+02  -7.864356e+01
   3.840478e+02   1.374176e+02
   1.187972e+02   3.860351e+02
  -4.846789e+02   2.777015e+02
  -7.619213e+02  -1.152253e+02
  -4.214760e+02  -4.561961e+02
   3.815376e+02  -4.260629e+02
   7.347137e+02   7.448079e+01
   2.798260e+02   4.712998e+02
  -2.882839e+02   5.100750e+02
  -5.127359e+02   1.754349e+02
  -4.064920e+02  -2.346583e+02
  -8.384554e+01  -4.755044e+02
   1.565117e+02  -2.343829e+02
   7.340981e+01   1.970585e+02
  -1.801398e+02   3.378584e+02
  -3.884729e+02  -6.053098e+01
  -1.766748e+02  -6.054451e+02
   3.234478e+02  -6.780148e+02
   4.928727e+02   2.111689e+01
   2.068365e+02   4.559790e+02
  -2.632396e+02   2.869562e+02
  -3.403264e+02  -3.339356e+02
   1.535509e+02  -5.190162e+02
   4.184495e+02  -8.698545e+01
   5.642036e+02   3.725118e+02
   2.038378e+02   5.470737e+02
  -3.472511e+02   3.539986e+02
  -5.975777e+02  -1.334746e+02
  -3.909787e+02  -3.401182e+02
   1.597196e+02  -3.379760e+02
   3.738104e+02  -3.322038e+01
   2.535674e+02   1.149537e+02
  -8.565883e+01   1.360743e+02
  -1.169831e+02  -8.813487e+01
   8.677206e+01  -1.964730e+02
   3.135951e+02   1.257565e+02
   8.799668e+01   2.665638e+02
  -1.811229e+02   2.775993e+02
  -2.745266e+02   5.544233e+01
  -2.641080e+02  -9.252825e+01
   5.646616e-01  -3.150342e+02
   2.260289e+02  -2.876308e+02
   4.167356e+02  -1.521307e+02
   2.527867e+02   1.455143e+02
   1.583024e+01   4.105771e+02
  -8.530108e+01   3.546539e+02
  -8.621654e+01   1.185204e+02
  -4.773531e+00  -2.154261e+01
  -6.254879e+01   6.341139e+01
  -1.385203e+02   1.226278e+02
  -2.438603e+02  -7.297034e+01
  -2.078146e+02  -2.891719e+02
   7.476089e+01  -2.343180e+02
   2.193112e+02   2.384590e+01
   1.544140e+02   2.295992e+02
  -1.951598e+01   3.048021e+02
  -2.555139e+02   1.001646e+02
  -3.261673e+02  -2.215698e+02
  -1.856489e+02  -3.421344e+02
   3.632419e+01  -3.051020e+02
   2.710474e+02  -9.411714e+01
   1.432630e+02   6.629996e-02
   2.054284e+02  -5.875786e+01
   2.357962e+02  -4.602327e+01
   4.003857e+02   1.007416e+02
   3.519583e+02   2.702483e+02
  -1.953136e+01   4.237386e+02
  -4.278294e+02   3.816702e+02
  -4.761166e+02   1.728114e+02
  -3.513250e+02  -3.839501e+01
  -5.300709e+01  -3.579556e+02
   1.379749e+02  -2.623943e+02
   4.751477e+01  -7.432979e+01
  -1.025937e+02   7.861974e+01
  -1.431864e+02  -6.041838e+01
  -8.887230e+01  -1.514936e+02
   1.332548e+02  -1.766556e+02
   1.615921e+02   1.005797e+02
  -3.021923e+01   1.337047e+02
  -2.713009e+02   5.215428e+00
  -1.610631e+02  -2.346361e+02
   5.855088e+01  -3.742362e+02
   2.037266e+02  -1.943122e+02
   3.030324e+02   4.201389e+01
   2.713437e+02   2.395853e+02
   1.493590e+02   2.520134e+02
  -1.231452e+02   1.629732e+02
  -1.642118e+02   5.240074e+01
  -6.645037e+01   9.464397e+00
   8.134799e+01   9.491589e+00
  -4.665304e+01   1.402127e+02
  -1.921307e+02   9.281877e+01
  -1.963845e+02  -1.902825e+01
  -9.094517e+01  -1.136621e+02
   1.179187e+02   2.133462e+01
   7.714804e+01   7.344977e+01
  -1.184731e+02   2.286841e+01
  -3.084642e+02   5.015728e+01
  -3.164223e+02  -1.272794e+02
  -7.724184e+01  -2.446782e+02
   1.894674e+02  -2.579964e+02
   2.474279e+02  -1.380979e+02
   1.436154e+02   3.714792e+01
  -1.068281e+01   1.366782e+02
  -1.336677e+02   4.216264e-02
   3.685137e+01  -7.069834e+01
   1.880782e+02  -6.906052e+01
   2.450642e+02   1.503874e+02
   1.496429e+01   2.538323e+02
  -1.240753e+02   1.539045e+02
  -1.302177e+02   9.172507e+00
  -5.911428e+01  -3.140569e+01
   5.264272e+01   7.880641e+00
   1.740097e+00   9.265469e+01
  -1.142389e+02   8.825072e+01
  -1.955027e+02   1.484535e+01
  -1.612179e+02  -1.140274e+02
  -4.663811e+01  -2.115192e+02
   1.302028e+02  -1.874846e+02
   1.464020e+02   3.857540e+00
   4.980208e+01   1.274798e+02
  -6.231378e+01   1.457832e+02
  -7.653971e+01   4.006378e+01
  -1.028326e+02  -7.821385e+01
  -1.370896e+01   3.546255e+01
  -4.554838e+01   7.714309e+01
  -8.028386e+01   3.751252e+00
  -8.459487e+01  -9.125292e+01
  -2.683340e+01  -1.972347e+02
   1.444594e+02  -1.500445e+02
   2.054895e+02  -6.103831e+01
   1.931826e+02   1.282668e+02
   3.195965e+01   2.237943e+02
  -8.229826e+01   1.592728e+02
  -1.523121e+02   3.406373e+01
  -9.294939e+01  -3.619850e+01
  -1.345835e+01  -6.921390e+01
  -7.074919e+01  -2.929804e+00
  -4.622466e+01   5.772711e+01
  -3.399335e+01  -5.107288e+01
  -2.718716e+01  -1.197642e+02
   8.863613e+01  -5.302416e+01
   7.458157e+01   5.250398e+01
  -2.783850e+01   9.020617e+01
  -1.922406e+02   1.085505e+02
  -2.227445e+02  -1.081731e+02
  -1.236947e+02  -2.176889e+02
   1.556350e+02  -2.252233e+02
   2.941455e+02  -6.287602e+01
   2.207695e+02   5.486800e+01
   1.380937e+02   1.289486e+02
  -5.712368e+01   1.204699e+02
  -9.458918e+01   9.310166e+01
  -7.605144e+01   6.978701e+01
  -7.525471e+01   9.318217e+01
  -1.090758e+02   9.576732e+01
  -9.080562e+01   5.017509e+00
  -9.548691e+01  -1.417136e+02
  -3.989361e+00  -2.144410e+02
   1.089275e+02  -2.350935e+02
   1.789773e+02  -6.306418e+00
   1.591001e+02   8.098061e+01
   3.465835e+01   1.820505e+02
  -5.567919e+01   7.122925e+01
  -1.060883e+02   2.278421e+00
  -4.273057e+01  -2.451166e+01
   7.499941e+01  -5.632252e+01
  -5.129341e+01  -3.547086e+01
  -7.521426e+01  -2.738857e+01
  -9.596471e+00  -3.199415e+01
   5.527178e+01  -1.439309e+01
   1.107514e+02  -2.183009e+01
   1.373446e+02   5.567023e+01
   3.047781e+01   3.508785e+01
  -5.850891e+01   1.001968e+02
  -1.279657e+02   5.405871e+01
   2.327547e+01  -4.550177e+01
   6.177686e+01  -1.397929e+01
   1.115109e+02   4.133153e+01
  -1.273588e+01   7.002936e+01
  -2.631821e+01   8.693561e+01
  -7.694022e+00  -4.686303e+00
   3.833897e-01  -1.183950e+02
  -2.022847e+01  -1.616058e+01
  -1.972220e+01   1.787109e+01
  -3.255452e+01   3.619718e+00
  -4.297575e+01  -6.073106e+01
   5.434983e+01  -1.422668e+02
   9.481343e+01  -1.732294e+02
   1.741800e+02  -2.848317e+01
   1.119639e+02   1.085825e+02
   3.643016e+01   1.464497e+02
  -1.152811e+02   8.121121e+01
  -6.950229e+01  -2.833782e+00
   6.542667e+01  -5.863821e+01
   1.292913e+02   5.912518e+01
   1.150800e+02   1.484859e+02
  -5.991764e+01   9.609127e+01
  -1.785699e+02   7.173081e+01
  -1.260719e+02  -3.750166e+01
   5.855555e+00  -9.372892e+01
   1.951003e+01  -7.123891e+01
   4.637586e+01  -1.628993e+01
  -3.138950e+01   5.346643e+01
  -1.282852e+02  -3.572724e+01
  -1.228887e+01  -1.217931e+02
   9.151810e+01  -1.203754e+02
   1.759608e+02  -3.887190e+01
   8.543806e+01   1.307415e+02
   7.213383e+01   1.614765e+02
  -1.246938e+02   1.754727e+02
  -1.028490e+02  -2.989080e+01
  -1.007584e+02  -2.782919e+01
  -1.651527e+01  -8.707963e+01
   2.172989e+01  -1.061759e+02
   1.368979e+02   5.538091e+01
  -1.085765e+01   5.527059e+01
   5.490483e+01  -5.748267e+01
   3.679648e+01   2.349210e+01
   4.998301e+01   9.514772e+01
  -2.973947e+01   8.866740e+01
  -4.350832e+00   5.106713e+01
  -1.860830e+02  -9.303673e+01
  -1.482990e+02  -7.390845e+01
  -3.163628e+01  -8.613517e+01
   1.105697e+02  -1.383646e+01
   1.182184e+02  -1.133661e+01
  -1.106709e+01   1.969930e+01
  -6.690511e+00   2.315282e+01
   2.051084e+01  -1.189922e+01
   4.943176e+00   9.669312e+00
  -6.612383e+00   4.109488e+01
  -7.938870e+01  -3.941562e+01
  -1.200236e+02  -5.240536e+01
  -9.654274e-01  -4.813030e+01
   7.455883e+01  -1.513974e+02
   2.348193e+02  -9.959958e+01
   1.402081e+02   7.025072e+01
  -7.870507e+00   1.800448e+02
  -9.088212e+01   1.622746e+02
  -9.269312e+01   1.024570e+02
  -1.122984e+02  -2.903428e+01
  -1.695384e+00  -2.088461e+01
   4.285337e+01   1.278480e+01
  -4.714696e+01  -2.206375e+01
  -1.878367e+01  -1.164714e+01
  -8.624736e+00  -9.368238e+01
   1.636864e+01  -7.847839e+01
   1.332659e+02   5.103771e+01
   8.089924e+00   8.055877e+01
   5.859902e+01   1.778171e+02
  -7.204032e+01   2.537275e+01
  -7.054252e+01  -4.399793e+01
  -6.426295e+01  -1.441210e+02
   1.204003e+02  -6.282572e+01
   9.229293e+01  -2.748531e+01
   1.286165e+01   2.778912e+01
  -6.538127e+01   2.014976e+00
  -5.760775e+01   2.782885e+01
   1.430853e+01  -4.937109e+00
   1.934556e+01   2.014634e+00
   6.934830e+01   3.745228e+01
  -1.084257e+02   2.684425e+01
  -7.261407e+01   3.847307e+01
  -5.952951e+01   1.097126e+01
  -2.229681e+01  -1.240822e+02
   2.985135e+01  -9.519550e+01
   2.860999e+01  -5.492521e+01
   4.025625e+01   7.809827e+01
  -1.123180e+01   9.650334e+01
  -4.052442e+01   1.136164e+01
  -6.525170e+01  -5.133501e+01
   2.357258e+01  -5.919495e+01
   5.852877e+01   5.835306e+00
   7.821013e+00   4.713318e+01
  -1.867765e+01  -9.004096e+00
   2.003025e+01   1.077149e+01
   3.225016e+01  -6.283544e-01
   3.659634e+01   2.632309e+01
   1.845041e+01   2.271852e+00
  -7.359401e+00  -4.356306e+01
  -6.568082e+01  -5.527944e+01
   4.485730e+01  -5.720710e+01
   9.020227e+01  -1.615903e+01
   2.262987e+01   9.151643e+01
  -2.918978e+00   4.218578e+01
  -8.652347e+01   3.143752e+01
  -5.981993e+01  -3.927849e+01
  -6.882976e+01  -5.402521e+01
   2.368420e+01  -3.714533e+01
   6.115298e+01  -6.225958e+01
   2.302662e+01   4.876390e+01
  -6.794082e+01   4.399171e+01
  -9.978559e+01  -3.156171e+00
   7.261557e+01  -1.282253e+01
   3.490566e+01  -2.547143e+01
