
 $NMID
 id='ANONYMOUS ', fmtdat='(2E16.6)'
 volume=1.0
 tramp=1.0
 $END
  -4.053666e+03  -2.114409e+01
  -2.486569e+03  -2.438414e+03
   4.834580e+02  -2.583544e+03
   1.901310e+03  -1.037425e+03
   9.651964e+02   3.536843e+02
  -4.448406e+02   4.978573e+02
  -7.280403e+02  -3.243493e+02
  -4.115144e+01  -9.664500e+02
   6.478017e+02  -7.268515e+02
   8.090047e+02   5.932184e+00
   4.155580e+02   6.985361e+02
  -1.328786e+02   8.297323e+02
  -5.220441e+02   1.338654e+02
  -3.447745e+02  -6.601879e+02
   2.214374e+02  -6.976895e+02
   5.534481e+02  -5.311272e+00
   2.607397e+02   6.115355e+02
  -3.142693e+02   6.117910e+02
  -5.516792e+02   1.889559e+02
  -4.549390e+02  -3.025927e+02
  -1.016831e+02  -4.569152e+02
   2.330605e+02  -2.166340e+02
   1.490629e+02  -2.178171e+01
  -1.366437e+02   7.716962e+00
  -3.939995e+02  -2.018173e+02
  -4.263246e+01  -4.520638e+02
   4.727072e+02  -3.207760e+02
   8.650691e+02   1.191390e+02
   3.436115e+02   4.859691e+02
  -4.450410e+02   4.103320e+02
  -7.086545e+02  -8.245162e+01
  -3.024916e+02  -4.465975e+02
   2.448308e+02  -4.832624e+02
   4.701414e+02  -1.718299e+02
   3.601828e+02   2.038734e+02
   8.765612e+01   3.889731e+02
  -1.139866e+02   2.765222e+02
  -1.000647e+02  -1.681351e+02
   2.244545e+02  -3.322030e+02
   4.003656e+02   5.092582e+01
   1.650712e+02   6.524442e+02
  -3.356965e+02   6.858301e+02
  -4.922809e+02  -7.243164e+00
  -2.189939e+02  -4.892913e+02
   2.621486e+02  -2.881154e+02
   2.588234e+02   3.304216e+02
  -6.803207e+01   4.788346e+02
  -5.167882e+02   1.100458e+02
  -5.504448e+02  -4.395954e+02
  -2.060322e+02  -5.420573e+02
   3.865428e+02  -3.873944e+02
   6.059632e+02   6.286400e+01
   3.595099e+02   3.850182e+02
  -1.848332e+02   3.553809e+02
  -3.995971e+02   2.544352e+01
  -2.139661e+02  -1.360741e+02
   1.204329e+02  -8.743526e+01
   1.244404e+02   1.183765e+02
  -1.839330e+02   1.633530e+02
  -3.088040e+02  -3.799983e+01
  -1.352338e+02  -2.567266e+02
   2.052196e+02  -2.977369e+02
   3.556982e+02  -8.894989e+01
   2.265830e+02   1.624744e+02
  -5.377953e+01   2.601587e+02
  -2.080820e+02   3.116425e+02
  -3.168928e+02   2.032182e+02
  -2.324775e+02  -1.954106e+02
  -1.057049e+02  -4.425132e+02
   1.112932e+02  -3.604083e+02
   7.175112e+01  -1.801328e+02
   6.697749e+01  -2.367099e+01
   5.860756e+01  -9.252542e+01
   2.047734e+02  -4.687544e+01
   2.381279e+02   5.966343e+01
   1.464441e+02   3.490601e+02
  -2.045309e+02   2.546018e+02
  -1.882902e+02  -3.942291e+01
  -1.290147e+02  -2.691221e+02
  -2.987114e+00  -2.208078e+02
   2.872650e+02  -6.655596e+01
   3.600237e+02   1.740749e+02
   1.754780e+02   3.591531e+02
  -7.927440e+01   2.871777e+02
  -2.172516e+02   1.526138e+02
  -1.545642e+02   6.225202e+01
  -1.035719e+02   5.079075e+01
  -2.780756e+02   5.859543e+01
  -4.265358e+02  -1.440801e+02
  -3.820680e+02  -3.171282e+02
   8.171599e+00  -4.625763e+02
   4.171062e+02  -4.082616e+02
   4.936949e+02  -1.527729e+02
   3.490563e+02   1.378327e+02
   5.226384e+01   3.258374e+02
  -1.087331e+02   2.193219e+02
  -4.554542e+01   1.275661e+01
   1.220785e+02  -7.288788e+01
   1.368574e+02   6.970620e+01
   8.230391e+00   2.294137e+02
  -1.363944e+02   2.177299e+02
  -7.649473e+01  -9.539435e+01
   3.905921e+01  -1.657614e+02
   1.789238e+02  -3.214341e+01
   1.718620e+02   3.052325e+02
  -5.898397e+01   3.558555e+02
  -2.014476e+02   1.775690e+02
  -3.024873e+02  -8.042523e+01
  -3.199765e+02  -2.518142e+02
  -1.103945e+02  -2.654432e+02
   1.439228e+02  -1.702782e+02
   1.741314e+02  -1.531517e+01
   1.100938e+02  -1.126394e+01
  -9.038391e+01  -1.897483e+01
  -4.400522e+01  -1.860851e+02
   4.058522e+01  -7.498761e+01
   1.740984e+02   2.825065e+01
   7.997773e+01   9.787524e+01
  -8.665365e+01  -4.235105e+01
  -7.194505e+00  -7.274364e+01
   1.320995e+02  -1.022180e+02
   2.796818e+02   4.795416e+00
   2.533578e+02   1.320759e+02
   2.982163e+01   3.226014e+02
  -1.983058e+02   2.285972e+02
  -2.981655e+02   1.849796e+02
  -1.587398e+02  -1.223187e+02
   5.177626e+00  -1.221569e+02
   1.189117e+02   3.061911e+01
  -2.134072e+01   1.060282e+02
  -1.986426e+02   4.100760e+01
  -2.835370e+02  -1.266936e+02
  -2.295989e+01  -2.773391e+02
   1.272831e+02  -1.246813e+02
   1.567709e+02  -2.528723e+01
   7.770784e+01   5.691551e+01
   1.424101e+01  -1.754955e+01
  -4.515615e+01  -5.073171e+01
   5.495950e+01  -1.101122e+02
   2.195559e+02  -6.068906e+01
   1.998997e+02   1.417510e+02
   4.142909e+00   2.023371e+02
  -1.415301e+02   2.045291e+02
  -1.678721e+02   1.953157e+01
  -1.010351e+02  -1.392583e+02
   2.149103e+01  -1.631104e+02
   7.271614e+01  -5.423895e+01
   1.090028e+01   6.143467e+01
  -9.631952e+00   3.411074e+01
   5.760788e+01   9.118093e+00
   8.270752e+01   8.601300e+00
   1.107684e+02   6.431499e+01
   1.476858e+01   2.478681e+02
  -1.153871e+02   1.135974e+02
  -1.649378e+02   4.524615e+01
  -1.021363e+02  -2.949814e+02
   3.056835e+00  -2.522381e+02
   1.201866e+02  -1.535956e+02
   1.106829e+02  -4.842101e+01
   8.708075e+01   2.822937e+00
   7.864885e+01  -1.804317e+01
   8.758452e+01   2.203597e+01
   4.027303e+01  -1.905989e+01
   1.167013e+02   1.080101e+02
  -4.897057e+01   3.299369e+01
  -1.130748e+02   4.958813e+01
  -4.175955e+01  -1.209185e+02
   5.082963e+01  -1.008731e+02
   1.613198e+02  -7.595548e+01
   2.642046e+02   7.119631e+01
   2.499909e+01   1.523751e+02
  -1.441952e+02   1.993654e+02
  -3.078152e+02   8.510008e+01
  -2.651484e+02  -8.984365e+01
  -1.232765e+02  -2.180696e+02
  -1.875275e+01  -1.884764e+02
   1.274556e+02  -3.322383e+01
   4.010993e+01  -3.720977e+01
   7.367887e+01  -4.672165e+01
   9.136665e+01  -4.532773e+01
   1.168634e+02  -1.607670e+01
   1.324384e+02   1.472665e+02
  -2.558377e+01   3.358839e+02
  -1.053653e+02   1.569679e+02
  -1.443261e+02   1.418354e+00
  -9.225673e+01  -1.296635e+02
   3.771273e+00  -1.493198e+02
   7.077304e+01  -6.886752e+01
   4.810042e+01  -2.459289e+01
  -6.456842e+00   2.069572e+01
  -3.246358e+01  -2.222449e+01
   2.413386e+01   4.153063e+01
   1.235580e+02   1.547225e+01
   7.408478e+01   5.366674e+01
  -8.132633e+01   6.835270e+01
  -1.429529e+02  -2.339863e+01
  -1.625580e+02  -2.872358e+01
  -1.085238e+01  -9.862910e+01
   1.102117e+02  -2.130176e+01
   1.683229e+02   5.301980e+01
   8.259852e+01   5.392153e+01
  -8.149053e+01   4.727317e+01
  -1.348232e+02  -3.320508e+01
   3.699376e+00  -1.247215e+02
   4.917577e+01  -3.056532e+01
   1.245489e+02  -3.476500e+01
   1.716206e+01  -1.160442e+01
   2.586892e+01   5.513117e+00
   1.229912e+01  -2.926970e+01
   1.099213e+02   7.473970e+01
   4.294288e+01   1.252284e+02
  -4.070441e+01   6.234272e+01
  -1.314145e+02   1.851791e+02
  -1.530177e+02   5.313135e+01
  -1.410065e+02  -1.228338e+02
  -4.745180e+01  -9.282412e+01
   1.123708e+02  -3.725154e+01
   2.334050e+01   2.413852e+01
  -3.164773e+01   3.278919e+01
  -2.018542e+02  -5.765426e+01
  -5.065127e+01  -9.496886e+01
   1.105938e+02  -1.729528e+02
   1.923564e+02  -1.388386e+01
   1.595486e+02   6.247564e+01
   4.290509e+01   1.505067e+01
  -5.807482e+01   1.069868e+02
  -1.063311e+02   5.308445e+01
   6.745579e+01  -3.129559e+01
   1.092401e+02   4.520405e+01
   3.433090e+01   1.358470e+02
  -9.627380e+01   1.365855e+02
  -1.399129e+02   9.224429e+00
  -1.407713e+02  -1.348974e+02
  -4.820045e+01  -2.395915e+02
   6.320057e+01  -1.763432e+02
   9.981989e+01  -1.059791e+01
   9.452002e+01   8.673146e+01
   1.809771e+01   1.260753e+02
  -2.600924e+01   3.492433e+01
  -3.552117e+01  -9.128510e+00
   1.178855e+01  -1.317378e+01
  -6.757301e+01   1.994468e+01
  -2.517362e+01  -4.336320e+01
  -6.403463e+01  -1.187031e+02
  -6.046050e+01  -1.424065e+02
   3.244394e+01  -9.507368e+01
   1.658006e+02   9.710971e+00
   1.710771e+02   9.681112e+01
   4.881468e+01   7.555353e+01
  -8.819237e+01   5.717863e+01
  -7.428611e+01  -1.940011e+01
  -4.649266e+01  -3.259065e+01
   3.578836e+01  -7.555693e+01
   8.270264e+00  -3.422144e+01
  -2.355205e+01  -1.113274e+01
   4.488516e+01   2.236264e+01
   8.476060e+01  -2.408133e+01
   1.026754e+02   1.968812e+00
   9.268355e+01   7.549487e+01
  -1.193624e+02   1.733380e+02
  -1.823848e+02   5.635317e+01
  -1.320642e+02  -3.609815e+01
   2.343537e+00  -2.072846e+02
   7.172951e+01  -1.847112e+02
   1.027791e+02  -8.192855e+01
   8.425576e+01   6.855659e+01
   2.089105e+01   8.693293e+01
  -7.920121e+00  -2.162361e+01
   5.211310e+01  -1.442412e+01
   2.558142e+01   2.649600e+01
  -8.543586e+00   1.353510e+02
  -5.213559e+01   9.490999e+01
  -9.581764e+01   6.588342e+00
  -8.497304e+01  -7.710702e+01
   9.999040e+00  -1.177041e+02
   1.295639e+02  -8.785620e+01
   1.302558e+02   9.082498e+01
  -2.128555e+01   9.640903e+01
  -3.192402e+01   2.252871e+01
  -1.274944e+02  -5.828089e+01
  -1.845606e+00  -7.145545e+01
   7.768226e+01  -6.900592e+01
   1.117250e+02  -3.133410e+01
  -6.308895e+00   8.831309e-01
  -1.151665e+02   1.596345e+01
  -7.696620e+00   1.115762e+01
   1.209679e+01  -1.142074e+02
   1.051189e+02  -4.707672e+01
   4.889920e+01  -3.821827e+01
   3.806982e+01   8.501768e+01
  -2.785119e+01   6.503756e+01
  -2.702661e+01  -4.334546e+01
   1.361405e+01  -6.602685e+01
   5.068259e+01  -3.923260e+01
   1.114175e+02  -1.267045e+01
   8.317633e+01   7.177516e+01
   1.470382e+01   8.175551e+01
  -4.957327e+01  -1.804304e+01
  -3.495286e+00  -4.869308e+01
  -2.749794e+01  -2.125103e-01
   6.643521e+01   2.605514e+01
   9.181733e+01  -7.763430e+00
  -6.829250e+01  -1.061515e+01
   4.396515e+01  -9.700975e+01
   5.410189e+01   1.032932e+01
   5.428037e+01  -1.036708e+00
  -1.427907e+01  -3.435140e+00
   2.427865e+01   2.374657e+01
  -8.827440e+01  -1.167224e+01
  -2.326421e+01  -9.575483e+01
   4.968992e+01  -6.940757e+01
   1.596408e+02   5.838809e+00
   6.731825e+01   4.769432e+01
  -5.226558e+01   4.402844e+01
  -3.724799e+01   4.443741e+01
   3.733008e+01  -1.023416e+01
   4.755219e+01  -3.376391e+01
   3.009837e+01  -3.243218e+00
  -2.347531e+01   8.051894e+00
  -5.198178e+01   2.705438e+00
