
 $NMID
 id='ANONYMOUS ', fmtdat='(2E16.6)'
 volume=1.0
 tramp=1.0
 $END
   2.966741e+03  -1.624753e+02
   2.056559e+03   1.355004e+03
   1.365808e+02   1.915245e+03
  -1.019202e+03   1.238673e+03
  -9.244595e+02   3.471169e+02
  -1.598140e+02  -1.870542e+02
   2.840863e+02   1.945648e+01
   9.444130e+01   4.761607e+02
  -3.143924e+02   5.629467e+02
  -6.101722e+02   1.154042e+02
  -4.521178e+02  -4.424413e+02
  -3.328849e+01  -5.112627e+02
   2.319068e+02  -1.860772e+02
   2.554280e+02   3.030274e+02
  -7.021873e+01   5.246468e+02
  -3.466370e+02   1.648206e+02
  -3.564863e+02  -4.907682e+02
   6.144897e+01  -5.996147e+02
   3.903072e+02  -3.289715e+02
   4.430366e+02   1.001131e+02
   1.501567e+02   3.242158e+02
  -4.388365e+01   2.322723e+02
  -2.088747e+01   8.440441e+01
   1.111035e+02   7.269887e+01
   2.989906e+02   2.625032e+02
  -1.077701e+01   2.949860e+02
  -4.365605e+02   9.876108e+01
  -5.590272e+02  -1.974624e+02
  -1.967858e+02  -3.483243e+02
   3.383865e+02  -1.752271e+02
   4.849925e+02   1.734834e+02
   1.887157e+02   2.990621e+02
  -2.348107e+02   2.769699e+02
  -3.934111e+02   1.042478e+02
  -3.276264e+02  -1.267531e+02
  -8.478284e+01  -3.046735e+02
   3.243127e+01  -1.363882e+02
  -7.432139e+01   7.100192e+01
  -1.440366e+02   1.342440e+02
  -1.559827e+02  -1.434381e+02
   4.148939e+01  -4.542147e+02
   1.649579e+02  -4.600122e+02
   2.844190e+02  -1.187800e+01
   6.608532e+01   2.736514e+02
  -9.389909e+01   6.446584e+01
  -1.602658e+02  -2.466438e+02
   1.146942e+02  -3.627742e+02
   3.911760e+02  -4.877991e+01
   4.299518e+02   3.338881e+02
   1.795180e+02   4.395105e+02
  -3.039667e+02   2.419926e+02
  -4.923840e+02  -1.446527e+02
  -3.014617e+02  -1.900910e+02
  -2.336146e+01  -1.415569e+02
   2.387430e+02  -1.549335e+02
   1.757539e+02   8.476403e-01
   1.309287e+01  -7.864840e+00
   1.456440e+00   3.576453e+00
   8.070813e+01  -5.309585e+01
   1.597340e+02   1.245931e+01
   1.314091e+02   1.594837e+02
  -1.236336e+02   2.268530e+02
  -3.381471e+02   1.479146e+02
  -2.704583e+02  -4.888101e+01
   1.096736e+01  -3.139359e+02
   2.623634e+02  -3.559414e+02
   3.290563e+02  -1.765179e+02
   2.016736e+02   1.429043e+02
   3.908885e+01   3.634954e+02
  -7.051525e+01   3.090375e+02
  -2.939821e+01   1.891638e+02
  -5.563426e+01   1.260788e+02
  -1.222111e+02   1.582850e+02
  -2.145886e+02  -7.717604e-01
  -2.238447e+02  -1.724690e+02
  -6.237611e+01  -2.414519e+02
   3.417868e+01  -1.808552e+02
   1.608843e+02   6.789711e+01
   1.042481e+02   1.743485e+02
  -3.981967e+01   2.321598e+02
  -2.631637e+02   7.438986e+01
  -2.424563e+02  -1.749081e+02
  -1.545238e+02  -3.379505e+02
   9.175701e+01  -2.030860e+02
   1.226401e+02  -1.240841e+02
   6.594766e+01  -7.339604e+01
   1.327193e+02  -6.565016e+01
   2.222836e+02  -2.288665e+01
   4.109121e+02   1.055898e+02
   2.747884e+02   3.521003e+02
  -3.714259e+01   4.310807e+02
  -3.519734e+02   3.982836e+02
  -4.660984e+02   1.643644e+02
  -2.148199e+02  -8.837175e+01
  -5.113395e+01  -2.319339e+02
   6.621017e+01  -1.794111e+02
  -1.168180e+01   8.042391e+00
  -1.323762e+02   4.990916e+01
  -1.196970e+02  -5.534677e+01
  -2.732882e+01  -8.538494e+01
   9.432993e+01  -5.997721e+01
   1.072684e+02   6.596224e+01
  -1.116866e+01   1.711669e+02
  -1.807826e+02  -1.152225e+01
  -1.826426e+02  -1.753365e+02
   5.411305e+00  -2.660357e+02
   2.157944e+02  -1.965421e+02
   3.558213e+02   5.649818e+01
   2.873514e+02   2.622730e+02
   2.938721e+01   3.254587e+02
  -1.154250e+02   1.500647e+02
  -1.334560e+02  -3.586024e+01
  -3.888183e+01  -1.552282e+01
   6.862932e+01   6.145957e+01
  -4.025092e+00   9.238534e+01
  -1.540244e+02   3.960616e+01
  -1.353074e+02  -7.317386e+01
  -7.798501e+01  -5.229714e+01
   2.458202e+01  -2.536974e+01
   7.470160e+01   8.641812e+01
  -1.246206e+02   1.269281e+02
  -2.519718e+02   1.689634e+01
  -2.552779e+02  -1.201450e+02
  -8.815745e+00  -2.040813e+02
   2.178609e+02  -2.345538e+02
   2.832673e+02  -9.567953e+01
   1.415903e+02   3.754825e+01
  -2.051547e+01   4.989866e+01
  -9.082204e+00   3.905873e+00
   1.429869e+01  -7.887153e+01
   1.481274e+02   2.304606e+01
   1.521420e+02   1.088199e+02
   1.083813e+02   1.992692e+02
  -1.245245e+02   1.295783e+02
  -1.630366e+02   1.278223e+01
  -4.274842e+01  -1.254638e+01
   9.594480e+01   1.350320e+01
   2.977043e+01   6.008123e+01
  -6.347020e+01   1.214042e+02
  -2.307858e+02   5.720179e+01
  -2.459692e+02  -1.142695e+02
  -3.778447e+01  -2.013260e+02
   1.220735e+02  -7.690446e+01
   1.617133e+02  -6.815231e+01
   6.534856e+01   5.761897e+01
  -8.232366e+01   8.586418e+01
  -9.761214e+01  -3.974923e+01
   1.498533e+01  -3.381225e+01
   7.999478e+01   2.385729e+00
   3.209332e+01   5.374484e+01
  -1.295818e+02   2.837115e+01
  -1.005135e+02  -8.934545e+01
   8.924724e+00  -1.481493e+02
   1.166460e+02  -1.278949e+02
   2.089881e+02   2.772629e+01
   1.593057e+02   1.334842e+02
   4.662409e+01   1.618069e+02
  -8.804418e+01   1.594355e+02
  -1.080900e+02   8.813930e+01
  -2.715504e+01   3.297761e+00
  -2.951746e+01   4.876612e+00
  -4.346705e+01   9.673053e-01
  -5.992615e+01   1.356548e+01
  -5.286861e+01  -4.579957e+01
   6.626675e+01  -1.286013e+02
   1.182215e+02  -1.139644e+02
   1.151501e+02   2.825620e+01
   1.319892e+01   9.882209e+01
  -2.056985e+02   1.197621e+02
  -2.698650e+02  -7.900534e+01
  -6.059154e+01  -2.511002e+02
   9.918133e+01  -1.856488e+02
   2.612078e+02  -1.232869e+02
   2.559110e+02   2.694445e+01
   9.770995e+01   1.379068e+02
  -6.013781e+01   1.836856e+02
  -5.010761e+01   3.881209e+01
  -7.444585e+01   5.033829e+01
  -8.089456e+00   8.746108e+01
  -1.351174e+02   7.967900e+01
  -1.376629e+02  -3.737550e+01
  -1.273915e+02  -1.631718e+02
  -1.020747e+02  -1.887929e+02
   6.962460e+01  -1.598211e+02
   1.780089e+02  -1.242301e+01
   5.588609e+01   1.011396e+02
   7.779146e+01   1.519439e+02
  -1.369010e+02   7.661105e+01
  -8.281445e+01  -5.297553e+01
   4.448236e+01  -8.135506e+01
   5.030803e+01  -1.603922e+01
   1.544614e+01   5.912887e+00
  -9.616255e+01  -8.967447e+01
  -4.364085e+01  -8.585916e+01
   6.684963e+01  -1.564943e+01
   1.895623e+02  -6.257170e+01
   1.044584e+02   4.793130e+01
  -4.568691e+01   1.272021e+02
  -1.541634e+02  -4.465417e+00
  -1.509536e+02   6.807962e+01
  -2.359065e+01  -2.909636e+01
   4.688919e+01  -9.051719e+01
   2.469648e+01   9.507355e+00
   6.692939e+01   8.007759e+01
  -3.385066e+01   1.343734e+02
  -2.585014e+01  -1.452112e+01
  -6.872330e+01   1.647228e+01
  -5.640762e+01  -7.107080e+01
  -8.867667e-01  -1.520497e+01
  -5.739279e+01  -1.337337e+01
  -1.528851e+02  -1.051798e+02
  -1.891355e+01  -1.500579e+02
   1.277018e+02  -9.897022e+01
   2.036652e+02  -8.078534e+00
   1.965282e+02   1.372105e+02
   3.200398e+01   9.654153e+01
  -9.671226e+01   6.217353e+01
  -1.010999e+02  -1.869956e+01
   6.175634e+01  -6.492074e+01
   5.910515e+01  -3.077873e+01
   4.825262e+01   1.216486e+02
  -7.067495e+01   9.458070e+01
  -1.408654e+02   9.620488e+01
  -1.731068e+02  -9.867727e+01
  -2.460456e+01  -5.712900e+01
   4.155234e+01  -6.462941e+01
   3.708738e+01  -3.486237e+01
  -2.287002e+01   4.063145e+01
  -1.005478e+02   4.319251e+00
  -4.014565e+01  -1.219110e+02
   8.575398e+01  -1.688007e+02
   9.892795e+01  -9.394202e+01
   1.270683e+02   8.272302e+01
   4.740246e+01   2.283391e+02
  -9.225580e+01   1.712800e+02
  -5.546481e+01   3.943287e+00
  -4.435029e+01  -1.811578e+02
   1.168335e+01  -1.342029e+02
   1.218161e+01  -8.905214e+00
   3.347268e+01  -2.113269e+01
   7.828008e+01   4.405353e+00
   9.768805e+00   3.148089e+01
   3.547657e+01  -2.885926e+01
   2.297381e+01   1.055213e+02
   7.250957e+01   5.856185e+01
   5.153962e+01   8.549472e+01
  -1.147228e+02  -4.899240e+01
  -1.215585e+02   6.676697e+00
  -2.522184e+01  -9.813330e+00
   3.329851e+01  -3.704494e+01
   5.103464e+01   2.193518e+01
   3.246640e+01   1.866632e+01
  -3.804151e+01   5.784477e+00
   3.775377e+01  -9.226109e+00
  -3.638763e+01  -7.995224e+00
  -3.142083e+00   1.561933e+01
  -4.504679e+01  -3.892349e+01
  -7.041318e+01   3.662407e+01
  -3.888497e+01  -7.428444e+01
   6.307212e+01  -1.090151e+02
   2.376933e+02  -1.156969e+02
   1.881616e+02   8.854390e+01
   4.788177e+01   1.760699e+02
  -5.758300e+01   1.756668e+02
  -1.263260e+02   7.345332e+01
  -8.200244e+01  -4.803238e+01
   2.023763e+01  -2.297593e+00
  -4.727339e+00  -2.016264e+01
   9.749869e+00  -1.142087e+01
  -6.078123e+01  -9.035565e+01
  -4.651732e+01  -1.415354e+02
   2.515478e+01  -3.420214e+01
   3.757297e+01   1.974367e+01
   9.869181e+01   1.052040e+02
   7.572251e+00   1.305699e+02
  -5.187308e+01   5.056213e+01
  -5.683796e+01  -1.477266e+02
  -9.439066e+01  -1.113542e+02
   8.435097e+00  -6.809773e+01
   8.299241e+01  -5.995428e+01
   9.867035e+01   8.121535e+01
  -4.247521e+01   1.165034e+02
   4.950635e+00   5.216666e+01
   7.212780e+00  -1.415359e+01
   5.791515e+01  -2.129374e+00
   2.214925e+01   2.407839e+01
  -1.291128e+02   4.878307e+01
  -1.161722e+02   9.451153e+01
  -2.024295e+01  -1.147293e+00
   1.404605e+01  -5.746521e+01
  -1.197885e+01  -1.478472e+02
   8.196277e+01   2.533193e+01
   2.561261e+01   3.975554e+01
  -1.777330e+01   3.888891e+01
  -6.611700e+00   1.612550e+01
  -6.676814e+00  -7.152650e+01
  -4.509023e+01  -2.433847e+01
   9.293853e+01  -1.110450e+00
   6.364640e+01   1.690704e+01
   5.767024e+01   9.676244e+00
   6.183106e+01  -8.412855e+00
  -1.733155e+01  -3.198883e+01
   3.311444e+01   6.154638e+00
   2.343889e+01   3.376902e+01
  -5.868387e+01  -4.072514e+00
  -4.059390e+01  -5.344265e+01
  -4.864506e+01  -9.369528e+01
   6.795687e+01   2.871142e+00
   5.294206e+01   6.096106e+01
  -6.008237e+00   9.007849e+01
  -1.169296e+01   3.980172e+01
  -1.138023e+02  -4.686198e+01
  -4.243092e+01  -4.816718e+01
   5.805151e+01  -5.839483e+00
   4.589686e+01  -2.387116e+01
   2.117180e+01  -5.576833e+01
  -1.702960e+01   2.478055e+01
  -3.836719e+01   5.495209e+01
   8.514282e+00  -9.513281e+01
   8.320288e+01  -4.609885e+01
