
 $NMID
 id='ANONYMOUS ', fmtdat='(2E16.6)'
 volume=1.0
 tramp=1.0
 $END
  -4.611352e+03  -7.948968e+01
  -2.643226e+03  -2.879158e+03
   9.093789e+02  -2.958902e+03
   2.315009e+03  -8.310801e+02
   9.295044e+02   8.044829e+02
  -8.111118e+02   6.328779e+02
  -9.549167e+02  -4.770201e+02
   6.575097e+01  -1.209717e+03
   8.798558e+02  -8.456779e+02
   1.001697e+03   1.570865e+02
   5.244007e+02   9.422947e+02
  -2.912571e+02   9.840358e+02
  -7.295429e+02   5.507094e+01
  -3.826510e+02  -7.932236e+02
   3.246608e+02  -7.571583e+02
   6.445845e+02   1.102444e+01
   2.156566e+02   7.291115e+02
  -3.670800e+02   6.399498e+02
  -6.278314e+02   8.790944e+01
  -3.474361e+02  -4.356920e+02
   1.429060e+01  -4.293040e+02
   2.895771e+02  -2.845828e+02
   1.668574e+02  -1.461146e+00
  -8.386375e+01   8.036321e+01
  -4.375447e+02  -6.687854e+01
  -2.360499e+02  -4.081274e+02
   4.482256e+02  -4.902820e+02
   8.554671e+02  -2.462692e+01
   4.458699e+02   6.161926e+02
  -4.039085e+02   5.300455e+02
  -8.108640e+02  -8.166520e+01
  -2.956441e+02  -4.997022e+02
   2.830583e+02  -5.372455e+02
   6.423384e+02  -2.042851e+02
   4.169592e+02   2.109500e+02
   5.900525e+01   4.843516e+02
  -2.403281e+02   2.940498e+02
  -2.431599e+02  -2.191580e+02
   1.693990e+02  -4.709017e+02
   5.028355e+02  -6.219119e+01
   2.403587e+02   7.361590e+02
  -3.388453e+02   7.785187e+02
  -6.598179e+02  -1.960771e+01
  -3.406553e+02  -5.935660e+02
   3.418653e+02  -3.659959e+02
   3.835577e+02   3.277626e+02
  -8.535534e+01   5.674468e+02
  -5.807042e+02   2.071768e+02
  -6.200748e+02  -4.758501e+02
  -1.395996e+02  -6.278785e+02
   3.912232e+02  -3.301456e+02
   6.088842e+02   7.748274e+01
   3.455733e+02   4.571042e+02
  -1.711843e+02   4.212703e+02
  -4.737804e+02   9.931931e+01
  -3.047900e+02  -2.158045e+02
   1.239177e+02  -1.166866e+02
   1.617920e+02   2.039862e+02
  -1.805125e+02   2.140529e+02
  -3.333350e+02  -1.431377e+02
  -1.838427e+02  -3.175826e+02
   2.296833e+02  -2.530797e+02
   3.261356e+02  -6.913291e+01
   1.102900e+02   1.001235e+02
  -5.408452e+01   2.283302e+02
  -2.166446e+02   3.139303e+02
  -3.828807e+02   1.984466e+02
  -3.656967e+02  -1.386773e+02
  -6.366842e+01  -5.401555e+02
   1.060535e+02  -4.041720e+02
   1.666181e+02  -1.277468e+02
   2.757592e+01   6.246985e+00
   2.003279e+01  -1.001836e+02
   1.884909e+02  -1.884713e+02
   2.614385e+02   9.554670e+00
   1.814714e+02   3.039647e+02
  -6.017804e+01   2.101540e+02
  -2.463015e+02   1.263213e+01
  -1.696514e+02  -2.179204e+02
  -1.890879e+01  -2.884530e+02
   2.838006e+02  -1.876661e+02
   3.748793e+02   1.476382e+02
   2.037520e+02   3.440365e+02
  -1.290568e+02   2.917724e+02
  -2.291505e+02   1.278654e+02
  -1.556834e+02   1.444441e+01
  -9.809325e+01   9.377531e+01
  -2.157613e+02   1.763678e+01
  -4.065595e+02  -1.067148e+02
  -3.786038e+02  -2.972645e+02
   1.923360e+00  -4.528764e+02
   3.140375e+02  -4.089145e+02
   5.607996e+02  -2.828644e+02
   3.700034e+02   1.401590e+02
   7.485920e+01   2.787596e+02
  -9.679646e+01   3.190719e+02
  -1.352351e+02  -3.627852e+01
   1.204190e+02  -1.321775e+02
   2.453935e+02  -3.277012e+01
   9.521929e+01   2.583185e+02
  -1.924005e+02   1.598455e+02
  -1.221670e+02   1.207483e+01
   2.115093e+01  -2.150419e+02
   2.093055e+02   3.760799e+01
   1.513972e+02   2.034678e+02
  -5.317098e+01   3.361483e+02
  -2.036221e+02   2.126573e+02
  -3.486420e+02  -1.081029e+02
  -3.032011e+02  -2.287067e+02
  -1.355797e+02  -2.649168e+02
   1.316033e+02  -1.760471e+02
   1.574594e+02   4.544893e+00
   1.960736e+01  -5.602042e+00
   6.735705e+00  -5.437478e+01
  -3.158154e+00  -1.723478e+02
   1.711293e+02  -8.370028e+01
   2.405752e+02   3.089751e+01
   7.725349e+01   1.167305e+02
  -2.095885e+01   8.844763e+01
  -2.347421e+00  -1.001152e+02
   9.711936e+01  -1.192779e+02
   2.245702e+02  -2.339351e+00
   2.528397e+02   1.149140e+02
   1.300196e+02   2.029352e+02
  -1.641889e+02   2.577270e+02
  -2.959957e+02   2.158329e+02
  -1.362342e+02  -4.337465e+01
   7.740949e+00  -7.052073e+01
   8.202436e+01   4.416692e+00
   4.907720e+01   8.997495e+01
  -1.764838e+02   7.100632e+01
  -2.493963e+02  -1.334242e+02
  -2.784247e+01  -2.208885e+02
   1.385676e+02  -1.607098e+02
   1.981278e+02  -3.340336e+01
   9.206126e+01   1.724214e+01
  -3.640019e+01  -3.498315e+01
  -3.696373e+01  -5.005718e+01
   7.439001e+01  -8.808161e+01
   2.223310e+02  -9.704204e+01
   2.000622e+02   1.728989e+02
   1.761237e+01   2.693114e+02
  -1.721985e+02   1.637302e+02
  -2.659684e+02   2.676773e+01
  -5.168171e+01  -1.345739e+02
   7.701638e+01  -1.646303e+02
   8.476544e+01  -7.435088e+01
  -4.965641e+01   4.388142e+01
   2.998921e+01   4.113771e+01
   3.749320e+01  -5.707092e+01
   5.738309e+01  -5.988413e+01
   1.190294e+02   8.440387e+01
  -1.370436e+01   2.003958e+02
  -1.424206e+02   1.242899e+02
  -2.098526e+02   3.468435e+01
  -2.244826e+02  -1.298837e+02
  -2.924273e+01  -2.694992e+02
   1.225464e+02  -1.894166e+02
   1.023306e+02  -7.352021e+01
   4.883336e+01   6.447957e+01
   4.370302e+01   1.625003e+01
   9.040693e+01  -3.178261e+01
   7.124631e+01   2.507401e+01
   4.083445e+01   2.915766e+01
  -5.521000e+01   5.747075e+01
  -1.006077e+02   2.396016e+01
  -8.322283e+01  -6.729557e+00
  -3.660621e+01  -1.402933e+02
   9.587869e+01  -7.940976e+01
   1.454096e+02   9.885010e+01
   8.442575e+01   2.078823e+02
  -9.167774e+01   2.588890e+02
  -2.908903e+02   9.205253e+01
  -2.569565e+02  -9.602361e+01
  -1.552211e+02  -1.402010e+02
   5.365906e+01  -1.045104e+02
   1.257086e+02  -6.623365e+01
   6.371346e+01  -9.922165e+01
   4.829006e+01  -9.490756e+01
   1.195325e+02  -2.864916e+01
   1.208611e+02  -3.583803e+01
   9.547728e+01   1.906814e+02
   2.417864e+01   1.655880e+02
  -5.035115e+01   1.547562e+02
  -1.906699e+02   6.778137e+01
  -1.531160e+02  -1.230056e+02
  -5.374305e+01  -1.603527e+02
   9.729723e+01  -9.910743e+01
   4.005773e+01  -1.810757e+01
   3.384059e+01   3.085336e+01
   3.593549e+00   4.677213e+01
   3.828415e+01  -4.662083e+01
   7.301135e+01   4.731312e+01
   3.154098e+01   6.451140e+01
  -3.407760e+01   1.002393e+02
  -1.412431e+02  -4.068216e+01
  -1.535997e+02  -4.342893e+01
  -5.989971e+01  -8.877015e+01
   1.246984e+02  -1.350501e+02
   1.318221e+02   1.333926e+01
   7.759121e+01   5.714648e+01
  -4.724844e+01   8.214689e-03
  -6.803914e+01  -3.412708e+01
   6.765080e+00  -1.454209e+01
   1.238425e+01  -1.123325e+02
   5.712447e+01   9.175878e+00
   7.759900e+01   5.146963e+01
   6.160557e+01  -3.345390e+01
   6.815536e+01   3.341950e+00
   6.846689e+01   1.202965e+01
   5.794417e+01   8.125334e+01
  -4.562231e+01   1.150508e+02
  -8.320421e+01   1.012438e+02
  -1.444501e+02  -3.538775e+01
  -1.196216e+02  -7.867283e+01
   1.885955e+01  -9.224907e+01
   3.644913e+01  -3.739145e+01
   4.438221e+01   2.185496e+01
  -6.773330e+01  -1.054910e+01
  -1.293763e+02  -1.002681e+02
  -8.312535e+01  -7.420661e+01
   4.884030e+01  -1.034583e+02
   1.874286e+02  -6.228889e+01
   1.499876e+02   4.681249e+01
   3.652480e+01   5.871188e+01
  -1.959678e+01   1.119409e+02
  -1.994013e+01   3.054580e+01
   4.514109e+01  -5.350489e+01
   1.952440e+02   4.128200e+01
   2.335511e+01   1.082211e+02
  -1.266233e+02   1.532588e+02
  -1.647413e+02   2.665036e+01
  -1.513238e+02  -6.251614e+01
  -5.000773e+01  -1.510064e+02
   1.222848e+02  -1.165633e+02
   7.429545e+01  -9.121494e+00
   7.952991e+01   8.619688e+01
   8.469598e+00   4.282696e+01
  -3.043296e+01  -1.669783e+01
  -2.288331e+01  -4.743947e+01
  -6.764646e+01   2.535742e+01
  -2.630979e+01   3.666214e+01
   4.692313e-01  -4.425066e+01
  -5.454840e+01  -9.351760e+01
  -3.749064e+01  -1.534979e+02
   8.238750e+01  -3.986227e+01
   1.456300e+02   4.476844e+01
   1.543158e+02   7.629933e+01
   1.907072e+01   3.530203e+01
  -1.258259e+02   1.487471e+01
  -7.299155e+01   9.541476e+00
   3.043690e+01  -3.255620e+01
   2.912780e+01   3.343492e+00
   5.313185e+01  -4.175655e+01
  -6.079178e+01  -7.522570e-01
   8.462906e+01   3.710627e+01
   7.298526e+01   3.975418e+01
   9.592294e+01   2.104906e+01
   2.619739e+01   6.055438e+01
  -1.561980e+02   1.252114e+02
  -1.516817e+02   4.985590e+01
  -1.919750e+02  -4.092488e+01
  -9.228615e+01  -2.147934e+02
   1.120187e+02  -1.212360e+02
   1.271529e+02  -4.669896e+01
   3.508376e+01   3.797477e+01
   6.044371e+01   2.435171e+01
  -4.736110e+00   3.319034e+01
  -5.359994e+00   5.310641e+01
   7.644219e+01   2.139995e+01
  -2.059099e+01   1.278766e+02
   2.557646e+01   5.224435e+01
  -1.045190e+02  -3.113035e+01
  -4.353796e+00  -9.512656e+01
  -2.928238e+01  -5.737782e+01
   5.512310e+01  -3.046336e+01
   1.425051e+02   8.928177e+01
   4.223878e+00   1.015262e+02
  -4.628472e+01   4.589671e+01
  -1.193434e+02  -4.733087e+01
  -4.540874e+01  -5.560315e+01
  -2.580251e+01  -5.445004e+01
  -8.953384e-01  -1.368460e+01
   9.418346e+00  -3.155110e+01
  -9.773240e+01  -6.547135e+01
  -1.632164e+01  -8.016090e+00
   5.896788e+01  -1.098132e+02
   8.013377e+01  -7.225301e+01
   3.253827e+01   1.351295e+01
   1.716096e+01   9.929717e+01
   3.819471e+01   4.879906e+01
  -4.170427e+01   2.903965e+01
  -1.756198e+01   3.168229e+01
  -1.618281e+01  -1.124540e+02
   1.466573e+01   8.226503e+00
   3.505294e+01   8.671560e+01
  -4.567990e+01  -1.476944e+01
  -1.053809e+02  -1.674074e+00
   2.204668e+01  -8.271442e+01
  -2.408548e+01   2.637561e+01
   9.288256e+00   6.641972e+01
   4.791535e+01   1.044234e+01
  -4.777212e+01  -5.230539e+01
   2.660970e+01   4.259885e+00
   7.483688e+01   5.573272e+01
   6.238090e+01   7.860762e+01
   1.307333e+01   4.597555e+01
  -3.973682e+01  -5.878827e+01
  -5.961549e+01  -1.172571e+02
   2.151200e+01  -1.862810e+01
   8.711222e+00  -8.765017e+01
   1.521761e+02   1.840971e+01
   8.518276e+01   6.471000e+01
  -5.411900e+01  -5.904002e+01
  -1.067290e+02   6.771600e+01
  -5.029291e+01  -5.020641e+01
   1.767011e+01   7.384025e+00
   6.104231e+01   6.602872e+01
  -1.443642e+00   1.553670e+01
  -7.895269e+01   4.613364e+01
