
 $NMID
 id='ANONYMOUS ', fmtdat='(2E16.6)'
 volume=1.0
 tramp=1.0
 $END
  -4.733280e+03  -1.609086e+01
  -2.725517e+03  -3.003386e+03
   1.003735e+03  -3.021215e+03
   2.425296e+03  -8.158202e+02
   1.004496e+03   9.139979e+02
  -8.406710e+02   6.618107e+02
  -1.068958e+03  -4.711924e+02
   7.366732e+01  -1.250406e+03
   9.772578e+02  -8.418104e+02
   1.060783e+03   1.569100e+02
   4.274164e+02   9.858864e+02
  -3.359570e+02   9.016822e+02
  -7.562493e+02   1.463769e+02
  -4.651241e+02  -8.532095e+02
   3.003965e+02  -7.873166e+02
   6.940969e+02   3.600131e+01
   2.437154e+02   7.981786e+02
  -4.176122e+02   7.024125e+02
  -6.233344e+02   3.373361e+01
  -3.094192e+02  -4.048757e+02
   4.287229e+01  -5.022646e+02
   2.537026e+02  -3.005301e+02
   2.649767e+02   4.655553e+01
  -8.742297e+01   1.298632e+02
  -4.871324e+02  -8.069597e+01
  -1.986773e+02  -4.125734e+02
   4.514472e+02  -4.877014e+02
   8.935368e+02   1.045774e+02
   5.351296e+02   5.902509e+02
  -4.462980e+02   6.296627e+02
  -7.824934e+02  -1.457479e+01
  -4.169609e+02  -4.939346e+02
   3.084680e+02  -6.029902e+02
   6.035092e+02  -2.007252e+02
   4.345385e+02   2.409802e+02
   5.464883e+01   5.751966e+02
  -2.473117e+02   3.315023e+02
  -1.983785e+02  -2.513914e+02
   2.383296e+02  -4.685087e+02
   5.298257e+02   8.682932e+00
   2.844766e+02   7.394196e+02
  -3.541500e+02   7.695629e+02
  -7.606173e+02  -1.387084e+01
  -3.456142e+02  -6.306871e+02
   3.718487e+02  -3.920531e+02
   4.650866e+02   3.641288e+02
  -5.326429e+01   5.468656e+02
  -6.547053e+02   9.878706e+01
  -6.446021e+02  -4.078559e+02
  -1.792296e+02  -5.745740e+02
   4.242963e+02  -3.515633e+02
   7.193712e+02   1.192818e+02
   3.951923e+02   4.697674e+02
  -2.214091e+02   3.330283e+02
  -4.998868e+02   1.336240e+01
  -2.696677e+02  -2.539202e+02
   1.669121e+02  -1.338251e+02
   1.615198e+02   1.785275e+02
  -2.091367e+02   1.513395e+02
  -4.285715e+02  -6.853996e+01
  -9.213865e+01  -3.364487e+02
   2.508780e+02  -2.868443e+02
   2.623684e+02  -2.893075e+01
   2.123033e+02   1.026588e+02
  -5.858668e+01   1.849781e+02
  -2.386051e+02   3.342419e+02
  -3.899170e+02   2.037660e+02
  -3.667468e+02  -1.278136e+02
  -8.976545e+01  -4.259274e+02
   1.503048e+02  -4.144509e+02
   2.362057e+02  -1.213388e+02
   3.467824e+01   2.787446e+01
  -4.451676e+00  -4.163935e+01
   2.495304e+02  -1.291516e+02
   2.450042e+02   3.273216e+01
   2.132704e+02   3.332966e+02
   3.775966e+01   2.749087e+02
  -2.551783e+02  -7.400041e+00
  -1.862104e+02  -2.760364e+02
   6.408168e+00  -3.271857e+02
   2.708496e+02  -1.482810e+02
   4.010980e+02   1.398129e+02
   1.811869e+02   3.360372e+02
  -1.197172e+02   2.459187e+02
  -2.382797e+02   1.197070e+02
  -1.430505e+02  -3.097634e+01
  -8.427842e+01   7.614547e+01
  -2.105927e+02   2.232051e+01
  -4.165967e+02  -7.892031e+01
  -3.390167e+02  -2.964304e+02
   9.731490e+00  -4.556785e+02
   4.547262e+02  -4.020539e+02
   5.282042e+02  -2.479477e+02
   3.827122e+02   9.044545e+01
   7.222482e+01   2.203642e+02
  -2.081665e+02   2.802945e+02
  -1.031864e+02  -2.528601e+01
   6.607172e+01  -1.752850e+02
   2.038586e+02   1.900244e+01
   6.353323e+01   2.390501e+02
  -2.360486e+02   2.097706e+02
  -2.177557e+02  -6.354170e+01
   4.575549e+01  -1.458342e+02
   1.936481e+02  -1.538918e+01
   1.509413e+02   2.141839e+02
  -5.426169e+01   3.742268e+02
  -2.265054e+02   1.841488e+02
  -3.280110e+02  -2.555155e+01
  -3.230647e+02  -2.850629e+02
  -1.606675e+02  -2.797080e+02
   1.201614e+01  -1.648304e+02
   1.916236e+02  -3.250662e+01
   6.208892e+01   8.210298e+00
  -8.259723e+01  -5.645200e+01
  -9.375108e+01  -7.415010e+01
   1.132246e+02  -7.651511e+01
   1.608184e+02   5.078762e+00
   7.471519e+01   1.311041e+02
  -9.046278e+01   1.028865e+00
   8.473876e+00  -6.895974e+01
   1.283699e+02  -5.529562e+01
   2.691953e+02   3.284265e+01
   2.732584e+02   1.192903e+02
   7.608362e+01   2.031787e+02
  -1.717535e+02   2.929137e+02
  -2.528859e+02   1.235792e+02
  -1.734650e+02  -6.487926e+01
   1.937032e+01  -9.153301e+01
   5.689979e+01   3.625883e+01
  -4.237466e+01   1.215975e+02
  -2.771126e+02   5.965354e+01
  -2.721249e+02  -9.070394e+01
  -1.337210e+02  -1.987127e+02
   1.143549e+02  -2.429293e+02
   1.743596e+02  -7.240859e+01
   5.549310e+01   8.133975e+00
  -2.977613e+00  -1.866800e+01
  -2.082564e+01  -4.563659e+01
   3.510649e+01  -1.372348e+02
   1.924751e+02  -6.650606e+01
   1.451967e+02   1.442053e+02
   1.872668e+01   1.824753e+02
  -1.432581e+02   1.748601e+02
  -1.970591e+02   1.538905e+01
   1.522967e+00  -1.674667e+02
   8.626803e+01  -1.305118e+02
   6.590208e+01  -7.340476e+01
   1.308628e+01   1.273257e+01
  -7.190908e+01  -2.463698e+01
   2.935824e+01  -4.541887e+01
   6.502741e+01  -1.974246e+01
   1.257004e+02   4.969562e+01
  -2.669680e+01   2.129700e+02
  -1.397441e+02   1.191247e+02
  -2.117289e+02   6.122255e+01
  -1.816879e+02  -1.854997e+02
  -5.704770e+01  -2.413947e+02
   1.448387e+02  -1.521617e+02
   1.923037e+02  -2.700800e+01
   9.075207e+01   3.726093e+01
   3.131883e+01   3.006989e+01
   6.802283e+00   1.482388e+01
   2.232826e+01  -4.580951e+01
   5.184006e+01   4.866348e+01
  -4.674669e+01   8.043727e+01
  -7.220086e+01   9.953459e+01
  -7.550421e+01   1.197227e+01
   1.657820e+01  -1.393792e+02
   1.344670e+02  -4.551725e+01
   1.342046e+02   5.861980e+00
   1.099071e+02   1.927054e+02
  -1.576051e+02   2.494150e+02
  -2.734698e+02   1.519857e+02
  -2.189831e+02  -1.405333e+02
  -8.957296e+01  -1.068477e+02
   4.468891e+01  -2.002997e+02
   1.104249e+02  -1.281540e+02
   4.474141e+01  -6.427939e+01
   9.587248e+01  -1.292406e+02
   4.697800e+01  -7.412197e+01
   1.256821e+02   3.180963e+01
   1.025824e+02   2.235306e+02
   6.738898e+01   2.628337e+02
  -7.519765e+01   2.020466e+02
  -2.042190e+02   7.679984e+00
  -1.401222e+02  -5.598906e+01
  -5.172447e+00  -1.490644e+02
   6.631302e+01  -4.274213e+01
   5.876083e+01   3.997674e+00
   3.772108e+01   3.883882e+01
   6.570394e+00   1.302691e+01
   1.236875e+01  -4.496775e-01
   5.897151e+01   5.145614e+01
   8.129612e+01   4.331108e+01
  -9.838567e+01  -3.230601e+01
  -1.323514e+02  -1.261825e+01
  -1.488421e+02  -1.871447e+01
   2.215493e+01  -7.903998e+01
   1.399184e+02  -7.441957e+01
   1.575996e+02  -5.257246e+00
  -7.345808e+00   4.556751e+01
  -1.022943e+02   4.935682e+01
  -7.895800e+01   1.174606e+00
  -1.184641e+00  -7.489869e+01
   7.757057e+01  -7.211846e+01
   6.860108e+01  -3.467213e+01
   6.298421e+01   4.191323e+01
   4.494283e+01   2.615398e+01
   9.923899e+01   7.608078e+00
   8.230345e+01   5.050687e+00
   1.216339e+01   4.676706e+01
  -2.392085e+01   1.445183e+02
  -1.132901e+02   8.642688e+01
  -1.383513e+02   6.734595e+01
  -1.616827e+02  -6.591268e+01
   4.782071e-01  -1.466530e+02
   1.203139e+02  -8.813375e+01
   1.299922e+02   1.151201e+01
  -9.792661e+01   4.158135e+01
  -1.921969e+02  -5.338089e+01
  -1.026577e+02  -1.117210e+02
   9.020432e+01  -1.418343e+02
   1.617249e+02  -3.037337e+01
   1.824150e+02   7.837287e+01
   6.316985e+01   6.908948e+01
   6.935256e+00   5.962912e+01
  -7.402186e+01   8.009639e+01
  -2.471743e+00  -4.167898e+01
   1.120666e+02   6.443172e+00
   6.370560e+01   1.004481e+02
  -7.772449e+01   1.273451e+02
  -2.172712e+02   1.005388e+02
  -1.460443e+02  -7.338417e+01
  -6.082907e+01  -1.659378e+02
   1.421623e+02  -7.317835e+01
   1.192641e+02   3.242820e+01
   4.852692e+01   1.433078e+02
  -5.749493e+01   6.797855e+01
   1.772774e+01   5.242851e+01
  -6.542413e+01  -4.543976e+01
  -4.136641e+01  -2.317569e+00
  -2.779657e+01   5.616360e+00
  -1.107283e+01  -1.976509e+01
   2.015933e+01  -1.007804e+02
  -1.741518e+01  -1.013668e+02
   1.686659e+01  -9.822916e+01
   1.878757e+02   9.942389e+01
   1.543690e+02   6.695621e+01
   2.521817e+01   8.367236e+01
  -3.868806e+01   4.349068e+01
  -8.279030e+01   2.450262e+01
  -6.118323e+01  -1.244876e+01
   3.459271e+01  -2.596128e+01
   3.446473e+01   1.112006e+00
   1.583344e+01   3.436848e+01
  -4.335452e+01  -1.188514e+01
   1.327935e+02   3.527088e+01
   8.180311e+01   8.622554e+00
   4.255080e+01   1.662882e+01
  -1.198504e+02   8.501333e+01
  -1.622924e+02   2.731940e+01
  -1.145436e+02  -1.202683e+02
   1.448745e+01  -1.682564e+02
   1.448609e+02  -1.934505e+02
   1.014216e+02  -1.024580e+02
   7.293638e+01   1.269089e+01
   3.872979e+01   5.283797e+01
  -1.265158e+00   7.298281e+00
  -2.407297e+01   1.604034e+01
   3.164680e+01   1.210495e+01
   1.119975e+01   1.099076e+02
  -1.913672e+01   3.758095e+01
  -8.213629e+01  -1.358347e+00
  -5.911370e+01  -8.461383e+01
  -2.813125e+01  -1.002741e+02
   5.578283e+01  -1.061648e+02
   1.478360e+02   1.152772e+02
   3.603094e+01   7.467856e+01
  -6.438620e+01   2.203261e+01
  -1.299026e+02  -3.948603e+01
  -2.878856e+01  -4.542628e+01
  -5.593464e+00  -3.613712e+01
   3.620444e+01  -7.145362e+01
  -4.321809e+01  -3.027140e+01
   8.839871e+00   8.293168e+00
   3.768051e+00   9.456116e-01
   7.782218e+01  -7.162743e+01
   1.566282e+02  -7.123388e+01
   1.116522e+02   3.562755e+01
  -3.613445e+01   6.095830e+01
  -8.634500e+01   1.734073e+01
  -4.649475e+01   2.812972e+01
   3.287278e+01   4.181863e+01
   2.306802e+01  -3.768173e+01
   4.574285e+01   4.465291e+01
  -7.206772e+00   5.525511e+01
   8.524515e+00   5.394337e+01
  -5.325851e+01   5.536902e+00
  -2.730903e+01   2.477164e+00
   1.150023e+00  -2.918432e+00
   5.729062e+01   1.425229e+01
  -2.387550e+01   1.570515e+01
  -4.253835e+01  -2.451944e+01
   6.429271e+01  -2.190909e+01
   4.005408e+00  -9.495318e+00
   2.160717e+01   4.584839e+01
  -2.600590e+00   7.187793e+01
  -4.950652e+01   1.420978e+01
  -8.494226e+01  -1.439495e+01
  -1.168005e+01  -1.838119e+01
   8.375666e+01  -3.171038e+01
   5.620598e+01   4.239540e+01
   4.270558e+01   4.457997e+01
  -2.036074e+01   4.251246e+00
  -5.585171e+01   6.728489e+01
  -5.574506e+01  -1.331220e+01
   3.292412e+01   1.487108e+01
  -2.885434e+00  -4.695975e+01
  -5.244350e+01   4.614658e+01
  -9.759729e+01  -1.891393e+00
