
 $NMID
 id='ANONYMOUS ', fmtdat='(2E16.6)'
 volume=1.0
 tramp=1.0
 $END
   4.631114e+03   3.129270e+01
   2.617538e+03   2.785943e+03
  -8.287191e+02   2.829746e+03
  -2.275413e+03   8.593316e+02
  -1.006744e+03  -7.386218e+02
   6.593673e+02  -5.941304e+02
   9.785658e+02   4.694721e+02
  -5.880192e+01   1.152557e+03
  -8.807164e+02   8.121688e+02
  -1.017988e+03  -8.559164e+01
  -4.413992e+02  -9.446352e+02
   3.469750e+02  -9.148251e+02
   6.632192e+02  -1.693373e+02
   4.060390e+02   7.737865e+02
  -3.555215e+02   8.014754e+02
  -5.816826e+02  -1.794699e+01
  -2.503433e+02  -7.563152e+02
   3.504805e+02  -6.557475e+02
   6.255892e+02  -4.696565e+01
   3.564394e+02   3.888969e+02
   1.418511e+01   4.113127e+02
  -2.475135e+02   2.800626e+02
  -2.163652e+02   1.178902e+01
   1.340132e+02  -1.672465e+02
   3.661843e+02   1.208705e+02
   2.062572e+02   4.562443e+02
  -4.728559e+02   4.419596e+02
  -8.615842e+02  -8.174085e+01
  -5.201469e+02  -5.883553e+02
   4.164269e+02  -5.398303e+02
   7.889246e+02   4.488387e+01
   3.356761e+02   4.992012e+02
  -2.806826e+02   5.884587e+02
  -6.208108e+02   2.193044e+02
  -4.410128e+02  -2.207652e+02
  -7.345194e+01  -5.186339e+02
   1.819198e+02  -2.717178e+02
   1.577589e+02   2.152328e+02
  -2.313483e+02   4.538607e+02
  -5.150619e+02   2.718405e+00
  -2.003898e+02  -7.101081e+02
   3.456183e+02  -7.838700e+02
   6.234162e+02  -1.582384e+01
   3.079560e+02   6.369221e+02
  -2.967405e+02   3.178159e+02
  -4.081203e+02  -3.730691e+02
   5.975561e+01  -6.189804e+02
   5.536099e+02  -1.788454e+02
   5.540677e+02   3.901267e+02
   2.019505e+02   6.177003e+02
  -4.308374e+02   3.563104e+02
  -6.567136e+02  -9.738240e+01
  -3.537424e+02  -4.130631e+02
   1.807876e+02  -3.674700e+02
   5.101595e+02  -5.887224e+01
   2.199964e+02   2.064336e+02
  -1.581602e+02   1.180631e+02
  -1.381300e+02  -1.173986e+02
   2.266024e+02  -1.964572e+02
   3.838778e+02   9.181583e+01
   1.820988e+02   3.313263e+02
  -2.579437e+02   2.520720e+02
  -2.936584e+02   8.089157e+01
  -2.369779e+02  -6.484525e+01
   7.274761e+00  -3.041711e+02
   2.099694e+02  -3.429591e+02
   3.895745e+02  -2.523690e+02
   3.091013e+02   1.082951e+02
   1.062364e+02   4.999605e+02
  -1.118580e+02   4.080567e+02
  -1.875621e+02   8.678959e+01
   3.202834e+00  -2.731074e+01
  -4.576663e+00   1.257566e+02
  -1.966509e+02   1.974528e+02
  -2.642876e+02  -4.466621e+01
  -1.724018e+02  -2.612824e+02
   5.496351e+01  -2.962455e+02
   2.514242e+02  -3.451847e+01
   1.693624e+02   2.323886e+02
   3.929699e+01   2.912019e+02
  -2.537868e+02   7.789748e+01
  -4.541378e+02  -1.330071e+02
  -1.508866e+02  -3.279952e+02
   1.297633e+02  -3.199413e+02
   2.043917e+02  -9.986440e+01
   1.684859e+02  -5.068036e+00
   1.068553e+02   2.374247e+01
   2.400366e+02  -8.340281e+01
   4.313938e+02   1.169745e+02
   3.303163e+02   2.994698e+02
   1.658519e+01   4.510728e+02
  -3.647359e+02   4.019435e+02
  -4.775232e+02   2.281472e+02
  -4.082419e+02  -7.726128e+01
  -1.736495e+01  -2.997167e+02
   1.672146e+02  -2.282312e+02
   6.094510e+01   8.486368e+00
  -9.871830e+01   1.134174e+02
  -1.751296e+02  -3.742722e+00
  -3.360864e+01  -2.716794e+02
   2.194361e+02  -1.757110e+02
   1.756391e+02  -2.214740e+01
   5.077399e+00   1.838692e+02
  -2.080080e+02   2.924245e+01
  -1.744273e+02  -2.618375e+02
   2.016479e+01  -3.694831e+02
   2.390165e+02  -1.611069e+02
   3.367723e+02   1.196785e+02
   3.328983e+02   2.142979e+02
   1.084907e+02   2.970121e+02
  -9.770379e+01   1.620690e+02
  -1.826617e+02   6.329322e+01
  -7.173846e+01  -2.926308e+01
   4.589762e+01  -5.787825e-01
   4.647719e+01   2.304216e+02
  -1.274479e+02   8.758782e+01
  -1.547960e+02  -1.240699e+01
  -6.335342e+01  -2.384267e+01
   1.274458e+02   9.748820e+00
   3.943728e+01   2.819622e+01
  -1.476969e+02   2.735510e+01
  -2.997695e+02  -3.152576e+01
  -2.878094e+02  -1.610172e+02
  -6.509973e+01  -2.875407e+02
   1.588390e+02  -2.399356e+02
   3.293032e+02  -1.388553e+02
   2.490855e+02   2.042471e+01
  -5.502826e+01   1.482902e+02
  -9.860914e+01   1.628933e+01
   8.575740e+00  -9.074052e+01
   1.555761e+02  -8.207957e+01
   2.439817e+02   8.447473e+01
   6.173128e+01   1.593445e+02
  -1.638170e+02   2.025517e+02
  -2.146422e+02   1.968651e+01
  -8.109361e+01  -4.954350e+01
   4.564139e+01  -4.967618e+01
   3.544059e+01   4.869831e+01
  -1.345578e+01   8.382899e+01
  -1.738195e+02   2.909535e+01
  -1.493922e+02  -1.175234e+02
  -5.910162e+01  -2.476792e+02
   1.385747e+02  -1.550788e+02
   1.582849e+02  -4.309914e+01
   4.246966e+01   1.146187e+02
  -1.267942e+02   1.564736e+02
  -9.654990e+01   6.955588e+01
  -3.106794e+01  -2.348400e+01
   2.397774e+01  -8.566765e+01
  -3.150290e+00  -1.666683e+01
  -9.187604e+01  -1.240572e+01
  -2.615878e+01  -9.255581e+01
  -3.790046e+01  -2.102660e+02
   9.928042e+01  -1.258473e+02
   2.223557e+02   4.088477e+01
   2.154625e+02   2.104017e+02
   2.171386e+01   2.221327e+02
  -1.159533e+02   1.613582e+02
  -1.153313e+02   2.476647e+01
  -7.195987e+01  -8.358501e+01
  -1.982778e+01  -9.455780e+01
  -2.534692e+01   4.915433e+01
  -7.018265e+01  -8.592524e-01
  -1.838395e+01  -1.239611e+02
   8.380722e+01  -5.227715e+01
   7.999429e+01  -3.783004e+01
   1.176883e+02   6.875659e+01
   1.027417e+01   8.828574e+01
  -1.094354e+02   8.166737e+01
  -2.040210e+02   5.985724e+00
  -1.353069e+02  -1.746324e+02
   1.161059e+02  -2.222369e+02
   2.384162e+02  -7.942418e+01
   3.085348e+02   1.135840e+02
   8.937851e+01   2.443547e+02
  -2.989372e+01   1.067557e+02
  -1.136167e+02   1.221811e+02
  -1.197759e+02   1.063583e+01
  -9.033804e+01   9.170387e+01
  -8.102834e+01   2.645866e+01
  -1.714506e+02  -1.060710e+01
  -1.566705e+02  -1.810131e+02
  -3.612061e+01  -2.404273e+02
   9.918599e+01  -2.237839e+02
   1.810497e+02  -9.374982e-01
   1.941826e+02   9.012162e+01
   5.852906e+00   1.626382e+02
  -2.385651e+01   7.411088e+01
  -9.314635e+01  -7.623526e+00
   6.610915e+01  -6.348262e+01
  -5.994568e+01  -4.749600e+01
   1.619999e+01  -2.213447e+01
  -5.615558e+01  -1.509349e+00
  -7.078129e+01  -3.291228e+01
   8.269379e+01  -5.909331e+01
   1.803573e+02  -4.873668e+01
   1.327263e+02   8.238829e+01
  -2.784352e+01   2.152865e+01
  -1.533196e+02   5.639816e+01
  -9.494687e+01   8.900292e+00
  -6.745838e+01  -5.597597e+01
   7.015949e+01  -4.501302e+01
   2.066943e+01  -2.826403e+01
  -1.231272e+01   1.222844e+02
  -9.265885e+01   6.176344e+01
  -6.948162e+01   2.482274e+01
  -7.954136e+01  -5.520039e+00
  -2.242020e+01  -6.459208e+01
  -8.171905e+01   3.030695e+01
  -5.759742e+01  -2.578616e+01
  -5.333391e+01  -8.278331e+01
   4.566116e+01  -1.225710e+02
   7.465994e+01  -1.387221e+02
   1.803964e+02  -5.556900e+01
   1.343227e+02   1.426547e+02
   4.173206e+01   1.450165e+02
  -1.106612e+02   2.700319e+01
  -7.875212e+01  -2.564789e+01
   9.661278e+01  -1.726139e+01
   1.381454e+02   1.007772e+02
   7.647743e+01   8.673448e+01
  -7.755856e+01   1.710112e+02
  -2.079395e+02   4.130522e+01
  -2.106843e+02  -1.151813e+02
  -2.804831e+01  -7.096004e+01
   9.655730e+01  -7.794394e+01
   1.094943e+02  -4.574695e+00
  -7.181004e+01   1.101847e+02
  -1.441334e+02   2.321739e+00
   1.718020e+01  -1.193486e+02
   1.196084e+02  -1.352745e+02
   1.706752e+02  -6.507785e+01
   8.326533e+01   8.840436e+01
   1.425391e+01   1.680665e+02
  -7.765766e+01   1.046868e+02
  -1.312765e+02   1.359906e+01
  -5.630580e+01  -1.389873e+02
  -1.733345e+00  -9.338199e+01
   2.544916e+01  -3.449129e+01
   4.177156e+01   1.079910e+02
   5.433935e+01  -4.236360e+01
  -4.729805e+00  -2.764986e+01
   6.317388e+01   2.003842e+01
  -1.993356e+01   1.758798e+02
   3.199163e+01   1.667510e+02
  -1.512133e+01   3.187550e+01
  -1.271281e+02  -2.123324e-01
  -1.050148e+02  -1.053757e+02
   2.181842e+01  -6.126901e+00
   1.350911e+02  -3.784599e+01
   4.688628e+01   6.788123e+01
   6.448073e+01   1.878449e+01
  -6.067376e+00  -4.064589e+00
  -6.164262e+01   5.966440e+01
  -2.001498e+01   1.642204e+01
   2.452652e+01   2.295226e+01
  -4.097137e+01  -1.215557e+00
  -1.110767e+02   5.019252e+01
   3.493182e+01  -4.291454e+01
   1.380212e+02  -1.490587e+02
   1.864439e+02  -4.577296e+01
   1.266824e+02   7.005783e+01
   5.511594e+01   2.098765e+02
  -5.558617e+01   1.405740e+02
  -7.047844e+01   6.603058e+01
  -1.064211e+02  -7.556502e+00
  -2.644986e+01  -2.924452e+01
   1.255844e+01   2.830422e+01
  -9.285100e+00  -1.507512e+01
  -5.721967e+01  -1.204860e+02
  -1.475103e+01  -7.928618e+01
   3.228311e+01  -8.102368e+01
   9.179402e+01   4.300866e+01
   7.556186e+01   8.181756e+01
   3.820329e+01   5.971355e+01
  -7.016266e+01  -2.138035e+01
  -7.333651e+01  -7.238692e+01
  -4.288965e+01  -5.544883e+01
   6.812432e+01  -6.660267e+01
   1.617768e+02  -1.964361e+01
   2.243060e+01   5.828583e+01
   1.829172e+01   7.310272e+01
  -5.083456e+01   1.472706e+01
  -2.079356e+01   1.094027e+01
   8.261695e+01  -2.645895e+01
   4.129529e+01   7.261060e+01
  -5.627010e+01   2.979678e+01
  -1.327620e+02   1.998133e+01
  -4.726389e+01  -2.842641e+01
   9.372288e+00  -1.422553e+02
  -9.548256e+00  -6.860632e+01
   4.116584e+01  -1.652848e+01
   1.209994e+01   4.753843e+01
  -3.065044e+01   2.517261e+01
   6.543643e+00   2.763783e+01
   2.935651e+00   1.632848e+01
  -7.645993e+00  -6.984101e+01
   1.998260e+00   1.962697e+01
  -5.228316e+00   3.927418e+01
   1.521407e+01  -1.513298e+01
  -2.856728e+01  -1.724039e+01
   1.472384e+01   6.914637e+00
  -5.677486e+01   5.524011e+01
  -4.157171e+01   6.523373e+01
  -7.247788e+01  -1.612602e+01
  -8.376128e+01  -8.008348e+01
   2.558465e+01  -1.085330e+02
   4.213495e+01  -6.567227e+01
   1.188495e+02   2.251345e+01
   1.754225e+01   2.036304e+01
   4.125519e-01   2.636250e+01
  -1.315606e+02  -7.505901e+01
  -1.938569e+01  -7.675785e+01
  -3.436464e+00  -8.224428e+01
   4.514551e+01  -2.618939e+01
   6.058582e+01   8.859632e+00
  -6.220587e+01   7.290344e+00
  -4.578946e+01   1.696920e+01
   3.855402e+01  -2.880033e+00
   9.648968e+01  -1.386156e+01
