
 $NMID
 id='ANONYMOUS ', fmtdat='(2E16.6)'
 volume=1.0
 tramp=1.0
 $END
  -3.386185e+03  -7.648769e+01
  -2.192492e+03  -1.784359e+03
  -5.003306e+01  -2.076972e+03
   1.318822e+03  -1.244486e+03
   9.620225e+02  -2.295955e+02
   7.615444e+01   2.723989e+02
  -3.809182e+02  -1.228170e+02
  -3.823180e+01  -5.613946e+02
   4.248385e+02  -6.047873e+02
   6.618211e+02  -1.701550e+02
   4.879592e+02   4.818829e+02
  -1.020271e+01   7.177443e+02
  -3.183841e+02   1.567680e+02
  -2.244843e+02  -4.248239e+02
   1.389128e+02  -5.426887e+02
   3.786749e+02  -7.606077e+01
   2.849718e+02   5.765775e+02
  -1.346272e+02   6.539153e+02
  -5.019696e+02   1.778887e+02
  -5.016271e+02  -2.126497e+02
  -1.533700e+02  -4.237016e+02
   4.185428e+01  -2.514869e+02
   1.258794e+02  -1.841062e+02
  -2.050513e+02  -9.606396e+01
  -3.083860e+02  -2.754253e+02
   1.589336e+01  -4.013071e+02
   4.952160e+02  -1.523005e+02
   5.936463e+02   1.961888e+02
   2.457694e+02   3.673842e+02
  -2.925178e+02   2.369489e+02
  -5.276509e+02  -1.487850e+02
  -1.809267e+02  -4.364540e+02
   3.341897e+02  -3.449804e+02
   4.612914e+02  -1.155332e+02
   2.712447e+02   1.175754e+02
   4.500447e+01   3.277461e+02
  -2.679241e+01   1.891111e+02
   7.997840e+01  -2.914483e+01
   1.507392e+02  -1.460322e+02
   1.979243e+02   1.211217e+02
  -2.892507e+00   5.126761e+02
  -2.736599e+02   4.632716e+02
  -3.803201e+02   1.273978e+01
  -1.399779e+02  -3.536095e+02
   1.623636e+02  -1.836845e+02
   1.386569e+02   2.866195e+02
  -1.664027e+02   3.706398e+02
  -4.634203e+02   4.467049e+01
  -4.813867e+02  -3.862966e+02
  -9.878784e+01  -4.782295e+02
   3.611917e+02  -2.532093e+02
   5.665497e+02   1.030342e+02
   3.313107e+02   2.461020e+02
  -5.836208e+01   2.328869e+02
  -3.387959e+02   1.036902e+01
  -2.301607e+02  -5.671774e+01
  -3.532901e+01   2.373203e+01
   2.219899e+01   7.008909e+01
  -6.380756e+01   2.141248e+01
  -2.804582e+02  -2.918020e+01
  -1.286315e+02  -1.703310e+02
   1.575258e+02  -2.944882e+02
   3.325645e+02  -1.523590e+02
   2.823967e+02   1.080431e+02
  -4.984455e+01   3.713304e+02
  -3.178365e+02   3.455915e+02
  -3.774234e+02   1.093218e+02
  -2.630694e+02  -1.979627e+02
  -3.554840e+01  -3.570408e+02
   4.381487e+01  -3.489804e+02
   5.024325e+01  -2.151560e+02
   4.159987e+01  -9.789437e+01
   1.486878e+02  -1.346925e+02
   2.522159e+02  -3.742975e+00
   2.678258e+02   1.425814e+02
   2.242475e+01   2.086271e+02
  -7.025897e+01   2.225218e+02
  -2.109376e+02  -7.755990e+01
  -1.370881e+02  -2.605005e+02
   7.274494e+01  -2.271027e+02
   2.872405e+02  -3.094053e+01
   2.679532e+02   2.196225e+02
   2.095355e+02   3.023670e+02
  -6.087030e+01   2.714483e+02
  -1.222687e+02   1.004639e+02
  -1.822911e+02   1.208887e+02
  -1.651263e+02   1.023685e+02
  -3.367683e+02   8.575712e+01
  -4.125070e+02  -4.422077e+01
  -2.854639e+02  -3.260326e+02
   3.588780e+01  -4.217978e+02
   3.674476e+02  -3.531725e+02
   4.631478e+02  -1.676913e+02
   3.073431e+02   1.252916e+02
   3.193854e+00   2.316882e+02
  -1.032183e+02   2.291412e+02
  -2.207018e+01   1.937646e+01
   1.451730e+02  -2.656781e+01
   7.098190e+01   2.848496e+01
  -9.653919e+00   1.100036e+02
  -1.160993e+02   1.052733e+02
  -4.026932e+01  -1.300300e+02
   1.773242e+01  -7.260838e+01
   1.689885e+02   1.754739e+01
   1.417400e+02   2.407574e+02
  -3.247421e+01   3.429918e+02
  -3.400362e+02   1.767445e+02
  -3.855571e+02  -7.623815e+01
  -3.251316e+02  -2.700083e+02
  -7.208304e+01  -2.749713e+02
   1.387431e+02  -1.612323e+02
   1.152820e+02  -3.482466e+01
  -7.821634e+00   4.302953e+01
  -5.158812e+01  -1.318392e+02
   5.369732e+01  -8.895873e+01
   1.412960e+02  -8.394695e+01
   1.511097e+02   2.957799e+01
   7.161107e+00   2.121185e+01
  -8.038088e+01  -5.016169e+00
   1.134766e+00  -1.312691e+02
   1.782267e+02  -3.716301e+01
   3.177602e+02  -1.411385e+01
   2.904115e+02   1.987851e+02
   3.859492e+01   3.254713e+02
  -2.384911e+02   2.390851e+02
  -2.823011e+02   1.436222e+02
  -1.546555e+02  -1.640783e+01
   5.572809e+01  -7.108561e+01
   6.182595e+01   4.994179e+01
  -8.256002e+01   7.033055e+01
  -1.818719e+02   5.404537e+01
  -1.573795e+02  -1.238128e+02
  -1.095457e+02  -1.613187e+02
   8.515721e+01  -1.284247e+02
   1.704276e+02   2.499869e+01
   5.307485e+01   4.367678e+01
  -1.443889e+01  -8.513096e+01
   1.505342e+01  -7.973435e+01
   1.206556e+02  -1.452310e+02
   2.282587e+02  -1.331568e+01
   1.748222e+02   7.736859e+01
   8.399686e+00   2.679021e+02
  -2.333887e+02   1.145007e+02
  -1.580437e+02  -5.740421e+00
  -7.831324e+01  -6.215365e+01
   7.922937e+01  -5.530202e+01
   1.251438e+02  -2.835494e+01
   1.399386e+01   2.644894e+01
  -4.720752e+01  -1.554083e+01
   7.994269e+00   2.335143e+01
   1.133945e+02   7.000165e+00
   1.292756e+02   9.703433e+01
   2.140148e+01   2.053388e+02
  -1.643781e+02   1.752484e+02
  -2.454925e+02  -2.074081e+01
  -2.241570e+02  -1.954773e+02
  -1.546851e+01  -2.809313e+02
   6.817565e+01  -1.410099e+02
   1.833203e+02  -1.347300e+01
   7.997499e+01   5.959675e+01
   5.508026e+01   2.727229e+01
   1.051856e+01  -3.359814e+00
   1.385987e+02   3.305797e+01
   9.214412e+01   1.078377e+02
  -3.157295e+01   1.243034e+02
  -1.147767e+02   8.950417e+01
  -7.431059e+01  -3.050303e+01
   3.294852e+01  -1.028541e+02
   1.580401e+02  -5.859468e+01
   2.566674e+02   5.820991e+01
   1.175755e+02   2.632031e+02
  -8.377104e+01   2.731730e+02
  -2.630918e+02   7.115856e+01
  -2.686662e+02  -1.380529e+02
  -1.164843e+02  -1.356055e+02
   6.575016e+01  -1.035967e+02
   1.108857e+02  -1.147016e+02
   9.495530e+01  -8.233008e+01
   6.553597e+01  -1.162173e+02
   8.782489e+01  -9.067908e+01
   1.927414e+02   1.437558e+01
   1.341155e+02   1.582985e+02
  -3.909375e+00   1.983356e+02
  -1.252310e+02   1.538472e+02
  -1.393504e+02   7.975695e+01
  -6.646324e+01  -1.107725e+02
   6.094156e+00  -1.698076e+02
   1.038028e+02  -6.328085e+01
   8.356275e+01   1.947375e+01
  -1.304796e+01   5.160175e+01
  -1.616597e+01   3.684789e+01
   3.571172e+01   1.228743e+00
   7.451892e+01   3.652611e+01
   7.381869e+00   4.621356e+01
  -1.966553e+01   3.537043e+01
  -1.731110e+02   2.294832e+01
  -1.577466e+02  -8.816161e+01
  -3.931164e+01  -6.818791e+01
   1.920040e+02  -8.256816e+01
   1.228698e+02  -3.668882e+01
   1.199592e+02   6.628509e+01
  -8.841535e+01   4.056606e+01
  -1.140126e+02  -5.604401e+00
  -2.200645e+01  -3.999439e+01
   3.808933e+01  -1.193849e+02
   8.759013e+01  -7.552548e+00
   6.431046e+01   1.769215e+01
  -2.596235e+01   2.349442e+01
   6.179859e+01   5.529902e+00
   1.427609e+02   5.884035e+01
   6.667221e+01   4.114918e+01
  -5.029504e+01   2.012306e+02
  -1.693618e+02   1.966724e+02
  -9.419233e+01   5.426146e+01
  -1.459807e+02  -1.317345e+02
   3.589331e+01  -1.171878e+02
   5.709553e+01  -1.009281e+02
   5.154871e+01  -3.201087e+00
  -5.855242e+01   2.185297e+01
  -1.682591e+02  -1.614498e+01
  -5.734971e+01  -1.109004e+02
   8.526914e+01  -1.346733e+02
   2.114689e+02  -4.150623e+01
   1.951749e+02   6.631050e+01
   7.373877e+01   1.380398e+02
  -9.414504e+01   5.351374e+01
  -7.439147e+01  -6.874752e+01
   1.853250e+01  -4.348537e+01
   6.485457e+01   6.609467e+01
  -1.323797e+01   1.470316e+02
  -4.284320e+01   1.860881e+02
  -1.597431e+02   1.121025e+02
  -1.268608e+02  -1.148879e+02
  -3.628664e+01  -2.784174e+02
   6.720419e+01  -9.841448e+01
   1.121532e+02   4.776737e+01
   4.729930e+01   1.911008e+02
   1.266674e+01   1.272477e+02
  -5.595353e+01   6.311624e+00
   2.142605e+01  -2.155418e+01
   4.045209e+01   9.089092e+00
  -3.265930e+01   1.059229e+01
  -8.211942e+00  -2.234917e+01
  -7.376683e+01  -8.155456e+01
  -1.386420e+01  -1.203497e+02
   3.930531e+01  -6.382737e+01
   1.358641e+02   6.532489e+01
   1.019477e+02   8.775327e+01
   1.024358e+01   7.039606e+01
  -7.856607e+01   7.598278e+01
  -1.013907e+01   2.751089e+01
  -8.349791e+00   3.954742e+00
   7.333202e+01  -2.766059e+01
   6.897585e+01  -1.063897e+01
   4.388492e+01   2.176836e+01
   6.385441e+01  -5.226190e+00
   5.498426e+01   4.739751e+01
   1.231542e+02   1.374407e+01
   5.103355e+01   1.103822e+02
  -1.114430e+02   1.109537e+02
  -2.013708e+02   5.811965e+01
  -1.009655e+02  -3.170139e+01
  -4.907305e+00  -2.000849e+02
   1.432302e+02  -1.924135e+02
   1.715346e+02  -6.761961e+01
   6.558740e+01  -1.025529e+01
   1.604633e+01   3.529968e+01
   5.264042e+01  -4.966297e+01
  -5.321400e+00   3.843864e+01
   2.495610e+01   6.803642e+01
  -7.442057e+00   1.065781e+02
  -1.209889e+01   5.289744e+01
  -8.004654e+01  -8.021876e+01
  -1.030496e+02  -1.409332e+02
  -3.786534e+01  -9.244059e+01
   7.297803e+01  -6.262782e+01
   8.454096e+01   5.553374e+01
   1.187515e+02   1.861533e+02
  -6.291195e+01   2.059141e+01
  -8.569149e+01  -8.134385e+01
  -7.316512e+01  -5.514783e+01
   1.181305e+02  -6.218651e+01
   1.898390e+01   2.740438e+01
  -9.341414e+00  -8.476695e+00
  -4.340390e+01   6.158812e+00
  -3.913775e+01  -3.147808e+01
   9.882041e+01  -1.200679e+02
   1.404079e+02  -3.487147e+01
   1.208461e+02   2.406662e+01
  -3.614658e+01   1.430090e+02
  -7.828129e+01   7.634994e+01
  -2.769520e+01  -1.974775e+01
   2.206224e+01  -9.510183e+01
  -3.093746e+01  -3.165062e+01
   1.877625e+01  -1.014843e+00
   5.382587e+01   5.831871e+01
   4.682934e+00   4.809326e+00
  -1.931297e+01   1.417233e+01
  -5.998284e+01  -4.324607e+01
  -5.987871e+01  -4.324926e+01
  -3.940550e+00   2.510658e+01
   1.958687e+01   5.423844e+00
   4.470135e+01  -3.041236e+01
   1.871615e+01  -2.199274e+01
   2.904462e+01  -4.614584e+01
   6.767586e+01   7.757872e+01
  -9.408256e+00   9.776053e+01
  -4.186750e+01  -1.741107e+01
  -5.622567e+01  -1.712821e+01
  -4.941263e+01  -1.114138e+01
   4.496190e+01  -5.004300e+01
   6.926638e+01  -5.396835e+01
   1.058161e+02   7.117600e+01
  -6.809144e+00  -3.456589e+01
  -7.386918e+01  -1.096228e+01
  -8.321247e+01  -1.509001e+01
   4.004874e+01   2.260765e+01
   6.448328e-01   4.012488e+01
  -5.157644e+01   4.769885e+01
  -7.795966e+01  -4.301030e+01
