
 $NMID
 id='ANONYMOUS ', fmtdat='(2E16.6)'
 volume=1.0
 tramp=1.0
 $END
   4.632149e+03  -1.635724e+02
   2.759036e+03   2.785502e+03
  -8.533818e+02   3.023868e+03
  -2.394778e+03   8.359800e+02
  -1.004261e+03  -8.615381e+02
   7.930138e+02  -7.129518e+02
   1.038200e+03   5.145743e+02
  -3.249389e+01   1.199120e+03
  -8.924643e+02   9.136260e+02
  -9.954857e+02  -1.076986e+02
  -4.498356e+02  -9.586386e+02
   2.568388e+02  -1.003942e+03
   6.986369e+02  -1.174855e+02
   4.894012e+02   8.124017e+02
  -3.078503e+02   8.736476e+02
  -6.699017e+02   1.340341e+01
  -2.747893e+02  -7.597606e+02
   3.263199e+02  -6.685922e+02
   6.237177e+02  -5.272165e+01
   3.883598e+02   4.223643e+02
   1.330772e+01   4.284409e+02
  -2.657742e+02   2.806726e+02
  -2.475575e+02   9.947305e+01
   1.134227e+02  -9.735551e+01
   4.999071e+02   4.118584e+01
   2.627861e+02   4.650836e+02
  -4.313364e+02   5.236278e+02
  -9.217212e+02  -7.039917e+01
  -4.714937e+02  -6.242893e+02
   4.378249e+02  -5.644316e+02
   8.137610e+02  -4.284957e+01
   4.053567e+02   5.365050e+02
  -2.693588e+02   5.668274e+02
  -5.700017e+02   2.215375e+02
  -4.366425e+02  -1.906455e+02
  -7.846050e+01  -5.053923e+02
   3.288634e+02  -3.237656e+02
   2.410265e+02   2.028155e+02
  -1.968632e+02   4.649706e+02
  -5.225073e+02   7.550016e+01
  -3.236286e+02  -7.281324e+02
   3.372374e+02  -7.697816e+02
   6.383634e+02   2.844581e+01
   2.975277e+02   6.187437e+02
  -2.680738e+02   3.015179e+02
  -4.763605e+02  -2.659480e+02
   5.204062e+01  -5.258634e+02
   5.445309e+02  -1.673621e+02
   6.700971e+02   4.137212e+02
   2.036133e+02   5.837803e+02
  -4.149381e+02   4.261121e+02
  -6.262129e+02  -2.981167e+01
  -3.520772e+02  -4.106232e+02
   1.411632e+02  -4.340287e+02
   4.853026e+02  -5.151672e+01
   3.080997e+02   1.699421e+02
  -1.453484e+02   1.357169e+02
  -1.567984e+02  -1.591736e+02
   2.262681e+02  -2.166279e+02
   3.836054e+02   9.568828e+01
   1.479173e+02   2.825909e+02
  -2.638236e+02   3.224888e+02
  -2.925953e+02   4.454503e+01
  -1.964878e+02  -1.366477e+02
  -2.023810e+01  -2.132812e+02
   2.053612e+02  -2.771537e+02
   2.967355e+02  -2.102769e+02
   2.790527e+02   1.862215e+02
   9.436843e+01   5.009302e+02
  -1.148784e+02   3.941348e+02
  -1.693802e+02   8.527737e+01
  -5.562451e+01  -8.178233e+01
   4.754355e+01   8.974802e+01
  -2.275480e+02   1.839586e+02
  -2.934646e+02  -3.172139e+01
  -1.669179e+02  -3.043812e+02
   3.739445e+01  -3.008677e+02
   2.808334e+02  -1.258575e+01
   2.471123e+02   1.760431e+02
   2.711781e+01   2.727919e+02
  -2.954325e+02   1.752801e+02
  -3.850588e+02  -1.413279e+02
  -1.811858e+02  -3.853110e+02
   8.444293e+01  -3.382196e+02
   2.373969e+02  -1.011683e+02
   1.518399e+02   2.290593e+01
   1.202212e+02  -2.519024e+01
   2.646779e+02  -1.137819e+02
   4.101062e+02   2.603568e+01
   3.030788e+02   2.627682e+02
   5.206478e+01   4.483224e+02
  -2.979028e+02   4.125542e+02
  -4.535449e+02   1.909656e+02
  -4.075579e+02  -1.048871e+02
  -9.046174e+01  -2.980661e+02
   1.311051e+02  -2.716419e+02
   6.056844e+01  -8.398720e-01
  -1.935654e+02   1.297905e+02
  -2.474488e+02   6.934766e+00
  -1.223777e+02  -2.480272e+02
   2.064270e+02  -1.825064e+02
   1.928061e+02   7.670085e+01
  -2.164032e+00   2.462012e+02
  -1.752630e+02   5.556498e+01
  -1.752875e+02  -1.975926e+02
   7.619958e+01  -3.580193e+02
   1.766401e+02  -1.758917e+02
   2.293779e+02   3.603810e+01
   3.256131e+02   2.123427e+02
   1.075008e+02   2.764630e+02
  -1.512506e+02   1.756366e+02
  -1.605347e+02   4.355215e+01
  -1.642144e+01  -4.202242e+01
   5.489402e+01  -4.857576e+00
   1.703491e+01   1.464950e+02
  -1.481340e+02   1.282182e+02
  -1.643817e+02   2.554376e+01
  -9.846150e+01  -6.781270e+01
   8.456261e+01   2.405431e+01
   7.252502e+01   6.620007e+01
  -2.075002e+02   9.806671e+01
  -2.799385e+02   3.528957e+00
  -2.686471e+02  -1.094972e+02
  -6.349451e+01  -2.695204e+02
   1.775126e+02  -2.554507e+02
   2.553706e+02  -1.703818e+02
   1.799397e+02   6.046958e+01
   3.383224e+01   7.844211e+01
  -9.514109e+01   4.418471e+01
   7.328396e+01  -9.524089e+01
   2.218807e+02  -1.014125e+02
   1.616379e+02   6.031670e+01
   4.103107e+01   2.473854e+02
  -6.497198e+01   1.600099e+02
  -2.026604e+02   4.705519e+01
  -1.231803e+02  -5.910809e+01
   5.023820e+01  -4.659647e+01
   5.532098e+01   1.107537e+02
  -3.174067e+01   6.909681e+01
  -2.326416e+02   4.289665e+01
  -1.772878e+02  -1.097896e+02
  -5.819895e+01  -2.144815e+02
   1.520744e+02  -1.867978e+02
   1.842712e+02  -1.816307e+01
   4.770870e+01   1.370747e+02
  -5.878835e+01   9.668280e+01
  -5.211372e+01   1.772932e+01
   1.453738e+01   2.505130e+01
  -3.061784e+01  -3.301297e+01
  -6.790829e+01   1.227188e+01
  -7.098292e+01  -4.137482e+01
  -7.094692e+01  -9.101165e+01
  -2.474277e+01  -1.006118e+02
   1.072242e+02  -8.822879e+01
   2.328151e+02  -1.921708e+01
   2.677097e+02   1.641133e+02
   6.325463e+01   2.262373e+02
  -8.318360e+01   1.553545e+02
  -1.496060e+02   2.638182e+01
  -7.643004e+01  -6.273680e+01
  -7.058231e+01  -4.124000e+01
  -4.008850e+01   2.957877e+01
  -7.445635e+01   5.432531e+01
  -4.392651e+01  -5.900454e+01
   6.946575e+01  -1.076580e+02
   7.488786e+01  -1.466251e+01
   1.543046e+02   4.912531e+01
  -2.457999e+00   1.098533e+02
  -2.228020e+02   1.052279e+02
  -1.464717e+02  -5.463768e+01
  -1.282161e+02  -2.093866e+02
   7.832329e+01  -2.234942e+02
   2.568363e+02  -8.947100e+01
   2.837408e+02   2.704608e+01
   8.645319e+01   2.288514e+02
  -3.253807e+01   1.837422e+02
  -1.056321e+02   8.793043e+01
  -1.201752e+02   1.068963e+02
  -9.538066e+01   4.062229e+01
  -4.491409e+01   4.179999e+01
  -1.222201e+02  -4.913533e+01
  -1.080132e+02  -1.591068e+02
  -7.315923e+01  -2.040174e+02
   6.934303e+01  -1.612900e+02
   1.775877e+02   2.571424e+01
   1.267565e+02   1.256761e+02
   3.054726e+01   2.459551e+02
  -4.915421e+01   6.490378e+01
  -9.427905e+01   2.683247e+01
   6.630723e+01  -6.648190e+01
   4.962083e+01  -2.535338e+01
  -3.424534e+01  -4.293060e+01
  -1.532644e+02  -6.616051e+00
  -8.223995e+01  -4.435483e+00
   6.825208e+01  -5.019804e+01
   1.167975e+02  -3.372963e+00
   1.542641e+02   3.977755e+01
   7.128486e+01   6.833504e+01
  -7.515907e+01   1.738879e+01
  -1.243417e+02   4.359882e+00
  -6.072834e+01  -1.937472e+01
   5.375928e+01  -2.423448e+01
   7.039758e+01   4.277647e+01
  -7.572353e+00   8.843079e+01
  -1.057841e+02   7.508983e+01
  -1.132491e+02   3.388099e+01
  -5.733564e+01  -1.434205e+01
  -3.791005e+01  -1.644502e+01
  -8.451600e+01  -1.023071e+00
  -3.539417e+01   2.886209e+00
  -4.022236e+01  -1.189837e+02
   6.826843e+01  -2.080472e+02
   1.303315e+02  -1.519020e+02
   1.390086e+02   1.298518e+00
   1.021731e+02   8.452246e+01
  -3.468762e+01   1.227734e+02
  -1.610733e+02   6.083373e+01
  -4.534833e+01  -8.004770e+00
   5.894945e+01  -1.015710e+01
   1.204037e+02   3.909585e+01
   8.672046e+01   1.106353e+02
  -4.211751e+01   1.261485e+02
  -1.431152e+02   8.853845e+01
  -1.252808e+02  -2.399497e+01
   5.184510e+00  -1.289726e+02
   7.352120e+01  -6.055248e+01
   6.568236e+01  -2.488183e+01
  -4.621370e+01   3.205771e+01
  -9.374970e+01  -5.027444e+00
  -4.348810e+01  -1.757104e+02
   9.132543e+01  -1.828482e+02
   1.375094e+02  -1.070755e+02
   1.130888e+02   1.317977e+02
   1.594728e+01   2.364136e+02
  -1.037885e+02   1.598760e+02
  -1.496041e+02  -2.825063e-01
  -1.261222e+02  -1.360497e+02
  -2.838228e+01  -7.409791e+01
   1.144600e+02  -8.034067e+01
   2.160606e+01  -3.799769e+01
   3.587960e+01   2.709392e+01
  -4.162504e+00   3.658566e+01
   2.341726e+01   1.713300e+01
   2.890832e+01   1.174030e+02
   9.181508e+01   9.379237e+01
  -1.125162e+01   9.896979e+01
  -1.108945e+02  -8.291484e+01
  -1.408809e+02  -1.208502e+02
  -2.745964e+01  -1.352360e+01
   6.834754e+01  -3.862854e+01
   5.994104e+01   2.570310e+01
   4.641633e+01   5.052076e+01
  -6.502586e+01   1.906387e+01
  -5.188436e+00  -7.555528e+01
   1.270186e+01  -3.449454e+01
  -5.686230e+01   4.574206e+00
  -3.058226e+01   3.200874e+01
  -8.500802e+01  -4.757657e+01
   3.833961e+01  -9.871995e+01
   8.372086e+01  -9.659849e+01
   1.975840e+02  -7.681655e+01
   1.318089e+02   9.721259e+01
  -1.149881e+01   1.594554e+02
  -1.394042e+01   1.649836e+02
  -1.136916e+02   4.994883e+01
  -5.311351e+01  -1.104718e+01
   4.924694e+01  -1.808811e+01
   2.288953e+01  -8.188806e+00
  -9.370996e+00  -1.514128e+01
  -1.698901e+01  -3.453349e+01
  -5.950209e+01  -8.469144e+01
   5.502431e+00  -4.094978e+01
   3.379510e+01   6.932550e+00
   9.082545e+01   1.450744e+02
  -4.515431e+01   6.853961e+01
  -4.294788e+01   2.455881e+01
  -8.007652e+01  -1.645482e+02
  -8.475474e+01  -9.396344e+01
   1.006428e+02  -7.942947e+01
   1.354174e+02   6.065398e+01
   3.451670e+01   6.449312e+01
  -5.833967e+01   3.897654e+01
  -3.858705e+01   4.342618e+01
  -2.560098e+01  -2.232508e+00
   7.295343e+01  -1.680975e+01
   2.568427e+00  -2.093058e+00
  -6.456462e+01   1.360727e+01
  -1.049056e+02   7.893773e+01
  -4.227835e+01   2.543300e+01
  -1.112739e+00  -8.270452e+01
   3.772218e+01  -1.779758e+01
   2.326943e+01   1.447604e+01
   2.025426e+01   1.381348e+00
  -2.247267e+01   9.474724e+01
  -7.853514e+01  -6.536521e+01
  -3.673193e+01  -9.180619e+01
   4.554901e+01  -1.759092e+01
  -3.722349e-01  -6.874408e+01
   3.021920e+01   4.743387e+01
  -4.489264e+01   9.605210e+01
   6.965136e+00  -3.067134e+00
  -1.958041e+01  -9.080066e+00
   1.511403e+01   3.845984e+01
   6.353555e+00   4.147517e+01
  -8.586945e+01   1.101760e+01
  -7.451593e+00  -8.554248e+01
  -1.982457e+01   5.869764e+00
   9.376227e+01  -1.310395e+01
   3.738961e+01   3.961973e+01
   4.731767e+01   4.859659e+01
  -5.440263e+01   6.585889e+01
  -1.034936e+02  -6.104028e+01
  -5.642493e+01  -3.622084e+00
   4.141375e+01  -6.291557e+01
   8.902531e+01  -5.601836e+01
   7.963062e+01  -4.189510e+01
   1.863706e+00  -7.855463e+00
   2.006026e+01  -5.871022e+01
   8.070566e+01  -5.611439e+00
   1.171325e+02  -2.855124e+01
