
 $NMID
 id='ANONYMOUS ', fmtdat='(2E16.6)'
 volume=1.0
 tramp=1.0
 $END
  -4.100412e+03  -8.229031e+01
  -2.354786e+03  -2.418411e+03
   6.286076e+02  -2.519043e+03
   1.927801e+03  -9.528573e+02
   9.299649e+02   4.569046e+02
  -5.271206e+02   4.842634e+02
  -6.925844e+02  -3.537374e+02
   2.116750e+01  -9.976565e+02
   7.556567e+02  -7.749584e+02
   8.424603e+02   1.894193e+01
   3.884233e+02   7.779179e+02
  -1.782174e+02   8.218005e+02
  -5.622909e+02   7.796298e+01
  -3.310102e+02  -6.716195e+02
   2.582981e+02  -7.144507e+02
   6.118184e+02   1.245299e+01
   2.451825e+02   6.960177e+02
  -2.572004e+02   6.333877e+02
  -5.835257e+02   1.096115e+02
  -3.545543e+02  -2.840386e+02
  -3.883132e+01  -4.410045e+02
   2.336388e+02  -2.442977e+02
   1.943109e+02   5.980109e+00
  -1.178454e+02   4.626221e+01
  -3.686363e+02  -1.459347e+02
  -7.934152e+01  -4.329759e+02
   5.094208e+02  -3.487418e+02
   7.684565e+02   1.601560e+02
   4.001957e+02   4.420329e+02
  -3.449230e+02   3.805751e+02
  -6.762882e+02  -7.142766e+01
  -3.093555e+02  -5.486319e+02
   3.147035e+02  -4.739714e+02
   4.634489e+02  -1.809263e+02
   3.654265e+02   1.474798e+02
   9.095326e+01   4.188946e+02
  -2.323096e+02   2.616587e+02
  -1.760436e+02  -1.816095e+02
   1.315969e+02  -3.774373e+02
   3.886323e+02   6.712635e+01
   1.549601e+02   6.202139e+02
  -3.915987e+02   6.617082e+02
  -5.208591e+02  -6.522288e+00
  -2.391411e+02  -4.497255e+02
   2.934271e+02  -3.071442e+02
   3.223596e+02   2.613540e+02
  -1.236387e+02   5.035385e+02
  -5.615669e+02   8.143343e+01
  -5.764685e+02  -3.182933e+02
  -1.059860e+02  -5.817093e+02
   4.458299e+02  -3.190792e+02
   6.771005e+02   6.263906e+01
   3.731032e+02   3.775503e+02
  -1.370917e+02   3.698825e+02
  -3.899554e+02   3.717005e+01
  -2.516069e+02  -1.567838e+02
   1.184517e+02  -7.593895e+01
   1.263987e+02   1.037546e+02
  -1.744287e+02   1.313040e+02
  -3.047939e+02  -8.272313e+01
  -1.685730e+02  -2.841667e+02
   2.041307e+02  -2.658447e+02
   3.159597e+02  -7.281038e+01
   1.400429e+02   2.445703e+01
  -6.116151e+00   2.447418e+02
  -2.593880e+02   3.703638e+02
  -3.388507e+02   2.090827e+02
  -2.265409e+02  -1.410189e+02
  -4.342966e+01  -4.205617e+02
   7.352354e+01  -3.202216e+02
   8.233113e+01  -1.090746e+02
   7.799381e+01  -4.604651e+01
   8.589458e+01  -9.993804e+01
   2.466269e+02  -1.585126e+02
   3.113256e+02   6.861893e+01
   1.233785e+02   2.807883e+02
  -9.780090e+00   1.821637e+02
  -3.118446e+02   7.826738e+00
  -2.393734e+02  -2.352005e+02
   8.867286e+01  -3.235697e+02
   2.633248e+02  -1.389812e+02
   3.734156e+02   2.123142e+02
   2.502960e+02   3.526095e+02
  -7.036628e+01   3.180283e+02
  -2.125845e+02   9.986341e+01
  -1.550161e+02  -4.500782e+00
  -1.717759e+02   2.482822e+01
  -2.679713e+02   3.187174e+00
  -4.185569e+02  -7.489889e+01
  -3.079059e+02  -2.631397e+02
   2.863406e+01  -4.651254e+02
   3.688271e+02  -4.403992e+02
   4.503540e+02  -1.566448e+02
   2.941714e+02   4.359767e+01
   8.118561e+01   2.954317e+02
  -1.214231e+02   2.198947e+02
  -3.572736e+01   2.221412e+01
   1.405350e+02  -1.392491e+02
   2.147470e+02  -1.048368e+01
   8.493193e+00   2.552311e+02
  -1.014143e+02   1.779522e+02
  -1.801760e+02  -1.286571e+02
   3.994570e+01  -1.774793e+02
   1.927749e+02  -3.956626e+01
   1.002421e+02   2.561140e+02
  -4.861700e+01   3.922331e+02
  -2.981901e+02   1.732717e+02
  -3.283192e+02  -5.213131e+01
  -2.626250e+02  -2.557704e+02
  -6.218846e+01  -3.172382e+02
   1.631138e+02  -1.646527e+02
   1.826081e+02  -5.850731e+01
   5.737934e+01   1.115635e+01
  -5.436811e+01  -4.182986e+01
   1.590609e+01  -8.961581e+01
   1.067451e+02  -7.410830e+01
   1.459923e+02   6.036078e+01
   8.109654e+01   3.922116e+01
  -1.018449e+02   8.829368e+00
  -3.511536e+01  -3.047389e+01
   7.619207e+01  -7.559632e+01
   2.980440e+02  -1.679793e+01
   2.646473e+02   5.948148e+01
   5.805137e+01   3.058728e+02
  -2.047262e+02   2.630203e+02
  -2.491132e+02   1.181644e+02
  -1.840253e+02  -5.272543e+01
  -2.182081e+00  -1.013304e+02
   9.761744e+01  -1.152496e+02
  -8.592053e+00   9.350121e+01
  -1.853208e+02   9.526274e+01
  -1.729511e+02  -1.268394e+02
  -9.406671e+01  -2.446321e+02
   9.556071e+01  -1.417768e+02
   1.069793e+02  -4.795793e+01
   3.222895e+01   1.606077e+01
  -1.024441e+02  -3.734274e+01
  -5.839839e+01  -1.166650e+02
   1.033846e+02  -1.223454e+02
   1.873488e+02  -3.749693e+01
   2.292438e+02   1.218660e+02
  -1.445236e+01   2.463952e+02
  -1.738549e+02   1.142695e+02
  -2.163865e+02   7.168285e+01
  -4.667921e+01  -1.207314e+02
   4.001274e+01  -8.240886e+01
   1.309029e+01  -3.362282e+01
   3.412095e+01  -8.320490e+00
  -1.031168e+01  -4.404598e+01
   3.504853e+01  -2.137340e+01
   5.875252e+01   2.140477e+01
   5.540252e+00   1.025059e+02
   1.391458e+01   1.416502e+02
  -1.646757e+02   1.313754e+02
  -2.398121e+02  -2.942768e+01
  -1.726418e+02  -1.366114e+02
  -3.934971e+01  -2.487443e+02
   1.305352e+02  -1.807084e+02
   1.076452e+02   1.333743e+01
   6.687789e+01   4.430002e+01
   4.816142e+00   6.069326e+01
   6.398108e+01   5.308572e+01
   6.130279e+01   1.392018e+00
   4.750116e+01  -1.553822e+00
  -1.218352e+02   1.004543e+02
  -8.579675e+01   7.390657e+01
  -1.167276e+02  -2.760535e+01
  -3.252483e+01  -1.730179e+02
   1.362543e+02  -9.469842e+01
   1.490388e+02   1.061422e+02
   1.266783e+02   2.160844e+02
  -1.308323e+02   2.796005e+02
  -2.237846e+02   7.647714e+01
  -3.329194e+02  -5.440405e+01
  -1.570057e+02  -2.304160e+02
  -9.586027e+00  -1.215665e+02
   7.255734e+01  -8.741176e+01
   9.106564e+01  -5.585726e+01
   7.448686e+01  -3.345014e+01
   1.199518e+02  -1.083174e+02
   1.401486e+02  -1.301501e+01
   1.509662e+02   1.312689e+02
   5.664538e+01   2.360284e+02
  -1.012939e+02   1.700673e+02
  -1.920420e+02  -9.389159e+00
  -1.280310e+02  -1.760743e+02
  -2.075950e+01  -2.282921e+02
   1.186906e+02  -4.417828e+01
   3.661986e+01   5.508735e+01
   5.131914e+01   5.674750e+01
  -3.010959e+01   5.955430e+01
   6.565328e+01  -8.331830e+00
   8.513578e+01   2.526810e+01
   4.515505e+01  -2.126115e+01
  -3.045608e+01   7.174302e+01
  -1.862036e+02  -1.148291e+01
  -1.051174e+02  -1.005340e+02
   8.475366e+00  -1.571503e+02
   1.314239e+02  -9.678050e+01
   1.308286e+02  -1.301917e+01
   9.713055e+01   7.304160e+01
  -3.561279e+01   2.156847e+01
  -5.074782e+01  -3.258189e+01
  -8.232806e+00  -7.057287e+01
   1.547687e+02  -2.325275e+01
   4.970515e+01   6.364492e+01
  -2.404278e+01   7.177598e+01
   3.700572e+01   8.102716e+01
   6.443962e+01  -7.198831e+01
   7.987522e+01   3.089544e+00
   6.229102e+01   5.754461e+01
  -8.646619e+00   1.113413e+02
  -1.267399e+02   1.433388e+02
  -1.333371e+02   1.181546e+01
  -1.690683e+02  -1.057474e+02
   4.441021e+01  -1.267245e+02
   8.268300e+01  -4.728780e+01
   6.980241e+01   1.015356e+01
  -8.750018e+01  -1.546351e+01
  -1.220935e+02  -6.790595e+01
  -1.012571e+02  -1.503064e+02
   9.592102e+01  -1.084962e+02
   1.754528e+02  -4.113884e+01
   1.605689e+02   6.049546e+01
   3.299604e+01   1.301946e+02
  -8.286427e+01   3.995986e+01
   2.169198e+01  -3.986098e+00
   6.247987e+01  -6.606471e+01
   9.203813e+01   5.065674e+01
  -7.678229e+00   1.554966e+02
  -8.971097e+01   1.609446e+02
  -2.021311e+02   5.483134e+01
  -1.853013e+02  -8.606239e+01
  -4.547932e+01  -1.857248e+02
   8.728712e+01  -1.166246e+02
   1.135650e+02   1.243623e+01
   9.249834e+01   1.690832e+02
  -2.347799e+01   1.075128e+02
  -2.071054e+01  -2.389540e+01
   7.835830e+00   3.312955e+01
   2.980165e-01  -5.160348e+01
  -3.183599e+01   1.301733e+01
  -3.965688e+01  -3.564392e+00
  -6.067961e+01  -7.520142e+01
  -5.999569e+01  -1.495824e+02
   2.161726e+01  -2.888834e+01
   1.815351e+02   4.209454e+01
   1.107153e+02   1.227290e+02
  -4.494517e-01   3.241028e+01
  -9.445739e+01  -1.415310e+01
  -5.412539e+01   1.495351e+01
   2.880102e+01   1.253292e+01
   6.709996e+01  -3.567493e+00
   9.719271e+00  -1.156821e+02
  -2.524951e+01   1.941016e+00
   3.828824e+00   4.928779e+00
   1.247217e+02  -6.826835e+01
   9.659101e+01   5.010024e+01
   2.184640e+01   1.053319e+02
  -1.325960e+02   9.310286e+01
  -2.112723e+02   4.425110e+01
  -1.729809e+02  -6.261898e+00
  -2.778850e+01  -2.015355e+02
   1.145291e+02  -1.124992e+02
   1.173405e+02  -6.450219e+01
   4.667022e+01   2.198789e+00
  -1.522298e+01   3.579713e+00
   6.862361e+00   8.478059e+01
   5.910323e+01  -3.104197e+01
   6.645805e+01   1.500831e+00
   1.170968e+01   9.620663e+01
  -3.134399e+01   7.831447e+01
  -9.798484e+01  -4.968346e+01
  -8.532387e+01  -1.542419e+02
   3.016293e+01  -1.032973e+02
   3.283088e+01  -2.358346e+01
   1.036543e+02   5.278359e+01
   2.320214e+00   1.296609e+02
  -8.908197e+00   4.485024e+01
  -1.123455e+02  -3.346899e+01
  -5.062188e+01  -5.659303e+01
   3.041321e+01  -8.763018e+01
   3.025228e+01  -2.014618e+01
  -8.491484e+01  -3.604333e+01
  -1.175359e+02  -2.351586e+01
  -3.501433e+01  -8.027001e+01
   6.829047e+00  -7.940367e+00
   1.107702e+02  -4.078049e+01
   2.628227e+01  -8.848639e+00
  -6.023281e+01   7.780549e+01
  -8.614508e+01   3.555420e+01
   7.319371e+00  -1.738505e+01
  -1.748576e+01  -5.850169e+01
  -5.197264e+01  -6.264265e+01
   2.651928e+01  -1.263074e+01
   4.556365e+01   5.154287e+01
   1.671446e+01   7.332120e+01
  -1.251327e+01  -4.880381e+00
  -4.238925e+01  -2.220937e+01
   3.431362e+00  -6.500237e+01
   1.893701e+01  -2.929546e+01
  -5.333287e+00   4.489972e+01
  -4.975835e+00  -1.282931e+01
   1.019988e+01  -3.904356e+01
   1.669309e+01   1.607350e+01
   5.948367e+01   2.930524e+01
  -3.520964e+00   5.920260e+01
  -5.761946e+01   1.179031e+01
  -4.504633e+01   1.273631e+01
  -6.252365e+00  -7.735463e+01
   4.141499e+01  -4.719270e+01
   9.634482e+01   3.088018e+01
   3.176330e+01   7.358132e+01
  -5.494034e+01   3.300629e+01
  -6.462734e+01  -2.148508e+01
   1.707286e+01  -4.625980e+00
   8.587641e+01   3.041630e+01
   5.506204e+01   7.005055e+01
  -7.300837e+01   7.672289e+01
  -5.825547e+01   3.749604e+01
