
 $NMID
 id='ANONYMOUS ', fmtdat='(2E16.6)'
 volume=1.0
 tramp=1.0
 $END
   4.835166e+03  -1.656329e+02
   2.850778e+03   2.985276e+03
  -9.167501e+02   3.076585e+03
  -2.376021e+03   9.490871e+02
  -1.121924e+03  -8.868833e+02
   8.153055e+02  -7.746378e+02
   1.045541e+03   5.087745e+02
   5.018303e+01   1.226390e+03
  -9.587999e+02   8.812545e+02
  -1.090050e+03  -1.334148e+02
  -5.342985e+02  -1.033765e+03
   2.590141e+02  -9.953147e+02
   7.978633e+02  -1.609155e+02
   4.067370e+02   8.045273e+02
  -3.188052e+02   7.900507e+02
  -6.927119e+02  -2.579006e+00
  -2.822287e+02  -7.640106e+02
   3.702881e+02  -6.822391e+02
   6.206146e+02  -1.065029e+02
   3.979695e+02   4.177931e+02
   4.397537e+00   5.009687e+02
  -2.942774e+02   2.943852e+02
  -2.630919e+02   2.287543e+01
   1.134003e+02  -1.903367e+02
   4.643614e+02   1.091409e+02
   2.929196e+02   4.725173e+02
  -4.926175e+02   4.592986e+02
  -9.354532e+02  -4.054450e+01
  -5.189914e+02  -6.444206e+02
   4.363742e+02  -5.675796e+02
   7.821898e+02  -3.033487e+01
   4.052591e+02   5.453597e+02
  -2.844839e+02   5.736625e+02
  -6.064305e+02   2.503283e+02
  -4.431300e+02  -2.989643e+02
  -7.990897e+01  -5.296173e+02
   2.332512e+02  -3.587979e+02
   2.313184e+02   2.486680e+02
  -1.627687e+02   5.008599e+02
  -4.988301e+02   8.217913e+01
  -3.517212e+02  -7.955788e+02
   3.865690e+02  -8.278896e+02
   6.676869e+02  -8.796700e+01
   3.052573e+02   5.582312e+02
  -3.007188e+02   3.516509e+02
  -4.754312e+02  -3.126220e+02
   6.291599e+01  -5.985163e+02
   6.190043e+02  -1.704039e+02
   6.916719e+02   4.489622e+02
   1.179721e+02   6.605397e+02
  -4.192427e+02   4.024120e+02
  -6.837166e+02  -9.789537e+01
  -4.235172e+02  -3.750294e+02
   2.066776e+02  -4.461656e+02
   5.303601e+02  -9.761584e+01
   3.176402e+02   2.237115e+02
  -1.486923e+02   1.258502e+02
  -2.208332e+02  -1.534832e+02
   2.103658e+02  -1.966716e+02
   3.898568e+02   6.593661e+01
   1.672913e+02   3.583094e+02
  -2.337849e+02   2.387669e+02
  -3.515254e+02   8.224264e+01
  -2.264644e+02  -4.565648e+01
   4.987385e+01  -1.994690e+02
   2.324106e+02  -3.473794e+02
   3.971788e+02  -2.346338e+02
   3.240507e+02   1.312910e+02
   1.129028e+02   4.625288e+02
  -1.200697e+02   4.067087e+02
  -2.010106e+02   1.541613e+02
  -6.721787e+01  -1.632970e+01
  -9.200469e+01   1.198441e+02
  -1.293693e+02   1.927987e+02
  -2.778074e+02  -3.246863e+01
  -1.508117e+02  -2.906424e+02
   9.615225e+01  -2.885090e+02
   2.310335e+02  -1.734370e+01
   2.407229e+02   2.761552e+02
  -2.693550e+01   3.499982e+02
  -2.904594e+02   1.011381e+02
  -4.686048e+02  -1.595513e+02
  -2.166597e+02  -3.714980e+02
   7.396709e+01  -3.485276e+02
   2.659876e+02  -1.443241e+02
   1.596070e+02  -4.163996e+01
   1.095308e+01  -3.617288e+00
   2.503557e+02  -1.058734e+02
   4.304822e+02   8.881811e+01
   3.215372e+02   3.067652e+02
  -2.213176e+01   3.590468e+02
  -3.384534e+02   3.649321e+02
  -4.911598e+02   1.766235e+02
  -3.249742e+02  -1.425138e+02
  -1.006546e+02  -2.797528e+02
   2.251032e+02  -2.718803e+02
   1.039614e+02  -7.101873e+01
  -9.546712e+01   1.122399e+02
  -2.333419e+02   9.477407e+00
  -7.357838e+01  -2.068889e+02
   2.595782e+02  -1.851017e+02
   2.591185e+02   1.190421e+02
  -9.896051e+00   2.158358e+02
  -2.212229e+02   3.005779e+01
  -2.083183e+02  -2.285803e+02
   5.879721e+00  -4.174417e+02
   2.661787e+02  -1.844465e+02
   3.394702e+02  -8.059313e+00
   2.414300e+02   2.653504e+02
   1.603537e+02   2.895438e+02
  -1.228663e+02   1.758669e+02
  -2.263344e+02   2.834469e+01
  -9.308191e+01  -4.556184e+00
   1.994184e+01   2.413715e+01
   1.065571e+02   1.134393e+02
  -5.624987e+01   1.153243e+02
  -2.247381e+02  -2.143467e+00
  -5.783924e+01  -6.220507e+01
   8.000105e+01  -9.295048e+00
   2.355962e+01   5.989035e+01
  -8.361963e+01   8.048472e+01
  -2.749972e+02   3.738876e+01
  -3.258820e+02  -1.222956e+02
  -8.543082e+01  -3.039760e+02
   1.761134e+02  -3.072432e+02
   2.726267e+02  -1.780905e+02
   2.090890e+02   3.234303e+01
   1.330545e+01   8.907308e+01
  -1.112478e+02  -4.531297e+01
   6.058231e+01  -1.235200e+02
   2.363385e+02  -1.339917e+02
   2.297653e+02   1.313466e+02
   6.763156e+01   1.996659e+02
  -6.571061e+01   1.809897e+02
  -1.532279e+02  -1.601292e+01
  -1.028648e+02  -3.548911e+01
   1.432983e+01   3.912460e+01
   5.401820e+01   5.587765e+01
  -7.217687e+01   1.409026e+02
  -1.638759e+02  -3.878494e+01
  -2.187439e+02  -1.445883e+02
   2.297391e+01  -2.457552e+02
   1.769531e+02  -1.466386e+02
   2.251037e+02   7.202217e+00
   1.510222e+02   1.057373e+02
  -5.653025e+01   1.443166e+02
  -1.087415e+02   2.179418e+01
  -6.136988e+01  -4.470988e+01
   4.763872e+01  -2.865559e+01
  -5.016049e+01  -4.160597e+00
  -3.695562e+01  -1.646819e+01
  -1.184655e+02  -9.017111e+01
  -2.360446e+01  -1.824750e+02
   1.642739e+02  -2.222589e+02
   3.004108e+02   6.342023e+00
   1.502286e+02   2.442236e+02
   2.649272e+01   1.975379e+02
  -1.002934e+02   2.307304e+02
  -1.580570e+02   3.081116e+01
  -1.451250e+01  -7.773110e+01
  -3.484916e+01  -4.612821e+01
  -7.904035e+01   5.243534e+01
  -9.513216e+01  -3.604381e+00
  -6.075125e+01  -1.458262e+02
   5.238660e+01  -9.076536e+01
   1.333364e+02  -1.447671e+01
   7.591064e+01   1.047454e+02
   1.219032e+01   1.049772e+02
  -1.686577e+02   9.191311e+01
  -1.997904e+02  -1.172726e+02
  -1.304714e+02  -2.327037e+02
   1.566860e+02  -2.068580e+02
   2.583934e+02  -8.070928e+01
   2.686926e+02   1.192661e+02
   1.470913e+02   2.040619e+02
  -4.900603e+01   1.435302e+02
  -3.822001e+01   1.068620e+02
  -7.394944e+01   1.064291e+02
  -1.448155e+01   1.645136e+02
  -1.211195e+02   6.185217e+01
  -1.197008e+02  -8.140495e+01
  -1.121426e+02  -1.347888e+02
  -5.287109e+01  -1.655818e+02
   9.615371e+01  -1.365326e+02
   1.992767e+02  -7.310031e+01
   1.505821e+02   1.273951e+02
   7.757769e+00   1.942905e+02
  -1.217960e+02   1.258242e+02
  -7.377894e+01  -2.068814e+01
  -3.543063e+01  -2.748896e+01
   4.234842e+01  -6.134806e+01
   1.708366e+01   2.908179e+01
  -8.978166e+01   1.089491e+01
   2.526345e+00  -4.620391e+01
   5.010544e+01  -1.153441e+02
   1.752243e+02  -1.602779e+01
   1.380369e+02   6.540612e+01
  -7.671252e+00   1.039618e+02
  -9.174365e+01   2.292097e+01
  -1.372910e+02   1.761996e+01
  -8.486717e+01  -4.464534e+01
   5.919191e+01  -7.465279e+01
   9.376606e+01   1.221124e+01
   5.735986e+01   9.398466e+01
  -7.095318e+01   5.486088e+01
  -8.191879e+01   2.131384e+01
  -6.366469e+01  -3.898379e+01
  -5.325143e+01  -4.530914e+00
  -7.025010e+01  -2.131804e+01
  -6.934371e+01  -4.736329e+00
  -6.782268e+01  -9.650837e+01
   2.574807e+01  -9.119527e+01
   1.380042e+02  -1.284062e+02
   1.805858e+02  -2.753987e+01
   6.218394e+01   1.266893e+02
   1.152468e+01   1.799567e+02
  -3.606885e+01   1.042589e+02
  -1.151700e+02  -2.643074e+01
   9.646085e+01  -2.181148e+01
   1.217123e+02   7.528690e+01
   1.515813e+02   7.060588e+01
  -9.294145e+01   1.262075e+02
  -2.156963e+02   4.030782e+01
  -1.462844e+02  -6.587057e+01
  -7.311524e+01  -1.050147e+02
   1.461181e+01  -6.833970e+01
   5.969008e+01  -4.367637e+01
  -6.384290e+01   7.797650e+00
  -6.781249e+01  -4.367244e+01
  -1.605629e+01  -1.333163e+02
   8.267692e+01  -9.891601e+01
   1.758050e+02  -9.628321e+01
   1.736664e+02   1.295075e+02
   3.113559e+01   1.922170e+02
  -8.606208e+01   1.467250e+02
  -1.077452e+02   3.737390e+01
  -7.931222e+01  -1.113323e+02
  -3.283127e+01  -1.414711e+02
   5.045875e+01   5.733471e+00
   8.662969e+01  -6.106133e+01
   1.087179e+02   4.105405e+01
   4.560268e+01   7.670778e+00
   1.222392e+01   8.593007e+01
   8.856493e+01   1.017981e+02
  -2.428710e+00   1.136537e+02
  -7.243257e+01   3.641746e+01
  -1.294097e+02  -5.102044e+01
  -1.877783e+02  -1.198191e+02
  -5.526493e+00  -6.118882e+01
   1.222802e+02  -1.068369e+02
   1.634657e+02   3.654819e+01
  -2.314594e+01   2.947070e+01
  -5.386677e+01   7.705436e+01
  -4.866040e+01  -1.535886e+01
   4.865723e+01  -7.243280e-01
   1.972380e+01   4.201206e+01
  -6.690287e+01  -2.665690e+01
  -1.540020e+01  -6.716906e+01
   2.389210e+01  -1.109382e+02
   1.272374e+02  -1.156514e+02
   1.568854e+02  -5.355569e+01
   1.720808e+02  -7.997399e-01
   3.519132e+01   2.056790e+02
  -9.859031e+01   1.514067e+02
  -1.078365e+02   5.281683e+01
  -5.141672e+01   7.317773e+01
  -1.503556e+01  -5.189575e+01
   1.598452e+01   5.726935e+01
  -2.660293e+01  -4.812182e+01
  -4.409029e+01  -8.079525e+01
  -4.053638e+01  -4.515512e+01
   1.664205e+01  -1.447802e+02
   1.114471e+02  -2.164659e+01
   3.721442e+01   1.005839e+02
  -2.868573e+01   9.417572e+01
  -8.008991e+01   4.078360e+01
  -7.982893e+01  -6.465670e+01
  -1.406450e+01  -1.039848e+02
   8.436236e+01  -5.472712e+01
   1.161128e+02  -4.604477e+00
   5.414726e+01   4.491125e+01
  -5.549673e+01   5.121340e+01
  -3.365585e+01   2.400463e+01
   1.675835e+01   2.128499e+01
   4.712176e+01  -6.079266e+01
   4.790277e-01   7.076901e+00
  -6.668049e+01   5.009927e+01
  -9.301249e+01   5.012064e+01
  -8.184494e+01  -2.617953e+01
   1.077586e+01  -7.170543e+01
   4.304651e+01  -6.774180e+01
   5.017861e+01  -2.047771e+01
   5.025045e+00   3.774748e+01
  -6.837443e+00   8.728109e+01
  -1.462128e+01  -2.578351e+01
  -9.206623e-01  -4.658339e+01
   2.773258e+00   2.153205e+01
   7.038044e-01  -2.705272e+01
  -6.437350e+00  -5.953814e+00
   2.324301e+01   1.550227e+01
   1.043850e+01  -1.040480e+01
   1.661671e+01  -8.159782e+00
   2.753895e+01   3.564910e+01
   2.116645e+01   5.636476e+01
  -6.084656e+01  -2.469071e+01
  -3.344249e+01  -2.553088e+01
  -5.453732e+00  -4.982353e+01
   6.496930e+01  -5.880827e+01
   6.229743e+01   5.379669e+01
   2.640235e+01   1.115174e+02
  -7.369033e+01  -6.569318e+00
  -4.013937e+01   2.206054e+00
  -2.609484e+01  -3.693406e+01
  -2.508575e+01  -4.225983e+01
   7.713575e+01   2.402514e+01
   3.741284e+01   2.016356e+01
  -1.108496e+02   4.166491e+00
   3.494434e+01  -1.162772e+01
   2.608073e+01  -8.096662e+01
   8.041056e+01  -2.062226e+00
