
 $NMID
 id='ANONYMOUS ', fmtdat='(2E16.6)'
 volume=1.0
 tramp=1.0
 $END
  -4.498021e+03  -8.230008e+01
  -2.560407e+03  -2.749027e+03
   8.278065e+02  -2.866217e+03
   2.195528e+03  -8.333244e+02
   9.542050e+02   8.034176e+02
  -7.319280e+02   6.128612e+02
  -9.278086e+02  -4.495388e+02
   5.761435e+01  -1.152684e+03
   8.373192e+02  -8.110365e+02
   9.938636e+02   9.593870e+01
   3.675742e+02   8.933827e+02
  -2.706247e+02   9.188403e+02
  -5.974655e+02   4.347412e+01
  -4.125250e+02  -7.875482e+02
   2.878953e+02  -7.433067e+02
   6.330223e+02   8.036541e+00
   2.837709e+02   6.924711e+02
  -3.595544e+02   6.695982e+02
  -5.367618e+02   2.532937e+01
  -3.890223e+02  -3.313570e+02
  -5.352394e+01  -4.272991e+02
   2.983387e+02  -2.295137e+02
   3.217044e+02   2.516319e+01
  -1.765452e+02   1.670430e+02
  -3.818847e+02  -7.258272e+01
  -2.283704e+02  -4.510744e+02
   4.481007e+02  -4.146282e+02
   8.085632e+02   1.027511e+02
   4.004369e+02   5.530476e+02
  -3.826433e+02   4.897120e+02
  -7.636263e+02  -7.823502e+01
  -3.568517e+02  -4.858897e+02
   3.637700e+02  -4.977426e+02
   6.098335e+02  -2.322971e+02
   4.299983e+02   2.611283e+02
   3.226292e+01   5.201980e+02
  -2.533216e+02   2.490356e+02
  -1.246416e+02  -2.389827e+02
   1.985433e+02  -4.458573e+02
   5.216399e+02   2.009736e+01
   2.602698e+02   7.318061e+02
  -3.404323e+02   6.559863e+02
  -5.877849e+02  -2.710739e+01
  -2.897703e+02  -5.632962e+02
   2.410909e+02  -2.654697e+02
   3.566161e+02   3.660777e+02
  -1.490635e+02   5.581562e+02
  -5.616110e+02   1.201512e+02
  -5.601060e+02  -4.642739e+02
  -1.420194e+02  -5.796156e+02
   3.925761e+02  -4.147065e+02
   7.027687e+02   7.396590e+01
   3.920854e+02   4.213667e+02
  -1.495930e+02   3.735910e+02
  -4.999734e+02   7.638304e+01
  -2.768988e+02  -1.847825e+02
   1.124984e+02  -1.420334e+02
   1.590088e+02   1.668256e+02
  -1.612334e+02   2.026582e+02
  -3.917775e+02  -1.112759e+02
  -1.475404e+02  -2.597373e+02
   1.564776e+02  -2.550462e+02
   3.265844e+02  -1.551250e+01
   1.342986e+02   1.026278e+02
  -9.089115e+01   2.514249e+02
  -1.826533e+02   3.300069e+02
  -3.248755e+02   1.772369e+02
  -2.766873e+02  -1.415256e+02
  -6.611263e+01  -4.016250e+02
   7.204892e+01  -3.866711e+02
   1.080378e+02  -6.973136e+01
   1.443671e+01   8.190571e+01
   6.125281e+01  -2.913350e+01
   1.739365e+02  -1.491436e+02
   2.620396e+02   4.078946e+01
   1.975637e+02   2.966693e+02
  -6.083333e+01   2.748711e+02
  -2.319771e+02   5.003980e+01
  -1.577579e+02  -2.826440e+02
  -6.426591e-01  -2.898091e+02
   2.780875e+02  -9.659254e+01
   4.117643e+02   1.238295e+02
   1.858844e+02   3.826004e+02
  -1.456533e+02   2.932652e+02
  -2.631164e+02   1.129939e+02
  -1.776437e+02   3.514750e+01
  -5.788074e+01   2.116440e+00
  -1.991487e+02   4.195785e+01
  -3.265114e+02  -2.236741e+01
  -3.517347e+02  -1.899517e+02
  -2.631870e+01  -4.797112e+02
   3.407185e+02  -4.448309e+02
   4.866553e+02  -1.950198e+02
   3.252675e+02   8.969333e+01
   3.292616e+01   2.802108e+02
  -8.327667e+01   2.194653e+02
  -1.049854e+02   7.055928e+01
   1.523801e+02  -8.012232e+01
   2.204603e+02  -5.432187e+00
   3.388144e+01   2.390705e+02
  -1.768231e+02   1.970179e+02
  -2.005400e+02  -7.467157e+01
   4.939751e+01  -2.014040e+02
   1.959950e+02  -6.845827e+01
   1.916019e+02   2.950120e+02
  -2.619334e+01   3.507309e+02
  -2.235771e+02   1.658820e+02
  -2.952930e+02  -6.733505e+01
  -2.999555e+02  -3.008830e+02
  -8.558612e+01  -2.472439e+02
   1.361728e+02  -1.319682e+02
   2.552275e+02   1.204826e+00
   4.735344e+01   4.866194e+00
  -1.059227e+02  -5.966541e+01
  -4.014096e+01  -1.271091e+02
   9.580958e+01  -6.848519e+01
   1.945235e+02   1.012482e+01
   6.744081e+01   4.863413e+01
  -5.429430e+01  -5.234648e+01
  -3.856910e+01  -9.935288e+01
   1.222622e+02  -9.059351e+01
   2.314874e+02  -1.698741e+01
   2.820959e+02   1.600136e+02
   8.913724e+01   2.410601e+02
  -2.367991e+02   2.428968e+02
  -3.001535e+02   7.323808e+01
  -1.290961e+02  -8.056816e+01
   4.272902e+00  -1.102252e+02
   1.410166e+02  -3.577049e+01
  -4.862073e+01   1.115707e+02
  -1.728320e+02   1.571065e+01
  -2.397807e+02  -1.064389e+02
  -6.174082e+01  -1.278530e+02
   1.108929e+02  -1.398445e+02
   1.255367e+02  -2.879086e+01
   1.946064e+01   2.248651e+01
  -1.938674e+01  -1.595032e+00
  -8.006323e+01  -6.828781e+01
   3.948948e+01  -1.268625e+02
   1.295796e+02  -6.835656e+01
   1.939307e+02   1.634803e+02
   2.733307e+01   1.663743e+02
  -1.344928e+02   1.926301e+02
  -1.999631e+02  -2.925558e+01
  -7.163662e+01  -6.097130e+01
   6.664491e+01  -1.256635e+02
   8.392654e+01  -8.894190e+01
   4.069478e+01   6.078216e+01
  -4.959059e+01  -3.245885e+01
  -1.329076e+01   1.855099e+01
   5.935748e+01   2.758733e+01
   8.804033e+01   6.787240e+01
   2.143534e+01   1.786559e+02
  -8.828731e+01   1.763826e+02
  -2.754978e+02   7.625006e+01
  -2.371224e+02  -1.525413e+02
  -4.475716e+01  -2.278432e+02
   9.342124e+01  -1.567556e+02
   1.004117e+02  -1.505413e+01
   5.187902e+01   6.157612e+01
  -2.553783e+01   2.508076e+01
   3.914729e+01  -2.505785e+01
   3.094787e+01  -2.482479e+01
   9.554007e+01   6.173260e+01
  -5.086380e+00   1.151680e+02
  -7.916691e+00   1.070564e+02
  -7.134026e+01   1.696429e+01
   4.939753e+01  -6.311293e+01
   1.416657e+02  -4.064421e+01
   2.248412e+02   4.416873e+01
   1.100960e+02   1.227048e+02
  -9.221855e+01   2.493619e+02
  -2.907391e+02   1.427395e+02
  -2.444477e+02  -8.871355e+01
  -1.102521e+02  -1.977846e+02
   8.572201e+01  -1.236353e+02
   1.498733e+02  -1.114209e+02
   5.538457e+01  -5.817936e+01
   4.812061e+01  -1.097423e+02
   6.373608e+01  -7.207202e+01
   1.138309e+02   6.900311e+01
   1.311161e+02   1.975419e+02
   5.680216e+01   2.681925e+02
  -4.089909e+01   2.171574e+02
  -1.422631e+02   3.455146e+01
  -1.426108e+02  -8.925405e+01
  -4.144642e+01  -1.364859e+02
   5.123182e+01  -9.430840e+01
   6.115322e+01  -1.688196e+00
  -1.599049e+01   1.333271e+01
  -2.391421e+01   4.551357e+01
   3.858779e+01   8.636805e+01
   7.005897e+01   1.453560e+01
   7.355845e+01   5.701620e+01
  -5.950327e+01  -1.219586e+01
  -1.305948e+02   6.624975e+01
  -1.583705e+02  -7.161298e+00
  -3.178834e+01  -7.821144e+01
   1.205453e+02  -8.575650e+01
   1.395651e+02  -4.207562e+01
   8.690937e+01   7.047817e+01
  -8.003045e+01   6.171813e+01
  -5.645419e+01  -4.154428e+01
   1.210106e+01  -7.722332e+01
   8.958044e+01  -1.072343e+02
   5.100397e+01   2.794517e+00
   6.929737e+01   1.358067e+02
   6.991661e+01   1.031823e+01
   7.690098e+01  -3.085202e+00
   7.768868e+01  -1.872125e+01
   7.224322e+01   1.099464e+02
  -9.104712e+01   9.900468e+01
  -1.365597e+02   2.207956e+02
  -1.801034e+02   5.110176e+01
  -1.233137e+02  -1.395557e+02
  -2.241141e+01  -1.521044e+02
   8.666304e+01  -6.327782e+01
   1.043130e+02  -1.258263e+00
  -4.135836e+01  -2.451366e+01
  -1.149856e+02  -3.356210e+01
  -1.103366e+02  -8.262644e+01
   1.113048e+02  -1.294669e+02
   1.480970e+02  -3.626169e+01
   1.967494e+02   4.804851e+01
   1.520111e+01   1.329169e+02
  -1.177177e+02   5.335826e+01
  -5.757948e+01  -1.266506e+01
   2.751809e+01  -5.699622e+01
   1.208910e+02   5.419908e+01
   1.589015e+01   1.868652e+02
  -1.241565e+02   1.621605e+02
  -1.207678e+02   1.141268e+02
  -1.236121e+02  -1.160459e+02
   5.545291e+00  -1.991673e+02
   1.020568e+02  -1.368190e+02
   7.502947e+01   2.185348e+00
   2.267487e+01   1.418877e+02
  -4.474934e+01   1.257818e+02
  -2.649169e+01  -3.152512e+00
  -1.215076e+02  -5.850325e+01
   1.027787e+01   1.172049e+01
   1.041553e+01   3.649018e+00
  -2.870413e+01  -4.820367e+01
  -1.790512e+01  -7.174220e+01
  -6.174950e+01  -1.185748e+02
   1.488734e+01  -1.129117e+01
   1.013861e+02   4.637659e+00
   1.225354e+02   1.050126e+02
   5.265090e+01   6.772192e+01
  -1.143787e+02  -8.478884e-01
  -8.573918e+01   3.623229e+01
   1.652850e+01  -5.062839e+01
   2.627509e+00  -1.593436e+00
   1.012343e+01  -3.724553e+01
  -3.734651e+01  -3.115413e+01
  -1.449842e+01   1.470472e+01
   1.028993e+02  -2.036594e+01
   1.105410e+02  -6.183200e+00
  -4.024449e+01   1.250057e+02
  -1.210478e+02   6.054745e+01
  -1.907168e+02   2.891809e+01
  -1.583001e+02  -7.597928e+01
  -4.448277e+01  -1.722193e+02
   6.459767e+01  -1.370157e+02
   1.018290e+02  -9.192895e+01
   1.018253e+02   4.929661e+01
   1.718199e+00   5.242390e+01
   6.829935e+01   4.811378e+01
  -2.914241e+01  -1.340917e+01
   4.338760e+01  -4.554964e+01
  -5.194332e+01   7.598269e+01
  -1.039045e+01   1.142330e+02
  -7.346619e+01  -1.251241e+01
  -8.595048e+01  -1.099074e+02
   3.662350e+01  -9.528071e+01
   1.331736e+02  -4.382351e+01
   1.446234e+02   8.375755e+01
  -1.283676e+01   9.200924e+01
  -7.292800e+01   9.133966e+01
  -6.824378e+01  -4.464016e+01
  -3.173534e+01  -6.151834e+01
   2.421743e+01  -7.998965e+01
   8.484586e+01  -4.465366e+01
  -1.048078e+01   1.366939e+01
  -8.766234e+01  -9.802695e-01
  -3.272631e+01  -1.788584e+01
   8.274136e+01  -5.202302e+00
   9.950364e+01  -8.571300e+01
   8.132579e+01   1.921061e+01
   2.870433e+01   4.429847e+01
  -1.764854e+01   6.460038e+01
  -1.334853e+01   2.684145e+00
   2.709222e+01  -4.884577e+01
   3.155688e+01  -5.586930e+01
   3.315112e+01   5.085686e+01
   5.086000e+01   2.357244e+01
  -3.976905e+00   7.884053e+00
  -5.487598e+01   5.275203e+01
   1.162277e+01  -4.707655e+01
  -6.997121e+01  -7.977269e+00
   1.045732e+00  -1.405383e+00
   3.550234e+01  -3.105094e+01
   7.156682e+00  -3.903266e+01
   1.341439e+01  -1.120950e+01
   3.227265e+01   1.372604e+01
   3.079192e+00   4.240117e+01
  -3.198947e+00   3.208195e+01
  -4.927970e+01   1.506909e-01
  -2.782846e+01  -4.024527e+01
  -4.110392e+01  -7.247652e+01
   6.321478e+01  -3.920867e+01
   5.731164e+01   3.666613e+01
   4.876323e+01  -1.533899e+01
  -1.442278e+01   4.911515e+01
  -1.117390e+02   1.213918e+01
  -5.793437e+01  -9.044706e+00
   4.028628e+01   2.369117e+01
   2.915135e+01  -5.915085e+00
  -3.683653e+00   1.102866e+02
  -6.495766e+01   2.284040e+01
