
 $NMID
 id='ANONYMOUS ', fmtdat='(2E16.6)'
 volume=1.0
 tramp=1.0
 $END
   2.939611e+03   5.091213e+01
   1.836778e+03   1.549275e+03
  -2.109141e+02   1.804351e+03
  -1.195713e+03   9.733121e+02
  -7.576178e+02   2.741179e+01
   1.819860e+02  -2.122708e+02
   3.797713e+02   1.292211e+02
  -6.485170e+01   5.544572e+02
  -4.592255e+02   5.768754e+02
  -5.736362e+02   5.884962e+01
  -3.454118e+02  -4.627044e+02
   7.759959e+01  -5.540297e+02
   3.015150e+02  -1.104334e+02
   2.028499e+02   3.785128e+02
  -1.099956e+02   4.977481e+02
  -3.316774e+02   4.674427e+01
  -2.697591e+02  -4.358962e+02
   1.625961e+02  -4.999159e+02
   3.925582e+02  -1.720455e+02
   3.644392e+02   1.268869e+02
   7.813546e+01   3.019394e+02
  -9.495169e+01   2.049247e+02
  -7.108379e+01   1.622840e+01
   1.020863e+02   2.361733e+01
   2.794096e+02   1.462317e+02
  -2.033533e+01   3.175180e+02
  -3.822717e+02   1.693822e+02
  -5.334928e+02  -1.073036e+02
  -2.401338e+02  -2.688778e+02
   3.185856e+02  -2.230944e+02
   5.243307e+02   1.459153e+02
   2.086927e+02   3.115840e+02
  -1.811998e+02   2.917716e+02
  -3.773578e+02   1.286159e+02
  -2.665397e+02  -1.275184e+02
  -6.482604e+01  -3.034712e+02
   2.670149e+01  -1.967787e+02
   1.880162e+01   1.720766e+02
  -1.515886e+02   1.758423e+02
  -2.738773e+02  -1.196178e+02
  -9.359944e+01  -4.917537e+02
   2.400520e+02  -4.049781e+02
   3.239425e+02  -2.365231e+01
   1.248222e+02   3.880427e+02
  -1.820728e+02   1.146660e+02
  -1.311071e+02  -2.503809e+02
   9.482069e+01  -3.475161e+02
   4.161192e+02  -2.158929e+01
   4.072398e+02   3.354302e+02
   7.764043e+01   4.307047e+02
  -3.163658e+02   2.708366e+02
  -4.214164e+02   8.156350e+00
  -2.860700e+02  -2.517011e+02
   9.133548e+01  -2.190433e+02
   2.269502e+02  -8.464356e+01
   1.211977e+02   1.726973e+01
  -4.950118e+01  -3.915972e+01
  -4.873143e+01  -3.405967e+01
   1.152050e+02  -9.206569e+01
   2.102936e+02   2.116877e+01
   1.038237e+02   1.370190e+02
  -9.461515e+01   2.594506e+02
  -3.192917e+02   8.546466e+01
  -3.068957e+02  -6.479365e+01
   7.580993e+00  -2.045656e+02
   2.590165e+02  -3.186806e+02
   2.920787e+02  -1.084664e+02
   2.777168e+02   1.595139e+02
   2.195926e+01   3.345201e+02
  -4.031609e+01   2.553596e+02
  -5.770630e+01   1.633934e+02
  -6.709949e+01   1.435432e+01
  -9.595862e+01   1.176259e+02
  -2.510702e+02   3.057179e+01
  -2.265451e+02  -9.704902e+01
  -8.665311e+01  -2.131710e+02
   6.061429e+01  -1.429479e+02
   1.437334e+02  -3.813194e+00
   1.602545e+02   2.170585e+02
  -4.997850e+01   2.334000e+02
  -2.123747e+02   3.255205e+01
  -2.584355e+02  -1.400776e+02
  -1.448813e+02  -2.457062e+02
   8.770797e+01  -2.519010e+02
   1.266437e+02  -1.413270e+02
   1.479603e+02  -6.990840e+01
   1.673904e+02  -7.799548e+01
   1.860628e+02  -1.036781e+02
   3.448658e+02   8.689615e+01
   2.451474e+02   1.949174e+02
   1.346603e+01   3.467174e+02
  -3.384223e+02   3.775961e+02
  -4.405752e+02   2.077863e+02
  -2.361491e+02  -8.993223e+01
  -1.881471e+01  -1.742707e+02
   1.065331e+02  -1.711178e+02
   3.047954e+00  -3.532812e+01
  -1.599986e+02   7.551973e+01
  -1.546989e+02  -7.210050e+01
   2.965714e+00  -1.211348e+02
   1.160584e+02  -9.879980e+01
   9.100600e+01   4.094344e+01
  -4.370194e+01   9.859519e+01
  -1.678091e+02   3.000161e+00
  -9.897905e+01  -2.290422e+02
   1.405929e+01  -3.285666e+02
   1.973938e+02  -1.709428e+02
   3.177690e+02   4.482793e+01
   2.242856e+02   1.626593e+02
   8.453518e+01   1.713123e+02
  -8.199439e+01   1.717140e+02
  -1.222560e+02  -4.167394e+01
   2.647015e+01  -8.708019e-01
  -1.843192e+01   4.163895e+00
  -3.653366e+01   1.251222e+02
  -8.643865e+01   3.202051e+01
  -1.318512e+02  -2.337460e+01
  -8.530436e+00  -8.469024e+01
   9.418818e+01   4.423212e+00
   6.481783e+01   8.504125e+01
  -1.467607e+02   3.941851e+01
  -2.214564e+02  -5.126002e+01
  -2.373822e+02  -1.800906e+02
  -1.159196e+01  -2.128683e+02
   1.696826e+02  -2.449004e+02
   2.188522e+02  -1.297028e+02
   1.140089e+02   7.120591e+01
  -3.786318e+01   3.748777e+01
  -2.459642e+01   2.173783e+01
  -1.426026e-01  -6.680288e+01
   1.769113e+02  -8.177629e+01
   1.525405e+02   1.043718e+02
   8.747943e+01   1.614085e+02
  -7.829665e+01   1.778101e+02
  -1.626083e+02  -1.839228e+01
  -3.897436e+01  -1.419440e+01
   4.510380e+01  -2.901187e+01
   6.711147e+01   1.541670e+02
  -9.926597e+01   1.018279e+02
  -1.827558e+02   1.008657e+02
  -1.303228e+02  -1.225063e+02
  -1.729121e+01  -1.352002e+02
   1.697896e+02  -1.479298e+02
   1.775361e+02  -3.592438e+01
   2.877648e+01   7.312520e+01
  -3.496612e+01   7.032019e+01
  -3.301019e+01   3.741690e+01
   1.200469e+01   3.318985e+00
   3.460934e+01  -2.064212e+01
   5.359871e+01   4.651368e+01
  -5.325442e+01   6.469234e+01
  -7.507281e+01  -8.493733e+01
  -3.119517e+01  -1.700525e+02
   9.060658e+01  -1.672952e+02
   1.762909e+02   6.814866e+00
   1.443127e+02   1.304211e+02
   9.910661e+00   1.933414e+02
  -5.488076e+01   1.249249e+02
  -4.951096e+01   9.065131e+01
   7.592552e+00  -6.418121e+01
  -5.366531e+01  -8.316615e+01
  -3.271497e+01   1.232089e+01
  -9.040920e+01  -1.879562e+00
  -5.179989e+01  -2.068659e+00
   4.895518e+01  -8.087383e+01
   1.113590e+02  -2.606031e+01
   9.290921e+01   2.363200e+01
  -5.922481e+01   1.089006e+02
  -1.410363e+02   4.751467e+01
  -1.564141e+02  -1.516359e+02
  -6.504223e+01  -1.206057e+02
   1.188718e+02  -1.750372e+02
   2.053589e+02  -8.322009e+01
   2.407459e+02   3.464368e+01
   1.052956e+02   1.967569e+02
  -6.427105e+01   1.175567e+02
  -1.052135e+02   1.286478e+01
  -6.313579e+01   4.823007e+01
  -4.888350e+01   5.611462e+01
  -1.169875e+02   5.164096e+01
  -8.394549e+01   2.193461e+01
  -1.226383e+02  -1.287155e+02
   1.278707e+01  -1.221056e+02
   1.367214e+02  -1.492911e+02
   1.046697e+02  -4.449932e+01
   1.483619e+02   1.376694e+02
   7.310317e+01   1.346728e+02
  -8.604424e+01   2.788821e+01
  -8.089651e+01  -5.240176e+01
   3.246485e+01  -3.441492e+01
   1.581300e+01  -2.828818e+01
  -6.757254e+00  -1.575528e+01
  -1.017122e+02  -1.469584e+01
  -9.281935e+01  -8.735270e+00
   1.071673e+02  -6.458534e+01
   2.300655e+02  -3.476334e+01
   9.798642e+01  -1.869554e+00
  -1.982168e+01   8.186409e+01
  -1.590220e+02   7.499208e+01
  -1.142982e+02  -7.165877e+01
   1.241243e+01  -3.880847e+01
   5.122046e+01  -4.762822e+01
   1.141422e+02   1.342286e+01
   2.233441e+01   1.177130e+02
  -1.046014e+02   9.108917e+01
  -4.725936e+01   1.387290e+01
  -1.072081e+02  -7.680006e+01
  -8.982269e+00   2.961838e+01
  -1.634882e+01   5.413194e+01
  -5.896001e+01  -1.865681e+01
  -3.661520e+01  -5.388333e+01
   7.357719e+01  -9.950172e+01
   1.010648e+02  -1.044782e+02
   1.594080e+02  -4.853103e+01
   1.071868e+02   1.201465e+02
   2.368229e+01   1.024532e+02
  -1.169775e+02   1.011865e+02
  -2.607603e+01  -3.118138e+01
   5.430268e+01  -6.010741e+01
   1.464467e+02   6.266123e+01
   6.915140e+01   5.665772e+01
  -8.907418e+01   7.268980e+01
  -1.554367e+02   5.509401e+01
  -1.572901e+02  -7.221731e+01
   3.016755e+00  -7.231877e+01
   2.330417e+01  -3.331282e+01
   7.978960e+01  -1.154608e+01
  -6.341377e+01  -1.909195e+01
  -6.280538e+01   6.321056e+01
  -4.056566e+01  -8.647470e+01
   8.031482e+01  -1.619931e+02
   1.951051e+02  -3.404114e+01
   7.341016e+01   1.254437e+02
   3.286816e+01   1.853146e+02
  -7.442096e+01   1.297156e+02
  -8.156355e+01  -3.138317e+01
  -7.933807e+01  -1.059833e+02
  -2.643466e+01  -1.229343e+02
   7.814453e+01  -1.009108e+01
   2.049637e+01   2.162199e+01
   2.988679e+01   2.714998e+01
   4.271961e+01  -7.092751e-01
  -7.366363e+00  -3.737173e+00
   6.391464e+01   6.685272e+01
   7.433562e+00   1.075626e+02
  -8.387221e+01   1.196786e+01
  -1.443781e+02  -8.865323e+01
  -1.503992e+02  -4.564938e+01
   7.909160e+01  -1.239194e+00
   7.586985e+01  -3.597744e+01
   1.165802e+02   3.136360e+01
   2.599139e+00   2.551905e+01
  -1.561889e+00   3.058015e+01
  -2.370752e+01   7.453557e+01
  -2.836155e+01   3.621412e+01
   4.475718e+01  -2.523388e+01
  -6.524557e+01   1.582995e+01
  -9.780640e+01  -4.035573e+01
   1.113746e+01  -7.881552e+01
   1.158190e+02  -1.414583e+02
   1.611484e+02  -6.758856e+01
   1.018446e+02   1.976188e+01
   1.265684e+01   1.598619e+02
  -5.971872e+01   1.280885e+02
  -1.062172e+02   8.479875e+01
  -6.599267e+01   2.604882e+01
  -2.552738e+00  -7.617854e+01
  -2.012485e+01  -2.105863e+01
   1.939815e+01  -1.353398e+01
  -2.491409e+01  -5.918084e+01
  -5.541537e+01  -6.857513e+01
   1.591203e+01  -4.413103e+01
   8.774477e+01   7.417807e+01
   4.625802e+01   1.023278e+02
   1.262662e+01   1.172503e+02
  -6.566907e+01   2.762157e+01
  -7.129474e+01  -5.764131e+01
  -4.543697e+01  -7.326316e+01
   1.838656e+01  -4.732074e+01
   1.961525e+01  -1.666935e+01
   3.701487e+01   2.582872e+01
  -1.064656e+01   2.477321e+00
  -3.991771e+01   3.262732e+01
  -7.470632e+00  -1.866444e+01
   3.671156e+01   3.788665e+01
   4.019731e+01   2.222189e+01
  -6.405291e+01   1.192827e+02
  -1.139533e+02   9.797209e+01
  -6.831030e+01   3.212853e+01
  -1.616374e+01  -9.403301e+01
   3.362115e+01  -5.422017e+01
   1.405614e+01  -2.580181e+01
   6.699345e+01   3.557481e+01
  -3.163283e+01   3.410256e+01
  -4.444258e+01  -2.589660e+01
  -7.343472e+01  -9.753825e+01
   4.900820e+01  -4.567306e+01
  -8.897445e-01  -7.336030e+00
   4.680823e+01   8.544451e+01
   3.074906e+01  -1.858206e+01
  -1.450585e+01  -3.720559e+01
   4.557585e+00  -4.072917e+01
   9.607139e+00  -2.130882e+01
   1.180898e+01   6.582530e+01
   3.339030e+01   1.977850e+01
  -7.930599e+01  -5.909574e+01
   1.111094e+01  -6.907046e+01
   2.662256e+01  -5.790132e+01
   2.374670e+01   2.127786e+01
   6.149359e+01   4.480979e+01
  -1.251508e+01   6.448227e+01
  -9.132753e+01   9.704739e+00
  -4.150637e+01  -2.564726e+01
   4.070265e+00  -4.276849e+01
   4.978717e+01  -7.008160e+01
   5.941036e+00   1.794758e+01
  -1.024718e+02  -5.594190e+00
  -3.694636e+00   2.948770e+01
   7.115194e+01  -2.890456e+01
   5.230060e+01  -3.182464e+01
