
 $NMID
 id='ANONYMOUS ', fmtdat='(2E16.6)'
 volume=1.0
 tramp=1.0
 $END
  -4.697940e+03   7.423012e+00
  -2.708856e+03  -2.911859e+03
   8.869749e+02  -2.945886e+03
   2.309018e+03  -8.271865e+02
   9.937795e+02   8.266048e+02
  -7.669221e+02   6.616568e+02
  -9.419432e+02  -4.867491e+02
   3.245920e+01  -1.164184e+03
   8.657096e+02  -8.156370e+02
   9.994007e+02   1.386108e+02
   4.746092e+02   9.665377e+02
  -3.185258e+02   9.594590e+02
  -7.056472e+02   1.040536e+02
  -4.278110e+02  -8.044462e+02
   3.125066e+02  -8.278623e+02
   6.749908e+02   2.105367e+00
   2.811511e+02   7.168649e+02
  -3.620337e+02   6.575486e+02
  -5.599386e+02   6.647954e+01
  -4.723038e+02  -3.838754e+02
  -3.102651e+01  -4.347598e+02
   3.480514e+02  -3.406967e+02
   2.316365e+02  -2.820524e+01
  -1.390147e+02   9.710473e+01
  -4.088877e+02  -9.033915e+01
  -2.747510e+02  -4.437953e+02
   4.789454e+02  -4.615485e+02
   9.073164e+02   6.369381e+01
   4.681822e+02   6.088849e+02
  -3.375050e+02   5.065313e+02
  -8.257572e+02  -6.930801e+01
  -3.137406e+02  -5.015973e+02
   3.184320e+02  -5.647463e+02
   5.652417e+02  -2.535526e+02
   4.061996e+02   2.701132e+02
   8.552757e+01   5.109362e+02
  -2.917343e+02   3.258369e+02
  -1.822817e+02  -2.000374e+02
   1.885345e+02  -4.890763e+02
   4.624749e+02   2.193061e+01
   2.935427e+02   7.515164e+02
  -3.248384e+02   7.823379e+02
  -6.832387e+02  -1.292762e+01
  -2.799896e+02  -5.858611e+02
   3.711718e+02  -3.762520e+02
   4.035331e+02   3.476978e+02
  -2.624224e+01   5.872397e+02
  -6.368468e+02   1.871516e+02
  -6.348927e+02  -4.634044e+02
  -1.140445e+02  -6.194930e+02
   4.294867e+02  -3.517216e+02
   6.386552e+02   8.129026e+01
   4.738419e+02   4.493772e+02
  -2.100633e+02   3.669128e+02
  -5.349903e+02   1.366367e+01
  -2.833152e+02  -2.523626e+02
   8.535196e+01  -1.581359e+02
   1.950885e+02   1.526265e+02
  -1.304223e+02   2.317438e+02
  -3.837276e+02  -1.865360e+01
  -1.675939e+02  -3.304618e+02
   2.135384e+02  -2.443317e+02
   3.113091e+02  -8.771918e+01
   1.394466e+02   4.404341e+01
  -1.212937e+02   2.421742e+02
  -2.436107e+02   2.529332e+02
  -3.904988e+02   1.691866e+02
  -2.625978e+02  -9.929649e+01
  -1.351069e+02  -4.633579e+02
   1.012598e+02  -4.277801e+02
   9.818090e+01  -8.639764e+01
   3.706063e+01   2.009703e+01
  -5.291141e+01  -1.228919e+02
   2.338692e+02  -1.309659e+02
   2.803993e+02   5.188582e+01
   1.787233e+02   2.494084e+02
  -7.357224e+01   2.964848e+02
  -2.297248e+02   1.243329e+01
  -2.103953e+02  -2.556730e+02
  -1.525878e+01  -2.970578e+02
   2.869524e+02  -1.423633e+02
   3.682663e+02   1.837059e+02
   2.187468e+02   3.868975e+02
  -1.496463e+02   3.378269e+02
  -2.140377e+02   1.107127e+02
  -1.540522e+02  -1.902183e+01
  -1.445978e+02   3.907437e+01
  -1.985432e+02   9.161990e+01
  -4.118370e+02  -7.420731e+01
  -3.496184e+02  -3.561304e+02
  -1.261622e+01  -4.032900e+02
   4.182051e+02  -4.156587e+02
   4.978217e+02  -2.558316e+02
   3.530889e+02   9.624020e+01
   4.185759e+01   3.272145e+02
  -1.344918e+02   2.662150e+02
  -5.739666e+01   3.288423e+01
   1.357148e+02  -1.304492e+02
   2.029321e+02  -3.302779e+01
  -4.702124e+00   2.538178e+02
  -2.357885e+02   1.842813e+02
  -2.290920e+02  -4.674288e+01
   3.343544e+01  -2.194373e+02
   2.125064e+02  -2.340725e+01
   2.060571e+02   2.373918e+02
   1.372786e+01   2.811193e+02
  -2.922188e+02   2.740508e+02
  -3.563080e+02  -5.608991e+01
  -2.773601e+02  -2.664898e+02
  -1.109620e+02  -2.850709e+02
   1.164970e+02  -1.990216e+02
   1.804036e+02  -4.209883e+01
   4.373491e+01   8.255073e+01
  -5.832594e+01  -3.053771e+01
  -2.516866e+01  -1.357753e+02
   1.554498e+02  -1.233879e+02
   1.346432e+02   6.749558e+01
   4.435385e+01   9.394743e+01
  -1.826822e+01   2.528414e+01
  -8.491203e+01  -1.060844e+02
   1.545055e+02  -1.308904e+02
   3.053585e+02   4.015645e+01
   2.159795e+02   9.210814e+01
   9.619243e+01   2.997996e+02
  -1.831811e+02   2.873677e+02
  -2.882813e+02   1.478437e+02
  -2.197712e+02  -1.522403e+01
  -2.797068e+01  -8.746976e+01
   9.707856e+01  -2.061088e+01
  -4.707024e+01   1.603614e+02
  -1.862761e+02   4.458843e+00
  -2.754458e+02  -1.321853e+02
  -8.509386e+01  -2.541735e+02
   1.111299e+02  -1.621382e+02
   1.408185e+02  -3.569671e+01
   6.242783e+01   5.750621e+01
  -3.660620e+01   2.575505e+01
  -2.655635e+01  -2.828615e+01
   3.312857e+01  -1.060351e+02
   2.090799e+02  -4.606568e+01
   2.199362e+02   1.408617e+02
  -9.668286e+00   2.219743e+02
  -1.536621e+02   2.238483e+02
  -2.116843e+02  -7.410757e+01
  -9.665697e+01  -1.160657e+02
   2.027227e+01  -1.110557e+02
   9.960860e+01   4.914225e+01
   5.391443e+01   8.291411e-01
  -1.384711e+01  -2.027819e+01
   1.189071e+01   5.807598e+01
   7.810819e+01  -2.479652e+01
   8.167377e+01   3.269941e+01
   3.972848e+00   1.194373e+02
  -1.201717e+02   2.201792e+02
  -2.328420e+02   4.470514e+01
  -2.407251e+02  -1.907802e+02
  -9.040703e+01  -3.093588e+02
   8.137782e+01  -1.381233e+02
   1.642343e+02   1.280901e+01
   4.980902e+01   5.105974e+01
  -8.239665e+00   2.722519e+01
   9.657183e+01   1.570958e+01
   9.610912e+01   1.488964e+01
   8.721717e+01   6.857364e+01
  -1.819920e+01   7.510273e+01
  -1.353123e+02   9.241727e+01
  -5.409074e+01  -4.553364e+01
   4.589591e+01  -1.473411e+02
   1.430779e+02  -1.215953e+02
   1.941830e+02   4.546933e+01
   1.452287e+02   2.352593e+02
  -1.370782e+02   2.403927e+02
  -2.872811e+02   8.361700e+01
  -3.159484e+02  -3.076552e+01
  -7.660834e+01  -1.766314e+02
   1.627194e+01  -8.113080e+01
   1.010693e+02  -1.120012e+02
   1.565231e+02  -3.949343e+01
   6.711828e+01  -6.140326e+01
   8.660151e+01  -6.518671e+01
   6.770579e+01   2.770379e+01
   1.347663e+02   2.037544e+02
   3.155771e+01   2.507917e+02
  -1.156829e+02   2.200003e+02
  -1.968219e+02   1.085961e+01
  -1.375770e+02  -1.259397e+02
   2.162758e+01  -2.200414e+02
   7.248870e+01  -1.033930e+02
   5.980862e+01  -1.237021e+01
   1.158169e+01   5.181192e+01
  -2.237133e+01   8.455246e+01
   9.505130e+01   4.572489e+01
   1.013460e+02   4.374316e+01
   2.273797e+00   2.883411e+01
  -8.015434e+01   1.971295e+01
  -1.582198e+02   1.630759e+00
  -9.832485e+01  -4.413064e+01
  -5.565016e+01  -6.871390e+01
   9.432595e+01  -1.203796e+02
   2.112847e+02  -9.050343e+01
  -1.159525e+00  -4.737844e+01
  -8.186248e+01   1.098330e+02
  -9.986666e+01  -6.035342e+00
  -4.683803e+01  -4.095416e+01
   1.239619e+02  -8.524759e+01
   9.632868e+00  -2.440883e+01
   7.764577e+01   2.487776e+01
  -3.346794e+01   3.564744e+01
   4.429531e+01  -3.258443e+00
   4.023281e+01  -7.928718e-01
   2.319372e+01   1.268614e+01
   4.921876e+01   1.405605e+02
  -1.297313e+02   1.012274e+02
  -1.362269e+02  -1.472111e+01
  -1.053731e+02  -1.334393e+02
   3.137537e+01  -1.353172e+02
   6.815043e+01  -7.103039e+01
   6.661572e+01   1.549317e+01
  -3.256851e+01  -5.213344e-01
  -1.013616e+02  -6.245440e+01
  -9.451700e+01  -1.032528e+02
   4.023342e+01  -1.205292e+02
   2.030456e+02  -5.613178e+01
   1.937315e+02   5.160008e+01
   4.648748e+01   1.316919e+02
  -3.189693e+01   5.697947e+01
  -7.187931e+01  -1.609801e+01
   3.893127e+01  -5.778614e+01
   6.038568e+01   4.136901e+01
   5.876801e+01   1.081739e+02
  -1.057492e+02   1.725057e+02
  -1.718386e+02   1.556703e+01
  -1.410997e+02  -1.135978e+02
  -1.879362e+01  -2.494100e+02
   9.577593e+01  -1.179506e+02
   5.684588e+01   9.631509e+00
   7.086991e+01   9.460801e+01
  -1.269300e+01   8.321807e+01
  -9.551735e+01   2.962082e+01
  -5.464863e+01  -1.944843e+01
  -1.100182e+01  -8.502409e+01
   2.754013e+01  -1.662979e+01
   1.078623e+01  -5.505023e+00
  -7.763436e+01  -4.792191e+01
  -1.153000e+01  -9.104747e+01
   9.702424e+01  -1.235731e+01
   1.119677e+02   4.240830e+01
   1.217872e+02   9.009737e+01
   3.528695e+01   9.045808e+01
  -7.396014e+01   4.761414e+01
  -1.932611e+02   4.417811e+01
   4.832568e+00  -2.385141e+01
   4.292707e+01  -2.731648e+01
   2.734633e+01   6.545159e+01
  -1.179114e+01   8.904694e+00
   1.259742e+01  -6.421787e+00
   5.854615e+01  -1.437442e+00
   3.807681e+01  -7.780335e+00
   4.362124e-01   8.928860e+01
  -1.097497e+02   1.360461e+02
  -1.624012e+02   3.889732e+01
  -1.417585e+02  -4.313687e+01
  -6.668858e+01  -1.311965e+02
   3.349656e+01  -1.716302e+02
   1.203884e+02  -1.500344e+01
   6.433632e+01   7.629122e+01
   5.500270e+01   3.907494e+01
  -4.384898e+01   8.864798e+01
   1.217244e+01  -3.825664e+01
   6.114703e+01   7.365408e+01
  -3.261587e+01   2.940621e+01
  -2.528459e+01   7.555330e+01
  -9.065285e+01  -1.737278e+01
  -1.312929e+02  -3.810144e+01
   1.004535e+01  -1.210366e+02
   7.021131e+01  -4.135778e+01
   1.331925e+02   6.828354e+01
   1.718067e+01   1.506561e+02
  -6.342997e+01   2.800470e+01
  -3.851024e+01  -4.128273e+01
  -5.837872e+01  -1.991099e+01
   8.104753e+01  -6.463852e+01
   5.929643e+01  -1.844530e+01
  -2.940337e+01  -1.483949e+01
  -6.762988e+01   3.490215e+01
  -3.429906e+01  -4.245192e+01
   7.714679e+01  -8.631630e+01
   9.346597e+01   1.923153e+00
   5.947343e+01   2.242332e+01
  -6.190078e+01   1.079633e+02
  -8.214554e+01   6.498803e+01
  -2.713827e+01  -4.859461e+01
   8.332670e+00  -4.360124e+01
   2.998930e+00  -1.347880e+01
   3.952964e+01  -4.195643e+00
  -3.828058e+01   2.602891e+01
  -1.535720e+01   4.793371e+00
  -7.082294e+01  -7.650907e+01
  -1.966665e+01  -1.622425e+01
  -2.406987e+01  -7.324329e+01
   3.207544e+01  -2.399861e+01
   3.764857e+00   1.603288e+01
   4.219030e-01  -1.638917e+00
  -5.325451e+00  -2.417452e+01
   9.885890e+01   5.926170e+01
   1.703349e+01   1.726503e+01
  -5.173930e+00   8.333813e+01
  -8.581624e+01  -3.501044e+00
  -6.380276e+01  -7.092498e+01
  -7.811093e+00  -2.840138e+01
   8.097563e+01  -6.114636e-01
   9.826176e+01   2.538116e+01
   4.359741e+01  -1.913822e+01
  -2.449883e+00   4.115142e+01
  -7.318408e+01   3.788444e+01
  -8.825793e+00  -3.767732e+00
   3.241266e+01   4.864500e+00
   4.079283e+01   1.723725e+01
  -4.546229e+01   1.494743e+01
  -9.184180e+01   4.451662e+01
