
 $NMID
 id='ANONYMOUS ', fmtdat='(2E16.6)'
 volume=1.0
 tramp=1.0
 $END
  -3.995397e+03   1.831045e+01
  -2.518428e+03  -2.218629e+03
   3.571951e+02  -2.594762e+03
   1.747968e+03  -1.211616e+03
   1.079273e+03   1.631221e+02
  -2.977170e+02   4.248236e+02
  -6.916249e+02  -2.809963e+02
  -9.176460e+01  -8.553483e+02
   7.279925e+02  -7.365656e+02
   8.273368e+02   4.756389e+00
   5.341818e+02   7.111059e+02
  -1.033600e+02   8.374912e+02
  -5.227940e+02   1.616836e+02
  -3.132552e+02  -5.626233e+02
   1.311526e+02  -7.004743e+02
   5.623269e+02  -4.585535e+01
   3.331332e+02   6.093456e+02
  -2.312074e+02   7.120566e+02
  -5.618055e+02   2.390281e+02
  -4.076740e+02  -2.557877e+02
  -8.238935e+01  -4.210242e+02
   2.365094e+02  -2.520744e+02
   1.183794e+02  -9.265047e+01
  -1.909613e+02  -3.537408e+01
  -3.763253e+02  -1.881507e+02
  -1.156513e+02  -3.935780e+02
   5.164237e+02  -2.876401e+02
   7.718892e+02   1.557985e+02
   3.787192e+02   4.535476e+02
  -3.773190e+02   3.641318e+02
  -7.091264e+02  -1.237188e+02
  -2.711960e+02  -4.200678e+02
   2.828422e+02  -4.252919e+02
   5.874721e+02  -2.062655e+02
   3.616686e+02   2.389979e+02
   6.932445e+01   4.222915e+02
  -1.030691e+02   2.463255e+02
   7.507470e+00  -1.805854e+02
   1.651804e+02  -2.857607e+02
   4.116446e+02   1.279721e+02
   1.635589e+02   6.349060e+02
  -2.806481e+02   6.091680e+02
  -5.103742e+02   1.139967e+01
  -2.165321e+02  -4.956268e+02
   2.480853e+02  -2.117383e+02
   2.659766e+02   3.366460e+02
  -1.134571e+02   5.011988e+02
  -5.266030e+02   1.057973e+02
  -6.194412e+02  -3.460444e+02
  -1.557357e+02  -5.646549e+02
   3.061549e+02  -2.819804e+02
   5.846780e+02   4.968716e+01
   3.299611e+02   3.479296e+02
  -5.646603e+01   3.341560e+02
  -3.302496e+02   5.549932e+01
  -2.480999e+02  -1.174037e+02
   8.709537e+01  -5.922127e+01
   1.387238e+02   1.129909e+02
  -1.538615e+02   1.375604e+02
  -2.863914e+02  -6.242149e+01
  -1.883568e+02  -2.757162e+02
   1.868713e+02  -3.264772e+02
   3.526237e+02  -7.140761e+01
   2.013200e+02   9.459410e+01
  -1.049200e+02   2.838793e+02
  -2.693013e+02   3.425852e+02
  -3.933630e+02   2.099778e+02
  -3.361715e+02  -1.488792e+02
  -6.425587e+01  -3.944604e+02
   8.793845e+01  -3.973988e+02
   6.602617e+01  -1.297022e+02
   4.509202e+01   1.139490e+01
   8.819454e+01  -1.051237e+02
   1.945615e+02  -7.187920e+01
   3.067252e+02   1.222543e+02
   2.363823e+02   3.401511e+02
  -1.172712e+02   2.435007e+02
  -2.051991e+02  -6.474887e+01
  -1.572181e+02  -2.514089e+02
   1.825064e+00  -2.889010e+02
   2.355499e+02  -1.140192e+02
   3.664498e+02   2.074617e+02
   1.583567e+02   2.901489e+02
  -7.010941e+01   2.858607e+02
  -1.547821e+02   1.834449e+02
  -1.328208e+02   4.893137e+01
  -1.556684e+02   8.320459e+01
  -2.099424e+02   8.744770e+01
  -4.719298e+02  -1.231163e+02
  -3.286238e+02  -3.451642e+02
   4.764052e+01  -4.841902e+02
   4.600759e+02  -4.491359e+02
   5.103028e+02  -2.080428e+02
   3.528381e+02   1.235786e+02
   1.212430e+01   2.863779e+02
  -1.394069e+02   2.123090e+02
  -9.805034e+01   1.037198e+01
   1.349643e+02  -1.686671e+01
   2.139065e+02   4.412487e+01
   3.175873e+00   1.888375e+02
  -1.640615e+02   1.242942e+02
  -1.349066e+02  -9.551625e+01
   2.799218e+00  -1.914461e+02
   1.958548e+02  -8.172874e+00
   1.465539e+02   2.695582e+02
  -3.326292e+01   4.213593e+02
  -2.555511e+02   2.039877e+02
  -3.234123e+02  -6.415303e+01
  -3.324548e+02  -2.852975e+02
  -7.526360e+01  -2.871669e+02
   1.415874e+02  -1.256594e+02
   1.670031e+02  -1.590842e+01
   9.930926e+01   7.350670e+01
  -5.898490e+01  -5.919034e+01
  -2.676697e-01  -1.459499e+02
   2.037614e+02  -8.192001e+01
   2.127381e+02   5.978573e+01
   6.277033e+01   1.704802e+01
  -1.527271e+02   1.218709e+01
  -3.860695e+01  -6.711739e+01
   1.759410e+02  -9.059356e+01
   2.669069e+02   2.643088e+01
   2.474280e+02   1.394282e+02
   4.974555e+01   3.204545e+02
  -2.174058e+02   2.596924e+02
  -2.468950e+02   7.033569e+01
  -1.260985e+02  -4.931059e+01
   3.639485e+01  -1.057307e+02
   6.547108e+01   1.371060e+01
  -6.312603e+01   9.765420e+01
  -1.861690e+02   6.170391e+01
  -2.620655e+02  -1.407217e+02
  -8.136664e+01  -1.655502e+02
   1.039607e+02  -1.332295e+02
   1.260912e+02   2.612211e+01
   1.949225e+01   5.245473e+01
  -8.828807e+01   1.796264e+00
  -2.399240e+01  -6.189876e+01
   9.082690e+01  -1.384640e+02
   2.713044e+02   2.730986e+01
   1.884216e+02   1.390670e+02
  -3.591309e-01   1.896326e+02
  -2.093369e+02   1.359138e+02
  -2.377038e+02   5.004256e+01
  -4.878194e+01  -1.133532e+02
   1.155874e+02  -1.102941e+02
   7.175013e+01   1.437878e+01
   3.281536e+01   9.123529e+00
  -4.461128e+01   5.005820e+01
   1.416685e+01   6.143493e+01
   1.651059e+01  -1.946834e+00
   1.113380e+02   1.451567e+02
   3.964358e+01   1.989300e+02
  -1.374700e+02   1.560313e+02
  -2.814297e+02   1.037066e+02
  -2.315803e+02  -1.970120e+02
  -6.406410e+01  -1.671610e+02
   6.926947e+01  -1.991377e+02
   1.463877e+02  -4.116932e+01
   7.403512e+01   2.074494e+01
   3.503068e+01   8.512918e+01
   4.823232e+01  -4.879293e+00
   6.525469e+01  -5.763742e+01
   3.366430e+01   7.068521e+01
  -2.820689e+01   1.146312e+02
  -5.724263e+01   1.611978e+01
  -1.306486e+02  -5.916564e+01
   1.177832e+01  -9.765564e+01
   1.216972e+02  -6.821401e+01
   2.073088e+02   7.491389e+01
   9.999072e+01   2.730195e+02
  -9.230639e+01   1.729291e+02
  -2.846926e+02   1.272333e+02
  -2.751519e+02  -1.170033e+02
  -1.277181e+02  -1.962869e+02
   1.096797e+02  -9.135990e+01
   1.087081e+02  -9.198551e+01
   5.068897e+01  -7.291082e+01
   2.091530e+01  -8.269912e+01
   7.694726e+01  -6.582379e+01
   1.423582e+02   4.118387e+00
   1.095774e+02   1.756080e+02
   9.128684e+00   1.975021e+02
  -1.234772e+02   1.780869e+02
  -1.662570e+02  -1.088039e+01
  -1.151869e+02  -1.140589e+02
  -4.515736e+01  -1.587088e+02
   1.299407e+02  -1.078753e+02
   1.589326e+01   2.372003e+01
  -6.004373e+01   3.589877e+01
   1.909067e+01   5.839723e+01
   2.167335e+01   1.553271e+01
   1.244230e+02  -5.411987e+01
   6.751764e+01   8.660653e+01
  -4.472844e+00   7.702888e+01
  -2.150159e+02  -7.077791e+00
  -2.006536e+02  -1.249425e+02
   1.641196e+00  -7.994359e+01
   1.180520e+02  -1.307933e+02
   1.743388e+02   4.904406e-01
   7.720900e+01   8.431913e+01
  -8.990241e+01   8.560767e+01
  -9.288411e+01   1.397901e+01
  -2.971570e+01  -8.172193e+01
   2.852457e+01  -6.884587e+01
   9.404582e+01  -1.576928e+01
   4.665713e+01   3.741580e+01
   4.733853e+01   5.782243e+01
  -2.595556e+01  -2.817591e+00
   2.934599e+01  -5.333117e+01
   7.729913e+01   2.732756e+01
   1.146902e+01   1.460087e+02
  -1.740169e+02   1.255424e+02
  -2.172106e+02   2.301641e+01
  -8.675976e+01  -7.063626e+01
   4.749392e+00  -1.524116e+02
   6.966448e+01  -5.219944e+01
   5.696623e+01  -9.147589e+00
  -6.204198e+01   6.247046e+01
  -1.839965e+02   3.645464e+00
   5.368313e+00  -1.081440e+02
   7.102114e+01  -1.889268e+02
   1.149126e+02  -4.573642e+01
   1.886243e+02   8.515145e+01
   4.252026e+00   3.481477e+01
  -4.664877e+01   2.280496e+01
  -2.360490e+01   5.745533e+01
   1.540931e+01  -2.059489e+01
   1.418382e+02   9.058438e+01
   3.049327e+01   8.971374e+01
  -1.136679e+02   1.637804e+02
  -1.622725e+02   1.161667e+02
  -1.038656e+02  -5.813178e+01
   3.031835e+01  -2.344025e+02
   1.278432e+02  -1.719354e+02
   1.350757e+02   2.040980e+01
  -2.382257e+01   1.159049e+02
  -5.571364e+01   1.158029e+02
  -9.689779e+01   3.341690e+01
  -3.854971e+01  -5.261945e+01
  -1.510573e+01   5.650801e+00
  -3.728407e+01   1.154991e+00
  -4.641326e+01   2.988908e+00
  -6.250345e+01  -5.097267e+01
  -7.639023e+01  -1.466569e+02
   1.028911e+02  -7.396736e+00
   1.863053e+02   7.021161e+01
   1.436294e+02   7.980560e+01
   3.410016e+01   3.564829e+01
  -1.202394e+02   5.036374e+01
  -1.186909e+02   2.589945e+01
  -9.544795e+00  -5.570818e+01
   4.254117e+01  -1.605353e+00
   2.254281e+01  -2.758976e+01
  -1.597199e+01  -2.344010e+01
  -2.906874e+01   4.593637e+01
   4.228247e+01  -6.799737e+00
   9.446105e+01   5.598350e+01
   2.458352e-01   1.175249e+02
  -1.504539e+02   8.697464e+01
  -1.855530e+02   8.955754e+01
  -1.402534e+02  -9.232077e+01
  -1.952565e+01  -1.913329e+02
   8.262550e+01  -1.970890e+02
   1.921598e+02  -1.474043e+02
   7.874556e+01   1.578999e+01
   2.641775e-01   4.957251e+01
   4.769970e+00   7.599765e+00
  -4.477379e+00   8.614223e+01
   4.173424e+01   1.104335e+02
  -3.122306e+01   5.696782e+01
  -2.137361e+01   3.615245e+01
  -7.213809e+01   1.487464e+01
  -7.348411e+01  -9.337866e+01
   1.745422e+01  -1.415686e+02
   6.065790e+01  -4.204213e+01
   5.813688e+01   4.065594e+01
   1.050399e+02   7.436069e+01
  -5.795744e+01   1.228764e+02
  -1.399842e+01   1.086572e+01
  -4.026865e+01  -7.342081e+01
  -1.195945e+01  -8.612566e+01
   1.868393e+01  -5.378779e+01
  -9.086270e+00   4.034575e+01
  -1.011765e+02   2.926394e+00
  -1.533163e+01  -5.933267e+01
   9.350039e+01  -7.912645e+01
   1.368735e+02  -1.105977e+02
   7.685018e+01   1.947162e+01
  -6.948468e+00   8.700683e+01
  -9.345889e+01   1.164930e+02
  -3.101273e+01   4.333651e+01
   3.594161e+01  -4.305493e-01
   2.565171e+01  -4.016378e+01
   8.148867e+01   2.118891e+01
  -3.412096e+01   4.634347e+01
  -4.950968e+00   5.648286e+01
  -9.247941e+01  -1.790137e+00
  -8.383598e+01  -6.595668e+01
  -6.616070e+01   6.328484e+01
   8.958571e+00   3.699292e+01
   4.451251e+01   2.483450e+01
  -2.699079e+01   2.014045e+01
   2.095398e+01  -2.775321e+01
   7.103852e+01  -4.880027e+01
   7.858892e+01   5.792651e+01
  -4.512906e+01   1.055844e+02
  -4.748680e+01   7.377515e+00
  -6.519720e+01  -5.469193e+01
   1.785345e+01  -8.885025e+01
   2.750684e+01  -3.298875e+01
   1.564417e+02  -2.749025e+01
   9.621423e+01  -4.705871e+00
   1.799131e+01   1.037954e+02
  -6.501748e+01   4.413724e+00
  -3.889295e+01  -2.766955e+01
   1.701534e+01  -3.730342e+01
   5.341100e+01   2.236099e-01
  -1.449597e+01   2.765774e+01
  -7.224165e+01   3.179178e+01
