
 $NMID
 id='ANONYMOUS ', fmtdat='(2E16.6)'
 volume=1.0
 tramp=1.0
 $END
  -4.452025e+03  -2.730923e-02
  -2.642420e+03  -2.708320e+03
   7.994136e+02  -2.892428e+03
   2.217247e+03  -9.090863e+02
   9.924350e+02   7.418169e+02
  -7.479240e+02   6.038972e+02
  -9.869563e+02  -4.818475e+02
  -2.231044e+01  -1.129462e+03
   8.514489e+02  -7.954265e+02
   9.793122e+02   8.925263e+01
   4.135864e+02   9.330985e+02
  -2.934881e+02   9.173182e+02
  -6.531311e+02   1.311073e+02
  -3.921317e+02  -7.346433e+02
   2.932373e+02  -7.771130e+02
   6.939423e+02  -1.140306e+01
   2.526761e+02   6.755136e+02
  -2.838224e+02   6.285832e+02
  -5.937282e+02   4.272565e+01
  -3.270935e+02  -2.893083e+02
   3.177754e+01  -4.300325e+02
   1.561152e+02  -3.118040e+02
   2.308360e+02  -2.558205e+01
  -1.142591e+02   1.147905e+02
  -3.765448e+02  -2.033580e+01
  -2.129771e+02  -4.197134e+02
   4.872315e+02  -5.194053e+02
   8.436584e+02   6.822131e+00
   4.143019e+02   6.224248e+02
  -3.350626e+02   5.700536e+02
  -7.514197e+02  -9.439318e+00
  -3.586228e+02  -5.447146e+02
   2.946020e+02  -4.894975e+02
   5.674494e+02  -2.553656e+02
   4.264868e+02   1.985026e+02
   1.062070e+02   4.415133e+02
  -1.169364e+02   2.971642e+02
  -2.396690e+02  -2.632272e+02
   1.283731e+02  -4.732911e+02
   4.950566e+02   1.552194e+01
   2.349297e+02   7.766823e+02
  -3.290735e+02   7.334264e+02
  -6.782858e+02  -1.669527e+01
  -2.397881e+02  -5.784658e+02
   3.347088e+02  -3.197413e+02
   3.952643e+02   3.576306e+02
  -8.102507e+01   5.672565e+02
  -5.777978e+02   2.106480e+02
  -6.256531e+02  -4.224777e+02
  -1.805037e+02  -5.788418e+02
   4.590763e+02  -3.440005e+02
   6.952641e+02   3.145311e+01
   3.289388e+02   4.078619e+02
  -2.090832e+02   4.242421e+02
  -4.547126e+02   5.820449e+01
  -2.327943e+02  -1.659106e+02
   1.344155e+02  -1.235571e+02
   1.421342e+02   1.583884e+02
  -2.049569e+02   2.159374e+02
  -4.395141e+02  -1.001274e+02
  -1.836767e+02  -3.054375e+02
   1.832749e+02  -2.693798e+02
   3.000040e+02  -7.531419e+01
   1.962706e+02   1.086739e+02
  -4.649295e+01   1.757732e+02
  -2.270566e+02   2.779396e+02
  -3.206295e+02   2.433281e+02
  -2.242794e+02  -1.506951e+02
  -2.605763e+01  -4.056555e+02
   1.112458e+02  -3.649368e+02
   1.846593e+02  -1.319432e+02
   2.173089e+01   4.565128e+01
   5.132347e+01  -9.345704e+01
   1.857411e+02  -1.780222e+02
   2.840254e+02   2.674978e+01
   1.703397e+02   2.744995e+02
  -7.796238e+01   2.187454e+02
  -2.616481e+02  -3.509667e+00
  -1.473426e+02  -2.697270e+02
   1.012048e+01  -2.762709e+02
   2.749852e+02  -1.207554e+02
   3.889736e+02   1.318338e+02
   1.905753e+02   3.563281e+02
  -1.444098e+02   2.930432e+02
  -2.271751e+02   9.842458e+01
  -1.699118e+02   2.768061e+01
  -1.139682e+02   8.790240e+00
  -3.210443e+02   2.746084e+01
  -3.690309e+02  -3.233650e+01
  -3.055987e+02  -2.800074e+02
  -4.928188e+01  -4.372779e+02
   3.657374e+02  -4.378446e+02
   4.696647e+02  -2.489440e+02
   3.721432e+02   1.024092e+02
   8.299210e+01   2.980161e+02
  -1.067104e+02   1.936058e+02
  -1.243639e+02   3.821942e+01
   5.805336e+01  -1.176173e+02
   2.716950e+02   1.608615e+01
   6.524776e+01   2.650921e+02
  -1.724725e+02   2.113949e+02
  -1.612561e+02  -8.977083e+01
   3.157152e+01  -1.696902e+02
   2.287705e+02  -8.389223e+01
   2.046243e+02   2.416214e+02
  -1.212564e+02   3.595024e+02
  -2.441738e+02   1.759157e+02
  -3.423474e+02  -1.293094e+02
  -2.997221e+02  -2.760887e+02
  -7.352529e+01  -2.705092e+02
   1.106835e+02  -2.003634e+02
   1.260021e+02  -4.876278e+01
   9.074214e+01  -9.864597e-01
  -7.534612e+01  -2.782161e+01
  -2.814114e+01  -1.172912e+02
   1.251105e+02  -1.467236e+02
   1.406224e+02   4.206571e+01
   5.860132e+01   3.366587e+01
  -1.137945e+02   5.019845e+01
  -5.870718e+01  -1.281491e+02
   1.476261e+02  -1.447703e+02
   3.072890e+02  -1.896907e+00
   2.178865e+02   1.185190e+02
   6.811845e+01   2.845249e+02
  -1.963768e+02   2.544900e+02
  -2.229894e+02   6.605314e+01
  -1.802531e+02  -8.954818e+01
  -5.209028e+01  -1.257822e+02
   1.189636e+02   1.655358e+01
  -5.201094e+01   1.025640e+02
  -1.736247e+02   5.804394e+01
  -1.751350e+02  -1.316585e+02
  -5.463669e+01  -1.441444e+02
   1.099150e+02  -1.166513e+02
   1.071938e+02  -1.475436e+01
   8.420416e+01   4.055133e+01
  -2.268013e+01  -5.159990e+01
  -7.015590e+01  -8.482733e+01
   5.943787e+01  -6.285567e+01
   2.331850e+02  -4.751736e+01
   1.901466e+02   7.870495e+01
   1.650673e+01   1.831904e+02
  -1.252666e+02   1.430275e+02
  -1.984578e+02  -3.200913e+01
  -8.453642e+01  -1.255515e+02
   2.256347e+01  -2.550501e+01
   8.182129e+01  -3.944263e+01
   9.481107e+01  -1.016658e+00
  -5.950587e+00  -5.303435e+01
   6.932753e+01  -3.659467e+01
   4.831571e+01   2.652488e+01
   3.714753e+01   4.934873e+01
  -1.018008e+00   1.966986e+02
  -1.213765e+02   1.726865e+02
  -2.043297e+02   4.148618e+00
  -1.637403e+02  -1.920243e+02
  -7.151937e+01  -2.455822e+02
   1.196708e+02  -1.327234e+02
   1.750660e+02  -5.431122e+01
   8.654269e+01   4.084305e+01
   5.125806e+01   6.828275e+01
   8.338974e+01   1.517030e+01
   7.396617e+01  -3.097686e+01
   6.521283e+01   5.268122e+01
  -2.493767e+01   6.834395e+01
  -9.127006e+01   1.565538e+01
  -1.199668e+02  -4.372980e+01
   1.910209e+01  -1.128134e+02
   1.746689e+02  -8.692866e+01
   2.118260e+02   3.782629e+01
   1.523914e+02   1.639863e+02
  -7.924829e+01   2.367386e+02
  -2.952551e+02   1.182262e+02
  -3.002623e+02  -2.498478e+01
  -1.593637e+02  -1.642992e+02
   7.976351e+01  -1.446968e+02
   8.134372e+01  -7.345706e+01
   6.077237e+01  -4.143442e+01
   3.771809e+01  -6.495229e+01
   5.515342e+01  -7.012629e+01
   1.452159e+02   3.986042e+01
   1.806067e+02   9.268371e+01
   1.037849e+01   2.451693e+02
  -5.776155e+01   1.288688e+02
  -1.939599e+02   1.624142e+01
  -2.039494e+02  -1.107108e+02
  -2.520687e+01  -1.516663e+02
   8.785646e+01  -1.347356e+02
  -1.689998e+00  -2.463564e+01
  -2.694819e+01   2.367064e+01
  -4.326153e+00   7.609945e+01
   3.325826e+01  -1.518544e+01
   1.026440e+02   8.333783e+00
   7.483598e+01   5.368659e+01
  -1.306761e+00  -2.772155e+00
  -1.317685e+02   3.484636e+01
  -1.990033e+02  -6.720156e-01
  -8.272934e+00  -1.121669e+02
   1.659413e+02  -5.639929e+01
   1.687353e+02  -3.881526e+01
   6.788283e+01   1.606627e+01
  -2.382853e+01  -3.036200e+00
  -1.249842e+02  -6.121576e+01
  -5.646301e+01  -4.724085e+01
   6.888694e+01  -3.117444e+01
   7.841409e+01  -4.685183e+01
   3.336747e+01   9.051173e+01
   8.187623e+01   2.758704e+01
   8.089259e+01   8.565549e+00
   7.864128e+01   5.030920e+01
   2.454763e+01   1.156161e+02
   1.324538e+00   1.694963e+02
  -9.761101e+01   1.552615e+02
  -1.802858e+02   1.278065e+01
  -1.060319e+02   1.892959e+01
  -1.556886e+01  -1.621020e+02
   1.013920e+02  -8.133278e+01
   3.982166e+01  -1.358013e+00
  -1.061099e+02   2.472500e+01
  -1.437861e+02  -6.892331e+01
  -6.162805e+01  -9.323109e+01
   9.477045e+01  -8.656707e+01
   1.732532e+02  -7.817577e+01
   1.086987e+02   4.252132e+00
   1.488729e+01   8.162928e+01
  -7.281518e+01   6.039920e+01
  -5.242575e+01   4.173320e+01
  -1.503235e+01   2.765393e+01
   1.143900e+02   6.466403e+01
   3.268425e+00   1.278330e+02
  -9.532012e+01   1.650993e+02
  -2.324801e+02   5.023951e+01
  -1.377416e+02  -1.365754e+02
  -6.987666e+00  -2.433676e+02
   5.143283e+01  -1.513028e+02
   8.426793e+01   3.421570e+01
   6.724718e+01   7.543569e+01
   3.084221e+01   1.130261e+02
  -9.650421e+01   2.443409e+01
  -4.169225e+01  -3.245123e+01
  -1.811800e+01  -6.283602e+00
   2.954869e+01   2.555608e+01
  -3.338430e+01   3.370067e+00
  -3.896842e+01  -4.011130e+01
  -1.522125e+01  -1.063928e+02
   3.589160e+01  -4.475821e+01
   2.108257e+02   1.052782e+01
   1.722440e+02   1.551603e+02
  -3.045584e+00  -4.650639e+00
  -6.815559e+01   3.900442e+00
  -5.010283e+01  -4.609087e+01
   5.177622e+00   1.410404e+01
  -1.048836e+01  -4.297092e+01
   3.547255e+00  -3.240778e+00
  -4.029123e+01  -7.364302e+00
  -2.334500e+01  -8.735926e+00
   4.174761e+01  -1.866897e+01
   2.760627e+01   4.321276e+01
   4.658901e+01   5.698508e+01
  -1.321310e+02   1.327691e+02
  -2.054835e+02   5.900732e+01
  -9.477887e+01  -4.707636e+01
   6.081737e+01  -1.513769e+02
   8.797683e+01  -1.413727e+02
   1.638281e+02  -8.211124e+01
   8.922981e+01   6.226580e+01
  -2.636470e+01  -3.629937e+00
  -3.207470e+01   6.435415e+01
  -3.577238e+00  -3.020562e+01
  -1.273728e+01  -3.267157e+00
   2.922327e+01   4.004777e+01
  -2.123031e+01   9.588584e+01
  -8.989794e+01  -2.860436e+01
  -4.543547e+01  -9.021711e+01
  -4.170071e+01  -1.205867e+02
   8.904443e+01  -1.611060e+01
   4.128040e+01   9.667645e+01
   4.177120e+01   1.206350e+02
  -5.922189e+01   1.548099e+01
  -8.630537e+01   1.578712e+01
   1.369493e+01   4.322157e+00
   1.078526e+01  -8.335688e+01
   3.368823e+01  -6.128842e+01
  -7.554931e+01   4.899720e-01
   8.494929e+00  -3.944109e+01
   8.023011e-01  -1.124933e+01
   7.956762e+01  -2.752233e+01
   1.228517e+02  -8.420912e+01
   9.964545e+01   1.873315e+01
   2.755503e+01   4.999188e+01
  -1.379158e+02   7.164487e+01
   7.162518e+00   1.548281e+01
   2.683054e+01  -6.204685e+01
  -1.800092e+01  -7.571387e+01
   4.579908e+01   4.885533e+01
   6.373803e+01  -3.290924e-01
   2.916549e+01   5.996334e+01
  -2.972896e+01  -1.472082e+01
   4.358085e+01  -9.518048e+01
  -1.078298e+01   4.301781e+01
  -5.113318e+01  -2.595832e+00
   9.446474e-01  -6.890824e+01
  -4.343202e+00  -2.405386e+01
  -4.216297e+01  -2.659081e+01
   8.110892e+00   3.663486e-01
  -2.196175e+01   9.186707e+01
  -4.445989e+00   9.046810e+01
  -3.037870e+01   6.988618e+01
  -5.344224e+01  -6.512761e+01
  -1.283766e+01   4.112123e+00
   7.661722e+01  -4.948474e+01
   1.122728e+02  -2.668133e+00
   3.445943e+01   3.339891e+01
  -8.411678e+01   4.881825e+01
   6.132877e+00  -3.338814e+01
   1.660080e+01   8.800398e+00
  -1.062386e+00  -4.182678e+01
   4.008768e+01  -6.397817e+01
  -8.375674e+01   6.113767e+01
  -1.100565e+02   4.700396e+01
