
 $NMID
 id='ANONYMOUS ', fmtdat='(2E16.6)'
 volume=1.0
 tramp=1.0
 $END
  -3.255736e+03   6.177614e+00
  -2.099247e+03  -1.644374e+03
   6.476123e+01  -2.104226e+03
   1.257064e+03  -1.130629e+03
   8.457157e+02  -1.287296e+02
  -2.479892e+01   2.432130e+02
  -4.320065e+02  -1.640415e+02
   1.207464e+01  -5.590402e+02
   4.995040e+02  -6.312828e+02
   6.446614e+02  -3.400486e+01
   3.936453e+02   5.037410e+02
   3.850157e+00   6.894479e+02
  -3.110313e+02   1.991384e+02
  -3.094105e+02  -4.156531e+02
   5.319766e+01  -5.524035e+02
   3.714320e+02  -8.251873e+01
   3.009736e+02   4.582061e+02
  -1.013523e+02   5.998586e+02
  -4.572721e+02   2.266973e+02
  -4.509009e+02  -2.163801e+02
  -9.979115e+01  -3.879416e+02
   9.150853e+01  -2.468410e+02
   1.139847e+02  -7.624808e+01
  -1.224380e+02  -2.247024e+01
  -3.041570e+02  -2.745198e+02
  -1.930973e+01  -3.296203e+02
   4.422743e+02  -1.650054e+02
   6.396434e+02   1.728060e+02
   2.383711e+02   3.222501e+02
  -2.789001e+02   1.908269e+02
  -4.912350e+02  -1.232809e+02
  -1.856578e+02  -3.651109e+02
   2.611056e+02  -3.809653e+02
   4.695974e+02  -8.639280e+01
   2.592737e+02   1.561229e+02
   1.255416e+02   3.527729e+02
  -7.145952e+01   2.483709e+02
   2.596360e+01  -1.162147e+02
   2.044549e+02  -2.084838e+02
   2.641323e+02   1.512498e+02
   6.852310e+01   5.263946e+02
  -2.645905e+02   4.647393e+02
  -3.653066e+02  -3.096048e+00
  -1.231850e+02  -3.921208e+02
   1.699138e+02  -2.249267e+02
   2.198164e+02   2.583614e+02
  -1.024373e+02   4.214453e+02
  -4.345632e+02   6.682833e+01
  -4.944752e+02  -3.713635e+02
  -1.294359e+02  -4.945858e+02
   2.937520e+02  -2.806790e+02
   4.915543e+02   3.158007e+01
   3.116114e+02   2.699897e+02
  -4.862357e+01   1.641908e+02
  -3.188783e+02   6.509695e+01
  -1.961750e+02  -8.559192e+01
   4.266446e-01   2.142606e+01
   5.560177e+01   7.357794e+01
  -9.777551e+01   9.035957e+01
  -2.565262e+02  -3.559617e+01
  -2.004840e+02  -2.302519e+02
   2.097610e+02  -2.520831e+02
   3.774396e+02  -1.685151e+02
   2.620392e+02   6.440632e+01
  -4.761590e+01   2.374060e+02
  -3.501821e+02   2.956022e+02
  -3.710185e+02   1.341860e+02
  -2.397472e+02  -2.012896e+02
  -6.901450e+01  -3.741426e+02
   8.825066e+01  -3.276543e+02
  -2.114471e+01  -2.063223e+02
   3.036751e+01  -1.241283e+02
   1.206395e+02  -1.260049e+02
   2.193145e+02  -2.681207e+01
   2.447268e+02   1.494707e+02
   1.163806e+02   2.708647e+02
  -9.740669e+01   2.136266e+02
  -2.126946e+02   2.501800e+01
  -1.689875e+02  -2.055705e+02
   3.936008e+00  -2.916866e+02
   2.421117e+02  -7.511811e+01
   3.149509e+02   1.817034e+02
   1.886222e+02   2.929715e+02
  -6.176438e+01   3.251625e+02
  -1.683639e+02   1.643204e+02
  -9.605756e+01   8.681655e+01
  -1.826631e+02   3.710872e+01
  -2.713890e+02   6.164539e+01
  -4.223045e+02  -7.735421e+01
  -2.837987e+02  -2.400118e+02
   3.777973e+01  -4.080349e+02
   3.499779e+02  -3.491838e+02
   4.912235e+02  -1.822142e+02
   2.465736e+02   9.444766e+01
   3.373906e+01   2.049312e+02
  -6.815481e+01   1.945669e+02
  -5.288158e+00   2.066569e+01
   7.596268e+01  -4.316532e+01
   1.631148e+02   2.286870e+01
   3.083078e+01   1.573523e+02
  -7.973261e+01   1.403002e+02
  -8.037616e+01  -1.627065e+02
   5.269895e+01  -1.311916e+02
   1.978620e+02  -1.279981e+00
   2.428250e+02   2.244728e+02
  -2.970435e+01   3.613518e+02
  -2.293227e+02   1.526449e+02
  -3.752432e+02  -9.785890e+01
  -2.680870e+02  -2.408958e+02
  -1.187057e+02  -2.791278e+02
   1.189934e+02  -1.634035e+02
   1.538183e+02   3.234526e+01
   4.692541e+01   2.182447e+01
  -8.673802e+01  -9.490598e+00
   1.439605e+01  -8.146129e+01
   1.704155e+02  -1.438722e+01
   1.298478e+02   5.829746e+01
   7.271956e+01   1.118642e+02
  -8.303573e+01   2.135406e+01
  -6.527224e+01  -9.720289e+01
   1.508640e+02  -1.026391e+02
   2.590461e+02   3.575081e-01
   2.065332e+02   1.752049e+02
   4.029250e+01   2.609496e+02
  -2.476805e+02   1.814881e+02
  -2.691532e+02   8.118377e+01
  -1.946402e+02  -1.152108e+01
  -3.581637e+01  -8.092611e+01
   5.536945e+01   6.850179e+01
  -8.528375e+01   1.099059e+02
  -1.414464e+02   2.562295e+01
  -9.981585e+01  -1.301046e+02
  -9.182836e+01  -1.907769e+02
   8.252031e+01  -9.507047e+01
   1.410816e+02  -3.727147e+01
   1.116227e+00   5.827856e+00
  -2.256191e+01  -7.088506e+01
  -3.046162e+00  -9.951648e+01
   5.913920e+01  -1.142021e+02
   2.396155e+02  -4.101534e+00
   1.947749e+02   8.112795e+01
   4.566198e+01   1.832644e+02
  -1.424605e+02   1.655389e+02
  -1.941363e+02  -8.687351e+00
  -9.830148e+01  -9.647805e+01
   5.600844e+01  -1.277946e+02
   5.661032e+01  -3.138033e+01
   3.559734e+01   6.513444e+01
  -3.815365e+01   3.296674e+01
   1.788358e+01  -9.887793e+00
   1.390560e+02  -4.875979e+01
   6.267992e+01   8.298226e+01
   3.796563e+01   2.104561e+02
  -1.227622e+02   1.716065e+02
  -2.693286e+02  -1.815780e+01
  -2.126512e+02  -9.599749e+01
  -7.675005e+01  -2.390273e+02
   6.997808e+01  -1.548212e+02
   9.903930e+01  -2.456728e+01
   2.198088e+01   9.600027e+01
   2.764270e+01  -1.208903e+01
   3.234968e+01  -5.094146e+01
   6.154792e+01  -2.931604e+01
   6.920868e+01   6.639584e+01
  -3.179533e+01   1.646067e+02
  -1.005888e+02   6.318805e+01
  -1.055448e+02  -6.424263e+01
   2.474875e+00  -1.297403e+02
   1.898619e+02  -1.268151e+02
   1.906523e+02   4.043117e+01
   8.609226e+01   2.045163e+02
  -1.071277e+02   2.251636e+02
  -2.782640e+02   5.269588e+01
  -2.617442e+02  -9.284085e+01
  -8.125167e+01  -2.215024e+02
   7.515197e+01  -1.455443e+02
   1.211565e+02  -1.252592e+01
   7.043251e+01   2.112823e+00
   1.468897e+01  -4.358594e+01
   6.431478e+01  -1.008371e+02
   1.603479e+02   5.125323e+00
   1.263600e+02   1.324020e+02
   6.994440e+01   2.542622e+02
  -1.543077e+02   1.261751e+02
  -1.655126e+02  -3.483833e+01
  -1.124836e+02  -1.597056e+02
  -4.786788e+01  -1.514046e+02
   6.451026e+01  -3.758271e+01
   4.828549e+01  -2.672935e+00
   1.811832e+00   4.982190e+01
   3.990012e+01   4.143703e+01
   5.435265e+01  -3.031833e+00
   9.628700e+01   3.715046e+01
   7.462177e+01  -2.572641e+00
  -1.017635e+02   5.190087e+01
  -1.774604e+02  -3.722676e+01
  -1.913200e+02   1.067049e+01
  -1.102303e+01  -1.084646e+02
   5.138471e+01  -6.145991e+01
   1.780647e+02   1.123403e+01
   3.165781e+01  -3.580617e+01
   5.462062e+00   2.436176e+01
  -7.961668e+01   1.810454e+01
  -9.263137e+00  -5.231703e+01
   2.627448e+01  -1.029371e+02
   1.372964e+02   1.993298e+01
   4.634269e+01  -9.827888e+00
   2.449536e+01   4.536823e+00
   6.494682e+01   4.509885e+01
   8.940443e+01   9.280014e+01
   2.012937e+01   6.765157e+01
  -1.063604e+01   1.634140e+02
  -8.789241e+01   7.315738e+01
  -2.126772e+02   1.467277e+01
  -1.546265e+02  -1.507005e+02
   1.447928e+01  -1.340626e+02
   1.174906e+02  -4.890133e+00
   4.640158e+01   4.011399e+00
  -1.039370e+01   4.737610e+01
  -7.025830e+01  -5.519223e+01
  -8.086947e+01  -1.087301e+02
   1.324509e+02  -1.166519e+02
   1.400099e+02  -6.479979e+01
   7.227206e+01  -3.593940e+01
   6.248088e+00   5.536974e+01
  -7.053386e+01   4.380188e+01
  -1.942318e+01  -1.019155e+01
   7.120615e+01   2.471878e+01
   1.248346e+02  -2.898532e+01
   3.201543e+01   1.034817e+02
  -3.863867e+01   1.242166e+02
  -1.683872e+02   4.393424e+01
  -1.289663e+02  -1.513638e+02
  -3.152562e+01  -1.982390e+02
   2.325330e+01  -1.509685e+02
   1.026892e+02   2.308118e+01
   1.089420e+01   1.488098e+02
  -2.061062e+01   9.439904e+01
  -7.628117e+01  -3.285783e+01
   6.835581e+00  -6.428833e+00
  -1.837083e+01  -1.714965e+01
  -2.961847e+01   2.222582e+01
  -5.428378e+01   3.903444e+00
  -8.340508e+01  -7.938897e+01
  -7.508421e+01  -7.937218e+01
   5.763276e+01  -7.578618e+01
   1.477981e+02   4.884017e+01
   1.195357e+02   1.158378e+02
   3.379735e+01  -1.603782e+01
  -5.338065e+01   7.258108e+01
  -6.798497e+01   1.282850e+01
  -6.937387e+01  -2.257851e+01
   4.093957e+01  -6.572983e+01
   3.229642e+01   2.803032e+01
  -2.768487e+00  -8.874351e+00
   3.283905e+01   4.643700e+01
   3.369090e+01  -5.207141e+01
   1.005121e+02   5.795770e+01
   5.055561e+01   6.039095e+01
  -1.226599e+02   1.452073e+02
  -2.216392e+02   6.150303e+01
  -1.991889e+02  -9.667570e+01
   2.063121e+00  -8.769050e+01
   1.298551e+02  -1.930839e+02
   4.768704e+01  -4.775777e+01
   4.050813e+01   2.013147e+00
   1.620294e+01   7.232117e+01
   1.709500e+00  -1.157305e+01
  -3.919814e+01   4.372285e+01
  -2.172174e+01   4.835118e+01
   8.801824e+00   4.858610e+01
  -4.191485e+01   5.501296e+01
  -1.261390e+02   2.539237e+01
  -7.789320e+01  -8.523561e+01
   4.723925e+01  -9.953090e+01
   8.676007e+01  -1.238508e+01
   1.181238e+02   3.257446e+01
   4.200785e+01   3.078707e+01
  -6.805944e+01   5.822385e+01
  -6.461938e+01   1.383815e+01
  -4.193554e+01  -4.135094e+01
  -2.751202e+00  -6.698293e+01
   2.568371e+01   5.961141e+00
  -4.064566e+01   1.509363e+01
  -5.666428e+01   2.265589e+01
  -5.365978e+01  -4.912581e+01
   4.268917e+01  -3.815844e+01
   1.010242e+02  -7.626353e+01
   8.467114e+01  -1.271794e+01
  -1.312867e+01   4.127797e+01
  -2.796531e+01   5.010564e+01
  -2.103891e+01   2.719243e+01
   9.335375e+00  -4.977940e+00
   4.071143e+01  -8.911127e+01
   4.157819e+01   2.117293e+01
   3.669379e+01   6.510281e+01
   1.239304e+01  -3.368104e+01
  -2.754367e+01   1.528853e+01
  -1.151443e+02   2.128086e+00
  -4.128549e+01  -2.876371e+01
   5.477150e+00   4.345020e+01
  -6.763776e+01  -1.437572e+01
  -5.729057e+01  -3.945032e+01
   4.766468e+01  -5.448668e+01
   5.400409e+01  -3.628299e+01
   5.307066e+01   1.429869e+01
   5.252945e+01   9.551095e+01
   4.711812e+01   6.328374e+01
  -7.190860e+01   2.790730e+01
  -4.929414e+01  -1.253976e+02
   8.566740e+01  -3.609894e+01
   1.383631e+02  -1.578099e+01
   9.968791e+01   2.782217e+01
  -2.363526e+01   1.068584e+02
  -4.915711e+01  -3.644865e+01
  -4.780064e+01   1.746402e+01
  -3.065405e+00   3.461055e+00
   3.068171e+01   5.371784e+01
  -2.501107e+01   2.128986e+01
  -5.209297e+01  -1.732395e+01
