
 $NMID
 id='ANONYMOUS ', fmtdat='(2E16.6)'
 volume=1.0
 tramp=1.0
 $END
   3.228041e+03  -3.824556e+01
   2.040763e+03   1.729431e+03
  -7.817317e+01   2.061517e+03
  -1.288442e+03   1.168798e+03
  -9.220271e+02   2.675062e+01
   6.826349e+01  -2.404061e+02
   4.517040e+02   1.087065e+02
   6.038827e+01   5.591259e+02
  -4.685197e+02   6.512292e+02
  -6.774247e+02   3.228814e+01
  -4.497019e+02  -5.546307e+02
  -1.591552e+00  -6.638987e+02
   3.659400e+02  -1.579973e+02
   3.071146e+02   4.114920e+02
  -1.485489e+02   5.578677e+02
  -4.650273e+02   1.050451e+02
  -3.648719e+02  -4.724059e+02
   1.290487e+02  -5.625021e+02
   5.547977e+02  -1.830220e+02
   3.896475e+02   1.633417e+02
   8.655660e+01   3.770385e+02
  -1.594884e+02   1.928584e+02
  -5.670823e+01   2.032118e+01
   1.979795e+02   5.922479e+01
   2.328770e+02   3.177691e+02
   4.262107e+01   3.462944e+02
  -3.395836e+02   2.425856e+02
  -6.773141e+02  -9.811504e+01
  -1.967635e+02  -4.046603e+02
   3.447134e+02  -3.118679e+02
   4.781459e+02   9.734840e+01
   1.884445e+02   3.803032e+02
  -2.392349e+02   3.343981e+02
  -4.456437e+02   1.679318e+02
  -3.242689e+02  -1.384414e+02
  -6.193603e+00  -3.090951e+02
   3.729029e+01  -1.536701e+02
  -4.977920e+01   1.501593e+02
  -1.734402e+02   1.676393e+02
  -2.392000e+02  -1.088615e+02
  -1.070581e+02  -5.022066e+02
   1.465457e+02  -4.446748e+02
   3.559671e+02  -6.980083e+00
   1.765572e+02   2.879769e+02
  -1.986192e+02   2.418748e+02
  -1.792896e+02  -2.803775e+02
   8.463473e+01  -3.934384e+02
   4.815054e+02  -9.219415e+01
   4.769609e+02   3.503636e+02
   2.152830e+02   4.724650e+02
  -3.031988e+02   2.672169e+02
  -5.003971e+02  -6.715240e+01
  -2.956571e+02  -2.737758e+02
   1.203276e+00  -1.997897e+02
   2.870380e+02  -9.353551e+01
   1.904735e+02   8.514693e+01
  -7.421743e+00   4.396567e+01
  -6.368320e+01  -8.562770e+01
   1.307578e+02  -3.441628e+01
   2.053915e+02   5.760447e+01
   1.153471e+02   1.397342e+02
  -1.243176e+02   2.644690e+02
  -3.066874e+02   8.059974e+01
  -2.230735e+02  -1.402956e+02
   4.352305e+01  -2.766652e+02
   3.044765e+02  -3.693239e+02
   3.143918e+02  -1.456122e+02
   2.225897e+02   1.278800e+02
   4.351724e+01   3.286750e+02
  -6.000314e+01   3.038872e+02
  -5.873214e+01   1.838515e+02
  -5.980200e-01   6.206182e+01
  -1.177037e+02   1.108414e+02
  -2.511148e+02   2.917473e+01
  -2.309359e+02  -1.307887e+02
  -1.533328e+02  -2.693468e+02
   6.370649e+01  -1.751647e+02
   2.591955e+02   1.877768e+01
   9.145516e+01   2.150365e+02
  -2.041882e+01   2.391075e+02
  -2.094194e+02   5.096709e+01
  -3.113441e+02  -1.550537e+02
  -1.817108e+02  -2.329060e+02
   5.441776e+01  -3.198760e+02
   1.074596e+02  -1.268775e+02
   1.070095e+02  -6.928547e+01
   8.913355e+01  -1.629537e+02
   2.505528e+02   8.456775e+00
   3.628905e+02   1.360012e+02
   2.609738e+02   2.764686e+02
  -4.854164e+01   3.833204e+02
  -3.202394e+02   3.556209e+02
  -4.556119e+02   1.428066e+02
  -2.796965e+02  -6.637047e+01
  -6.208556e+01  -2.940779e+02
   8.364375e+01  -1.694512e+02
   3.783363e+01   8.205809e+00
  -8.473868e+01  -4.106634e+01
  -1.473837e+02  -2.309811e+01
  -5.583197e+00  -1.570913e+02
   1.351567e+02  -1.071515e+02
   1.465277e+02   5.821940e+01
   2.473483e+01   1.402764e+02
  -2.169777e+02  -5.878334e+01
  -1.702724e+02  -2.393391e+02
  -2.008893e+01  -3.071443e+02
   2.275052e+02  -2.227247e+02
   3.263115e+02   2.703619e+00
   2.731843e+02   2.305508e+02
   1.411995e+02   2.414464e+02
  -2.651327e+01   1.379954e+02
  -1.149978e+02   2.383217e+01
  -6.961388e+01   1.051173e+01
   6.395459e+01   7.424012e+01
   3.954236e-01   1.411253e+02
  -1.019028e+02   1.016249e+02
  -1.081235e+02  -1.348301e+01
   3.312555e+01  -3.792088e+01
   3.902496e+01   7.054806e+00
   2.871517e+01   4.439529e+01
  -1.801738e+02   8.804613e+01
  -2.990948e+02   1.934109e+01
  -2.654598e+02  -1.346700e+02
  -1.126953e+02  -2.697058e+02
   1.862571e+02  -2.946082e+02
   2.342398e+02  -1.078362e+02
   1.183843e+02  -1.828985e+01
  -5.853614e+01   1.027296e+02
  -5.791938e+01  -1.369893e+01
   8.518176e+01  -1.275685e+02
   1.652066e+02   9.973182e-01
   1.831159e+02   7.121582e+01
   5.231965e+01   1.372013e+02
  -8.642618e+01   1.226695e+02
  -1.446687e+02   4.289963e+01
  -5.376773e+00  -1.285135e+01
  -4.110040e+00  -6.053495e+00
   2.893258e+01   1.368357e+02
  -9.073811e+01   5.967868e+01
  -2.143554e+02   2.345594e+01
  -1.819988e+02  -1.612902e+02
  -1.111880e+01  -1.430931e+02
   1.314119e+02  -8.771626e+01
   1.436725e+02   3.886499e+00
   7.026572e+01   5.001759e+01
  -3.396625e+01   5.289808e+01
  -4.391847e+01   4.080048e+01
   1.655806e+01   4.287580e+00
   8.880481e+01   3.230744e+01
   2.837576e+01   1.039382e+01
  -9.568824e+01   1.646671e+01
  -9.377197e+01  -8.934825e+01
  -6.799700e+00  -1.875425e+02
   1.255553e+02  -1.630653e+02
   2.455054e+02   2.335874e+01
   2.309041e+02   1.672894e+02
  -1.871103e+01   2.111623e+02
  -1.044770e+02   1.541770e+02
  -1.335965e+02  -4.344446e+01
  -4.011234e+01  -2.985737e+01
  -4.905526e+01   6.282679e+01
  -4.951776e+01   5.349461e+00
  -6.253168e+01   4.927472e+01
  -6.278930e+01  -3.853443e+01
   1.862625e+01  -5.228477e+01
   6.001306e+01  -9.169107e+01
   8.448543e+01   6.900945e+00
   2.397309e+01   1.290392e+02
  -1.702858e+02   8.263216e+01
  -1.507940e+02  -4.112612e+01
  -4.966066e+01  -2.261330e+02
   1.057911e+02  -1.675586e+02
   2.266796e+02  -3.744434e+01
   2.219822e+02   1.068172e+02
   1.256326e+02   1.407410e+02
  -1.911059e+01   1.606706e+02
  -1.353742e+01   1.027048e+02
  -7.825901e+01   6.243654e+01
  -6.199946e+01   3.496749e+01
  -1.032485e+02   8.817423e+01
  -6.919431e+01  -3.147450e+01
  -9.113563e+01  -1.244122e+02
  -1.488229e+01  -2.185604e+02
   8.646430e+01  -1.788149e+02
   1.321960e+02   2.242342e+01
   1.396547e+02   1.267445e+02
   1.811972e+01   1.196864e+02
  -6.854130e+01   1.012548e+02
  -7.182156e+01  -7.261664e+01
   7.040255e+01  -3.371965e+01
   3.476118e+01  -5.628663e+01
  -4.151719e+01  -1.857447e+01
  -1.093865e+02  -3.198736e+01
  -7.579522e+01  -3.232645e+01
   2.166111e+01  -7.243936e+01
   1.310120e+02  -6.023619e+01
   1.457515e+02   6.568315e+01
   3.588793e+01   1.257671e+02
  -1.653008e+02   8.362447e+01
  -1.322555e+02   2.542275e+00
   1.029900e+00  -1.067871e+02
   4.987619e+01  -4.054018e+01
  -1.815841e+01  -1.212821e+01
   1.398067e+00   1.409754e+01
  -4.883000e+01   3.451347e+01
  -3.680066e+01   4.422171e+01
  -5.651461e+01  -1.192664e+02
  -4.364637e+01  -9.676651e+00
  -7.150521e+01  -1.015574e+01
  -7.629029e+01  -3.073624e+01
  -6.271654e+01  -1.334050e+02
   3.432943e+01  -1.405948e+02
   1.096360e+02  -1.392659e+02
   1.924579e+02  -3.368649e+01
   8.903284e+01   8.380222e+01
   2.293128e+01   1.256096e+02
  -8.053440e+01   2.971138e+00
  -3.368388e+01  -8.283347e+00
   1.028326e+02   1.838919e+01
   1.489371e+02   3.626045e+00
   7.660336e+01   9.143453e+01
  -8.081640e+01   1.459381e+02
  -1.432575e+02   6.239091e+01
  -1.301703e+02  -4.344182e+01
  -1.043297e+01  -1.714979e+02
   4.729644e+01  -9.865375e+01
   5.745141e+01   1.162505e+00
   3.379687e+00   5.625455e+01
  -3.864854e+01  -6.980092e+01
  -2.762719e+00  -6.872299e+01
  -5.040135e+00  -1.188801e+02
   2.014136e+02  -1.121860e+02
   1.407250e+02   1.262536e+02
   5.459023e+01   1.992537e+02
  -9.501070e+01   1.077846e+02
  -7.442761e+01  -4.577029e+01
  -5.211441e+01  -4.569066e+01
  -1.094745e-01  -1.139975e+02
   1.080123e+02  -5.098355e+01
   1.446673e+01   1.503204e+01
   8.611223e+00  -6.484187e+01
   3.298704e+00  -3.047244e+01
   4.577246e+01  -4.751585e+00
   6.901319e+01   9.223178e+01
   2.505563e+01   1.034638e+02
  -4.837987e+01   1.045127e+01
  -7.879494e+01  -6.755778e+01
  -7.054151e+01  -6.355998e+01
   9.613345e+00  -1.439836e+01
   5.588023e+01  -2.135651e+01
   7.062969e+01   2.945526e+01
  -2.727602e+01   2.771816e+00
  -1.947496e+00   3.406430e+01
   9.019440e+00   1.078112e+01
   2.999335e+01  -1.853424e+01
   2.233174e+01  -3.523319e+01
   6.566379e+00   2.579879e+00
  -7.573991e+01  -3.582197e+01
   2.695931e+01  -3.262879e+01
   7.921232e+01  -6.699929e+01
   1.977725e+02  -4.977079e+01
   1.675090e+02   7.912034e+01
   1.911412e+01   1.224331e+02
  -1.380904e+02   1.246508e+02
  -1.516441e+02   7.000727e+01
  -9.017985e+01  -4.205373e+01
  -3.967590e+01  -5.269545e+01
  -4.187922e+01   7.870289e+00
  -3.454056e+01  -1.266120e+01
   4.062243e+01  -5.107493e+01
   1.258157e+01  -9.458477e+01
   6.677901e+01  -7.311624e+01
   5.329273e+01   3.221289e+01
   1.268345e+02   1.249320e+02
   1.198275e+01   8.427649e+01
  -5.094341e+01   5.291038e+01
  -6.088114e+01  -7.805979e+01
  -3.606521e+01  -5.931463e+01
   7.005441e+01  -6.221291e+01
   8.480466e+01   4.438395e+01
   7.484791e+01   2.573684e+01
  -4.141039e+01   4.209350e+01
  -4.329209e+01  -7.398081e+00
  -4.368631e+01   3.305685e+01
   2.864198e+01   5.221128e+00
   2.463183e+01   2.020119e+01
  -6.334268e+01   8.053019e+01
  -8.355377e+01   7.026444e+00
  -6.421546e+01  -3.327293e+01
   6.041975e+01  -1.433512e+02
   3.386797e+01  -6.144986e+01
   3.231272e+01  -5.899583e+00
  -3.907065e+00   2.735735e+01
  -2.577255e+01   4.797470e+01
  -5.100000e+01   9.928936e+00
  -4.906213e+01  -9.399819e+01
  -5.386669e+00  -2.790298e+01
   5.070622e+01  -5.844061e+01
   4.494134e+01   4.718172e+01
   5.925393e+00   1.713842e+01
   3.053701e+01  -1.598635e+01
  -2.063506e+01  -1.268940e+01
   7.017794e+01  -2.234018e+01
   4.946935e+01   7.279415e+01
  -9.117748e+00   6.639868e+00
  -1.412046e+01  -2.861086e+01
  -2.733883e+00  -6.031315e+01
   5.958120e+01  -9.622757e+00
   9.715913e+01   1.135922e+01
   2.061379e+01   7.881342e+01
  -6.593616e+01   5.126017e+01
  -1.099045e+02  -1.461888e+01
  -2.445442e+01  -4.821799e+01
   4.694974e+01  -1.123562e+02
   6.634946e+01  -1.351878e+01
   4.218126e+01   4.347678e+01
  -5.986159e-01   2.262189e+01
  -3.921017e+01  -3.692004e+01
   4.434872e+01  -5.518063e+01
   8.686156e+01  -4.930900e+00
