
 $NMID
 id='ANONYMOUS ', fmtdat='(2E16.6)'
 volume=1.0
 tramp=1.0
 $END
   3.343762e+03   1.062897e+01
   2.274402e+03   1.736069e+03
   5.888781e-01   2.127957e+03
  -1.330881e+03   1.315808e+03
  -9.968892e+02   1.732571e+02
  -6.125496e+00  -2.237300e+02
   3.535537e+02   1.465690e+02
   9.088060e+01   5.900299e+02
  -4.707972e+02   6.071666e+02
  -6.833762e+02   7.189747e+01
  -4.379354e+02  -5.725247e+02
  -9.824650e+00  -7.160663e+02
   3.389162e+02  -2.087375e+02
   2.117766e+02   3.958653e+02
  -9.800202e+01   5.983522e+02
  -4.056762e+02   1.431464e+02
  -3.449795e+02  -5.461883e+02
   1.582073e+02  -6.660894e+02
   4.571916e+02  -2.935732e+02
   4.735970e+02   2.026448e+02
   1.724142e+02   3.492260e+02
  -1.477431e+02   2.895003e+02
  -4.504285e+01   5.000921e+01
   1.690047e+02   9.007314e+01
   2.799870e+02   3.000890e+02
   1.685279e+01   3.419070e+02
  -5.020177e+02   2.161687e+02
  -6.477963e+02  -1.734244e+02
  -1.968192e+02  -3.758129e+02
   3.061798e+02  -2.289119e+02
   5.469710e+02   1.267389e+02
   1.722228e+02   2.880195e+02
  -2.418934e+02   3.215637e+02
  -4.799110e+02   1.333728e+02
  -3.316012e+02  -1.478542e+02
  -4.808517e+01  -3.776243e+02
   6.539752e+01  -1.969779e+02
   3.662181e+00   2.969581e+01
  -1.503980e+02   1.640585e+02
  -2.260205e+02  -1.698963e+02
   2.581820e+01  -5.414072e+02
   2.795318e+02  -4.156709e+02
   3.786353e+02  -1.220659e+01
   1.162119e+02   3.211952e+02
  -9.069932e+01   1.635576e+02
  -1.775444e+02  -2.743684e+02
   4.008201e+01  -4.141262e+02
   4.684719e+02  -8.007647e+01
   4.685213e+02   3.335516e+02
   1.784294e+02   4.881635e+02
  -3.716189e+02   2.751478e+02
  -4.662681e+02   1.274302e+01
  -3.631435e+02  -2.107690e+02
   6.212021e+01  -2.410752e+02
   3.280088e+02  -7.682667e+01
   2.133050e+02   2.612603e+01
   1.823342e+01   6.841456e+01
  -6.450756e+01  -7.974101e+01
   7.491731e+01  -7.538326e+01
   2.525556e+02   1.705070e+01
   1.786557e+02   1.973309e+02
  -1.167082e+02   3.171942e+02
  -3.692746e+02   1.307727e+02
  -2.942638e+02  -1.001428e+02
   7.158024e+01  -3.147156e+02
   2.958352e+02  -3.869717e+02
   4.185566e+02  -1.637725e+02
   2.128365e+02   1.367466e+02
   4.014517e+01   3.890681e+02
   3.604395e+00   3.478724e+02
   1.904476e+01   1.628559e+02
  -5.308818e+01   1.335125e+02
  -1.291500e+02   8.070240e+01
  -2.308225e+02   4.771335e+01
  -2.374933e+02  -1.888055e+02
  -1.095651e+02  -3.569586e+02
   7.741311e+01  -1.950423e+02
   2.167719e+02   3.057954e+01
   5.398584e+01   3.007304e+02
  -8.938672e+00   2.693860e+02
  -2.189961e+02   1.114101e+02
  -3.058547e+02  -1.871182e+02
  -1.560897e+02  -3.439587e+02
   1.252481e+02  -2.768464e+02
   1.075696e+02  -1.811159e+02
   1.834596e+02  -1.001409e+02
   1.308437e+02  -7.205275e+01
   2.177646e+02   2.076267e+01
   4.173276e+02   6.131846e+01
   3.500688e+02   3.450959e+02
  -2.324651e+01   4.712014e+02
  -3.236231e+02   4.022128e+02
  -4.569053e+02   2.095010e+02
  -3.373555e+02  -1.546290e+02
   9.616782e+00  -2.709374e+02
   1.404858e+02  -2.480281e+02
   2.685017e+01   2.945204e+01
  -9.087534e+01   5.544807e+01
  -1.498688e+02  -5.932192e+01
   5.490799e+01  -1.771945e+02
   1.394889e+02  -8.680228e+01
   1.066330e+02   7.462484e+01
  -4.437835e+00   1.855124e+02
  -1.422747e+02  -3.506761e+01
  -2.108360e+02  -2.591023e+02
   7.817653e+01  -3.445177e+02
   2.744354e+02  -2.410821e+02
   2.955671e+02  -8.746027e+00
   2.798749e+02   2.934373e+02
   9.031383e+01   2.455404e+02
  -1.346706e+02   1.980458e+02
  -1.496915e+02   5.333111e+00
  -5.306280e+01   4.614669e+00
   9.116492e+01   3.979861e+01
  -2.237778e+00   1.155157e+02
  -1.009471e+02   9.551056e+01
  -1.830657e+02  -2.821315e+00
  -2.140548e+01  -4.574080e+01
   1.025989e+02   1.044349e+01
   1.533795e+01   9.359038e+01
  -2.194214e+02   1.427346e+02
  -3.349577e+02  -8.342106e+00
  -2.694010e+02  -1.774581e+02
  -4.413832e+01  -2.915728e+02
   8.588100e+01  -2.069250e+02
   2.968021e+02  -9.294509e+01
   1.540088e+02   9.606735e+01
  -8.263858e+01   1.005178e+02
  -8.780684e+01   2.336068e+01
   8.797684e+01  -8.068000e+01
   2.319435e+02  -1.378318e+01
   1.818619e+02   1.330195e+02
   7.852928e+01   1.570822e+02
  -1.173588e+02   1.187673e+02
  -6.529077e+01   3.428982e+01
  -2.569746e+01  -7.331911e+01
   2.879734e+01   1.163680e+01
   5.876663e+01   1.176326e+02
  -1.475824e+02   9.094004e+01
  -2.620489e+02   2.222285e+01
  -2.070811e+02  -1.347530e+02
   8.910234e+00  -2.288811e+02
   1.359494e+02  -1.855482e+02
   1.499676e+02  -1.065039e+01
   5.836312e+01   5.495056e+01
  -9.175327e+01   1.868965e+02
  -3.308033e+01  -2.391831e+01
  -9.770913e-01  -3.736030e+01
   1.444515e+01  -8.424861e+00
  -8.665704e+01  -1.866538e+00
  -9.209890e+01  -1.994348e+01
  -8.532231e+01  -8.930167e+01
  -5.801111e+01  -1.802197e+02
   1.232081e+02  -1.565473e+02
   2.764039e+02  -5.436233e+01
   2.046835e+02   1.920298e+02
   4.477464e+01   2.360405e+02
  -9.404936e+01   2.056471e+02
  -9.785682e+01   8.936015e+01
  -6.753173e+01  -2.036845e+01
  -2.537150e+01  -3.022783e+01
  -5.960710e+01   6.512088e+01
  -1.356367e+02  -2.471741e+01
  -4.111825e+01  -7.137808e+01
   4.103086e+01  -1.343984e+02
   1.198322e+02  -6.149825e+01
   1.402901e+02   1.274418e+01
  -4.561954e+01   1.007292e+02
  -1.790993e+02   9.742143e+01
  -2.312386e+02  -8.193803e+01
  -3.755377e+01  -2.035671e+02
   9.599984e+01  -1.918900e+02
   2.898114e+02  -5.595022e+01
   2.408352e+02   9.478123e+01
   1.379609e+02   1.908681e+02
  -9.190920e+01   1.853537e+02
  -8.534620e+01   8.347101e+01
  -1.032931e+02   8.676543e+01
  -6.744854e+01   5.483534e+01
  -1.062958e+02   1.056501e+02
  -1.696256e+02  -6.207779e+01
  -3.588742e+01  -1.339080e+02
   2.597007e+00  -2.450524e+02
   1.089794e+02  -1.981964e+02
   1.744688e+02  -4.505347e+00
   1.560643e+02   1.705465e+02
  -7.961798e-03   1.609003e+02
  -8.798182e+01   7.544010e+01
  -8.224096e+01  -5.090502e+01
  -6.787180e+01   3.686273e+00
   6.429713e+00  -4.523301e+01
  -2.540429e+00  -2.109021e+01
  -1.444829e+01  -5.351394e+01
  -5.630710e+01  -4.909973e+01
   1.062402e+02  -9.248846e+01
   2.129752e+02  -6.206929e+01
   1.053567e+02   5.355691e+01
  -3.490746e+00   7.309600e+01
  -1.203360e+02   5.355332e+01
  -1.194909e+02   1.336329e+01
  -2.323389e+00  -3.330633e+01
   1.209340e+02  -3.946642e+01
   4.948182e+01   3.575286e+01
   3.596219e+01   7.765326e+01
  -4.152587e+01   1.368007e+02
  -1.156633e+02  -1.228637e+01
  -7.040156e+01  -4.932492e+01
  -8.781752e+01  -9.412721e+01
  -8.098810e+01   4.192571e+01
  -7.404774e+01  -4.890129e+01
  -1.240914e+00  -7.377631e+01
   4.485660e+01  -1.225973e+02
   1.304540e+02  -1.530879e+02
   1.982678e+02   1.300234e+01
   1.495997e+02   7.295416e+01
   1.648064e+01   1.605864e+02
  -1.140857e+02   9.095771e+01
  -8.347182e+01  -8.144583e+01
   2.419775e+01  -4.309247e+01
   1.209148e+02   3.697477e+01
   9.691649e+01   1.044380e+02
  -1.290465e+02   1.339652e+02
  -2.000728e+02   1.497732e+01
  -1.513559e+02  -4.835978e+01
  -4.437166e+01  -8.601201e+01
   5.264246e+01  -4.675262e+01
   7.172722e+01   7.923021e+00
  -5.132640e+01   6.829994e+01
  -2.475870e+01  -4.615630e+01
  -3.055108e+01  -1.345017e+02
   8.464602e+01  -1.705070e+02
   1.425802e+02  -8.119554e+01
   1.140977e+02   9.653872e+01
   2.513150e+01   2.231461e+02
  -7.424849e+01   1.202358e+02
  -1.459366e+02  -3.373596e+01
  -5.484382e+01  -1.654980e+02
   2.278087e+00  -1.564478e+02
   4.910079e+01  -5.329755e+01
   5.529998e+01   4.680619e+01
  -4.464979e+01  -1.451846e+01
  -2.743517e+01   2.678456e+01
   1.995919e+01   3.763019e+01
   6.306255e+01   1.344859e+02
   1.997190e+01   1.049706e+02
  -1.846298e+01  -2.557529e+00
  -6.219379e+01  -2.261417e+01
  -1.229621e+02  -3.815439e+00
  -4.361448e+01  -4.496853e+01
   7.684597e+01  -6.447924e+01
   1.355959e+02   9.065340e+00
   5.840554e+01  -1.327437e+00
  -5.292355e+01  -7.408844e+00
  -3.443565e+01   1.017971e+01
  -2.227249e+01  -8.040547e+01
  -8.611143e+01  -8.335634e+00
  -5.527079e+01  -2.870583e+01
  -8.069365e+01  -3.829913e+01
   1.027986e+01  -3.097465e+01
   5.728808e+01  -8.441822e+01
   1.694232e+02  -1.039234e+02
   1.754474e+02   4.579750e+01
   2.703170e+01   1.297345e+02
  -6.131902e+01   2.155703e+02
  -9.410208e+01   8.152058e+01
  -6.389533e+01  -2.081449e+01
  -5.258975e+01  -6.699951e+01
   5.875845e+00  -2.586484e+01
   6.557417e+00   2.114509e+01
  -3.108664e+01  -1.392973e+01
   2.398359e+01  -1.027291e+02
   2.299394e+01  -9.405130e+01
   8.840280e+01  -1.943968e+00
   1.392390e+02   6.814566e+01
   2.700450e+01   7.127372e+01
  -3.690090e+01   1.115577e+02
  -8.963777e+01  -4.668996e+01
  -1.539843e+02  -1.126307e+02
   8.939392e+01  -6.849704e+01
   1.242365e+02  -2.789679e+01
   4.577723e+01   7.327431e+01
  -6.053553e+01   6.697444e+01
  -8.656150e+01   1.081611e+00
   5.309184e-01   6.196547e+01
   6.998401e+01   4.662575e-01
  -6.393669e+01  -6.483688e+00
  -7.720243e+01   5.097763e+01
  -1.102114e+02   4.667175e+01
  -6.063590e+01  -3.119916e+01
   3.180709e+01  -1.373883e+02
   8.690106e+01  -1.174195e+02
   2.476703e+01  -2.976051e+01
   2.337081e+01   8.494745e+01
  -1.076806e+01   1.160984e+01
   1.892145e+01  -5.934235e+01
   1.829775e+01  -8.821448e+01
   1.888176e+00  -4.741380e+01
   6.785248e+00   5.198618e+01
   5.917197e+01   5.629353e+01
   8.145307e+00   1.443733e+01
  -6.550201e+00  -7.942214e+01
  -5.304007e+00  -3.603098e+01
  -3.919396e+01   6.350302e+01
   2.412920e+01   9.136319e+01
   1.469156e+01  -1.860415e+01
  -5.674085e+01  -5.295670e+01
  -2.571121e+01  -1.971994e+01
   3.908021e+01  -2.136861e+00
   8.283447e+01   3.730770e+01
   2.331156e+00   3.486465e+01
  -2.482245e+01   5.556759e+01
  -1.048535e+02   4.178928e+01
  -7.696984e+01  -4.282990e+01
   6.784187e+00  -5.798862e+01
   7.261678e+01  -2.087147e+01
  -1.157134e+00  -2.227751e+01
  -1.441709e+01   1.648245e+01
  -5.481799e+01  -6.769568e+01
   5.984619e+01  -3.955631e+01
   4.196412e+01  -2.720528e+01
