
 $NMID
 id='ANONYMOUS ', fmtdat='(2E16.6)'
 volume=1.0
 tramp=1.0
 $END
   3.996037e+03  -1.142860e+01
   2.418155e+03   2.191850e+03
  -4.241000e+02   2.436149e+03
  -1.749498e+03   1.032218e+03
  -9.385406e+02  -3.431420e+02
   3.932547e+02  -4.269170e+02
   7.373827e+02   3.091251e+02
   7.089015e+01   8.996345e+02
  -6.807157e+02   6.864690e+02
  -8.097677e+02  -3.109942e+01
  -4.219888e+02  -7.364075e+02
   2.026879e+02  -8.589308e+02
   5.082478e+02  -1.806966e+02
   3.480697e+02   6.161396e+02
  -2.628882e+02   6.304082e+02
  -5.502837e+02   1.954573e+00
  -2.638053e+02  -6.263764e+02
   1.867845e+02  -6.546812e+02
   5.086651e+02  -1.780970e+02
   3.658882e+02   2.734200e+02
   1.984118e+00   3.896957e+02
  -1.367429e+02   2.485616e+02
  -1.484124e+02   1.122479e+02
   1.356546e+02   2.581495e+00
   4.033849e+02   2.173039e+02
   1.343134e+02   3.867112e+02
  -4.700608e+02   2.997840e+02
  -8.220852e+02  -1.018083e+02
  -3.575335e+02  -4.734082e+02
   3.560948e+02  -3.865028e+02
   7.069848e+02   1.030993e+02
   3.025083e+02   3.950791e+02
  -3.065985e+02   4.954920e+02
  -4.718267e+02   2.176144e+02
  -3.513689e+02  -2.320680e+02
  -5.579288e+01  -4.751619e+02
   1.420905e+02  -3.144845e+02
   1.126213e+02   1.936922e+02
  -1.636160e+02   3.884131e+02
  -3.794737e+02  -1.037073e+02
  -1.007703e+02  -5.942443e+02
   2.415213e+02  -5.967231e+02
   5.426675e+02  -6.533490e+01
   1.935706e+02   4.653576e+02
  -2.484188e+02   2.705500e+02
  -2.520401e+02  -3.044727e+02
   1.312584e+02  -4.711387e+02
   5.630278e+02  -1.211435e+02
   5.329712e+02   4.082503e+02
   1.017217e+02   5.820605e+02
  -2.878523e+02   3.571861e+02
  -6.131392e+02  -3.578203e+01
  -3.788727e+02  -3.433529e+02
   1.257056e+02  -3.590110e+02
   3.430496e+02  -4.155771e+00
   2.126977e+02   1.330492e+02
  -6.315854e+01   8.457254e+01
  -1.317256e+02  -1.226776e+02
   1.739171e+02  -1.070754e+02
   2.831597e+02   1.030659e+02
   1.656073e+02   2.997059e+02
  -1.752962e+02   3.236625e+02
  -3.151012e+02   9.988210e+01
  -2.254066e+02  -7.504825e+01
  -9.857394e+00  -3.080094e+02
   2.075224e+02  -3.285463e+02
   3.583998e+02  -2.547143e+02
   2.409833e+02   6.562170e+01
   3.523900e+01   4.258596e+02
  -7.967910e+01   3.913902e+02
  -7.346196e+01   1.473756e+02
  -2.861917e+01   7.950816e+00
  -9.819624e+01   1.135657e+02
  -2.129510e+02   1.659205e+02
  -2.558146e+02  -6.069696e+01
  -1.419494e+02  -2.092028e+02
   4.929401e+01  -2.556024e+02
   2.587840e+02  -6.757708e+00
   2.094324e+02   2.185763e+02
  -4.670426e+01   2.857691e+02
  -3.089545e+02   1.342643e+02
  -3.325530e+02  -1.307308e+02
  -2.497817e+02  -3.287214e+02
   1.131086e+02  -3.251739e+02
   2.562916e+02  -1.017075e+02
   1.377117e+02   1.797944e+01
   1.198549e+02  -7.723730e+01
   2.816520e+02  -6.097088e+01
   3.896628e+02   7.325178e+01
   3.868573e+02   2.856931e+02
   3.566518e+01   4.504980e+02
  -3.533983e+02   4.444379e+02
  -4.871523e+02   2.107402e+02
  -3.191903e+02  -1.181120e+02
  -7.538045e+01  -3.094281e+02
   1.071591e+02  -2.640042e+02
   9.284626e+00  -5.604561e+01
  -1.039009e+02   1.021176e+02
  -2.342961e+02  -4.283896e+01
  -7.478476e+01  -1.912023e+02
   1.329920e+02  -1.883732e+02
   1.871139e+02   8.899410e+01
  -3.502181e+01   1.836345e+02
  -1.233544e+02   5.378735e+01
  -1.890149e+02  -2.148141e+02
  -3.427271e+01  -3.403135e+02
   2.552592e+02  -1.595953e+02
   2.993619e+02   1.400915e+01
   3.598245e+02   2.056511e+02
   6.249048e+01   2.334898e+02
  -1.007526e+02   1.005998e+02
  -2.120575e+02   3.872227e+00
  -6.052182e+01  -2.864694e+01
   3.247962e+01   5.262846e+01
   6.869652e+00   1.228511e+02
  -1.115110e+02   6.756925e+01
  -1.363556e+02   3.766792e+01
  -6.369643e+01  -5.733145e+01
   1.232215e+02  -2.239291e+01
   2.911665e+01   7.082579e+01
  -1.311376e+02   1.011800e+02
  -2.671012e+02   9.017393e+01
  -3.184299e+02  -1.181893e+02
   1.513883e+01  -2.540264e+02
   1.862779e+02  -2.498959e+02
   2.337439e+02  -6.144034e+01
   1.552764e+02   9.337539e+01
  -9.684549e+01   1.082130e+02
  -4.593798e+01   8.610819e+00
   3.179218e+01  -1.220870e+02
   1.799882e+02  -4.029153e+01
   1.899996e+02   1.327704e+02
   1.426264e+02   2.394899e+02
  -1.239176e+02   1.464988e+02
  -1.331049e+02   1.844750e+01
  -5.128482e+01   1.510339e+01
   9.679386e+01  -3.734276e+00
   6.227319e+01   4.970146e+01
  -1.260772e+02   1.325675e+02
  -1.989946e+02   4.711386e+01
  -2.118991e+02  -1.506177e+02
  -3.352168e+01  -1.784017e+02
   2.018237e+02  -1.460441e+02
   2.365458e+02  -4.770737e+01
   1.119470e+02   8.976861e+01
  -4.153877e+01   1.694402e+02
  -1.934436e+01   4.183382e+01
   1.978365e+01  -2.854281e+01
   5.705174e+01   7.521000e+00
  -4.726317e+01   1.942508e+01
  -7.335414e+01  -2.130148e+01
  -5.005216e+01  -9.800265e+01
  -4.948086e+01  -1.835495e+02
   1.252489e+02  -1.501464e+02
   2.420665e+02  -3.036124e+01
   1.877348e+02   1.307323e+02
   6.121905e+01   2.315111e+02
  -8.987698e+01   1.606983e+02
  -1.203909e+02   1.493917e+01
  -7.556925e+01  -7.203295e+01
  -4.722641e+01   2.394851e+01
  -1.848867e+01   1.700034e+01
  -1.212277e+02   1.681097e+01
  -7.777539e+01  -5.866139e+01
   5.515955e+01  -3.631643e+01
   1.164030e+02  -7.103757e+01
   8.657952e+01  -4.522914e+01
   1.158662e+01   1.377390e+02
  -1.587794e+02   1.504644e+02
  -1.932385e+02  -9.588350e+01
  -1.480521e+02  -2.145144e+02
   7.328330e+01  -1.919137e+02
   2.529932e+02  -8.291767e+01
   1.787208e+02   1.539306e+02
   1.451185e+02   2.005111e+02
   8.522501e+00   6.552500e+01
  -7.419862e+01   6.696156e+01
  -5.849940e+01   4.930933e+01
  -2.575673e+01   6.418281e+01
  -2.907297e+01   1.026311e+02
  -1.708283e+02   1.584454e+01
  -5.008180e+01  -1.423038e+02
  -2.839368e+01  -2.307125e+02
   9.106549e+01  -1.586945e+02
   1.459725e+02  -5.210994e+01
   1.360624e+02   1.200303e+02
  -1.988430e+01   2.052475e+02
  -6.455088e+01   4.388940e+01
  -6.840803e+01   3.635417e+01
   1.549378e+01  -9.538259e+01
   1.441728e+01  -7.328798e+01
  -3.294576e+01  -5.546815e+01
  -1.047205e+02  -4.499889e+01
  -6.549959e+01  -4.140558e+01
   4.599682e+01  -1.380808e+01
   1.036651e+02   2.128359e+01
   1.375582e+02   8.090546e+01
  -5.744280e+01   3.047264e+01
  -1.784106e+02   3.879751e+01
  -1.249527e+02  -1.315093e+01
  -8.930286e+01  -9.247483e+01
   6.552888e+00   5.764282e+00
   3.340909e+01   3.267717e+01
   1.789739e+01   7.695808e+01
  -1.576658e+01   3.949793e+01
  -1.014082e+02   5.564970e+00
  -1.210941e+01  -1.548350e+01
  -5.064052e+01  -4.102389e+01
  -7.939947e+01   2.158456e+01
  -6.836104e+01  -9.489842e+00
  -6.774063e+01  -4.981233e+01
   1.815854e+01  -1.451657e+02
   1.853162e+02  -1.550200e+02
   1.635325e+02  -3.559962e+01
   1.423413e+02   8.404725e+01
   8.350917e+00   1.625894e+02
  -6.891029e+01   8.125276e+01
  -6.943774e+01   1.499794e+01
   5.857379e+01   1.457997e+01
   1.050481e+02   8.180683e+01
   7.158377e+01   7.992133e+01
  -4.283632e+01   9.573361e+01
  -2.146721e+02   9.942158e+01
  -1.938399e+02  -5.204918e+01
  -4.504605e+01  -1.059890e+02
   5.499842e+01  -5.529395e+01
  -1.135537e+00   1.128222e+01
  -4.126694e+01   3.644435e+01
  -5.184796e+01  -2.618113e+00
  -1.028922e+00  -1.043716e+02
   5.837441e+01  -1.512170e+02
   1.510984e+02  -3.398050e+01
   1.349347e+02   1.293962e+02
   7.220338e+00   1.694268e+02
  -1.327716e+02   1.038331e+02
  -1.232921e+02  -4.666810e+00
  -1.981581e+01  -1.929004e+02
   4.430897e+01  -8.561001e+01
   4.394313e+01  -1.820924e+01
   3.005674e+01   6.592963e+01
   1.461443e+01   3.056834e+01
  -5.323101e+01   2.870495e+01
   6.094089e+00   2.510235e+01
   4.182474e+01   1.224191e+02
   5.533781e+01   1.526043e+02
  -6.073378e+01   9.783793e+01
  -1.171183e+02  -3.081684e+01
  -1.872137e+02  -1.000337e+02
  -2.202844e+01  -6.994458e+01
   4.058326e+01  -5.055832e+01
   8.279614e+01   2.440234e+01
  -3.685103e+01   1.858972e+01
  -2.336683e+01   1.030721e+01
   4.104297e+01   1.212685e+01
  -8.785480e+00   2.480768e+01
  -1.808503e+01   1.094315e+01
  -5.776321e+01   8.116031e+01
  -1.508022e+02  -2.202362e+01
   2.054071e+01  -6.042737e+01
   9.705219e+01  -7.485194e+01
   1.621191e+02  -7.792252e+01
   1.334729e+02   4.700603e+00
   5.303194e+01   1.714048e+02
  -4.370967e+01   1.497065e+02
  -1.491150e+02   6.624130e+01
  -3.741664e+01  -2.987504e+01
   1.333197e+01  -6.463099e+01
  -2.119724e-01  -2.097061e+01
  -3.696973e+01  -1.085808e+01
  -5.682419e+00  -7.189645e+01
  -4.618036e+01  -1.082587e+02
   9.000485e+01  -6.392383e+01
   7.326601e+01   8.071198e+01
   1.205662e+02   1.513401e+02
   1.614123e+01   1.424030e+02
  -7.788907e+01   5.066401e+01
  -9.924151e+01  -7.611849e+01
  -2.368108e+01  -1.073277e+02
   1.009699e+02  -7.406118e+01
   4.778981e+01   3.394524e+01
   1.268224e+02   8.157476e+01
   3.140022e+00   8.925931e+01
   4.395915e+00   5.786598e+01
   7.695710e+01  -1.121167e+01
   5.856046e+01   1.113260e+01
   7.099223e+01   2.766740e+01
  -1.285887e+02   1.177266e+02
  -1.014570e+02   2.383797e+01
  -6.749526e+01  -9.049594e+00
  -1.509827e+00  -6.353782e+01
   5.205464e+01  -9.047667e+01
  -3.151915e+00  -5.002394e+01
  -6.063908e+01   5.674253e+01
  -7.530369e+00   1.829675e+00
  -1.049229e+01  -9.297672e+00
  -1.008187e+01  -1.221319e+01
  -2.457228e+01  -4.977472e+01
   5.731894e+01   8.334236e+00
   2.025304e+01   2.586634e+01
  -7.708208e-01  -3.529700e+01
  -3.494145e+01   2.595608e+01
   8.253347e+00   4.160870e+01
   4.882558e+01  -1.330355e+00
   3.624388e+01   6.796944e+01
  -3.564409e+01  -4.412416e+01
  -3.204183e+01  -1.465971e+01
  -2.094903e+01  -5.370469e+01
   4.591685e+01  -4.320115e+01
   5.516735e+01   4.729097e+00
   3.387970e+01   7.594799e+01
  -1.088003e+02   3.041283e+01
  -7.795748e+01  -1.024281e+01
  -5.543536e+01  -3.484938e+01
   6.458490e+01  -4.171385e+01
   8.422854e+01  -2.329264e+01
   3.083347e+01  -2.466793e+01
  -2.922102e+01   9.814976e+00
  -7.622863e+01  -2.928444e+01
  -1.113185e+01   2.778255e+01
   1.272930e+02  -6.797231e+01
