
 $NMID
 id='ANONYMOUS ', fmtdat='(2E16.6)'
 volume=1.0
 tramp=1.0
 $END
   3.591094e+03   6.812336e+01
   2.311911e+03   1.941831e+03
  -2.018214e+02   2.266440e+03
  -1.504610e+03   1.163526e+03
  -1.006917e+03  -3.210843e+01
   1.569003e+02  -2.701344e+02
   4.550464e+02   1.672126e+02
   5.062565e+01   7.183551e+02
  -5.840423e+02   6.966108e+02
  -7.133313e+02  -2.987654e+01
  -4.587234e+02  -6.061337e+02
   6.953595e+01  -8.030643e+02
   4.057261e+02  -1.381217e+02
   3.495791e+02   5.084971e+02
  -2.033359e+02   6.586014e+02
  -4.894094e+02   4.265186e+01
  -2.733310e+02  -5.310545e+02
   2.168840e+02  -6.437018e+02
   4.656225e+02  -1.800365e+02
   4.303465e+02   2.195072e+02
   1.081790e+02   4.004532e+02
  -1.724312e+02   2.663764e+02
  -1.619145e+02   6.660322e+01
   1.298294e+02   6.524479e+01
   3.118765e+02   2.590544e+02
   6.804203e+01   3.890306e+02
  -4.944222e+02   2.378090e+02
  -7.110079e+02  -1.208673e+02
  -2.887310e+02  -4.196094e+02
   3.486837e+02  -3.092463e+02
   5.460374e+02   9.122830e+01
   2.599814e+02   4.339473e+02
  -2.832550e+02   3.989683e+02
  -5.068223e+02   9.820672e+01
  -4.084831e+02  -2.063924e+02
  -9.666443e+01  -3.154493e+02
   1.236010e+02  -2.170728e+02
  -3.445682e+01   7.798822e+01
  -1.420663e+02   2.080263e+02
  -2.538021e+02  -6.642402e+01
  -6.235619e+01  -5.917606e+02
   2.915769e+02  -5.024920e+02
   3.890182e+02  -1.398645e+01
   1.444973e+02   3.594552e+02
  -1.652179e+02   2.083613e+02
  -2.248014e+02  -2.672312e+02
   1.228254e+02  -4.899549e+02
   5.045878e+02  -5.251879e+01
   5.388408e+02   3.989720e+02
   1.602605e+02   6.132557e+02
  -3.076126e+02   2.945119e+02
  -5.631680e+02  -8.606746e+01
  -3.577491e+02  -3.055227e+02
   1.113392e+02  -2.558875e+02
   3.214927e+02  -5.464802e+01
   1.577651e+02   2.874334e+01
  -1.264926e+01   8.620447e+01
  -9.950180e+01  -8.266339e+01
   1.338575e+02  -1.115574e+02
   2.911615e+02   7.787579e+01
   1.138348e+02   1.982725e+02
  -1.414482e+02   2.598644e+02
  -3.405409e+02   7.925317e+01
  -2.019818e+02  -5.162010e+01
   9.919900e+00  -3.138574e+02
   2.606453e+02  -2.949243e+02
   3.435460e+02  -1.459691e+02
   2.571092e+02   1.831950e+02
   6.061375e+01   4.110634e+02
  -3.732053e-01   3.090571e+02
  -1.448940e+01   2.037325e+02
  -5.847943e+01   9.283106e+01
  -1.055110e+02   1.172232e+02
  -2.061649e+02   1.207291e+02
  -2.646022e+02  -4.342020e+01
  -7.150487e+01  -2.569336e+02
   1.284005e+02  -2.121011e+02
   2.039709e+02   3.865652e+00
   1.356981e+02   2.782333e+02
  -8.497316e+01   2.523535e+02
  -2.382417e+02   4.923460e+01
  -3.771693e+02  -2.012467e+02
  -2.375799e+02  -2.993120e+02
   1.125785e+01  -3.015489e+02
   1.762229e+02  -9.250527e+01
   1.725504e+02  -6.588698e+01
   1.496132e+02  -6.743238e+01
   2.936072e+02  -8.217162e+01
   4.676430e+02   1.055055e+02
   3.342768e+02   3.168288e+02
   1.086708e+01   4.206727e+02
  -4.000669e+02   3.689410e+02
  -5.276332e+02   1.790929e+02
  -2.930081e+02  -1.833651e+02
  -1.140463e+02  -2.998766e+02
   4.734132e+01  -2.294042e+02
   8.987387e+00   1.682397e+01
  -1.908724e+02   6.736489e+01
  -1.293247e+02  -5.164737e+01
  -1.671554e+01  -1.800173e+02
   1.841160e+02  -1.542731e+02
   1.525782e+02   5.898712e+01
  -2.816387e+01   9.533595e+01
  -1.699020e+02   1.611246e+00
  -2.205262e+02  -2.827343e+02
   5.280695e+01  -3.433748e+02
   1.958032e+02  -2.057842e+02
   3.780628e+02   5.385373e+01
   2.979807e+02   2.602074e+02
   8.364056e+01   3.255055e+02
  -1.183229e+02   1.248446e+02
  -1.635684e+02  -8.350600e+00
  -4.431090e+01  -5.053613e+01
   3.267538e+01   5.478235e+01
   3.196730e+01   6.334537e+01
  -1.115191e+02   1.117077e+02
  -1.709448e+02  -3.760228e+00
  -6.469972e+01  -1.974976e+01
   8.856256e+01   4.135447e+01
   7.310765e+01   8.773843e+01
  -1.415686e+02  -2.925202e+01
  -3.463909e+02  -9.704439e+00
  -2.533379e+02  -1.447821e+02
  -5.263220e+01  -2.567792e+02
   1.537594e+02  -2.047123e+02
   2.656770e+02  -2.081227e+02
   1.573120e+02   5.492900e+01
  -9.395833e+01   1.312586e+02
  -9.877585e+01  -2.284779e+01
   7.434119e+01  -4.293409e+01
   1.562133e+02  -1.604441e+01
   1.630280e+02   8.769775e+01
   6.330660e+01   2.125703e+02
  -5.672909e+01   1.808697e+02
  -1.225257e+02   3.808267e+01
  -5.075182e+01  -5.521578e+01
   3.516951e+01   1.761866e+01
   2.503435e+01   1.500077e+02
  -8.467089e+01   9.975467e+01
  -1.728541e+02  -1.748534e+01
  -1.879531e+02  -1.160389e+02
   4.548519e+01  -2.319553e+02
   1.404549e+02  -1.288458e+02
   2.105647e+02   2.147175e+01
   4.716901e+01   1.214330e+02
  -1.088934e+02   1.402840e+02
  -5.245637e+01   2.103799e+01
  -1.937335e+01   6.722432e+01
   6.328981e-01   4.301561e+01
  -7.583181e+01   3.318298e+01
  -1.112478e+02   1.574540e+01
  -8.815556e+01  -1.242505e+02
   1.622155e+01  -1.923200e+02
   1.515837e+02  -1.691081e+02
   2.017390e+02  -7.373189e-01
   2.430895e+02   1.283775e+02
   7.220871e+01   1.920562e+02
  -6.756074e+01   2.086766e+02
  -1.043146e+02   9.883286e+00
  -6.300825e+01  -2.172308e+01
  -4.048196e+01  -6.747779e+01
  -2.813362e+01  -8.737007e+00
  -7.154182e+01   5.844724e+01
  -5.480139e+01  -2.862207e+01
   8.400870e+00  -1.135250e+02
   1.055431e+02  -3.487807e+01
   1.303899e+02   4.501435e+01
   9.653997e+00   1.186314e+02
  -1.641703e+02   9.299728e+01
  -2.430507e+02  -1.069339e+02
  -5.354271e+01  -2.095579e+02
   9.525531e+01  -2.326666e+02
   3.286185e+02  -6.917656e+01
   2.662457e+02   1.264474e+02
   8.611120e+01   1.595610e+02
   2.620974e+00   1.251411e+02
  -4.352226e+01   1.135220e+02
  -1.052822e+02   8.790744e+01
  -8.512014e+01   9.127505e+01
  -8.842785e+01   9.768161e+01
  -8.778977e+01  -3.955309e+00
  -1.160486e+02  -1.024690e+02
  -6.561955e+01  -3.109600e+02
   5.126323e+01  -2.103576e+02
   2.277085e+02  -1.465779e+01
   1.521535e+02   1.227880e+02
   1.425630e+00   1.237595e+02
  -9.972466e+01   1.179951e+02
   6.213516e-01  -2.533708e+01
  -1.495334e+01  -6.841826e+01
  -1.719954e+01  -1.201923e+02
  -3.115407e+01   1.304175e+01
  -5.168406e+01   1.588783e+01
  -3.061958e+01  -2.149722e+01
   8.120288e+01  -4.596412e+01
   1.235391e+02  -6.206916e+01
   1.196684e+02   9.300300e+01
   7.568058e+00   1.410008e+02
  -1.364911e+02   5.102173e+01
  -1.623635e+02   5.173818e+01
  -4.193525e+01  -1.844317e+01
   6.259680e+01  -7.727304e+01
   1.575655e+02   2.282205e+01
   1.081870e+01   3.049847e+01
  -4.324730e+01   8.143640e+01
  -1.073650e+02   4.813923e+01
  -5.649115e+01  -6.292878e+01
  -7.625235e+00  -7.519160e+01
  -3.510565e+01  -1.563604e+01
  -6.196599e+01  -1.849621e+01
   1.608199e+01  -8.301689e+01
   9.957773e+01  -1.380917e+02
   1.610561e+02  -1.395343e+02
   1.395743e+02   1.677500e+01
   1.036590e+02   1.415243e+02
  -2.320765e+01   6.836712e+01
  -5.665340e+01   5.536545e+01
  -9.780016e+01   5.712354e+01
   5.273114e+01  -6.030185e+01
   1.592505e+02   5.751303e+01
   1.089488e+02   1.080938e+02
  -5.497758e+01   6.954446e+01
  -2.154748e+02   1.038160e+02
  -1.731090e+02   1.647726e+01
  -8.021168e+01  -8.078627e+01
   5.684629e+01  -1.075267e+02
   3.931080e+01  -1.203473e+00
  -2.756293e+01   3.110579e+01
  -1.225290e+02   1.146619e+01
  -9.886824e+01  -1.595145e+02
   9.646080e+01  -1.827423e+02
   2.063199e+02  -3.383104e+01
   1.276150e+02   6.690396e+01
   1.502169e+01   2.068021e+02
  -6.170545e+01   1.430414e+02
  -1.103424e+02  -3.714298e+00
  -1.119839e+02  -1.443573e+02
   6.088327e+00  -1.227012e+02
   3.118937e+01  -3.918856e+01
   5.386766e+01   7.829054e+01
   5.672828e+01  -9.180146e-02
  -7.782910e+00  -1.858588e+01
   3.875272e+01   4.987565e+01
   3.480966e+01   1.032006e+02
   7.751400e+01   3.885808e+01
  -3.161445e+01   4.251067e+01
  -1.408217e+02  -3.860587e+01
  -8.225284e+01  -2.871888e+01
   7.358990e+00  -7.309487e+01
   8.869146e+01  -4.529891e+01
   1.027054e+02  -2.628498e+01
   1.065604e+02  -2.407002e+00
  -6.814423e+01   9.369559e+01
  -5.235092e+01   2.612741e+01
   3.538000e+01  -6.063189e+01
   6.589796e+00   1.574323e+00
  -5.527323e+01   1.822804e+01
  -1.151046e+02  -5.124535e+01
   1.041476e+01  -7.529821e+01
   1.180702e+02  -1.251202e+02
   1.737275e+02  -8.581038e+01
   1.746742e+02   8.994798e+01
   1.250333e+02   1.170051e+02
  -8.321736e+01   1.774867e+02
  -1.202823e+02   2.308530e+01
  -5.614452e+01  -3.580958e+01
  -1.424559e+01  -9.326477e+01
  -9.593443e+00  -4.751080e+01
  -1.804285e+01  -4.226310e+00
  -5.090947e+01  -4.644961e+01
  -1.384681e+01  -4.381021e+01
   5.224157e+01  -1.013111e+02
   9.013877e+01   2.329689e+01
   6.936855e+01   1.311926e+02
   6.556438e+01   1.756013e+02
  -7.108134e+01   4.757997e+01
  -6.580284e+01  -2.791058e+01
   4.103410e+01  -1.039091e+02
   9.222460e+01  -9.295774e+01
   1.228708e+02   9.399945e+00
   3.530645e+01   3.389853e+01
  -3.569170e+01   1.240688e+02
  -8.099560e+01   2.377363e+01
   4.372718e+01  -1.666816e+01
   8.067996e+01   2.275344e+00
  -7.635647e+00   3.303979e+01
  -3.543310e+01   7.418469e+01
  -9.662625e+01   7.069844e+01
  -8.255708e+01   6.164732e+00
   4.726545e+01  -6.600838e+01
  -1.296801e+01  -1.010975e+02
   5.992913e+00   5.736916e+00
   2.318549e+01   5.773077e+01
  -7.268360e+01   3.835469e+01
  -9.798880e+01   9.198237e+00
  -1.959734e+01  -8.738055e+01
  -3.659645e+01  -6.988935e+01
   9.769794e+01   5.284639e+01
   2.460049e+01   2.340625e+01
   2.303596e+01  -1.572165e+01
   6.116227e+00  -4.720263e+01
   3.530921e+01  -2.969461e+01
  -3.847504e+00   3.363292e+01
   6.946643e+01   4.329267e+01
  -1.257922e+01   3.775555e+00
  -4.972512e+01  -1.215524e+01
  -2.742549e+01  -2.850949e+01
   2.379851e+01   2.803620e+01
   1.173244e+01   4.389820e+01
   1.659159e+01   7.890959e+01
  -1.054436e+01   3.914509e+01
  -8.047689e+01   1.895529e+01
  -6.842108e+01  -1.016696e+02
   8.182832e+01  -6.991132e+01
   4.139714e+01  -3.120774e+01
   2.536095e+00  -1.379074e+01
  -6.936399e+01  -3.551749e+01
  -6.772522e+01   2.280640e+01
   4.513827e+01  -3.930454e+01
   4.179284e+01   5.625925e+01
