
 $NMID
 id='ANONYMOUS ', fmtdat='(2E16.6)'
 volume=1.0
 tramp=1.0
 $END
  -4.591974e+03   9.406362e+01
  -2.836138e+03  -2.726472e+03
   6.988397e+02  -3.025302e+03
   2.286010e+03  -1.041082e+03
   1.189959e+03   6.731055e+02
  -6.055099e+02   6.501385e+02
  -9.995367e+02  -3.967592e+02
  -1.115168e+02  -1.095356e+03
   8.874676e+02  -8.100861e+02
   9.610143e+02   1.224214e+02
   5.612596e+02   9.482030e+02
  -2.526315e+02   1.004368e+03
  -6.431482e+02   1.738552e+02
  -4.577001e+02  -7.580428e+02
   2.657429e+02  -7.944220e+02
   6.855286e+02   4.851278e+00
   3.651712e+02   7.194690e+02
  -3.866852e+02   6.837832e+02
  -7.194136e+02   1.352433e+02
  -4.679551e+02  -3.540940e+02
  -1.229255e+02  -4.827647e+02
   2.411218e+02  -2.774223e+02
   2.427937e+02   1.120398e+01
  -1.355106e+02   1.020911e+02
  -4.142667e+02  -1.418598e+02
  -2.048067e+02  -4.178339e+02
   4.476955e+02  -4.577171e+02
   8.907740e+02   8.946523e+01
   5.256145e+02   5.920456e+02
  -3.502510e+02   5.067229e+02
  -7.712976e+02  -5.040982e+01
  -3.362396e+02  -4.935986e+02
   2.923553e+02  -5.422720e+02
   5.612604e+02  -1.934886e+02
   4.643766e+02   1.879424e+02
   1.057651e+02   4.949748e+02
  -1.510537e+02   3.012156e+02
  -1.406560e+02  -1.666735e+02
   1.344956e+02  -4.328161e+02
   4.428972e+02  -4.165855e+01
   2.505497e+02   7.352964e+02
  -3.147992e+02   7.473034e+02
  -5.894106e+02   3.118399e+01
  -3.299374e+02  -6.362044e+02
   2.963246e+02  -3.681662e+02
   4.490742e+02   3.125424e+02
  -3.291025e+01   5.392908e+02
  -5.940049e+02   1.116632e+02
  -6.022092e+02  -4.750771e+02
  -1.716340e+02  -5.976747e+02
   4.741124e+02  -4.264142e+02
   6.649011e+02   6.324787e+01
   3.838122e+02   4.156269e+02
  -1.160325e+02   4.139840e+02
  -5.165782e+02   2.897048e+01
  -2.956340e+02  -1.870629e+02
   1.478595e+02  -1.120358e+02
   1.706426e+02   1.213332e+02
  -1.956801e+02   2.052141e+02
  -3.423580e+02  -6.832494e+01
  -1.404691e+02  -3.064524e+02
   2.247811e+02  -2.582074e+02
   3.692371e+02  -6.939843e+01
   2.499251e+02   8.617494e+01
  -3.041952e+01   2.232866e+02
  -2.574012e+02   4.162519e+02
  -3.119232e+02   1.989953e+02
  -3.336317e+02  -1.690770e+02
  -1.014673e+02  -4.216021e+02
   1.479070e+02  -3.286326e+02
   1.619448e+02  -1.380869e+02
   5.278221e+01   1.790309e+01
   5.265914e+01  -3.195648e+01
   1.603258e+02  -1.565009e+02
   2.013469e+02   3.626404e+01
   1.244790e+02   2.520710e+02
  -9.812615e+01   2.783322e+02
  -2.442725e+02  -3.298007e+01
  -2.378976e+02  -2.025853e+02
  -1.677524e+01  -3.617085e+02
   2.889427e+02  -1.644789e+02
   3.436811e+02   1.992394e+02
   1.975724e+02   3.411341e+02
  -9.662887e+01   3.329305e+02
  -2.316118e+02   1.153678e+02
  -9.112200e+01   2.312662e+01
  -1.199978e+02   5.701992e+00
  -2.347276e+02   4.607976e+01
  -4.553182e+02  -6.601156e+01
  -3.708278e+02  -2.795814e+02
   1.299744e+01  -4.785033e+02
   3.940994e+02  -4.118097e+02
   5.532492e+02  -1.783537e+02
   3.597641e+02   1.023268e+02
   8.439190e+01   3.091328e+02
  -1.222816e+02   2.914480e+02
   8.879063e+00   1.769762e+01
   1.953803e+02  -6.982131e+01
   1.945240e+02  -3.361677e+01
   6.658843e+01   1.363682e+02
  -1.865834e+02   1.719234e+02
  -2.285549e+02  -7.959788e+01
  -2.523126e+01  -1.922962e+02
   1.439583e+02  -2.736875e+01
   1.675986e+02   3.039568e+02
  -6.324027e+00   3.828147e+02
  -2.222302e+02   2.219469e+02
  -3.891701e+02  -4.678310e+01
  -3.174543e+02  -2.566595e+02
  -1.121807e+02  -2.354324e+02
   1.330789e+02  -1.903908e+02
   2.185744e+02  -1.785967e+01
   5.075238e+01  -9.627394e+00
  -8.121627e+01  -7.433040e+01
  -5.744632e+01  -6.427536e+01
   1.631434e+02  -1.090252e+02
   1.135416e+02   6.789503e+01
   7.670619e+01   7.943692e+01
  -6.428881e+01   3.048154e+01
  -9.648639e+01  -9.824934e+01
   1.548984e+02  -1.391956e+02
   2.738449e+02  -1.635420e+01
   2.640361e+02   1.308212e+02
   5.303117e+01   3.291928e+02
  -1.769042e+02   2.913532e+02
  -3.206618e+02   8.851036e+01
  -1.890605e+02   9.719565e+00
   5.830430e+01  -9.293933e+01
   9.374611e+01   7.550776e+00
  -6.265299e+01   1.238328e+02
  -2.264900e+02   3.099856e+01
  -1.715810e+02  -5.285720e+01
  -5.037807e+01  -2.049869e+02
   9.320684e+01  -1.668815e+02
   1.986223e+02  -3.868543e+01
   6.010499e+01   9.004887e+01
  -7.773029e+00   9.090053e+00
  -5.722711e+01  -7.256623e+01
   1.198652e+02  -8.785777e+01
   2.038195e+02   3.655570e+00
   1.730701e+02   1.371023e+02
   1.579713e+01   2.253650e+02
  -2.171146e+02   1.897384e+02
  -1.804992e+02   1.018407e+00
  -3.673671e+01  -1.617698e+02
   3.312667e+01  -1.355293e+02
   1.258739e+02  -1.949593e+01
  -4.203376e+01   1.173629e+01
  -3.320474e+01   4.706413e+01
   2.145004e+01   2.143946e+01
   1.190134e+01   5.293707e+01
   1.523318e+02   9.678109e+01
   2.166364e+01   1.285629e+02
  -1.383376e+02   1.860661e+02
  -1.956744e+02  -4.089566e+01
  -2.168028e+02  -1.781989e+02
  -5.599979e+01  -2.611726e+02
   1.250572e+02  -1.930422e+02
   1.407753e+02  -3.758631e+01
   4.436813e+01   6.074446e+01
   9.169986e+01   4.666911e+01
   6.219315e+01   1.088856e+01
   3.262328e+01  -1.512055e+01
   3.499703e+01   2.661014e+00
  -3.751309e+01   3.280514e+01
  -3.061642e+01   5.598733e+01
  -9.862642e+01  -3.612593e+01
  -1.502119e+01  -1.073839e+02
   2.064389e+02  -5.479562e+01
   1.660653e+02  -3.007208e+00
   4.572077e+01   1.858045e+02
  -1.436994e+02   2.029434e+02
  -2.988359e+02   1.501166e+02
  -3.033510e+02  -1.049116e+02
  -1.024210e+02  -2.127048e+02
   7.444109e+00  -1.185763e+02
   9.115936e+01  -8.007414e+01
   2.959416e+01  -3.578104e+01
   1.037644e+02  -1.118913e+02
   6.179655e+01  -7.514550e+01
   1.363110e+02  -1.926856e+01
   1.180162e+02   2.039282e+02
   4.118534e+01   2.201299e+02
  -6.778709e+01   2.001979e+02
  -1.850447e+02   1.804862e+01
  -1.585899e+02  -7.381183e+01
  -4.018297e+01  -1.936920e+02
   9.480716e+01  -7.006696e+01
   4.658180e+01  -2.216795e+01
   1.534294e+00   4.236262e+01
   5.110034e+01   2.769824e+01
   7.329638e+01   1.533299e+01
   3.093588e+01   2.928064e+01
   2.883481e+01   4.361365e+00
  -9.159639e+01   8.195843e+01
  -1.722474e+02  -1.648204e+01
  -1.609346e+02  -1.078751e+01
  -1.579042e+01  -1.296688e+02
   8.506286e+01  -6.746691e+01
   7.723420e+01   8.395153e+00
   2.798255e+01   4.961657e+01
  -7.020893e+01   6.186345e+01
  -1.170623e+02   1.781381e+01
  -1.155241e+01  -3.998216e+01
   4.697039e+01  -6.427744e+01
   5.417273e+01  -3.001069e+00
  -1.842339e+01   7.443880e+01
   4.731390e+01   3.231573e+01
   6.439328e+01  -9.482234e+00
   1.041325e+02   3.711286e+01
   2.152478e+01   9.840130e+01
  -9.324537e+01   1.244553e+02
  -1.470733e+02   1.663605e+02
  -1.363312e+02   6.968782e+01
  -1.077473e+02  -6.175193e+01
   2.997066e+01  -9.926108e+01
   1.015668e+02  -1.760902e+01
   7.089079e+01  -4.813803e+01
  -9.743110e+01   1.442876e+01
  -1.355846e+02  -1.574510e+02
  -4.338398e+01  -4.492644e+01
   3.795083e+01  -1.231594e+02
   2.595487e+02  -8.033064e+01
   2.263428e+02   4.875166e+01
   3.108027e+01   1.437098e+02
  -5.491826e+01   9.918978e+01
  -3.892478e+01   7.902491e+01
   1.805961e+01  -5.109613e+01
   8.322556e+01   4.385530e+01
   7.909092e+01   1.102026e+02
  -8.238925e+01   1.844764e+02
  -1.525592e+02   8.225419e+01
  -1.387437e+02  -8.930994e+01
  -2.560439e+00  -2.001016e+02
   3.558406e+01  -1.115006e+02
   1.110901e+02   2.520253e+01
   4.208745e+01   2.500701e+01
  -6.230143e+00   1.171653e+02
  -1.959705e+01  -3.499439e+01
   3.749592e+00  -8.964174e+00
   1.145569e+01  -2.872008e+01
   2.459632e+01   5.643696e+01
  -2.243884e+01   3.612043e+00
  -5.098119e+01  -9.093243e+01
  -4.099436e+01  -1.208644e+02
   4.806572e+01  -6.165339e+01
   1.542595e+02   6.377272e+01
   1.846917e+02   8.517581e+01
   6.166370e+01   6.454345e+01
  -1.172396e+02   3.857143e+01
  -1.059791e+02  -2.276665e+01
  -3.656404e+01  -7.440953e+01
   6.451906e+01  -3.293614e+01
   2.810908e+01  -7.002202e+00
  -5.834376e+01   1.920961e+01
  -7.622267e+00   2.380658e+01
   9.949118e+01  -1.147619e+01
   8.283462e+01   1.754374e+01
  -1.013664e+01   1.112063e+02
  -1.301805e+02   1.810999e+02
  -1.800751e+02   1.007460e+02
  -1.275901e+02  -1.116087e+02
   2.181112e+01  -1.318291e+02
   8.324188e+01  -2.008478e+02
   1.639812e+02  -3.166303e+01
   1.950083e+01   4.783080e+01
   3.720708e+01   2.037366e+01
  -2.439580e+01  -6.367754e+01
   1.865049e+01   2.742993e+00
   4.562027e+01   8.968679e+00
   4.039612e+01   1.202472e+02
  -5.085594e+01   7.714741e+01
  -1.289527e+02  -7.616039e+00
  -1.166132e+02  -1.033422e+02
  -1.911192e+01  -7.421077e+01
   1.316354e+02  -4.897445e+01
   1.292183e+02   4.849469e+01
   9.276262e+00   1.666880e+02
  -5.399128e+01   9.211497e+01
  -1.421549e+02  -8.740593e+00
  -4.295413e+01  -7.592224e+01
   4.326631e+01  -5.602395e+01
   4.999006e+01  -5.735531e+00
   4.826899e+01  -3.305151e+01
  -1.364894e+02  -1.263443e+01
  -2.225117e+01  -3.104197e+01
   6.895730e+01  -8.349474e+01
   7.142720e+01  -4.778030e+01
   4.963572e+01   4.793160e+00
  -2.189529e+01   1.362861e+02
  -2.472824e+01   8.777190e+00
  -2.767197e+01   6.961131e+01
   3.169238e+00  -3.056520e+01
   9.065681e+01  -8.229342e+01
  -3.459994e+00   4.958362e+00
   9.168117e+00   5.165800e+01
  -7.131326e+00   1.930160e+01
  -5.446658e+01   3.424257e+00
  -8.120053e+00   7.044066e-01
   7.876635e+00  -6.171184e+01
   5.976601e-01  -1.381092e+01
  -1.841793e+00   4.141997e+01
  -3.570197e+01  -4.712707e+01
   1.305717e+01  -3.201602e+01
   1.173799e+01  -1.017962e+01
   7.190935e+01   6.847108e+01
  -1.176406e+01   7.391074e+01
   1.353645e+01   3.084772e+01
  -7.545636e+01  -1.014982e+02
  -7.511237e-01  -3.968967e+01
   5.953111e+01  -5.331233e+01
   1.095720e+02   1.792840e+00
  -3.310208e+00  -7.991272e+00
   2.528723e+01   9.102425e+01
  -3.468377e+01  -2.820533e+01
  -9.385270e+01  -4.319538e+01
  -1.362564e+00  -4.101429e+01
   3.454399e+01   3.782887e+01
  -2.017954e+01   4.120635e+01
  -8.213178e+01   9.686257e+00
