
 $NMID
 id='ANONYMOUS ', fmtdat='(2E16.6)'
 volume=1.0
 tramp=1.0
 $END
  -1.400776e+03  -6.245154e+01
  -9.036514e+02  -5.531985e+02
  -1.479467e+02  -8.698093e+02
   4.643043e+02  -7.072305e+02
   4.868381e+02  -2.820735e+02
   1.739115e+02   2.557724e+01
  -6.672694e+01   1.959779e+00
  -2.604534e+01  -9.654294e+01
   7.613648e+01  -3.251838e+02
   2.163955e+02  -5.618503e+01
   2.058102e+02   1.729918e+02
   6.192710e+01   2.384147e+02
  -1.334061e+02   1.036346e+02
  -2.326838e+01  -1.645099e+02
  -2.410726e+01  -2.203189e+02
   1.012805e+02  -7.862465e+01
   1.371119e+02   2.454676e+02
  -3.566346e+01   3.037599e+02
  -1.872874e+02   1.744749e+02
  -2.165064e+02  -3.176938e+01
  -9.080861e+01  -1.635754e+02
   1.862327e+01  -1.063315e+02
  -5.293418e+01  -2.761715e+01
  -1.026128e+02  -9.695058e+01
  -1.466498e+02  -2.142490e+02
   7.433755e+01  -1.583214e+02
   2.347574e+02  -7.190872e+00
   2.586100e+02   1.192468e+02
   8.329300e+01   1.266243e+02
  -1.443694e+02   3.117558e+01
  -2.394352e+02  -8.088198e+01
  -1.482693e+01  -1.404655e+02
   9.783712e+01  -1.183777e+02
   2.029974e+02  -7.625604e+01
   1.199616e+02   9.580416e+01
   4.939586e+01   9.950651e+01
   8.171389e+00   1.073282e+02
   2.648207e+01  -5.348097e+01
   8.289962e+01  -7.009099e+00
   6.945426e+00   1.217553e+02
  -3.918168e+01   2.070166e+02
  -8.475918e+01   9.466979e+01
  -5.404902e+01  -4.367615e+01
  -3.923909e+01  -6.905607e+01
   2.550120e+01   2.600831e-01
   9.392951e+00   1.149262e+02
  -7.389938e+01   1.572006e+02
  -1.862970e+02   3.273759e+01
  -1.699536e+02  -1.646942e+02
  -9.688439e+01  -2.267622e+02
   1.515131e+02  -9.693859e+01
   1.867398e+02   1.212831e+01
   1.806379e+02   6.730629e+01
  -5.318153e+01   1.081046e+02
  -1.046839e+02   6.069602e+01
  -1.057986e+02   1.836388e+01
  -3.996312e+01   1.798006e+01
  -3.488389e+01   2.720002e+01
  -2.784049e+01  -3.204171e+01
  -3.873278e+01  -3.308926e+01
  -4.138795e+01  -7.010956e+01
   3.547154e+01  -1.211457e+02
   2.075314e+02  -6.519503e+01
   1.694179e+02   9.779629e+01
  -5.429978e+01   1.428766e+02
  -2.014813e+02   1.921907e+02
  -1.514306e+02   7.356901e+01
  -1.220366e+02  -1.172122e+02
   1.667621e+01  -1.168843e+02
  -2.684740e+00  -2.374934e+02
   2.331528e+01  -1.391097e+02
  -8.833512e+00  -8.558494e+01
   9.771306e+01  -5.112649e+01
   1.747499e+02  -1.528948e+01
   1.578795e+02   1.050995e+02
   3.738506e+01   1.184667e+02
  -1.347918e+02   9.376122e+01
  -6.027591e+01  -3.984464e+01
   2.490454e+01  -1.107366e+02
   8.349205e+01  -1.232287e+02
   1.095541e+02   2.340251e+01
   1.046618e+02   1.465578e+02
   1.265860e+02   1.608641e+02
  -1.849750e+01   7.886435e+01
  -8.387643e+01   8.553272e+01
  -9.094214e+01   8.354614e+01
  -8.568740e+01   8.385206e+01
  -1.433564e+02   2.005275e+01
  -2.976023e+02  -6.976590e+01
  -1.403192e+02  -1.687986e+02
   5.160041e+01  -1.739935e+02
   1.582273e+02  -1.826401e+02
   2.486873e+02  -6.284939e+01
   1.170549e+02   5.005807e+01
   5.246046e+01   1.295659e+02
  -4.586040e+01   7.781827e+01
  -1.899843e+00   1.762243e+00
   5.907652e+01  -1.760501e+01
  -6.929476e+00  -2.820137e+01
  -1.564163e+00   1.511088e+01
  -9.507622e+01   1.551721e+01
  -6.067201e+01  -4.745207e+01
   6.196078e+01  -3.808379e+01
   1.813712e+01   4.694020e+01
   1.205516e+02   1.101099e+02
   1.443105e+01   1.486162e+02
  -1.661844e+02   8.511369e+01
  -1.288656e+02  -3.143087e+00
  -1.780006e+02  -1.359490e+02
  -7.456657e+00  -1.572664e+02
   4.992723e+01  -9.413399e+01
   7.261204e+01  -3.185259e+01
   6.617446e+01   3.580872e+01
  -7.222900e+01   1.234407e+00
  -1.855406e+01  -2.444927e+01
   6.513600e+01   6.073703e+00
   1.021639e+02   5.652925e+01
  -2.622313e+01   2.302425e+01
  -7.276384e+01  -3.473911e+01
  -1.684754e+01  -6.840075e+01
   9.051429e+01  -4.340990e+01
   1.871458e+02   2.390537e+01
   1.641181e+02   9.804675e+01
  -3.850053e+01   1.501166e+02
  -1.028775e+02   7.914849e+01
  -1.601506e+02   2.802740e+01
   2.126641e+00  -6.765067e+01
   1.652582e+01  -4.734422e+01
   1.065215e+01   4.624968e+01
   9.172279e+00   5.431735e+01
  -1.437536e+02  -1.820357e+01
  -1.006532e+02  -6.118428e+01
  -5.551080e+01  -1.538597e+02
   3.308421e+01  -9.540097e+01
   2.605980e+01   2.648617e+01
   1.890707e+01   1.601109e+01
  -3.185493e+01  -6.742688e+00
   4.983806e+01  -5.219952e+01
   5.113363e+01  -5.671005e+01
   1.170095e+02   3.917508e+00
   7.582453e+01   1.313178e+02
   3.681330e+01   1.019327e+02
  -1.164188e+02   5.950704e+00
  -1.083506e+02   1.256137e+00
  -7.076085e+01  -4.783972e+01
   2.783009e+01  -1.544960e+01
   2.028594e+00   4.135593e+01
  -5.983493e+00  -8.467250e+00
  -7.897782e+00   3.962107e+01
   2.012142e+01  -3.773444e+01
   3.532331e+01   4.159243e+01
   7.194359e+01   8.952297e+01
   2.625107e+01   7.545410e+01
  -4.438700e+01   1.314113e+02
  -1.503071e+02   2.247459e+01
  -8.531049e+01  -6.871227e+01
  -3.359751e+01  -6.176785e+01
   4.035726e+01  -1.384600e+02
   4.815254e+01  -4.078054e+01
   5.574548e+01  -4.432297e+00
   9.801706e+01   4.465909e+01
   2.597947e+01  -5.666967e+01
   4.286678e+01   3.246066e-01
   1.986717e+01   8.775047e+01
  -4.859271e+01   1.507993e+01
  -7.224448e+01   3.475741e+01
  -2.814985e+01  -2.011472e+01
   5.965147e+00  -3.424587e+01
   1.146197e+02   3.729084e+01
   1.044590e+02   3.787028e+01
   4.776878e+00   2.650723e+01
  -9.230276e+01   5.067035e+01
  -1.271526e+02   1.120976e+01
  -5.940799e+01  -7.486076e+01
  -3.561269e+01  -7.320948e+01
   1.886318e+01  -8.000355e+01
   2.969216e+01  -6.995685e+01
   4.650895e+01  -5.749422e+01
   6.484086e+01  -9.426070e+00
   4.697233e+01  -8.295492e+01
   8.238329e+01   4.424454e+01
   5.432197e+01   1.124203e+02
  -2.452859e+01   1.033607e+02
  -8.792428e+01   3.060414e+01
  -7.952588e+01  -3.719896e+01
  -4.404296e+01  -9.490107e+01
  -3.405711e+00  -1.101083e+02
   4.020652e+01  -6.785502e+01
   6.116834e+01   2.030137e+01
  -5.406543e+01   2.623600e+01
  -2.629297e+01  -6.046615e+01
   5.144396e+00   4.794376e+01
   1.632798e+01  -8.367623e+01
   6.688773e+01   8.489521e+01
  -1.203581e+02   9.769897e+00
  -9.858692e+01  -1.320000e+01
  -1.192552e+02  -2.102648e+01
   7.610773e+00  -6.571894e+01
   9.376134e+01  -2.725446e+00
   4.775049e+01  -5.884659e+01
   6.061471e+01   3.667665e+01
  -3.698871e+01   6.695051e+01
  -4.483941e+01  -4.279172e+01
  -7.708905e+01  -2.708786e+00
   5.725525e+01  -1.754220e+01
   6.947919e+01  -2.132116e+01
   1.009438e+01  -1.634392e+01
   7.758740e+01   9.543784e+00
   5.943066e+01   2.311757e+00
   2.825096e+01  -6.640281e+01
   2.053576e+01   6.101311e+01
  -3.423532e+01   8.848047e+01
  -9.362367e+01   7.961385e+01
  -6.934814e+01  -3.496193e+01
  -9.706538e+01  -1.021795e+02
   1.830821e+01  -7.732654e+01
   7.318242e+01  -1.118327e+01
   4.271416e+01   5.516378e+01
   3.423211e+00   2.572724e+00
  -4.068423e+01  -5.051508e+01
  -2.323139e+01  -6.753137e+01
   8.527019e+00  -7.971781e+01
   5.321482e+01  -1.243369e+01
   4.966954e+01   6.954447e+01
   1.402260e+01   5.058482e+01
  -3.287701e+01   8.017041e+01
  -5.623681e+01   9.880872e+00
   2.653614e+01  -3.752947e+01
   3.630955e+01   3.485334e+01
   1.745704e+01   1.156766e+02
  -2.735266e+00   4.799357e+01
  -9.056656e+01   1.205064e+02
  -8.651824e+01  -1.735753e+01
   3.358781e+01  -8.711971e+01
   7.505422e+01  -3.599971e+01
   1.069118e+02  -3.953543e+01
   2.132531e+01   2.509091e+01
  -1.474938e+01   3.488449e+01
  -3.640737e+01  -4.582470e+00
  -2.702534e+01  -1.597635e+01
  -8.198929e+00  -1.729354e+01
   3.644366e+01  -1.992589e+01
   3.710878e+01   3.371564e+01
  -5.723103e+00   1.720753e+01
   1.874606e+01  -6.971645e+01
   9.945664e+01   1.863625e+01
   4.911240e+01   6.268211e+00
   2.994577e+01   3.728187e+01
   1.111435e+01   1.665251e+01
  -4.493042e+01  -1.737343e+01
  -5.433752e+01   5.948050e+01
   6.575571e+00   1.166060e+01
  -3.211393e+01   1.199703e+01
  -1.027200e+01  -7.623867e+00
   4.449413e+01   1.589536e+01
  -8.936478e+01   7.266771e+01
   2.502526e+01  -1.987942e+00
   8.948055e+01   1.571052e+01
  -2.755937e+01  -1.447902e+01
  -1.349726e+02   9.829715e+01
  -6.471584e+01   9.316664e+01
  -7.364246e+01   6.408597e+00
   3.602287e+01  -9.380012e+01
   4.691866e+01  -1.007305e+02
   5.610116e+01  -9.595132e+01
  -6.383830e+00  -1.605927e+01
   2.526698e+01   5.189004e+01
  -1.151278e+01   3.370007e+01
  -3.201679e+01   4.669888e+01
   6.839600e+00   4.655292e+01
  -1.500652e+01   5.324702e+01
   2.129991e+01   1.556806e+01
  -5.110803e+01  -7.281575e+01
  -3.002787e+01  -3.165383e+01
  -1.401485e+01  -2.485661e+01
  -1.877439e+01  -2.421799e+01
   5.449901e+01   1.247407e+01
   3.922077e+01   5.953969e+01
  -1.494631e+01   8.449750e+01
  -6.172666e+01  -2.807330e+00
  -1.295467e+01  -4.574838e+01
  -5.799921e+00  -9.786486e+01
   6.902115e+01   3.817827e+01
  -7.520068e+01   2.263734e+01
  -4.990883e+01  -2.072254e+01
  -6.206550e+01  -3.101427e+01
   5.572133e+01  -2.738771e+01
  -1.789281e+01  -7.801787e+01
   1.866970e+01   3.792435e+01
   2.131940e+01   3.580314e+01
  -3.529843e+01   4.481449e+01
  -1.915284e+01   1.775149e+01
  -3.877142e+01   6.502497e-01
   4.488161e+01  -2.114424e+01
   3.047330e+01   6.188041e+01
  -4.984902e+01   3.734762e+01
   3.977447e+01   4.165230e+00
  -1.139840e+01   1.732017e+01
   1.676395e+01  -2.153235e+01
  -3.683315e+01  -3.403450e+01
  -3.968423e+01   2.711318e+01
   2.192294e+01  -1.909766e+01
  -6.979226e+01  -7.890679e+01
  -2.798704e+01  -4.114687e+01
   1.735817e+01   1.584597e+01
   3.906655e-01   4.153731e+00
   4.089659e+01   6.652943e+01
  -5.255862e+01   3.576739e+01
  -5.614373e+01  -6.247390e+01
   1.286436e+01  -5.129635e+01
  -3.259080e+01  -3.403258e+01
   3.717920e+01  -4.611023e+01
   3.664146e+01   5.202580e+01
  -5.110468e+00   2.393106e+01
   7.480433e+00   1.745305e+01
  -2.788572e+01  -4.038919e+01
  -2.012441e+01  -9.913540e+00
   5.320610e+01   5.240650e+01
  -1.497084e+01   1.510863e+01
  -1.438084e+01   2.339488e+01
