
 $NMID
 id='ANONYMOUS ', fmtdat='(2E16.6)'
 volume=1.0
 tramp=1.0
 $END
  -2.607597e+03   1.084969e+01
  -1.858603e+03  -1.136227e+03
  -2.613956e+02  -1.629084e+03
   8.351448e+02  -1.277260e+03
   8.954730e+02  -4.628272e+02
   2.989786e+02  -6.810234e+00
  -2.093007e+02   3.901171e+01
  -9.498452e+01  -2.999893e+02
   3.116468e+02  -4.719090e+02
   5.082447e+02  -1.665277e+02
   4.576633e+02   3.249094e+02
   1.193561e+02   4.841125e+02
  -1.423518e+02   2.374667e+02
  -1.699452e+02  -3.071638e+02
   7.742945e+01  -4.422368e+02
   2.982517e+02  -6.313147e+01
   3.206548e+02   4.426226e+02
  -1.017888e+00   5.824685e+02
  -3.739739e+02   3.191088e+02
  -4.325776e+02  -6.003035e+01
  -1.244879e+02  -3.272572e+02
   6.672895e+00  -2.888684e+02
  -1.043329e+01  -8.823275e+01
  -1.941884e+02  -1.651322e+02
  -2.482544e+02  -3.307456e+02
   6.035195e+01  -2.999343e+02
   4.436686e+02  -1.092828e+02
   5.299920e+02   1.811662e+02
   1.236156e+02   2.587309e+02
  -2.493479e+02   1.038008e+02
  -4.530405e+02  -1.139002e+02
  -1.530565e+02  -2.478789e+02
   2.439927e+02  -3.220623e+02
   4.002632e+02  -9.410220e+01
   2.830013e+02   1.176582e+02
   8.634253e+01   1.849358e+02
   4.687076e+01   1.107545e+02
   1.849786e+02  -1.192109e+01
   2.268970e+02  -9.157892e+01
   6.045794e+01   1.450085e+02
  -5.468376e+01   3.791462e+02
  -1.751037e+02   3.726262e+02
  -2.055371e+02   1.867220e+01
  -5.037035e+01  -2.301228e+02
   9.106132e+01  -1.025730e+02
   6.060168e+01   2.581279e+02
  -1.521368e+02   3.248423e+02
  -4.524257e+02   3.988261e+01
  -4.670097e+02  -3.191839e+02
  -1.694876e+02  -4.416894e+02
   1.795939e+02  -2.126994e+02
   4.272346e+02   1.865607e+01
   2.996176e+02   1.669476e+02
   1.058436e+01   1.406801e+02
  -2.396483e+02   5.177105e+01
  -1.937032e+02   6.496223e+01
  -7.200362e+01   3.580615e+01
   6.973498e+01   3.669694e+01
  -1.992264e+01   1.453361e+00
  -1.439888e+02  -1.851336e+01
  -1.162946e+02  -1.067388e+02
   1.178233e+02  -2.629648e+02
   3.213585e+02  -1.365164e+02
   2.701710e+02   3.509641e+01
  -4.114393e+00   3.078626e+02
  -3.281667e+02   4.027675e+02
  -3.696836e+02   1.043954e+02
  -1.760781e+02  -1.733333e+02
   3.896981e+01  -3.016102e+02
  -6.274238e+00  -2.306701e+02
   2.216120e+00  -1.553130e+02
   5.052376e+01  -1.833839e+02
   1.492601e+02  -1.275212e+02
   2.909411e+02  -6.444544e+00
   2.143074e+02   1.492038e+02
   8.916873e+01   2.098203e+02
  -5.516732e+01   1.301966e+02
  -1.818242e+02  -2.046969e+01
  -6.006149e+01  -2.483267e+02
   6.913495e+01  -2.327258e+02
   2.627444e+02  -4.994977e+01
   3.219827e+02   2.012087e+02
   1.817572e+02   2.362333e+02
  -5.862081e+01   2.487543e+02
  -1.702867e+02   1.452655e+02
  -1.685279e+02   5.335692e-01
  -1.218549e+02   5.513227e+01
  -2.802590e+02   2.762482e+01
  -3.809667e+02  -1.172404e+02
  -2.915409e+02  -2.349196e+02
   7.807284e+01  -4.230337e+02
   3.538596e+02  -3.792379e+02
   4.961412e+02  -2.021069e+02
   2.660983e+02   6.115203e+01
   7.817014e+01   1.974082e+02
  -1.164883e+02   1.751591e+02
   4.780362e+01   3.499226e+01
   8.408429e+01   5.392330e+00
   7.618714e+01   1.185910e+02
   5.779183e+01   1.560118e+02
  -3.418675e+01   1.316724e+02
  -8.939903e+01  -2.419198e+01
  -3.686476e+01  -1.191703e+02
   1.564477e+02   3.934824e+01
   9.686815e+01   1.738602e+02
  -7.569867e+00   3.258424e+02
  -1.964130e+02   1.918540e+02
  -3.342197e+02  -8.631732e+01
  -2.596152e+02  -2.221045e+02
  -5.904499e+01  -2.303186e+02
   9.772549e+01  -1.503479e+02
   1.679417e+02   1.719548e+01
   7.581553e+01   2.864129e+01
  -7.429328e+01  -5.209904e+01
  -7.142204e+01  -2.809467e+01
   1.486766e+02  -5.015233e+01
   1.317373e+02   7.409254e+01
  -1.805405e+01   1.246929e+01
  -1.257318e+02   2.218334e+01
  -2.237460e+01  -1.467937e+02
   1.312124e+02  -1.185003e+02
   3.527615e+02   1.512654e+01
   2.071169e+02   1.477684e+02
   2.463476e+01   3.069761e+02
  -2.114221e+02   1.269428e+02
  -2.372726e+02   4.778235e+00
  -1.850627e+02  -3.609200e+01
   6.391813e+01  -1.000465e+02
   9.337386e+01  -5.481331e-01
  -6.712978e+01   1.079700e+02
  -1.510617e+02  -1.399459e+01
  -2.135523e+02  -1.157409e+02
  -8.865017e+01  -2.011768e+02
   1.025317e+02  -1.574300e+02
   1.356214e+02  -1.136150e+01
   7.988730e+01   8.071769e+01
  -7.008681e+01  -3.960204e+01
  -4.695698e+01  -1.084417e+02
   1.222267e+02  -1.692272e+02
   2.229598e+02   7.795260e+01
   1.713065e+02   1.406109e+02
  -3.662669e+01   1.952891e+02
  -1.833170e+02   1.759397e+02
  -1.184448e+02  -2.877031e+01
  -1.246456e+02  -4.786439e+01
   7.190845e+01  -8.095239e+01
   7.384558e+01  -3.149412e+01
   4.196093e+01   5.326422e+01
  -3.398252e+01  -2.019689e+01
   1.776003e+01  -7.488915e+01
   8.716723e+01  -3.698414e+01
   9.707428e+01   8.499458e+01
   6.419339e+01   2.088734e+02
  -1.565964e+02   1.613319e+02
  -2.247620e+02  -3.851073e+01
  -2.168981e+02  -1.501239e+02
  -2.326855e+01  -1.418488e+02
   3.713996e+01  -1.655761e+02
   9.735575e+01   3.195454e-01
   4.043407e+01   3.006702e+01
   4.850062e+01   2.120758e+01
   4.264604e+01  -3.772782e+01
   4.369251e+01   2.739255e+01
   5.657089e+01   5.727927e+01
  -2.200104e+01   1.184534e+02
  -1.717802e+02   5.799370e+01
  -1.299352e+02  -2.114141e+01
  -4.163095e+01  -1.437353e+02
   1.845046e+02  -1.640481e+02
   2.629978e+02   4.781234e+01
   1.524840e+02   2.049550e+02
  -1.283706e+02   2.548101e+02
  -3.019613e+02   5.763085e+01
  -1.817319e+02  -4.445112e+01
  -7.710749e+01  -1.683060e+02
   4.634294e+01  -1.626501e+02
   6.738645e+01  -7.568836e+01
   6.680105e+01  -9.840105e+01
   3.696072e+00  -9.229741e+01
   4.466863e+01  -8.333332e+01
   1.224261e+02   3.154952e+01
   1.255787e+02   7.014481e+01
   5.429110e+01   2.517933e+02
  -6.182878e+01   1.253310e+02
  -1.714383e+02  -1.072554e+01
  -1.172421e+02  -1.082187e+02
   2.160618e+01  -2.026869e+02
   4.775378e+01  -7.212402e+01
   8.424925e+01   2.239562e+01
  -1.761407e+01   5.523000e+01
  -6.607596e+01   6.431537e+01
   2.215238e+01   1.605641e+01
   6.628559e+01   1.317379e+01
   6.287224e+01   3.616000e+01
  -7.712587e+01   2.229141e+01
  -1.510024e+02  -1.490265e+01
  -1.391829e+02  -6.443439e+01
   6.062498e+01  -8.825244e+01
   1.447617e+02  -7.272822e+01
   1.349963e+02   4.360158e+01
   2.356455e+01   2.447138e+01
  -1.193847e+02   3.720428e+01
  -7.365549e+01  -2.191633e+01
   1.052259e+01  -7.210184e+01
   6.028270e+01  -7.009603e+01
   4.450028e+01   4.448967e+01
   8.685202e+01   5.082350e+01
   1.759564e+01   1.305204e+01
   9.198621e+01  -2.751858e+00
   1.003038e+02   1.349304e+01
  -1.208887e+01   9.033438e+01
  -9.252393e+01   1.229423e+02
  -2.007211e+02   1.690098e+02
  -1.617294e+02   4.453972e+01
  -1.485087e+02  -1.325726e+02
  -4.078504e+01  -6.422439e+01
   1.126929e+02  -6.536451e+01
   1.180982e+02  -1.371614e+01
  -1.392465e+00   1.198605e+01
  -7.740792e+01  -1.745824e+01
  -9.842705e+01  -4.370815e+01
   7.463192e+01  -1.441707e+02
   1.921892e+02  -1.959229e+01
   9.882934e+01   3.769757e+01
   3.377752e+01   1.155841e+02
  -1.150447e+02   9.083408e+01
  -3.000067e+01  -6.482863e+01
  -6.156710e+00   3.281792e+00
   5.960554e+01   1.713613e+00
   4.192404e+00   8.384898e+01
  -6.451060e+01   1.735715e+02
  -1.459148e+02   7.236265e+01
  -8.926161e+01  -8.900775e+01
  -7.519165e+00  -2.061350e+02
   4.979176e+01  -1.009868e+02
   4.811619e+01   1.703820e+01
   5.681087e+01   1.190979e+02
  -2.065967e+01   5.310015e+01
  -3.274819e+01  -7.135364e+01
   6.280405e+00  -4.018516e+01
   1.797024e+01  -2.379038e+01
  -4.416158e+01   7.143503e+01
  -1.575023e+01   1.840776e+01
  -6.478171e+01  -1.099864e+02
  -1.654398e+01  -1.016320e+02
   1.103818e+02  -2.555574e+01
   1.436792e+02  -5.416745e+01
   1.070621e+02   9.862745e+01
  -1.858810e+01   6.372374e+01
  -1.209201e+02   3.789373e+01
  -6.519582e+01  -1.273567e+01
   5.896462e+00  -1.664205e+01
   1.890301e+01  -8.660061e+01
   3.968451e+01   2.362786e+01
   5.149635e+01   2.578020e+01
   1.965370e+01   3.289980e+00
   3.639260e+01   2.505025e+01
   1.424415e+02   8.829473e+00
  -9.486570e+00   7.108187e+01
  -1.249304e+02   1.289739e+02
  -1.705649e+02   8.865935e+01
  -1.156807e+02   3.341410e+01
  -8.677366e+01  -1.439240e+02
   3.152651e+01  -1.814893e+02
   1.079446e+02  -3.100987e+01
   2.538087e+01   2.848893e+01
   1.510003e+01   2.527473e+01
   3.718612e+01  -7.014378e+00
   3.045554e+01   5.423133e-01
  -2.662868e+01   5.769366e+01
   5.377496e+00   8.151776e+01
  -4.308220e+01   2.316184e+01
  -8.372773e+01   1.860716e+01
  -7.158282e+01  -4.499945e+01
   6.943865e+00  -8.838748e+01
   2.043464e+01  -7.039199e+01
   8.428565e+01   6.979072e+01
  -1.986442e+00   7.821343e+01
  -3.888328e+01   2.614045e+01
  -1.135785e+02  -4.158169e+01
  -3.652109e+00  -6.592273e+01
   5.074606e+01  -5.083520e+01
   4.502411e+01   4.139407e+00
  -5.366921e+01  -6.316785e+01
  -5.109666e+01  -4.193632e+01
  -8.534853e+00  -4.142597e+01
   4.617453e+00  -6.394258e+01
   1.012579e+02  -4.292095e+01
   3.622913e+01   1.312399e+01
  -3.219653e+01   7.313258e+01
  -2.264847e+01   8.219133e+01
  -5.993304e+01   5.129697e+01
  -4.082336e+00   7.723629e+00
   3.433620e+01  -6.013836e+01
  -2.070498e+01  -2.442773e+01
   1.408081e+01   6.277072e+01
   7.764918e+00   9.674945e+01
  -2.265687e+01  -2.926602e+01
  -2.350344e+01  -7.204305e+00
  -5.223261e+01  -6.138119e+01
  -6.144505e+01  -1.037325e+01
   3.367259e+01  -3.739021e+01
  -3.288375e+01  -4.954762e+01
  -3.607346e+01  -2.742924e+01
   9.226406e+00   1.396194e+01
   5.359031e+01   2.543131e+01
   1.725355e+01   8.359269e+01
  -1.066376e+00   7.356619e+01
  -5.928988e+01  -3.776855e+01
  -4.178833e+01  -3.555938e+01
   2.152988e+01  -1.319584e+01
   7.393017e+01   4.482668e+01
   3.941951e+01   5.441138e+01
  -6.808900e+01   6.039710e+01
  -7.044382e+01   5.752895e+01
   1.788651e+01  -9.497142e+00
   3.114945e+01  -4.238514e+01
   1.676475e+01  -1.069339e+01
  -7.636501e+00   6.170535e+01
  -1.574603e+02   1.170289e+00
