
 $NMID
 id='ANONYMOUS ', fmtdat='(2E16.6)'
 volume=1.0
 tramp=1.0
 $END
   2.804528e+03   1.006069e+02
   2.004008e+03   1.222207e+03
   3.041408e+02   1.764815e+03
  -8.824475e+02   1.431214e+03
  -9.333129e+02   6.486999e+02
  -3.157418e+02  -4.984780e+01
   1.263704e+02  -1.893225e+01
   8.149747e+01   3.433890e+02
  -3.061842e+02   5.089895e+02
  -4.831528e+02   1.976864e+02
  -3.776780e+02  -3.782017e+02
  -7.809901e+01  -5.521013e+02
   2.231136e+02  -2.298638e+02
   1.961031e+02   2.676116e+02
  -3.510682e+01   4.272919e+02
  -2.423301e+02   1.314678e+02
  -3.358664e+02  -3.490793e+02
   7.640107e+01  -6.336952e+02
   3.616373e+02  -3.727883e+02
   4.742426e+02   2.954223e+01
   1.623648e+02   3.418090e+02
  -7.250782e+01   2.444535e+02
   2.283410e+01   4.434914e+01
   2.153023e+02   1.852790e+02
   2.365567e+02   3.986894e+02
  -1.374550e+02   3.139276e+02
  -5.306397e+02   8.965168e+01
  -5.482837e+02  -2.419851e+02
  -1.521988e+02  -2.762443e+02
   2.852718e+02  -1.139321e+02
   4.037954e+02   2.266260e+02
   1.847899e+02   3.275730e+02
  -1.937232e+02   2.898823e+02
  -4.568800e+02   5.384907e+01
  -3.296475e+02  -1.183023e+02
  -8.797725e+01  -2.569178e+02
  -4.926563e+01  -1.385476e+02
  -1.267991e+02   2.772446e+01
  -2.409566e+02   7.251748e+01
  -1.570940e+02  -1.983251e+02
   5.143449e+01  -3.905861e+02
   2.104249e+02  -3.255120e+02
   2.644255e+02   9.513658e+01
   3.005009e+01   2.342728e+02
  -7.856928e+01   6.795709e+01
  -5.447056e+01  -2.450408e+02
   1.028247e+02  -3.212225e+02
   4.064937e+02   2.757110e+01
   4.279599e+02   2.881179e+02
   1.061344e+02   4.243529e+02
  -3.037139e+02   2.270420e+02
  -5.431766e+02  -5.278382e+01
  -3.111206e+02  -1.923904e+02
  -3.062977e+01  -1.783499e+02
   3.062863e+02  -6.724360e+01
   1.708231e+02  -3.214534e+01
   3.361334e+01  -5.218507e+01
   6.472614e+00  -4.162990e+01
   5.434809e+01  -3.389830e+01
   1.805212e+02   2.822023e+01
   1.173662e+02   1.736151e+02
  -8.476914e+01   2.819557e+02
  -3.166193e+02   2.665332e+02
  -2.898892e+02  -9.687099e+01
   8.183030e+00  -3.478967e+02
   3.063191e+02  -3.604667e+02
   3.815982e+02  -9.442056e+01
   2.168080e+02   1.963076e+02
   4.541544e+01   3.391529e+02
   2.894791e+00   2.894030e+02
   3.357350e+01   1.791907e+02
  -4.693471e+01   1.798373e+02
  -1.942539e+02   7.742056e+01
  -2.972478e+02   4.183657e+01
  -2.580222e+02  -1.418508e+02
  -8.132513e+01  -2.951584e+02
   1.549739e+02  -1.133939e+02
   2.243010e+02   8.287330e+01
   1.195875e+02   2.991053e+02
  -2.373378e+00   2.551638e+02
  -1.932821e+02   1.394455e+00
  -3.086467e+02  -2.350557e+02
  -1.705871e+02  -3.087454e+02
  -1.430124e+01  -2.099013e+02
   1.323858e+02  -1.758246e+02
   1.134760e+02  -2.219847e+02
   2.211487e+02  -1.112439e+02
   3.198766e+02   7.448622e+00
   3.917506e+02   1.231142e+02
   2.648486e+02   3.418579e+02
  -1.568188e+01   4.639069e+02
  -4.138712e+02   4.029371e+02
  -4.561383e+02   1.924093e+02
  -2.930402e+02  -8.405713e+01
  -4.923920e+00  -1.967662e+02
   5.065398e+01  -1.684056e+02
   3.171598e+01   1.939627e+01
  -9.779555e+01  -1.655289e+01
  -5.539957e+01  -9.018076e+01
   8.665945e+01  -1.062645e+02
   1.522860e+02  -5.487028e+01
   9.715093e+01   7.694878e+01
  -7.456787e+01   1.168635e+02
  -1.247902e+02   5.891275e+01
  -1.580264e+02  -2.257240e+02
   5.513779e+01  -3.427296e+02
   2.474279e+02  -2.386277e+02
   4.255619e+02   3.413792e+01
   3.113652e+02   3.505176e+02
   5.245090e+01   3.193242e+02
  -1.797326e+02   8.489356e+01
  -9.401539e+01   3.421555e+01
  -9.590532e+00   5.044811e+00
   1.518411e+01   1.792325e+01
  -3.776827e+01   1.134519e+02
  -1.355445e+02   7.076543e+01
  -2.018629e+02  -9.753880e+01
  -6.553696e+00  -4.415460e+01
   8.296243e+01   6.384088e+01
  -3.370542e+01   9.180545e+01
  -2.164117e+02   1.358823e+02
  -3.186983e+02  -2.994955e+01
  -2.518673e+02  -2.580872e+02
  -6.877333e+01  -2.821758e+02
   2.179328e+02  -2.328931e+02
   2.023994e+02  -6.114232e+01
   1.487650e+02   1.988650e+01
  -5.006172e+01   6.454335e+01
  -6.546537e+01  -3.764668e+00
   5.814508e+01  -8.167692e+01
   1.843760e+02  -1.663623e+01
   1.986896e+02   1.596494e+02
   2.802880e+01   1.871512e+02
  -8.509778e+01   8.692971e+01
  -1.432691e+02   8.620407e+01
  -1.662833e+01  -2.850394e+01
   4.066688e+01   2.056378e+01
   7.531520e+00   7.519224e+01
  -1.519504e+02   8.119425e+01
  -2.519398e+02  -1.037017e+01
  -2.345887e+02  -1.373588e+02
   1.460390e+01  -2.406310e+02
   1.832419e+02  -1.417657e+02
   1.065987e+02  -2.139887e+01
   7.897070e+01   8.984455e+01
  -4.723523e+00   3.726551e+01
  -1.013002e+02  -1.380765e+01
   3.271988e+01  -2.727853e+01
   9.130786e+01  -9.898963e+00
  -2.289702e+01   2.715479e+01
  -9.875640e+01   3.189752e+01
  -1.606622e+02  -1.216407e+02
   4.300774e+00  -2.103371e+02
   1.836138e+02  -1.613491e+02
   2.807534e+02  -4.031292e+01
   2.199947e+02   1.659342e+02
   5.553842e+01   2.039139e+02
  -7.506694e+01   1.631387e+02
  -1.261331e+02   5.755369e+01
  -1.182609e+02  -1.718560e+01
  -5.247123e+01  -4.501149e+01
  -4.844843e+01  -1.654186e+00
  -7.021322e+01   3.024385e+01
  -2.248850e+01  -7.893908e+01
  -8.053572e+00  -9.446704e+01
   1.106105e+02  -9.119527e+01
   1.524907e+02   5.379112e+01
  -2.292076e+01   1.776123e+02
  -1.230180e+02   5.618411e+01
  -2.619834e+02  -4.872399e+01
  -9.322230e+01  -2.831933e+02
   1.345578e+02  -2.235238e+02
   2.836828e+02  -6.162294e+01
   2.398265e+02   7.254989e+01
   6.109313e+01   1.361794e+02
  -4.912630e+01   1.650522e+02
  -9.125124e+01   6.575272e+01
  -1.090591e+02   4.829277e+01
  -5.217858e+01   1.499993e+02
  -1.340448e+02   1.070748e+02
  -1.062859e+02  -1.976292e+01
  -9.318884e+01  -1.179491e+02
  -4.407503e+00  -2.043113e+02
   1.064652e+02  -1.820664e+02
   1.881778e+02   1.239136e+01
   1.044163e+02   9.965740e+01
  -1.191672e+01   1.970221e+02
  -5.983526e+01   4.714266e+01
  -4.861080e+01   1.024014e+01
   8.243797e+00  -5.353367e+01
  -9.019727e+00  -9.334642e+01
  -2.017515e+01  -1.081074e+01
  -1.100456e+02   8.986803e+00
  -1.044254e+02  -6.915913e+01
   1.213265e+02  -1.237040e+02
   2.408446e+02  -1.835219e+01
   1.317653e+02   9.774181e+01
   1.638910e+01   1.489888e+02
  -1.395441e+02   1.122708e+01
  -1.413310e+02   2.274205e+01
  -3.301888e+01  -7.636289e+01
   7.915712e+01  -4.138505e+01
   8.258577e+01   1.931629e+01
   2.683861e+01   6.575569e+01
  -5.314748e+01   5.581034e+01
  -6.032140e+01   3.786493e+01
   1.635881e+01   3.800594e+01
  -4.545971e+01  -8.853193e+01
  -6.035779e+00  -3.493804e+01
  -5.844691e+01   2.114164e+01
  -7.805385e+01  -8.522060e+01
  -2.607041e+01  -9.648621e+01
   2.097957e+02  -2.293515e+02
   1.941117e+02  -6.960522e+00
   1.056794e+02   1.219141e+02
   1.929545e+01   1.195703e+02
  -9.446275e+01   5.867879e+01
  -6.466285e+01  -8.181202e+01
   3.372630e+00   1.731547e+01
   1.440721e+02  -3.883516e+00
   1.087094e+02   9.690169e+01
  -8.534270e+01   8.566304e+01
  -1.990220e+02   1.237807e+02
  -2.217222e+02  -7.726765e+01
  -4.470836e+01  -1.336903e+02
   5.793903e+01  -3.378312e+01
   8.798861e+01   1.007364e+01
  -8.110210e+01   3.582223e+01
  -7.534548e+01  -3.185733e+01
  -5.645399e+01  -1.081929e+02
   1.629920e+01  -1.139071e+02
   1.332973e+02  -1.008755e+02
   1.486004e+02   8.692292e+01
  -6.800641e+00   2.371517e+02
  -1.120341e+02   1.238135e+02
  -1.082016e+02  -4.290324e+01
  -5.296611e+01  -1.298565e+02
   7.454836e+01  -1.445383e+02
   9.232284e+01  -2.987916e+01
   7.053850e+01  -8.945072e+00
   3.397853e+01  -2.400652e+00
  -1.857290e+01  -1.936045e+01
  -3.438797e+00   4.752239e+01
   1.021490e+02   8.442521e+01
   3.458602e+01   1.179558e+02
  -5.443924e+01   4.762641e+00
  -1.167694e+02  -1.457089e+01
  -1.672367e+02  -8.054230e+01
  -1.562389e+01  -6.409584e+01
   8.651508e+01  -2.142945e+01
   6.145085e+01   4.999941e+00
   4.031757e+01  -4.622518e+01
  -3.685890e+01   5.712312e+01
  -2.825705e+01  -1.523437e+01
   1.507279e+01   5.633426e+01
   1.683059e+01   1.579332e+01
  -9.379816e+01   1.125635e+01
  -9.222950e+01   7.376603e+01
  -1.308310e+01  -9.237214e+01
   1.317579e+02  -6.580615e+01
   1.999134e+02  -6.249422e+01
   1.426961e+02   6.531205e+01
   5.133297e+01   1.437319e+02
  -7.361650e+01   1.095677e+02
  -1.195684e+02   7.619622e+01
  -1.046807e+02   1.267301e+01
   8.106146e+01  -3.663330e+01
   6.102345e+00   2.582326e+01
  -3.599059e+00  -6.129476e+01
   2.344862e-01  -6.553453e+01
  -1.427985e+01  -2.706423e+01
  -3.077636e+01  -8.460384e+01
   1.092669e+02   1.022871e+02
   3.459870e+01   1.370340e+02
   8.420544e+01   1.309041e+02
  -1.197260e+02   9.075355e+00
  -1.369508e+02  -7.744994e+01
  -6.460632e+01  -1.059028e+02
   3.384436e+00  -7.136030e+01
   1.641737e+02   2.626821e+01
   3.910982e+01   3.301510e+01
  -5.014996e+01   9.781580e+01
  -5.725638e+01   3.562331e+01
   5.558763e+00  -4.358793e+01
   6.462724e+01   3.564066e+00
   4.760887e+00  -1.125890e+01
  -1.052305e+02   6.497292e+01
  -9.999932e+01   1.381700e+01
  -9.720486e+01  -1.452417e+01
  -4.592617e+01  -1.099627e+02
   3.443707e+01  -7.630132e+01
   6.971626e+01   1.682871e+01
   1.905482e+01   8.478385e+01
  -5.087489e+01   6.990256e+01
  -3.881473e+01   2.722283e+01
  -1.899103e+01  -6.682595e+01
   1.176616e+01  -9.800954e+01
   3.190109e+01  -1.016173e+01
   2.659084e+01   1.311222e+01
   3.568793e+01  -2.263299e+01
  -4.662422e+01  -1.856784e+01
  -4.574488e+01  -7.222032e+01
  -1.467108e+00   2.678724e+01
  -4.289288e+01   5.308250e+01
  -3.045338e+00   1.431052e+01
  -6.260537e+01  -8.636642e+01
  -3.877519e+01  -4.741130e+01
   2.140136e+01  -6.774847e+01
   5.040146e+01   4.191017e+01
   5.190369e+01   3.799409e+01
  -4.670484e+01   1.106239e+01
  -1.016028e+02   4.220003e+01
  -9.079764e+01  -8.499704e+01
   5.949860e+01  -1.383557e+01
   4.049517e+01  -7.326338e+01
   3.064164e+01  -4.462948e+01
  -4.107619e+01  -2.597178e+01
  -1.395002e+01   8.440429e+00
   1.639136e+01  -2.758756e+01
   6.194073e+01  -2.041759e+01
