
 $NMID
 id='ANONYMOUS ', fmtdat='(2E16.6)'
 volume=1.0
 tramp=1.0
 $END
  -2.849539e+03  -1.700488e+01
  -2.096364e+03  -1.306794e+03
  -3.896173e+02  -1.845475e+03
   8.903575e+02  -1.508953e+03
   1.010501e+03  -5.995129e+02
   3.891970e+02   2.327591e+01
  -1.589875e+02   1.079262e+02
  -1.012462e+02  -3.607794e+02
   3.040719e+02  -4.565967e+02
   4.838993e+02  -1.810113e+02
   4.634940e+02   3.533862e+02
   1.350364e+02   5.400033e+02
  -1.739856e+02   2.372008e+02
  -1.711332e+02  -2.433402e+02
   9.877286e+00  -4.347057e+02
   2.704566e+02  -1.624332e+02
   3.410750e+02   4.457862e+02
  -7.083893e+01   6.521580e+02
  -4.720557e+02   4.229593e+02
  -5.262314e+02  -1.040737e+02
  -1.916785e+02  -3.436842e+02
   9.154346e+01  -2.061139e+02
  -7.078112e+01  -1.119277e+02
  -1.987020e+02  -2.133361e+02
  -2.395560e+02  -4.135939e+02
   8.916679e+01  -3.362832e+02
   4.490971e+02  -8.334735e+01
   5.214048e+02   2.519413e+02
   1.430634e+02   2.617567e+02
  -2.782432e+02   6.414585e+01
  -4.438576e+02  -2.276329e+02
  -1.284130e+02  -3.569247e+02
   2.566551e+02  -2.745027e+02
   4.569341e+02  -5.968311e+01
   3.228487e+02   9.536862e+01
   9.435001e+01   2.624009e+02
   7.360498e+01   1.707837e+02
   1.880565e+02   2.235537e+01
   1.612956e+02  -1.229989e+02
   5.614867e+01   1.786174e+02
  -4.035494e+01   4.226304e+02
  -2.591404e+02   3.285617e+02
  -2.530360e+02   1.352085e+01
  -6.058786e+01  -2.313241e+02
   1.161257e+02  -1.328271e+02
   8.851072e+01   2.012056e+02
  -1.460538e+02   3.385241e+02
  -4.013970e+02   4.437009e+01
  -4.296389e+02  -3.882880e+02
  -1.395953e+02  -4.847221e+02
   2.568029e+02  -2.163105e+02
   5.001600e+02   3.039014e+01
   3.295422e+02   2.500543e+02
   5.264089e+00   1.470635e+02
  -3.026214e+02   1.627150e+02
  -2.775724e+02   3.769803e+01
  -5.135608e+01   2.368465e+01
   1.877595e+01  -1.878859e+01
  -1.113467e+02  -3.602421e+01
  -1.861683e+02  -6.314379e+01
  -9.101764e+01  -8.077554e+01
   1.257922e+02  -2.483986e+02
   3.248242e+02  -1.692163e+02
   3.114010e+02   1.089891e+02
  -4.193750e+01   3.917242e+02
  -3.364533e+02   4.066664e+02
  -3.559488e+02   1.399891e+02
  -1.797852e+02  -2.166634e+02
  -4.851507e+01  -3.370437e+02
  -3.641828e+01  -3.400497e+02
   4.041342e+01  -1.970759e+02
  -3.057956e-01  -1.663578e+02
   1.610904e+02  -1.093479e+02
   2.155363e+02  -9.047410e+00
   2.449407e+02   1.397528e+02
   7.486291e+01   2.929710e+02
  -1.013336e+02   1.948412e+02
  -2.302590e+02  -4.182148e+01
  -1.465993e+02  -2.436725e+02
   6.004820e+01  -2.272716e+02
   2.214414e+02  -6.795713e+01
   2.365629e+02   2.090072e+02
   1.695792e+02   2.614378e+02
  -2.831090e+01   2.683570e+02
  -1.327866e+02   2.450147e+02
  -1.654431e+02   1.309756e+02
  -2.018395e+02   1.119836e+02
  -3.209120e+02  -1.064563e+01
  -4.387508e+02  -1.625799e+02
  -4.067712e+02  -2.777539e+02
   8.635144e+01  -4.492470e+02
   4.106444e+02  -3.818379e+02
   5.042760e+02  -1.091998e+02
   2.945209e+02   1.746876e+02
  -6.929922e+00   1.938358e+02
  -8.367147e+01   1.824551e+02
  -1.277823e+01   3.828614e+01
   1.255925e+02  -5.967434e+01
   9.749232e+01   5.419764e+01
  -1.063989e+01   1.125057e+02
  -1.192945e+02   1.516647e+02
  -5.161850e+01  -7.951431e+01
   3.330188e+01  -1.458494e+02
   1.271529e+02   2.830889e+01
   1.015239e+02   2.318404e+02
  -1.810451e+01   3.613466e+02
  -2.726531e+02   1.603198e+02
  -3.932681e+02  -7.364310e+01
  -2.616843e+02  -2.739408e+02
  -5.466273e+01  -2.938039e+02
   1.773029e+02  -1.656042e+02
   1.601190e+02   5.495527e+01
  -3.032299e+01   1.552511e+00
  -5.100875e+01  -1.691170e+01
   9.653260e+01  -9.441591e+01
   7.959188e+01  -6.107436e+01
   1.887665e+02   2.127804e+01
  -1.383983e+01   9.667730e+01
  -1.239783e+02  -2.023353e+01
  -7.549453e+01  -9.080167e+01
   1.379929e+02  -5.365486e+01
   2.904320e+02   5.119983e+01
   2.916834e+02   2.694498e+02
   3.696948e+00   3.132120e+02
  -2.808917e+02   2.184306e+02
  -2.690795e+02   1.187601e+02
  -1.036588e+02  -4.190869e+01
   8.565417e+01  -6.813073e+01
   3.988005e+01  -6.612665e+00
   1.153177e+01   1.135974e+02
  -1.935193e+02   6.180596e+01
  -1.904329e+02  -1.172779e+02
  -2.440343e+01  -1.296719e+02
   7.449672e+01  -1.086643e+02
   8.226280e+01  -1.114092e+00
  -5.628623e+00   5.121413e+01
  -1.443581e+01  -6.021756e+01
  -9.342784e+01  -1.305353e+02
   1.203779e+02  -1.188061e+02
   2.389138e+02  -3.944552e+01
   1.440590e+02   1.781908e+02
  -4.890530e+00   2.569005e+02
  -1.813439e+02   1.613525e+02
  -1.599863e+02   4.339146e+01
  -3.746660e+01  -1.219424e+02
   2.298634e+01  -7.443693e+01
   6.367688e+01   3.973499e+01
  -6.016889e+01   1.662500e+01
  -6.102691e+01  -3.475991e+01
   4.202344e+01  -3.178383e+01
   1.280684e+02  -3.326464e+01
   1.164338e+02   1.106944e+02
   3.814832e+01   2.531220e+02
  -1.600102e+02   1.391830e+02
  -2.491286e+02  -1.677411e+01
  -2.099135e+02  -1.487079e+02
  -5.773525e+01  -2.219102e+02
   9.240022e+01  -1.360840e+02
   1.362678e+02  -3.845682e+01
   1.095281e+02   3.753097e+01
   5.152105e+01   6.015939e+01
   3.283807e+01  -1.828445e+01
   8.907873e+01  -2.557462e+01
   9.488755e+01   8.869134e+01
  -4.706364e+01   1.260824e+02
  -1.597975e+02   1.117255e+02
  -9.921654e+01  -1.023013e+02
   4.270868e+01  -1.231373e+02
   1.591095e+02  -3.055248e+01
   2.175824e+02   1.155782e+02
   1.044857e+01   2.961452e+02
  -1.191962e+02   2.288596e+02
  -2.524925e+02   6.559014e+01
  -2.206026e+02  -1.116671e+02
  -1.174467e+02  -1.929830e+02
  -2.851634e+01  -1.257403e+02
   9.548832e+01  -5.518461e+01
   4.417706e+01  -8.316823e+01
   1.050855e+02  -1.156434e+02
   1.258768e+02  -5.177871e+01
   1.579928e+02   4.540770e+01
   1.059011e+02   1.251618e+02
   2.477711e+01   2.246318e+02
  -1.512210e+02   1.874410e+02
  -1.845512e+02   6.144170e+00
  -9.839282e+01  -1.457423e+02
  -3.924144e+01  -1.955942e+02
   5.688248e+01   1.148349e+01
   1.166843e+00   5.671171e+01
   2.109868e+01   9.748793e+01
  -9.456860e+01   3.852027e+01
  -3.373528e+00   3.990820e+01
   7.307545e+01   5.840953e+01
   3.881630e+01   5.073497e+01
  -8.889018e+01   4.222318e+01
  -2.437897e+02   7.577434e+00
  -1.527561e+02  -8.126895e+01
   3.976506e+01  -9.137991e+01
   1.126588e+02  -9.876607e+01
   1.591880e+02   5.347502e+00
   7.274126e+01   1.012390e+02
  -4.965368e+01   5.319614e+01
  -8.496308e+01   2.081747e+01
  -7.835242e+01  -4.988468e+01
   8.779000e+01  -1.160016e+02
   7.474533e+01   6.060512e+00
   6.625066e+01   8.926667e+01
   1.059875e+02  -6.893995e+00
   6.522719e+01  -2.888654e+01
   5.224032e+01  -1.500951e+00
   8.568266e+01   1.042198e+01
  -5.394565e+01   1.529965e+02
  -1.756766e+02   1.525019e+02
  -2.103872e+02   4.608973e+01
  -1.363624e+02  -5.859949e+01
  -1.451188e+01  -3.732904e+01
   8.538087e+01  -5.838764e+01
   1.829678e+01  -1.309591e+01
  -9.463683e+01   5.200776e+01
  -1.505655e+02  -7.380871e+01
  -6.727596e+01  -1.210729e+02
   5.471031e+01  -8.707821e+01
   2.156021e+02  -7.202315e+01
   1.481183e+02   7.828529e+01
   4.596388e+01   5.671905e+01
  -8.480403e+01   7.242465e+01
  -5.391769e+01   2.933720e+01
   3.937144e+01  -3.558101e+01
   1.067841e+02  -2.388381e+00
   7.195828e+01   1.059133e+02
  -1.041933e+02   1.837251e+02
  -1.524868e+02   7.437650e+01
  -1.589181e+02  -7.905222e+01
  -1.066385e+01  -1.886374e+02
   7.259037e+01  -1.841282e+02
   1.496032e+02   3.125190e+01
  -3.015193e+01   2.350929e+02
  -1.804366e+01   6.763499e+01
  -5.448907e+01   2.820922e+01
   3.243671e+01  -3.759871e+01
  -6.729724e+00   3.001779e+01
  -5.446450e+01   3.144570e+01
  -5.660540e+01  -3.835722e+01
  -4.298647e+01  -7.316505e+01
  -2.804305e+01  -1.272245e+02
   1.173187e+02  -3.117233e+01
   2.032824e+02   1.561388e+01
   1.403527e+02   3.695107e+01
  -2.687289e+01   5.123610e+01
  -6.631749e+01  -2.450690e+00
  -1.470009e+01  -3.610178e+01
   5.012616e+00  -2.335418e+01
  -4.511897e+01  -6.503560e+01
  -1.059570e+01   1.317026e+01
  -1.652876e+01  -9.168536e+01
  -6.644632e+00   1.813069e+01
   4.855861e+01  -5.533199e+00
   2.573267e+01   3.562254e+01
   1.244793e+01   8.927631e+01
  -1.158355e+02   1.310993e+02
  -2.020272e+02   9.000277e+01
  -1.594462e+02  -1.007816e+02
  -9.265925e+01  -1.713559e+02
   4.587309e+01  -2.022609e+02
   1.370683e+02  -7.143459e+01
   1.264168e+02   4.687108e+01
   8.723077e+01   5.894952e+01
   4.190926e+01   8.502965e+01
   1.833450e+01   3.829071e+01
  -5.215224e+00   4.052350e+01
   8.530109e+00   7.488295e+01
  -3.882615e+01   8.618862e+01
  -6.894578e+01  -2.613415e+01
  -1.081607e+02  -1.246053e+02
  -1.602073e+01  -1.181502e+02
   3.698957e+01  -2.041638e+01
   8.324293e+01   4.672042e+01
   2.331696e+01   9.259516e+01
  -8.099351e+01   7.543797e+01
  -1.747222e+02   3.397742e+01
  -5.659500e+00  -8.582851e+01
   2.442363e+00  -8.301357e+01
   2.751077e+01   2.128713e+01
  -3.209592e+01   1.545550e+01
  -1.099743e+02   4.014771e+01
  -1.119967e+01  -4.982117e+00
   1.299861e+02  -1.050785e+02
   1.158647e+02  -2.515485e+01
   1.020795e+02   6.218232e+01
  -1.133562e+01   7.018675e+01
  -6.005571e+01   5.581832e+01
  -1.099023e+02   4.773170e+01
  -1.727150e+00  -5.971090e+01
   1.458547e+01  -4.648792e+01
   8.011828e+01   3.927052e+00
   2.678390e+01   3.987019e+01
  -1.143818e+01   1.899381e+01
   1.307379e-01  -1.195664e+01
  -1.073233e+02  -1.247672e+02
   2.660228e+01  -6.375060e+01
  -3.479609e+01   2.345745e+01
  -1.786165e+01   1.267929e+01
  -7.831077e+01   1.804454e+00
  -1.626647e+01  -3.155908e+01
   6.506904e+01  -3.941497e+01
   3.482193e+01   1.474866e+01
   8.171601e+00   5.410882e+01
   1.281698e+01   3.690022e+01
  -8.826152e+01  -5.030670e+01
  -1.486060e+00  -5.232931e+01
   9.350624e+01  -5.229690e+01
   7.407548e+01  -6.273769e+00
   5.334763e+01   7.490446e+01
   1.906883e+01   3.502170e+01
  -4.149713e+01   3.586010e+01
  -7.398183e+01  -2.203345e+00
   4.915717e+00  -4.010241e+01
   3.078666e+01  -3.953693e+00
  -2.733216e+01   4.768436e+01
  -8.425084e+01  -1.111087e+01
