
 $NMID
 id='ANONYMOUS ', fmtdat='(2E16.6)'
 volume=1.0
 tramp=1.0
 $END
   3.261182e+03   9.487526e+01
   2.145320e+03   1.711325e+03
  -4.900447e+01   2.089825e+03
  -1.340398e+03   1.285061e+03
  -9.800177e+02   1.793545e+02
  -4.503634e+01  -2.165282e+02
   3.384663e+02   7.016779e+01
   3.843485e+01   6.082205e+02
  -4.775000e+02   6.258331e+02
  -6.467475e+02   4.907267e+01
  -4.446046e+02  -5.102465e+02
   1.736588e+01  -6.295945e+02
   2.712246e+02  -1.407898e+02
   2.816846e+02   3.997319e+02
  -1.524501e+02   5.877513e+02
  -4.447082e+02   1.085795e+02
  -2.934298e+02  -4.758349e+02
   1.229624e+02  -6.195347e+02
   4.695787e+02  -2.655168e+02
   4.316125e+02   1.825927e+02
   9.965069e+01   4.355900e+02
  -1.261632e+02   2.822715e+02
  -1.344483e+02   7.006660e+01
   1.631637e+02   5.691459e+01
   3.328249e+02   2.780122e+02
   3.611673e+01   3.259449e+02
  -4.637874e+02   1.972508e+02
  -6.300628e+02  -2.118468e+02
  -2.179047e+02  -3.674238e+02
   3.926991e+02  -2.272228e+02
   5.298837e+02   1.276832e+02
   2.040827e+02   3.706555e+02
  -3.083369e+02   3.580924e+02
  -4.514433e+02   1.507153e+02
  -2.778158e+02  -1.254768e+02
  -5.699861e+01  -2.874249e+02
   8.103001e+01  -1.739496e+02
  -4.695659e+01   1.156864e+02
  -1.875189e+02   1.944834e+02
  -1.522717e+02  -1.105257e+02
   2.586327e+01  -4.785266e+02
   2.459931e+02  -4.371251e+02
   3.311786e+02   4.304636e+00
   1.480216e+02   2.998911e+02
  -1.727001e+02   1.921449e+02
  -2.158654e+02  -3.096327e+02
   9.510671e+01  -4.132236e+02
   4.682633e+02  -3.748463e+01
   4.620525e+02   4.240263e+02
   1.201088e+02   5.657099e+02
  -3.233214e+02   2.585344e+02
  -5.018126e+02  -3.983632e+01
  -3.399242e+02  -2.193119e+02
   4.487956e+01  -2.041384e+02
   2.917157e+02  -1.043718e+02
   1.902931e+02   2.581822e+01
  -2.411670e+01   3.486694e+01
  -9.506047e+01  -1.453028e+01
   1.200390e+02  -8.346947e+01
   2.328338e+02   1.347652e+01
   1.347664e+02   1.751636e+02
  -5.998779e+01   2.401326e+02
  -3.534066e+02   1.506200e+02
  -2.624390e+02  -6.371701e+01
  -1.654012e+01  -3.968924e+02
   3.308541e+02  -3.892770e+02
   4.012539e+02  -1.738161e+02
   2.909699e+02   2.345819e+02
   1.295070e+01   3.369097e+02
   1.409321e+01   3.154302e+02
   1.629157e+01   1.911201e+02
  -2.958820e+01   1.143248e+02
  -2.091081e+02   1.009769e+02
  -2.813966e+02   6.628591e+01
  -3.050896e+02  -1.438288e+02
  -9.509657e+01  -2.985897e+02
   4.855060e+01  -1.532114e+02
   2.506893e+02   2.929143e+01
   2.401763e+02   3.095837e+02
  -1.004732e+02   2.671574e+02
  -2.763076e+02   2.935586e+01
  -3.089238e+02  -1.567205e+02
  -1.971229e+02  -3.860790e+02
   1.152530e+02  -2.287199e+02
   1.990825e+02  -1.618698e+02
   1.575197e+02  -1.392643e+02
   2.284657e+02  -7.451262e+01
   2.906763e+02  -3.119328e+01
   4.073876e+02   8.080110e+01
   3.833453e+02   3.536462e+02
  -4.715727e+01   4.726920e+02
  -4.331062e+02   3.474075e+02
  -4.688210e+02   1.695365e+02
  -2.935682e+02  -1.063075e+02
  -2.115476e+01  -2.753135e+02
   1.279572e+02  -2.215027e+02
   4.664713e+01  -1.274347e+01
  -1.042396e+02   4.469124e+00
  -8.589483e+01  -4.587771e+01
   2.222505e+00  -1.445658e+02
   1.578964e+02  -1.282273e+02
   9.243508e+01   1.159103e+02
  -4.247880e+01   1.489868e+02
  -2.057703e+02  -1.367792e+00
  -1.759987e+02  -2.847598e+02
   3.821820e+01  -4.260141e+02
   2.699581e+02  -2.027451e+02
   3.748363e+02   5.128052e+01
   3.067019e+02   2.127776e+02
   5.437498e+01   2.579546e+02
  -1.147048e+02   1.364091e+02
  -1.538290e+02  -2.001526e+01
  -6.476936e+01  -1.701961e+01
   5.620439e+01   4.219093e+01
   2.530067e+00   9.130216e+01
  -1.344028e+02   3.076259e+01
  -1.653171e+02  -5.178949e+01
  -4.884097e+01  -4.058707e+01
   9.831948e+01   3.770866e+00
   7.959390e+01   7.012112e+01
  -1.265467e+02   1.075803e+02
  -3.323853e+02   4.895946e-01
  -3.111909e+02  -2.019522e+02
  -2.593087e+01  -2.528125e+02
   1.763854e+02  -2.560257e+02
   2.948515e+02  -8.923057e+01
   8.886660e+01   3.184685e+01
   3.949746e+00   1.239150e+02
  -4.343311e+01  -2.255707e+01
   4.592672e+01  -1.102982e+02
   1.492865e+02  -8.754277e+01
   2.305721e+02   8.638050e+01
   4.309721e+01   1.817225e+02
  -1.145625e+02   1.339038e+02
  -9.026819e+01   4.643985e+01
  -7.616110e+01  -5.486746e+01
  -1.486654e+01   5.487820e+01
   1.826321e+01   1.275624e+02
  -1.342347e+02   1.304655e+02
  -1.439266e+02  -9.695923e+01
  -1.544591e+02  -1.948905e+02
  -2.703305e+01  -2.318857e+02
   1.754301e+02  -1.498968e+02
   2.127669e+02  -3.028142e+01
   4.050090e+01   4.169259e+01
  -6.118039e+01   6.965569e+01
  -1.179677e+02  -2.223057e+01
  -1.185346e+01  -5.179629e+01
   4.705082e+00   9.606547e+00
  -3.787895e+01  -1.652067e+01
  -1.062951e+02  -2.843699e+01
  -1.258393e+02  -1.297648e+02
   1.268344e+00  -1.820061e+02
   1.463746e+02  -1.546965e+02
   1.714070e+02  -5.406420e+01
   2.265468e+02   1.698914e+02
   2.742942e+01   2.200402e+02
  -9.234182e+01   1.362711e+02
  -1.300477e+02  -1.771563e+01
  -1.402566e+02  -7.943161e+01
  -2.398886e+01  -5.814812e+01
  -2.932370e+01   3.563134e+01
  -1.086295e+02   9.777973e+00
  -5.203557e+01  -5.418308e+01
   3.127859e+01  -7.528045e+01
   1.057912e+02  -3.673407e+01
   7.774490e+01   5.406268e+01
  -3.976463e+01   1.453719e+02
  -2.461705e+02   1.253996e+02
  -2.272573e+02  -8.356892e+01
  -1.084522e+02  -1.993642e+02
   1.629945e+02  -1.948873e+02
   2.838083e+02  -4.912916e+01
   2.288069e+02   1.091943e+02
   1.029879e+02   1.997983e+02
  -9.108699e+01   1.089955e+02
  -5.950985e+01   3.747921e+00
  -7.201654e+01   7.626744e+01
  -6.761336e+01   2.137062e+01
  -8.426334e+01   1.032765e+02
  -1.812884e+02  -2.160804e+01
  -2.057832e+02  -1.998555e+02
  -2.729771e+01  -2.364590e+02
   6.007115e+01  -1.983715e+02
   1.823900e+02  -3.214091e+01
   1.124446e+02   1.544225e+02
   2.521546e+01   1.300800e+02
  -9.853307e+01   8.273714e+01
  -9.275380e+01  -2.486804e+01
   2.975230e+01  -5.411914e+01
   4.627833e+01  -7.067989e+01
  -4.360760e+01  -3.605189e-01
  -8.563779e+01  -7.859404e+01
  -1.258414e+02  -2.469152e+01
   6.384116e+01  -2.726685e+01
   1.416228e+02  -8.007916e+00
   1.594570e+02   4.242532e+01
   2.755647e+01   1.156215e+02
  -1.522573e+02   5.493682e+01
  -1.189353e+02   4.247600e+01
  -8.769387e+00  -3.681693e+01
   5.459885e+01  -1.706296e+01
   9.207549e+01   2.904910e+01
   4.196633e+01   2.505804e+01
  -1.129211e+02   4.980242e+01
  -1.069424e+02   6.540152e+00
  -5.379091e+01  -8.912711e+01
  -1.627473e+01  -5.640406e+01
  -6.092574e+01   2.404591e-03
  -3.570201e+01  -5.130089e+01
  -6.633306e+01  -1.284446e+02
   3.471434e+01  -1.877575e+02
   9.548918e+01  -9.627806e+01
   1.682574e+02  -9.866566e+01
   1.110063e+02   9.832549e+01
   3.966150e+00   1.266836e+02
  -9.430988e+01   1.197197e+01
  -1.543541e+01  -7.707612e-01
   3.591178e+01  -2.859298e+01
   1.428670e+02   4.184083e+01
   5.272881e+01   1.234340e+02
  -5.407666e+01   6.473214e+01
  -2.637969e+02   1.007660e+02
  -1.191539e+02  -4.163789e+01
  -2.310233e+01  -1.042176e+02
  -1.611556e+01  -4.167100e+01
   4.118025e+01  -3.620156e+00
  -2.942329e+01   9.320531e+00
  -4.756039e+01  -6.715132e+01
  -3.350607e+01  -1.193286e+02
   7.345559e+01  -1.259397e+02
   9.575411e+01  -3.358957e+01
   1.066790e+02   4.483067e+01
   6.407962e+01   2.177089e+02
  -1.401753e+02   1.205365e+02
  -6.109646e+01   2.857289e+01
  -4.870451e+01  -1.371889e+02
  -2.000667e+01  -8.558375e+01
   4.216917e+01  -2.722966e+01
   5.369741e+01  -4.412390e+01
   5.918369e+01   6.727125e+01
  -2.791757e+01  -4.185311e+01
   2.878720e+01   9.946074e+01
   4.343045e+01   1.025685e+02
   2.919293e+01   9.628953e+01
  -1.176202e+02   5.454807e+01
  -1.663405e+02  -5.624321e+01
  -1.142706e+02  -1.154665e+02
  -7.556235e+00  -2.508327e+01
   6.821325e+01   2.522500e+01
   1.068542e+02  -1.217643e+01
   3.229939e+01  -1.668478e+01
  -5.986762e+01  -6.747421e+00
  -1.620338e+01  -5.902017e+01
   5.696563e+01   2.219383e+01
  -1.339585e+01   5.651806e+01
  -8.336667e+01   4.223034e+01
  -1.145012e+02  -6.800382e+01
  -4.270077e+01  -9.149127e+01
   1.552043e+02  -1.529553e+02
   2.144503e+02  -1.493331e+02
   1.447901e+02   2.104903e+01
  -2.111686e+01   1.233011e+02
  -4.867810e+01   1.711266e+02
  -1.295801e+02   4.405172e+01
  -8.673237e+01  -2.784434e+01
  -1.014894e+02   3.871737e+01
  -8.726398e-01  -1.121480e+01
   2.135913e+01  -9.550257e+00
  -5.274075e+01  -3.863831e+01
   7.874026e+00  -1.655315e+02
   8.940538e+00  -1.057400e+02
   1.073086e+02   5.190218e+01
   7.710266e+01   1.199243e+02
  -9.923232e+00   1.637550e+02
  -6.950413e+01   1.121203e-01
  -9.994277e+01  -1.711652e+01
  -5.500263e+01  -7.001424e+01
   9.313048e+01  -4.044633e+01
   1.506505e+02  -4.043119e+01
   4.547898e+01   9.436040e+01
  -4.222782e+01   7.393239e+01
  -4.280383e+01   5.822758e+01
   2.330318e+01   1.538777e+01
   4.350298e+01  -5.381392e+00
  -1.598171e+01  -3.453656e+01
  -4.143898e+01   3.990362e+01
  -6.630038e+01   7.416202e+01
  -9.274534e+01  -9.274640e+00
   5.324638e+00  -4.185440e+01
   5.448933e+01  -6.833751e+01
   5.003653e+01  -2.869042e+01
  -1.114930e+01   3.500196e+01
   1.984887e+01   5.143702e+01
  -3.480493e+01  -2.797140e+01
  -7.099229e+01  -3.070677e+01
  -1.571987e+01  -2.174215e-01
  -4.735978e+00   6.962715e+01
   3.516759e+01   6.948020e+01
   3.119436e+01   5.708671e+00
  -4.019533e+01  -1.222806e+01
  -1.754612e+01  -5.327290e+01
  -4.677257e+01   7.966634e+01
   2.979593e+00   3.770126e+01
  -7.974789e+01   5.040000e+00
  -2.820292e+01  -3.549460e+01
  -1.419852e+01  -6.362442e+01
   4.399936e+01  -4.947880e+01
   8.022765e+01   5.636932e+01
   8.713797e+01   6.974879e+01
  -5.317015e+01   2.523406e+01
  -1.016768e+02  -2.908117e+01
  -6.205053e+01  -7.855932e+01
   3.180997e+01  -6.177783e+01
   9.012191e+01   4.912255e+00
   2.592737e+01  -4.648071e+01
  -8.453852e+01  -3.108260e+01
  -2.059505e+01   5.227423e+01
   1.173767e+01   1.719153e+01
   5.026566e+01  -1.361429e+00
