
 $NMID
 id='ANONYMOUS ', fmtdat='(2E16.6)'
 volume=1.0
 tramp=1.0
 $END
  -1.806656e+03  -7.748413e+01
  -1.244950e+03  -8.960636e+02
  -5.730458e+01  -1.102356e+03
   6.498287e+02  -8.317654e+02
   5.483499e+02  -2.639593e+02
   1.011371e+02   9.087573e+01
  -1.858348e+02   1.899807e+01
  -2.643410e+01  -2.987870e+02
   1.901420e+02  -2.888870e+02
   4.303768e+02  -5.996631e+01
   2.123019e+02   2.466702e+02
   9.156087e+01   3.691391e+02
  -1.540914e+02   1.789202e+02
  -1.674822e+02  -2.011083e+02
   3.006222e+01  -3.422982e+02
   2.442202e+02  -8.875420e+01
   2.313012e+02   2.937040e+02
  -2.587833e+00   4.141895e+02
  -2.705787e+02   1.679537e+02
  -2.860355e+02  -1.681854e+01
  -9.680404e+01  -1.765378e+02
   3.789355e+01  -1.733199e+02
   4.058479e+01  -9.752550e+01
  -1.425733e+02  -1.019163e+02
  -1.314178e+02  -2.115982e+02
   6.299868e+01  -2.358170e+02
   2.564830e+02  -7.506250e+01
   3.098676e+02   9.013901e+01
   1.276349e+02   2.122071e+02
  -1.975488e+02   1.420187e+02
  -2.766065e+02  -1.074395e+02
  -6.449543e+01  -2.361023e+02
   1.550838e+02  -1.474503e+02
   2.276558e+02  -8.921459e+01
   1.586450e+02   5.523576e+01
   2.840653e+01   1.339168e+02
   1.394240e+01   1.122677e+02
   2.242940e+01  -6.664940e+01
   1.175937e+02  -3.996031e+01
   6.715555e+01   1.450100e+02
   4.986673e+01   2.708627e+02
  -1.226540e+02   2.470900e+02
  -1.958665e+02   1.017178e+01
  -8.879338e+01  -1.452401e+02
  -9.311179e+00  -1.088202e+02
   6.839077e+01   1.658335e+02
  -5.465024e+01   2.147385e+02
  -2.532004e+02  -4.531830e+01
  -2.325705e+02  -2.207188e+02
  -1.081326e+02  -2.836849e+02
   1.566778e+02  -1.776333e+02
   2.442090e+02   3.179125e+01
   2.285100e+02   1.652122e+02
  -7.852510e+01   8.741282e+01
  -1.630445e+02   4.640919e+01
  -1.341466e+02   2.385216e+01
  -2.093410e+01   5.131038e+01
   1.048440e+01  -1.406134e+01
  -2.104457e+01   2.609935e+01
  -9.941846e+01  -6.528966e+01
  -1.658433e+02  -7.480844e+01
   4.060970e+01  -1.602669e+02
   2.036031e+02  -1.062631e+02
   1.835679e+02   2.686501e+01
  -6.201462e+00   1.820748e+02
  -2.227531e+02   2.190944e+02
  -2.993070e+02   8.360823e+01
  -1.618606e+02  -9.537666e+01
  -2.518334e+01  -2.662983e+02
   3.660252e+01  -1.464159e+02
  -3.133435e+01  -9.172252e+01
   1.622606e+01  -6.960963e+01
   1.691155e+02  -9.122986e+01
   1.269664e+02   1.581942e+01
   1.215524e+02   6.741512e+01
   5.822563e+01   2.050979e+02
  -1.183981e+02   1.398020e+02
  -1.239673e+02  -2.341145e+01
  -5.857959e+01  -7.969824e+01
   1.209747e+01  -1.491510e+02
   1.409408e+02  -6.210018e+00
   1.992816e+02   1.008482e+02
   1.580994e+02   1.834209e+02
  -3.363253e+01   1.309351e+02
  -9.568862e+01   8.025005e+01
  -9.860515e+01   4.521773e+01
  -1.227748e+01   1.600812e+01
  -1.874781e+02   1.120589e+02
  -3.123340e+02  -9.828010e+01
  -1.823743e+02  -2.282417e+02
   2.764923e+01  -2.472343e+02
   2.376084e+02  -1.847657e+02
   3.178022e+02  -1.639795e+02
   1.734442e+02   8.654582e+01
  -2.725019e+01   1.370894e+02
  -6.598982e+01   9.054632e+01
  -2.709902e+01  -1.873098e+01
  -1.277108e+01   1.809739e+01
   2.486353e+01   2.188919e+00
   2.148197e+01   4.000694e+01
  -3.645195e+01   5.560601e+01
  -8.613156e+01  -4.678705e+01
   1.427651e+01  -6.714720e+01
   3.715477e+01   4.183049e+01
   9.352209e+01   1.797675e+02
  -1.441969e+01   2.234475e+02
  -1.546952e+02   1.165703e+02
  -2.263227e+02  -5.033805e+01
  -9.674526e+01  -1.557717e+02
  -2.682868e+01  -1.758742e+02
   1.486253e+02  -5.872041e+01
   1.223645e+02  -3.819610e+01
   2.274270e+01   2.216939e+01
  -5.420813e+01   8.660176e+00
  -1.915715e+01  -8.211457e+01
   2.066356e+01  -3.839057e+01
   3.539935e+01  -2.179267e+00
   1.567931e+01   7.170721e+01
  -3.409755e+01  -4.243718e+01
  -3.956696e+01  -6.932542e+01
   9.125431e+01  -5.804287e+01
   2.585237e+02   5.929974e+01
   1.765948e+02   1.416479e+02
  -7.127094e+01   1.989101e+02
  -1.390822e+02   1.253979e+02
  -1.423256e+02   3.672471e+01
  -6.419613e+01  -3.636366e+01
   1.496962e+01  -3.138281e+01
   4.908425e+01   6.803404e+00
  -1.877501e+01   4.601194e+01
  -1.376739e+02   7.578046e+00
  -1.104512e+02  -1.090776e+02
  -2.743029e-01  -1.517022e+02
   4.832732e+01  -1.248790e+02
   7.917526e+01  -1.300581e+01
   4.885804e+01   4.925607e+01
   2.824234e+01  -1.603581e+01
  -3.699993e+01  -7.055854e-02
   7.835778e+01  -1.200700e+01
   1.095252e+02  -1.880654e+01
   4.288361e+01   8.243965e+01
  -9.584365e+00   1.593853e+02
  -3.791897e+01   1.759318e+01
  -8.591064e+01   2.305356e+01
  -2.227538e+01  -8.978784e+01
  -5.562190e+01  -3.486114e+01
  -1.369499e+01   8.040185e+00
  -3.195902e+01   9.105990e+01
  -2.890934e+01   2.125167e+00
   3.343144e+01   4.844197e+01
   6.664249e+01  -8.293427e+00
   1.351800e+02   4.752154e+01
  -1.082365e+01   8.745359e+01
  -9.172484e+01   6.410246e+01
  -1.513859e+02  -1.359191e+01
  -7.285352e+01  -8.109718e+01
  -9.295334e+01  -1.158587e+02
   9.540476e+01  -1.584892e+02
   9.907012e+01  -5.316495e+01
   7.119191e+01   1.804771e+01
   8.303360e+01  -4.235824e+01
   9.713461e+01   1.725969e+01
   3.627657e+01  -4.971682e+01
   7.717225e+01  -1.603036e+01
  -6.300592e+01   7.919101e+01
  -9.784370e+01  -8.788554e+00
  -4.461669e+01   2.056459e+01
   1.758704e+00  -1.051257e+02
   1.088875e+02   3.736007e+01
   1.469454e+02   6.103004e+01
   4.909629e+01   1.297947e+02
  -1.941516e+01   5.624036e+01
  -1.650318e+02   4.443582e+01
  -1.701140e+02  -9.033918e+01
  -1.065800e+02  -7.223521e+01
   3.648172e+01  -4.967765e+01
   4.672647e+01  -3.206602e+00
   6.979312e+01  -3.176252e+01
   5.601318e+01  -6.178988e+01
   1.033984e+02  -1.042383e+02
   8.172825e+01  -1.008020e+01
   7.071304e+01   8.358442e+01
   6.058408e+01   1.449685e+02
  -3.222164e+01   1.254058e+02
  -1.486756e+02   2.322722e+01
  -3.304982e+01  -7.690766e+01
   4.278941e+00  -1.026741e+02
   6.891697e+01  -7.721094e+00
   4.434079e+01   2.190498e+00
  -4.222812e+00  -8.998649e+00
   1.125033e+01   8.500082e+00
   2.509084e+01   1.507721e+01
   7.938395e+01   2.030237e+01
   1.931948e+01  -8.124824e+00
  -1.889769e+01   5.153187e+01
  -9.076823e+01   3.623768e+00
  -2.913943e+01  -7.688684e+00
   1.844478e+01  -4.337869e+01
   1.038174e+02  -4.745604e+01
   4.605261e+01   4.875023e+00
   1.601561e+01   1.133605e+00
  -3.367201e+01   8.547179e+01
  -3.213444e+01   3.308236e+01
  -3.203352e+01  -4.751027e+01
  -6.815887e+00   1.333448e+01
  -4.303128e+01  -4.343057e+01
   6.047348e+01   6.221756e+01
   6.422824e+01   1.915967e+01
   8.697879e+01   2.575669e+01
   1.445115e+01  -6.447072e+00
   8.191131e+01   1.076884e+02
  -3.256630e+01   1.087650e+02
  -3.708472e+01   5.767743e+01
  -1.349245e+02   3.306309e+01
  -1.166731e+02  -4.101741e+01
   3.341944e+01  -6.612770e+01
   3.928309e+01   7.208853e+00
   3.643524e+01  -3.625199e+01
  -1.201774e+01   3.330716e+01
  -1.098743e+02   1.569850e+01
  -6.137835e+01  -1.051003e+02
  -7.093870e+00  -3.216087e+01
   9.197553e+01  -6.669081e+01
   1.202476e+02  -2.696073e+01
   2.569080e+01   7.447865e+01
  -5.978302e+01  -3.096518e+01
  -6.155927e+01  -4.086866e+01
   7.327972e+01  -1.115847e+01
   2.687176e+01  -4.130110e+00
  -1.022544e+01   1.988009e+01
  -3.704713e+01   7.466097e+01
  -1.239658e+02   5.403309e+00
  -2.515549e+01  -5.044405e+01
  -5.845446e+01  -1.439252e+02
   2.630700e+01  -1.445821e+02
  -3.435879e+00   5.586257e+01
   1.399079e+01   8.823680e+01
   3.731960e+00   3.576309e+01
  -6.266096e+01   2.722465e+01
  -4.409259e+01  -2.600177e+01
  -4.499084e+01   4.626127e+01
  -1.380411e+01   2.646345e+01
   5.143192e+00  -4.373386e+00
   9.070739e+00  -7.255525e+01
   6.994152e+00   7.174751e+00
   7.368360e+01  -4.363278e+01
   8.472184e+01   6.475292e+00
   6.207114e+01   4.584990e+01
   2.123031e+01   5.807543e+00
  -4.670696e+01   4.678034e+01
  -3.935401e+01  -2.503807e-01
  -1.979766e+01  -2.916361e+01
   3.622935e+00  -5.552088e+01
  -5.991495e+01   7.390642e+01
   1.028580e+01   1.427299e+00
   2.718165e+01  -1.377908e+01
   6.455693e+01  -3.144020e+01
   3.318066e+01   3.314655e+01
  -2.729830e+01   3.263352e+01
  -3.756988e+01   7.429488e+01
  -1.272548e+02   2.576793e+01
  -7.875085e+01  -2.090753e+01
  -5.236026e+01  -9.031894e+01
   2.364148e+01  -4.368038e+01
   5.304509e+01   6.210462e+00
   2.278258e+01   2.924026e+01
   1.766356e+01  -1.384226e+01
  -8.272436e+00  -1.677406e+01
  -6.589926e+00   1.715438e+01
   2.430729e+01  -2.058264e+01
   4.076811e+01   5.228798e+01
   5.292326e+00   7.886267e+01
  -7.020064e+01   2.024274e+01
  -7.018049e+01  -4.094295e+01
  -4.108855e+01  -7.240144e+01
   7.990285e+01  -2.038960e+01
   1.164314e+02   3.877434e+01
   3.205342e+01   7.056070e+01
  -2.477826e+01   5.557736e+01
  -9.043722e+01  -4.978561e+01
  -7.622887e+00  -1.602853e+01
   8.996219e+01  -8.772447e+01
   6.076302e+01   1.316394e+00
   7.619004e+00   3.180886e+01
  -3.512525e+01  -4.527630e+01
  -1.132627e+00  -4.232879e+01
  -3.715044e+00  -4.838364e+01
   7.021419e+01  -3.784189e+01
   5.104450e+01   2.102767e+01
  -2.037454e+01  -1.914173e+01
  -7.126701e+01   6.165142e+01
  -2.834399e+01   4.871052e+01
  -1.547332e+01  -1.518461e+01
   1.812142e+01   7.179544e+00
   3.933877e+01  -1.922217e+00
   1.734684e+01   6.165438e+01
  -6.040078e+01  -5.209516e+01
   3.788159e+01   5.627684e+01
  -1.661887e+01  -4.928081e+01
  -6.551532e+01  -2.774374e+01
  -4.432254e+01   2.431360e+01
  -1.137940e+01  -8.252383e+00
  -1.127382e+00   5.161324e+00
  -1.471281e+01  -3.188012e+00
   2.825070e+01  -9.738807e+01
   1.695219e+01   3.073435e+01
   5.383968e+00   1.994532e+01
  -1.971089e+01  -1.434360e+01
  -4.351506e+01  -2.870525e+01
  -6.019549e+01  -9.624320e+01
   3.658949e+00  -5.778096e+01
   7.510873e+01   3.579067e-01
  -6.632883e+00   6.424304e+01
   3.621595e+00   2.886914e+01
  -1.607554e+01   8.989611e+00
   5.825966e+00  -1.777042e+01
   3.585127e+01   4.064983e+01
   9.350208e+00  -2.883886e+01
   6.801607e+01   1.601077e+01
  -2.183906e+01   2.984763e+01
