
 $NMID
 id='ANONYMOUS ', fmtdat='(2E16.6)'
 volume=1.0
 tramp=1.0
 $END
   2.611683e+03  -1.322737e+02
   1.864196e+03   1.195121e+03
   2.884897e+02   1.689953e+03
  -7.591766e+02   1.270923e+03
  -9.100628e+02   4.315099e+02
  -2.630716e+02  -1.099855e+02
   1.670602e+02   1.267976e+00
   5.486516e+01   3.266852e+02
  -2.761848e+02   5.258744e+02
  -5.381894e+02   8.928890e+01
  -3.976024e+02  -3.448837e+02
  -9.839547e+01  -5.051389e+02
   1.929732e+02  -2.003596e+02
   2.108668e+02   2.239005e+02
  -1.235039e+01   4.096982e+02
  -2.904365e+02   7.623421e+01
  -3.300931e+02  -3.843279e+02
   9.904551e+01  -6.015484e+02
   3.972960e+02  -3.596124e+02
   4.529727e+02   1.249233e+02
   1.557978e+02   2.863063e+02
  -1.041616e+02   2.347346e+02
  -3.491302e+01   1.417610e+02
   1.739878e+02   1.819924e+02
   2.234488e+02   2.778441e+02
  -9.264771e+01   2.847319e+02
  -3.595191e+02   7.482649e+01
  -4.645735e+02  -1.840523e+02
  -1.350838e+02  -2.788970e+02
   1.940814e+02  -1.489895e+02
   4.337771e+02   1.596958e+02
   1.350922e+02   3.067664e+02
  -2.261961e+02   2.833794e+02
  -3.753866e+02   1.237794e+02
  -3.029479e+02  -1.160469e+02
  -7.087054e+01  -3.472455e+02
   1.233535e+01  -1.717230e+02
  -1.005553e+02   5.016331e+01
  -1.775808e+02   1.880594e+01
  -1.271031e+02  -8.407595e+01
   3.341077e+01  -3.520151e+02
   1.508423e+02  -3.538757e+02
   2.411004e+02  -5.031707e+01
   8.600152e+01   2.082838e+02
  -5.194463e+01   9.146515e+01
  -8.222120e+01  -2.330668e+02
   5.815187e+01  -3.061770e+02
   3.453445e+02  -3.371043e+01
   4.496535e+02   3.246616e+02
   1.646851e+02   4.452779e+02
  -2.861332e+02   2.418124e+02
  -4.572449e+02  -1.843422e+01
  -3.009496e+02  -1.916977e+02
   1.220077e+01  -1.591160e+02
   2.277146e+02  -1.515869e+02
   1.891402e+02  -3.831333e+01
   9.440804e+00  -2.738407e+01
  -1.735244e+01  -4.770469e+01
   5.380389e+01  -1.958525e+01
   1.499835e+02   9.608106e+01
   1.408131e+02   1.488892e+02
  -1.013093e+02   2.324850e+02
  -3.468180e+02   1.345618e+02
  -2.513601e+02  -8.700502e+01
   1.033238e+01  -3.446408e+02
   2.849863e+02  -3.542585e+02
   3.615929e+02  -6.423730e+01
   1.494628e+02   1.802430e+02
   1.363458e+01   3.356256e+02
   2.021893e+01   2.421268e+02
   7.283744e+00   1.837404e+02
  -1.291606e+01   8.338544e+01
  -1.420983e+02   7.123093e+01
  -2.483150e+02   6.866736e+01
  -2.008721e+02  -1.317364e+02
  -2.393755e+01  -2.494662e+02
   9.157330e+01  -1.154520e+02
   1.348455e+02   7.082376e+01
   1.133101e+02   1.526418e+02
  -7.429761e+01   1.608564e+02
  -1.709719e+02  -3.374418e+01
  -3.004704e+02  -1.402226e+02
  -1.655396e+02  -3.226871e+02
   3.966508e+01  -2.226805e+02
   1.168977e+02  -1.477213e+02
   1.119799e+02  -9.542386e+01
   1.128794e+02  -7.829601e+01
   2.694174e+02  -1.117646e+00
   3.856237e+02   1.360793e+02
   3.298261e+02   2.581513e+02
   3.469076e+01   3.735487e+02
  -3.378520e+02   3.626607e+02
  -4.565634e+02   1.745093e+02
  -2.978854e+02  -3.073367e+01
   3.624145e+01  -2.176065e+02
   7.434428e+01  -1.447343e+02
  -2.241801e+01   1.323438e+01
  -7.190100e+01  -3.023086e+01
  -1.040606e+02   3.170658e+01
   6.876795e+00  -1.226295e+02
   8.110023e+01  -9.342294e+01
   4.925483e+01   1.644420e+01
   1.727673e+01   9.177730e+01
  -1.209192e+02   2.582107e+01
  -7.073910e+01  -2.327592e+02
  -2.566126e+01  -3.480215e+02
   2.509657e+02  -2.654675e+02
   3.748659e+02   1.560753e+01
   2.462519e+02   2.453600e+02
   7.227256e+01   2.868381e+02
  -9.595873e+01   1.658442e+02
  -1.577367e+02  -2.520414e+01
   5.486927e+01  -1.909065e+00
   1.148058e+01   4.541741e+01
   6.257176e+01   6.948320e+01
  -6.269661e+01   7.203993e+00
  -9.277133e+01  -3.302532e+01
  -4.337072e+01  -3.924094e+01
   7.039384e+01   3.006198e+01
   9.170239e+00   7.645167e+01
  -1.444862e+02   6.654620e+01
  -2.995706e+02   4.297737e+01
  -2.625032e+02  -1.229410e+02
   2.487311e+00  -2.662397e+02
   2.069050e+02  -1.792620e+02
   2.228427e+02  -6.450462e+01
   9.801172e+01   7.182940e+01
   3.266502e+01   4.443395e+01
  -3.294962e+01  -5.070183e+01
   7.430715e+01  -8.800665e+01
   1.436396e+02   2.553959e+00
   1.461084e+02   3.161062e+01
   3.661970e+01   1.357559e+02
  -4.529796e+01   1.215917e+02
  -1.070245e+02  -2.210631e+01
  -1.333247e+01  -7.474775e+01
  -6.198300e+00  -1.819421e+01
  -5.534976e+00   4.750260e+01
  -6.635896e+01   1.009745e+02
  -1.970256e+02  -2.179268e+01
  -1.002481e+02  -1.128945e+02
   1.390385e+01  -1.746995e+02
   1.766091e+02  -1.216513e+02
   1.456261e+02   7.825699e+00
   7.774124e+01   9.310445e+01
   3.190103e+00   5.664618e+01
  -6.518025e+01   1.182668e+01
   1.637636e+01   1.215663e+01
  -2.639886e+00   8.266911e+00
  -4.745363e+00  -4.795696e+00
  -1.138976e+02   3.632823e+01
  -1.177690e+02  -8.539409e+01
   8.990414e+00  -2.298941e+02
   1.102311e+02  -1.842345e+02
   2.685622e+02  -1.313198e+01
   1.683766e+02   1.366096e+02
   1.238900e+01   2.181462e+02
  -5.187653e+01   1.165921e+02
  -9.672764e+01   5.157592e+01
  -5.685966e+01  -8.442826e+01
  -3.830282e+01   1.725400e+01
  -3.227593e+01   1.671309e+01
  -8.920798e+01   1.791619e+01
  -7.013326e+01  -2.709270e+01
   1.106875e+01  -6.127523e+01
   1.326882e+02  -1.119274e+02
   9.038988e+01   5.586656e+01
  -1.512659e+01   1.594905e+02
  -1.754328e+02   1.147185e+02
  -1.753430e+02  -6.240393e+01
  -1.019654e+02  -2.173141e+02
   1.021524e+02  -2.728476e+02
   2.850462e+02  -9.743243e+01
   1.914052e+02   8.080602e+01
   9.161520e+01   1.167917e+02
   4.988266e-01   5.227068e+01
  -1.137952e+02   1.119995e+02
  -7.135751e+00   6.126612e+01
  -1.115964e+02   9.143052e+01
  -1.030002e+02   7.558867e+01
  -9.417781e+01  -3.552161e+00
  -7.103558e+01  -6.989557e+01
  -8.682590e+01  -1.905891e+02
   1.462533e+02  -1.358710e+02
   1.307673e+02  -2.509634e+01
   6.573112e+01   5.694074e+01
   1.064847e+01   9.518679e+01
  -9.949289e+01   2.594526e+01
  -7.082074e+01  -4.057278e+01
  -1.887389e+01  -6.006425e+01
   3.958471e+01  -9.164385e+01
   3.930893e+01  -2.504252e+01
  -5.206192e+01  -6.706602e+01
  -1.730347e+01   2.435838e+01
   2.928994e+01  -5.773168e+01
   1.567404e+02   5.630024e+01
   1.315683e+02   2.746066e+01
  -3.009945e+01   1.431979e+02
  -1.565739e+02   4.041711e+01
  -8.901460e+01   1.084539e+00
  -5.243743e+01  -6.193091e+01
   4.739499e+01  -1.732467e+01
   6.863433e+01  -4.342787e+01
   6.021581e+01   2.529039e+01
  -7.531702e+01   6.705053e+01
  -4.862306e+01  -3.140777e+01
  -7.804257e+01  -1.120389e+02
  -8.313276e+01  -7.273107e+01
  -5.073983e+01  -1.792208e+01
  -1.812621e+01  -3.802671e+00
  -5.748707e+01  -3.489425e+01
   3.100182e+01  -1.380976e+02
   1.275450e+02  -1.589138e+02
   1.478805e+02  -3.392955e+01
   9.275340e+01   9.297359e+01
  -7.770306e+00   1.846001e+02
  -6.765633e+01   1.442399e+02
  -2.334794e+01   3.040358e+01
   4.016934e+01  -3.337474e+01
   9.292655e+01   5.839069e+00
   1.632153e+01   1.082485e+02
  -1.081654e+02   1.222938e+02
  -1.596404e+02   3.394491e+01
  -1.536788e+02  -8.316329e+01
  -6.243647e+01  -7.953459e+01
   7.527491e+01  -6.729267e+01
   5.724371e+01   3.705400e+01
  -5.058230e+00   2.016038e+00
  -1.270215e+02  -4.718455e+01
  -1.010424e+02  -1.611833e+02
   1.140088e+02  -1.605327e+02
   1.459916e+02  -1.872982e+01
   1.604798e+02   1.161068e+02
   5.462247e+01   1.481793e+02
  -9.070309e+01   8.938496e+01
  -6.770876e+01   2.477260e+01
  -7.703260e+01  -1.842928e+02
  -3.287127e+01  -7.154933e+01
   6.338782e+01  -1.681083e+01
   4.775408e+00  -6.301273e+00
   3.417123e+01  -8.819035e+00
   5.536177e+01  -2.212659e+01
  -2.895651e+00   3.770502e+00
   6.691293e+01   9.518171e+01
   2.400123e+01   1.025273e+02
  -3.750052e+01   3.190738e+01
  -1.112584e+02  -1.998418e+01
  -8.858300e+01  -5.109725e+01
  -4.660350e+01  -5.478542e+01
   9.469769e+01  -2.636613e+01
   3.169382e+01  -1.364391e+01
   5.084998e+01  -2.941351e+01
  -9.494362e+01  -8.136045e+00
  -3.476102e+01   2.654361e+01
   4.241224e+01  -6.531428e+01
  -4.096997e+01   5.538504e+01
  -2.510117e+01   7.050510e+00
  -1.263211e+02   1.059459e+01
  -1.640206e+01  -1.844176e+01
   1.029042e+02  -1.297614e+02
   1.573459e+02  -1.400220e+02
   1.327552e+02  -2.725210e+00
   1.797190e+01   1.337902e+02
  -4.036630e+01   2.262766e+02
  -1.037981e+02   7.260550e+01
  -5.724683e+01   1.317270e+01
  -4.431333e+01  -1.718904e+01
  -1.620131e+01  -3.197469e+01
  -1.177605e+01   1.291850e+00
   8.163108e+00  -5.758327e+01
  -5.156926e+01  -3.084018e+01
   7.149195e+00   1.244875e+01
   1.249657e+02   3.929537e+01
   9.489287e+01   5.075971e+01
  -9.896228e-01   1.037786e+02
  -2.437536e+00   3.927782e+00
  -8.017507e+01  -4.429451e+01
  -3.995897e+01   6.335354e+00
   5.787340e+01  -1.121030e+02
   8.100720e+01   4.299218e+01
   1.385730e+01   5.417235e+01
  -5.205896e+01   6.410077e+01
  -2.832147e+01  -4.275341e+00
   1.422369e+00   1.177603e+01
   5.098365e+01  -3.879318e+01
   5.476746e+01   1.136761e+00
  -8.026372e+01   1.364473e+02
  -1.268044e+02   2.124294e+01
  -9.208568e+01   3.188985e+00
   2.395186e+01  -7.881063e+01
   7.058069e+01  -5.811363e+01
   1.855503e+01  -5.016387e+01
   2.741550e+01   2.881424e+01
  -6.461788e+01   4.550262e+01
  -3.968557e+01   1.447630e+01
  -4.048054e+01  -1.123833e+02
  -4.380969e+01  -2.675553e+01
   3.360074e+01   7.040961e+01
   2.296527e+01   3.100110e+01
  -2.950883e+00  -1.176726e+00
   3.652894e+01  -5.393069e+01
  -1.156145e+01  -1.422204e+01
   4.235059e+01  -6.143132e+00
  -4.716306e+01   6.963950e+00
  -3.127334e+01   5.742157e+01
  -4.511117e+01  -3.562865e+01
  -1.605867e+01  -1.073096e+02
   8.260753e+01  -1.229700e+02
   6.129739e+01   2.054039e+01
   5.546820e+01   3.116856e+01
  -9.230359e+01   2.474028e+00
  -7.897003e+01   2.654742e+01
   9.203479e+00  -2.559230e+01
   2.639609e+01  -3.551729e+01
   1.052018e+02  -2.948904e+01
   6.788372e+00   4.263650e+01
  -3.818493e+00   3.419451e+01
   2.271276e+01  -4.115051e+00
   2.067405e+01  -3.401072e+01
   9.251808e+01  -1.893048e+01
