
 $NMID
 id='ANONYMOUS ', fmtdat='(2E16.6)'
 volume=1.0
 tramp=1.0
 $END
   6.843712e+02   1.101201e+01
   4.353661e+02   3.441513e+02
  -1.478896e+01   4.220675e+02
  -2.463571e+02   3.377699e+02
  -2.192503e+02   1.199755e+02
  -3.678419e+01   1.932163e+00
   2.951868e+01   7.543765e+00
  -2.646789e+01   5.368845e+01
  -1.493440e+02   1.858257e+02
  -1.197202e+02   5.128340e+01
  -1.306447e+02  -8.150195e+01
   7.625977e-01  -1.497923e+02
   9.248989e+00  -5.205624e+01
  -2.478141e+00   8.877789e+01
  -9.917693e+01   1.241567e+02
  -1.371456e+02   9.598071e+01
  -3.680186e+00  -8.687099e+01
  -2.940886e+01  -1.441669e+02
   5.257179e+01  -6.388024e+01
   1.167350e+02   6.234002e+01
   4.485925e+01   4.027549e+01
  -4.731519e+01   8.538930e+01
  -2.659702e+01   2.486754e+01
   5.026970e+01  -2.783553e+01
   7.385799e+01   2.487536e+01
   1.712797e+01   1.125833e+02
  -7.998407e+01  -3.671264e+00
  -1.445569e+02  -4.282886e+01
  -7.674407e+01  -8.288191e+01
   5.295482e+01  -7.616265e+01
   1.128168e+02   7.184775e+01
   4.777388e+01   9.312373e+01
  -7.748608e+01   9.615178e+01
  -1.394929e+02   1.764262e+01
  -8.009513e+01  -2.074940e+01
  -7.411951e+01  -3.422251e+01
   2.310196e+01   3.047996e+01
   3.359693e+00  -7.532341e+01
  -7.820285e+01   2.275707e+01
  -3.601605e+00   1.050194e+01
   7.322765e+01  -9.282242e+01
   2.613048e+01  -1.095745e+02
   1.047918e+02  -5.170517e+01
   2.751134e+01   7.380864e+01
  -3.609583e+00  -4.112662e+01
  -6.562025e+01  -7.576005e+01
   6.549911e+01  -1.069796e+02
   1.157402e+02  -2.122631e+01
   1.248797e+02   5.764004e+01
   5.674042e+01   1.024255e+02
  -7.416073e+01   9.304419e+01
  -4.131695e+01  -1.801588e+01
  -4.416153e+01  -7.455211e+01
   4.022215e+01  -2.514252e+01
   3.023357e+01   2.545846e+01
   2.086368e+01  -4.412351e+01
  -1.721717e+01   2.546805e+01
   8.503031e+00  -2.726333e+01
   4.415839e+01  -1.372185e+01
   3.461294e+01   8.171184e+00
  -4.997106e+01   8.347936e+01
   5.029994e+00   7.235215e+01
  -8.131985e+01  -7.174195e+01
  -4.255637e+01   7.918278e-01
   1.975765e+01  -1.041685e+02
   8.140378e+01  -2.635831e+01
   1.223250e+01   1.367317e+00
   6.491304e+01   4.923718e+01
   1.145701e+00   9.396205e+01
   1.472902e+01   4.765878e+01
   2.426221e+01   3.708065e+00
  -3.613017e+01   9.799740e+01
  -5.590128e+01   4.193033e+01
  -7.698027e+00  -1.654504e+01
  -2.742581e+01  -2.857160e+01
   1.601693e+01  -7.145069e+01
   6.470581e+01  -8.499789e+00
   4.766926e+01  -1.459995e+01
   4.512440e+01   8.685486e+00
  -9.066771e+00   8.266962e+01
  -7.144385e+01   5.449413e+01
  -4.031574e+01   2.228212e-01
  -2.838367e+01  -5.543266e+01
  -1.620012e+01  -2.810924e+01
   8.342282e+01  -1.865242e+01
  -1.903035e+01  -6.186372e+01
   3.595047e+01   1.154576e+01
   5.563644e+01   4.573837e+01
   4.644472e+01   3.605404e+01
   9.276316e+01   7.153164e+01
  -1.393884e+01   8.712692e+01
  -6.989509e+01   7.663553e+01
  -1.446445e+02   2.943788e+01
   2.455264e+01  -1.267267e+01
  -3.360510e+01  -5.277304e+01
   4.059747e+01  -5.641186e+01
   1.050968e+01   3.490473e+01
   2.292578e+01   3.372546e+01
  -6.282619e+01  -5.347398e+01
   1.196269e+01   6.710538e+00
   9.536311e+00  -1.601736e-02
  -6.600252e+00   2.019986e+01
   1.034155e+00   3.602494e+01
  -2.925688e+01  -4.819258e+01
   1.826018e+01   9.933758e+00
   6.912958e+00  -9.331763e+01
   6.263843e+01  -6.694733e+01
   7.522868e+01   4.258393e+01
   9.731430e+01   3.911657e+01
  -1.479866e+01   1.122900e+02
  -3.039402e+01   5.137356e+00
  -4.307354e-01  -3.549054e+00
  -5.516277e+00  -1.113908e+02
   1.826914e+01   8.922312e+01
  -1.580558e+01  -2.673966e+00
  -1.192698e+01   3.051857e+01
  -8.788055e+00  -4.686978e+00
  -4.706421e+01   1.312439e+01
  -2.017153e+01  -3.422218e+01
   2.868420e+01   6.933593e+01
   9.247926e+00   3.291388e+01
  -1.027164e+02   1.301290e+01
   1.034355e-01  -5.293825e+01
  -1.579396e+01  -6.548604e+01
   5.678826e+01  -2.194064e+01
   6.671746e+01  -9.190393e+00
   5.312198e+01   6.310857e+01
  -1.250513e+01   4.352749e+01
  -1.036554e+01  -1.100926e+00
  -4.567705e+01   1.285757e+01
   5.034116e+01  -8.030897e+00
  -3.718428e+01   7.442291e+01
   4.578735e+01   1.484596e+01
  -4.439953e+01   2.879139e+01
  -2.449613e+01   1.044782e+02
   8.950061e+00  -1.491547e+01
   1.754949e+01   3.471022e+00
   6.868177e+01  -3.270030e+01
  -1.993663e+01   8.914196e+00
  -3.724254e+01   3.128055e+01
  -4.409085e+01  -8.949124e+01
  -2.905751e+01  -1.524126e+01
   2.985321e+01  -4.619379e+01
   2.822570e+01  -6.249062e+00
   4.692495e+01   9.630074e+00
  -4.403020e+01   3.897279e+01
   9.077980e+00  -3.346676e+01
  -3.717219e+01  -2.365187e+01
  -5.217962e+00  -5.432208e+01
   1.039411e+01  -3.610733e+01
   3.064749e+01   7.312223e+00
  -2.911386e+01  -4.913002e+01
   5.497328e+01  -1.073607e+01
   5.610911e+01  -3.189924e+01
   2.164712e+01   2.386902e+00
   2.415414e+01   1.262801e+01
   5.262940e+01  -2.430676e+00
  -9.028642e+01   1.427897e+01
   5.786965e+01   4.914079e+01
  -6.030150e+01  -2.393076e+01
  -6.101183e+01   1.696193e+01
  -1.277611e+01   6.622444e+01
  -5.084196e+01   4.936358e+01
  -3.382240e+00  -3.379290e+01
  -5.473458e-01   1.028932e+01
   5.756572e+01   5.470722e+00
   9.380793e+00   4.058332e+00
   4.807375e+01   5.563879e+01
  -1.010312e+02   7.319425e+01
  -1.725094e+02  -7.760784e+01
  -3.900620e+01   1.851620e+01
   1.403929e+01  -5.733766e+01
   8.451130e+01  -5.253734e+01
   1.158922e+02   1.112665e+01
  -7.637582e-01   1.592036e+01
  -1.114718e+00   4.029361e+01
  -1.658097e+01  -2.058997e+01
  -3.739926e+00  -1.692416e+01
  -4.868524e+01   1.800131e+01
  -1.393768e+01  -6.135939e+00
  -1.824613e+01  -4.813162e+01
   1.802842e+01   8.875244e+01
   4.046961e+01  -9.911092e+01
  -2.039722e+01  -1.236687e+01
  -1.045810e+01  -4.408127e+01
  -3.515991e+01  -4.623581e+00
   4.400493e+00   5.260085e+00
  -3.236678e+01   7.994760e+00
  -1.382264e+01   1.399560e+01
  -4.936915e+01   1.412898e+01
   4.249062e+01  -3.818865e+01
  -4.604121e+01  -4.106246e+01
  -2.228647e+01   2.586170e-01
  -1.292861e+01   2.655528e+00
   2.728669e+01  -3.708264e+01
   2.898727e+01   4.548876e+00
   3.959069e+01   2.953407e+01
   6.410602e+01  -3.991804e+01
  -4.452324e+01   2.368475e+01
  -5.486029e+01  -1.253700e+01
  -6.350432e+00  -1.152924e+01
  -1.027541e+01   1.346812e+01
   2.533323e+00   5.015385e+01
  -1.432439e+01  -1.418969e+01
   2.986639e+01  -4.814443e+01
  -2.572363e+01   6.066788e+00
   1.761120e+01  -2.999176e+01
  -1.848505e+01  -1.976546e+01
  -2.662311e+01   4.592338e+01
   5.325327e+00   7.342208e+00
   3.730481e-01  -1.978502e+01
   3.168233e+01  -1.176054e+02
   4.502651e+01   6.159931e+01
   5.000735e+01  -1.473133e+01
   4.286332e+01   7.424202e+01
  -3.523613e+01   3.595696e+01
  -6.384659e+01  -6.581353e-01
   4.342704e+01  -2.531280e+01
  -2.440578e+01  -2.201416e+01
  -2.400901e+01   2.149754e+01
   4.290619e+01   2.265876e+01
  -5.205486e+00   2.796613e+01
  -6.181097e+01  -1.266450e+01
  -4.768301e+01  -3.566710e+01
  -2.905333e+01  -3.094665e+00
   3.602833e+01  -3.562961e+01
  -3.039150e+01   7.583455e+01
  -7.125064e+01   3.264781e+01
  -3.665252e+00   7.931981e+00
   1.151158e+01   7.692877e-01
   4.266996e+01  -4.746197e+01
  -4.722896e+00   9.996180e+00
   5.011867e+01   6.119550e+01
  -2.102844e+01   8.988265e+00
  -4.433566e+01   4.579825e+01
   3.391443e+01  -3.987749e+01
   4.483967e+01  -5.263507e+01
   2.520720e+01  -9.286004e+00
   3.123733e+01  -2.256458e+01
   5.226427e+00  -2.642979e+01
   2.790042e+01   2.575187e+01
   1.968045e+01   1.783326e+01
  -2.925130e+01  -7.845626e+01
  -2.160261e+01   3.051200e+01
   3.835131e+01  -3.257176e-01
   3.493864e+00  -8.885775e+00
  -4.234301e+01  -4.626325e+01
   2.907039e+01  -1.912628e+01
   2.234568e+01   7.722114e+00
   1.491724e+01  -5.514306e+01
  -2.522707e+01   4.287376e+00
  -1.091705e+01  -3.184993e+01
  -4.348613e+01   3.033058e+01
  -3.063896e+01  -4.561370e+01
   3.055890e+01  -5.723014e+01
  -4.747777e+01   2.538220e+00
   4.641581e+00   1.384371e+01
  -9.068274e-01  -2.881674e+01
  -4.149018e+01   2.907199e+01
   7.641989e+00  -5.659409e+01
   4.531729e+01  -7.484019e+00
   4.147969e+01  -9.839036e+00
  -6.268485e+01  -4.020614e+01
  -2.856886e+01   2.068659e+01
  -6.435161e+01   1.291364e+01
  -4.894723e+01   4.367513e+01
  -4.653056e+01  -2.944561e+01
   2.284580e+00   9.102353e+00
   2.930642e+01  -3.338574e+01
   1.930433e+01  -6.681731e+00
  -3.525453e+01   2.939069e+00
   1.199195e+01   1.967043e+01
  -1.622576e+00   3.294894e+01
   4.346763e+01  -8.414302e+00
   3.424890e+01   9.285888e+00
  -6.665585e+01  -3.624092e+01
  -8.057750e+01  -9.722198e+00
  -2.563463e+01  -5.165063e+01
   5.940318e+01  -1.732291e+01
  -3.163362e+01  -2.385983e+01
  -4.562735e+01   1.368651e+00
  -3.862764e+01   3.710265e+01
  -2.124037e+01   4.979588e+00
  -9.250243e+00   4.017533e+00
   3.927883e+01   8.979585e+00
  -1.377194e+01   6.894939e-01
  -2.302377e+01   4.117780e+01
  -3.234800e+01  -1.329514e+01
  -1.668698e+01  -7.939618e+00
   3.147854e+00  -7.963882e+01
   4.651943e+01   1.457594e+01
   1.763035e+01   3.376390e+01
  -5.467525e+01  -2.600685e+00
   4.500867e+01   2.977852e+01
  -4.863876e+01  -1.483113e+01
  -1.676284e+01  -2.891584e+01
  -6.685332e+00   6.719473e+01
   1.188502e+01   4.444439e+01
  -4.110555e+01  -4.594810e+01
  -1.776905e+01   2.169522e+01
  -1.905606e+01   1.080360e+01
  -3.804626e+00  -5.828835e+01
   4.520069e+01  -1.531227e+01
   4.843637e+01   2.042949e+01
  -6.080465e+01  -2.701887e+01
  -7.119482e+01   4.459585e+01
   4.244021e+01  -4.026391e+01
  -3.286567e+01   2.571994e+01
   3.046871e+01   1.354745e+01
   1.797320e+01   6.951174e+01
   1.027233e+01   5.269699e+01
  -1.800595e+01   6.426168e+00
   1.322144e+01  -2.732371e+01
  -1.714530e+01  -1.465178e+01
  -4.629897e+00   1.115526e+01
   2.721875e+01   2.221660e+01
   2.044089e+01   3.557270e+01
  -1.614261e+01   1.766395e+00
   1.178179e+00  -8.552991e+01
   1.367256e+01   4.301258e+01
