
 $NMID
 id='ANONYMOUS ', fmtdat='(2E16.6)'
 volume=1.0
 tramp=1.0
 $END
   4.478179e+02  -3.030291e+01
   4.244018e+02   1.495631e+02
   2.249778e+02   3.763693e+02
  -1.217313e+02   3.872322e+02
  -3.044474e+02   2.971674e+02
  -2.138321e+02  -2.538862e+01
  -3.508994e+01  -1.325013e+02
   2.385317e+01  -2.602089e+01
  -5.042775e+00   1.410582e+02
  -1.248384e+02   7.365374e+01
  -8.740710e+01  -1.021522e+01
  -6.396890e+01  -1.327332e+02
  -9.211070e+00  -1.419774e+02
   7.739909e+01  -2.174457e+01
   3.361226e+01   1.102338e+02
  -3.638236e+01   5.432313e+01
   1.313667e+01  -8.997725e+01
   2.731502e+01  -9.452179e+01
   1.328383e+02  -9.877133e+01
   1.667981e+02   3.355178e+01
   5.785727e+01   9.927821e+01
   9.063547e-01   4.507352e+01
  -1.993467e+01   5.001581e+01
   1.955119e+01   8.584697e+01
   3.084627e+01   3.875460e+01
  -9.448170e+01   6.801990e+01
  -1.065496e+02  -3.892959e+01
  -2.646514e+01  -2.397394e+01
  -1.368848e+01   2.348893e+01
   1.485361e+01  -3.909948e+01
   8.643072e+01   4.684669e+01
  -8.041848e+01   1.607575e+01
  -7.541263e+01  -2.239111e+01
  -5.700840e+01   4.206046e+00
  -4.351947e+01   3.668454e+01
  -2.402825e+01  -5.872762e+01
  -6.027962e+00   4.580413e+00
  -6.329871e+01  -3.943764e+01
  -7.650623e+01  -4.306993e+01
  -9.208394e+00  -1.066167e+02
   3.584724e+01  -5.853672e+01
   2.207018e+01  -6.027014e+01
  -3.861496e+00   4.077960e+01
   5.975675e+00  -6.968133e+00
   1.412201e+01  -7.696170e+00
  -2.549654e+01  -2.200774e+01
   3.039386e+01  -7.723101e+01
   6.540699e+01   3.443253e+00
   8.213171e+01   1.151167e+02
   6.996855e+01   6.025665e+01
  -9.371009e+01   8.002803e+01
  -6.424719e+01  -1.178683e+01
  -6.821345e+01   7.175143e+00
  -1.676569e+01   4.893619e+00
   8.321909e+01  -4.816946e+01
   2.273739e+01  -7.527306e+01
   8.507878e+00   7.004164e+00
   1.799336e+01  -1.276592e+01
   1.690756e+01   3.755163e+01
   2.436319e+01  -6.294158e+01
  -3.894813e+01  -9.696784e+00
  -1.179939e+01   7.563726e+01
  -3.897015e+01   4.641292e+01
  -7.123286e+01  -2.117612e+01
  -1.063692e+01  -8.885210e+01
   7.823377e+01  -1.095123e+02
   7.817880e+01   4.843454e+01
   1.019645e+02   7.041809e+01
   6.005073e+00   4.487731e+01
   6.575151e+01   8.454083e+01
   6.305916e+01   7.459053e+01
  -2.435985e+01   7.473009e+01
  -3.437635e+01   2.049719e+01
  -4.705086e+01  -6.505189e+01
  -1.024929e+02  -2.443109e+01
   2.303830e+01  -6.370787e+01
   1.279661e+01  -5.474239e+01
   6.264310e+01  -3.402952e+00
  -2.264754e+01  -4.029058e+01
  -6.826414e+01   2.985886e+01
  -1.330126e+01  -4.267030e+01
  -3.397068e+01  -1.213994e+02
  -1.266057e+01  -8.907261e+00
   2.848860e+01  -1.868758e+01
   1.165456e+01  -4.855819e+01
   7.158937e+01  -2.437995e+01
   4.678515e+01  -2.578390e+01
   6.224525e+01   8.805569e+00
   8.757139e+01   2.766178e+01
   1.267942e+02   7.643800e+01
   1.291639e+01   1.364779e+02
  -8.689625e+01   3.989233e+01
  -1.051844e+02   6.094982e+00
  -1.162598e+02   1.988909e+01
  -6.046084e+01   1.812504e-01
   5.157209e+01  -5.488253e+00
   1.703617e+01  -9.123605e+01
   1.249306e+01  -5.707806e+01
  -2.911081e+00   4.308301e+01
   2.031666e+01   6.830326e+00
  -5.762455e+00   4.927228e+01
   3.122810e+01  -2.861316e+00
   2.139199e+00  -3.221875e+01
  -5.196036e+01  -4.870938e+00
  -2.834167e+01  -5.305996e+01
  -7.499279e+01  -3.600873e+01
   4.990828e+01  -2.457540e+01
   7.447441e+01   2.588924e+00
   1.761237e+01   8.747190e+01
  -8.831601e+00   4.085470e+01
  -5.503671e+01   6.958923e+01
  -3.227386e+01  -4.897182e+01
   2.424399e+01   4.796863e+01
  -4.128237e+00   3.252675e+00
  -1.810659e+01  -7.466394e+00
  -8.149348e+01   1.474706e+01
  -3.549005e+01  -6.112627e+01
  -2.148541e+01  -3.414361e+00
  -2.836743e+01  -2.236220e+01
  -4.240052e+01   1.352157e+01
  -8.282679e+00  -1.508319e+01
  -6.688182e+01   4.193012e+00
  -7.531003e+01  -3.699463e+01
   3.694394e+01  -1.071820e+02
   1.017169e+01   1.390678e+01
   1.023673e+02  -1.895986e+01
   1.630482e+01   4.010724e+01
   1.664496e+00   7.980863e+00
  -2.765759e+01   1.099439e+01
  -5.000890e+01  -4.819583e+01
   2.410837e+01   3.407255e+01
   1.206596e+02   5.528601e+01
  -1.272397e+01   8.934201e+01
  -2.467789e+01   5.832807e+01
  -2.585956e+01  -2.927333e+01
  -6.955636e+01   5.684900e+01
   1.445284e+01   8.795605e+00
  -6.201960e+01  -2.635099e+00
  -5.361363e+01   1.936885e+01
  -3.797523e+01   2.634121e+00
  -6.235271e+01  -9.635620e+01
   5.976983e+00  -4.057102e+01
   3.660570e+01  -2.277932e+01
   2.377984e+01   2.957476e+01
  -2.259395e+01   6.710132e-01
  -5.025351e+01  -3.862247e+01
  -5.086316e+01   1.895073e+01
  -5.528336e+01  -1.153718e+01
   1.331578e+01   4.575159e+01
   2.149410e+01   3.503366e+00
  -3.031511e+00   2.683144e+01
   8.212983e+00  -4.033298e+01
  -3.283568e+01  -5.184903e+01
   4.835940e+01   6.557544e+00
   4.473274e+01  -8.551570e+00
  -2.535120e+01   1.987690e+01
  -4.140481e+01   1.045339e+02
  -6.574380e+01   5.173471e+01
  -3.676595e+01  -3.597714e+01
  -5.107397e+01  -4.188060e+01
  -3.298594e+01  -2.713656e+01
  -6.551530e+01  -2.451484e+01
  -3.840001e+01   4.126099e+00
  -2.830037e+01   1.765009e+01
   1.756647e+01  -7.320353e+01
   1.631037e+01  -4.172170e+01
  -2.587212e+00   4.376498e+01
  -1.289002e+01   2.707091e+00
  -5.059235e+01   6.432707e+01
  -9.674932e+01   1.530743e+00
   4.775019e+01  -3.227444e+01
   9.664912e+01  -1.820236e+01
   6.872019e+01  -2.186169e+01
   2.155770e+01   1.999339e+01
   7.371683e+01   3.262198e+01
  -5.220208e+01   8.228720e+01
   1.308392e+01  -3.400833e+01
   1.189970e+01  -9.685590e+00
  -1.278884e+01   3.644940e+01
  -6.314462e+01  -4.494318e+01
  -3.371565e+01  -2.944631e+00
  -3.643982e+01  -3.063707e+01
  -2.219949e+01  -1.254059e+02
   2.640026e+00  -2.298478e+01
  -3.928424e+01   7.569304e+01
  -3.810854e+01   3.279755e+01
   5.728168e-01   4.817103e+01
  -3.157159e+01  -2.494078e+01
  -3.509284e+01   1.676054e+01
  -1.936690e+01   1.857259e+01
   4.672520e+01  -8.649202e+01
   5.629934e+01   2.322848e+01
  -1.636987e+01   3.783234e+01
  -1.143476e+01  -7.868659e+00
   4.318792e+01  -1.984490e+01
   6.252128e+01  -2.580302e+01
  -1.024130e+01   4.177362e+01
  -9.091140e+00   4.740505e+01
  -1.501512e+01  -1.460972e+00
  -4.585663e+01   3.011405e+01
   1.616980e+00  -7.884145e+00
  -6.490544e+00   4.749487e+00
   2.084204e+01   5.934371e+01
  -3.057217e+00   1.023495e+01
   9.735855e+00  -1.626829e+00
  -1.975589e+01  -2.566887e+01
  -4.366552e+01   4.346287e+01
  -2.025761e+01   9.653095e+00
   1.442048e+01   2.422131e+01
   9.317939e-01  -1.104010e+01
  -3.185055e+01  -1.114619e+01
   8.366856e+00  -6.227571e+01
   5.065380e+01  -4.731688e+01
   2.036947e+01   2.205686e+01
   6.132859e+01   2.646762e+00
  -4.726663e+01   2.716924e+01
  -3.742893e+01  -3.983418e+01
  -1.276145e+01  -1.195055e+01
   3.003922e+01  -1.761481e+01
   4.808421e+01   3.414478e+01
   3.325211e+01  -4.183445e+00
  -4.225718e+01   6.714058e+00
  -2.167080e+01   4.379758e+01
  -3.378343e+01  -3.727874e+01
   4.744809e+00  -1.899823e+01
   6.444273e+01   6.927287e+01
   1.219579e+01  -1.922022e+01
  -5.435504e+00   1.347971e+01
   5.498039e+00  -4.281488e+01
  -2.963011e+01  -2.254692e+01
   4.508203e+00  -3.873899e+00
   1.010549e+02  -3.417536e+01
  -1.368199e+01   6.407460e+01
  -1.020194e+01   6.383923e+01
  -3.433054e+01   3.261799e+01
   2.322848e+01  -3.051106e+01
  -4.389508e+01  -2.791287e+01
   3.290452e+01  -5.052349e+01
   5.234933e+01   4.535009e+01
  -2.175315e+01   4.223282e+00
   8.792372e-01  -5.779108e+01
   7.751716e+00  -4.554666e+01
   5.028370e+01   4.584037e-01
   8.322495e+01   6.618337e+00
   6.960409e+00   1.518632e+01
   3.864954e+01  -3.474382e+01
  -4.474938e+00  -1.837406e+01
  -1.516773e+01   5.649619e+01
   2.727823e+01  -4.706637e+01
   6.017923e+01   5.564399e+01
   2.598375e+01  -2.456230e+01
  -1.019431e+01  -7.359075e+00
   3.833139e+01   2.155341e+01
  -2.261618e+01   1.591758e+01
   2.076521e+01  -1.619262e+01
   4.404722e+00  -1.045367e+01
  -6.663332e+01  -3.203116e+01
   2.143177e+01  -4.516462e+01
   4.829421e+01  -3.350345e+01
   3.192053e+01  -4.462796e+01
   4.442786e+01   3.708179e+00
   7.504258e+01  -4.906485e+00
   1.513009e+01   3.330573e+01
   2.887453e+01   8.068113e+01
  -5.983687e+01   2.250977e+01
  -3.658400e+01  -2.332590e+01
  -4.106512e+01  -4.021349e+01
  -1.528832e+01   3.067941e+00
   1.289443e+01  -2.234268e+01
  -1.787355e+01   1.530004e+01
  -2.247990e+01  -5.334453e+01
   1.154493e+00  -1.003816e+01
   4.399270e+01   1.830946e+01
   2.350834e+01   9.576585e+00
   2.486616e+00   4.414539e+01
  -2.038756e+01   1.625221e+01
  -5.465263e+01  -9.405199e+01
  -1.712473e+01  -2.310922e+01
  -2.239164e+00   1.166929e+01
  -3.290282e+00   2.789693e+01
   3.272048e+01   4.734689e+01
  -5.935302e+01  -3.271352e+01
  -1.068544e+01   4.181863e+01
   3.540513e+01   3.459603e+01
   2.793509e+01  -3.722219e+00
   7.020498e+01   3.357245e+00
   2.120840e+01   4.406172e+01
  -8.421959e+01  -2.277234e+01
  -5.409737e-01   1.727852e+01
   4.703814e+01  -2.023591e+01
  -4.881847e-01  -2.861199e+01
  -1.909765e+01  -5.531049e+01
   2.668049e+01   6.651002e+01
  -4.829587e+00   1.067117e+01
   1.901992e+01  -1.490723e+01
   5.900404e+00   2.315899e+01
  -1.035737e+01  -2.471447e+01
   3.245600e+01  -4.894321e+01
   1.318684e+01   4.811712e+01
  -5.366234e-02   7.662097e+01
  -6.386930e+01   4.895071e+01
  -1.626363e+01   3.395011e+00
  -3.384851e+01  -2.897350e+00
   4.521231e+00   3.330341e+01
   3.436050e+01  -3.977775e+00
  -9.944895e+00   1.054705e+01
  -5.346857e+01  -3.485526e+01
   3.736812e+01   1.179236e+01
   1.429777e+01   4.939929e+00
  -1.214043e+01   6.299130e+01
  -5.565731e+01   2.415854e+01
  -5.755151e+01  -2.271921e+01
  -1.564297e+01  -1.468529e+01
   6.669540e+00  -5.450380e+01
  -3.434031e+01   2.362047e+00
   3.075948e+01   7.578254e+00
  -8.178904e+00   2.061583e+01
  -3.081061e+01   1.477535e+01
   2.342109e+01   1.683958e+01
   1.872204e+01  -8.594198e+00
