
 $NMID
 id='ANONYMOUS ', fmtdat='(2E16.6)'
 volume=1.0
 tramp=1.0
 $END
  -2.610091e+02  -3.416349e+01
  -1.032299e+02  -7.849015e+01
  -1.062830e+00  -5.149262e+01
   5.549135e+01  -8.370041e+01
   6.660728e+00   4.120628e+01
  -4.439948e+01  -1.216453e+02
  -3.782614e+00  -2.604234e+00
   3.291280e+00   4.286341e+01
   5.907199e+01  -3.510012e+01
   2.659018e+01   1.587889e+01
  -6.186657e+00   6.483292e+01
   2.555969e+01   8.157584e+01
   3.015314e+01  -4.205977e+01
  -5.422948e+01  -4.426683e+01
  -1.118308e+01  -4.054242e+01
   1.201429e+01   3.072740e+01
  -1.997495e+01   8.403077e+01
  -1.520876e+01   4.043033e+01
   1.367227e+00   2.031664e+00
  -4.294826e+01  -2.987988e+01
   3.982392e+00   3.614054e-01
  -2.230896e+01  -3.422020e+01
   5.915127e-01  -1.102305e+01
  -6.486875e+01   1.329478e+00
  -3.924618e+01  -5.537421e+01
   1.442728e+01  -1.003502e+02
   7.369783e+01   1.416967e+01
   3.307021e+01   4.990825e+00
   4.065903e+01  -2.735614e+00
  -6.277069e+01   1.019221e-01
   1.410933e+01  -4.981808e+01
  -2.547492e+01  -7.228699e+00
   8.946668e+00   3.916366e+01
   2.753993e+00  -3.864880e+01
   3.602046e+01   4.798371e+01
  -4.241066e+01   3.424397e+01
  -1.347622e+01  -3.068796e+01
   2.191090e+00  -5.489391e+01
   4.354023e+00  -6.372024e+01
   4.977058e-01   1.209044e+02
  -5.978689e+01   4.691302e+01
  -4.631029e+01  -8.198546e+00
  -3.997647e+01  -8.434434e+00
  -2.906197e+01  -3.103813e+01
  -1.745253e+01   1.321763e+01
  -3.378351e+01   3.404549e+01
  -1.899927e+01  -1.297992e+01
  -5.962869e+00  -3.247000e+01
  -7.057221e+01   2.004066e+01
   2.627019e+01  -1.246075e+01
   3.084594e+01  -5.266890e+01
   5.565327e+01  -6.618347e+01
  -3.990458e+01  -9.039573e+00
  -1.514174e+01   4.570126e+01
   2.011987e+01   5.002832e+01
  -1.697082e+01  -3.989378e+00
  -2.845687e+01   3.430720e+01
  -4.379567e-01   2.268330e+01
   1.558548e+01   4.312158e+01
  -6.563914e+00  -2.456758e+01
  -1.711993e-01  -1.717863e+01
   2.035814e+01  -8.747259e+00
   5.294152e+01   2.556571e+00
   3.194757e+01   7.578428e+00
   8.716186e+01  -9.154467e+00
   1.444599e+00   7.974256e+01
  -2.631391e+01   2.223376e+00
  -2.122713e+01  -1.157125e+01
   4.078779e+01  -8.545569e+01
   1.977326e+01   2.529241e+01
  -5.171926e+01  -1.459802e+01
  -5.458605e+01  -7.506757e+00
   2.014897e+00  -4.998867e+01
   1.311864e+01  -7.934534e+00
   5.465658e+01  -2.090020e+01
   2.956103e+01   2.303352e+01
   9.998925e+00   1.563881e+01
  -1.468414e+01  -9.446380e+00
   4.749006e+01  -2.114296e+01
  -1.885147e+01  -7.779356e+00
   5.658081e+01   3.220888e+00
   2.715729e+01   9.971784e+00
   8.063732e+01   1.311102e+01
  -3.434162e+00   5.800119e+01
   9.728106e+00   7.774549e+01
   1.056028e+01  -6.462328e+01
  -1.553097e+01   2.980570e+01
  -1.358488e+01   3.668818e+01
  -1.115084e+01  -1.920171e+01
  -6.246535e-01   1.185488e+01
   3.051837e+01  -8.217604e+00
   6.222700e+01   2.375180e+01
   2.865153e+01   2.663599e+01
   5.496783e+01  -4.348266e+00
   1.632232e+01   1.997952e+01
  -3.004401e+00   4.131470e+01
  -2.027200e+01  -2.390389e+01
   7.420633e+01   5.624485e+01
  -2.034677e+01  -2.646882e+01
   1.470028e+01   5.642544e+01
   4.931417e+00   3.215791e+01
   5.415695e+01   2.574898e+01
   1.010400e+01  -6.722088e+01
  -8.815339e+00  -3.842620e+00
   4.198450e+01   6.348895e-01
  -4.105333e+01   3.183995e+01
  -3.438211e+01   5.290142e+01
   9.655941e+00   1.126739e+01
   7.058464e+00  -1.436481e+01
   4.060611e+01   4.665757e+00
   1.607513e+00  -1.999411e+01
  -6.581335e+01   5.072248e+01
   2.611702e+01   3.613639e+01
   1.461213e+01  -4.399929e+01
   2.061652e+01  -2.532916e+01
  -3.595150e+00  -2.972846e+01
  -1.214636e+01  -5.731496e-01
  -4.315867e+01   1.168824e+01
   4.703245e+01   1.272783e+01
  -1.989609e+01   2.423640e+01
   2.115796e+01  -1.013563e+01
   7.771759e+01   5.634378e+01
   1.894348e+01  -2.730484e+01
  -2.518381e+01   8.627279e+00
  -3.541206e+01   6.884561e+01
  -1.787865e-01   1.043729e+01
  -1.035323e+01  -1.478426e+01
  -6.216998e+01   4.668240e+01
   3.167884e+01   1.964394e+01
  -4.992574e+00   1.737197e+01
  -1.457438e+01   1.473928e+01
  -2.919852e+01   6.290943e+00
  -1.808193e+01  -5.741938e+01
   2.589429e+01   1.164345e+01
  -5.220278e+01  -9.972621e+01
  -1.654917e+01   1.607372e+01
   3.770111e+00   4.762243e+00
   4.430793e+01   8.753435e+00
   5.590124e+00  -1.179735e+01
   4.186965e+01   8.580228e+01
   2.491292e+01   4.186122e+01
   3.922426e+00   4.338794e+01
   2.636350e+01  -1.193508e+01
  -8.388909e+01  -5.276441e+01
   1.017285e+01   2.825558e+01
   1.656974e+01   6.978411e+01
   1.549736e+01   1.311132e+01
   4.791489e+01   5.778463e+01
   4.035436e+01   6.293175e+00
   7.675895e+00  -4.066109e+01
  -1.664934e+01   3.078612e+01
  -3.314945e+01   1.617218e+01
   8.649567e+01   3.452503e+01
   4.698417e+01  -5.858724e-01
   3.808545e+01  -2.107578e+01
  -4.698555e+01  -6.616541e+01
  -6.876184e+01   2.484003e+01
  -1.628025e+01   6.485182e+00
  -7.416884e+00   3.672119e+01
  -1.958585e+00  -5.765269e+01
  -2.790724e+00  -3.967685e+01
  -2.711769e+01   1.291918e+01
  -7.247462e+00  -1.819465e+01
  -2.770950e+01  -3.533018e+01
   1.785040e+01  -1.241962e+01
   1.231326e+01  -1.787428e+01
   8.588738e+00  -3.296193e+01
  -7.236905e+00  -6.936958e+00
  -4.565473e+01  -2.418052e+01
   1.259062e+01   1.526065e+01
  -2.807152e+01  -1.542824e+01
  -5.903898e+01   4.725212e+01
  -4.816971e+01   1.980569e+01
   1.529160e+00  -1.956694e+01
   1.305195e+01  -4.349346e+01
  -5.863665e+00  -1.893626e+01
   4.250962e+00  -6.083476e+00
  -7.910377e+01  -7.250446e+00
   6.397594e+01  -1.556158e+01
   5.301344e+01  -1.171441e+01
   2.712502e+01   2.060488e+01
   1.165029e+01   1.153998e+01
  -5.324723e+00  -2.475755e+01
   3.898778e+00   2.103247e+01
  -1.523047e+01  -8.780953e+00
   1.207235e+01  -3.438342e+01
   1.875766e+01  -2.054814e+01
   3.323663e+01   1.547386e+00
   9.975764e+00   4.079483e+01
   3.123583e+01  -7.142711e-01
   8.541272e+00  -4.216653e+01
   4.278253e+01   4.307585e+01
  -2.980691e+01   6.571047e+01
  -2.988235e+01  -4.507603e+01
  -2.372950e+00  -2.588126e+01
   1.415055e+01   2.854898e+01
   9.657988e+00  -2.022931e+01
   2.953115e+01  -3.046641e+01
  -1.238314e+01   1.529345e+01
   2.021182e+01  -1.375974e+00
  -4.935051e+01  -1.842175e+01
  -2.477849e+01   5.368223e+01
   2.056336e+01   3.693147e+01
  -2.156348e+00   4.642281e+01
  -7.638948e+00   1.349717e+00
   2.929712e+01  -3.415161e+01
   6.755316e+00   5.584937e+01
   7.848513e-01   1.479734e+01
  -3.469665e+01  -5.032122e+01
   2.119885e+01  -3.252666e+00
  -6.509193e-01  -1.777110e+01
  -5.793993e+01   1.047777e+01
   2.627387e+01   1.682447e+01
  -2.791422e+01   2.986203e+01
  -1.870636e+01   1.451999e+01
  -7.835910e+00  -6.234944e+00
   3.202676e+01  -2.219783e+01
   7.824598e-01  -5.245172e+00
  -2.115976e+01  -1.273156e+00
  -5.472319e+01  -2.878880e+01
  -5.271085e+01  -3.239383e+01
   1.645351e+01   1.042355e+01
   3.805365e+01  -2.711510e+01
   2.752214e+01  -5.374452e+00
   1.308443e+01   3.776234e+01
   7.933291e+00  -1.025106e+01
  -6.642880e+01   6.176283e+00
   5.232913e+01   3.251849e+01
   1.947064e+00   5.741063e+00
   4.179342e+01   5.838471e+00
   3.199216e+01  -5.474877e-01
  -1.175644e+01  -4.039162e+01
  -3.633433e+01  -2.050183e+01
  -6.241534e+01  -2.897068e+01
  -1.951404e+01  -3.676852e+01
   8.738771e+00   4.439736e+01
   7.421554e+00   4.484701e+01
   7.768861e+00   8.039234e+00
  -1.539205e+01  -2.666345e+01
   1.431789e+01  -2.445797e+01
  -5.860539e+01   1.428564e+01
  -1.157041e+01   7.131457e+01
   2.135627e+01   1.614759e+01
   1.701298e+01  -1.224543e+00
  -2.001939e+00  -4.613362e+01
   3.594762e+01  -3.952160e+01
   2.817648e+01  -7.176588e+00
   3.057977e+01   5.147443e+01
  -2.685874e+01  -1.814893e+01
  -2.042030e+00  -5.713160e+00
  -2.153132e+01  -2.028867e+01
   3.812604e+01  -6.352430e+00
  -3.744811e+01  -5.759125e+01
  -2.236432e+01  -9.172812e+00
   1.517502e+01   4.891041e+00
  -5.736997e+01  -2.693744e+01
   9.898514e-01  -4.858370e+01
   1.935214e+01  -2.660974e+01
   1.807735e+01  -5.539281e+01
   3.056220e+01   1.817417e+00
   1.295167e+01  -5.207999e+01
   6.708034e+00  -1.688858e+01
   3.719087e+01  -3.456867e+01
   3.080813e+01  -2.961523e+01
   1.049630e+01   5.221816e+01
   2.249156e+01   3.115771e+01
  -1.083616e+01  -2.670664e+01
  -5.171044e+01  -1.332182e+01
   5.489748e+01  -9.953706e+00
  -3.951997e+01   1.781620e+01
   1.376120e+01  -2.511637e+01
   2.571213e+01   9.526669e+01
  -1.081304e+01  -1.406151e+01
  -1.490965e+01   2.461679e+01
  -2.509625e+01   1.201248e+01
   3.711769e+01   5.070796e+01
   2.335190e+00  -4.727435e+01
  -3.343680e+00  -8.298845e+00
   1.699178e+01   2.080280e+01
  -6.089309e+00   9.230399e+01
  -3.086789e+01  -9.136745e+00
   2.067360e+01  -3.929528e+01
  -2.602058e+00   2.429602e+01
  -2.417538e+01  -5.137155e+01
   9.203577e+00   5.243853e+01
  -1.296059e+00   9.560136e+00
   1.002401e+01   1.270453e+01
  -6.447177e-01   2.930546e+01
  -1.629605e+01  -4.740854e+01
  -3.091008e+00  -1.880972e+01
  -3.023733e+01   2.117596e+01
   2.504856e+01  -1.835444e+01
   3.876345e+01  -5.691442e+00
  -1.182351e+01  -3.344206e+01
  -2.326881e+00  -8.881542e+01
   4.230765e+01   5.518921e+01
   2.667122e+00  -5.543892e+01
   5.162750e+00   1.147533e+01
  -2.498584e+01  -2.904116e+01
  -1.849067e+01  -8.182786e+00
  -3.930568e+01  -4.177827e+01
   2.704362e+01   1.506972e+01
  -6.613722e+01  -2.542379e+01
   9.545751e+00   1.371000e+01
   6.371989e+00  -4.380955e+01
  -3.942913e+01  -1.185099e+01
  -4.546911e+01  -8.808705e+00
  -2.578560e+01  -2.750957e+01
  -4.000566e+01  -5.592417e+01
   2.143498e+00  -3.809814e+01
   2.574875e+01   4.132609e+01
  -2.789136e+00  -6.188601e+00
  -2.722403e+01   8.593390e-01
  -5.967858e+01   1.426508e+01
  -6.184751e+01  -2.030568e+01
   2.342590e+01  -2.082389e+01
  -1.991987e+01  -8.967642e+00
  -8.491073e+01   3.375517e+01
  -2.426706e+01   2.568625e+01
   2.176550e+01   4.154633e+01
