
 $NMID
 id='ANONYMOUS ', fmtdat='(2E16.6)'
 volume=1.0
 tramp=1.0
 $END
   2.167399e+02  -3.903190e+01
   1.574115e+02   6.874279e+01
   7.027330e+01   1.949452e+02
  -6.459883e+01   1.891577e+02
  -1.370417e+02   2.045141e+02
  -7.553757e+01   1.029559e+01
   4.179950e+01  -1.763484e+01
   6.246500e+01  -1.562532e+01
   1.342669e+01   4.849556e+00
  -5.217133e+01   7.372638e+01
  -6.148510e+01  -1.363216e+01
   1.667885e+01  -6.789523e+01
  -1.003438e+00  -2.185417e+01
   6.031661e+01   1.650669e+01
   3.528535e+00   4.422114e+01
   1.482323e+01   5.064773e+01
  -2.332850e+01  -1.778156e+01
   5.264004e+00  -6.435688e+01
   7.282901e+01  -3.169452e+00
   5.492294e+01   3.245843e-01
   8.130627e+00  -3.326246e+01
   2.529039e+01   2.785928e+01
  -2.688925e+01  -1.581114e+01
   3.625614e+01   3.015724e+01
   2.339337e+01   3.661463e+01
  -1.654307e+01   5.017134e+01
  -5.297418e+01  -8.862538e+00
  -4.151164e+01  -5.145388e+01
  -1.732357e+01   2.774991e+01
   5.044847e+00   4.132757e+00
   7.167255e+01   1.448247e+00
   7.169912e+01   4.954606e+01
  -2.568245e+01  -2.734260e+01
  -2.842324e+01  -2.772366e+00
   2.693615e+00   3.824236e+00
  -5.962108e+01  -9.117383e+00
  -1.712970e+01   4.003403e+01
  -5.751485e-02  -3.415465e+01
  -3.548978e+00  -6.523472e+01
   1.849468e+01  -3.164760e+01
   2.299005e+01  -2.450638e+01
   5.333908e+00  -4.503862e+01
   2.057626e+01   5.812779e+00
   2.015778e+01  -3.985023e+01
  -1.623303e+01  -2.751945e+01
  -1.415602e+01  -7.682313e+00
   1.416163e+01  -1.228677e+01
   2.852114e+01  -2.279067e+01
   5.727983e+01   2.147266e+01
  -6.496729e+00   3.525112e+01
   3.808192e+01   2.630758e+01
  -2.476726e+01   3.643518e+00
   8.776265e+00  -6.649158e+01
   2.587637e+01   3.183975e+00
  -1.330029e+01   8.863541e+00
  -1.807277e+01   2.477632e+01
   1.428672e+01  -1.316727e+01
  -6.325178e+01   6.510282e+01
   9.717111e+00   2.501167e+01
   3.012167e+01   9.590706e+00
   2.997883e+01   5.309874e+01
   1.271698e+01   4.412251e+01
  -5.082028e+01  -1.700847e+01
  -3.921737e+01  -4.001801e+01
  -3.720017e+01  -3.583178e+01
   4.971428e+01  -8.110239e+01
   7.174597e+00   3.358860e+01
   7.078881e+01   1.140922e+01
   4.295741e+01   6.733355e+01
  -3.255388e+01   5.855555e+01
   2.545273e+01   6.422658e+01
  -3.478520e-01  -2.349749e+00
  -6.446569e+01  -3.844918e+01
  -1.372010e+01  -3.021843e+00
   1.643089e+01  -4.127945e-01
  -2.001241e+01  -5.248769e+01
   6.240616e+01   2.023877e+01
   3.184730e+01   2.082513e+01
   6.271233e+00   3.186064e+01
   1.482721e+00  -2.176446e+01
  -4.191812e+01   1.624369e+01
  -4.026774e+01   2.156629e+01
  -1.107309e+01  -2.545432e+01
  -2.050971e+01  -4.016133e+00
  -4.429528e+00  -3.553099e+01
  -2.613163e+01   4.331655e+01
   2.044342e-01   9.409923e+00
   3.586995e+01  -1.633188e+01
   4.959397e+01   1.577468e+01
   3.949278e+01   2.062486e+01
   1.077968e+01   5.432072e+01
  -7.970920e+00   2.325554e+01
  -2.613572e+01   8.074959e+01
   1.007478e+01   4.308038e+01
   1.319965e+01  -8.510362e+01
  -8.942395e+00   2.667449e+01
   2.068308e+01  -3.310656e+00
   3.100245e+01   1.726473e+01
  -1.231595e+01   1.319520e-01
   4.499892e+01   2.092080e+01
  -1.761975e+01  -2.774941e+01
  -5.496738e+01   1.098325e+01
   8.391540e+00   3.005157e+01
  -2.667500e+01  -7.059366e+00
  -2.073165e+01  -3.969719e+01
   2.815687e+01  -6.287147e+00
   3.760331e+01  -2.635812e+01
   5.733057e+01   3.622629e+01
   3.573197e+01   8.343503e+01
  -1.206739e+01   1.278363e+01
  -3.910202e+01   7.161341e+00
  -4.268956e+01  -9.312469e+00
  -2.910106e+01   5.348362e+00
  -2.424304e+01  -1.005393e+01
  -1.259626e+01  -1.251983e+01
  -8.767468e+00   2.439381e+01
   2.173340e+01  -2.000809e+00
   2.447453e+01   1.479083e+01
   7.488837e+00   2.510677e+00
  -6.277461e+00   1.232896e+01
  -2.608457e+01  -2.791722e+01
  -7.633671e+01   1.429918e+01
  -1.939217e+01  -6.434984e+01
  -2.567338e+01  -8.866845e+00
   6.641491e+01   1.842934e+01
   2.824803e+01   4.285142e+01
   6.231960e+00  -8.985083e+00
   2.211694e+01  -2.350629e+01
   5.003351e+01  -3.935165e+01
  -3.760641e-01  -7.639983e+00
  -1.755043e+01  -3.368827e+01
  -9.183661e+00  -4.141545e+00
   1.708576e+01   2.234000e+01
  -1.093960e+01  -3.694064e+01
   4.571781e+00  -1.523539e+01
  -6.134881e+01  -2.053551e+01
   3.556049e+01   4.985681e+01
  -8.602287e+00  -1.188398e+01
  -2.601600e+01  -6.232696e+01
  -3.130019e+01   2.269025e+01
   1.421182e+01   8.573513e+00
   4.352555e+01  -2.102956e+01
  -2.995064e+01   4.220104e+01
   4.080990e+01   1.712682e+01
   3.152192e+00   1.864129e+01
   3.293293e+01  -5.441577e+01
   3.195888e+01   6.748183e+01
   2.594439e+01  -1.781536e+01
  -3.768716e+01  -5.524380e+01
  -6.854821e+01   3.180068e+01
   1.507829e+01   1.443191e+01
  -6.848738e+01   1.264891e+00
   4.033962e+01  -5.959253e+01
  -1.502120e+01   3.361490e+01
  -4.849500e+01   3.283703e+01
   1.272828e+01  -2.145055e+01
   7.159675e+01   6.871981e+01
  -7.763593e+01   4.104406e+01
   2.961838e+00  -2.766069e+01
  -7.399657e+00   2.259486e+01
   1.282834e+00  -3.003926e+01
  -4.729253e+01  -1.967840e+00
   2.417102e+01  -3.461379e+01
  -1.687317e+01  -4.166255e+01
  -1.416236e+01  -2.987219e+01
   1.256610e+01  -1.491690e+01
  -1.400649e+00  -2.368488e+01
  -2.742687e+01   4.224532e+01
  -1.414586e+00   3.187591e+01
  -5.554535e+01   5.209622e+01
  -9.038135e+00  -4.432500e+01
   4.464143e+01  -5.432355e+01
   5.314354e+01  -4.987704e+01
   7.960606e+01  -3.515600e+01
   3.408837e+01   5.246843e+01
   2.379916e+01  -7.761926e+00
   2.149222e+01  -1.718207e+01
   7.845761e+00  -6.316096e+00
   1.178296e+01  -6.647454e-01
   8.579096e+01  -2.956905e+01
  -1.172368e+01   4.321975e+01
  -3.472646e+01  -4.610272e+01
   4.491485e+01  -4.368870e+01
   7.632312e+00   3.009561e+01
   5.022584e+01   3.235369e+01
   4.259459e+01  -1.687584e+01
  -3.445504e+01  -1.239861e+01
   1.352580e+01   3.299287e+01
  -7.933326e+00   2.602985e+01
  -1.797311e+01   1.794265e+01
   2.144015e+01  -1.550849e+01
  -4.587413e+01   3.323174e+00
   5.725470e+01   5.096470e+01
  -3.980519e+01  -5.866935e+01
  -3.384047e+01  -1.751755e+01
  -1.704485e+00   3.432361e+01
   3.169402e+01  -6.291751e+00
  -5.276455e+01   5.162672e+01
   6.223547e+00  -4.347451e+00
  -7.664868e+01  -2.581673e+01
   1.264000e+01  -1.910117e+01
  -8.272855e+00   1.881737e+01
  -3.092403e+01   7.705328e+00
   3.728702e+01  -7.829031e+00
   5.492579e+01   6.926668e+00
  -3.277027e+01  -4.985885e+00
  -7.721425e+00  -2.320642e+00
   1.275036e+01   1.513937e+01
  -4.790734e+01  -4.942416e+01
  -5.947655e+00  -4.053706e+01
  -6.358435e+01  -1.753778e+01
   8.056826e+01  -3.691845e+01
  -9.560879e+00  -3.273647e+01
   5.486510e+01   2.579518e+00
   1.079284e+01  -1.176892e+01
   3.033964e+01   2.583560e+00
   6.242582e+01   3.892565e+01
  -1.776341e+01   1.334714e+01
  -4.402251e+00   1.282767e+00
   7.176237e+01   3.253351e+01
  -2.771123e+01  -6.629424e+00
   4.303452e+00   1.065520e+01
  -5.478875e+01  -4.853510e+01
   4.069408e-01  -4.666897e+00
  -4.115878e+01  -1.040743e+01
   2.506469e+01  -5.033048e+01
   2.255830e+01  -1.402982e+01
  -1.821399e+01  -4.551062e+01
   3.465927e+01   3.953876e+01
   5.309840e+01   2.893020e+01
  -4.687881e+01   7.475428e+00
   5.786213e+01  -5.776383e+01
  -3.844069e+01   7.942847e+00
   2.071601e+01  -2.640334e+01
   1.002191e+01   6.768023e+01
  -5.717779e+00  -4.947608e+01
  -2.203519e+00  -5.625662e+01
  -1.828283e+01   8.053960e+01
   6.311696e+01  -3.641332e+01
   1.606251e+01  -5.385295e+01
   7.286152e+00  -2.299077e+01
   7.519047e+01   1.007393e+01
   1.078583e+01  -4.508883e+01
  -1.242010e+01   1.772353e+01
   2.975335e+00   2.233242e+01
   3.827728e+01   1.929921e+01
  -1.880813e+01  -5.793660e+01
  -4.148426e+01  -1.934071e+01
  -4.830340e+01  -2.883552e+01
   5.300935e+01  -2.430028e+01
  -2.726100e+01   6.780914e+01
   4.383435e+01  -3.967400e+01
  -2.262616e+01  -2.967306e+01
   2.140145e+01   5.884293e+01
  -1.515078e+01   9.959390e+00
   1.147578e+01  -2.310310e+01
  -4.911588e+01   7.642166e+00
   3.467395e+01   1.822478e+01
  -2.158753e+01   7.531099e+00
   3.970804e+01  -4.095621e+01
   2.603092e+00   2.350271e+01
   2.352359e+01   4.402846e+01
  -4.858463e+01  -4.448275e+01
   8.313471e+00  -1.246875e+01
   2.286088e+01   2.646562e+01
  -2.673188e+01  -6.583711e+00
   4.833980e+01  -4.343392e+01
   4.431097e+01  -6.481576e+00
   9.088594e+00  -2.150415e+01
   1.695921e+01   2.385418e+01
   3.038584e+01   3.091011e+01
   9.381803e+01   2.688824e+01
  -4.666221e+01  -5.478333e+01
   3.141492e+01   5.215419e+01
  -1.400375e+00  -4.697512e+01
  -5.563023e+01   6.226622e+01
   3.253303e+01   1.657580e+01
  -3.152341e+01   2.689947e+01
  -4.286933e+01  -2.261019e+01
   9.017724e+00   2.473667e+01
  -7.956437e+00  -6.157928e+01
   3.893126e+01  -2.589830e+01
  -5.026080e+01  -2.336964e+01
  -3.012685e+01  -4.956101e+01
   2.018324e+00  -2.269891e+00
  -1.711238e+01  -1.229902e+01
  -4.228181e+01   3.564110e+01
  -5.729661e+01   4.398576e+01
   2.951208e+01  -9.730300e+00
   2.107409e+01   1.938754e+01
   3.550931e+01  -6.160492e+00
  -3.089495e+01   4.439915e+01
  -2.111028e+01  -1.362127e+01
  -1.855807e+01  -6.246366e+00
  -7.842905e+01   2.886058e+01
   6.335473e+01   3.619729e+01
   1.878539e+01  -5.865419e+01
  -4.425701e+01  -2.531692e+00
   2.849537e+01   6.479543e+01
  -3.800711e+01   2.214503e+01
  -5.301372e+01  -8.009762e+01
   1.006682e+01  -7.230851e+01
   3.433790e+00   3.981766e+01
   4.867165e+00   7.261301e+01
  -3.587469e+01  -4.544874e+01
  -2.810648e+01  -4.128944e+01
  -1.827760e+01   9.008873e+00
  -2.726303e+01   3.433441e+01
  -8.122856e+00   2.656072e+01
  -4.462674e+01   2.917021e+01
   1.878998e+01  -2.142077e+00
  -4.904811e+01  -2.516605e+01
  -6.331226e+00  -4.943236e+01
  -3.256932e+01   1.023911e+01
   1.820159e+01  -1.452602e+01
  -1.643309e+00   1.798414e+01
   2.139179e+01  -4.873887e+00
  -2.126412e+01  -2.592898e+01
  -3.182095e+01   3.170801e+01
  -2.128001e+01  -1.382230e+01
