
 $NMID
 id='ANONYMOUS ', fmtdat='(2E16.6)'
 volume=1.0
 tramp=1.0
 $END
   3.196028e+07   1.752454e+06
   1.976609e+07   1.695672e+07
  -2.052234e+06   2.020217e+07
  -1.451302e+07   1.157860e+07
  -1.086165e+07  -1.231754e+05
   3.633134e+04  -5.520207e+06
   6.210148e+06  -1.955081e+06
   3.990094e+06   5.222384e+06
  -2.075088e+06   7.958528e+06
  -5.912267e+06   3.161773e+06
  -4.820995e+06  -4.228039e+06
  -4.145791e+05  -6.433885e+06
   3.054263e+06  -1.337572e+06
   2.219972e+06   5.196759e+06
  -2.049434e+06   5.953078e+06
  -5.157421e+06   1.573936e+05
  -3.454238e+06  -6.326495e+06
   1.898783e+06  -7.653761e+06
   6.244885e+06  -3.440713e+06
   6.195654e+06   2.066219e+06
   2.632177e+06   4.703941e+06
  -6.200403e+05   3.838462e+06
  -6.543221e+05   2.056256e+06
   1.673352e+06   2.100085e+06
   2.538465e+06   3.963200e+06
  -7.101503e+05   4.968694e+06
  -6.027788e+06   2.918284e+06
  -8.199359e+06  -1.165655e+06
  -4.562025e+06  -3.997397e+06
   1.593130e+06  -3.487454e+06
   4.405865e+06  -5.934875e+05
   1.808665e+06   2.013821e+06
  -2.670159e+06   2.267038e+06
  -4.329694e+06  -6.788022e+04
  -2.188360e+06  -3.223873e+06
   9.513796e+05  -4.361451e+06
   2.147565e+06  -2.063606e+06
   1.044813e+06   1.518972e+06
  -5.297273e+05   2.373068e+06
  -7.063110e+05  -5.486966e+05
   7.432934e+05  -3.482436e+06
   2.275966e+06  -2.362448e+06
   2.010538e+06   1.731311e+06
  -3.164600e+05   3.693735e+06
  -2.703353e+06   8.890364e+05
  -2.552271e+06  -3.544017e+06
   6.747236e+05  -4.646295e+06
   4.502773e+06  -1.336949e+06
   5.447688e+06   3.005895e+06
   2.299313e+06   4.641034e+06
  -2.471563e+06   2.828652e+06
  -4.804540e+06  -3.721163e+05
  -2.888168e+06  -2.334874e+06
   1.060410e+06  -1.849489e+06
   3.105373e+06   1.489795e+05
   1.682035e+06   1.506179e+06
  -9.975333e+05   9.505783e+05
  -1.734706e+06  -6.298540e+05
  -1.230055e+02  -1.310493e+06
   1.734365e+06  -3.634409e+05
   1.089759e+06   1.088829e+06
  -1.463479e+06   1.465942e+06
  -3.158028e+06   1.956949e+05
  -1.880280e+06  -2.042663e+06
   1.696908e+06  -3.773239e+06
   4.786373e+06  -3.436638e+06
   5.098854e+06  -6.112963e+05
   2.829133e+06   3.063520e+06
   1.769480e+05   4.955951e+06
  -9.842366e+05   4.062913e+06
  -7.988458e+05   2.061232e+06
  -7.695195e+05   1.139722e+06
  -1.742576e+06   1.306943e+06
  -2.951857e+06   7.641231e+05
  -3.004887e+06  -1.252674e+06
  -1.413784e+06  -3.105339e+06
   9.268807e+05  -2.665555e+06
   2.433170e+06   4.669238e+04
   1.939530e+06   2.724477e+06
  -3.768749e+05   3.085488e+06
  -2.846385e+06   9.599733e+05
  -3.484563e+06  -1.805151e+06
  -1.845564e+06  -3.187749e+06
   4.448771e+05  -2.700358e+06
   1.463666e+06  -1.481999e+06
   1.175919e+06  -8.705027e+05
   1.264853e+06  -9.944240e+05
   2.702517e+06  -8.272721e+05
   4.167826e+06   4.928672e+05
   3.442173e+06   2.601393e+06
   1.553577e+05   4.137640e+06
  -3.425974e+06   3.871963e+06
  -4.526753e+06   1.720699e+06
  -2.572333e+06  -1.017504e+06
   3.477075e+05  -2.461090e+06
   1.607329e+06  -1.688182e+06
   5.155082e+05   2.471490e+05
  -1.299274e+06   1.215260e+06
  -1.800921e+06   2.947381e+05
  -6.376790e+05  -1.148505e+06
   7.307757e+05  -1.146800e+06
   7.729974e+05   3.295072e+05
  -5.343203e+05   1.221124e+06
  -1.818535e+06  -8.152827e+04
  -1.672099e+06  -2.653362e+06
   1.694324e+05  -3.938763e+06
   2.627821e+06  -2.483656e+06
   3.994548e+06   6.327238e+05
   3.173330e+06   2.990006e+06
   7.096176e+05   3.107252e+06
  -1.461506e+06   1.549085e+06
  -1.747112e+06   8.792660e+04
  -5.091778e+05  -5.651742e+04
   3.727511e+05   7.640009e+05
  -3.105576e+05   1.224548e+06
  -1.696086e+06   5.456467e+05
  -1.942518e+06  -6.916939e+05
  -5.039197e+05  -1.261985e+06
   1.138122e+06  -6.525038e+05
   1.114940e+06   4.412231e+05
  -7.179889e+05   8.649423e+05
  -2.521208e+06   8.208929e+04
  -2.313720e+06  -1.389485e+06
  -4.655343e+03  -2.378766e+06
   2.446671e+06  -1.969303e+06
   2.924182e+06  -3.428915e+05
   1.211284e+06   1.194300e+06
  -8.756559e+05   1.332742e+06
  -1.372863e+06   1.206941e+05
  -6.359744e+04  -9.895367e+05
   1.521333e+06  -6.933423e+05
   1.780882e+06   7.066714e+05
   5.471101e+05   1.674070e+06
  -9.481575e+05   1.212021e+06
  -1.352211e+06  -6.296110e+04
  -4.431011e+05  -7.132509e+05
   6.897487e+05  -8.781039e+04
   6.889583e+05   1.057320e+06
  -6.693580e+05   1.421072e+06
  -2.099125e+06   4.549679e+05
  -2.044148e+06  -1.149612e+06
  -3.671575e+05  -2.107047e+06
   1.419653e+06  -1.672525e+06
   1.745588e+06  -2.846108e+05
   5.993643e+05   8.510122e+05
  -6.361088e+05   8.810784e+05
  -7.811178e+05   6.508616e+04
   1.273021e+04  -5.921903e+05
   6.831851e+05  -4.492027e+05
   4.928649e+05   1.191017e+05
  -2.657063e+05   2.266245e+05
  -6.323144e+05  -4.400064e+05
   4.180420e+04  -1.176001e+06
   1.367984e+06  -9.630070e+05
   2.147036e+06   4.127699e+05
   1.483145e+06   2.012931e+06
  -2.539751e+05   2.560468e+06
  -1.718636e+06   1.620842e+06
  -1.923027e+06  -1.222050e+04
  -1.144927e+06  -1.091178e+06
  -4.162037e+05  -1.066080e+06
  -2.993518e+05  -4.785668e+05
  -4.032310e+05  -2.494336e+05
  -4.729776e+04  -6.367615e+05
   8.389839e+05  -9.710228e+05
   1.554072e+06  -4.586729e+05
   1.268650e+06   8.005274e+05
  -1.489652e+05   1.719172e+06
  -1.821835e+06   1.250681e+06
  -2.420692e+06  -4.803555e+05
  -1.281020e+06  -2.154423e+06
   8.870911e+05  -2.434491e+06
   2.512155e+06  -1.181167e+06
   2.532188e+06   5.021992e+05
   1.267899e+06   1.386288e+06
  -6.232071e+04   1.221909e+06
  -5.757429e+05   7.572369e+05
  -4.039397e+05   7.654653e+05
  -2.829543e+05   1.171694e+06
  -6.643241e+05   1.187232e+06
  -1.253917e+06   2.655968e+05
  -1.334622e+06  -1.164979e+06
  -5.308141e+05  -1.996868e+06
   6.961405e+05  -1.492646e+06
   1.360791e+06  -2.287532e+04
   8.848492e+05   1.253946e+06
  -2.731933e+05   1.431513e+06
  -1.037026e+06   5.837758e+05
  -8.083746e+05  -4.613984e+05
  -4.532916e+04  -9.602370e+05
   3.266089e+05  -8.357451e+05
  -7.234719e+03  -5.278630e+05
  -4.040116e+05  -4.105798e+05
  -2.853891e+04  -4.236495e+05
   1.115537e+06  -2.341770e+05
   2.028196e+06   3.252311e+05
   1.669529e+06   1.018015e+06
   8.757717e+04   1.379042e+06
  -1.498253e+06   1.114457e+06
  -1.847669e+06   3.738976e+05
  -9.131853e+05  -3.258331e+05
   2.030970e+05  -4.952077e+05
   4.786360e+05  -1.084686e+05
  -3.783441e+04   3.226843e+05
  -5.311495e+05   2.292573e+05
  -4.738587e+05  -3.692569e+05
  -1.081218e+05  -8.049941e+05
   4.423001e+04  -5.156744e+05
  -1.588120e+05   1.983424e+05
  -4.053209e+05   4.297469e+05
  -3.122012e+05  -2.293931e+05
   2.331304e+05  -1.080761e+06
   9.492210e+05  -1.072773e+06
   1.257684e+06  -6.089713e+04
   7.056732e+05   9.794118e+05
  -4.559233e+05   1.048248e+06
  -1.225871e+06   1.895714e+05
  -7.366688e+05  -6.590591e+05
   7.063655e+05  -6.967882e+05
   1.725302e+06   4.022991e+04
   1.234838e+06   8.758704e+05
  -3.761679e+05   1.147807e+06
  -1.613969e+06   6.872401e+05
  -1.421278e+06  -1.071306e+05
  -2.098032e+05  -5.748240e+05
   6.674057e+05  -3.426593e+05
   3.515953e+05   2.706048e+05
  -6.925206e+05   4.709681e+05
  -1.231059e+06  -2.131777e+05
  -5.559750e+05  -1.312991e+06
   8.073340e+05  -1.730169e+06
   1.656903e+06  -8.088964e+05
   1.304882e+06   8.801111e+05
   1.586547e+05   1.933956e+06
  -8.115396e+05   1.432579e+06
  -1.002682e+06  -1.162683e+05
  -5.275669e+05  -1.259071e+06
   1.327158e+05  -1.089346e+06
   5.622722e+05  -1.282166e+05
   5.739712e+05   4.281005e+05
   2.663176e+05   1.777334e+05
   1.657896e+04  -1.291089e+05
   1.546543e+05   2.566775e+05
   4.712325e+05   1.009373e+06
   2.966124e+05   1.168880e+06
  -6.360406e+05   4.243941e+05
  -1.577971e+06  -5.263885e+05
  -1.451867e+06  -9.123721e+05
  -1.955941e+05  -7.230467e+05
   1.008689e+06  -4.192314e+05
   1.084029e+06  -2.099810e+05
   3.028860e+05   9.881651e+03
  -1.959654e+05   2.274406e+05
   6.755725e+04   2.693712e+05
   3.960195e+05   1.666112e+05
   5.527252e+03   1.506796e+05
  -8.325051e+05   1.917013e+05
  -1.095529e+06  -7.631186e+04
  -2.706169e+05  -7.304593e+05
   1.035826e+06  -1.157369e+06
   1.747672e+06  -6.660482e+05
   1.343089e+06   5.664749e+05
   2.050836e+05   1.518604e+06
  -8.244638e+05   1.395731e+06
  -1.127379e+06   4.618131e+05
  -7.048864e+05  -3.281185e+05
  -8.250960e+04  -3.829219e+05
   1.744828e+05  -4.804304e+03
  -4.874347e+04   8.973592e+04
  -3.580073e+05  -3.637526e+05
  -2.816722e+05  -8.618105e+05
   2.338895e+05  -6.906773e+05
   7.408276e+05   2.224425e+05
   6.896977e+05   1.104353e+06
  -2.890960e+04   1.087096e+06
  -8.716899e+05   1.381624e+05
  -1.040511e+06  -8.919074e+05
  -2.646026e+05  -1.160957e+06
   7.960629e+05  -6.174146e+05
   1.131089e+06   1.472304e+05
   4.815780e+05   5.968361e+05
  -3.215421e+05   6.143279e+05
  -3.297678e+05   3.524078e+05
   3.550844e+05   5.121989e+04
   7.136930e+05  -5.706456e+03
   1.123615e+05   3.137515e+05
  -8.957392e+05   7.042933e+05
  -1.269440e+06   5.980163e+05
  -7.065350e+05  -1.425899e+05
   1.401590e+05  -8.801875e+05
   5.330290e+05  -8.475704e+05
   3.657128e+05  -8.770625e+04
  -7.062652e+03   5.483412e+05
  -2.867563e+05   4.032219e+05
  -3.752134e+05  -2.494152e+05
  -2.362475e+05  -6.232626e+05
   9.483322e+04  -3.758385e+05
   4.097224e+05   9.694785e+04
   4.631658e+05   2.567505e+05
   2.509374e+05   5.894289e+04
   1.227965e+04  -9.673808e+04
  -8.080607e+04   8.483620e+04
  -1.123332e+05   4.308272e+05
  -2.367644e+05   4.948484e+05
  -4.015760e+05   7.152439e+04
  -3.652440e+05  -5.186485e+05
   2.486174e+03  -7.083802e+05
   4.862818e+05  -2.788849e+05
   6.398645e+05   3.758224e+05
   2.069210e+05   6.504541e+05
  -5.258549e+05   3.557250e+05
  -8.836953e+05  -1.501152e+05
  -4.689592e+05  -4.197349e+05
   3.272564e+05  -3.514026e+05
   6.647421e+05  -1.420391e+05
   2.018275e+05   4.793365e+03
  -4.608412e+05  -3.479947e+03
  -4.672184e+05  -1.727237e+05
   2.603588e+05  -3.590625e+05
   9.173768e+05  -2.606410e+05
