
 $NMID
 id='ANONYMOUS ', fmtdat='(2E16.6)'
 volume=1.0
 tramp=1.0
 $END
  -2.044157e+06   1.339739e+06
  -2.498027e+06  -2.125509e+05
  -1.040921e+06  -1.693796e+06
   8.045225e+05  -1.694066e+06
   1.247891e+06  -4.228024e+05
   2.787137e+05   6.045911e+05
  -6.655691e+05   4.190422e+05
  -6.194393e+05  -4.491162e+05
   4.833935e+04  -8.824787e+05
   5.086593e+05  -4.942062e+05
   4.637744e+05   1.817855e+05
   1.427577e+05   4.528638e+05
  -1.390429e+05   1.338162e+05
  -1.607985e+05  -3.918289e+05
   1.260323e+05  -5.706681e+05
   4.715581e+05  -1.946221e+05
   4.926973e+05   3.937384e+05
   1.222686e+05   6.644246e+05
  -2.864676e+05   4.683996e+05
  -4.109780e+05   1.199095e+05
  -3.154497e+05  -7.197068e+04
  -2.405302e+05  -1.393907e+05
  -2.449304e+05  -2.540433e+05
  -2.159739e+05  -4.070996e+05
  -7.972578e+04  -4.520409e+05
   1.498318e+05  -3.365762e+05
   4.011592e+05  -1.365045e+05
   5.090547e+05   5.844933e+04
   3.136137e+05   1.682726e+05
  -6.389735e+04   1.190331e+05
  -2.275959e+05  -5.146036e+04
   1.507442e+04  -1.536609e+05
   3.446027e+05  -4.557446e+04
   3.355662e+05   1.751438e+05
   3.504342e+04   2.928371e+05
  -1.512019e+05   2.351882e+05
  -6.352003e+04   1.024201e+05
   5.418026e+04   2.360627e+03
   1.291287e+03  -1.367432e+04
  -1.165230e+05   7.942711e+04
  -1.623432e+05   2.137194e+05
  -1.932868e+05   1.895718e+05
  -2.441965e+05  -9.545898e+04
  -1.548322e+05  -3.988521e+05
   1.465326e+05  -3.448729e+05
   3.772341e+05   6.793837e+04
   2.069070e+05   3.914302e+05
  -2.462149e+05   2.671550e+05
  -4.934850e+05  -1.408895e+05
  -2.615704e+05  -3.894844e+05
   2.027298e+05  -2.827898e+05
   4.514159e+05   4.375870e+03
   3.035217e+05   2.135501e+05
  -4.908558e+04   2.289327e+05
  -2.772119e+05   8.169601e+04
  -2.049686e+05  -9.122624e+04
   4.436453e+04  -1.134400e+05
   1.616673e+05   5.200732e+04
  -1.307571e+04   1.999969e+05
  -2.723661e+05   1.029559e+05
  -2.670185e+05  -1.723677e+05
   4.584378e+04  -3.180504e+05
   3.248411e+05  -1.695455e+05
   2.643971e+05   1.122700e+05
  -4.960049e+04   2.759461e+05
  -2.970364e+05   2.435480e+05
  -3.135441e+05   8.150757e+04
  -1.897290e+05  -1.357223e+05
  -6.163138e+04  -3.233748e+05
   3.604824e+04  -3.667545e+05
   1.158528e+05  -2.380910e+05
   1.703695e+05  -6.647308e+04
   1.932780e+05   2.039961e+04
   1.878986e+05   6.061847e+04
   1.333486e+05   1.487512e+05
   8.308871e+03   2.283266e+05
  -1.354689e+05   1.497577e+05
  -1.886109e+05  -7.860814e+04
  -1.010303e+05  -2.522890e+05
   5.988270e+04  -2.190983e+05
   1.837237e+05  -4.709747e+04
   2.109676e+05   1.010553e+05
   1.497248e+05   1.586460e+05
   5.031340e+04   1.610216e+05
  -2.619216e+04   1.474816e+05
  -6.295503e+04   1.317403e+05
  -1.174675e+05   1.167194e+05
  -2.381720e+05   7.525266e+04
  -3.439823e+05  -4.106971e+04
  -2.721953e+05  -2.159618e+05
   6.035800e+03  -3.307201e+05
   2.898544e+05  -2.766582e+05
   3.441999e+05  -8.645651e+04
   1.571906e+05   9.504718e+04
  -6.319981e+04   1.540869e+05
  -1.254275e+05   8.825162e+04
  -2.452663e+04  -2.168969e+04
   1.048537e+05  -7.485666e+04
   1.352645e+05  -2.153774e+04
   4.532166e+04   7.326140e+04
  -6.828877e+04   7.365018e+04
  -6.941141e+04  -5.230451e+04
   7.564578e+04  -1.395070e+05
   2.268509e+05  -6.953082e+03
   1.947577e+05   2.759743e+05
  -4.504955e+04   4.184119e+05
  -3.063069e+05   2.423845e+05
  -3.811269e+05  -1.023818e+05
  -2.370046e+05  -3.166450e+05
  -1.263047e+04  -2.749985e+05
   1.316902e+05  -1.027514e+05
   1.317911e+05   1.419257e+04
   3.967557e+04   7.870823e+03
  -2.591897e+04  -6.332307e+04
   1.975446e+04  -1.013833e+05
   1.311989e+05  -5.089271e+04
   1.638306e+05   5.318727e+04
   4.776423e+04   1.081775e+05
  -9.813751e+04   5.100601e+04
  -9.133479e+04  -5.513999e+04
   8.272385e+04  -8.047694e+04
   2.342347e+05   2.128320e+04
   1.847293e+05   1.602916e+05
  -3.398841e+04   2.131702e+05
  -2.265099e+05   1.417794e+05
  -2.407568e+05   6.100551e+03
  -9.643020e+04  -9.804715e+04
   6.203321e+04  -1.028141e+05
   1.016325e+05  -1.642621e+04
   5.537519e+03   6.760431e+04
  -1.204096e+05   4.813996e+04
  -1.450034e+05  -6.626727e+04
  -3.873039e+04  -1.503757e+05
   9.455169e+04  -1.065875e+05
   1.264990e+05   1.308282e+04
   4.048507e+04   7.144528e+04
  -5.577595e+04   1.256634e+04
  -4.964328e+04  -8.313242e+04
   5.972498e+04  -1.034352e+05
   1.633853e+05  -2.017162e+04
   1.507912e+05   1.011600e+05
   1.854531e+04   1.679155e+05
  -1.208557e+05   1.292983e+05
  -1.453433e+05   1.574450e+04
  -4.719075e+04  -7.659068e+04
   5.909060e+04  -7.043038e+04
   6.378494e+04   8.593765e+03
  -1.823777e+04   5.824077e+04
  -7.626563e+04   2.306187e+04
  -4.063581e+04  -3.880938e+04
   4.092234e+04  -3.486586e+04
   6.701374e+04   4.195709e+04
  -4.422032e+03   1.049025e+05
  -1.169092e+05   7.333504e+04
  -1.699646e+05  -4.561522e+04
  -1.053256e+05  -1.677805e+05
   4.057280e+04  -2.017330e+05
   1.592805e+05  -1.178950e+05
   1.645043e+05   2.338869e+04
   7.716672e+04   1.148209e+05
   6.151852e+02   9.987846e+04
   4.200195e+02   3.038478e+04
   3.212219e+04   4.187454e+03
   9.819731e+03   4.555090e+04
  -7.479240e+04   7.765223e+04
  -1.364587e+05   2.491638e+04
  -9.542101e+04  -8.547252e+04
   3.558038e+04  -1.472997e+05
   1.638521e+05  -8.789182e+04
   1.932513e+05   5.981478e+04
   9.187220e+04   1.874166e+05
  -8.271881e+04   1.998400e+05
  -2.142852e+05   8.876420e+04
  -2.133542e+05  -6.016899e+04
  -9.684961e+04  -1.382465e+05
   2.735438e+04  -1.115398e+05
   6.942950e+04  -4.828896e+04
   4.100557e+04  -3.579266e+04
   1.995954e+04  -7.673730e+04
   4.980179e+04  -9.050953e+04
   9.601672e+04  -1.833705e+04
   9.523838e+04   9.861554e+04
   2.666279e+04   1.601565e+05
  -6.610619e+04   1.112387e+05
  -1.110772e+05  -8.421836e+03
  -6.874584e+04  -1.076734e+05
   2.783879e+04  -1.216531e+05
   9.549225e+04  -5.434780e+04
   7.951657e+04   3.575024e+04
   1.101063e+04   8.680417e+04
  -2.966773e+04   8.121230e+04
  -8.119634e+03   5.041782e+04
   2.454129e+04   3.314444e+04
  -2.797710e+03   3.204739e+04
  -9.060961e+04   1.714309e+04
  -1.595984e+05  -3.082260e+04
  -1.307773e+05  -9.059736e+04
  -7.825511e+03  -1.180093e+05
   1.196822e+05  -8.897731e+04
   1.552919e+05  -2.303686e+04
   8.482268e+04   3.243526e+04
  -1.164018e+04   4.157599e+04
  -4.332836e+04   1.041353e+04
  -1.909604e+03  -1.881551e+04
   4.223057e+04  -9.182703e+03
   3.401323e+04   3.091474e+04
  -2.887152e+03   5.475278e+04
  -1.041729e+04   3.088797e+04
   2.135888e+04  -1.520744e+04
   4.596095e+04  -2.542386e+04
   2.469939e+04   2.202427e+04
  -3.101379e+04   7.946779e+04
  -8.050902e+04   7.784709e+04
  -8.961529e+04   6.062182e+03
  -4.500978e+04  -7.031285e+04
   3.384520e+04  -7.678730e+04
   8.616975e+04  -1.043367e+04
   4.948192e+04   5.654315e+04
  -6.225406e+04   5.309796e+04
  -1.430715e+05  -1.893064e+04
  -9.750572e+04  -9.145940e+04
   4.424624e+04  -1.004017e+05
   1.481685e+05  -4.331835e+04
   1.217670e+05   2.655565e+04
   1.119205e+04   5.308530e+04
  -6.003782e+04   2.462397e+04
  -2.814781e+04  -1.979601e+04
   5.432064e+04  -2.568266e+04
   8.720781e+04   2.713969e+04
   2.717383e+04   9.906243e+04
  -7.568863e+04   1.174822e+05
  -1.307165e+05   4.336477e+04
  -9.134256e+04  -7.998878e+04
   5.998193e+03  -1.524341e+05
   8.116159e+04  -1.073212e+05
   8.502938e+04   1.766524e+04
   3.385033e+04   1.101890e+05
  -2.221241e+04   9.475391e+04
  -4.844578e+04   9.027701e+03
  -4.181907e+04  -4.527453e+04
  -1.903664e+04  -2.387954e+04
  -3.896067e+03   1.332045e+04
  -1.232910e+04  -1.007890e+04
  -2.983082e+04  -7.903984e+04
  -1.418986e+04  -1.035443e+05
   5.271608e+04  -3.836110e+04
   1.199111e+05   5.617548e+04
   1.087351e+05   9.212641e+04
   1.133060e+04   5.910032e+04
  -8.379888e+04   1.718746e+04
  -9.040497e+04   5.447440e+03
  -2.644579e+04   3.786099e+03
   1.724373e+04  -1.322464e+04
  -1.001830e+03  -3.118911e+04
  -2.709773e+04  -2.657432e+04
   2.294846e+03  -8.461826e+03
   6.565549e+04   2.510236e+03
   8.165220e+04   1.464212e+04
   1.298670e+04   4.552305e+04
  -8.702760e+04   7.141899e+04
  -1.331166e+05   4.154982e+04
  -9.153079e+04  -4.542038e+04
  -7.825877e+02  -1.164743e+05
   7.195761e+04  -1.030879e+05
   8.516947e+04  -2.502283e+04
   4.731195e+04   3.394098e+04
   2.335099e+03   2.648866e+04
  -1.038893e+04  -1.019063e+04
   9.778382e+03  -1.105362e+04
   2.856924e+04   3.461176e+04
   1.571800e+04   7.274411e+04
  -2.244239e+04   4.924830e+04
  -5.000639e+04  -2.673214e+04
  -3.688959e+04  -8.752824e+04
   1.296991e+04  -7.391400e+04
   6.162077e+04   4.091929e+03
   6.439672e+04   7.690023e+04
   9.656774e+03   8.610412e+04
  -6.067637e+04   3.789251e+04
  -8.245483e+04  -1.726985e+04
  -3.665996e+04  -4.364464e+04
   2.206107e+04  -4.320080e+04
   2.465247e+04  -3.091139e+04
  -2.611538e+04  -1.537377e+04
  -5.443563e+04  -7.880957e+03
  -6.809727e+03  -2.208248e+04
   7.610103e+04  -4.720729e+04
   1.069850e+05  -4.375776e+04
   5.728760e+04   7.574481e+03
  -1.528344e+04   6.521467e+04
  -4.319178e+04   6.680107e+04
  -2.125883e+04   9.832850e+03
   9.427522e+03  -3.901285e+04
   2.170089e+04  -2.605958e+04
   2.009278e+04   2.469269e+04
   1.240612e+04   4.896073e+04
  -4.671055e+03   2.452896e+04
  -2.761287e+04  -1.144039e+04
  -3.765301e+04  -1.988477e+04
  -2.312518e+04  -5.363291e+03
   2.687240e+03   2.344105e+03
   1.811426e+04  -9.097645e+03
   1.939517e+04  -2.384540e+04
   1.857814e+04  -2.030506e+04
   2.006128e+04   5.792408e+03
   1.287281e+04   3.604243e+04
  -1.070584e+04   4.240949e+04
  -3.725002e+04   1.282611e+04
  -4.003409e+04  -3.090106e+04
  -6.594183e+03  -4.890174e+04
   4.174915e+04  -2.469233e+04
   6.226659e+04   1.570773e+04
   3.170179e+04   3.413604e+04
  -2.283912e+04   2.273188e+04
  -4.524770e+04   5.367415e+03
  -1.277576e+04   3.092903e+03
   3.186178e+04   1.341986e+04
   2.741578e+04   2.242132e+04
  -2.945227e+04   2.038331e+04
  -7.519342e+04   1.842042e+03
