
 $NMID
 id='ANONYMOUS ', fmtdat='(2E16.6)'
 volume=1.0
 tramp=1.0
 $END
  -9.984693e+06   6.718772e+05
  -7.488393e+06  -3.501699e+06
  -1.165497e+06  -6.218450e+06
   3.867246e+06  -5.425685e+06
   4.146051e+06  -1.513127e+06
   7.900540e+05   1.945794e+06
  -2.228853e+06   1.648723e+06
  -2.241232e+06  -1.521312e+06
   2.174684e+04  -3.473550e+06
   1.967547e+06  -1.849872e+06
   1.928002e+06   1.335103e+06
   3.424314e+05   2.434120e+06
  -1.093395e+06   4.633483e+05
  -1.018513e+06  -2.161966e+06
   4.722433e+05  -2.616223e+06
   1.876276e+06  -5.305118e+05
   1.643979e+06   2.025091e+06
  -1.936388e+05   2.794251e+06
  -1.929861e+06   1.398210e+06
  -2.003487e+06  -5.786928e+05
  -7.241164e+05  -1.377990e+06
   1.926259e+05  -8.578533e+05
  -2.929696e+05  -3.697424e+05
  -1.360455e+06  -9.439039e+05
  -1.332243e+06  -2.029450e+06
   4.011831e+05  -2.262611e+06
   2.602670e+06  -1.126305e+06
   3.288042e+06   5.460749e+05
   1.677242e+06   1.519690e+06
  -8.479953e+05   1.218449e+06
  -1.928920e+06   1.205384e+03
  -6.319442e+05  -1.135124e+06
   1.506651e+06  -1.161542e+06
   2.190898e+06   1.243999e+05
   9.368701e+05   1.649619e+06
  -6.114951e+05   1.917505e+06
  -8.730586e+05   6.407749e+05
  -7.468041e+04  -7.714481e+05
   4.855884e+05  -7.440218e+05
   1.980732e+05   6.175133e+05
  -4.740211e+05   1.647369e+06
  -9.182539e+05   1.090989e+06
  -9.058055e+05  -4.612767e+05
  -3.816463e+05  -1.318170e+06
   4.751044e+05  -6.083307e+05
   9.209704e+05   8.379283e+05
   1.677051e+05   1.469981e+06
  -1.418871e+06   6.275714e+05
  -2.255037e+06  -9.030938e+05
  -1.227571e+06  -1.772788e+06
   8.640189e+05  -1.344978e+06
   2.078164e+06  -1.393346e+05
   1.430841e+06   7.960136e+05
  -1.914103e+05   8.331501e+05
  -1.162936e+06   1.852974e+05
  -7.755018e+05  -4.166723e+05
   2.806645e+05  -3.998628e+05
   7.855605e+05   1.752990e+05
   2.215912e+05   6.921714e+05
  -7.226467e+05   5.648082e+05
  -8.733974e+05  -1.512354e+05
   8.292745e+04  -7.366987e+05
   1.097393e+06  -4.897570e+05
   8.744592e+05   5.243247e+05
  -5.824456e+05   1.442960e+06
  -1.919602e+06   1.375853e+06
  -1.983360e+06   2.335363e+05
  -1.016640e+06  -1.185962e+06
  -1.066174e+05  -1.926726e+06
   1.764270e+05  -1.714916e+06
   1.906518e+05  -1.090411e+06
   4.716243e+05  -7.066811e+05
   1.030103e+06  -5.765122e+05
   1.438402e+06  -1.670891e+05
   1.295911e+06   7.318570e+05
   5.270216e+05   1.482403e+06
  -5.241616e+05   1.218851e+06
  -1.188064e+06  -4.976609e+04
  -9.116216e+05  -1.260023e+06
   1.687985e+05  -1.356416e+06
   1.200510e+06  -3.600995e+05
   1.366711e+06   7.704481e+05
   6.712677e+05   1.198257e+06
  -1.382280e+05   9.213964e+05
  -4.233092e+05   5.114498e+05
  -3.135410e+05   4.052145e+05
  -4.525603e+05   5.322745e+05
  -1.134279e+06   4.801783e+05
  -1.803339e+06  -7.911207e+04
  -1.548341e+06  -1.032204e+06
  -1.552485e+05  -1.796725e+06
   1.443324e+06  -1.736692e+06
   1.970306e+06  -7.591695e+05
   1.098036e+06   4.816468e+05
  -2.112342e+05   1.084479e+06
  -7.343770e+05   7.042577e+05
  -2.121076e+05  -1.279588e+05
   5.684038e+05  -5.296535e+05
   7.536953e+05  -1.537396e+05
   2.575315e+05   4.632348e+05
  -3.288009e+05   5.094279e+05
  -4.009626e+05  -1.315337e+05
   1.427904e+05  -6.496312e+05
   8.378083e+05  -2.000187e+05
   9.841905e+05   1.027961e+06
   2.151199e+05   1.863123e+06
  -1.067889e+06   1.378212e+06
  -1.895726e+06  -9.158074e+04
  -1.575709e+06  -1.310809e+06
  -3.915885e+05  -1.426834e+06
   6.424939e+05  -7.063890e+05
   7.780515e+05  -4.381873e+04
   2.245228e+05   1.648581e+04
  -1.795551e+05  -3.258159e+05
   8.635430e+04  -5.227679e+05
   6.873224e+05  -2.766012e+05
   8.508971e+05   2.219694e+05
   2.726093e+05   5.159996e+05
  -4.767643e+05   3.222193e+05
  -5.303852e+05  -1.747441e+05
   2.866376e+05  -4.523143e+05
   1.165567e+06  -1.393661e+05
   1.124993e+06   5.851981e+05
   7.540192e+04   1.110360e+06
  -1.056801e+06   9.512054e+05
  -1.289015e+06   2.148762e+05
  -5.529929e+05  -4.801598e+05
   3.362522e+05  -5.702963e+05
   5.583932e+05  -7.877754e+04
   3.015969e+04   4.058386e+05
  -6.431239e+05   3.252789e+05
  -8.007629e+05  -2.586050e+05
  -3.071573e+05  -7.272051e+05
   3.715538e+05  -5.918985e+05
   6.148402e+05  -3.953421e+04
   2.441765e+05   2.967603e+05
  -2.795364e+05   6.313540e+04
  -3.118503e+05  -4.413324e+05
   2.756817e+05  -6.239953e+05
   9.107018e+05  -2.217349e+05
   9.062644e+05   4.722095e+05
   1.992071e+05   9.097051e+05
  -5.776212e+05   7.607630e+05
  -7.573408e+05   1.723266e+05
  -2.956908e+05  -3.573281e+05
   2.560718e+05  -4.096822e+05
   3.612929e+05  -3.664646e+04
   1.452188e+04   3.001070e+05
  -3.293897e+05   2.404392e+05
  -2.755440e+05  -6.713158e+04
   9.369013e+04  -1.628081e+05
   3.129473e+05   1.439176e+05
   3.452044e+04   5.161004e+05
  -5.732908e+05   4.577472e+05
  -9.497860e+05  -1.367175e+05
  -6.844740e+05  -8.535477e+05
   6.908622e+04  -1.136706e+06
   7.378360e+05  -7.691651e+05
   8.786087e+05  -4.366535e+04
   5.590868e+05   4.953700e+05
   2.005559e+05   5.283571e+05
   9.763077e+04   2.371126e+05
   1.447007e+05   7.878261e+04
   3.179642e+04   2.514911e+05
  -3.406375e+05   4.517321e+05
  -6.880957e+05   2.485031e+05
  -5.997176e+05  -3.442665e+05
   2.381742e+04  -7.967439e+05
   7.885336e+05  -6.052895e+05
   1.088219e+06   1.650643e+05
   6.226641e+05   9.223962e+05
  -3.153875e+05   1.090496e+06
  -1.065190e+06   5.914450e+05
  -1.145837e+06  -1.458102e+05
  -6.295893e+05  -5.963957e+05
  -1.049779e+04  -5.844008e+05
   2.767390e+05  -3.736435e+05
   2.150437e+05  -3.272223e+05
   1.224294e+05  -4.823417e+05
   2.572482e+05  -5.113641e+05
   5.284404e+05  -1.340967e+05
   5.980860e+05   4.910640e+05
   2.625694e+05   8.701621e+05
  -2.855015e+05   6.672084e+05
  -6.029052e+05   3.935682e+04
  -4.233166e+05  -5.228476e+05
   6.987166e+04  -6.372892e+05
   4.236235e+05  -3.109069e+05
   3.701329e+05   1.424409e+05
   7.385294e+04   4.029555e+05
  -9.041228e+04   3.876058e+05
   2.498177e+04   2.519882e+05
   1.750311e+05   1.811765e+05
   1.374173e+04   1.885269e+05
  -4.738488e+05   1.301872e+05
  -8.795358e+05  -9.603531e+04
  -7.541271e+05  -4.052961e+05
  -9.091785e+04  -5.913872e+05
   6.086850e+05  -5.135203e+05
   7.996287e+05  -2.165271e+05
   4.237919e+05   9.650866e+04
  -6.430031e+04   2.086083e+05
  -2.027967e+05   7.133046e+04
   1.720641e+04  -1.205327e+05
   2.395252e+05  -1.012429e+05
   2.103515e+05   1.546327e+05
   3.427317e+04   3.541396e+05
  -3.466051e+04   2.241759e+05
   7.331105e+04  -1.062237e+05
   1.949282e+05  -2.124746e+05
   1.461794e+05   9.422735e+04
  -9.936958e+04   4.849490e+05
  -3.978819e+05   4.825954e+05
  -5.193559e+05   3.679279e+04
  -2.967111e+05  -4.140716e+05
   1.787380e+05  -4.450879e+05
   5.142382e+05  -8.258504e+04
   3.289791e+05   2.855169e+05
  -2.943594e+05   3.247305e+05
  -7.747317e+05   2.198455e+04
  -5.929598e+05  -3.664651e+05
   1.271941e+05  -5.381067e+05
   7.146705e+05  -3.629625e+05
   6.549650e+05   1.056970e+04
   1.135083e+05   2.588119e+05
  -2.882137e+05   1.746293e+05
  -1.529008e+05  -1.038061e+05
   3.067112e+05  -2.034434e+05
   5.389669e+05   9.317109e+04
   2.399332e+05   5.747056e+05
  -3.546528e+05   7.590227e+05
  -7.276822e+05   3.611903e+05
  -5.851900e+05  -3.785215e+05
  -9.346218e+04  -8.567102e+05
   3.409254e+05  -6.580765e+05
   4.530102e+05   2.194568e+04
   2.688470e+05   5.502175e+05
  -2.418145e+04   5.001291e+05
  -2.423266e+05   7.537136e+04
  -2.746183e+05  -1.877706e+05
  -1.361388e+05  -8.385673e+04
  -5.417104e+01   6.415228e+04
  -5.033106e+04  -9.399057e+04
  -2.151563e+05  -4.322396e+05
  -1.681949e+05  -5.210286e+05
   2.522469e+05  -2.061602e+05
   7.089145e+05   2.112058e+05
   6.749684e+05   3.867258e+05
   1.002935e+05   3.133085e+05
  -4.566526e+05   1.940277e+05
  -4.841990e+05   1.135162e+05
  -1.219074e+05   1.338896e+04
   8.969198e+04  -1.000331e+05
  -5.158069e+04  -1.327635e+05
  -1.961420e+05  -8.457422e+04
   4.346082e+03  -6.589041e+04
   3.863556e+05  -8.221466e+04
   4.801383e+05   2.559540e+04
   9.765777e+04   3.083756e+05
  -4.600771e+05   5.061252e+05
  -7.443887e+05   3.027591e+05
  -5.698989e+05  -2.398274e+05
  -9.976789e+04  -6.690920e+05
   3.390700e+05  -6.195050e+05
   4.878101e+05  -2.027101e+05
   3.152628e+05   1.487757e+05
   3.175022e+04   1.654155e+05
  -9.278422e+04  -1.240194e+04
   1.650782e+04  -5.615972e+04
   1.736282e+05   1.515552e+05
   1.433505e+05   3.780765e+05
  -9.813070e+04   3.016662e+05
  -3.302527e+05  -1.044991e+05
  -3.013045e+05  -4.900171e+05
   2.288443e+04  -4.722367e+05
   3.909851e+05  -4.822945e+04
   4.580517e+05   3.984424e+05
   1.164227e+05   5.045858e+05
  -3.439559e+05   2.650556e+05
  -4.885114e+05  -5.594719e+04
  -2.099891e+05  -2.409935e+05
   1.294471e+05  -2.557902e+05
   1.234367e+05  -1.579552e+05
  -1.741202e+05  -2.951693e+04
  -3.186254e+05   6.527302e+03
  -4.732356e+04  -1.320457e+05
   3.871018e+05  -3.230891e+05
   5.393505e+05  -2.952292e+05
   2.973079e+05   3.635177e+04
  -5.193932e+04   3.815604e+05
  -2.073996e+05   3.750457e+05
  -1.388213e+05   3.298798e+04
   8.461993e+03  -2.473142e+05
   1.233613e+05  -1.699242e+05
   1.657265e+05   1.225651e+05
   1.080832e+05   2.720273e+05
  -3.912538e+04   1.503668e+05
  -1.792896e+05  -4.544106e+04
  -2.032517e+05  -9.514319e+04
  -1.130884e+05  -1.271287e+04
  -1.019943e+04   2.787894e+04
   3.982800e+04  -6.552154e+04
   7.029549e+04  -1.970918e+05
   1.284002e+05  -1.953949e+05
   1.806030e+05  -2.968636e+03
   1.399811e+05   2.401276e+05
  -2.407193e+04   3.086874e+05
  -2.181297e+05   1.178076e+05
  -2.721031e+05  -1.678323e+05
  -8.780580e+04  -2.893322e+05
   2.222289e+05  -1.605618e+05
   3.790154e+05   6.257943e+04
   2.056587e+05   1.793473e+05
  -1.379249e+05   1.453526e+05
  -2.835234e+05   5.468061e+04
  -7.507599e+04  -1.369681e+02
   2.188506e+05   1.413426e+04
   2.110666e+05   9.167763e+04
  -1.284229e+05   1.690975e+05
  -4.261399e+05   1.184971e+05
