
 $NMID
 id='ANONYMOUS ', fmtdat='(2E16.6)'
 volume=1.0
 tramp=1.0
 $END
  -2.474211e+07   1.481474e+06
  -1.618724e+07  -1.371401e+07
   1.600220e+06  -1.677128e+07
   1.150714e+07  -7.979235e+06
   7.834565e+06   1.841912e+06
  -8.162826e+05   4.287480e+06
  -4.544614e+06   2.697356e+05
  -2.005199e+06  -4.200586e+06
   2.209361e+06  -4.850055e+06
   4.307351e+06  -1.567359e+06
   3.419420e+06   2.659346e+06
   5.874547e+05   4.052143e+06
  -1.817114e+06   1.268981e+06
  -1.427373e+06  -2.736832e+06
   1.476246e+06  -3.437024e+06
   3.657031e+06   1.706827e+05
   2.453195e+06   4.463501e+06
  -1.247921e+06   5.495307e+06
  -4.343990e+06   2.929833e+06
  -4.807085e+06  -7.235432e+05
  -2.927033e+06  -3.138136e+06
  -4.118937e+05  -3.551324e+06
   8.634864e+05  -2.507842e+06
   2.118840e+05  -1.405782e+06
  -8.743453e+05  -1.476947e+06
  -3.311136e+04  -2.314408e+06
   2.815418e+06  -2.134082e+06
   4.731545e+06  -1.967601e+05
   3.306356e+06   1.922983e+06
  -7.987315e+04   2.304678e+06
  -1.985364e+06   1.035965e+06
  -1.127654e+06  -3.161813e+05
   7.218723e+05  -7.234255e+05
   1.566664e+06  -1.635952e+05
   1.143660e+06   1.039649e+06
   1.291246e+05   2.085548e+06
  -8.794941e+05   1.702627e+06
  -1.238470e+06  -2.088021e+05
  -5.714469e+05  -1.573576e+06
   2.978792e+05  -5.488749e+05
   8.376981e+03   1.455933e+06
  -1.196690e+06   1.281012e+06
  -1.300196e+06  -1.323008e+06
   6.686535e+05  -2.841092e+06
   2.790660e+06  -7.582749e+05
   2.417999e+06   2.800363e+06
  -4.788113e+05   3.787212e+06
  -3.244246e+06   1.294500e+06
  -3.487019e+06  -1.854902e+06
  -1.227233e+06  -2.855664e+06
   1.566269e+06  -1.545246e+06
   2.727605e+06   4.437798e+05
   1.462124e+06   1.555976e+06
  -9.497867e+05   1.165445e+06
  -2.134370e+06  -2.018760e+05
  -1.053745e+06  -1.140509e+06
   7.234452e+05  -6.906347e+05
   9.420084e+05   4.221960e+05
  -4.257596e+05   6.161273e+05
  -1.239261e+06  -4.358359e+05
  -1.365410e+05  -1.397617e+06
   1.756116e+06  -1.087564e+06
   2.423530e+06   2.383648e+05
   1.263058e+06   1.642209e+06
  -7.654105e+05   2.512515e+06
  -2.433339e+06   2.388480e+06
  -2.966259e+06   8.659734e+05
  -2.137290e+06  -1.490149e+06
  -5.167748e+05  -2.958843e+06
   6.776507e+05  -2.422509e+06
   7.226526e+05  -8.623579e+05
   2.341049e+05  -1.295979e+05
   3.104744e+05  -5.438380e+05
   1.041636e+06  -7.542794e+05
   1.481138e+06   1.000875e+05
   9.689521e+05   1.183497e+06
  -1.329244e+05   1.210055e+06
  -9.801156e+05   7.732131e+04
  -9.699873e+05  -1.184638e+06
   6.212918e+03  -1.564491e+06
   1.415722e+06  -7.980712e+05
   2.171252e+06   6.172575e+05
   1.524420e+06   1.755283e+06
   3.445216e+04   1.912732e+06
  -9.441497e+05   1.256729e+06
  -9.315245e+05   6.208978e+05
  -8.414950e+05   4.760052e+05
  -1.496051e+06   3.967166e+05
  -2.276031e+06  -2.383930e+05
  -1.895151e+06  -1.337803e+06
  -1.723790e+05  -2.171976e+06
   1.635721e+06  -2.120917e+06
   2.206194e+06  -1.131743e+06
   1.380185e+06   2.730204e+05
   7.289682e+04   1.202020e+06
  -6.274384e+05   9.855722e+05
  -2.843836e+05  -4.764088e+04
   5.826352e+05  -6.940977e+05
   9.746070e+05  -2.359595e+05
   4.600039e+05   5.980528e+05
  -2.910853e+05   6.007939e+05
  -3.042317e+05  -1.934753e+05
   4.560468e+05  -5.067094e+05
   1.029911e+06   4.014843e+05
   6.384474e+05   1.683504e+06
  -4.967284e+05   1.966110e+06
  -1.558924e+06   9.342371e+05
  -1.924420e+06  -5.415241e+05
  -1.429441e+06  -1.463327e+06
  -3.389040e+05  -1.465064e+06
   6.626455e+05  -8.124126e+05
   8.552476e+05  -1.266527e+05
   2.633795e+05   1.519101e+04
  -2.096054e+05  -3.921574e+05
   1.656002e+05  -6.994178e+05
   9.547133e+05  -3.486802e+05
   1.082861e+06   3.843505e+05
   2.609409e+05   7.153535e+05
  -6.041959e+05   3.458057e+05
  -5.251249e+05  -2.240059e+05
   4.194496e+05  -3.645542e+05
   1.233058e+06   4.908151e+04
   1.059527e+06   6.945672e+05
  -4.699855e+04   1.129128e+06
  -1.213701e+06   9.835483e+05
  -1.488343e+06   2.182538e+05
  -6.723131e+05  -6.276743e+05
   4.399048e+05  -7.846952e+05
   7.842554e+05  -1.269466e+05
   1.074840e+05   5.477859e+05
  -7.856517e+05   4.170310e+05
  -9.403626e+05  -3.618675e+05
  -2.538105e+05  -8.755683e+05
   5.354809e+05  -5.879634e+05
   6.962400e+05   9.415647e+04
   1.850362e+05   4.020131e+05
  -4.035386e+05   5.750491e+04
  -4.081051e+05  -5.399404e+05
   2.867327e+05  -7.660737e+05
   1.064075e+06  -3.181123e+05
   1.101505e+06   5.252517e+05
   2.480785e+05   1.094199e+06
  -7.207253e+05   9.083072e+05
  -9.134067e+05   1.631415e+05
  -3.026303e+05  -4.484464e+05
   3.293011e+05  -4.552398e+05
   3.611051e+05  -4.845290e+04
  -4.036136e+04   2.400764e+05
  -2.963609e+05   1.625433e+05
  -1.337144e+05  -5.006093e+04
   2.118367e+05  -3.046709e+04
   3.160372e+05   3.023883e+05
  -5.006969e+04   6.340319e+05
  -7.081006e+05   5.192853e+05
  -1.122696e+06  -1.703617e+05
  -8.228449e+05  -1.005792e+06
   6.747680e+04  -1.309348e+06
   8.446489e+05  -8.194682e+05
   9.406489e+05   1.246613e+04
   5.203596e+05   4.956364e+05
   1.898563e+05   4.135956e+05
   2.187281e+05   1.462955e+05
   3.003725e+05   1.327647e+05
   6.232556e+04   3.767332e+05
  -4.354667e+05   5.102981e+05
  -7.789470e+05   2.286387e+05
  -6.093416e+05  -3.746710e+05
   8.474982e+04  -8.260768e+05
   9.062744e+05  -6.381347e+05
   1.231155e+06   2.052470e+05
   6.748215e+05   1.097302e+06
  -4.576447e+05   1.291081e+06
  -1.318859e+06   6.333328e+05
  -1.295328e+06  -2.700215e+05
  -5.914623e+05  -7.022081e+05
   6.812382e+04  -5.581108e+05
   2.333083e+05  -3.183818e+05
   8.197925e+04  -3.939253e+05
   5.232303e+04  -6.646119e+05
   3.202950e+05  -6.792474e+05
   6.681223e+05  -1.908904e+05
   7.305863e+05   5.544025e+05
   3.325148e+05   1.006368e+06
  -3.093969e+05   7.830601e+05
  -6.944392e+05   3.188909e+04
  -4.741123e+05  -6.563037e+05
   1.534161e+05  -7.571758e+05
   5.878346e+05  -2.772616e+05
   4.515659e+05   3.073643e+05
  -6.345821e+03   5.558701e+05
  -2.293199e+05   4.418820e+05
  -2.201806e+04   2.443670e+05
   2.298403e+05   1.789805e+05
   3.454346e+04   2.070081e+05
  -5.967461e+05   1.440844e+05
  -1.092951e+06  -1.232272e+05
  -8.902431e+05  -5.074029e+05
  -3.830361e+04  -7.540149e+05
   7.965581e+05  -6.398347e+05
   9.678836e+05  -2.070586e+05
   4.716162e+05   2.143959e+05
  -1.120304e+05   2.959224e+05
  -2.659813e+05   4.423910e+04
  -1.737114e+04  -2.022937e+05
   2.419743e+05  -1.393870e+05
   2.605347e+05   1.734695e+05
   1.243102e+05   3.856883e+05
   3.733391e+04   2.532377e+05
   7.664467e+04  -7.055621e+04
   1.659208e+05  -1.818583e+05
   1.581662e+05   1.158755e+05
  -6.809236e+04   5.384526e+05
  -4.577412e+05   5.864874e+05
  -6.954353e+05   1.108116e+05
  -4.472016e+05  -4.692793e+05
   1.954932e+05  -5.968161e+05
   6.473609e+05  -1.859848e+05
   4.002871e+05   2.994438e+05
  -3.578951e+05   3.680577e+05
  -8.671698e+05  -7.150820e+03
  -5.906753e+05  -4.413440e+05
   2.191831e+05  -5.644662e+05
   8.069690e+05  -3.204535e+05
   6.908844e+05   6.314819e+04
   9.399531e+04   2.812571e+05
  -3.429428e+05   1.697744e+05
  -2.066016e+05  -1.418359e+05
   3.125606e+05  -2.802820e+05
   6.328940e+05   3.535829e+04
   3.637117e+05   6.263407e+05
  -3.042079e+05   9.152662e+05
  -7.886591e+05   4.899689e+05
  -6.888282e+05  -3.903281e+05
  -1.413662e+05  -9.655604e+05
   3.755941e+05  -7.239364e+05
   5.090739e+05   6.400761e+04
   2.709316e+05   6.351339e+05
  -8.353696e+04   5.408279e+05
  -2.979959e+05   6.537085e+04
  -2.711965e+05  -1.997637e+05
  -1.039669e+05  -7.826953e+04
  -2.008179e+04   5.770491e+04
  -1.394848e+05  -1.402566e+05
  -2.880652e+05  -5.056542e+05
  -1.402463e+05  -5.847899e+05
   3.598204e+05  -2.344923e+05
   8.078963e+05   2.222644e+05
   7.227645e+05   4.289157e+05
   1.166058e+05   3.703036e+05
  -4.641999e+05   2.392033e+05
  -5.332123e+05   1.221555e+05
  -1.868220e+05  -1.127307e+04
   7.862309e+04  -1.221549e+05
   2.357063e+03  -1.218746e+05
  -1.582855e+05  -5.727711e+04
  -2.418832e+04  -7.034406e+04
   3.665609e+05  -1.313026e+05
   5.616578e+05  -1.114008e+04
   2.265152e+05   3.566163e+05
  -4.413590e+05   6.397224e+05
  -8.883202e+05   4.340414e+05
  -7.495991e+05  -2.072389e+05
  -1.707542e+05  -7.530976e+05
   3.802672e+05  -7.533304e+05
   5.518007e+05  -3.024644e+05
   3.580990e+05   1.197231e+05
   7.389979e+04   1.886874e+05
  -4.600025e+04   2.635491e+04
   4.150873e+04  -2.089842e+04
   1.767948e+05   1.897272e+05
   1.551299e+05   4.320923e+05
  -8.455077e+04   3.664381e+05
  -3.698320e+05  -6.016059e+04
  -4.083518e+05  -5.034030e+05
  -7.094831e+04  -5.480969e+05
   4.041734e+05  -1.358745e+05
   5.656238e+05   3.756420e+05
   2.032867e+05   5.765641e+05
  -3.690177e+05   3.710148e+05
  -5.974667e+05  -1.810268e+04
  -2.953010e+05  -3.090021e+05
   1.362614e+05  -3.615234e+05
   1.867978e+05  -2.067823e+05
  -1.419649e+05  -6.744835e+03
  -3.510409e+05   3.248843e+04
  -8.265198e+04  -1.597355e+05
   4.308904e+05  -3.842983e+05
   6.610401e+05  -3.273932e+05
   4.070195e+05   6.876085e+04
  -3.327512e+04   4.660766e+05
  -2.696251e+05   4.715176e+05
  -2.138955e+05   9.243530e+04
  -3.273905e+04  -2.590818e+05
   1.195609e+05  -2.338157e+05
   1.903872e+05   8.022479e+04
   1.477121e+05   3.053409e+05
  -1.888792e+04   2.228361e+05
  -2.098979e+05  -1.922412e+04
  -2.612009e+05  -1.342584e+05
  -1.343060e+05  -4.157603e+04
   1.982053e+04   7.222410e+04
   5.002448e+04   8.171077e+03
  -7.684377e+02  -1.913594e+05
   2.797074e+04  -2.826362e+05
   1.668730e+05  -1.078591e+05
   2.406900e+05   2.000931e+05
   8.367403e+04   3.414642e+05
  -2.155940e+05   1.727656e+05
  -3.565413e+05  -1.393544e+05
  -1.439294e+05  -3.049442e+05
   2.625226e+05  -2.075380e+05
   4.709399e+05   2.329056e+04
   2.637506e+05   1.923155e+05
  -1.473540e+05   2.160788e+05
  -3.344071e+05   1.302843e+05
  -1.279076e+05   1.632008e+04
   1.910185e+05  -3.493177e+04
   2.208490e+05   3.527744e+04
  -9.300546e+04   1.629048e+05
  -4.053364e+05   1.576837e+05
