
 $NMID
 id='ANONYMOUS ', fmtdat='(2E16.6)'
 volume=1.0
 tramp=1.0
 $END
   2.288072e+07   6.309884e+05
   1.568863e+07   9.845697e+06
   8.065425e+05   1.417347e+07
  -9.704060e+06   1.088224e+07
  -9.094095e+06   2.254367e+06
  -1.170642e+06  -4.325062e+06
   5.037329e+06  -3.008908e+06
   4.422776e+06   3.701479e+06
  -6.896105e+05   7.396447e+06
  -4.585206e+06   3.564359e+06
  -4.031721e+06  -3.288721e+06
  -3.895600e+05  -5.417112e+06
   2.519983e+06  -8.979008e+05
   1.966054e+06   4.824984e+06
  -1.421257e+06   5.562472e+06
  -4.179590e+06   7.532948e+05
  -3.211305e+06  -4.784292e+06
   9.900876e+05  -6.132832e+06
   4.609101e+06  -2.759617e+06
   4.480378e+06   1.669149e+06
   1.476785e+06   3.358709e+06
  -6.586232e+05   2.110084e+06
   3.184396e+05   9.163079e+05
   2.655095e+06   2.066821e+06
   2.673312e+06   4.395758e+06
  -1.041085e+06   4.859661e+06
  -5.795988e+06   2.243265e+06
  -7.195349e+06  -1.537854e+06
  -3.565040e+06  -3.592082e+06
   1.960879e+06  -2.692880e+06
   4.232531e+06   9.720578e+04
   1.358753e+06   2.466734e+06
  -3.240145e+06   2.374655e+06
  -4.658115e+06  -3.988074e+05
  -1.920712e+06  -3.589204e+06
   1.442100e+06  -4.128322e+06
   2.018855e+06  -1.384148e+06
   2.330387e+05   1.707003e+06
  -1.087924e+06   1.709840e+06
  -4.702246e+05  -1.248451e+06
   1.115466e+06  -3.513161e+06
   2.113999e+06  -2.249386e+06
   1.864030e+06   1.185081e+06
   4.750367e+05   2.917088e+06
  -1.297595e+06   1.086079e+06
  -1.872371e+06  -2.184667e+06
   2.545470e+04  -3.328202e+06
   3.323475e+06  -1.124784e+06
   4.788883e+06   2.338210e+06
   2.378966e+06   4.018755e+06
  -2.062056e+06   2.764520e+06
  -4.484159e+06  -4.326997e+03
  -2.933921e+06  -1.913828e+06
   5.874144e+05  -1.734943e+06
   2.568390e+06  -1.710149e+05
   1.587536e+06   1.055401e+06
  -7.057018e+05   8.198999e+05
  -1.661969e+06  -4.866649e+05
  -3.558805e+05  -1.446382e+06
   1.569407e+06  -1.010391e+06
   1.690996e+06   4.603560e+05
  -4.271513e+05   1.469296e+06
  -2.460811e+06   7.747293e+05
  -1.771330e+06  -1.339174e+06
   1.487951e+06  -3.122399e+06
   4.376075e+06  -2.820496e+06
   4.417067e+06  -2.910809e+05
   2.144862e+06   2.758803e+06
  -1.206856e+03   4.269523e+06
  -6.431616e+05   3.684658e+06
  -5.396243e+05   2.257344e+06
  -1.008579e+06   1.440157e+06
  -2.197825e+06   1.197050e+06
  -3.116778e+06   3.082121e+05
  -2.781279e+06  -1.652815e+06
  -1.053665e+06  -3.242124e+06
   1.206843e+06  -2.597199e+06
   2.537826e+06   1.930213e+05
   1.847489e+06   2.790433e+06
  -4.947131e+05   2.926967e+06
  -2.665971e+06   6.796990e+05
  -2.944040e+06  -1.834965e+06
  -1.357752e+06  -2.753395e+06
   4.484019e+05  -2.066038e+06
   1.062582e+06  -1.081939e+06
   7.827645e+05  -8.098877e+05
   1.051592e+06  -1.063785e+06
   2.506152e+06  -8.871639e+05
   3.893243e+06   3.923466e+05
   3.232200e+06   2.417206e+06
   1.341388e+05   3.906613e+06
  -3.310959e+06   3.610369e+06
  -4.352244e+06   1.456760e+06
  -2.352831e+06  -1.143096e+06
   5.411680e+05  -2.341463e+06
   1.656822e+06  -1.474453e+06
   4.555918e+05   2.949590e+05
  -1.286115e+06   1.096297e+06
  -1.659282e+06   2.463663e+05
  -5.149191e+05  -1.047948e+06
   7.597831e+05  -1.072272e+06
   8.348027e+05   3.199635e+05
  -3.860990e+05   1.343460e+06
  -1.787597e+06   2.800331e+05
  -1.931586e+06  -2.331022e+06
  -2.125342e+05  -3.971250e+06
   2.431170e+06  -2.777757e+06
   4.026139e+06   4.183968e+05
   3.231917e+06   2.964423e+06
   6.973983e+05   3.098859e+06
  -1.455961e+06   1.463039e+06
  -1.687184e+06   2.110565e+04
  -4.835147e+05  -5.971653e+04
   3.517228e+05   7.253740e+05
  -2.570930e+05   1.123857e+06
  -1.532199e+06   5.128187e+05
  -1.812963e+06  -5.919326e+05
  -5.176415e+05  -1.151448e+06
   1.069114e+06  -6.378443e+05
   1.118328e+06   4.310132e+05
  -6.635980e+05   9.267484e+05
  -2.507246e+06   1.668722e+05
  -2.345395e+06  -1.367772e+06
  -4.395267e+04  -2.382979e+06
   2.375681e+06  -1.931823e+06
   2.805210e+06  -3.227018e+05
   1.139442e+06   1.106242e+06
  -8.031665e+05   1.202607e+06
  -1.230116e+06   1.012899e+05
  -2.090453e+04  -8.934616e+05
   1.432272e+06  -6.335680e+05
   1.698464e+06   6.523751e+05
   5.726982e+05   1.599470e+06
  -8.691062e+05   1.221149e+06
  -1.320301e+06   6.712841e+03
  -4.812878e+05  -6.660358e+05
   6.182772e+05  -9.879063e+04
   6.294603e+05   9.943519e+05
  -6.631840e+05   1.326412e+06
  -1.997957e+06   3.866529e+05
  -1.914206e+06  -1.120035e+06
  -3.307062e+05  -1.992226e+06
   1.336996e+06  -1.579545e+06
   1.654863e+06  -2.838504e+05
   5.929898e+05   8.043659e+05
  -5.999072e+05   8.529943e+05
  -7.803521e+05   4.431806e+04
  -2.087289e+03  -6.370769e+05
   7.216804e+05  -4.811297e+05
   5.746139e+05   1.578251e+05
  -2.164285e+05   3.203660e+05
  -6.463771e+05  -3.523071e+05
  -9.008591e+03  -1.115051e+06
   1.290663e+06  -9.235899e+05
   2.038866e+06   3.999166e+05
   1.388861e+06   1.921609e+06
  -2.697653e+05   2.448726e+06
  -1.670390e+06   1.576517e+06
  -1.890765e+06   1.225596e+02
  -1.148743e+06  -1.113000e+06
  -3.878110e+05  -1.141318e+06
  -2.050165e+05  -5.189537e+05
  -3.133120e+05  -1.993443e+05
  -3.811666e+04  -5.560691e+05
   7.862460e+05  -9.353425e+05
   1.506720e+06  -4.601873e+05
   1.253437e+06   7.983717e+05
  -1.337702e+05   1.705707e+06
  -1.762793e+06   1.218772e+06
  -2.330033e+06  -4.720249e+05
  -1.240127e+06  -2.059146e+06
   8.092505e+05  -2.318130e+06
   2.369023e+06  -1.152211e+06
   2.449358e+06   4.451610e+05
   1.282614e+06   1.346850e+06
  -3.837175e+04   1.246874e+06
  -6.213148e+05   7.739014e+05
  -4.857462e+05   6.980510e+05
  -3.164348e+05   1.045348e+06
  -6.195387e+05   1.083262e+06
  -1.164025e+06   2.318146e+05
  -1.244018e+06  -1.126958e+06
  -4.764204e+05  -1.910492e+06
   6.876277e+05  -1.413497e+06
   1.305728e+06  -1.911835e+04
   8.532052e+05   1.178762e+06
  -2.275736e+05   1.365739e+06
  -9.514215e+05   6.113273e+05
  -7.758577e+05  -3.622252e+05
  -1.012136e+05  -8.798410e+05
   2.479232e+05  -8.178764e+05
  -2.566130e+04  -5.389087e+05
  -3.635158e+05  -4.091131e+05
  -1.225419e+04  -4.089369e+05
   1.041433e+06  -2.264564e+05
   1.895971e+06   3.081649e+05
   1.584733e+06   9.613779e+05
   1.216363e+05   1.289182e+06
  -1.382195e+06   1.041591e+06
  -1.751590e+06   3.746127e+05
  -8.958756e+05  -2.622082e+05
   1.687351e+05  -4.459931e+05
   4.457405e+05  -1.266022e+05
  -5.116393e+04   2.667474e+05
  -5.263660e+05   1.974656e+05
  -4.395949e+05  -3.572142e+05
  -4.561807e+04  -7.725077e+05
   9.141289e+04  -4.856541e+05
  -1.649338e+05   2.175108e+05
  -4.337080e+05   4.370323e+05
  -3.046758e+05  -2.186540e+05
   2.601018e+05  -1.038485e+06
   9.129940e+05  -1.003260e+06
   1.139929e+06  -2.357627e+04
   6.071544e+05   9.330527e+05
  -4.387385e+05   9.508998e+05
  -1.131184e+06   1.278641e+05
  -6.841171e+05  -6.505862e+05
   6.716641e+05  -6.678928e+05
   1.670773e+06   3.638347e+04
   1.231643e+06   8.496720e+05
  -3.346524e+05   1.138109e+06
  -1.573607e+06   6.998647e+05
  -1.403984e+06  -9.276626e+04
  -2.153670e+05  -5.669090e+05
   6.400445e+05  -3.426622e+05
   3.204438e+05   2.450214e+05
  -6.839418e+05   4.140260e+05
  -1.160724e+06  -2.531171e+05
  -4.674990e+05  -1.270143e+06
   8.405536e+05  -1.612862e+06
   1.611068e+06  -7.126877e+05
   1.228037e+06   8.769356e+05
   1.149353e+05   1.860743e+06
  -8.025680e+05   1.382998e+06
  -9.721324e+05  -9.840095e+04
  -5.183053e+05  -1.214497e+06
   1.082509e+05  -1.070538e+06
   5.317793e+05  -1.336863e+05
   5.702561e+05   4.301591e+05
   2.815994e+05   1.902635e+05
   7.698120e+03  -1.355416e+05
   1.039188e+05   2.173133e+05
   4.216246e+05   9.603215e+05
   3.036398e+05   1.138108e+06
  -5.731098e+05   4.129920e+05
  -1.509282e+06  -5.294347e+05
  -1.412645e+06  -9.019145e+05
  -1.826325e+05  -6.883250e+05
   1.002400e+06  -3.761904e+05
   1.055049e+06  -1.944457e+05
   2.670823e+05  -1.011242e+04
  -2.026909e+05   2.088108e+05
   9.377066e+04   2.848087e+05
   4.114110e+05   1.949937e+05
  -1.318426e+04   1.435492e+05
  -8.386921e+05   1.454580e+05
  -1.038162e+06  -1.034550e+05
  -1.884392e+05  -6.849165e+05
   1.043783e+06  -1.055650e+06
   1.649199e+06  -5.799983e+05
   1.218867e+06   5.792287e+05
   1.504551e+05   1.458207e+06
  -8.004069e+05   1.306340e+06
  -1.079370e+06   3.929614e+05
  -6.684569e+05  -3.498579e+05
  -5.458628e+04  -3.633031e+05
   1.964090e+05   2.847614e+04
  -4.055926e+04   1.138871e+05
  -3.556550e+05  -3.456448e+05
  -2.685690e+05  -8.310341e+05
   2.430467e+05  -6.450036e+05
   7.056597e+05   2.547380e+05
   6.084951e+05   1.089518e+06
  -9.129218e+04   1.024987e+06
  -8.512019e+05   7.308259e+04
  -9.562506e+05  -9.046213e+05
  -2.042636e+05  -1.106839e+06
   7.734353e+05  -5.437873e+05
   1.055755e+06   1.712192e+05
   4.305797e+05   5.497467e+05
  -3.105372e+05   5.458833e+05
  -2.895098e+05   3.271537e+05
   3.693636e+05   7.560080e+04
   6.892016e+05   1.642368e+04
   9.017696e+04   2.929602e+05
  -8.701348e+05   6.586590e+05
  -1.199287e+06   5.759571e+05
  -6.422808e+05  -1.174472e+05
   1.524624e+05  -8.229340e+05
   4.937319e+05  -7.893219e+05
   3.122552e+05  -5.758681e+04
  -3.891069e+04   5.339104e+05
  -2.852259e+05   3.589891e+05
  -3.491772e+05  -2.767343e+05
  -2.071102e+05  -6.000247e+05
   1.017234e+05  -3.270724e+05
   3.850904e+05   1.145121e+05
   4.295500e+05   2.314817e+05
   2.413116e+05   4.232023e+04
   2.496973e+04  -6.513819e+04
  -8.738518e+04   1.292189e+05
  -1.627774e+05   4.207802e+05
  -2.912792e+05   4.222602e+05
  -3.941023e+05  -2.883530e+02
  -2.895173e+05  -5.322544e+05
   7.365732e+04  -6.708613e+05
   4.830781e+05  -2.371480e+05
   5.776647e+05   3.896615e+05
   1.647676e+05   6.347704e+05
  -4.993718e+05   3.246961e+05
  -8.186628e+05  -1.736212e+05
  -4.285501e+05  -4.099824e+05
   3.159089e+05  -3.045268e+05
   6.238037e+05  -9.341443e+04
   1.671079e+05   9.802146e+03
  -4.692767e+05  -4.483215e+04
  -4.490745e+05  -2.125258e+05
   2.881313e+05  -3.525168e+05
   9.267239e+05  -2.184763e+05
