
 $NMID
 id='ANONYMOUS ', fmtdat='(2E16.6)'
 volume=1.0
 tramp=1.0
 $END
   4.190411e+07   1.132113e+06
   2.524219e+07   2.473375e+07
  -4.697027e+06   2.759200e+07
  -1.999904e+07   1.231729e+07
  -1.290280e+07  -3.415613e+06
   1.615137e+06  -7.008956e+06
   7.577597e+06  -3.298987e+05
   3.180179e+06   7.094706e+06
  -3.927731e+06   8.181826e+06
  -7.372540e+06   2.422550e+06
  -5.590126e+06  -4.978610e+06
  -5.594471e+05  -7.151425e+06
   3.365921e+06  -1.924487e+06
   2.306733e+06   5.069293e+06
  -2.763772e+06   5.930367e+06
  -6.169985e+06  -5.826486e+05
  -3.710064e+06  -7.858247e+06
   2.739604e+06  -9.213852e+06
   7.788281e+06  -4.391487e+06
   8.068384e+06   2.012641e+06
   4.350903e+06   5.832604e+06
  -2.745712e+04   5.931172e+06
  -1.729112e+06   3.811223e+06
  -6.967380e+04   2.238953e+06
   1.767898e+06   2.909334e+06
  -2.114556e+05   4.371949e+06
  -5.463871e+06   3.484429e+06
  -8.517650e+06  -3.419027e+05
  -5.513160e+06  -3.895941e+06
   6.672125e+05  -4.084590e+06
   3.897708e+06  -1.505549e+06
   2.060930e+06   9.728702e+05
  -1.558938e+06   1.562683e+06
  -3.170541e+06   2.241504e+05
  -2.111703e+06  -2.229963e+06
   1.265362e+05  -3.973863e+06
   1.903372e+06  -2.811952e+06
   2.039267e+06   8.076404e+05
   5.338020e+05   2.879610e+06
  -7.340767e+05   6.370809e+05
   1.848657e+05  -2.851187e+06
   2.253701e+06  -2.223628e+06
   2.105387e+06   2.340442e+06
  -1.317750e+06   4.640587e+06
  -4.567865e+06   8.590515e+05
  -3.598369e+06  -4.991696e+06
   1.265608e+06  -6.233860e+06
   5.674224e+06  -1.748996e+06
   5.882210e+06   3.558249e+06
   1.964475e+06   5.071552e+06
  -2.826339e+06   2.631363e+06
  -4.782049e+06  -9.011692e+05
  -2.524096e+06  -2.762252e+06
   1.650882e+06  -1.911599e+06
   3.619026e+06   5.209201e+05
   1.715946e+06   2.008643e+06
  -1.293519e+06   1.095275e+06
  -1.652699e+06  -7.871645e+05
   6.148796e+05  -1.052228e+06
   1.979089e+06   6.525208e+05
   2.157231e+05   2.120800e+06
  -2.880974e+06   1.568194e+06
  -3.998110e+06  -5.625083e+05
  -1.976919e+06  -2.857863e+06
   1.684147e+06  -4.296204e+06
   4.684305e+06  -3.934984e+06
   5.388877e+06  -1.103813e+06
   3.519441e+06   2.985133e+06
   5.157288e+05   5.306194e+06
  -1.357673e+06   4.198371e+06
  -1.205207e+06   1.562865e+06
  -4.356993e+05   4.420522e+05
  -8.290666e+05   1.113938e+06
  -2.196936e+06   1.226569e+06
  -2.797001e+06  -4.923942e+05
  -1.653567e+06  -2.421418e+06
   4.313090e+05  -2.314154e+06
   1.915359e+06  -8.480221e+04
   1.739394e+06   2.296062e+06
  -1.788514e+05   2.882626e+06
  -2.689363e+06   1.245476e+06
  -3.799144e+06  -1.445247e+06
  -2.403416e+06  -3.327168e+06
   2.490227e+05  -3.300562e+06
   1.792482e+06  -1.987351e+06
   1.622533e+06  -9.458671e+05
   1.472833e+06  -7.976783e+05
   2.693155e+06  -6.240671e+05
   4.067817e+06   6.008818e+05
   3.310214e+06   2.567659e+06
   1.351737e+05   3.953605e+06
  -3.176285e+06   3.719616e+06
  -4.170039e+06   1.838502e+06
  -2.508318e+06  -6.930360e+05
   3.549113e+04  -2.255660e+06
   1.301729e+06  -1.738025e+06
   5.188694e+05   1.371210e+05
  -1.145590e+06   1.210514e+06
  -1.776664e+06   3.296213e+05
  -7.446488e+05  -1.130532e+06
   5.989391e+05  -1.085107e+06
   5.756077e+05   3.409756e+05
  -7.600472e+05   9.138285e+05
  -1.745924e+06  -6.538407e+05
  -1.100722e+06  -2.926549e+06
   8.367839e+05  -3.503144e+06
   2.746450e+06  -1.716253e+06
   3.487203e+06   9.888245e+05
   2.609234e+06   2.746204e+06
   5.597925e+05   2.736049e+06
  -1.294981e+06   1.444611e+06
  -1.594817e+06   1.517634e+05
  -4.803115e+05  -4.944786e+04
   3.496952e+05   7.272261e+05
  -3.504701e+05   1.229084e+06
  -1.729921e+06   5.346201e+05
  -1.904030e+06  -7.619995e+05
  -4.221811e+05  -1.284907e+06
   1.108402e+06  -5.845223e+05
   9.591664e+05   4.292986e+05
  -7.496369e+05   6.595068e+05
  -2.248029e+06  -1.167076e+05
  -1.940463e+06  -1.313596e+06
   1.177025e+05  -2.080137e+06
   2.278944e+06  -1.733432e+06
   2.731725e+06  -2.923906e+05
   1.162360e+06   1.182639e+06
  -8.655489e+05   1.359637e+06
  -1.409829e+06   1.451651e+05
  -1.256367e+05  -9.960044e+05
   1.459575e+06  -6.845378e+05
   1.676669e+06   7.174084e+05
   4.194482e+05   1.594738e+06
  -9.801945e+05   1.044260e+06
  -1.248194e+06  -1.844257e+05
  -3.259324e+05  -7.168876e+05
   7.147401e+05  -6.557397e+04
   6.835768e+05   1.015058e+06
  -5.987411e+05   1.366425e+06
  -1.972405e+06   4.783456e+05
  -1.958327e+06  -1.057752e+06
  -3.578593e+05  -2.008271e+06
   1.375894e+06  -1.588790e+06
   1.666368e+06  -2.334963e+05
   5.256286e+05   8.260407e+05
  -6.228217e+05   8.062431e+05
  -6.774425e+05   6.862640e+04
   6.261898e+04  -4.527828e+05
   5.588507e+05  -3.136604e+05
   2.906592e+05   8.384642e+04
  -3.416735e+05   6.462942e+04
  -5.464362e+05  -5.368417e+05
   1.240789e+05  -1.132270e+06
   1.321479e+06  -8.884750e+05
   2.028575e+06   3.998680e+05
   1.412849e+06   1.900781e+06
  -2.277263e+05   2.389574e+06
  -1.598890e+06   1.451413e+06
  -1.729091e+06  -6.852016e+04
  -9.574151e+05  -9.493464e+05
  -3.541508e+05  -8.177310e+05
  -3.780505e+05  -3.338795e+05
  -4.967073e+05  -2.746895e+05
  -6.425246e+04  -6.751257e+05
   8.247714e+05  -8.954209e+05
   1.438457e+06  -3.724375e+05
   1.108741e+06   7.290258e+05
  -1.929037e+05   1.519970e+06
  -1.699327e+06   1.110352e+06
  -2.237501e+06  -4.646479e+05
  -1.153729e+06  -2.041928e+06
   9.161444e+05  -2.300270e+06
   2.427399e+06  -1.054826e+06
   2.338227e+06   5.625016e+05
   1.060344e+06   1.305542e+06
  -1.298333e+05   1.033779e+06
  -4.580025e+05   6.057003e+05
  -2.268698e+05   7.326206e+05
  -1.859350e+05   1.194354e+06
  -6.441177e+05   1.189345e+06
  -1.224990e+06   2.790894e+05
  -1.282632e+06  -1.078440e+06
  -5.212607e+05  -1.867673e+06
   6.328186e+05  -1.405778e+06
   1.268964e+06  -8.361291e+03
   8.111119e+05   1.219316e+06
  -3.227453e+05   1.354958e+06
  -1.057104e+06   4.681918e+05
  -7.736784e+05  -5.622452e+05
   4.374932e+04  -9.775003e+05
   4.191514e+05  -7.723913e+05
   3.854511e+04  -4.497286e+05
  -4.031633e+05  -3.577272e+05
  -4.314009e+04  -3.870857e+05
   1.087944e+06  -2.107150e+05
   1.964809e+06   3.192639e+05
   1.575491e+06   9.888052e+05
   1.837868e+04   1.350991e+06
  -1.486675e+06   1.080205e+06
  -1.765813e+06   3.082377e+05
  -8.343441e+05  -3.979182e+05
   2.259292e+05  -5.117237e+05
   4.754979e+05  -6.540290e+04
  -3.480072e+03   3.604886e+05
  -4.662435e+05   2.356434e+05
  -4.591899e+05  -3.414842e+05
  -1.780986e+05  -7.338035e+05
  -2.887270e+04  -4.787612e+05
  -1.404690e+05   1.379367e+05
  -3.238715e+05   3.442090e+05
  -2.808828e+05  -2.217589e+05
   1.769893e+05  -9.913277e+05
   8.875415e+05  -1.027218e+06
   1.263626e+06  -1.145859e+05
   7.533803e+05   9.105375e+05
  -4.193139e+05   1.054479e+06
  -1.196819e+06   2.569645e+05
  -7.073199e+05  -5.896571e+05
   6.769672e+05  -6.440432e+05
   1.586822e+06   6.786511e+04
   1.067368e+06   8.339513e+05
  -4.170323e+05   1.019011e+06
  -1.489845e+06   5.516066e+05
  -1.267177e+06  -1.460396e+05
  -1.623302e+05  -5.203152e+05
   6.319720e+05  -2.904298e+05
   3.547732e+05   2.735448e+05
  -6.106603e+05   4.814521e+05
  -1.161229e+06  -1.348206e+05
  -5.981101e+05  -1.195528e+06
   6.609576e+05  -1.654178e+06
   1.504025e+06  -8.224036e+05
   1.232082e+06   7.812922e+05
   1.778795e+05   1.786894e+06
  -7.421676e+05   1.305926e+06
  -9.230486e+05  -1.443118e+05
  -4.558741e+05  -1.175610e+06
   1.744901e+05  -9.825863e+05
   5.412026e+05  -9.886247e+04
   4.944445e+05   3.836892e+05
   2.006768e+05   1.477586e+05
   3.320828e+04  -1.053221e+05
   2.172567e+05   2.709165e+05
   4.754188e+05   9.503604e+05
   2.279153e+05   1.075497e+06
  -6.566941e+05   3.909987e+05
  -1.465030e+06  -4.730332e+05
  -1.305044e+06  -8.361120e+05
  -1.825608e+05  -6.836863e+05
   8.861223e+05  -4.065177e+05
   9.893667e+05  -1.879173e+05
   3.241571e+05   3.512265e+04
  -1.606697e+05   2.192623e+05
   7.554442e+03   2.217333e+05
   3.087902e+05   1.175456e+05
   3.141551e+04   1.362557e+05
  -7.067802e+05   2.134906e+05
  -1.031105e+06  -3.545646e+04
  -3.555511e+05  -6.863354e+05
   8.885480e+05  -1.133386e+06
   1.662019e+06  -6.969625e+05
   1.339723e+06   4.696727e+05
   2.413883e+05   1.403079e+06
  -7.625069e+05   1.338219e+06
  -1.045275e+06   4.927726e+05
  -6.541648e+05  -2.598128e+05
  -1.104495e+05  -3.566398e+05
   1.086206e+05  -4.286302e+04
  -6.481856e+04   4.321230e+04
  -3.121531e+05  -3.528801e+05
  -2.530890e+05  -8.008810e+05
   1.932749e+05  -6.621791e+05
   6.829891e+05   1.530672e+05
   7.001896e+05   9.771594e+05
   6.068707e+04   1.020939e+06
  -7.738223e+05   2.027051e+05
  -1.007359e+06  -7.584659e+05
  -3.090772e+05  -1.081472e+06
   7.206579e+05  -6.360763e+05
   1.088364e+06   9.727676e+04
   4.964314e+05   5.874622e+05
  -2.909023e+05   6.340262e+05
  -3.491543e+05   3.497120e+05
   2.790688e+05   2.162451e+04
   6.523236e+05  -2.778541e+04
   1.299535e+05   3.007347e+05
  -8.231996e+05   6.680766e+05
  -1.220956e+06   5.444895e+05
  -7.172502e+05  -1.598869e+05
   1.080339e+05  -8.462814e+05
   5.272040e+05  -8.256713e+05
   3.920921e+05  -1.294731e+05
   3.233465e+04   4.895822e+05
  -2.486279e+05   4.113626e+05
  -3.513129e+05  -1.776874e+05
  -2.413081e+05  -5.752785e+05
   6.643568e+04  -3.965668e+05
   3.863165e+05   6.074390e+04
   4.559906e+05   2.631303e+05
   2.371007e+05   7.981886e+04
  -1.599102e+04  -1.275956e+05
  -7.685639e+04   2.956255e+03
  -2.981430e+04   3.718864e+05
  -1.139311e+05   5.174413e+05
  -3.404250e+05   1.626269e+05
  -4.149410e+05  -4.170438e+05
  -9.880951e+04  -6.515178e+05
   4.227374e+05  -2.946012e+05
   6.376076e+05   3.034900e+05
   2.322368e+05   5.827058e+05
  -4.976833e+05   3.518687e+05
  -8.572129e+05  -9.745360e+04
  -4.621511e+05  -3.798643e+05
   2.965533e+05  -3.722685e+05
   6.295101e+05  -1.930997e+05
   2.265964e+05  -9.227433e+03
  -3.759051e+05   4.478039e+04
  -4.176748e+05  -9.685892e+04
   1.923127e+05  -3.074663e+05
   7.791518e+05  -2.643117e+05
