
 $NMID
 id='ANONYMOUS ', fmtdat='(2E16.6)'
 volume=1.0
 tramp=1.0
 $END
  -3.201417e+07  -6.512107e+03
  -2.114935e+07  -1.590894e+07
   7.050421e+05  -2.061981e+07
   1.426638e+07  -1.266672e+07
   1.139342e+07  -4.212864e+05
   2.974728e+05   5.760962e+06
  -6.444468e+06   2.313043e+06
  -4.403321e+06  -5.285568e+06
   1.897765e+06  -8.346247e+06
   6.002012e+06  -3.514476e+06
   5.024350e+06   4.091402e+06
   6.024108e+05   6.476472e+06
  -2.989633e+06   1.420532e+06
  -2.304815e+06  -5.234841e+06
   1.973457e+06  -6.166432e+06
   5.294470e+06  -3.955887e+05
   3.791811e+06   6.280884e+06
  -1.577374e+06   7.850113e+06
  -6.103461e+06   3.753702e+06
  -6.240847e+06  -1.757618e+06
  -2.827993e+06  -4.462732e+06
   3.134016e+05  -3.748266e+06
   3.592952e+05  -2.177768e+06
  -1.808785e+06  -2.337421e+06
  -2.517006e+06  -4.127091e+06
   7.488637e+05  -5.005575e+06
   6.018799e+06  -2.949626e+06
   8.213272e+06   1.053915e+06
   4.637042e+06   3.867138e+06
  -1.520441e+06   3.414448e+06
  -4.357401e+06   5.625029e+05
  -1.713862e+06  -2.021337e+06
   2.812323e+06  -2.212941e+06
   4.395948e+06   1.748530e+05
   2.134106e+06   3.285698e+06
  -9.856643e+05   4.340537e+06
  -2.057211e+06   2.064008e+06
  -9.494422e+05  -1.417569e+06
   4.738756e+05  -2.253426e+06
   5.632506e+05   5.854052e+05
  -8.103139e+05   3.491035e+06
  -2.295407e+06   2.431126e+06
  -2.143039e+06  -1.693759e+06
   1.055719e+05  -3.853807e+06
   2.667999e+06  -1.193081e+06
   2.797884e+06   3.367166e+06
  -3.835475e+05   4.747284e+06
  -4.452506e+06   1.563664e+06
  -5.629118e+06  -2.894758e+06
  -2.468556e+06  -4.706455e+06
   2.481963e+06  -2.959712e+06
   4.952342e+06   2.941478e+05
   3.033710e+06   2.362132e+06
  -1.020775e+06   1.968629e+06
  -3.184754e+06  -2.510740e+04
  -1.794074e+06  -1.482040e+06
   9.689225e+05  -1.013149e+06
   1.792969e+06   6.202299e+05
   5.354081e+03   1.421849e+06
  -1.883097e+06   4.622800e+05
  -1.291360e+06  -1.170797e+06
   1.399970e+06  -1.695901e+06
   3.273837e+06  -3.836746e+05
   2.043279e+06   2.003801e+06
  -1.598055e+06   3.831956e+06
  -4.743928e+06   3.522933e+06
  -5.087804e+06   7.138926e+05
  -2.878476e+06  -2.977851e+06
  -2.846067e+05  -4.967519e+06
   9.096741e+05  -4.181591e+06
   8.340080e+05  -2.175139e+06
   8.704990e+05  -1.147110e+06
   1.808203e+06  -1.234398e+06
   2.948954e+06  -6.986512e+05
   2.971455e+06   1.283909e+06
   1.377256e+06   3.123049e+06
  -9.682611e+05   2.663246e+06
  -2.470288e+06  -8.792214e+04
  -1.955499e+06  -2.779534e+06
   3.735335e+05  -3.116446e+06
   2.841599e+06  -9.826318e+05
   3.501089e+06   1.752801e+06
   1.916382e+06   3.127896e+06
  -3.391440e+05   2.698118e+06
  -1.383986e+06   1.550690e+06
  -1.154538e+06   9.575521e+05
  -1.288423e+06   1.062043e+06
  -2.758240e+06   8.836137e+05
  -4.254037e+06  -4.507984e+05
  -3.529473e+06  -2.609864e+06
  -1.918889e+05  -4.205374e+06
   3.450989e+06  -3.948795e+06
   4.565553e+06  -1.757344e+06
   2.582744e+06   1.016473e+06
  -3.570825e+05   2.467218e+06
  -1.611301e+06   1.692332e+06
  -5.115007e+05  -2.471758e+05
   1.307449e+06  -1.230770e+06
   1.819366e+06  -3.197265e+05
   6.568278e+05   1.142626e+06
  -7.385728e+05   1.158141e+06
  -7.976144e+05  -3.499347e+05
   5.585730e+05  -1.288118e+06
   1.926469e+06   4.649502e+04
   1.791399e+06   2.736131e+06
  -1.514359e+05   4.104558e+06
  -2.730734e+06   2.600551e+06
  -4.128125e+06  -6.413904e+05
  -3.249107e+06  -3.073875e+06
  -7.190463e+05  -3.176221e+06
   1.481043e+06  -1.573600e+06
   1.768183e+06  -9.096204e+04
   5.174485e+05   5.431753e+04
  -3.848339e+05  -7.744411e+05
   2.958897e+05  -1.252171e+06
   1.713629e+06  -5.824684e+05
   1.991602e+06   6.773042e+05
   5.349407e+05   1.283741e+06
  -1.156082e+06   6.764923e+05
  -1.141575e+06  -4.536378e+05
   7.429999e+05  -8.995735e+05
   2.593759e+06  -8.914264e+04
   2.370393e+06   1.430381e+06
   2.297968e+03   2.440819e+06
  -2.492623e+06   2.018439e+06
  -2.975845e+06   3.649113e+05
  -1.245946e+06  -1.201769e+06
   8.664990e+05  -1.362236e+06
   1.386640e+06  -1.458341e+05
   7.704959e+04   9.945929e+05
  -1.537331e+06   7.168943e+05
  -1.822113e+06  -7.056967e+05
  -5.724689e+05  -1.711012e+06
   9.666122e+05  -1.253406e+06
   1.393080e+06   5.469096e+04
   4.642189e+05   7.333184e+05
  -7.009383e+05   1.030533e+05
  -7.086285e+05  -1.065423e+06
   6.689733e+05  -1.443915e+06
   2.124885e+06  -4.734127e+05
   2.081027e+06   1.152468e+06
   3.892443e+05   2.137532e+06
  -1.429755e+06   1.714092e+06
  -1.776832e+06   3.044242e+05
  -6.192692e+05  -8.659607e+05
   6.437345e+05  -9.038080e+05
   7.949269e+05  -6.277656e+04
  -2.168063e+04   6.129418e+05
  -7.097461e+05   4.535451e+05
  -5.043349e+05  -1.425427e+05
   2.855678e+05  -2.498974e+05
   6.640371e+05   4.455715e+05
  -2.866329e+04   1.206517e+06
  -1.386106e+06   9.928951e+05
  -2.186834e+06  -4.048999e+05
  -1.520693e+06  -2.034945e+06
   2.455736e+05  -2.604070e+06
   1.748111e+06  -1.658648e+06
   1.965851e+06   9.491992e+03
   1.164504e+06   1.121377e+06
   4.058778e+05   1.092984e+06
   2.880915e+05   4.757605e+05
   4.128075e+05   2.337401e+05
   6.169906e+04   6.416911e+05
  -8.481548e+05   9.979111e+05
  -1.586080e+06   4.749289e+05
  -1.294618e+06  -8.183748e+05
   1.521346e+05  -1.759502e+06
   1.854143e+06  -1.283277e+06
   2.467372e+06   4.784564e+05
   1.319599e+06   2.189150e+06
  -8.828087e+05   2.491490e+06
  -2.552427e+06   1.227037e+06
  -2.591474e+06  -4.979157e+05
  -1.302497e+06  -1.419706e+06
   6.907511e+04  -1.256548e+06
   5.981988e+05  -7.658944e+05
   4.097692e+05  -7.595322e+05
   2.708934e+05  -1.178876e+06
   6.576880e+05  -1.211197e+06
   1.267730e+06  -2.828301e+05
   1.360776e+06   1.173292e+06
   5.496626e+05   2.024516e+06
  -6.992730e+05   1.518871e+06
  -1.385673e+06   3.051013e+04
  -9.135091e+05  -1.271057e+06
   2.655640e+05  -1.465821e+06
   1.058960e+06  -6.138595e+05
   8.417119e+05   4.578340e+05
   6.511953e+04   9.851689e+05
  -3.248860e+05   8.674714e+05
   5.804081e+03   5.444869e+05
   4.085949e+05   4.128114e+05
   2.950677e+04   4.287315e+05
  -1.132700e+06   2.505417e+05
  -2.063972e+06  -3.100063e+05
  -1.707821e+06  -1.023077e+06
  -1.070623e+05  -1.408464e+06
   1.509493e+06  -1.151702e+06
   1.881293e+06  -3.967487e+05
   9.437957e+05   3.258533e+05
  -1.959809e+05   5.078663e+05
  -4.900718e+05   1.179604e+05
   2.986125e+04  -3.218863e+05
   5.370591e+05  -2.310601e+05
   4.827468e+05   3.709001e+05
   1.089576e+05   8.082088e+05
  -4.518271e+04   5.152001e+05
   1.671671e+05  -2.031555e+05
   4.196876e+05  -4.337885e+05
   3.201631e+05   2.327972e+05
  -2.352890e+05   1.095434e+06
  -9.562587e+05   1.095253e+06
  -1.267754e+06   7.861766e+04
  -7.188829e+05  -9.796732e+05
   4.481515e+05  -1.064891e+06
   1.232976e+06  -2.034261e+05
   7.483957e+05   6.646954e+05
  -7.150319e+05   7.148743e+05
  -1.759788e+06  -3.420135e+04
  -1.265580e+06  -8.954383e+05
   3.814533e+05  -1.180072e+06
   1.650710e+06  -7.081273e+05
   1.454384e+06   1.081224e+05
   2.152951e+05   5.886663e+05
  -6.807102e+05   3.541764e+05
  -3.608941e+05  -2.690637e+05
   6.974631e+05  -4.762023e+05
   1.243944e+06   2.111088e+05
   5.652750e+05   1.322761e+06
  -8.101337e+05   1.749722e+06
  -1.673251e+06   8.229523e+05
  -1.325588e+06  -8.878888e+05
  -1.677177e+05  -1.962603e+06
   8.227922e+05  -1.460115e+06
   1.025668e+06   1.135839e+05
   5.443553e+05   1.282757e+06
  -1.322595e+05   1.116692e+06
  -5.734544e+05   1.362692e+05
  -5.852412e+05  -4.386382e+05
  -2.709901e+05  -1.865799e+05
  -1.765023e+04   1.343366e+05
  -1.603010e+05  -2.492088e+05
  -4.842777e+05  -1.018998e+06
  -3.072448e+05  -1.194474e+06
   6.431635e+05  -4.436426e+05
   1.605285e+06   5.289789e+05
   1.480894e+06   9.278303e+05
   2.038363e+05   7.340240e+05
  -1.023570e+06   4.234388e+05
  -1.103285e+06   2.163351e+05
  -3.101526e+05  -1.922862e+03
   1.979773e+05  -2.290217e+05
  -6.800040e+04  -2.822104e+05
  -4.006031e+05  -1.770511e+05
  -4.886878e+03  -1.498001e+05
   8.434568e+05  -1.884376e+05
   1.109389e+06   7.209243e+04
   2.759441e+05   7.272998e+05
  -1.043046e+06   1.169807e+06
  -1.762633e+06   6.878628e+05
  -1.357732e+06  -5.595689e+05
  -2.126321e+05  -1.537072e+06
   8.267360e+05  -1.421494e+06
   1.136021e+06  -4.723280e+05
   7.123756e+05   3.322376e+05
   8.460194e+04   3.844919e+05
  -1.741116e+05  -2.965517e+03
   5.395772e+04  -9.558476e+04
   3.685710e+05   3.706364e+05
   2.907519e+05   8.765089e+05
  -2.328403e+05   6.996062e+05
  -7.474470e+05  -2.255247e+05
  -6.977789e+05  -1.113821e+06
   2.608975e+04  -1.093561e+06
   8.771618e+05  -1.369338e+05
   1.051397e+06   8.994366e+05
   2.725622e+05   1.170951e+06
  -7.990707e+05   6.268308e+05
  -1.144457e+06  -1.409010e+05
  -4.953271e+05  -5.970457e+05
   3.159146e+05  -6.230397e+05
   3.292866e+05  -3.650127e+05
  -3.596515e+05  -5.833978e+04
  -7.232253e+05   6.789122e+03
  -1.160717e+05  -3.148073e+05
   9.063642e+05  -7.187268e+05
   1.288564e+06  -6.200958e+05
   7.208929e+05   1.325671e+05
  -1.354711e+05   8.918919e+05
  -5.319877e+05   8.675438e+05
  -3.631906e+05   9.631435e+04
   8.781664e+03  -5.531751e+05
   2.854597e+05  -4.077170e+05
   3.753128e+05   2.535307e+05
   2.418433e+05   6.300430e+05
  -8.905657e+04   3.780865e+05
  -4.129930e+05  -9.702196e+04
  -4.747247e+05  -2.546873e+05
  -2.587866e+05  -5.738910e+04
  -7.873039e+03   9.338572e+04
   9.209514e+04  -8.958319e+04
   1.188172e+05  -4.295639e+05
   2.344639e+05  -4.879058e+05
   3.961755e+05  -6.671204e+04
   3.623448e+05   5.178702e+05
  -3.794101e+03   7.069842e+05
  -4.895440e+05   2.806588e+05
  -6.447948e+05  -3.750967e+05
  -2.090647e+05  -6.559859e+05
   5.300253e+05  -3.647082e+05
   8.925330e+05   1.452289e+05
   4.765985e+05   4.215615e+05
  -3.253010e+05   3.562754e+05
  -6.667454e+05   1.469490e+05
  -2.020576e+05   8.847012e+02
   4.640705e+05   1.028202e+04
   4.679199e+05   1.780651e+05
  -2.685238e+05   3.605660e+05
  -9.315063e+05   2.585049e+05
