
 $NMID
 id='ANONYMOUS ', fmtdat='(2E16.6)'
 volume=1.0
 tramp=1.0
 $END
   5.125778e+07  -7.530228e+05
   3.160483e+07   3.090047e+07
  -5.844942e+06   3.475966e+07
  -2.486133e+07   1.421973e+07
  -1.542676e+07  -5.716229e+06
   2.655349e+06  -8.640807e+06
   9.134566e+06   6.646994e+05
   2.983529e+06   8.895056e+06
  -5.410958e+06   8.964328e+06
  -8.872682e+06   2.200931e+06
  -6.550439e+06  -5.638883e+06
  -8.339156e+05  -7.997401e+06
   3.672866e+06  -2.516783e+06
   2.505628e+06   5.176737e+06
  -3.381287e+06   6.287960e+06
  -7.303029e+06  -1.001384e+06
  -4.310900e+06  -9.311418e+06
   3.244603e+06  -1.092777e+07
   9.162462e+06  -5.547969e+06
   9.859144e+06   1.785251e+06
   6.021187e+06   6.719989e+06
   7.025844e+05   7.713370e+06
  -2.389603e+06   5.442648e+06
  -1.351687e+06   2.640478e+06
   1.175735e+06   2.318468e+06
   1.258294e+05   4.068439e+06
  -5.195998e+06   4.054539e+06
  -9.058293e+06   3.712236e+05
  -6.503486e+06  -3.845158e+06
  -1.003447e+05  -4.623833e+06
   3.579243e+06  -2.237546e+06
   2.237468e+06   1.876936e+05
  -8.581514e+05   9.924770e+05
  -2.406984e+06   3.522427e+05
  -2.057969e+06  -1.572333e+06
  -4.800304e+05  -3.771027e+06
   1.698043e+06  -3.492822e+06
   2.808694e+06   1.799622e+05
   1.440585e+06   3.269710e+06
  -6.507842e+05   1.569510e+06
  -1.815807e+05  -2.444925e+06
   2.336139e+06  -2.237531e+06
   2.360711e+06   2.878170e+06
  -1.987855e+06   5.689982e+06
  -6.178710e+06   1.123061e+06
  -4.756250e+06  -6.164256e+06
   1.538185e+06  -7.793329e+06
   6.756144e+06  -2.319364e+06
   6.571371e+06   4.038581e+06
   1.893454e+06   5.648641e+06
  -3.222838e+06   2.666433e+06
  -5.050477e+06  -1.303192e+06
  -2.435511e+06  -3.229656e+06
   2.149220e+06  -2.125095e+06
   4.217698e+06   7.376843e+05
   1.892246e+06   2.461083e+06
  -1.551005e+06   1.298185e+06
  -1.690377e+06  -9.371509e+05
   1.127229e+06  -9.793981e+05
   2.373137e+06   1.404639e+06
  -3.005993e+05   3.092040e+06
  -4.056881e+06   1.900088e+06
  -4.903557e+06  -1.031754e+06
  -2.255656e+06  -3.575203e+06
   1.655675e+06  -4.899704e+06
   4.731294e+06  -4.519393e+06
   5.788994e+06  -1.604452e+06
   4.217492e+06   2.954900e+06
   8.791713e+05   5.770134e+06
  -1.650178e+06   4.545138e+06
  -1.608405e+06   1.313717e+06
  -2.772275e+05  -9.732773e+04
  -1.898499e+05   9.249618e+05
  -1.666370e+06   1.566334e+06
  -2.687897e+06   5.902941e+04
  -1.854237e+06  -1.975901e+06
   9.731938e+04  -2.103443e+06
   1.597435e+06  -1.459819e+05
   1.639672e+06   2.085931e+06
  -3.606977e+04   2.840907e+06
  -2.651509e+06   1.522921e+06
  -4.182012e+06  -1.172330e+06
  -2.977772e+06  -3.501176e+06
   1.730696e+04  -3.883872e+06
   2.048437e+06  -2.511188e+06
   2.016464e+06  -1.109830e+06
   1.711908e+06  -7.218655e+05
   2.826618e+06  -5.217287e+05
   4.195736e+06   6.857088e+05
   3.380425e+06   2.645736e+06
   1.395959e+05   3.996808e+06
  -3.118267e+06   3.774419e+06
  -4.062774e+06   2.007300e+06
  -2.544368e+06  -4.660069e+05
  -1.944835e+05  -2.169455e+06
   1.110583e+06  -1.831754e+06
   5.339587e+05   5.607381e+04
  -1.072609e+06   1.254965e+06
  -1.833128e+06   3.831027e+05
  -8.667671e+05  -1.150619e+06
   5.250607e+05  -1.078373e+06
   4.575131e+05   3.828434e+05
  -9.918575e+05   7.559699e+05
  -1.841093e+06  -1.108376e+06
  -7.760954e+05  -3.320816e+06
   1.396896e+06  -3.416675e+06
   3.032507e+06  -1.253062e+06
   3.312249e+06   1.329104e+06
   2.299415e+06   2.728462e+06
   4.544607e+05   2.593189e+06
  -1.227766e+06   1.424355e+06
  -1.544317e+06   2.033872e+05
  -4.800205e+05  -4.550615e+04
   3.504474e+05   7.325105e+05
  -3.857141e+05   1.296376e+06
  -1.831460e+06   5.692916e+05
  -1.976554e+06  -8.382236e+05
  -3.931206e+05  -1.366852e+06
   1.139814e+06  -5.662015e+05
   8.882937e+05   4.495191e+05
  -8.251470e+05   5.452654e+05
  -2.168429e+06  -2.828764e+05
  -1.750853e+06  -1.341556e+06
   2.308163e+05  -1.964988e+06
   2.268264e+06  -1.635758e+06
   2.714657e+06  -2.695163e+05
   1.187281e+06   1.223534e+06
  -8.830525e+05   1.448309e+06
  -1.498227e+06   1.862343e+05
  -1.872404e+05  -1.038612e+06
   1.475106e+06  -7.147954e+05
   1.682185e+06   7.557768e+05
   3.469932e+05   1.618685e+06
  -1.059281e+06   9.774479e+05
  -1.242174e+06  -2.856835e+05
  -2.588833e+05  -7.631125e+05
   7.686361e+05  -6.092819e+04
   7.152018e+05   1.024507e+06
  -5.670995e+05   1.385335e+06
  -1.960459e+06   5.209162e+05
  -1.982146e+06  -1.029582e+06
  -3.734258e+05  -2.023659e+06
   1.401610e+06  -1.605180e+06
   1.686497e+06  -2.108596e+05
   4.981071e+05   8.489466e+05
  -6.430667e+05   7.905527e+05
  -6.294625e+05   6.836699e+04
   1.148607e+05  -3.749117e+05
   5.033939e+05  -2.169550e+05
   1.485592e+05   8.131051e+04
  -4.320450e+05  -4.278683e+04
  -5.223005e+05  -6.390389e+05
   1.866464e+05  -1.161349e+06
   1.347388e+06  -8.792800e+05
   2.034089e+06   4.040296e+05
   1.428396e+06   1.898754e+06
  -2.168799e+05   2.368950e+06
  -1.588218e+06   1.390300e+06
  -1.668743e+06  -1.209956e+05
  -8.518732e+05  -8.985330e+05
  -3.025460e+05  -6.716297e+05
  -4.412532e+05  -2.277683e+05
  -5.952017e+05  -2.912846e+05
  -9.035338e+04  -7.322806e+05
   8.522103e+05  -8.849319e+05
   1.423327e+06  -3.242086e+05
   1.037212e+06   7.164882e+05
  -2.438271e+05   1.445827e+06
  -1.690641e+06   1.056476e+06
  -2.203986e+06  -4.750887e+05
  -1.115667e+06  -2.054849e+06
   9.750923e+05  -2.315620e+06
   2.479641e+06  -1.019353e+06
   2.310594e+06   6.353340e+05
   9.545047e+05   1.318627e+06
  -1.989581e+05   9.479545e+05
  -4.019890e+05   5.098163e+05
  -1.010535e+05   7.233152e+05
  -1.083554e+05   1.256675e+06
  -6.477740e+05   1.248607e+06
  -1.255250e+06   3.094015e+05
  -1.301693e+06  -1.057233e+06
  -5.395342e+05  -1.852241e+06
   6.116465e+05  -1.402928e+06
   1.259395e+06   1.569554e+03
   7.993461e+05   1.250287e+06
  -3.717412e+05   1.367638e+06
  -1.129633e+06   4.139476e+05
  -7.992637e+05  -6.611693e+05
   1.024121e+05  -1.045715e+06
   5.085595e+05  -7.741418e+05
   7.981580e+04  -4.168964e+05
  -4.180669e+05  -3.306960e+05
  -5.541807e+04  -3.750937e+05
   1.117619e+06  -2.091035e+05
   2.008953e+06   3.192368e+05
   1.582002e+06   1.008863e+06
  -2.430394e+04   1.399412e+06
  -1.540397e+06   1.115524e+06
  -1.789630e+06   2.789159e+05
  -8.247306e+05  -4.721917e+05
   2.470958e+05  -5.521474e+05
   4.991694e+05  -3.974672e+04
   2.976168e+04   4.014930e+05
  -4.357160e+05   2.478474e+05
  -4.688710e+05  -3.337532e+05
  -2.373307e+05  -7.040409e+05
  -8.530192e+04  -4.642063e+05
  -1.386546e+05   9.784084e+04
  -2.839434e+05   2.891092e+05
  -2.712938e+05  -2.270898e+05
   1.440437e+05  -9.643378e+05
   8.776802e+05  -1.040733e+06
   1.318791e+06  -1.722426e+05
   8.240225e+05   8.881254e+05
  -4.008561e+05   1.106928e+06
  -1.219644e+06   3.267719e+05
  -7.147605e+05  -5.613698e+05
   6.860682e+05  -6.362611e+05
   1.558597e+06   9.365477e+04
   9.923788e+05   8.501141e+05
  -4.725986e+05   9.767271e+05
  -1.474908e+06   4.734722e+05
  -1.214604e+06  -1.884722e+05
  -1.323043e+05  -5.069809e+05
   6.375888e+05  -2.658285e+05
   3.761713e+05   2.848326e+05
  -5.714303e+05   5.074542e+05
  -1.153946e+06  -7.963845e+04
  -6.543529e+05  -1.151544e+06
   5.749134e+05  -1.661575e+06
   1.448683e+06  -8.659242e+05
   1.229040e+06   7.399488e+05
   1.994177e+05   1.753859e+06
  -7.267308e+05   1.268687e+06
  -9.096551e+05  -1.730159e+05
  -4.234832e+05  -1.170586e+06
   2.175097e+05  -9.533461e+05
   5.525665e+05  -8.364766e+04
   4.554116e+05   3.724718e+05
   1.582430e+05   1.376704e+05
   4.907949e+04  -9.437283e+04
   2.784360e+05   2.849857e+05
   5.019247e+05   9.446621e+05
   1.852809e+05   1.060102e+06
  -7.026885e+05   3.918216e+05
  -1.444872e+06  -4.544449e+05
  -1.252596e+06  -8.221052e+05
  -1.826150e+05  -6.851142e+05
   8.320342e+05  -4.092926e+05
   9.640576e+05  -1.777637e+05
   3.582086e+05   5.046556e+04
  -1.404184e+05   2.204732e+05
  -4.085638e+04   2.026988e+05
   2.525786e+05   9.314651e+04
   5.197676e+04   1.283865e+05
  -6.398879e+05   2.315666e+05
  -1.025321e+06  -4.536307e+03
  -4.368774e+05  -6.715942e+05
   8.108583e+05  -1.158094e+06
   1.663724e+06  -7.569799e+05
   1.391485e+06   4.067029e+05
   2.789632e+05   1.373792e+06
  -7.453924e+05   1.355668e+06
  -1.023248e+06   5.385162e+05
  -6.403306e+05  -2.201876e+05
  -1.367447e+05  -3.489735e+05
   5.917950e+04  -6.697309e+04
  -8.484206e+04   1.251375e+04
  -2.937253e+05  -3.633070e+05
  -2.432050e+05  -7.926154e+05
   1.689285e+05  -6.680523e+05
   6.640448e+05   1.083459e+05
   7.341816e+05   9.185649e+05
   1.324436e+05   1.006943e+06
  -7.262226e+05   2.562588e+05
  -1.019812e+06  -6.874176e+05
  -3.571854e+05  -1.063141e+06
   6.889766e+05  -6.769558e+05
   1.101042e+06   5.932461e+04
   5.344658e+05   6.011723e+05
  -2.732315e+05   6.769594e+05
  -3.769863e+05   3.689968e+05
   2.312626e+05   6.532831e+03
   6.330748e+05  -4.445435e+04
   1.503284e+05   3.014933e+05
  -8.043800e+05   6.702525e+05
  -1.241538e+06   5.342161e+05
  -7.615045e+05  -1.726993e+05
   8.517554e+04  -8.566680e+05
   5.421391e+05  -8.508755e+05
   4.239813e+05  -1.733764e+05
   6.111937e+04   4.628392e+05
  -2.266646e+05   4.341350e+05
  -3.426946e+05  -1.313406e+05
  -2.557380e+05  -5.626746e+05
   4.218296e+04  -4.276646e+05
   3.827160e+05   3.549365e+04
   4.744720e+05   2.767810e+05
   2.405893e+05   9.870639e+04
  -4.270650e+04  -1.533334e+05
  -8.673737e+04  -5.844350e+04
   2.759149e+04   3.352508e+05
  -1.934895e+04   5.450776e+05
  -2.979998e+05   2.347691e+05
  -4.634331e+05  -3.501272e+05
  -1.789643e+05  -6.259411e+05
   3.897311e+05  -3.163776e+05
   6.594503e+05   2.574337e+05
   2.593415e+05   5.532957e+05
  -4.965197e+05   3.662166e+05
  -8.712623e+05  -5.765735e+04
  -4.769301e+05  -3.638664e+05
   2.812915e+05  -4.041240e+05
   6.241720e+05  -2.419426e+05
   2.539369e+05  -2.504726e+04
  -3.231256e+05   7.680877e+04
  -3.915702e+05  -4.607359e+04
   1.529913e+05  -2.765160e+05
   7.077735e+05  -2.702001e+05
