
 $NMID
 id='ANONYMOUS ', fmtdat='(2E16.6)'
 volume=1.0
 tramp=1.0
 $END
  -3.459696e+07   1.202564e+06
  -2.299367e+07  -1.709726e+07
   6.866361e+05  -2.242221e+07
   1.510204e+07  -1.336007e+07
   1.179852e+07  -9.108115e+04
   1.337290e+05   6.074826e+06
  -6.637930e+06   2.190897e+06
  -4.412465e+06  -5.525805e+06
   1.969316e+06  -8.470234e+06
   6.195184e+06  -3.583154e+06
   5.399254e+06   4.097747e+06
   9.096192e+05   6.671019e+06
  -3.044332e+06   1.694552e+06
  -2.589941e+06  -5.139315e+06
   1.869038e+06  -6.266486e+06
   5.520419e+06  -4.267423e+05
   4.103761e+06   6.520671e+06
  -1.490385e+06   8.308661e+06
  -6.376319e+06   4.218705e+06
  -6.807331e+06  -1.549371e+06
  -3.409131e+06  -4.700923e+06
   9.141764e+04  -4.304983e+06
   5.872320e+05  -2.577097e+06
  -1.513312e+06  -2.230940e+06
  -2.586845e+06  -3.760508e+06
   3.816162e+05  -4.955416e+06
   5.815779e+06  -3.404146e+06
   8.428790e+06   5.019968e+05
   5.076746e+06   3.696319e+06
  -1.180047e+06   3.688563e+06
  -4.280811e+06   1.004225e+06
  -1.922221e+06  -1.722059e+06
   2.439860e+06  -2.239182e+06
   4.175174e+06  -1.428603e+05
   2.323359e+06   2.975358e+06
  -5.842096e+05   4.360966e+06
  -1.951701e+06   2.359036e+06
  -1.285146e+06  -1.259001e+06
   1.444953e+05  -2.454690e+06
   6.497814e+05   2.864526e+05
  -4.979717e+05   3.427918e+06
  -2.188703e+06   2.521951e+06
  -2.233657e+06  -1.754161e+06
   2.022088e+05  -4.066584e+06
   3.067593e+06  -1.240441e+06
   3.158385e+06   3.644079e+06
  -3.712153e+05   5.145498e+06
  -4.702974e+06   1.827924e+06
  -5.880774e+06  -2.802749e+06
  -2.606329e+06  -4.712747e+06
   2.438171e+06  -3.034432e+06
   4.973929e+06   1.909693e+05
   3.061313e+06   2.325147e+06
  -1.078338e+06   2.021255e+06
  -3.314283e+06   1.359043e+04
  -1.863197e+06  -1.529890e+06
   1.004270e+06  -1.087637e+06
   1.809075e+06   5.755473e+05
  -6.223972e+04   1.346437e+06
  -1.890961e+06   3.043525e+05
  -1.107640e+06  -1.325637e+06
   1.667956e+06  -1.737842e+06
   3.444907e+06  -3.243302e+05
   2.138659e+06   2.119127e+06
  -1.452148e+06   4.055159e+06
  -4.612286e+06   3.886369e+06
  -5.179115e+06   1.056062e+06
  -3.200715e+06  -2.876781e+06
  -5.800043e+05  -5.085950e+06
   8.173027e+05  -4.269651e+06
   8.153587e+05  -2.095031e+06
   7.173209e+05  -1.044639e+06
   1.541596e+06  -1.318071e+06
   2.778793e+06  -9.789895e+05
   3.033829e+06   9.686809e+05
   1.615748e+06   2.930850e+06
  -7.211331e+05   2.665094e+06
  -2.375848e+06   7.817801e+04
  -2.068649e+06  -2.600036e+06
   1.774437e+05  -3.116519e+06
   2.791428e+06  -1.194213e+06
   3.695263e+06   1.532619e+06
   2.198785e+06   3.117826e+06
  -1.966374e+05   2.881712e+06
  -1.420769e+06   1.729869e+06
  -1.226639e+06   1.016086e+06
  -1.289133e+06   1.073720e+06
  -2.725946e+06   9.693933e+05
  -4.276224e+06  -2.793972e+05
  -3.644544e+06  -2.452313e+06
  -3.898160e+05  -4.181832e+06
   3.228283e+06  -4.109720e+06
   4.437889e+06  -2.022269e+06
   2.646424e+06   8.257578e+05
  -1.639611e+05   2.465819e+06
  -1.475230e+06   1.803244e+06
  -5.323282e+05  -1.993699e+05
   1.223376e+06  -1.305211e+06
   1.813373e+06  -4.155298e+05
   7.403851e+05   1.120639e+06
  -6.567439e+05   1.192022e+06
  -7.729235e+05  -3.095416e+05
   5.427383e+05  -1.241608e+06
   1.900952e+06   8.871775e+04
   1.784612e+06   2.712887e+06
  -1.017501e+05   4.010548e+06
  -2.625986e+06   2.559641e+06
  -4.052821e+06  -5.185329e+05
  -3.291263e+06  -2.865484e+06
  -8.505615e+05  -3.072104e+06
   1.375741e+06  -1.635119e+06
   1.743561e+06  -1.942370e+05
   5.172220e+05   2.811899e+04
  -4.194888e+05  -7.524002e+05
   2.494813e+05  -1.273991e+06
   1.706132e+06  -6.618407e+05
   2.025153e+06   6.047875e+05
   5.783666e+05   1.270083e+06
  -1.122767e+06   7.203207e+05
  -1.134553e+06  -3.942900e+05
   7.050868e+05  -8.902750e+05
   2.534955e+06  -1.740731e+05
   2.368331e+06   1.297629e+06
   9.859629e+04   2.382516e+06
  -2.367854e+06   2.099048e+06
  -2.932773e+06   5.007357e+05
  -1.299302e+06  -1.148131e+06
   8.084670e+05  -1.418685e+06
   1.399527e+06  -2.151665e+05
   1.380245e+05   1.002121e+06
  -1.500065e+06   7.934834e+05
  -1.842657e+06  -6.246766e+05
  -6.289804e+05  -1.672801e+06
   9.160148e+05  -1.266431e+06
   1.376132e+06   1.463165e+04
   4.741753e+05   7.129140e+05
  -7.054756e+05   1.301081e+05
  -7.629616e+05  -1.029538e+06
   5.880723e+05  -1.474478e+06
   2.088807e+06  -5.852006e+05
   2.132162e+06   1.039481e+06
   4.923798e+05   2.110958e+06
  -1.347075e+06   1.774233e+06
  -1.754824e+06   3.798224e+05
  -6.476835e+05  -8.346681e+05
   6.001178e+05  -9.231302e+05
   7.735846e+05  -1.053887e+05
   9.628633e+02   5.832175e+05
  -6.585918e+05   4.628711e+05
  -4.683720e+05  -1.032932e+05
   2.868646e+05  -2.233218e+05
   6.646317e+05   4.372627e+05
   8.999566e+03   1.202296e+06
  -1.335984e+06   1.047794e+06
  -2.193261e+06  -2.991811e+05
  -1.612980e+06  -1.949875e+06
   1.142358e+05  -2.594627e+06
   1.648924e+06  -1.716102e+06
   1.932373e+06  -7.579775e+04
   1.186392e+06   1.034841e+06
   4.548816e+05   1.021550e+06
   3.363027e+05   4.354860e+05
   4.469244e+05   2.262711e+05
   9.363158e+04   6.528907e+05
  -8.018477e+05   1.026435e+06
  -1.544436e+06   5.354295e+05
  -1.306469e+06  -7.412742e+05
   7.442273e+04  -1.730077e+06
   1.773362e+06  -1.349447e+06
   2.464102e+06   3.570206e+05
   1.404365e+06   2.111808e+06
  -7.753139e+05   2.516607e+06
  -2.488413e+06   1.327008e+06
  -2.584518e+06  -3.879899e+05
  -1.331881e+06  -1.342005e+06
   1.951756e+04  -1.221691e+06
   5.332701e+05  -7.683240e+05
   3.350466e+05  -7.834501e+05
   1.969445e+05  -1.208888e+06
   6.019381e+05  -1.251165e+06
   1.257288e+06  -3.474396e+05
   1.415640e+06   1.096428e+06
   6.498055e+05   1.982654e+06
  -6.157680e+05   1.543952e+06
  -1.371765e+06   9.503639e+04
  -9.625245e+05  -1.226520e+06
   2.082572e+05  -1.468153e+06
   1.037712e+06  -6.390164e+05
   8.560999e+05   4.442437e+05
   8.938097e+04   9.890983e+05
  -3.059978e+05   8.696291e+05
   2.359289e+04   5.278854e+05
   4.323261e+05   3.846546e+05
   5.422413e+04   4.224442e+05
  -1.121522e+06   2.998714e+05
  -2.077715e+06  -2.133520e+05
  -1.745817e+06  -9.407819e+05
  -1.576920e+05  -1.403577e+06
   1.462662e+06  -1.221420e+06
   1.854117e+06  -4.742048e+05
   9.438530e+05   2.980223e+05
  -1.800296e+05   5.231631e+05
  -4.854195e+05   1.313611e+05
   9.079660e+03  -3.357562e+05
   5.155023e+05  -2.615302e+05
   5.008809e+05   3.443129e+05
   1.660104e+05   7.953085e+05
  -3.313075e+03   5.154142e+05
   1.521724e+05  -1.989152e+05
   3.799794e+05  -4.395656e+05
   3.258511e+05   2.165765e+05
  -1.699136e+05   1.095208e+06
  -8.961668e+05   1.138484e+06
  -1.276279e+06   1.494356e+05
  -7.826599e+05  -9.394039e+05
   3.941216e+05  -1.095654e+06
   1.228204e+06  -2.781967e+05
   7.801723e+05   6.175817e+05
  -6.780681e+05   7.415978e+05
  -1.740105e+06   4.581685e+04
  -1.278242e+06  -8.265893e+05
   3.339011e+05  -1.173990e+06
   1.594863e+06  -7.625673e+05
   1.431826e+06   4.450182e+04
   2.351286e+05   5.681085e+05
  -6.585847e+05   3.772964e+05
  -3.763141e+05  -2.550709e+05
   6.617729e+05  -5.173837e+05
   1.249251e+06   1.342544e+05
   6.446533e+05   1.280403e+06
  -6.981833e+05   1.787539e+06
  -1.612106e+06   9.150630e+05
  -1.362787e+06  -8.071274e+05
  -2.696842e+05  -1.935081e+06
   7.398859e+05  -1.481463e+06
   1.018178e+06   7.035841e+04
   5.939008e+05   1.244035e+06
  -8.692588e+04   1.103763e+06
  -5.648719e+05   1.576122e+05
  -5.928268e+05  -4.009966e+05
  -2.675092e+05  -1.655823e+05
  -1.442431e+04   1.298655e+05
  -1.866846e+05  -2.495273e+05
  -5.378706e+05  -9.902079e+05
  -3.523332e+05  -1.163913e+06
   6.304938e+05  -4.675594e+05
   1.616654e+06   4.416844e+05
   1.502847e+06   8.421960e+05
   2.375452e+05   7.199803e+05
  -9.822153e+05   4.756220e+05
  -1.077987e+06   2.674012e+05
  -3.161596e+05   5.511831e+03
   1.803019e+05  -2.393365e+05
  -6.956432e+04  -2.674146e+05
  -3.933423e+05  -1.447164e+05
  -1.838470e+04  -1.483157e+05
   8.123668e+05  -2.388716e+05
   1.107053e+06   9.425945e+03
   3.327341e+05   7.130373e+05
  -9.613433e+05   1.226444e+06
  -1.724565e+06   7.842527e+05
  -1.396024e+06  -4.785712e+05
  -2.979667e+05  -1.512598e+06
   7.503160e+05  -1.458393e+06
   1.104366e+06  -5.383213e+05
   7.236247e+05   2.837902e+05
   1.104069e+05   3.782980e+05
  -1.618274e+05   1.664609e+04
   5.163320e+04  -8.723985e+04
   3.779202e+05   3.517134e+05
   3.289866e+05   8.537315e+05
  -1.916381e+05   7.101956e+05
  -7.524682e+05  -1.741615e+05
  -7.615797e+05  -1.060365e+06
  -4.751930e+04  -1.090774e+06
   8.570060e+05  -1.972962e+05
   1.097927e+06   8.250129e+05
   3.418482e+05   1.149945e+06
  -7.591166e+05   6.753063e+05
  -1.150941e+06  -7.596497e+04
  -5.298812e+05  -5.768182e+05
   2.832311e+05  -6.475912e+05
   3.190874e+05  -3.811155e+05
  -3.485050e+05  -3.212314e+04
  -7.145732e+05   4.775285e+04
  -1.359132e+05  -3.093777e+05
   8.611931e+05  -7.599534e+05
   1.255313e+06  -6.731413e+05
   7.335906e+05   1.048679e+05
  -8.657443e+04   8.977192e+05
  -4.935074e+05   8.930118e+05
  -3.691494e+05   1.221168e+05
  -2.818145e+04  -5.454621e+05
   2.602445e+05  -4.270982e+05
   3.870759e+05   2.204279e+05
   2.756279e+05   6.123463e+05
  -6.665919e+04   3.907565e+05
  -4.164087e+05  -6.934365e+04
  -4.876940e+05  -2.357977e+05
  -2.590695e+05  -5.014073e+04
   1.553444e+03   1.027318e+05
   8.413719e+04  -7.565977e+04
   7.827605e+04  -4.278881e+05
   1.862628e+05  -5.125366e+05
   3.856363e+05  -1.090572e+05
   4.044642e+05   4.834404e+05
   5.448779e+04   7.032124e+05
  -4.659857e+05   3.114002e+05
  -6.689777e+05  -3.312534e+05
  -2.493522e+05  -6.362717e+05
   5.102045e+05  -3.918079e+05
   9.013968e+05   9.195150e+04
   4.993231e+05   3.930397e+05
  -3.049673e+05   3.797766e+05
  -6.586080e+05   1.918754e+05
  -2.097423e+05   1.231512e+04
   4.501461e+05  -2.581049e+04
   4.711223e+05   1.381030e+05
  -2.358145e+05   3.663686e+05
  -8.941678e+05   3.098571e+05
