
 $NMID
 id='ANONYMOUS ', fmtdat='(2E16.6)'
 volume=1.0
 tramp=1.0
 $END
   1.996992e+07   5.322782e+05
   1.303818e+07   9.615613e+06
  -3.085067e+05   1.254503e+07
  -8.713221e+06   8.241837e+06
  -7.221173e+06   8.077110e+05
  -4.301654e+05  -3.573815e+06
   4.054314e+06  -1.816822e+06
   3.063756e+06   3.208150e+06
  -9.502119e+05   5.551655e+06
  -3.775289e+06   2.465631e+06
  -3.246644e+06  -2.673769e+06
  -3.583297e+05  -4.278921e+06
   2.001826e+06  -8.489335e+05
   1.565020e+06   3.582777e+06
  -1.201277e+06   4.165871e+06
  -3.379186e+06   3.644195e+05
  -2.467644e+06  -3.996305e+06
   9.814822e+05  -5.013380e+06
   3.906292e+06  -2.312933e+06
   3.904125e+06   1.284043e+06
   1.561154e+06   2.903088e+06
  -4.132344e+05   2.193054e+06
  -1.262780e+05   1.110845e+06
   1.543448e+06   1.481100e+06
   1.904366e+06   2.958711e+06
  -5.662366e+05   3.534634e+06
  -4.215660e+06   1.935149e+06
  -5.563830e+06  -8.703411e+05
  -2.988881e+06  -2.684891e+06
   1.224694e+06  -2.257553e+06
   3.095928e+06  -2.462085e+05
   1.169906e+06   1.572902e+06
  -2.079167e+06   1.687628e+06
  -3.213380e+06  -1.136551e+05
  -1.513815e+06  -2.409727e+06
   7.985928e+05  -3.061076e+06
   1.475820e+06  -1.279818e+06
   4.987299e+05   1.138753e+06
  -5.365428e+05   1.489044e+06
  -4.328085e+05  -6.150684e+05
   6.194283e+05  -2.514753e+06
   1.554874e+06  -1.681348e+06
   1.413898e+06   1.041950e+06
   7.330606e+04   2.400824e+06
  -1.469494e+06   7.346763e+05
  -1.648758e+06  -2.067751e+06
   2.187369e+05  -2.909321e+06
   2.828521e+06  -9.395273e+05
   3.724741e+06   1.878806e+06
   1.725258e+06   3.101600e+06
  -1.609450e+06   2.035094e+06
  -3.346677e+06  -9.575585e+04
  -2.112308e+06  -1.507835e+06
   5.864177e+05  -1.302405e+06
   2.054619e+06  -3.191410e+04
   1.192949e+06   9.156145e+05
  -6.097362e+05   6.507949e+05
  -1.227821e+06  -3.869088e+05
  -1.299589e+05  -9.862760e+05
   1.188649e+06  -4.914623e+05
   9.925661e+05   5.658059e+05
  -6.946172e+05   1.071095e+06
  -2.036466e+06   3.648055e+05
  -1.336117e+06  -1.214917e+06
   1.108213e+06  -2.510973e+06
   3.261853e+06  -2.313113e+06
   3.426684e+06  -3.876686e+05
   1.837283e+06   2.066638e+06
   1.213379e+05   3.327840e+06
  -5.516065e+05   2.801782e+06
  -4.679114e+05   1.551752e+06
  -6.198528e+05   9.227778e+05
  -1.385327e+06   9.176525e+05
  -2.161932e+06   4.285755e+05
  -2.093797e+06  -9.979294e+05
  -9.278926e+05  -2.256792e+06
   7.288819e+05  -1.898743e+06
   1.780004e+06   5.641581e+04
   1.389351e+06   1.955785e+06
  -2.766271e+05   2.165158e+06
  -1.972078e+06   6.267240e+05
  -2.340926e+06  -1.267298e+06
  -1.197875e+06  -2.123986e+06
   2.908438e+05  -1.733610e+06
   9.021114e+05  -9.478992e+05
   7.054692e+05  -6.175324e+05
   8.272657e+05  -7.495823e+05
   1.865676e+06  -6.414709e+05
   2.904794e+06   2.768393e+05
   2.427511e+06   1.769580e+06
   1.478389e+05   2.890567e+06
  -2.379065e+06   2.727221e+06
  -3.171495e+06   1.194868e+06
  -1.783557e+06  -7.439194e+05
   2.870496e+05  -1.729312e+06
   1.151391e+06  -1.157545e+06
   3.528747e+05   1.873974e+05
  -9.147218e+05   8.463995e+05
  -1.242454e+06   2.148177e+05
  -4.295621e+05  -7.840540e+05
   5.217156e+05  -8.060849e+05
   5.785051e+05   2.251837e+05
  -3.221384e+05   9.222317e+05
  -1.296155e+06   7.933683e+04
  -1.312921e+06  -1.781007e+06
  -4.432227e+04  -2.839051e+06
   1.795752e+06  -1.905788e+06
   2.882920e+06   3.426563e+05
   2.326433e+06   2.104089e+06
   5.370438e+05   2.218861e+06
  -1.030442e+06   1.097983e+06
  -1.232637e+06   5.925059e+04
  -3.574587e+05  -3.634672e+04
   2.686007e+05   5.314167e+05
  -1.921276e+05   8.488148e+05
  -1.157169e+06   3.988300e+05
  -1.358634e+06  -4.428788e+05
  -3.796817e+05  -8.639739e+05
   7.868565e+05  -4.755709e+05
   8.056655e+05   3.013238e+05
  -4.880965e+05   6.482145e+05
  -1.803115e+06   1.128924e+05
  -1.684475e+06  -9.656596e+05
  -4.086251e+04  -1.707769e+06
   1.711330e+06  -1.425838e+06
   2.055095e+06  -2.698582e+05
   8.580386e+05   8.152327e+05
  -5.902327e+05   9.227474e+05
  -9.368368e+05   9.488123e+04
  -4.228283e+04  -6.776068e+05
   1.054731e+06  -4.938709e+05
   1.258038e+06   4.704132e+05
   4.185103e+05   1.170941e+06
  -6.417155e+05   8.826821e+05
  -9.605713e+05  -8.065873e+03
  -3.382008e+05  -4.917108e+05
   4.702120e+05  -7.416797e+04
   4.857767e+05   7.301849e+05
  -4.629901e+05   9.950465e+05
  -1.467471e+06   3.258886e+05
  -1.435573e+06  -7.934163e+05
  -2.735125e+05  -1.469887e+06
   9.737602e+05  -1.184209e+06
   1.219653e+06  -2.222018e+05
   4.369982e+05   5.890848e+05
  -4.351731e+05   6.297168e+05
  -5.594966e+05   4.813842e+04
  -2.003540e+03  -4.396452e+05
   4.979377e+05  -3.397584e+05
   3.814885e+05   9.308571e+04
  -1.721649e+05   1.960679e+05
  -4.627637e+05  -2.803241e+05
   1.085697e+03  -8.239699e+05
   9.457938e+05  -6.920345e+05
   1.508794e+06   2.694393e+05
   1.053886e+06   1.398360e+06
  -1.607104e+05   1.802626e+06
  -1.200240e+06   1.166053e+06
  -1.369115e+06   1.516437e+04
  -8.337888e+05  -7.782984e+05
  -2.999848e+05  -7.852907e+05
  -1.884567e+05  -3.533307e+05
  -2.622348e+05  -1.580664e+05
  -3.750593e+04  -4.296360e+05
   5.744591e+05  -6.934149e+05
   1.094369e+06  -3.454698e+05
   9.130903e+05   5.604673e+05
  -8.419626e+04   1.230246e+06
  -1.274402e+06   9.054620e+05
  -1.711529e+06  -3.166549e+05
  -9.279794e+05  -1.500732e+06
   5.852313e+05  -1.717426e+06
   1.742710e+06  -8.641260e+05
   1.794617e+06   3.151007e+05
   9.288771e+05   9.684532e+05
  -2.423325e+04   8.855057e+05
  -4.202546e+05   5.545477e+05
  -3.086741e+05   5.309088e+05
  -2.016406e+05   8.018023e+05
  -4.493323e+05   8.244365e+05
  -8.671044e+05   1.925765e+05
  -9.397172e+05  -8.091984e+05
  -3.837380e+05  -1.398443e+06
   4.809594e+05  -1.051965e+06
   9.578196e+05  -2.942496e+04
   6.375003e+05   8.655195e+05
  -1.659783e+05   1.008191e+06
  -7.097226e+05   4.388102e+05
  -5.741540e+05  -2.898439e+05
  -6.105750e+04  -6.619731e+05
   1.996260e+05  -5.971987e+05
  -1.672057e+04  -3.823295e+05
  -2.806601e+05  -2.898475e+05
  -1.943880e+04  -2.987250e+05
   7.733684e+05  -1.770627e+05
   1.414694e+06   2.064893e+05
   1.180344e+06   6.941588e+05
   8.857673e+04   9.587767e+05
  -1.024813e+06   7.911937e+05
  -1.289961e+06   2.878200e+05
  -6.529363e+05  -2.032336e+05
   1.291484e+05  -3.411642e+05
   3.314156e+05  -8.879487e+04
  -2.818842e+04   2.133959e+05
  -3.771297e+05   1.594304e+05
  -3.324704e+05  -2.560332e+05
  -6.524792e+04  -5.655876e+05
   4.194422e+04  -3.604294e+05
  -1.139489e+05   1.502099e+05
  -2.956622e+05   3.148125e+05
  -2.237511e+05  -1.577407e+05
   1.649673e+05  -7.636327e+05
   6.577161e+05  -7.564389e+05
   8.625564e+05  -4.455803e+04
   4.838691e+05   6.798147e+05
  -3.103826e+05   7.245647e+05
  -8.460873e+05   1.284193e+05
  -5.179510e+05  -4.623355e+05
   4.880633e+05  -4.976990e+05
   1.220182e+06   9.688503e+03
   8.939180e+05   6.069525e+05
  -2.442977e+05   8.241988e+05
  -1.137468e+06   5.139545e+05
  -1.015053e+06  -5.737238e+04
  -1.583228e+05  -4.076102e+05
   4.662051e+05  -2.528185e+05
   2.448059e+05   1.819462e+05
  -4.889813e+05   3.262392e+05
  -8.620586e+05  -1.532515e+05
  -3.832874e+05  -9.218894e+05
   5.720918e+05  -1.210794e+06
   1.165051e+06  -5.657326e+05
   9.198739e+05   6.167661e+05
   1.194816e+05   1.361574e+06
  -5.643593e+05   1.019788e+06
  -7.104693e+05  -6.707656e+04
  -3.885344e+05  -8.830509e+05
   7.577453e+04  -7.766982e+05
   3.919424e+05  -9.967509e+04
   4.149795e+05   3.018332e+05
   1.979574e+05   1.288967e+05
   7.633804e+03  -9.495831e+04
   9.688876e+04   1.694295e+05
   3.322168e+05   7.029685e+05
   2.273082e+05   8.253676e+05
  -4.310783e+05   3.074028e+05
  -1.114827e+06  -3.622100e+05
  -1.038111e+06  -6.360164e+05
  -1.435604e+05  -5.051972e+05
   7.171947e+05  -2.969735e+05
   7.659296e+05  -1.567745e+05
   2.055772e+05  -2.711114e+03
  -1.404445e+05   1.590499e+05
   5.988906e+04   1.977177e+05
   2.908729e+05   1.248244e+05
  -6.560089e+02   1.056206e+05
  -5.972410e+05   1.308347e+05
  -7.677221e+05  -5.227825e+04
  -1.745915e+05  -5.060504e+05
   7.336278e+05  -8.074058e+05
   1.214229e+06  -4.676266e+05
   9.283152e+05   3.965424e+05
   1.448660e+05   1.067306e+06
  -5.689400e+05   9.803166e+05
  -7.880169e+05   3.202719e+05
  -4.969974e+05  -2.352204e+05
  -5.395516e+04  -2.673027e+05
   1.323247e+05   5.798051e+03
  -3.136402e+04   7.288564e+04
  -2.598601e+05  -2.512481e+05
  -2.067421e+05  -6.051488e+05
   1.635748e+05  -4.828182e+05
   5.221100e+05   1.625176e+05
   4.794279e+05   7.801125e+05
  -3.001705e+04   7.595873e+05
  -6.170845e+05   8.665645e+04
  -7.278465e+05  -6.331973e+05
  -1.819684e+05  -8.121766e+05
   5.571334e+05  -4.268598e+05
   7.880275e+05   1.017393e+05
   3.348654e+05   4.075202e+05
  -2.205610e+05   4.214134e+05
  -2.195435e+05   2.479524e+05
   2.599857e+05   4.118031e+04
   5.038237e+05  -4.187746e+03
   7.654031e+04   2.170196e+05
  -6.267999e+05   4.995059e+05
  -8.812961e+05   4.350028e+05
  -4.871447e+05  -8.656423e+04
   9.542349e+04  -6.139731e+05
   3.605430e+05  -5.943796e+05
   2.437263e+05  -5.681067e+04
  -9.914441e+03   3.886557e+05
  -2.009861e+05   2.776100e+05
  -2.631173e+05  -1.840670e+05
  -1.663369e+05  -4.369708e+05
   6.635504e+04  -2.544691e+05
   2.867809e+05   7.108506e+04
   3.238685e+05   1.709888e+05
   1.774821e+05   3.417538e+04
   1.195997e+04  -5.904651e+04
  -5.933681e+04   7.638796e+04
  -9.281105e+04   3.068616e+05
  -1.826824e+05   3.333738e+05
  -2.847963e+05   3.171250e+04
  -2.423290e+05  -3.727167e+05
   1.795544e+04  -4.957266e+05
   3.448695e+05  -1.913053e+05
   4.423412e+05   2.674947e+05
   1.412563e+05   4.592597e+05
  -3.647677e+05   2.504208e+05
  -6.139871e+05  -1.062276e+05
  -3.274392e+05  -2.929863e+05
   2.273200e+05  -2.400063e+05
   4.618275e+05  -9.276144e+04
   1.333580e+05   2.963005e+03
  -3.333996e+05  -1.140730e+04
  -3.309420e+05  -1.322234e+05
   1.922493e+05  -2.581082e+05
   6.585023e+05  -1.825397e+05
