
 $NMID
 id='ANONYMOUS ', fmtdat='(2E16.6)'
 volume=1.0
 tramp=1.0
 $END
  -5.266268e+07   1.449490e+06
  -3.333321e+07  -3.128134e+07
   5.249313e+06  -3.605195e+07
   2.565030e+07  -1.532343e+07
   1.643823e+07   5.583386e+06
  -2.498189e+06   9.127306e+06
  -9.678688e+06  -4.514144e+05
  -3.370633e+06  -9.307867e+06
   5.588019e+06  -9.585114e+06
   9.310690e+06  -2.479353e+06
   6.831756e+06   5.813495e+06
   8.609571e+05   8.308917e+06
  -3.756409e+06   2.586891e+06
  -2.510352e+06  -5.452529e+06
   3.583460e+06  -6.649052e+06
   7.663810e+06   9.380400e+05
   4.585905e+06   9.655264e+06
  -3.264323e+06   1.140349e+07
  -9.417235e+06   5.826500e+06
  -1.013105e+07  -1.747090e+06
  -6.218813e+06  -6.767356e+06
  -8.897319e+05  -7.802342e+06
   2.202020e+06  -5.677773e+06
   1.268037e+06  -3.035493e+06
  -1.086198e+06  -2.697226e+06
   9.719700e+04  -4.244058e+06
   5.482086e+06  -4.001503e+06
   9.330561e+06  -2.009331e+05
   6.642495e+06   3.986133e+06
   4.691564e+04   4.626640e+06
  -3.673542e+06   2.110158e+06
  -2.137751e+06  -2.899871e+05
   1.144372e+06  -9.073700e+05
   2.601263e+06  -1.031596e+05
   1.983888e+06   1.806077e+06
   2.974364e+05   3.880392e+06
  -1.746460e+06   3.531199e+06
  -2.734527e+06  -1.373957e+05
  -1.436806e+06  -3.224353e+06
   5.090312e+05  -1.518901e+06
  -1.635403e+04   2.537976e+06
  -2.520863e+06   2.315711e+06
  -2.521532e+06  -2.980037e+06
   1.925566e+06  -5.997404e+06
   6.313705e+06  -1.377636e+06
   5.005479e+06   6.226532e+06
  -1.436462e+06   8.076177e+06
  -6.940211e+06   2.457349e+06
  -6.861314e+06  -4.229399e+06
  -1.987487e+06  -5.971982e+06
   3.420613e+06  -2.819598e+06
   5.363018e+06   1.404048e+06
   2.616080e+06   3.445853e+06
  -2.205667e+06   2.285900e+06
  -4.415777e+06  -7.161333e+05
  -2.031487e+06  -2.549720e+06
   1.585048e+06  -1.368326e+06
   1.792749e+06   1.004531e+06
  -1.170772e+06   1.133196e+06
  -2.604548e+06  -1.365312e+06
   1.059070e+05  -3.269082e+06
   4.125730e+06  -2.141516e+06
   5.168900e+06   9.538156e+05
   2.428690e+06   3.694919e+06
  -1.747095e+06   5.060948e+06
  -4.984107e+06   4.591563e+06
  -5.998051e+06   1.574820e+06
  -4.290784e+06  -3.073536e+06
  -8.451990e+05  -5.981957e+06
   1.749791e+06  -4.794407e+06
   1.756094e+06  -1.477725e+06
   4.494531e+05   8.594226e+04
   3.496076e+05  -8.302575e+05
   1.776061e+06  -1.431349e+06
   2.709718e+06   1.019912e+05
   1.769238e+06   2.131580e+06
  -2.439786e+05   2.153931e+06
  -1.702797e+06   2.725445e+04
  -1.630297e+06  -2.288715e+06
   1.392785e+05  -2.964652e+06
   2.774623e+06  -1.496130e+06
   4.275746e+06   1.288937e+06
   3.030607e+06   3.623000e+06
  -8.322680e+03   3.985596e+06
  -2.081763e+06   2.604334e+06
  -2.083880e+06   1.195589e+06
  -1.824512e+06   7.794563e+05
  -3.011078e+06   5.107425e+05
  -4.418173e+06  -8.074865e+05
  -3.505752e+06  -2.866789e+06
  -4.233535e+04  -4.217212e+06
   3.394508e+06  -3.873863e+06
   4.316603e+06  -1.959934e+06
   2.612269e+06   5.756075e+05
   9.972262e+04   2.245803e+06
  -1.216830e+06   1.848081e+06
  -5.381986e+05  -7.328522e+04
   1.160538e+06  -1.269115e+06
   1.921198e+06  -3.641259e+05
   8.757031e+05   1.201927e+06
  -5.861238e+05   1.105479e+06
  -4.891746e+05  -4.367016e+05
   1.079896e+06  -8.374791e+05
   2.006974e+06   1.153807e+06
   8.533967e+05   3.565508e+06
  -1.532299e+06   3.712732e+06
  -3.320356e+06   1.355019e+06
  -3.564216e+06  -1.504813e+06
  -2.381370e+06  -3.024142e+06
  -3.822176e+05  -2.792126e+06
   1.350222e+06  -1.456075e+06
   1.630033e+06  -1.554429e+05
   5.058642e+05   6.105907e+04
  -3.490112e+05  -7.803591e+05
   4.228847e+05  -1.355379e+06
   1.926229e+06  -5.693677e+05
   2.070003e+06   9.106259e+05
   4.007132e+05   1.445490e+06
  -1.213803e+06   5.711669e+05
  -9.304199e+05  -5.124225e+05
   9.089974e+05  -5.760547e+05
   2.327856e+06   3.677554e+05
   1.833461e+06   1.510621e+06
  -3.174094e+05   2.105579e+06
  -2.465490e+06   1.668582e+06
  -2.880254e+06   2.070508e+05
  -1.227494e+06  -1.312217e+06
   9.465849e+05  -1.498149e+06
   1.565288e+06  -1.740803e+05
   1.729970e+05   1.078465e+06
  -1.565278e+06   7.120453e+05
  -1.760990e+06  -8.380026e+05
  -3.352869e+05  -1.730387e+06
   1.149498e+06  -1.026975e+06
   1.324358e+06   3.246020e+05
   2.695195e+05   8.183724e+05
  -8.043580e+05   5.089017e+04
  -7.184900e+05  -1.093958e+06
   6.411705e+05  -1.432946e+06
   2.075732e+06  -4.822728e+05
   2.052198e+06   1.142185e+06
   3.382573e+05   2.140799e+06
  -1.517258e+06   1.659354e+06
  -1.788870e+06   1.850888e+05
  -5.119239e+05  -9.100999e+05
   6.988957e+05  -8.206343e+05
   6.673290e+05  -4.488458e+04
  -1.472746e+05   4.080549e+05
  -5.654016e+05   2.067050e+05
  -1.648966e+05  -1.256546e+05
   4.747195e+05   2.752734e+04
   5.601779e+05   6.889870e+05
  -2.200553e+05   1.234715e+06
  -1.450259e+06   8.955622e+05
  -2.136762e+06  -4.857156e+05
  -1.450626e+06  -2.043867e+06
   3.026999e+05  -2.495370e+06
   1.731398e+06  -1.427316e+06
   1.777951e+06   1.830668e+05
   8.757074e+05   1.002721e+06
   2.743639e+05   7.457432e+05
   4.296774e+05   2.511043e+05
   6.140549e+05   3.029504e+05
   8.345494e+04   7.674382e+05
  -9.288379e+05   9.190046e+05
  -1.529518e+06   3.003949e+05
  -1.080391e+06  -8.089969e+05
   3.139675e+05  -1.541585e+06
   1.832694e+06  -1.068910e+06
   2.320117e+06   5.743965e+05
   1.123894e+06   2.209623e+06
  -1.088023e+06   2.427233e+06
  -2.649943e+06   1.019405e+06
  -2.440221e+06  -7.356338e+05
  -9.837936e+05  -1.441433e+06
   2.495319e+05  -1.019190e+06
   4.666685e+05  -5.240039e+05
   1.424446e+05  -7.337913e+05
   1.440523e+05  -1.300481e+06
   7.059180e+05  -1.294880e+06
   1.324378e+06  -2.942469e+05
   1.337110e+06   1.151717e+06
   5.107772e+05   1.968402e+06
  -6.886467e+05   1.458725e+06
  -1.331819e+06  -3.929687e+04
  -8.150977e+05  -1.342522e+06
   4.244074e+05  -1.442530e+06
   1.209080e+06  -4.253022e+05
   8.435381e+05   7.063184e+05
  -1.181625e+05   1.107196e+06
  -5.503599e+05   8.212342e+05
  -9.870949e+04   4.498448e+05
   4.255580e+05   3.619650e+05
   4.367261e+04   3.977015e+05
  -1.185229e+06   1.946896e+05
  -2.109044e+06  -3.875850e+05
  -1.644606e+06  -1.108646e+06
   5.272579e+04  -1.480474e+06
   1.646334e+06  -1.140384e+06
   1.901156e+06  -2.509684e+05
   8.734036e+05   5.167204e+05
  -2.666230e+05   5.766689e+05
  -5.319186e+05   3.490840e+04
  -2.545256e+04  -4.154560e+05
   4.685141e+05  -2.432667e+05
   4.842642e+05   3.648238e+05
   2.190286e+05   7.421148e+05
   6.848038e+04   4.826727e+05
   1.587471e+05  -1.032030e+05
   3.247302e+05  -2.931022e+05
   2.816291e+05   2.517950e+05
  -1.910692e+05   1.011673e+06
  -9.575422e+05   1.069282e+06
  -1.381262e+06   1.472688e+05
  -8.324696e+05  -9.506540e+05
   4.473301e+05  -1.148592e+06
   1.281886e+06  -3.074926e+05
   7.327240e+05   6.152028e+05
  -7.440072e+05   6.554859e+05
  -1.652631e+06  -1.470425e+05
  -1.034952e+06  -9.412493e+05
   5.311121e+05  -1.034551e+06
   1.589902e+06  -4.621089e+05
   1.291549e+06   2.413502e+05
   1.251918e+05   5.468160e+05
  -6.851677e+05   2.655231e+05
  -3.884889e+05  -3.060519e+05
   6.169798e+05  -5.080757e+05
   1.205506e+06   1.249191e+05
   6.430350e+05   1.228093e+06
  -6.621822e+05   1.720382e+06
  -1.552008e+06   8.577843e+05
  -1.269346e+06  -8.216835e+05
  -1.514746e+05  -1.857750e+06
   8.136315e+05  -1.319934e+06
   9.631192e+05   2.093215e+05
   4.150751e+05   1.256022e+06
  -2.597082e+05   1.011679e+06
  -5.880516e+05   7.527054e+04
  -4.712349e+05  -4.158553e+05
  -1.647299e+05  -1.593219e+05
  -5.491007e+04   1.025787e+05
  -2.824631e+05  -2.954752e+05
  -4.989711e+05  -1.007314e+06
  -1.662223e+05  -1.134727e+06
   7.487692e+05  -4.025642e+05
   1.511367e+06   5.275461e+05
   1.301751e+06   9.166429e+05
   1.732098e+05   7.292708e+05
  -8.957343e+05   3.974063e+05
  -1.028170e+06   1.556606e+05
  -3.768773e+05  -5.556076e+04
   1.560388e+05  -2.248066e+05
   4.788989e+04  -2.248261e+05
  -2.643090e+05  -1.198030e+05
  -4.692038e+04  -1.338837e+05
   6.857830e+05  -2.105579e+05
   1.077077e+06   3.904751e+04
   4.310245e+05   7.073256e+05
  -8.925888e+05   1.181860e+06
  -1.767292e+06   7.459206e+05
  -1.440786e+06  -4.658733e+05
  -2.453009e+05  -1.454917e+06
   8.254730e+05  -1.405296e+06
   1.089929e+06  -5.297913e+05
   6.631141e+05   2.583007e+05
   1.296688e+05   3.680946e+05
  -6.455554e+04   5.660727e+04
   9.427248e+04  -1.764602e+04
   3.032994e+05   3.951177e+05
   2.327202e+05   8.467747e+05
  -1.989790e+05   6.947490e+05
  -6.906600e+05  -1.419996e+05
  -7.335831e+05  -9.901398e+05
  -1.011500e+05  -1.054300e+06
   7.683007e+05  -2.351221e+05
   1.042083e+06   7.599651e+05
   3.382408e+05   1.125740e+06
  -7.425758e+05   6.849253e+05
  -1.152676e+06  -9.607118e+04
  -5.458041e+05  -6.419570e+05
   3.019267e+05  -6.992624e+05
   4.024323e+05  -3.819348e+05
  -2.460913e+05  -2.428912e+04
  -6.688506e+05   2.298636e+04
  -1.482688e+05  -3.189343e+05
   8.705018e+05  -6.807351e+05
   1.326976e+06  -5.333228e+05
   7.977376e+05   1.944758e+05
  -1.148401e+05   8.969248e+05
  -5.909918e+05   8.836820e+05
  -4.413465e+05   1.729126e+05
  -4.313027e+04  -4.877177e+05
   2.498166e+05  -4.455907e+05
   3.500129e+05   1.548920e+05
   2.499264e+05   6.002510e+05
  -5.319327e+04   4.428012e+05
  -3.985559e+05  -5.168337e+04
  -4.940744e+05  -3.010993e+05
  -2.547740e+05  -1.087246e+05
   4.308102e+04   1.554125e+05
   1.010925e+05   5.639677e+04
  -6.686901e+03  -3.470746e+05
   3.980975e+04  -5.539260e+05
   3.114200e+05  -2.241646e+05
   4.616047e+05   3.801167e+05
   1.581641e+05   6.531264e+05
  -4.198562e+05   3.143081e+05
  -6.780156e+05  -2.913466e+05
  -2.493649e+05  -5.896118e+05
   5.325586e+05  -3.707698e+05
   9.094699e+05   8.736865e+04
   4.886162e+05   3.968181e+05
  -3.039443e+05   4.126121e+05
  -6.571057e+05   2.318468e+05
  -2.633408e+05   2.317662e+04
   3.420133e+05  -5.826640e+04
   4.046561e+05   6.984130e+04
  -1.793706e+05   2.827092e+05
  -7.610214e+05   2.502617e+05
