
 $NMID
 id='ANONYMOUS ', fmtdat='(2E16.6)'
 volume=1.0
 tramp=1.0
 $END
  -3.038103e+07  -9.909610e+05
  -1.886878e+07  -1.655450e+07
   2.212539e+06  -1.956062e+07
   1.397639e+07  -1.045516e+07
   1.005076e+07   8.636940e+05
  -3.814664e+05   5.223158e+06
  -5.782532e+06   1.339761e+06
  -3.327529e+06  -5.026555e+06
   2.241274e+06  -7.031863e+06
   5.522580e+06  -2.619857e+06
   4.431303e+06   3.832473e+06
   4.461001e+05   5.778617e+06
  -2.718763e+06   1.338293e+06
  -1.977278e+06  -4.474787e+06
   1.938991e+06  -5.198651e+06
   4.764753e+06   7.712211e+03
   3.135897e+06   5.878895e+06
  -1.798749e+06   7.091205e+06
  -5.796325e+06   3.304379e+06
  -5.885578e+06  -1.712778e+06
  -2.783785e+06  -4.335511e+06
   3.216105e+05  -3.873107e+06
   8.003945e+05  -2.270883e+06
  -1.016672e+06  -1.892257e+06
  -2.005406e+06  -3.178257e+06
   4.764223e+05  -4.160517e+06
   5.070853e+06  -2.703726e+06
   7.203949e+06   7.523965e+05
   4.233676e+06   3.407951e+06
  -1.115103e+06   3.177100e+06
  -3.678338e+06   7.643715e+05
  -1.626695e+06  -1.467152e+06
   2.038246e+06  -1.778912e+06
   3.459949e+06  -1.349044e+04
   1.878811e+06   2.537599e+06
  -6.000917e+05   3.681086e+06
  -1.778742e+06   1.995194e+06
  -1.159627e+06  -1.110266e+06
   1.619624e+05  -2.175857e+06
   5.989745e+05   1.654374e+05
  -4.978605e+05   2.857505e+06
  -1.965509e+06   2.030093e+06
  -1.795541e+06  -1.652226e+06
   4.963919e+05  -3.482218e+06
   2.831950e+06  -8.191161e+05
   2.540600e+06   3.423698e+06
  -6.831698e+05   4.470113e+06
  -4.205799e+06   1.317567e+06
  -4.878875e+06  -2.721914e+06
  -1.945791e+06  -4.145030e+06
   2.232347e+06  -2.429651e+06
   4.187207e+06   4.374925e+05
   2.439131e+06   2.135652e+06
  -1.065034e+06   1.643258e+06
  -2.843656e+06  -1.994630e+05
  -1.490637e+06  -1.431595e+06
   9.366604e+05  -8.759455e+05
   1.494460e+06   5.818161e+05
  -1.583701e+05   1.086288e+06
  -1.592347e+06   6.650481e+04
  -7.488918e+05  -1.228321e+06
   1.631539e+06  -1.339538e+06
   2.980782e+06  -7.199460e+03
   1.688549e+06   1.977255e+06
  -1.443067e+06   3.426594e+06
  -4.109897e+06   3.140804e+06
  -4.497646e+06   6.912273e+05
  -2.654072e+06  -2.616015e+06
  -2.741187e+05  -4.394421e+06
   9.300364e+05  -3.582845e+06
   8.009763e+05  -1.676679e+06
   5.922701e+05  -8.071282e+05
   1.276593e+06  -1.075903e+06
   2.358305e+06  -7.832263e+05
   2.550074e+06   8.819271e+05
   1.293036e+06   2.511788e+06
  -6.718696e+05   2.221745e+06
  -1.979746e+06  -5.369384e+03
  -1.639838e+06  -2.253557e+06
   2.653571e+05  -2.629278e+06
   2.424597e+06  -9.201392e+05
   3.114463e+06   1.452897e+06
   1.769313e+06   2.788361e+06
  -3.098947e+05   2.503131e+06
  -1.340571e+06   1.434839e+06
  -1.133082e+06   7.922877e+05
  -1.153676e+06   8.247784e+05
  -2.348915e+06   6.801732e+05
  -3.604693e+06  -4.382650e+05
  -2.972575e+06  -2.240113e+06
  -1.465749e+05  -3.551515e+06
   2.899692e+06  -3.340641e+06
   3.834487e+06  -1.542459e+06
   2.219385e+06   7.894783e+05
  -2.135531e+05   2.082785e+06
  -1.309490e+06   1.483150e+06
  -4.482400e+05  -1.837157e+05
   1.084414e+06  -1.059193e+06
   1.558195e+06  -2.740154e+05
   5.879271e+05   9.889771e+05
  -5.970292e+05   9.825473e+05
  -6.231034e+05  -2.899062e+05
   5.238502e+05  -9.900249e+05
   1.575790e+06   2.119610e+05
   1.325415e+06   2.383154e+06
  -3.103019e+05   3.328691e+06
  -2.320988e+06   1.977152e+06
  -3.354289e+06  -6.338840e+05
  -2.624010e+06  -2.534251e+06
  -5.859865e+05  -2.606564e+06
   1.222802e+06  -1.324272e+06
   1.478644e+06  -9.852967e+04
   4.356359e+05   4.541064e+04
  -3.213173e+05  -6.537139e+05
   2.742977e+05  -1.068863e+06
   1.481791e+06  -4.810338e+05
   1.684889e+06   6.110605e+05
   4.240331e+05   1.103002e+06
  -9.805097e+05   5.550519e+05
  -9.314069e+05  -3.784505e+05
   6.329178e+05  -7.033021e+05
   2.126255e+06  -2.647054e+04
   1.921235e+06   1.185572e+06
  -2.225876e+04   1.994510e+06
  -2.080227e+06   1.660603e+06
  -2.493386e+06   2.956704e+05
  -1.046830e+06  -1.030972e+06
   7.519116e+05  -1.170596e+06
   1.202818e+06  -1.190383e+05
   7.654092e+04   8.608634e+05
  -1.304173e+06   6.071708e+05
  -1.526012e+06  -6.108854e+05
  -4.495238e+05  -1.435780e+06
   8.306733e+05  -1.016312e+06
   1.152272e+06   8.171907e+04
   3.587462e+05   6.216709e+05
  -6.064926e+05   7.455546e+04
  -6.022513e+05  -9.055165e+05
   5.581156e+05  -1.223853e+06
   1.790499e+06  -4.095599e+05
   1.759806e+06   9.679545e+05
   3.253849e+05   1.805796e+06
  -1.217148e+06   1.439467e+06
  -1.497744e+06   2.413857e+05
  -5.060559e+05  -7.324226e+05
   5.470901e+05  -7.499781e+05
   6.522038e+05  -5.927745e+04
  -2.404113e+04   4.800505e+05
  -5.626870e+05   3.563057e+05
  -3.760757e+05  -9.631532e+04
   2.532298e+05  -1.579892e+05
   5.320307e+05   4.066721e+05
  -5.286480e+04   1.013705e+06
  -1.174870e+06   8.242177e+05
  -1.838882e+06  -3.476360e+05
  -1.279646e+06  -1.716228e+06
   2.050534e+05  -2.183902e+06
   1.459637e+06  -1.372131e+06
   1.623931e+06   1.980331e+04
   9.498383e+05   9.108028e+05
   3.460311e+05   8.622902e+05
   2.801632e+05   3.756634e+05
   3.768182e+05   2.196068e+05
   4.947879e+04   5.633641e+05
  -7.230542e+05   8.290001e+05
  -1.321591e+06   3.818468e+05
  -1.064629e+06  -6.750505e+05
   1.367518e+05  -1.445619e+06
   1.549962e+06  -1.058036e+06
   2.060435e+06   4.057303e+05
   1.089699e+06   1.841427e+06
  -7.700521e+05   2.088095e+06
  -2.160313e+06   1.005456e+06
  -2.156364e+06  -4.440800e+05
  -1.054352e+06  -1.183169e+06
   6.965237e+04  -1.015939e+06
   4.697783e+05  -6.198139e+05
   3.023636e+05  -6.556723e+05
   2.146901e+05  -1.024584e+06
   5.667640e+05  -1.036283e+06
   1.081763e+06  -2.401724e+05
   1.151538e+06   9.855196e+05
   4.664874e+05   1.701254e+06
  -5.836137e+05   1.278127e+06
  -1.160197e+06   2.094809e+04
  -7.561336e+05  -1.079071e+06
   2.450485e+05  -1.227903e+06
   9.069304e+05  -4.834312e+05
   6.986610e+05   4.243051e+05
   2.143224e+04   8.415069e+05
  -3.053480e+05   7.141882e+05
  -4.605659e+03   4.398785e+05
   3.521840e+05   3.415182e+05
   2.993210e+04   3.586445e+05
  -9.626787e+05   2.025655e+05
  -1.749513e+06  -2.727187e+05
  -1.432454e+06  -8.717852e+05
  -6.446145e+04  -1.193449e+06
   1.295633e+06  -9.678159e+05
   1.585701e+06  -3.156762e+05
   7.771087e+05   2.992965e+05
  -1.798234e+05   4.365876e+05
  -4.159587e+05   8.548559e+04
   2.161987e+04  -2.900274e+05
   4.439985e+05  -2.023892e+05
   4.096997e+05   3.120112e+05
   1.147131e+05   6.798710e+05
  -1.772923e+04   4.377392e+05
   1.337017e+05  -1.572763e+05
   3.311552e+05  -3.519479e+05
   2.644293e+05   1.967291e+05
  -1.848188e+05   9.170083e+05
  -8.054638e+05   9.248333e+05
  -1.094263e+06   7.321672e+04
  -6.296806e+05  -8.297159e+05
   3.818424e+05  -9.150468e+05
   1.056601e+06  -1.878520e+05
   6.350789e+05   5.523376e+05
  -6.045590e+05   5.953851e+05
  -1.465828e+06  -3.654239e+04
  -1.034278e+06  -7.485217e+05
   3.348933e+05  -9.678661e+05
   1.371355e+06  -5.680638e+05
   1.197831e+06   9.950245e+04
   1.719052e+05   4.858933e+05
  -5.708208e+05   2.871088e+05
  -3.080930e+05  -2.343694e+05
   5.786844e+05  -4.141500e+05
   1.052277e+06   1.605062e+05
   4.986470e+05   1.108160e+06
  -6.574181e+05   1.486421e+06
  -1.397524e+06   7.122243e+05
  -1.118619e+06  -7.351100e+05
  -1.494992e+05  -1.643159e+06
   6.835912e+05  -1.216008e+06
   8.528045e+05   1.051415e+05
   4.448367e+05   1.072594e+06
  -1.231496e+05   9.215168e+05
  -4.836680e+05   1.062547e+05
  -4.798839e+05  -3.597362e+05
  -2.149048e+05  -1.468927e+05
  -1.859261e+04   1.065813e+05
  -1.523493e+05  -2.249272e+05
  -4.148014e+05  -8.603974e+05
  -2.440516e+05  -9.926281e+05
   5.572952e+05  -3.641182e+05
   1.344979e+06   4.386610e+05
   1.227908e+06   7.698470e+05
   1.695250e+05   6.181303e+05
  -8.439325e+05   3.638495e+05
  -9.179404e+05   1.803302e+05
  -2.695983e+05  -1.321128e+04
   1.603702e+05  -1.959828e+05
  -4.354209e+04  -2.229090e+05
  -3.216853e+05  -1.320823e+05
  -1.195911e+04  -1.267743e+05
   6.902369e+05  -1.739126e+05
   9.358863e+05   5.172554e+04
   2.601521e+05   6.209266e+05
  -8.577122e+05   1.002705e+06
  -1.494275e+06   5.943096e+05
  -1.168363e+06  -4.611459e+05
  -1.929247e+05  -1.289407e+06
   6.955028e+05  -1.202103e+06
   9.565647e+05  -4.136432e+05
   6.002611e+05   2.653131e+05
   8.036590e+04   3.253193e+05
  -1.338899e+05   1.354035e+04
   4.710337e+04  -6.657007e+04
   3.011235e+05   3.128221e+05
   2.406121e+05   7.331409e+05
  -1.901188e+05   5.937782e+05
  -6.291383e+05  -1.730644e+05
  -6.055425e+05  -9.241260e+05
  -2.089758e+03  -9.268552e+05
   7.309271e+05  -1.392130e+05
   8.982425e+05   7.368662e+05
   2.458125e+05   9.871501e+05
  -6.695569e+05   5.443358e+05
  -9.726185e+05  -1.104371e+05
  -4.255579e+05  -5.141151e+05
   2.683459e+05  -5.405030e+05
   2.902326e+05  -3.079097e+05
  -2.888346e+05  -3.670994e+04
  -6.044860e+05   1.293382e+04
  -1.035926e+05  -2.686608e+05
   7.577264e+05  -6.062315e+05
   1.089962e+06  -5.116264e+05
   6.185128e+05   1.248278e+05
  -1.099593e+05   7.569675e+05
  -4.584846e+05   7.341926e+05
  -3.237064e+05   8.949124e+04
  -5.561139e+03  -4.610145e+05
   2.374216e+05  -3.535271e+05
   3.199651e+05   1.970213e+05
   2.089189e+05   5.285024e+05
  -7.284930e+04   3.322260e+05
  -3.501001e+05  -7.341236e+04
  -4.024809e+05  -2.228844e+05
  -2.154456e+05  -5.574558e+04
  -2.229336e+03   9.163742e+04
   7.055882e+04  -5.287673e+04
   7.541534e+04  -3.583529e+05
   1.711950e+05  -4.349822e+05
   3.312471e+05  -8.657414e+04
   3.310954e+05   4.220121e+05
   2.643266e+04   5.994257e+05
  -4.048638e+05   2.477780e+05
  -5.564301e+05  -3.050802e+05
  -1.883825e+05  -5.467535e+05
   4.484975e+05  -3.104780e+05
   7.615657e+05   1.131244e+05
   4.074575e+05   3.526407e+05
  -2.745687e+05   3.121019e+05
  -5.674037e+05   1.393691e+05
  -1.817469e+05   9.808068e+02
   3.778914e+05  -1.000427e+04
   3.928876e+05   1.293018e+05
  -2.081479e+05   2.988562e+05
  -7.608651e+05   2.293569e+05
