
 $NMID
 id='ANONYMOUS ', fmtdat='(2E16.6)'
 volume=1.0
 tramp=1.0
 $END
   3.035454e+07  -6.079813e+04
   1.959958e+07   1.544401e+07
  -1.155131e+06   1.947899e+07
  -1.342736e+07   1.138170e+07
  -1.027051e+07  -3.778813e+04
  -3.449094e+04  -5.272722e+06
   5.812323e+06  -1.863093e+06
   3.798866e+06   4.867951e+06
  -1.812935e+06   7.420329e+06
  -5.472838e+06   3.062835e+06
  -4.669487e+06  -3.731780e+06
  -6.623244e+05  -5.923618e+06
   2.746329e+06  -1.416269e+06
   2.220273e+06   4.627199e+06
  -1.732464e+06   5.518593e+06
  -4.841455e+06   2.828309e+05
  -3.469503e+06  -5.808084e+06
   1.487233e+06  -7.260556e+06
   5.709025e+06  -3.540001e+06
   5.944172e+06   1.570847e+06
   2.826669e+06   4.255505e+06
  -2.665908e+05   3.752231e+06
  -5.841888e+05   2.155097e+06
   1.389095e+06   1.933804e+06
   2.319870e+06   3.410566e+06
  -4.225849e+05   4.453553e+06
  -5.283649e+06   2.928033e+06
  -7.511573e+06  -6.405121e+05
  -4.414655e+06  -3.418027e+06
   1.181127e+06  -3.271571e+06
   3.888508e+06  -7.983833e+05
   1.711867e+06   1.625748e+06
  -2.234703e+06   2.031496e+06
  -3.786861e+06   9.009942e+04
  -2.062272e+06  -2.732328e+06
   6.171726e+05  -3.924021e+06
   1.818584e+06  -2.040610e+06
   1.103146e+06   1.216799e+06
  -2.418509e+05   2.200685e+06
  -6.201358e+05  -3.247037e+05
   5.021420e+05  -3.096102e+06
   1.985679e+06  -2.215879e+06
   1.929593e+06   1.572724e+06
  -2.373665e+05   3.529547e+06
  -2.659044e+06   9.789625e+05
  -2.640855e+06  -3.267989e+06
   4.517320e+05  -4.472463e+06
   4.176116e+06  -1.481047e+06
   5.144038e+06   2.583499e+06
   2.240073e+06   4.203693e+06
  -2.195509e+06   2.655417e+06
  -4.403650e+06  -2.263055e+05
  -2.686462e+06  -2.085028e+06
   9.672037e+05  -1.754085e+06
   2.910044e+06   4.585485e+04
   1.610864e+06   1.369608e+06
  -9.034188e+05   9.322356e+05
  -1.598204e+06  -5.314608e+05
   3.745612e+04  -1.185046e+06
   1.635135e+06  -2.789364e+05
   9.645820e+05   1.112745e+06
  -1.448700e+06   1.456665e+06
  -3.000069e+06   2.341834e+05
  -1.830559e+06  -1.886064e+06
   1.381938e+06  -3.560252e+06
   4.195255e+06  -3.362102e+06
   4.633222e+06  -8.178608e+05
   2.770432e+06   2.645673e+06
   4.007460e+05   4.533167e+06
  -7.859434e+05   3.764972e+06
  -7.207050e+05   1.859028e+06
  -6.439645e+05   9.653892e+05
  -1.430882e+06   1.193810e+06
  -2.545182e+06   8.329486e+05
  -2.725016e+06  -9.415070e+05
  -1.405146e+06  -2.678639e+06
   6.962872e+05  -2.397193e+06
   2.146483e+06  -4.442439e+04
   1.824878e+06   2.361512e+06
  -2.114016e+05   2.788819e+06
  -2.523671e+06   1.008774e+06
  -3.262694e+06  -1.456046e+06
  -1.872264e+06  -2.827529e+06
   2.568824e+05  -2.540343e+06
   1.297858e+06  -1.478131e+06
   1.090058e+06  -8.622384e+05
   1.147279e+06  -9.353713e+05
   2.434743e+06  -8.276078e+05
   3.802033e+06   3.107631e+05
   3.210798e+06   2.239888e+06
   2.855815e+05   3.736806e+06
  -2.948032e+06   3.621597e+06
  -4.005940e+06   1.734584e+06
  -2.357938e+06  -7.923664e+05
   1.940089e+05  -2.214632e+06
   1.360029e+06  -1.590302e+06
   4.747242e+05   1.918287e+05
  -1.117976e+06   1.147725e+06
  -1.623524e+06   3.388453e+05
  -6.357835e+05  -1.014983e+06
   6.083513e+05  -1.058309e+06
   6.918959e+05   2.798972e+05
  -4.804134e+05   1.101874e+06
  -1.670912e+06  -7.993138e+04
  -1.559939e+06  -2.408075e+06
   1.073953e+05  -3.562225e+06
   2.343259e+06  -2.267024e+06
   3.608993e+06   4.913110e+05
   2.918985e+06   2.594489e+06
   7.280918e+05   2.760626e+06
  -1.255688e+06   1.444249e+06
  -1.565129e+06   1.468457e+05
  -4.615864e+05  -3.282686e+04
   3.634105e+05   6.775543e+05
  -2.415789e+05   1.127932e+06
  -1.527529e+06   5.597542e+05
  -1.791437e+06  -5.671346e+05
  -4.966087e+05  -1.135671e+06
   1.010070e+06  -6.268599e+05
   1.011287e+06   3.642022e+05
  -6.326427e+05   7.893622e+05
  -2.264501e+06   1.333187e+05
  -2.107575e+06  -1.183152e+06
  -6.600279e+04  -2.131866e+06
   2.141245e+06  -1.847047e+06
   2.626067e+06  -4.069814e+05
   1.140156e+06   1.042181e+06
  -7.448471e+05   1.248320e+06
  -1.248440e+06   1.654654e+05
  -1.028244e+05  -8.964408e+05
   1.351062e+06  -6.841245e+05
   1.634298e+06   5.820348e+05
   5.413277e+05   1.498101e+06
  -8.281114e+05   1.118775e+06
  -1.224741e+06  -2.588740e+04
  -4.156745e+05  -6.375317e+05
   6.279992e+05  -1.040620e+05
   6.638637e+05   9.309810e+05
  -5.493050e+05   1.308110e+06
  -1.876107e+06   4.899800e+05
  -1.888332e+06  -9.618241e+05
  -4.074607e+05  -1.891565e+06
   1.227353e+06  -1.562557e+06
   1.570035e+06  -3.144771e+05
   5.671346e+05   7.519387e+05
  -5.471800e+05   8.157887e+05
  -6.954722e+05   8.489222e+04
   8.517439e+02  -5.238898e+05
   5.945213e+05  -4.125987e+05
   4.264252e+05   9.332671e+04
  -2.488427e+05   1.988115e+05
  -5.845671e+05  -3.921207e+05
   6.283947e+03  -1.069116e+06
   1.205888e+06  -9.158409e+05
   1.953485e+06   2.987487e+05
   1.411095e+06   1.765093e+06
  -1.393499e+05   2.316895e+06
  -1.495286e+06   1.513027e+06
  -1.728386e+06   4.580044e+04
  -1.053574e+06  -9.401941e+05
  -4.009020e+05  -9.264102e+05
  -2.941043e+05  -4.034456e+05
  -3.884734e+05  -2.114176e+05
  -7.008329e+04  -5.815288e+05
   7.284802e+05  -9.045073e+05
   1.385777e+06  -4.596838e+05
   1.161190e+06   6.786214e+05
  -8.492483e+04   1.546605e+06
  -1.601267e+06   1.183313e+06
  -2.196855e+06  -3.522690e+05
  -1.225484e+06  -1.903459e+06
   7.252750e+05  -2.232400e+06
   2.236061e+06  -1.149174e+06
   2.300944e+06   3.777120e+05
   1.176431e+06   1.212257e+06
  -2.687890e+04   1.093492e+06
  -4.870744e+05   6.870974e+05
  -3.185711e+05   7.005002e+05
  -2.011018e+05   1.075545e+06
  -5.577238e+05   1.104308e+06
  -1.126843e+06   2.887777e+05
  -1.247762e+06  -1.001646e+06
  -5.509724e+05  -1.781467e+06
   5.734231e+05  -1.370746e+06
   1.226446e+06  -6.610376e+04
   8.412336e+05   1.106479e+06
  -2.043739e+05   1.305020e+06
  -9.286736e+05   5.562556e+05
  -7.521969e+05  -4.034101e+05
  -6.667169e+04  -8.774385e+05
   2.798317e+05  -7.682708e+05
  -1.757037e+04  -4.721952e+05
  -3.805762e+05  -3.521221e+05
  -4.199063e+04  -3.792887e+05
   1.003657e+06  -2.504544e+05
   1.849121e+06   2.223085e+05
   1.543977e+06   8.641409e+05
   1.214144e+05   1.250507e+06
  -1.321471e+06   1.064886e+06
  -1.659558e+06   3.976285e+05
  -8.360443e+05  -2.743373e+05
   1.685350e+05  -4.609351e+05
   4.326728e+05  -1.110395e+05
  -1.687093e+04   2.982607e+05
  -4.666077e+05   2.265060e+05
  -4.419214e+05  -3.155764e+05
  -1.339838e+05  -7.169496e+05
   1.360163e+04  -4.634554e+05
  -1.372153e+05   1.781906e+05
  -3.460541e+05   3.923561e+05
  -2.882641e+05  -1.973262e+05
   1.686229e+05  -9.786246e+05
   8.178361e+05  -1.003110e+06
   1.140398e+06  -1.088617e+05
   6.814364e+05   8.544957e+05
  -3.711225e+05   9.698381e+05
  -1.101996e+06   2.250320e+05
  -6.883507e+05  -5.649022e+05
   6.152101e+05  -6.525224e+05
   1.555216e+06  -1.868430e+04
   1.133778e+06   7.523334e+05
  -3.096031e+05   1.043983e+06
  -1.432837e+06   6.637363e+05
  -1.279615e+06  -5.539081e+04
  -2.043097e+05  -5.103167e+05
   5.921047e+05  -3.287973e+05
   3.304200e+05   2.333080e+05
  -6.020728e+05   4.522748e+05
  -1.116264e+06  -1.413290e+05
  -5.551371e+05  -1.157838e+06
   6.553044e+05  -1.589026e+06
   1.458151e+06  -7.931149e+05
   1.207062e+06   7.430058e+05
   2.127663e+05   1.734809e+06
  -6.815327e+05   1.315238e+06
  -9.078264e+05  -7.504008e+04
  -5.147130e+05  -1.118369e+06
   8.945792e+04  -9.844875e+05
   5.052583e+05  -1.331332e+05
   5.266283e+05   3.657592e+05
   2.397349e+05   1.506487e+05
   1.323721e+04  -1.158300e+05
   1.583917e+05   2.270628e+05
   4.644095e+05   8.933845e+05
   3.012863e+05   1.043616e+06
  -5.666513e+05   4.064293e+05
  -1.439231e+06  -4.181405e+05
  -1.333818e+06  -7.724736e+05
  -2.016460e+05  -6.461973e+05
   8.876267e+05  -4.125304e+05
   9.676683e+05  -2.249183e+05
   2.794539e+05   7.935923e+00
  -1.658576e+05   2.118447e+05
   6.229255e+04   2.390660e+05
   3.539091e+05   1.342292e+05
   1.321605e+04   1.340724e+05
  -7.340463e+05   2.030892e+05
  -9.900003e+05  -2.624429e+04
  -2.819328e+05  -6.457990e+05
   8.823228e+05  -1.082724e+06
   1.553517e+06  -6.712411e+05
   1.238687e+06   4.538277e+05
   2.428872e+05   1.358396e+06
  -6.928721e+05   1.290880e+06
  -9.972108e+05   4.625455e+05
  -6.445802e+05  -2.659397e+05
  -9.166586e+04  -3.409708e+05
   1.490517e+05  -1.293576e+04
  -4.475465e+04   7.839402e+04
  -3.331756e+05  -3.180405e+05
  -2.824253e+05  -7.671908e+05
   1.832487e+05  -6.319641e+05
   6.724687e+05   1.686054e+05
   6.648127e+05   9.631246e+05
   2.242465e+04   9.785127e+05
  -7.734603e+05   1.621390e+05
  -9.704922e+05  -7.577882e+05
  -2.861450e+05  -1.034916e+06
   6.913658e+05  -5.905637e+05
   1.027271e+06   8.751895e+04
   4.616769e+05   5.233256e+05
  -2.651959e+05   5.719774e+05
  -2.893347e+05   3.332477e+05
   3.145456e+05   3.276537e+04
   6.407031e+05  -3.199132e+04
   1.154875e+05   2.789868e+05
  -7.812773e+05   6.667449e+05
  -1.128767e+06   5.827606e+05
  -6.499963e+05  -1.051820e+05
   9.222785e+04  -8.005517e+05
   4.535703e+05  -7.879252e+05
   3.310289e+05  -9.944490e+04
   1.644925e+04   4.904237e+05
  -2.409474e+05   3.769637e+05
  -3.449152e+05  -2.051695e+05
  -2.368107e+05  -5.521766e+05
   6.806912e+04  -3.468430e+05
   3.720838e+05   6.947984e+04
   4.302474e+05   2.174233e+05
   2.295856e+05   4.738272e+04
   2.950194e+03  -9.111642e+04
  -7.303212e+04   7.006580e+04
  -7.842818e+04   3.857473e+05
  -1.812097e+05   4.569716e+05
  -3.517198e+05   8.869576e+04
  -3.536454e+05  -4.439902e+05
  -3.415613e+04  -6.336875e+05
   4.236833e+05  -2.712079e+05
   5.929614e+05   3.094256e+05
   2.128418e+05   5.748113e+05
  -4.618800e+05   3.415575e+05
  -8.042081e+05  -9.837107e+04
  -4.398273e+05  -3.598333e+05
   2.801202e+05  -3.331777e+05
   5.931975e+05  -1.587460e+05
   1.862628e+05  -5.781095e+03
  -4.071691e+05   1.655670e+04
  -4.225055e+05  -1.324590e+05
   2.172218e+05  -3.274173e+05
   8.079096e+05  -2.662902e+05
