
 $NMID
 id='ANONYMOUS ', fmtdat='(2E16.6)'
 volume=1.0
 tramp=1.0
 $END
   4.367141e+07   8.279272e+05
   2.652649e+07   2.585241e+07
  -4.837067e+06   2.896696e+07
  -2.096366e+07   1.279274e+07
  -1.349947e+07  -3.779273e+06
   1.770382e+06  -7.365469e+06
   7.946212e+06  -2.036581e+05
   3.218233e+06   7.477604e+06
  -4.221215e+06   8.437349e+06
  -7.712381e+06   2.429590e+06
  -5.786322e+06  -5.145562e+06
  -5.793541e+05  -7.361203e+06
   3.447899e+06  -2.016904e+06
   2.329740e+06   5.166998e+06
  -2.920622e+06   6.066534e+06
  -6.423877e+06  -6.502385e+05
  -3.840319e+06  -8.170071e+06
   2.849708e+06  -9.572431e+06
   8.069356e+06  -4.602246e+06
   8.396003e+06   2.000074e+06
   4.627902e+06   5.997859e+06
   9.956580e+04   6.224486e+06
  -1.805098e+06   4.101254e+06
  -2.490327e+05   2.379137e+06
   1.660253e+06   2.907495e+06
  -2.172709e+05   4.373480e+06
  -5.506156e+06   3.553978e+06
  -8.676156e+06  -2.961028e+05
  -5.691453e+06  -3.947216e+06
   5.822874e+05  -4.178544e+06
   3.890532e+06  -1.581819e+06
   2.072616e+06   8.882868e+05
  -1.522277e+06   1.462816e+06
  -3.105480e+06   1.844538e+05
  -2.083973e+06  -2.191185e+06
   8.986464e+04  -3.972741e+06
   1.896456e+06  -2.917454e+06
   2.138439e+06   7.178837e+05
   6.581245e+05   2.938515e+06
  -6.972019e+05   7.641632e+05
   1.787688e+05  -2.816956e+06
   2.313713e+06  -2.240267e+06
   2.173342e+06   2.453862e+06
  -1.420271e+06   4.867759e+06
  -4.847441e+06   9.402502e+05
  -3.817601e+06  -5.200144e+06
   1.302634e+06  -6.535037e+06
   5.889693e+06  -1.852039e+06
   6.049261e+06   3.691195e+06
   1.964697e+06   5.239840e+06
  -2.940857e+06   2.666471e+06
  -4.895404e+06  -9.973237e+05
  -2.543301e+06  -2.891075e+06
   1.750610e+06  -1.976800e+06
   3.757758e+06   5.623273e+05
   1.766819e+06   2.107093e+06
  -1.347960e+06   1.139896e+06
  -1.681147e+06  -8.316537e+05
   7.063577e+05  -1.075419e+06
   2.089156e+06   7.642462e+05
   1.734069e+05   2.309238e+06
  -3.080408e+06   1.663603e+06
  -4.193052e+06  -6.287160e+05
  -2.049514e+06  -2.999842e+06
   1.712939e+06  -4.421271e+06
   4.761824e+06  -4.030309e+06
   5.504178e+06  -1.159322e+06
   3.636402e+06   3.020802e+06
   5.476400e+05   5.431042e+06
  -1.437663e+06   4.304737e+06
  -1.302061e+06   1.556433e+06
  -4.471000e+05   3.617696e+05
  -7.691484e+05   1.067603e+06
  -2.148677e+06   1.249057e+06
  -2.792183e+06  -4.508704e+05
  -1.664509e+06  -2.398806e+06
   4.201536e+05  -2.299639e+06
   1.896942e+06  -6.471494e+04
   1.721812e+06   2.318242e+06
  -1.878684e+05   2.909389e+06
  -2.719835e+06   1.276553e+06
  -3.879650e+06  -1.443003e+06
  -2.494255e+06  -3.391788e+06
   2.232898e+05  -3.413208e+06
   1.845830e+06  -2.081864e+06
   1.699162e+06  -9.842639e+05
   1.535404e+06  -7.960747e+05
   2.757590e+06  -6.020670e+05
   4.139148e+06   6.488530e+05
   3.346697e+06   2.637927e+06
   1.066090e+05   4.014474e+06
  -3.240096e+06   3.748805e+06
  -4.220399e+06   1.847047e+06
  -2.532319e+06  -6.910775e+05
   2.699298e+04  -2.264727e+06
   1.304536e+06  -1.755628e+06
   5.242035e+05   1.318709e+05
  -1.159573e+06   1.221088e+06
  -1.810081e+06   3.293579e+05
  -7.634495e+05  -1.150281e+06
   6.071181e+05  -1.091730e+06
   5.673681e+05   3.612614e+05
  -8.164678e+05   9.094131e+05
  -1.797728e+06  -7.345702e+05
  -1.064391e+06  -3.043929e+06
   9.582172e+05  -3.557159e+06
   2.857959e+06  -1.665904e+06
   3.517275e+06   1.086237e+06
   2.578348e+06   2.817154e+06
   5.237255e+05   2.763194e+06
  -1.316526e+06   1.447483e+06
  -1.608877e+06   1.449632e+05
  -4.862539e+05  -5.387289e+04
   3.490888e+05   7.408627e+05
  -3.671152e+05   1.254209e+06
  -1.770787e+06   5.371989e+05
  -1.937878e+06  -7.956640e+05
  -4.174624e+05  -1.319375e+06
   1.133814e+06  -5.832052e+05
   9.608265e+05   4.485905e+05
  -7.798527e+05   6.502980e+05
  -2.273864e+06  -1.626331e+05
  -1.931496e+06  -1.359522e+06
   1.569280e+05  -2.096858e+06
   2.327406e+06  -1.724426e+06
   2.770464e+06  -2.695526e+05
   1.173743e+06   1.213502e+06
  -8.875231e+05   1.384337e+06
  -1.441169e+06   1.448490e+05
  -1.296484e+05  -1.014273e+06
   1.486263e+06  -6.869818e+05
   1.696516e+06   7.462697e+05
   4.031988e+05   1.627052e+06
  -1.016446e+06   1.045284e+06
  -1.268116e+06  -2.113746e+05
  -3.179493e+05  -7.392499e+05
   7.324970e+05  -6.318370e+04
   6.896999e+05   1.033813e+06
  -6.124013e+05   1.381184e+06
  -1.999373e+06   4.740555e+05
  -1.978264e+06  -1.083383e+06
  -3.488777e+05  -2.040197e+06
   1.410975e+06  -1.602531e+06
   1.695324e+06  -2.203260e+05
   5.234816e+05   8.467261e+05
  -6.417160e+05   8.114733e+05
  -6.813856e+05   6.198430e+04
   7.709105e+04  -4.504104e+05
   5.654475e+05  -2.982068e+05
   2.746736e+05   9.285486e+04
  -3.633318e+05   5.191431e+04
  -5.501944e+05  -5.633543e+05
   1.423939e+05  -1.152902e+06
   1.350471e+06  -8.892485e+05
   2.053553e+06   4.224150e+05
   1.418167e+06   1.937325e+06
  -2.503906e+05   2.416948e+06
  -1.634352e+06   1.449055e+06
  -1.746331e+06  -9.397480e+04
  -9.457001e+05  -9.685233e+05
  -3.382204e+05  -8.146177e+05
  -3.838754e+05  -3.243914e+05
  -5.149266e+05  -2.801663e+05
  -6.533282e+04  -6.909329e+05
   8.475055e+05  -8.999566e+05
   1.460611e+06  -3.580067e+05
   1.106870e+06   7.494639e+05
  -2.184725e+05   1.530777e+06
  -1.732515e+06   1.103323e+06
  -2.259697e+06  -4.924564e+05
  -1.147951e+06  -2.082644e+06
   9.548326e+05  -2.328716e+06
   2.477885e+06  -1.046626e+06
   2.365096e+06   6.007864e+05
   1.050318e+06   1.338890e+06
  -1.534306e+05   1.038434e+06
  -4.661344e+05   5.946448e+05
  -2.196307e+05   7.336986e+05
  -1.852847e+05   1.213927e+06
  -6.607081e+05   1.208305e+06
  -1.246713e+06   2.781069e+05
  -1.292706e+06  -1.100128e+06
  -5.145598e+05  -1.894594e+06
   6.504663e+05  -1.418392e+06
   1.285580e+06   3.765891e+03
   8.119178e+05   1.247319e+06
  -3.443945e+05   1.374681e+06
  -1.087575e+06   4.618905e+05
  -7.874527e+05  -5.883127e+05
   5.715808e+04  -1.002194e+06
   4.430539e+05  -7.837967e+05
   4.987441e+04  -4.531484e+05
  -4.061752e+05  -3.616706e+05
  -4.143121e+04  -3.903910e+05
   1.108350e+06  -2.054994e+05
   1.994434e+06   3.379563e+05
   1.590397e+06   1.017670e+06
   4.106304e+03   1.377904e+06
  -1.521309e+06   1.089720e+06
  -1.797030e+06   2.949195e+05
  -8.446452e+05  -4.206021e+05
   2.342082e+05  -5.230805e+05
   4.867777e+05  -5.996678e+04
  -4.345621e+02   3.691263e+05
  -4.700622e+05   2.348928e+05
  -4.633651e+05  -3.486367e+05
  -1.806238e+05  -7.385462e+05
  -3.197158e+04  -4.809683e+05
  -1.451122e+05   1.331132e+05
  -3.282266e+05   3.370096e+05
  -2.815730e+05  -2.279892e+05
   1.845694e+05  -9.978251e+05
   9.059377e+05  -1.034923e+06
   1.286032e+06  -1.158822e+05
   7.641914e+05   9.227808e+05
  -4.288708e+05   1.071249e+06
  -1.214870e+06   2.606314e+05
  -7.115460e+05  -5.995478e+05
   6.931817e+05  -6.464243e+05
   1.605225e+06   8.696235e+04
   1.065585e+06   8.598876e+05
  -4.406309e+05   1.026242e+06
  -1.516341e+06   5.354915e+05
  -1.278147e+06  -1.666981e+05
  -1.555889e+05  -5.283842e+05
   6.448937e+05  -2.861778e+05
   3.607477e+05   2.806499e+05
  -6.164927e+05   4.845064e+05
  -1.172304e+06  -1.393635e+05
  -6.015728e+05  -1.208307e+06
   6.721636e+05  -1.668007e+06
   1.522059e+06  -8.239983e+05
   1.239859e+06   7.970279e+05
   1.664756e+05   1.807279e+06
  -7.629509e+05   1.311742e+06
  -9.339130e+05  -1.584130e+05
  -4.477196e+05  -1.196189e+06
   1.920209e+05  -9.926334e+05
   5.514995e+05  -9.428076e+04
   4.923010e+05   3.933308e+05
   1.961810e+05   1.520902e+05
   3.718282e+04  -1.058147e+05
   2.266549e+05   2.753393e+05
   4.771526e+05   9.652644e+05
   2.156915e+05   1.092068e+06
  -6.748977e+05   3.931103e+05
  -1.477433e+06  -4.902905e+05
  -1.308167e+06  -8.590670e+05
  -1.793385e+05  -6.946290e+05
   8.943326e+05  -4.023435e+05
   1.001503e+06  -1.796218e+05
   3.334198e+05   3.872609e+04
  -1.620304e+05   2.201182e+05
  -1.522263e+03   2.245929e+05
   3.034450e+05   1.211069e+05
   3.307774e+04   1.362765e+05
  -7.084637e+05   2.096658e+05
  -1.042558e+06  -4.074702e+04
  -3.645956e+05  -6.928244e+05
   8.987619e+05  -1.140885e+06
   1.687799e+06  -7.004156e+05
   1.357722e+06   4.765973e+05
   2.363992e+05   1.418486e+06
  -7.809547e+05   1.351390e+06
  -1.058437e+06   4.956490e+05
  -6.571408e+05  -2.641991e+05
  -1.120953e+05  -3.600910e+05
   1.027914e+05  -4.336049e+04
  -7.012296e+04   4.017336e+04
  -3.115147e+05  -3.624808e+05
  -2.481951e+05  -8.132307e+05
   1.979198e+05  -6.692188e+05
   6.864011e+05   1.558304e+05
   7.032403e+05   9.869961e+05
   6.169823e+04   1.030109e+06
  -7.772791e+05   2.037332e+05
  -1.012930e+06  -7.673328e+05
  -3.096077e+05  -1.094049e+06
   7.296700e+05  -6.424827e+05
   1.102131e+06   1.021367e+05
   5.038743e+05   5.995220e+05
  -2.957450e+05   6.449448e+05
  -3.594935e+05   3.554256e+05
   2.756879e+05   2.461650e+04
   6.580489e+05  -2.394526e+04
   1.318715e+05   3.050216e+05
  -8.374086e+05   6.696253e+05
  -1.245275e+06   5.412700e+05
  -7.320404e+05  -1.676650e+05
   1.131280e+05  -8.571458e+05
   5.420478e+05  -8.364445e+05
   4.005676e+05  -1.351794e+05
   3.114124e+04   4.916196e+05
  -2.514921e+05   4.167652e+05
  -3.512389e+05  -1.774016e+05
  -2.410346e+05  -5.827623e+05
   6.601609e+04  -4.042987e+05
   3.893875e+05   6.167624e+04
   4.630452e+05   2.714413e+05
   2.409934e+05   8.521029e+04
  -1.987009e+04  -1.315541e+05
  -8.213437e+04  -5.213538e+03
  -2.756414e+04   3.691674e+05
  -1.061408e+05   5.226343e+05
  -3.374448e+05   1.693911e+05
  -4.202326e+05  -4.151381e+05
  -1.039426e+05  -6.540259e+05
   4.255829e+05  -2.963168e+05
   6.443563e+05   3.058869e+05
   2.326426e+05   5.873969e+05
  -5.065321e+05   3.542759e+05
  -8.679575e+05  -1.000828e+05
  -4.664116e+05  -3.860963e+05
   3.001951e+05  -3.782881e+05
   6.366779e+05  -1.965745e+05
   2.325853e+05  -1.078652e+04
  -3.729809e+05   4.394888e+04
  -4.167356e+05  -9.628079e+04
   1.938239e+05  -3.041371e+05
   7.823390e+05  -2.587530e+05
