
 $NMID
 id='ANONYMOUS ', fmtdat='(2E16.6)'
 volume=1.0
 tramp=1.0
 $END
  -4.283361e+07   3.993065e+05
  -2.690305e+07  -2.437922e+07
   3.690540e+06  -2.851417e+07
   2.016544e+07  -1.342761e+07
   1.353595e+07   3.069776e+06
  -1.392609e+06   7.328072e+06
  -7.880446e+06   6.026782e+05
  -3.548751e+06  -7.262650e+06
   3.841433e+06  -8.607083e+06
   7.559645e+06  -2.743087e+06
   5.874882e+06   4.932943e+06
   7.603197e+05   7.302951e+06
  -3.365456e+06   2.053794e+06
  -2.446302e+06  -5.149349e+06
   2.720127e+06  -6.188145e+06
   6.385910e+06   3.959432e+05
   4.067827e+06   7.953065e+06
  -2.506721e+06   9.548501e+06
  -7.812781e+06   4.759184e+06
  -8.285744e+06  -1.765888e+06
  -4.641028e+06  -5.750684e+06
  -2.428949e+05  -6.012906e+06
   1.551226e+06  -4.008310e+06
   2.436181e+03  -2.435834e+06
  -1.788008e+06  -3.022830e+06
   1.900535e+05  -4.451596e+06
   5.497897e+06  -3.620897e+06
   8.669089e+06   1.775774e+05
   5.705770e+06   3.817970e+06
  -5.704348e+05   4.119345e+06
  -3.899998e+06   1.564779e+06
  -2.044280e+06  -9.496390e+05
   1.637405e+06  -1.547803e+06
   3.234164e+06  -1.912519e+05
   2.126116e+06   2.263648e+06
  -9.672374e+04   4.013647e+06
  -1.842211e+06   2.890471e+06
  -2.038326e+06  -7.176680e+05
  -6.302035e+05  -2.851791e+06
   6.450619e+05  -6.571667e+05
  -1.939126e+05   2.887564e+06
  -2.281377e+06   2.320300e+06
  -2.249343e+06  -2.347484e+06
   1.180161e+06  -4.853106e+06
   4.651504e+06  -1.114684e+06
   3.886641e+06   4.953337e+06
  -1.049964e+06   6.446160e+06
  -5.740624e+06   1.987001e+06
  -6.135645e+06  -3.500196e+06
  -2.144458e+06  -5.186348e+06
   2.862069e+06  -2.779795e+06
   4.961939e+06   8.333332e+05
   2.676111e+06   2.811124e+06
  -1.646913e+06   2.037003e+06
  -3.744797e+06  -4.229909e+05
  -1.836054e+06  -2.020428e+06
   1.291611e+06  -1.168997e+06
   1.722241e+06   7.819762e+05
  -6.260087e+05   1.142162e+06
  -2.120471e+06  -6.031938e+05
  -3.516678e+05  -2.230769e+06
   2.902861e+06  -1.773601e+06
   4.162068e+06   4.286386e+05
   2.143635e+06   2.878087e+06
  -1.606246e+06   4.428991e+06
  -4.691447e+06   4.106377e+06
  -5.461998e+06   1.248405e+06
  -3.649462e+06  -2.941318e+06
  -6.503590e+05  -5.399803e+06
   1.300832e+06  -4.357746e+06
   1.243372e+06  -1.661840e+06
   4.981768e+05  -4.409634e+05
   8.541188e+05  -1.085295e+06
   2.199984e+06  -1.232145e+06
   2.817186e+06   4.779773e+05
   1.681919e+06   2.439658e+06
  -4.331663e+05   2.343862e+06
  -1.956586e+06   7.884612e+04
  -1.792546e+06  -2.342567e+06
   1.490963e+05  -2.944593e+06
   2.712973e+06  -1.310458e+06
   3.889151e+06   1.390577e+06
   2.530411e+06   3.320877e+06
  -1.486701e+05   3.366616e+06
  -1.757469e+06   2.091657e+06
  -1.635732e+06   1.034528e+06
  -1.509229e+06   8.633130e+05
  -2.766110e+06   6.901298e+05
  -4.190953e+06  -5.488678e+05
  -3.439005e+06  -2.582992e+06
  -1.960227e+05  -4.054206e+06
   3.203236e+06  -3.852613e+06
   4.235614e+06  -1.930938e+06
   2.558657e+06   6.731141e+05
  -1.487226e+04   2.290005e+06
  -1.301851e+06   1.780454e+06
  -5.255846e+05  -1.319205e+05
   1.154273e+06  -1.249594e+06
   1.812893e+06  -3.680527e+05
   7.815628e+05   1.137019e+06
  -6.005317e+05   1.113403e+06
  -5.992348e+05  -3.548555e+05
   7.850821e+05  -9.719628e+05
   1.848711e+06   6.386908e+05
   1.209454e+06   3.023629e+06
  -8.225994e+05   3.664790e+06
  -2.845103e+06   1.826664e+06
  -3.626796e+06  -9.876195e+05
  -2.710914e+06  -2.815747e+06
  -5.953089e+05  -2.810518e+06
   1.311346e+06  -1.492209e+06
   1.628601e+06  -1.717430e+05
   4.930354e+05   4.434586e+04
  -3.690443e+05  -7.413946e+05
   3.361156e+05  -1.269639e+06
   1.764335e+06  -5.824993e+05
   1.971996e+06   7.488913e+05
   4.589403e+05   1.315986e+06
  -1.131444e+06   6.177836e+05
  -9.917637e+05  -4.352705e+05
   7.727152e+05  -6.943588e+05
   2.325492e+06   9.872060e+04
   2.010854e+06   1.342145e+06
  -1.056128e+05   2.147496e+06
  -2.325435e+06   1.807459e+06
  -2.801212e+06   3.345376e+05
  -1.212770e+06  -1.195329e+06
   8.605082e+05  -1.408629e+06
   1.440402e+06  -1.772776e+05
   1.468982e+05   1.013764e+06
  -1.485195e+06   7.235302e+05
  -1.733912e+06  -7.132111e+05
  -4.539665e+05  -1.638373e+06
   9.990780e+05  -1.092709e+06
   1.293859e+06   1.734948e+05
   3.486994e+05   7.384372e+05
  -7.330813e+05   8.253030e+04
  -7.159639e+05  -1.028982e+06
   5.939845e+05  -1.406598e+06
   2.012720e+06  -5.159193e+05
   2.020391e+06   1.056514e+06
   3.956232e+05   2.054077e+06
  -1.388789e+06   1.651217e+06
  -1.709030e+06   2.638728e+05
  -5.526711e+05  -8.434891e+05
   6.299793e+05  -8.376118e+05
   6.940197e+05  -7.433390e+04
  -6.665650e+04   4.707250e+05
  -5.793393e+05   3.230761e+05
  -2.986560e+05  -9.728581e+04
   3.613970e+05  -8.018837e+04
   5.786187e+05   5.463733e+05
  -1.092875e+05   1.170104e+06
  -1.345034e+06   9.319212e+05
  -2.087090e+06  -3.826382e+05
  -1.474743e+06  -1.929683e+06
   2.039468e+05  -2.453504e+06
   1.627571e+06  -1.509150e+06
   1.780367e+06   5.381861e+04
   9.892525e+05   9.723538e+05
   3.585539e+05   8.393498e+05
   3.812038e+05   3.304868e+05
   5.153254e+05   2.647633e+05
   8.108546e+04   6.892018e+05
  -8.354683e+05   9.325882e+05
  -1.475980e+06   3.995475e+05
  -1.145745e+06  -7.407817e+05
   1.856957e+05  -1.567268e+06
   1.734409e+06  -1.160792e+06
   2.302870e+06   4.504921e+05
   1.212209e+06   2.083706e+06
  -9.078148e+05   2.378592e+06
  -2.480347e+06   1.120073e+06
  -2.414179e+06  -5.490893e+05
  -1.106408e+06  -1.336645e+06
   1.287594e+05  -1.069500e+06
   4.718861e+05  -6.213134e+05
   2.236341e+05  -7.412585e+05
   1.679833e+05  -1.219787e+06
   6.386957e+05  -1.229402e+06
   1.249962e+06  -3.059867e+05
   1.328143e+06   1.087276e+06
   5.581203e+05   1.907273e+06
  -6.307636e+05   1.448489e+06
  -1.302862e+06   2.445205e+04
  -8.517165e+05  -1.241530e+06
   3.118534e+05  -1.399731e+06
   1.084317e+06  -5.020281e+05
   8.118923e+05   5.640960e+05
  -2.475225e+04   1.009930e+06
  -4.198119e+05   8.075820e+05
  -3.716234e+04   4.662339e+05
   4.155764e+05   3.599870e+05
   4.818009e+04   3.952319e+05
  -1.113668e+06   2.338544e+05
  -2.020257e+06  -2.966632e+05
  -1.631778e+06  -9.928610e+05
  -4.190590e+04  -1.390540e+06
   1.507301e+06  -1.133924e+06
   1.810786e+06  -3.422494e+05
   8.692174e+05   3.983674e+05
  -2.207327e+05   5.304051e+05
  -4.897844e+05   7.589176e+04
  -5.697866e+03  -3.664824e+05
   4.738344e+05  -2.447713e+05
   4.748842e+05   3.431837e+05
   1.895113e+05   7.441104e+05
   3.461705e+04   4.847693e+05
   1.465471e+05  -1.430891e+05
   3.334565e+05  -3.530644e+05
   2.916805e+05   2.248178e+05
  -1.711554e+05   1.015871e+06
  -8.954488e+05   1.064737e+06
  -1.288958e+06   1.404478e+05
  -7.829146e+05  -9.165729e+05
   4.105153e+05  -1.085660e+06
   1.217130e+06  -2.822297e+05
   7.305761e+05   5.946794e+05
  -6.868290e+05   6.707578e+05
  -1.631638e+06  -5.154760e+04
  -1.107741e+06  -8.494264e+05
   4.189438e+05  -1.056857e+06
   1.529492e+06  -5.839986e+05
   1.306430e+06   1.386574e+05
   1.719826e+05   5.348340e+05
  -6.471597e+05   3.069334e+05
  -3.689027e+05  -2.736766e+05
   6.172327e+05  -4.980027e+05
   1.187311e+06   1.234610e+05
   6.250716e+05   1.212512e+06
  -6.550480e+05   1.696843e+06
  -1.527360e+06   8.580644e+05
  -1.270113e+06  -7.853764e+05
  -2.028737e+05  -1.828579e+06
   7.479657e+05  -1.348016e+06
   9.519829e+05   1.372621e+05
   4.827716e+05   1.203522e+06
  -1.691594e+05   1.014949e+06
  -5.556031e+05   1.098143e+05
  -5.111062e+05  -3.911938e+05
  -2.066678e+05  -1.534129e+05
  -3.387722e+04   1.101616e+05
  -2.281865e+05  -2.685861e+05
  -4.999158e+05  -9.658826e+05
  -2.464206e+05  -1.104907e+06
   6.685905e+05  -4.148176e+05
   1.507378e+06   4.678862e+05
   1.348473e+06   8.459868e+05
   1.965743e+05   6.990207e+05
  -9.032850e+05   4.231482e+05
  -1.013586e+06   2.032702e+05
  -3.347809e+05  -2.813076e+04
   1.617351e+05  -2.249507e+05
  -8.544272e+03  -2.324974e+05
  -3.156259e+05  -1.224007e+05
  -3.326793e+04  -1.371668e+05
   7.201900e+05  -2.213915e+05
   1.055068e+06   2.315804e+04
   3.726040e+05   6.907314e+05
  -8.936785e+05   1.166489e+06
  -1.689537e+06   7.375904e+05
  -1.374248e+06  -4.583260e+05
  -2.633591e+05  -1.432244e+06
   7.625755e+05  -1.381395e+06
   1.060939e+06  -5.173013e+05
   6.703726e+05   2.592048e+05
   1.173328e+05   3.616148e+05
  -1.081654e+05   4.022859e+04
   6.925270e+04  -4.724504e+04
   3.260295e+05   3.598814e+05
   2.694374e+05   8.193505e+05
  -1.887744e+05   6.793901e+05
  -6.979652e+05  -1.498295e+05
  -7.252742e+05  -9.894344e+05
  -7.459073e+04  -1.038984e+06
   7.853943e+05  -2.133751e+05
   1.036125e+06   7.632196e+05
   3.297153e+05   1.100285e+06
  -7.264647e+05   6.589603e+05
  -1.113943e+06  -8.383571e+04
  -5.187343e+05  -5.921007e+05
   2.853881e+05  -6.526235e+05
   3.515913e+05  -3.664743e+05
  -2.848689e+05  -2.351268e+04
  -6.670788e+05   3.520312e+04
  -1.374797e+05  -3.046512e+05
   8.354021e+05  -6.944197e+05
   1.246582e+06  -5.770845e+05
   7.395138e+05   1.498023e+05
  -9.838640e+04   8.673131e+05
  -5.272553e+05   8.558230e+05
  -3.959721e+05   1.415862e+05
  -3.693722e+04  -4.987354e+05
   2.471181e+05  -4.230956e+05
   3.578542e+05   1.784079e+05
   2.539497e+05   5.854409e+05
  -5.949464e+04   4.052655e+05
  -3.944683e+05  -5.748331e+04
  -4.728567e+05  -2.619596e+05
  -2.463487e+05  -7.841374e+04
   2.092397e+04   1.279267e+05
   8.538030e+04  -4.936448e+03
   2.936895e+04  -3.757335e+05
   1.067823e+05  -5.224164e+05
   3.393028e+05  -1.670799e+05
   4.242988e+05   4.169976e+05
   1.075686e+05   6.585268e+05
  -4.273846e+05   3.044422e+05
  -6.533844e+05  -3.004201e+05
  -2.429878e+05  -5.917852e+05
   5.043959e+05  -3.675670e+05
   8.765945e+05   8.694786e+04
   4.775663e+05   3.819560e+05
  -2.958618e+05   3.843634e+05
  -6.380807e+05   2.060826e+05
  -2.307558e+05   1.544508e+04
   3.815180e+05  -4.542733e+04
   4.243405e+05   9.644262e+04
  -1.963954e+05   3.137473e+05
  -7.950492e+05   2.739873e+05
