
 $NMID
 id='ANONYMOUS ', fmtdat='(2E16.6)'
 volume=1.0
 tramp=1.0
 $END
   4.532134e+07  -5.722683e+05
   2.799597e+07   2.738214e+07
  -5.171184e+06   3.079312e+07
  -2.209182e+07   1.260489e+07
  -1.375173e+07  -5.082938e+06
   2.349183e+06  -7.690147e+06
   8.150862e+06   5.913415e+05
   2.657529e+06   7.930037e+06
  -4.850865e+06   7.983864e+06
  -7.907617e+06   1.943441e+06
  -5.780864e+06  -5.026390e+06
  -6.901684e+05  -7.092632e+06
   3.255784e+06  -2.202853e+06
   2.166673e+06   4.620073e+06
  -3.053928e+06   5.581595e+06
  -6.489832e+06  -9.055888e+05
  -3.796504e+06  -8.274988e+06
   2.910043e+06  -9.681710e+06
   8.125860e+06  -4.884790e+06
   8.702950e+06   1.605396e+06
   5.297882e+06   5.934524e+06
   6.265109e+05   6.794219e+06
  -2.081201e+06   4.825389e+06
  -1.189938e+06   2.406184e+06
   9.877055e+05   2.124494e+06
   3.484619e+04   3.603196e+06
  -4.640834e+06   3.512781e+06
  -8.006289e+06   2.373154e+05
  -5.715820e+06  -3.440011e+06
  -5.325624e+04  -4.055862e+06
   3.169388e+06  -1.912967e+06
   1.934830e+06   1.963345e+05
  -8.229637e+05   8.366882e+05
  -2.149762e+06   2.322331e+05
  -1.770330e+06  -1.439662e+06
  -3.563497e+05  -3.326381e+06
   1.515821e+06  -3.061522e+06
   2.444416e+06   1.574441e+05
   1.249705e+06   2.862711e+06
  -5.413285e+05   1.366902e+06
  -9.854321e+04  -2.160221e+06
   2.104358e+06  -1.964952e+06
   2.092884e+06   2.564700e+06
  -1.763024e+06   5.059428e+06
  -5.465748e+06   1.016848e+06
  -4.205433e+06  -5.450071e+06
   1.365127e+06  -6.901863e+06
   5.984092e+06  -2.034588e+06
   5.810851e+06   3.624362e+06
   1.649068e+06   5.042696e+06
  -2.891175e+06   2.354847e+06
  -4.495826e+06  -1.199608e+06
  -2.156626e+06  -2.901307e+06
   1.915632e+06  -1.891055e+06
   3.745201e+06   6.677032e+05
   1.678085e+06   2.193889e+06
  -1.378046e+06   1.147867e+06
  -1.500506e+06  -8.497247e+05
   1.010288e+06  -8.901643e+05
   2.133342e+06   1.241625e+06
  -2.365089e+05   2.761877e+06
  -3.591543e+06   1.706347e+06
  -4.362587e+06  -9.155174e+05
  -2.000968e+06  -3.179243e+06
   1.498305e+06  -4.324894e+06
   4.228967e+06  -3.952110e+06
   5.131337e+06  -1.369488e+06
   3.699720e+06   2.638805e+06
   7.314733e+05   5.112806e+06
  -1.498975e+06   4.034502e+06
  -1.456793e+06   1.178041e+06
  -2.828767e+05  -9.097367e+04
  -2.037294e+05   7.824828e+05
  -1.489139e+06   1.331958e+06
  -2.357764e+06   2.012191e+03
  -1.592369e+06  -1.775306e+06
   1.317436e+05  -1.851700e+06
   1.423515e+06  -8.872910e+04
   1.420053e+06   1.885342e+06
  -7.302281e+04   2.517687e+06
  -2.360549e+06   1.313736e+06
  -3.680905e+06  -1.076459e+06
  -2.605174e+06  -3.113126e+06
   3.225979e+04  -3.430055e+06
   1.817131e+06  -2.214751e+06
   1.791214e+06  -9.832733e+05
   1.532809e+06  -6.362013e+05
   2.524769e+06  -4.375617e+05
   3.725837e+06   6.545584e+05
   2.976153e+06   2.390852e+06
   7.544805e+04   3.555249e+06
  -2.819249e+06   3.311983e+06
  -3.630130e+06   1.723576e+06
  -2.241974e+06  -4.482053e+05
  -1.361226e+05  -1.918654e+06
   1.008115e+06  -1.601580e+06
   4.687752e+05   5.656951e+04
  -9.680029e+05   1.096925e+06
  -1.630536e+06   3.203221e+05
  -7.556045e+05  -1.026007e+06
   4.817625e+05  -9.479499e+05
   4.062549e+05   3.525434e+05
  -8.975207e+05   6.764154e+05
  -1.649615e+06  -9.958772e+05
  -6.776275e+05  -2.977142e+06
   1.282184e+06  -3.057340e+06
   2.737428e+06  -1.101115e+06
   2.953239e+06   1.230035e+06
   2.014204e+06   2.475940e+06
   3.636543e+05   2.321101e+06
  -1.112713e+06   1.247187e+06
  -1.373782e+06   1.572096e+05
  -4.262110e+05  -4.665773e+04
   3.025513e+05   6.556054e+05
  -3.546581e+05   1.148819e+06
  -1.631889e+06   4.886884e+05
  -1.750519e+06  -7.645194e+05
  -3.380374e+05  -1.220600e+06
   1.020948e+06  -4.911024e+05
   7.862009e+05   4.148965e+05
  -7.467769e+05   4.803986e+05
  -1.936281e+06  -2.820097e+05
  -1.544482e+06  -1.227008e+06
   2.359161e+05  -1.753395e+06
   2.044467e+06  -1.426509e+06
   2.419426e+06  -2.043239e+05
   1.042569e+06   1.100943e+06
  -7.977639e+05   1.276400e+06
  -1.330680e+06   1.515812e+05
  -1.550451e+05  -9.212379e+05
   1.318591e+06  -6.172577e+05
   1.488563e+06   6.924925e+05
   2.907566e+05   1.447944e+06
  -9.571057e+05   8.618148e+05
  -1.107276e+06  -2.683460e+05
  -2.245974e+05  -6.849526e+05
   6.832884e+05  -4.750589e+04
   6.224771e+05   9.180484e+05
  -5.216805e+05   1.222057e+06
  -1.747628e+06   4.363215e+05
  -1.747264e+06  -9.401217e+05
  -3.068472e+05  -1.803207e+06
   1.265534e+06  -1.410974e+06
   1.503679e+06  -1.678137e+05
   4.342578e+05   7.624317e+05
  -5.823083e+05   6.962969e+05
  -5.612232e+05   5.001480e+04
   1.109866e+05  -3.360467e+05
   4.572088e+05  -1.842829e+05
   1.329343e+05   8.313315e+04
  -3.890991e+05  -3.649341e+04
  -4.629721e+05  -5.751799e+05
   1.783585e+05  -1.033936e+06
   1.209926e+06  -7.662655e+05
   1.803941e+06   3.852410e+05
   1.245448e+06   1.706162e+06
  -2.247754e+05   2.103768e+06
  -1.434272e+06   1.216522e+06
  -1.486906e+06  -1.318418e+05
  -7.449177e+05  -8.174939e+05
  -2.524543e+05  -6.069686e+05
  -3.819526e+05  -2.062611e+05
  -5.249285e+05  -2.605622e+05
  -7.383362e+04  -6.500874e+05
   7.698309e+05  -7.779554e+05
   1.273525e+06  -2.695920e+05
   9.136258e+05   6.555789e+05
  -2.394686e+05   1.287210e+06
  -1.520878e+06   9.179843e+05
  -1.955195e+06  -4.529728e+05
  -9.670800e+05  -1.843929e+06
   8.950906e+05  -2.050068e+06
   2.219619e+06  -8.784194e+05
   2.051663e+06   5.951548e+05
   8.345487e+05   1.191193e+06
  -1.932129e+05   8.461557e+05
  -3.708978e+05   4.464112e+05
  -1.018560e+05   6.344508e+05
  -1.099803e+05   1.110481e+06
  -5.884399e+05   1.101387e+06
  -1.117964e+06   2.603757e+05
  -1.142434e+06  -9.561661e+05
  -4.547630e+05  -1.653326e+06
   5.624859e+05  -1.238548e+06
   1.120695e+06   1.799232e+04
   6.968391e+05   1.122376e+06
  -3.466020e+05   1.214263e+06
  -1.012004e+06   3.589013e+05
  -7.078513e+05  -5.951110e+05
   9.944923e+04  -9.310861e+05
   4.606388e+05  -6.872629e+05
   7.758621e+04  -3.727861e+05
  -3.657104e+05  -2.991567e+05
  -4.347298e+04  -3.338711e+05
   9.963604e+05  -1.733364e+05
   1.781861e+06   3.072755e+05
   1.395017e+06   9.169202e+05
  -3.604768e+04   1.245914e+06
  -1.381269e+06   9.748304e+05
  -1.596523e+06   2.269907e+05
  -7.320025e+05  -4.298320e+05
   2.241073e+05  -4.884760e+05
   4.456317e+05  -3.075396e+04
   2.318018e+04   3.549002e+05
  -3.905873e+05   2.128943e+05
  -4.121739e+05  -3.024518e+05
  -1.992558e+05  -6.262669e+05
  -6.808643e+04  -4.108451e+05
  -1.270879e+05   8.580011e+04
  -2.602789e+05   2.518929e+05
  -2.387356e+05  -2.061366e+05
   1.429072e+05  -8.543401e+05
   7.934822e+05  -9.133233e+05
   1.170721e+06  -1.383334e+05
   7.188098e+05   7.967137e+05
  -3.680129e+05   9.772889e+05
  -1.084427e+06   2.750566e+05
  -6.266799e+05  -5.085468e+05
   6.187077e+05  -5.577593e+05
   1.387070e+06   1.046153e+05
   8.739177e+05   7.731231e+05
  -4.345311e+05   8.666876e+05
  -1.322819e+06   4.025237e+05
  -1.081235e+06  -1.857197e+05
  -1.108474e+05  -4.546142e+05
   5.718007e+05  -2.289480e+05
   3.311398e+05   2.566607e+05
  -5.138590e+05   4.411099e+05
  -1.022048e+06  -8.708524e+04
  -5.635357e+05  -1.029968e+06
   5.337310e+05  -1.465130e+06
   1.297954e+06  -7.474833e+05
   1.081197e+06   6.748093e+05
   1.524587e+05   1.561742e+06
  -6.651760e+05   1.118719e+06
  -8.087325e+05  -1.659262e+05
  -3.617686e+05  -1.048558e+06
   2.067620e+05  -8.480706e+05
   4.932014e+05  -6.814463e+04
   4.001828e+05   3.396443e+05
   1.390532e+05   1.271364e+05
   4.522049e+04  -8.444172e+04
   2.437326e+05   2.531748e+05
   4.334417e+05   8.451227e+05
   1.509714e+05   9.479705e+05
  -6.291490e+05   3.421342e+05
  -1.278434e+06  -4.242798e+05
  -1.103514e+06  -7.506500e+05
  -1.536514e+05  -6.116793e+05
   7.460513e+05  -3.500614e+05
   8.607438e+05  -1.443433e+05
   3.182701e+05   4.723818e+04
  -1.279714e+05   1.930785e+05
  -3.923923e+04   1.829750e+05
   2.229100e+05   8.986671e+04
   4.369958e+04   1.137600e+05
  -5.721657e+05   1.934030e+05
  -9.100772e+05  -1.813475e+04
  -3.776238e+05  -5.983668e+05
   7.359298e+05  -1.014517e+06
   1.485854e+06  -6.508850e+05
   1.227726e+06   3.776687e+05
   2.280194e+05   1.223712e+06
  -6.797055e+05   1.194769e+06
  -9.146772e+05   4.636234e+05
  -5.645095e+05  -2.056061e+05
  -1.161745e+05  -3.106900e+05
   5.291605e+04  -5.544545e+04
  -7.709802e+04   1.173532e+04
  -2.574552e+05  -3.278173e+05
  -2.057386e+05  -7.087541e+05
   1.588965e+05  -5.903867e+05
   5.868192e+05   1.067971e+05
   6.370684e+05   8.253603e+05
   1.027900e+05   8.932379e+05
  -6.468208e+05   2.148446e+05
  -8.937409e+05  -6.249786e+05
  -3.020731e+05  -9.476171e+05
   6.196247e+05  -5.906226e+05
   9.760169e+05   6.687284e+04
   4.677198e+05   5.390861e+05
  -2.495235e+05   5.967428e+05
  -3.384088e+05   3.245898e+05
   2.055557e+05   1.186006e+04
   5.629750e+05  -2.993788e+04
   1.295084e+05   2.688791e+05
  -7.242231e+05   5.845960e+05
  -1.111328e+06   4.605126e+05
  -6.750477e+05  -1.605735e+05
   8.655654e+04  -7.592802e+05
   4.913924e+05  -7.502199e+05
   3.761942e+05  -1.498608e+05
   4.632648e+04   4.111969e+05
  -2.062313e+05   3.815089e+05
  -3.005162e+05  -1.225332e+05
  -2.192047e+05  -5.030956e+05
   4.161020e+04  -3.778536e+05
   3.384912e+05   3.713557e+04
   4.189091e+05   2.509464e+05
   2.137655e+05   9.036040e+04
  -3.706267e+04  -1.349005e+05
  -7.984094e+04  -5.146557e+04
   1.708338e+04   2.957559e+05
  -2.420921e+04   4.784860e+05
  -2.645305e+05   2.012369e+05
  -4.028911e+05  -3.156470e+05
  -1.482269e+05  -5.547211e+05
   3.499824e+05  -2.740386e+05
   5.800961e+05   2.369640e+05
   2.213137e+05   4.943409e+05
  -4.454961e+05   3.189848e+05
  -7.715480e+05  -6.236505e+04
  -4.182837e+05  -3.291587e+05
   2.537539e+05  -3.543505e+05
   5.554464e+05  -2.060022e+05
   2.247844e+05  -2.036016e+04
  -2.873586e+05   6.049863e+04
  -3.451070e+05  -4.840644e+04
   1.421090e+05  -2.421567e+05
   6.338168e+05  -2.268883e+05
