
 $NMID
 id='ANONYMOUS ', fmtdat='(2E16.6)'
 volume=1.0
 tramp=1.0
 $END
  -2.728443e+07   6.087711e+05
  -1.720489e+07  -1.550862e+07
   2.333437e+06  -1.821988e+07
   1.279857e+07  -8.454369e+06
   8.493504e+06   2.097670e+06
  -9.879669e+05   4.659074e+06
  -4.990648e+06   2.824513e+05
  -2.169561e+06  -4.626026e+06
   2.472976e+06  -5.364711e+06
   4.771972e+06  -1.674906e+06
   3.717211e+06   3.088334e+06
   5.093039e+05   4.573060e+06
  -2.119034e+06   1.324894e+06
  -1.575595e+06  -3.175630e+06
   1.682770e+06  -3.848435e+06
   4.018984e+06   2.572858e+05
   2.582951e+06   4.989790e+06
  -1.540057e+06   6.009076e+06
  -4.894221e+06   3.047722e+06
  -5.260982e+06  -1.034248e+06
  -3.032050e+06  -3.613018e+06
  -2.211759e+05  -3.882623e+06
   1.040717e+06  -2.608242e+06
   1.302470e+05  -1.468754e+06
  -1.090878e+06  -1.729984e+06
   1.069905e+04  -2.707299e+06
   3.318722e+06  -2.358502e+06
   5.405309e+06  -4.147255e+04
   3.646570e+06   2.327550e+06
  -2.614694e+05   2.637330e+06
  -2.392631e+06   1.095026e+06
  -1.323362e+06  -4.918705e+05
   8.927854e+05  -9.369716e+05
   1.898230e+06  -1.926887e+05
   1.324450e+06   1.287394e+06
   3.541098e+04   2.442919e+06
  -1.102302e+06   1.848240e+06
  -1.349380e+06  -3.940271e+05
  -4.910622e+05  -1.820360e+06
   4.132917e+05  -5.131806e+05
  -3.161929e+04   1.739455e+06
  -1.373928e+06   1.440839e+06
  -1.406062e+06  -1.487043e+06
   7.781078e+05  -3.082518e+06
   3.020275e+06  -7.112153e+05
   2.529354e+06   3.156755e+06
  -6.412833e+05   4.122581e+06
  -3.625254e+06   1.313189e+06
  -3.858955e+06  -2.142401e+06
  -1.345036e+06  -3.208039e+06
   1.772643e+06  -1.723282e+06
   3.065409e+06   5.126791e+05
   1.628946e+06   1.748690e+06
  -1.071659e+06   1.274777e+06
  -2.365860e+06  -2.735167e+05
  -1.139400e+06  -1.289832e+06
   8.277718e+05  -7.486661e+05
   1.062401e+06   4.873806e+05
  -4.354073e+05   6.890949e+05
  -1.329705e+06  -4.479352e+05
  -1.495307e+05  -1.463761e+06
   1.897053e+06  -1.119654e+06
   2.629046e+06   2.999731e+05
   1.345593e+06   1.821327e+06
  -9.449702e+05   2.781101e+06
  -2.836598e+06   2.614101e+06
  -3.377200e+06   8.625177e+05
  -2.334899e+06  -1.776021e+06
  -4.731418e+05  -3.354383e+06
   7.997495e+05  -2.698841e+06
   7.781669e+05  -9.737129e+05
   2.532171e+05  -2.091578e+05
   4.211018e+05  -6.762996e+05
   1.282569e+06  -8.455183e+05
   1.742349e+06   1.906077e+05
   1.098097e+06   1.438289e+06
  -2.007606e+05   1.436305e+06
  -1.174503e+06   8.726019e+04
  -1.123993e+06  -1.395385e+06
   4.589695e+04  -1.809536e+06
   1.656025e+06  -8.622087e+05
   2.443672e+06   7.938629e+05
   1.633894e+06   2.040071e+06
  -5.199256e+04   2.125235e+06
  -1.093004e+06   1.338934e+06
  -1.029255e+06   6.500740e+05
  -9.307547e+05   5.283718e+05
  -1.691074e+06   4.425863e+05
  -2.576455e+06  -2.945630e+05
  -2.135620e+06  -1.546624e+06
  -1.682050e+05  -2.481919e+06
   1.905557e+06  -2.402680e+06
   2.561999e+06  -1.250535e+06
   1.587654e+06   3.640279e+05
   4.397030e+04   1.403979e+06
  -7.667234e+05   1.119227e+06
  -3.337820e+05  -7.355437e+04
   6.898745e+05  -7.907030e+05
   1.122272e+06  -2.478229e+05
   5.042908e+05   7.007596e+05
  -3.575624e+05   6.948420e+05
  -3.671534e+05  -2.145504e+05
   4.890887e+05  -5.886862e+05
   1.140415e+06   4.134220e+05
   7.305411e+05   1.865065e+06
  -5.187075e+05   2.224927e+06
  -1.733163e+06   1.092344e+06
  -2.194535e+06  -5.930852e+05
  -1.653831e+06  -1.679229e+06
  -3.898627e+05  -1.692421e+06
   7.756833e+05  -9.248816e+05
   9.900045e+05  -1.269849e+05
   3.008691e+05   2.323224e+04
  -2.371767e+05  -4.520700e+05
   1.962572e+05  -7.920477e+05
   1.089661e+06  -3.801693e+05
   1.227549e+06   4.502021e+05
   2.918025e+05   8.178707e+05
  -6.949851e+05   3.967013e+05
  -6.145168e+05  -2.545052e+05
   4.619340e+05  -4.270615e+05
   1.409910e+06   3.942242e+04
   1.228889e+06   7.907886e+05
  -4.447085e+04   1.300818e+06
  -1.397051e+06   1.124798e+06
  -1.708446e+06   2.334776e+05
  -7.561909e+05  -7.268335e+05
   5.190070e+05  -8.828249e+05
   8.942086e+05  -1.238123e+05
   1.072903e+05   6.305460e+05
  -9.065123e+05   4.657643e+05
  -1.072259e+06  -4.224119e+05
  -2.879231e+05  -1.002539e+06
   6.102406e+05  -6.742084e+05
   7.968856e+05   1.037023e+05
   2.170236e+05   4.585135e+05
  -4.561454e+05   6.619036e+04
  -4.612898e+05  -6.186803e+05
   3.362868e+05  -8.730491e+05
   1.222233e+06  -3.497540e+05
   1.252744e+06   6.172877e+05
   2.680236e+05   1.254586e+06
  -8.353990e+05   1.027424e+06
  -1.046504e+06   1.742665e+05
  -3.441207e+05  -5.182631e+05
   3.818297e+05  -5.225563e+05
   4.256555e+05  -5.403825e+04
  -3.288569e+04   2.853896e+05
  -3.414951e+05   2.033057e+05
  -1.741615e+05  -4.821356e+04
   2.199521e+05  -4.220207e+04
   3.528262e+05   3.310264e+05
  -5.660091e+04   7.135275e+05
  -8.087756e+05   5.843369e+05
  -1.279100e+06  -2.063425e+05
  -9.264520e+05  -1.159542e+06
   9.481211e+04  -1.499431e+06
   9.764825e+05  -9.349418e+05
   1.081377e+06   1.795616e+04
   6.029967e+05   5.777932e+05
   2.223201e+05   4.942410e+05
   2.418226e+05   1.868542e+05
   3.253683e+05   1.550735e+05
   5.949654e+04   4.203874e+05
  -4.973091e+05   5.741193e+05
  -8.874534e+05   2.585232e+05
  -6.981574e+05  -4.308026e+05
   9.556840e+04  -9.471712e+05
   1.038408e+06  -7.253200e+05
   1.407056e+06   2.449691e+05
   7.644241e+05   1.258157e+06
  -5.293104e+05   1.466862e+06
  -1.506843e+06   7.120582e+05
  -1.479858e+06  -3.135383e+05
  -6.827790e+05  -8.053344e+05
   7.145470e+04  -6.474509e+05
   2.749273e+05  -3.768952e+05
   1.165944e+05  -4.553378e+05
   8.239613e+04  -7.531828e+05
   3.769915e+05  -7.639584e+05
   7.632279e+05  -2.045217e+05
   8.268110e+05   6.466732e+05
   3.662109e+05   1.158071e+06
  -3.664832e+05   8.936289e+05
  -7.964715e+05   3.063174e+04
  -5.357070e+05  -7.509107e+05
   1.775334e+05  -8.605791e+05
   6.628090e+05  -3.161460e+05
   5.053979e+05   3.421608e+05
  -6.938279e+03   6.229418e+05
  -2.533625e+05   4.998256e+05
  -2.128981e+04   2.834768e+05
   2.573961e+05   2.114829e+05
   3.467747e+04   2.377258e+05
  -6.775983e+05   1.560303e+05
  -1.238771e+06  -1.546132e+05
  -1.009749e+06  -5.869007e+05
  -4.145130e+04  -8.538878e+05
   9.102693e+05  -7.154924e+05
   1.105283e+06  -2.288908e+05
   5.368027e+05   2.391575e+05
  -1.293269e+05   3.295394e+05
  -2.995588e+05   5.046253e+04
  -9.705040e+03  -2.244725e+05
   2.838373e+05  -1.530030e+05
   2.929842e+05   2.037879e+05
   1.271393e+05   4.479586e+05
   3.035917e+04   2.935942e+05
   8.705707e+04  -8.516107e+04
   1.950809e+05  -2.159096e+05
   1.793647e+05   1.304763e+05
  -8.797047e+04   6.166747e+05
  -5.293323e+05   6.622822e+05
  -7.864755e+05   1.092058e+05
  -4.942446e+05  -5.455429e+05
   2.341021e+05  -6.710070e+05
   7.390493e+05  -1.923892e+05
   4.523329e+05   3.519487e+05
  -4.121588e+05   4.163578e+05
  -9.939963e+05  -1.518552e+04
  -6.799793e+05  -5.071769e+05
   2.479095e+05  -6.466068e+05
   9.261141e+05  -3.683498e+05
   7.957065e+05   7.249661e+04
   1.090872e+05   3.239957e+05
  -3.928032e+05   1.942280e+05
  -2.315509e+05  -1.629626e+05
   3.668387e+05  -3.136637e+05
   7.252435e+05   5.628692e+04
   3.998751e+05   7.283548e+05
  -3.734262e+05   1.042441e+06
  -9.173959e+05   5.433255e+05
  -7.829570e+05  -4.619017e+05
  -1.457825e+05  -1.110607e+06
   4.400867e+05  -8.283572e+05
   5.821586e+05   7.436417e+04
   3.073286e+05   7.287644e+05
  -9.363466e+04   6.210418e+05
  -3.386086e+05   7.409026e+04
  -3.143666e+05  -2.321392e+05
  -1.256338e+05  -9.147136e+04
  -2.121617e+04   6.735354e+04
  -1.475267e+05  -1.605668e+05
  -3.188602e+05  -5.829980e+05
  -1.603723e+05  -6.723007e+05
   4.066156e+05  -2.627076e+05
   9.240097e+05   2.670381e+05
   8.291372e+05   5.005447e+05
   1.283846e+05   4.238166e+05
  -5.422620e+05   2.675046e+05
  -6.145251e+05   1.349805e+05
  -2.071078e+05  -1.322337e+04
   9.523106e+04  -1.388409e+05
  -3.632696e+03  -1.413432e+05
  -1.899046e+05  -6.978381e+04
  -2.409784e+04  -8.176609e+04
   4.313314e+05  -1.437700e+05
   6.433267e+05  -1.201971e+03
   2.412207e+05   4.139429e+05
  -5.256576e+05   7.227073e+05
  -1.021040e+06   4.747407e+05
  -8.459124e+05  -2.575318e+05
  -1.797676e+05  -8.677076e+05
   4.464116e+05  -8.529355e+05
   6.378641e+05  -3.317143e+05
   4.105680e+05   1.468575e+05
   7.840499e+04   2.178305e+05
  -6.123414e+04   2.650001e+04
   4.369025e+04  -2.813140e+04
   2.026917e+05   2.165784e+05
   1.743184e+05   4.967912e+05
  -1.049493e+05   4.176500e+05
  -4.261120e+05  -7.992106e+04
  -4.561455e+05  -5.906780e+05
  -6.249351e+04  -6.309844e+05
   4.725716e+05  -1.420389e+05
   6.406087e+05   4.484946e+05
   2.171627e+05   6.650017e+05
  -4.320155e+05   4.127553e+05
  -6.805658e+05  -3.443629e+04
  -3.271288e+05  -3.545050e+05
   1.631913e+05  -4.043768e+05
   2.112584e+05  -2.308001e+05
  -1.701467e+05  -1.174446e+04
  -4.045619e+05   3.024856e+04
  -8.884233e+04  -1.835396e+05
   5.002915e+05  -4.336171e+05
   7.557384e+05  -3.672524e+05
   4.564990e+05   8.228107e+04
  -4.795918e+04   5.307780e+05
  -3.118161e+05   5.307676e+05
  -2.406458e+05   9.495062e+04
  -2.959627e+04  -3.012267e+05
   1.434526e+05  -2.619286e+05
   2.184874e+05   1.017400e+05
   1.626641e+05   3.529239e+05
  -2.890983e+04   2.494212e+05
  -2.406383e+05  -2.879370e+04
  -2.934915e+05  -1.547033e+05
  -1.519612e+05  -4.613858e+04
   1.698559e+04   7.882518e+04
   5.446475e+04  -2.183087e+02
   1.059492e+04  -2.257305e+05
   5.191257e+04  -3.193663e+05
   2.003248e+05  -1.095393e+05
   2.652781e+05   2.437008e+05
   7.814301e+04   3.966070e+05
  -2.542524e+05   1.914266e+05
  -4.024445e+05  -1.716306e+05
  -1.565402e+05  -3.553245e+05
   3.027305e+05  -2.313886e+05
   5.358977e+05   3.926959e+04
   2.967331e+05   2.258999e+05
  -1.741664e+05   2.400045e+05
  -3.855250e+05   1.364846e+05
  -1.419940e+05   1.368493e+04
   2.283273e+05  -3.312764e+04
   2.573020e+05   5.134915e+04
  -1.144810e+05   1.910121e+05
  -4.773343e+05   1.752567e+05
