
 $NMID
 id='ANONYMOUS ', fmtdat='(2E16.6)'
 volume=1.0
 tramp=1.0
 $END
   1.092455e+07   1.442430e+05
   7.357774e+06   5.236920e+06
  -3.922322e+04   7.009082e+06
  -4.888827e+06   4.634428e+06
  -4.130219e+06   4.056018e+05
  -2.439074e+05  -2.063050e+06
   2.337689e+06  -1.008962e+06
   1.728107e+06   1.849625e+06
  -5.932050e+05   3.129323e+06
  -2.150923e+06   1.366021e+06
  -1.785040e+06  -1.493428e+06
  -1.621867e+05  -2.364609e+06
   1.100635e+06  -4.583699e+05
   8.148742e+05   1.988392e+06
  -7.176897e+05   2.303659e+06
  -1.892443e+06   1.923818e+05
  -1.355310e+06  -2.220357e+06
   5.573982e+05  -2.766152e+06
   2.143965e+06  -1.263737e+06
   2.118989e+06   6.939509e+05
   8.573712e+05   1.548208e+06
  -1.732572e+05   1.175941e+06
  -1.854173e+04   6.578966e+05
   8.171714e+05   9.088603e+05
   9.466982e+05   1.675715e+06
  -3.851291e+05   1.902334e+06
  -2.309306e+06   9.784576e+05
  -3.006218e+06  -5.379814e+05
  -1.607999e+06  -1.477488e+06
   6.702259e+05  -1.194857e+06
   1.664600e+06  -8.363452e+04
   5.812207e+05   8.621644e+05
  -1.190476e+06   8.474193e+05
  -1.744769e+06  -1.608934e+05
  -7.454978e+05  -1.352826e+06
   5.093954e+05  -1.636021e+06
   8.051975e+05  -6.680678e+05
   2.328283e+05   5.951694e+05
  -2.903077e+05   7.687933e+05
  -1.762700e+05  -3.390126e+05
   4.026359e+05  -1.343183e+06
   8.833014e+05  -8.941573e+05
   7.892680e+05   5.931563e+05
   4.866758e+04   1.365415e+06
  -8.195174e+05   4.655954e+05
  -9.422717e+05  -1.109471e+06
   8.783657e+04  -1.616070e+06
   1.543506e+06  -5.266340e+05
   2.037459e+06   1.061755e+06
   9.180305e+05   1.739464e+06
  -9.231610e+05   1.110638e+06
  -1.859542e+06  -1.029225e+05
  -1.155442e+06  -8.831052e+05
   3.425756e+05  -7.434591e+05
   1.152011e+06  -1.202568e+04
   6.687935e+05   5.273707e+05
  -3.386636e+05   3.691832e+05
  -6.789126e+05  -2.359646e+05
  -4.544373e+04  -5.765086e+05
   7.092948e+05  -2.631389e+05
   5.863499e+05   3.690189e+05
  -3.918828e+05   6.418953e+05
  -1.156489e+06   2.033321e+05
  -7.483844e+05  -6.836650e+05
   6.258666e+05  -1.354525e+06
   1.802354e+06  -1.207148e+06
   1.861186e+06  -1.697296e+05
   9.707561e+05   1.131697e+06
   2.923413e+04   1.813874e+06
  -3.445382e+05   1.545976e+06
  -3.094731e+05   8.575681e+05
  -3.872031e+05   4.729116e+05
  -7.763703e+05   4.358670e+05
  -1.163293e+06   1.710486e+05
  -1.096990e+06  -5.816447e+05
  -4.487770e+05  -1.237964e+06
   4.396001e+05  -1.011519e+06
   9.704585e+05   7.537888e+04
   7.178373e+05   1.100312e+06
  -1.906998e+05   1.176632e+06
  -1.078861e+06   3.098581e+05
  -1.249525e+06  -7.163215e+05
  -6.295187e+05  -1.160248e+06
   1.622726e+05  -9.381304e+05
   4.893330e+05  -5.176278e+05
   3.937696e+05  -3.430282e+05
   4.722890e+05  -4.045731e+05
   1.037692e+06  -3.222320e+05
   1.587856e+06   1.997650e+05
   1.299195e+06   1.011219e+06
   3.031968e+04   1.584883e+06
  -1.348286e+06   1.445405e+06
  -1.749620e+06   5.912639e+05
  -9.544278e+05  -4.360086e+05
   1.897691e+05  -9.303790e+05
   6.476952e+05  -6.069299e+05
   1.901964e+05   1.063030e+05
  -5.120280e+05   4.465367e+05
  -6.851481e+05   1.020746e+05
  -2.266618e+05  -4.325130e+05
   3.004434e+05  -4.339833e+05
   3.178294e+05   1.367428e+05
  -1.995976e+05   5.123088e+05
  -7.342534e+05   2.541802e+04
  -7.041651e+05  -1.018178e+06
   3.693173e+04  -1.585229e+06
   1.044745e+06  -1.021462e+06
   1.588077e+06   2.553731e+05
   1.231052e+06   1.213471e+06
   2.442978e+05   1.229365e+06
  -5.861815e+05   5.774186e+05
  -6.747574e+05   6.429085e+03
  -1.956084e+05  -2.753715e+04
   1.392294e+05   2.951845e+05
  -1.150540e+05   4.646774e+05
  -6.399072e+05   2.057124e+05
  -7.441134e+05  -2.620903e+05
  -2.010537e+05  -4.839063e+05
   4.386569e+05  -2.525480e+05
   4.384873e+05   1.788696e+05
  -2.808682e+05   3.476677e+05
  -9.937142e+05   2.508485e+04
  -9.040008e+05  -5.673653e+05
   1.444835e+04  -9.399238e+05
   9.675380e+05  -7.484646e+05
   1.132653e+06  -1.091210e+05
   4.591172e+05   4.626543e+05
  -3.356036e+05   4.985219e+05
  -5.155998e+05   4.106028e+04
  -1.601055e+04  -3.699735e+05
   5.846607e+05  -2.544950e+05
   6.841470e+05   2.794698e+05
   2.106574e+05   6.542953e+05
  -3.713266e+05   4.785035e+05
  -5.336669e+05  -2.042472e+04
  -1.824509e+05  -2.794832e+05
   2.560638e+05  -3.813950e+04
   2.531676e+05   4.026295e+05
  -2.677394e+05   5.319898e+05
  -8.041122e+05   1.510932e+05
  -7.691336e+05  -4.582593e+05
  -1.241462e+05  -8.090366e+05
   5.546770e+05  -6.329916e+05
   6.757410e+05  -1.005016e+05
   2.326277e+05   3.338637e+05
  -2.495851e+05   3.409285e+05
  -3.088931e+05   1.646307e+04
   7.414550e+03  -2.419380e+05
   2.802846e+05  -1.747496e+05
   2.057676e+05   6.244798e+04
  -1.014776e+05   1.060042e+05
  -2.502291e+05  -1.634471e+05
   1.584596e+04  -4.519238e+05
   5.300117e+05  -3.605144e+05
   8.193001e+05   1.752914e+05
   5.497540e+05   7.834573e+05
  -1.231055e+05   9.833202e+05
  -6.826758e+05   6.159518e+05
  -7.532625e+05  -2.101264e+04
  -4.394407e+05  -4.491381e+05
  -1.414302e+05  -4.402450e+05
  -8.978230e+04  -1.948096e+05
  -1.391892e+05  -8.637280e+04
  -1.288671e+04  -2.331288e+05
   3.287694e+05  -3.672651e+05
   6.057994e+05  -1.648695e+05
   4.852754e+05   3.280813e+05
  -7.429320e+04   6.721660e+05
  -7.157744e+05   4.688565e+05
  -9.294754e+05  -2.072394e+05
  -4.805552e+05  -8.391586e+05
   3.499874e+05  -9.311201e+05
   9.706773e+05  -4.436224e+05
   9.805976e+05   2.065026e+05
   4.923328e+05   5.527678e+05
  -3.338357e+04   4.883618e+05
  -2.456117e+05   2.933265e+05
  -1.803996e+05   2.785148e+05
  -1.230789e+05   4.310008e+05
  -2.585428e+05   4.428117e+05
  -4.763987e+05   9.058426e+04
  -4.980106e+05  -4.594311e+05
  -1.833383e+05  -7.715457e+05
   2.827584e+05  -5.660408e+05
   5.252328e+05   1.318454e+03
   3.346052e+05   4.851700e+05
  -1.082020e+05   5.508508e+05
  -3.980656e+05   2.313504e+05
  -3.129721e+05  -1.665500e+05
  -2.520560e+04  -3.650349e+05
   1.185667e+05  -3.272924e+05
  -1.105483e+03  -2.124591e+05
  -1.456783e+05  -1.641095e+05
  -3.240117e+03  -1.631422e+05
   4.257630e+05  -8.276392e+04
   7.681248e+05   1.380548e+05
   6.330944e+05   4.008940e+05
   3.430260e+04   5.268191e+05
  -5.722107e+05   4.156712e+05
  -7.124582e+05   1.354262e+05
  -3.576251e+05  -1.222774e+05
   7.487741e+04  -1.843141e+05
   1.836879e+05  -4.358675e+04
  -1.923305e+04   1.139663e+05
  -2.105161e+05   7.777162e+04
  -1.764076e+05  -1.469682e+05
  -2.158210e+04  -3.088736e+05
   3.177613e+04  -1.942314e+05
  -6.732496e+04   8.002775e+04
  -1.702754e+05   1.651084e+05
  -1.180126e+05  -9.043245e+04
   1.076076e+05  -4.119465e+05
   3.727057e+05  -3.991204e+05
   4.671607e+05  -9.176715e+03
   2.485127e+05   3.776296e+05
  -1.813163e+05   3.878853e+05
  -4.612694e+05   5.326356e+04
  -2.728100e+05  -2.634023e+05
   2.771039e+05  -2.634443e+05
   6.693768e+05   2.998876e+04
   4.793745e+05   3.527387e+05
  -1.508167e+05   4.495322e+05
  -6.361905e+05   2.600093e+05
  -5.570952e+05  -5.237115e+04
  -7.889778e+04  -2.276907e+05
   2.606928e+05  -1.306626e+05
   1.307576e+05   1.023265e+05
  -2.727362e+05   1.666520e+05
  -4.658990e+05  -1.014076e+05
  -1.888295e+05  -5.097025e+05
   3.377598e+05  -6.473033e+05
   6.477453e+05  -2.835465e+05
   4.896948e+05   3.565099e+05
   3.697995e+04   7.471980e+05
  -3.305508e+05   5.471733e+05
  -3.888857e+05  -5.023962e+04
  -1.961893e+05  -4.918030e+05
   5.611336e+04  -4.258487e+05
   2.161539e+05  -4.806589e+04
   2.215663e+05   1.747405e+05
   1.066076e+05   7.619697e+04
   6.173214e+03  -5.307222e+04
   4.891048e+04   9.104489e+04
   1.676741e+05   3.896997e+05
   1.093459e+05   4.584540e+05
  -2.404061e+05   1.623158e+05
  -6.027717e+05  -2.208629e+05
  -5.564326e+05  -3.706705e+05
  -6.869024e+04  -2.789575e+05
   3.994441e+05  -1.459345e+05
   4.230573e+05  -7.012264e+04
   1.122326e+05   5.288071e+02
  -8.046391e+04   8.361812e+04
   2.906149e+04   1.122721e+05
   1.567172e+05   7.684358e+04
  -3.309010e+03   5.647876e+04
  -3.297994e+05   5.637225e+04
  -4.174106e+05  -4.408715e+04
  -8.302613e+04  -2.765378e+05
   4.175263e+05  -4.234621e+05
   6.702464e+05  -2.311785e+05
   4.958004e+05   2.339826e+05
   5.632686e+04   5.855428e+05
  -3.294621e+05   5.237419e+05
  -4.351411e+05   1.576865e+05
  -2.655065e+05  -1.395603e+05
  -2.340928e+04  -1.457788e+05
   7.225662e+04   8.758956e+03
  -1.941940e+04   4.096955e+04
  -1.382607e+05  -1.427687e+05
  -1.017071e+05  -3.353254e+05
   9.859347e+04  -2.597547e+05
   2.807954e+05   1.005052e+05
   2.440081e+05   4.355854e+05
  -3.327025e+04   4.120558e+05
  -3.380570e+05   3.210207e+04
  -3.824916e+05  -3.616308e+05
  -8.181229e+04  -4.459973e+05
   3.118390e+05  -2.201371e+05
   4.267612e+05   7.112250e+04
   1.748680e+05   2.268284e+05
  -1.268961e+05   2.239970e+05
  -1.227298e+05   1.322885e+05
   1.421826e+05   3.044741e+04
   2.752725e+05   8.853602e+03
   3.706695e+04   1.191956e+05
  -3.528049e+05   2.603776e+05
  -4.902860e+05   2.224867e+05
  -2.642627e+05  -5.422929e+04
   6.402788e+04  -3.327762e+05
   2.069879e+05  -3.182570e+05
   1.314235e+05  -2.659190e+04
  -1.499882e+04   2.118236e+05
  -1.148262e+05   1.462299e+05
  -1.384272e+05  -1.075023e+05
  -8.160616e+04  -2.418539e+05
   4.037673e+04  -1.358969e+05
   1.544716e+05   4.518636e+04
   1.741026e+05   9.844111e+04
   9.724249e+04   2.145679e+04
   7.149864e+03  -3.002364e+04
  -3.654931e+04   4.284277e+04
  -5.991307e+04   1.644168e+05
  -1.076374e+05   1.736942e+05
  -1.542556e+05   7.906757e+03
  -1.209674e+05  -2.081430e+05
   2.277834e+04  -2.677722e+05
   1.921966e+05  -9.582842e+04
   2.339706e+05   1.550443e+05
   6.628287e+04   2.533589e+05
  -2.036047e+05   1.294760e+05
  -3.314774e+05  -7.023789e+04
  -1.723797e+05  -1.662210e+05
   1.278143e+05  -1.254264e+05
   2.523417e+05  -4.041422e+04
   7.152647e+04   3.408987e+03
  -1.821422e+05  -1.576767e+04
  -1.770128e+05  -8.121269e+04
   1.125399e+05  -1.366560e+05
   3.654460e+05  -8.388989e+04
