
 $NMID
 id='ANONYMOUS ', fmtdat='(2E16.6)'
 volume=1.0
 tramp=1.0
 $END
  -3.649003e+07   2.355720e+04
  -2.322310e+07  -2.003115e+07
   2.493774e+06  -2.403413e+07
   1.696501e+07  -1.234909e+07
   1.202875e+07   1.664099e+06
  -7.169116e+05   6.358408e+06
  -6.945698e+06   1.176506e+06
  -3.654032e+06  -6.167922e+06
   2.963850e+06  -8.049393e+06
   6.601591e+06  -2.852477e+06
   5.217937e+06   4.390020e+06
   6.160490e+05   6.611623e+06
  -3.055600e+06   1.686080e+06
  -2.226644e+06  -4.928076e+06
   2.339405e+06  -5.843413e+06
   5.643049e+06   1.108594e+05
   3.709051e+06   6.929841e+06
  -2.076014e+06   8.395941e+06
  -6.780704e+06   4.089141e+06
  -7.064364e+06  -1.710054e+06
  -3.682393e+06  -4.977100e+06
   1.302680e+03  -4.836474e+06
   1.029377e+06  -3.106059e+06
  -6.663484e+05  -2.289291e+06
  -1.936765e+06  -3.302666e+06
   4.296139e+05  -4.420670e+06
   5.426135e+06  -3.131673e+06
   8.031807e+06   5.582203e+05
   4.974092e+06   3.666990e+06
  -9.226287e+05   3.623042e+06
  -3.869840e+06   1.070752e+06
  -1.794381e+06  -1.316864e+06
   2.014260e+06  -1.694633e+06
   3.502063e+06  -7.236532e+03
   1.990689e+06   2.547703e+06
  -4.609839e+05   3.917466e+06
  -1.839944e+06   2.410446e+06
  -1.507101e+06  -9.489425e+05
  -1.646319e+05  -2.469226e+06
   5.723743e+05  -1.484707e+05
  -4.442347e+05   2.956894e+06
  -2.185093e+06   2.223749e+06
  -2.080852e+06  -1.992279e+06
   7.364215e+05  -4.222714e+06
   3.665506e+06  -1.072365e+06
   3.250854e+06   4.110089e+06
  -7.720264e+05   5.463943e+06
  -4.961918e+06   1.693909e+06
  -5.602763e+06  -3.126768e+06
  -2.121853e+06  -4.751557e+06
   2.590154e+06  -2.685321e+06
   4.697635e+06   6.214448e+05
   2.655415e+06   2.517088e+06
  -1.337631e+06   1.899101e+06
  -3.337601e+06  -2.715500e+05
  -1.714934e+06  -1.723785e+06
   1.108582e+06  -1.042843e+06
   1.654828e+06   6.929993e+05
  -3.652180e+05   1.190248e+06
  -1.926027e+06  -1.810811e+05
  -6.837958e+05  -1.724702e+06
   2.193676e+06  -1.645439e+06
   3.612726e+06   1.199179e+05
   1.981155e+06   2.410785e+06
  -1.545224e+06   3.958974e+06
  -4.489369e+06   3.635253e+06
  -5.037544e+06   9.444815e+05
  -3.144352e+06  -2.819693e+06
  -4.428133e+05  -4.954094e+06
   1.114603e+06  -4.057170e+06
   1.040763e+06  -1.764120e+06
   6.235908e+05  -6.775502e+05
   1.179891e+06  -1.068679e+06
   2.371493e+06  -9.418861e+05
   2.716069e+06   7.799813e+05
   1.453758e+06   2.579515e+06
  -6.332218e+05   2.333358e+06
  -2.047370e+06  -7.739066e+03
  -1.738876e+06  -2.399807e+06
   2.493445e+05  -2.851949e+06
   2.625623e+06  -1.096655e+06
   3.524513e+06   1.479165e+06
   2.143008e+06   3.085924e+06
  -2.307797e+05   2.933996e+06
  -1.533724e+06   1.768097e+06
  -1.374579e+06   9.440026e+05
  -1.354785e+06   8.844533e+05
  -2.624978e+06   7.070910e+05
  -3.991932e+06  -5.141405e+05
  -3.273746e+06  -2.483671e+06
  -1.531340e+05  -3.900151e+06
   3.158015e+06  -3.661063e+06
   4.150680e+06  -1.729746e+06
   2.425270e+06   7.866332e+05
  -1.620541e+05   2.233425e+06
  -1.362831e+06   1.641208e+06
  -4.906790e+05  -1.722398e+05
   1.160552e+06  -1.167056e+06
   1.722507e+06  -3.173379e+05
   6.851412e+05   1.083937e+06
  -6.298088e+05   1.066354e+06
  -6.404687e+05  -3.406129e+05
   6.682981e+05  -1.037311e+06
   1.782478e+06   3.951034e+05
   1.347253e+06   2.770869e+06
  -5.564806e+05   3.639944e+06
  -2.673739e+06   2.004299e+06
  -3.622712e+06  -8.363198e+05
  -2.749367e+06  -2.791072e+06
  -5.867392e+05  -2.807161e+06
   1.318547e+06  -1.433461e+06
   1.596518e+06  -1.188596e+05
   4.760257e+05   4.965818e+04
  -3.499775e+05  -7.178291e+05
   3.122330e+05  -1.194405e+06
   1.656808e+06  -5.397019e+05
   1.871359e+06   6.969598e+05
   4.545590e+05   1.238875e+06
  -1.086411e+06   5.992604e+05
  -9.931416e+05  -4.279694e+05
   7.279379e+05  -7.302316e+05
   2.306147e+06   4.204241e+04
   2.030803e+06   1.323374e+06
  -7.779214e+04   2.146199e+06
  -2.282034e+06   1.773919e+06
  -2.723184e+06   3.063455e+05
  -1.153026e+06  -1.144263e+06
   8.273986e+05  -1.310932e+06
   1.345526e+06  -1.462001e+05
   1.056531e+05   9.537009e+05
  -1.432196e+06   6.717978e+05
  -1.671292e+06  -6.864190e+05
  -4.624425e+05  -1.584474e+06
   9.439296e+05  -1.089394e+06
   1.263562e+06   1.297342e+05
   3.689599e+05   7.014475e+05
  -6.831369e+05   8.103798e+04
  -6.677317e+05  -9.938058e+05
   6.017743e+05  -1.341753e+06
   1.952845e+06  -4.569482e+05
   1.928669e+06   1.052723e+06
   3.566727e+05   1.980740e+06
  -1.344114e+06   1.577922e+06
  -1.647464e+06   2.522904e+05
  -5.426410e+05  -8.124778e+05
   6.088481e+05  -8.141020e+05
   6.962820e+05  -6.008725e+04
  -5.088885e+04   4.997887e+05
  -6.018922e+05   3.500037e+05
  -3.596650e+05  -1.134948e+05
   3.159756e+05  -1.382910e+05
   5.775569e+05   4.846381e+05
  -8.197342e+04   1.122468e+06
  -1.297418e+06   8.958383e+05
  -2.012308e+06  -3.872267e+05
  -1.399617e+06  -1.879511e+06
   2.284268e+05  -2.379919e+06
   1.600367e+06  -1.473548e+06
   1.757305e+06   4.906563e+04
   9.951663e+05   9.868269e+05
   3.489923e+05   8.945434e+05
   3.220334e+05   3.700581e+05
   4.477751e+05   2.418649e+05
   6.485453e+04   6.354239e+05
  -8.039496e+05   9.021031e+05
  -1.443880e+06   3.951594e+05
  -1.135743e+06  -7.412062e+05
   1.766665e+05  -1.556783e+06
   1.698440e+06  -1.132348e+06
   2.240739e+06   4.559180e+05
   1.173024e+06   2.024199e+06
  -8.691525e+05   2.290156e+06
  -2.386726e+06   1.083024e+06
  -2.351197e+06  -5.202538e+05
  -1.112093e+06  -1.308009e+06
   1.090500e+05  -1.083911e+06
   5.009633e+05  -6.387844e+05
   2.880204e+05  -7.057981e+05
   2.066570e+05  -1.138041e+06
   6.211690e+05  -1.153157e+06
   1.193106e+06  -2.718649e+05
   1.262028e+06   1.072824e+06
   5.105571e+05   1.855597e+06
  -6.348772e+05   1.393874e+06
  -1.266105e+06   1.516035e+04
  -8.210885e+05  -1.194376e+06
   2.888077e+05  -1.349504e+06
   1.022566e+06  -5.104090e+05
   7.775104e+05   5.004352e+05
   3.481611e+03   9.482439e+05
  -3.682739e+05   7.857663e+05
  -2.309607e+04   4.715920e+05
   3.879468e+05   3.641073e+05
   3.532356e+04   3.873553e+05
  -1.064306e+06   2.195513e+05
  -1.928465e+06  -3.013666e+05
  -1.567393e+06  -9.648639e+05
  -5.409182e+04  -1.325274e+06
   1.437456e+06  -1.070115e+06
   1.745516e+06  -3.310451e+05
   8.496834e+05   3.570383e+05
  -2.034225e+05   4.926481e+05
  -4.651546e+05   8.426407e+04
   1.035483e+04  -3.300454e+05
   4.746292e+05  -2.226332e+05
   4.501650e+05   3.392553e+05
   1.429356e+05   7.299708e+05
  -1.299846e+03   4.703413e+05
   1.483200e+05  -1.570586e+05
   3.519996e+05  -3.618257e+05
   2.853878e+05   2.184562e+05
  -1.947356e+05   9.907925e+05
  -8.795680e+05   1.013225e+06
  -1.213635e+06   1.003963e+05
  -7.101963e+05  -8.974728e+05
   4.109723e+05  -1.017410e+06
   1.160541e+06  -2.284654e+05
   6.939473e+05   5.955422e+05
  -6.668232e+05   6.469792e+05
  -1.594390e+06  -5.546919e+04
  -1.102771e+06  -8.319509e+05
   3.916959e+05  -1.045404e+06
   1.500665e+06  -5.880259e+05
   1.293234e+06   1.308079e+05
   1.749408e+05   5.288531e+05
  -6.286090e+05   3.036864e+05
  -3.445484e+05  -2.601611e+05
   6.186660e+05  -4.582905e+05
   1.144689e+06   1.594411e+05
   5.596421e+05   1.194650e+06
  -6.924000e+05   1.621522e+06
  -1.508454e+06   7.871135e+05
  -1.217742e+06  -7.928681e+05
  -1.642021e+05  -1.784570e+06
   7.480412e+05  -1.313563e+06
   9.291763e+05   1.287634e+05
   4.712024e+05   1.174517e+06
  -1.546916e+05   9.993635e+05
  -5.342501e+05   1.098422e+05
  -5.090593e+05  -3.931016e+05
  -2.187695e+05  -1.600648e+05
  -2.698659e+04   1.134654e+05
  -1.886863e+05  -2.481380e+05
  -4.601678e+05  -9.388231e+05
  -2.476102e+05  -1.083273e+06
   6.271623e+05  -3.993376e+05
   1.461369e+06   4.784742e+05
   1.320921e+06   8.437748e+05
   1.835458e+05   6.771092e+05
  -9.045917e+05   3.932608e+05
  -9.960101e+05   1.892626e+05
  -3.079134e+05  -1.892755e+04
   1.686768e+05  -2.131594e+05
  -2.845238e+04  -2.397966e+05
  -3.298450e+05  -1.398330e+05
  -1.962613e+04  -1.347088e+05
   7.304246e+05  -1.907945e+05
   1.019628e+06   4.874328e+04
   3.109748e+05   6.701197e+05
  -9.119769e+05   1.098523e+06
  -1.633478e+06   6.669405e+05
  -1.291502e+06  -4.825612e+05
  -2.187907e+05  -1.398248e+06
   7.573745e+05  -1.317871e+06
   1.037055e+06  -4.645856e+05
   6.484903e+05   2.786038e+05
   9.588951e+04   3.518343e+05
  -1.273669e+05   2.029697e+04
   6.063195e+04  -6.273849e+04
   3.223074e+05   3.478617e+05
   2.568324e+05   8.001828e+05
  -2.007295e+05   6.495807e+05
  -6.782521e+05  -1.762481e+05
  -6.683304e+05  -9.896974e+05
  -2.436577e+04  -1.004709e+06
   7.797878e+05  -1.665484e+05
   9.806196e+05   7.825465e+05
   2.819909e+05   1.071184e+06
  -7.203755e+05   6.061564e+05
  -1.065864e+06  -1.095267e+05
  -4.782381e+05  -5.664523e+05
   2.864662e+05  -6.047464e+05
   3.273279e+05  -3.443244e+05
  -2.977744e+05  -3.830689e+04
  -6.533331e+05   1.714524e+04
  -1.198111e+05  -2.933090e+05
   8.237776e+05  -6.603837e+05
   1.201703e+06  -5.535776e+05
   6.927030e+05   1.406307e+05
  -1.138699e+05   8.300273e+05
  -5.077474e+05   8.114374e+05
  -3.633471e+05   1.144002e+05
  -1.347639e+04  -4.930292e+05
   2.516363e+05  -3.928674e+05
   3.436536e+05   2.003267e+05
   2.313078e+05   5.733645e+05
  -7.028535e+04   3.729583e+05
  -3.799823e+05  -7.252675e+04
  -4.468981e+05  -2.489257e+05
  -2.377656e+05  -6.824801e+04
   8.303929e+03   1.079804e+05
   8.430453e+04  -3.609361e+04
   6.502521e+04  -3.753416e+05
   1.530916e+05  -4.798805e+05
   3.433108e+05  -1.172055e+05
   3.744955e+05   4.358701e+05
   5.439188e+04   6.420408e+05
  -4.305217e+05   2.757056e+05
  -6.128987e+05  -3.176718e+05
  -2.124077e+05  -5.865148e+05
   4.902981e+05  -3.432438e+05
   8.354158e+05   1.110570e+05
   4.489493e+05   3.804097e+05
  -2.940333e+05   3.510835e+05
  -6.163908e+05   1.678918e+05
  -2.077334e+05   7.700844e+03
   3.925906e+05  -1.832522e+04
   4.170987e+05   1.258630e+05
  -2.161894e+05   3.128993e+05
  -8.069229e+05   2.465923e+05
