
 $NMID
 id='ANONYMOUS ', fmtdat='(2E16.6)'
 volume=1.0
 tramp=1.0
 $END
   7.898028e+06  -1.068544e+06
   6.107475e+06   3.047146e+06
   8.257721e+05   5.237103e+06
  -3.242653e+06   3.991004e+06
  -3.191510e+06   6.825479e+05
  -3.946814e+05  -1.567723e+06
   1.744583e+06  -9.508405e+05
   1.478752e+06   1.298479e+06
  -2.466080e+05   2.430758e+06
  -1.535348e+06   1.207211e+06
  -1.418487e+06  -9.413508e+05
  -2.845468e+05  -1.698159e+06
   7.332630e+05  -3.993648e+05
   6.789775e+05   1.412628e+06
  -4.080641e+05   1.770390e+06
  -1.416944e+06   3.100134e+05
  -1.208046e+06  -1.528971e+06
   1.512520e+05  -2.103254e+06
   1.428381e+06  -1.137665e+06
   1.571435e+06   2.726365e+05
   7.682778e+05   9.677750e+05
   6.405152e+04   8.116685e+05
   1.482555e+05   5.330336e+05
   6.820839e+05   7.363663e+05
   7.278690e+05   1.247691e+06
  -2.309467e+05   1.395971e+06
  -1.621358e+06   7.927710e+05
  -2.178414e+06  -2.356381e+05
  -1.231220e+06  -9.430670e+05
   4.098849e+05  -8.363349e+05
   1.164208e+06  -9.252438e+04
   3.964946e+05   6.030871e+05
  -8.906203e+05   6.186173e+05
  -1.284474e+06  -1.049391e+05
  -5.584130e+05  -9.650950e+05
   3.160169e+05  -1.174537e+06
   5.046545e+05  -5.099841e+05
   1.411142e+05   3.639753e+05
  -1.550906e+05   5.026311e+05
  -7.170029e+04  -2.518526e+05
   2.737612e+05  -9.796682e+05
   6.124043e+05  -7.049253e+05
   6.454549e+05   3.802545e+05
   1.722171e+05   1.052611e+06
  -5.623236e+05   4.999261e+05
  -8.270527e+05  -6.904149e+05
  -1.194686e+05  -1.216747e+06
   1.073301e+06  -5.347403e+05
   1.583624e+06   6.472286e+05
   7.944134e+05   1.249706e+06
  -6.296722e+05   8.849521e+05
  -1.403237e+06   2.234528e+04
  -9.232373e+05  -6.020426e+05
   2.017543e+05  -5.907773e+05
   8.581305e+05  -1.010370e+05
   5.443813e+05   3.398923e+05
  -2.178843e+05   2.993112e+05
  -5.179453e+05  -1.412001e+05
  -5.153242e+04  -4.572229e+05
   5.653922e+05  -2.534922e+05
   5.184640e+05   2.829829e+05
  -2.363151e+05   5.783218e+05
  -8.786171e+05   2.710444e+05
  -6.369516e+05  -4.490026e+05
   3.543776e+05  -1.025626e+06
   1.230579e+06  -9.744970e+05
   1.326344e+06  -2.374341e+05
   7.617808e+05   7.376944e+05
   1.356063e+05   1.304802e+06
  -1.573024e+05   1.174400e+06
  -2.048912e+05   6.789689e+05
  -3.045933e+05   3.595555e+05
  -5.725119e+05   3.094555e+05
  -8.302113e+05   1.326470e+05
  -7.922249e+05  -3.957806e+05
  -3.449520e+05  -8.801753e+05
   3.011767e+05  -7.354690e+05
   7.128113e+05   4.354826e+04
   5.554385e+05   7.898391e+05
  -9.641069e+04   8.620354e+05
  -7.598617e+05   2.683315e+05
  -9.286515e+05  -4.455801e+05
  -5.269097e+05  -7.819211e+05
   3.250656e+04  -6.792077e+05
   2.957867e+05  -4.238617e+05
   2.618531e+05  -3.033638e+05
   3.375813e+05  -3.389962e+05
   7.618435e+05  -2.923530e+05
   1.189039e+06   7.034517e+04
   1.008654e+06   6.858222e+05
   9.175758e+04   1.168489e+06
  -9.312574e+05   1.119670e+06
  -1.252696e+06   5.012171e+05
  -7.023458e+05  -2.796886e+05
   1.095959e+05  -6.755103e+05
   4.436649e+05  -4.570385e+05
   1.348984e+05   7.067228e+04
  -3.571270e+05   3.425619e+05
  -4.947451e+05   1.050166e+05
  -1.836795e+05  -2.991410e+05
   2.042915e+05  -3.221376e+05
   2.405755e+05   9.997974e+04
  -1.412999e+05   4.027956e+05
  -5.775364e+05   5.353850e+04
  -5.930920e+05  -7.481096e+05
  -3.238819e+04  -1.214027e+06
   7.643371e+05  -8.201552e+05
   1.209501e+06   1.333036e+05
   9.583119e+05   8.661788e+05
   2.210280e+05   9.051086e+05
  -4.090198e+05   4.462153e+05
  -4.921424e+05   2.976214e+04
  -1.445330e+05  -1.135211e+04
   1.141973e+05   2.126244e+05
  -6.230681e+04   3.496992e+05
  -4.610523e+05   1.840010e+05
  -5.630555e+05  -1.586015e+05
  -1.708955e+05  -3.498252e+05
   3.165345e+05  -2.031426e+05
   3.309724e+05   1.231630e+05
  -2.054677e+05   2.755194e+05
  -7.483155e+05   5.251541e+04
  -6.936018e+05  -3.976836e+05
  -1.849556e+04  -7.038927e+05
   6.909852e+05  -5.915290e+05
   8.319964e+05  -1.262485e+05
   3.596653e+05   3.192014e+05
  -2.200847e+05   3.812192e+05
  -3.737306e+05   5.747828e+04
  -2.842381e+04  -2.668132e+05
   4.189601e+05  -2.114994e+05
   5.180557e+05   1.783206e+05
   1.827126e+05   4.786152e+05
  -2.596975e+05   3.721176e+05
  -4.006144e+05   4.437567e+03
  -1.463908e+05  -2.039221e+05
   1.906207e+05  -4.048749e+04
   2.046852e+05   2.877058e+05
  -1.760350e+05   4.036853e+05
  -5.862291e+05   1.443291e+05
  -5.853942e+05  -3.050508e+05
  -1.262020e+05  -5.907591e+05
   3.813590e+05  -4.914463e+05
   4.942488e+05  -1.035248e+05
   1.847619e+05   2.376282e+05
  -1.723191e+05   2.610964e+05
  -2.258214e+05   1.888432e+04
   4.622008e+03  -1.839001e+05
   2.097571e+05  -1.352998e+05
   1.545729e+05   5.092170e+04
  -8.088110e+04   9.133215e+04
  -2.020119e+05  -1.123574e+05
  -1.049744e+04  -3.411492e+05
   3.776824e+05  -2.920938e+05
   6.139481e+05   9.439960e+04
   4.395566e+05   5.545246e+05
  -5.062854e+04   7.299150e+05
  -4.821163e+05   4.817182e+05
  -5.599888e+05   1.166413e+04
  -3.384345e+05  -3.193505e+05
  -1.114979e+05  -3.204792e+05
  -6.748343e+04  -1.334202e+05
  -1.100844e+05  -5.007640e+04
  -2.613461e+04  -1.708173e+05
   2.273688e+05  -2.894215e+05
   4.455313e+05  -1.482994e+05
   3.733498e+05   2.266643e+05
  -3.139407e+04   5.046518e+05
  -5.138481e+05   3.773813e+05
  -6.970649e+05  -1.161952e+05
  -3.910365e+05  -6.035194e+05
   2.194582e+05  -7.077618e+05
   7.018993e+05  -3.720133e+05
   7.378650e+05   1.144229e+05
   3.861184e+05   3.958682e+05
  -1.191982e+04   3.664506e+05
  -1.759659e+05   2.214723e+05
  -1.205759e+05   2.030402e+05
  -6.652948e+04   3.176404e+05
  -1.672984e+05   3.386129e+05
  -3.458301e+05   8.970148e+04
  -3.855707e+05  -3.165437e+05
  -1.666232e+05  -5.603913e+05
   1.851941e+05  -4.278527e+05
   3.886300e+05  -1.961387e+04
   2.697156e+05   3.460257e+05
  -5.655811e+04   4.155129e+05
  -2.899478e+05   1.925030e+05
  -2.468769e+05  -1.094607e+05
  -3.861050e+04  -2.746381e+05
   7.549382e+04  -2.541342e+05
  -6.280448e+03  -1.592904e+05
  -1.132802e+05  -1.128172e+05
  -9.369337e+03  -1.192734e+05
   3.117942e+05  -8.242993e+04
   5.749540e+05   6.519260e+04
   4.867561e+05   2.693914e+05
   5.022405e+04   3.926238e+05
  -4.036907e+05   3.363390e+05
  -5.231060e+05   1.311631e+05
  -2.748774e+05  -7.770540e+04
   4.445912e+04  -1.420162e+05
   1.364769e+05  -4.171327e+04
  -4.380959e+03   8.294459e+04
  -1.495385e+05   6.457393e+04
  -1.361312e+05  -9.932485e+04
  -2.854034e+04  -2.212443e+05
   1.503770e+04  -1.396049e+05
  -4.941116e+04   6.150769e+04
  -1.230811e+05   1.253043e+05
  -9.275506e+04  -6.294390e+04
   6.259961e+04  -3.068004e+05
   2.576443e+05  -3.113958e+05
   3.424111e+05  -3.287528e+04
   2.000160e+05   2.623434e+05
  -1.126579e+05   2.943797e+05
  -3.332822e+05   6.295033e+04
  -2.107429e+05  -1.813062e+05
   1.938814e+05  -2.070876e+05
   4.969581e+05  -4.064504e+03
   3.691206e+05   2.462361e+05
  -9.641285e+04   3.422831e+05
  -4.648007e+05   2.165770e+05
  -4.162179e+05  -2.013092e+04
  -6.618456e+04  -1.670047e+05
   1.893186e+05  -1.072163e+05
   1.022327e+05   6.896290e+04
  -1.917098e+05   1.321817e+05
  -3.439521e+05  -5.459633e+04
  -1.589059e+05  -3.628476e+05
   2.189979e+05  -4.854751e+05
   4.609819e+05  -2.336509e+05
   3.732987e+05   2.412316e+05
   5.733840e+04   5.474097e+05
  -2.232407e+05   4.161385e+05
  -2.915765e+05  -2.224093e+04
  -1.647931e+05  -3.576802e+05
   2.711214e+04  -3.200822e+05
   1.596344e+05  -4.526500e+04
   1.693150e+05   1.228737e+05
   7.993086e+04   5.528780e+04
   3.570427e+03  -4.030562e+04
   4.278318e+04   6.059842e+04
   1.405181e+05   2.783673e+05
   9.767548e+04   3.369491e+05
  -1.718087e+05   1.338697e+05
  -4.524296e+05  -1.385033e+05
  -4.243045e+05  -2.538815e+05
  -6.302399e+04  -2.031999e+05
   2.869649e+05  -1.206060e+05
   3.096910e+05  -6.760381e+04
   8.519403e+04  -6.939410e+03
  -5.511881e+04   6.331509e+04
   2.361687e+04   8.505700e+04
   1.157865e+05   5.430490e+04
  -8.869581e+01   4.034424e+04
  -2.381163e+05   5.080217e+04
  -3.076647e+05  -1.452490e+04
  -7.411477e+04  -1.936338e+05
   2.861675e+05  -3.247419e+05
   4.801920e+05  -2.011791e+05
   3.724312e+05   1.454544e+05
   6.539019e+04   4.261928e+05
  -2.190520e+05   4.003129e+05
  -3.105858e+05   1.346989e+05
  -1.987098e+05  -9.201917e+04
  -2.358031e+04  -1.046158e+05
   5.054296e+04   6.780264e+03
  -1.573140e+04   3.199163e+04
  -1.086844e+05  -1.015270e+05
  -8.831256e+04  -2.442095e+05
   6.092657e+04  -1.941733e+05
   2.075565e+05   6.293320e+04
   1.946713e+05   3.070735e+05
  -6.332764e+03   2.993013e+05
  -2.424760e+05   3.553489e+04
  -2.923071e+05  -2.477144e+05
  -7.936620e+04  -3.213710e+05
   2.166049e+05  -1.745300e+05
   3.156186e+05   3.213785e+04
   1.412051e+05   1.574900e+05
  -8.023962e+04   1.708517e+05
  -8.448293e+04   1.058072e+05
   1.036005e+05   1.975869e+04
   2.018865e+05  -4.241134e+03
   3.322249e+04   8.475908e+04
  -2.487467e+05   2.058822e+05
  -3.540606e+05   1.866991e+05
  -1.997752e+05  -2.537084e+04
   3.155954e+04  -2.468309e+05
   1.375407e+05  -2.458983e+05
   9.316467e+04  -2.926650e+04
  -3.362507e+03   1.539169e+05
  -7.598248e+04   1.118227e+05
  -1.027583e+05  -7.281819e+04
  -7.002513e+04  -1.735977e+05
   2.070437e+04  -1.009676e+05
   1.137834e+05   2.639023e+04
   1.344171e+05   6.410903e+04
   7.440995e+04   1.186839e+04
   1.126147e+03  -2.102549e+04
  -3.057196e+04   3.230546e+04
  -3.870182e+04   1.181627e+05
  -6.708807e+04   1.257183e+05
  -1.063006e+05   1.090912e+04
  -9.399486e+04  -1.425747e+05
   5.203959e+03  -1.913169e+05
   1.351009e+05  -7.692000e+04
   1.763027e+05   1.013505e+05
   5.817741e+04   1.812809e+05
  -1.436547e+05   1.047391e+05
  -2.449812e+05  -3.541004e+04
  -1.335041e+05  -1.137422e+05
   8.597171e+04  -9.766829e+04
   1.803407e+05  -4.150004e+04
   5.230121e+04  -3.346577e+03
  -1.310390e+05  -7.541507e+03
  -1.291050e+05  -5.323644e+04
   7.885144e+04  -1.015005e+05
   2.638161e+05  -7.169457e+04
