
 $NMID
 id='ANONYMOUS ', fmtdat='(2E16.6)'
 volume=1.0
 tramp=1.0
 $END
   4.325433e+07   1.272534e+06
   2.577262e+07   2.621461e+07
  -5.432237e+06   2.868416e+07
  -2.095828e+07   1.203395e+07
  -1.307563e+07  -4.254125e+06
   2.021956e+06  -7.198309e+06
   7.744534e+06   1.442706e+05
   2.845461e+06   7.418675e+06
  -4.369156e+06   8.007149e+06
  -7.578074e+06   2.116221e+06
  -5.590897e+06  -5.086592e+06
  -5.115909e+05  -7.148241e+06
   3.370568e+06  -1.986517e+06
   2.213345e+06   4.931651e+06
  -2.932152e+06   5.751249e+06
  -6.262938e+06  -8.035262e+05
  -3.611838e+06  -8.068648e+06
   2.955034e+06  -9.339921e+06
   8.001508e+06  -4.447004e+06
   8.298148e+06   2.010601e+06
   4.613266e+06   5.985032e+06
   8.151289e+04   6.286149e+06
  -1.969272e+06   4.139826e+06
  -5.206601e+05   2.234632e+06
   1.488349e+06   2.600966e+06
  -1.359926e+05   4.103030e+06
  -5.213244e+06   3.469672e+06
  -8.362681e+06  -2.163125e+05
  -5.562893e+06  -3.818212e+06
   4.584413e+05  -4.109288e+06
   3.677801e+06  -1.644550e+06
   2.047686e+06   7.099805e+05
  -1.269441e+06   1.318634e+06
  -2.800890e+06   2.426368e+05
  -2.001233e+06  -1.950065e+06
  -3.226803e+04  -3.763115e+06
   1.814846e+06  -2.899556e+06
   2.214246e+06   6.216050e+05
   7.576864e+05   2.923282e+06
  -7.143435e+05   9.059812e+05
   8.005089e+04  -2.612704e+06
   2.214791e+06  -2.107340e+06
   2.056577e+06   2.451893e+06
  -1.568604e+06   4.752902e+06
  -4.919577e+06   8.039136e+05
  -3.728769e+06  -5.245347e+06
   1.424794e+06  -6.458488e+06
   5.829855e+06  -1.759994e+06
   5.806435e+06   3.659160e+06
   1.782443e+06   5.071268e+06
  -2.871479e+06   2.488828e+06
  -4.649726e+06  -1.059759e+06
  -2.343942e+06  -2.828080e+06
   1.774805e+06  -1.867401e+06
   3.651815e+06   6.320289e+05
   1.664193e+06   2.099536e+06
  -1.343772e+06   1.092889e+06
  -1.583271e+06  -8.247202e+05
   7.657712e+05  -9.626789e+05
   1.994216e+06   9.049032e+05
  -1.563614e+04   2.334492e+06
  -3.171847e+06   1.539903e+06
  -4.105020e+06  -7.674793e+05
  -1.928966e+06  -3.004763e+06
   1.676263e+06  -4.295246e+06
   4.572675e+06  -3.904391e+06
   5.325915e+06  -1.143009e+06
   3.565650e+06   2.917143e+06
   5.335278e+05   5.256253e+06
  -1.458118e+06   4.112677e+06
  -1.297102e+06   1.390578e+06
  -3.546289e+05   2.488324e+05
  -5.953999e+05   1.017460e+06
  -1.960655e+06   1.277094e+06
  -2.658960e+06  -3.236823e+05
  -1.636160e+06  -2.204655e+06
   3.268378e+05  -2.157250e+06
   1.737698e+06  -8.845351e+04
   1.615571e+06   2.152072e+06
  -1.585908e+05   2.753824e+06
  -2.590893e+06   1.253205e+06
  -3.758519e+06  -1.355532e+06
  -2.444869e+06  -3.293960e+06
   2.221150e+05  -3.357819e+06
   1.841920e+06  -2.045167e+06
   1.699462e+06  -9.278774e+05
   1.496545e+06  -7.152862e+05
   2.629869e+06  -5.292765e+05
   3.932329e+06   6.559462e+05
   3.164019e+06   2.529176e+06
   8.270195e+04   3.807271e+06
  -3.073232e+06   3.548896e+06
  -3.991803e+06   1.771323e+06
  -2.416350e+06  -6.225451e+05
  -1.609078e+04  -2.142493e+06
   1.210760e+06  -1.687694e+06
   5.038206e+05   1.122110e+05
  -1.091034e+06   1.164269e+06
  -1.728197e+06   3.105016e+05
  -7.396259e+05  -1.103783e+06
   5.636867e+05  -1.034097e+06
   5.090592e+05   3.436439e+05
  -8.094979e+05   8.094991e+05
  -1.683158e+06  -7.971188e+05
  -9.036496e+05  -2.936633e+06
   1.022315e+06  -3.304134e+06
   2.732005e+06  -1.454701e+06
   3.265100e+06   1.094270e+06
   2.369988e+06   2.649354e+06
   4.747521e+05   2.581141e+06
  -1.236793e+06   1.365427e+06
  -1.516665e+06   1.446156e+05
  -4.600538e+05  -5.198485e+04
   3.269529e+05   7.033803e+05
  -3.641343e+05   1.195401e+06
  -1.699471e+06   5.003211e+05
  -1.838358e+06  -7.804318e+05
  -3.778593e+05  -1.263270e+06
   1.079699e+06  -5.409805e+05
   8.917388e+05   4.272352e+05
  -7.470969e+05   5.845445e+05
  -2.123458e+06  -1.894087e+05
  -1.783376e+06  -1.285690e+06
   1.703375e+05  -1.952807e+06
   2.199652e+06  -1.604186e+06
   2.617157e+06  -2.409767e+05
   1.107446e+06   1.162238e+06
  -8.548842e+05   1.321870e+06
  -1.383876e+06   1.328375e+05
  -1.272809e+05  -9.726379e+05
   1.414017e+06  -6.485946e+05
   1.600218e+06   7.205678e+05
   3.592071e+05   1.540091e+06
  -9.760759e+05   9.660107e+05
  -1.190086e+06  -2.241954e+05
  -2.812475e+05  -7.045042e+05
   7.034700e+05  -5.165006e+04
   6.536922e+05   9.853228e+05
  -5.804669e+05   1.310406e+06
  -1.894550e+06   4.495888e+05
  -1.874076e+06  -1.029234e+06
  -3.238743e+05  -1.935726e+06
   1.347340e+06  -1.511838e+06
   1.606853e+06  -1.960124e+05
   4.847678e+05   8.053076e+05
  -6.130648e+05   7.604022e+05
  -6.353488e+05   5.925110e+04
   7.949210e+04  -4.069125e+05
   5.186099e+05  -2.650266e+05
   2.321619e+05   7.834494e+04
  -3.538826e+05   2.043294e+04
  -5.064589e+05  -5.533105e+05
   1.534773e+05  -1.091539e+06
   1.285734e+06  -8.324800e+05
   1.942176e+06   4.090197e+05
   1.337356e+06   1.839390e+06
  -2.427520e+05   2.282573e+06
  -1.545384e+06   1.353506e+06
  -1.636331e+06  -1.014335e+05
  -8.743088e+05  -9.023367e+05
  -3.176277e+05  -7.398624e+05
  -3.820677e+05  -2.924672e+05
  -5.041258e+05  -2.776026e+05
  -6.012286e+04  -6.671649e+05
   8.099918e+05  -8.443897e+05
   1.377188e+06  -3.249059e+05
   1.031672e+06   7.058854e+05
  -2.171394e+05   1.429631e+06
  -1.638132e+06   1.027430e+06
  -2.128958e+06  -4.744461e+05
  -1.069554e+06  -1.974818e+06
   9.252594e+05  -2.198202e+06
   2.356118e+06  -9.697352e+05
   2.224590e+06   5.898530e+05
   9.669229e+05   1.265648e+06
  -1.563989e+05   9.601470e+05
  -4.254657e+05   5.462843e+05
  -1.855559e+05   7.007397e+05
  -1.695398e+05   1.165592e+06
  -6.348956e+05   1.151857e+06
  -1.188752e+06   2.618875e+05
  -1.223998e+06  -1.043247e+06
  -4.840398e+05  -1.792911e+06
   6.167057e+05  -1.340390e+06
   1.213704e+06   9.920028e+03
   7.586744e+05   1.188535e+06
  -3.417411e+05   1.298151e+06
  -1.040966e+06   4.168200e+05
  -7.404616e+05  -5.808999e+05
   7.447276e+04  -9.569943e+05
   4.398666e+05  -7.336024e+05
   5.458996e+04  -4.190766e+05
  -3.878697e+05  -3.396097e+05
  -4.101225e+04  -3.681598e+05
   1.055209e+06  -1.876545e+05
   1.894450e+06   3.308389e+05
   1.500576e+06   9.735666e+05
  -1.350879e+04   1.310048e+06
  -1.456805e+06   1.027964e+06
  -1.703865e+06   2.644724e+05
  -7.901179e+05  -4.150657e+05
   2.307548e+05  -5.003470e+05
   4.635578e+05  -4.810136e+04
   1.707693e+03   3.597387e+05
  -4.405428e+05   2.251316e+05
  -4.395535e+05  -3.308147e+05
  -1.818465e+05  -6.980357e+05
  -4.048217e+04  -4.564976e+05
  -1.345286e+05   1.177447e+05
  -3.001208e+05   3.097767e+05
  -2.633847e+05  -2.172689e+05
   1.701165e+05  -9.407064e+05
   8.604337e+05  -9.790948e+05
   1.232418e+06  -1.117535e+05
   7.349212e+05   8.769966e+05
  -4.102740e+05   1.023546e+06
  -1.160128e+06   2.538307e+05
  -6.744628e+05  -5.650568e+05
   6.595682e+05  -6.067459e+05
   1.511057e+06   9.146434e+04
   9.890598e+05   8.153821e+05
  -4.286284e+05   9.569559e+05
  -1.428136e+06   4.865957e+05
  -1.195303e+06  -1.671533e+05
  -1.402534e+05  -4.957284e+05
   6.105786e+05  -2.629784e+05
   3.435330e+05   2.707765e+05
  -5.795001e+05   4.639622e+05
  -1.111297e+06  -1.251744e+05
  -5.786780e+05  -1.141175e+06
   6.262152e+05  -1.583364e+06
   1.435701e+06  -7.862958e+05
   1.172453e+06   7.506197e+05
   1.571289e+05   1.705750e+06
  -7.212294e+05   1.232007e+06
  -8.782928e+05  -1.581721e+05
  -4.129570e+05  -1.130200e+06
   1.918839e+05  -9.295532e+05
   5.233234e+05  -8.319600e+04
   4.574391e+05   3.690455e+05
   1.774328e+05   1.395836e+05
   3.787775e+04  -9.664044e+04
   2.243002e+05   2.686935e+05
   4.532684e+05   9.160031e+05
   1.925717e+05   1.027926e+06
  -6.491643e+05   3.660487e+05
  -1.393387e+06  -4.645419e+05
  -1.225149e+06  -8.113167e+05
  -1.668871e+05  -6.582391e+05
   8.373700e+05  -3.817448e+05
   9.425934e+05  -1.659171e+05
   3.208666e+05   4.346307e+04
  -1.502707e+05   2.093495e+05
  -1.036180e+04   2.051899e+05
   2.774449e+05   1.068822e+05
   3.535116e+04   1.290909e+05
  -6.594124e+05   2.040868e+05
  -9.874343e+05  -3.618308e+04
  -3.592632e+05  -6.600877e+05
   8.414561e+05  -1.086514e+06
   1.604446e+06  -6.677250e+05
   1.297567e+06   4.477410e+05
   2.276534e+05   1.340101e+06
  -7.421651e+05   1.280291e+06
  -1.002509e+06   4.754071e+05
  -6.209653e+05  -2.438061e+05
  -1.103446e+05  -3.416188e+05
   8.954467e+04  -4.899773e+04
  -6.816533e+04   3.024733e+04
  -2.889426e+05  -3.448886e+05
  -2.302868e+05  -7.680888e+05
   1.855857e+05  -6.353407e+05
   6.484224e+05   1.400103e+05
   6.724688e+05   9.276582e+05
   6.942035e+04   9.774356e+05
  -7.308515e+05   2.037208e+05
  -9.630777e+05  -7.169842e+05
  -2.994420e+05  -1.036329e+06
   6.897245e+05  -6.153988e+05
   1.047706e+06   9.446496e+04
   4.808381e+05   5.747490e+05
  -2.820939e+05   6.187990e+05
  -3.484426e+05   3.365827e+05
   2.524989e+05   1.785006e+04
   6.201972e+05  -2.477554e+04
   1.275254e+05   2.907777e+05
  -7.914218e+05   6.321111e+05
  -1.183627e+06   5.037128e+05
  -6.996962e+05  -1.672829e+05
   1.066804e+05  -8.142744e+05
   5.209303e+05  -7.931294e+05
   3.890347e+05  -1.325880e+05
   3.516675e+04   4.621653e+05
  -2.369659e+05   3.994429e+05
  -3.333811e+05  -1.595011e+05
  -2.295397e+05  -5.509344e+05
   6.159149e+04  -3.901651e+05
   3.693396e+05   5.466788e+04
   4.396605e+05   2.626816e+05
   2.269750e+05   8.551987e+04
  -2.161077e+04  -1.315724e+05
  -7.508765e+04  -1.801776e+04
  -1.357000e+04   3.462476e+05
  -8.597820e+04   5.064884e+05
  -3.169550e+05   1.762280e+05
  -4.104348e+05  -3.849007e+05
  -1.133900e+05  -6.201396e+05
   3.989770e+05  -2.854126e+05
   6.161663e+05   2.845348e+05
   2.253070e+05   5.529381e+05
  -4.814925e+05   3.361233e+05
  -8.265414e+05  -9.133978e+04
  -4.438664e+05  -3.650977e+05
   2.848794e+05  -3.641106e+05
   6.057256e+05  -1.934618e+05
   2.266263e+05  -1.038749e+04
  -3.450878e+05   5.028468e+04
  -3.925459e+05  -8.084604e+04
   1.745896e+05  -2.838325e+05
   7.276746e+05  -2.481822e+05
