
 $NMID
 id='ANONYMOUS ', fmtdat='(2E16.6)'
 volume=1.0
 tramp=1.0
 $END
   5.979497e+06   2.551558e+06
   2.583701e+06   3.768938e+06
  -1.249887e+06   3.201453e+06
  -2.899102e+06   1.804945e+06
  -1.983536e+06   2.028228e+05
  -2.776048e+04  -8.276266e+05
   1.143076e+06  -4.494085e+05
   7.824356e+05   9.570992e+05
  -4.314361e+05   1.662146e+06
  -1.186318e+06   6.038770e+05
  -8.022538e+05  -1.086693e+06
   1.944033e+05  -1.420862e+06
   7.308054e+05  -4.634994e+04
   3.069657e+05   1.407225e+06
  -5.903386e+05   1.357288e+06
  -1.032445e+06  -6.041161e+04
  -5.021730e+05  -1.409700e+06
   6.413751e+05  -1.504928e+06
   1.419725e+06  -3.952453e+05
   1.117632e+06   8.430093e+05
   7.540536e+04   1.155390e+06
  -5.630253e+05   5.406873e+05
  -1.154427e+05   2.616927e+04
   7.658860e+05   4.273641e+05
   7.914769e+05   1.289121e+06
  -4.237549e+05   1.428786e+06
  -1.823966e+06   4.407696e+05
  -2.023010e+06  -8.126292e+05
  -7.689820e+05  -1.259627e+06
   8.062652e+05  -7.106986e+05
   1.304919e+06   2.254936e+05
   3.845250e+05   8.417295e+05
  -9.536032e+05   7.170319e+05
  -1.376422e+06  -1.290186e+05
  -5.695462e+05  -1.069581e+06
   4.888386e+05  -1.200904e+06
   6.858301e+05  -3.202469e+05
   3.188507e+04   6.217401e+05
  -4.979818e+05   5.361713e+05
  -2.543547e+05  -4.298086e+05
   3.812148e+05  -1.046919e+06
   6.537363e+05  -5.693593e+05
   3.673693e+05   3.659169e+05
  -8.945993e+04   6.251693e+05
  -3.167673e+05  -3.170044e+04
  -1.592377e+05  -7.859145e+05
   3.681534e+05  -7.817799e+05
   9.937475e+05   1.086248e+04
   1.146914e+06   8.931306e+05
   4.612243e+05   1.145687e+06
  -6.250339e+05   6.303701e+05
  -1.154245e+06  -1.478148e+05
  -6.899941e+05  -5.302941e+05
   1.927421e+05  -3.148848e+05
   6.042796e+05   1.207044e+05
   2.980485e+05   2.954292e+05
  -2.305558e+05   1.132096e+05
  -4.020536e+05  -1.699671e+05
  -1.056816e+05  -3.033046e+05
   2.892936e+05  -2.225182e+05
   3.112100e+05  -2.973645e+03
  -1.355284e+05   1.676543e+05
  -5.633170e+05   4.386264e+04
  -3.269568e+05  -4.122983e+05
   5.903431e+05  -8.158834e+05
   1.391648e+06  -6.504240e+05
   1.305679e+06   1.264270e+05
   4.869777e+05   9.431927e+05
  -2.107837e+05   1.209877e+06
  -2.931760e+05   9.313911e+05
  -1.101029e+05   5.856726e+05
  -2.324250e+05   4.798104e+05
  -6.872350e+05   4.196698e+05
  -1.010291e+06   5.303552e+04
  -8.404186e+05  -5.893818e+05
  -2.436462e+05  -1.012448e+06
   4.172112e+05  -7.463495e+05
   7.301612e+05   1.004597e+05
   4.590756e+05   8.372917e+05
  -2.349347e+05   8.190983e+05
  -8.088964e+05   8.864785e+04
  -7.847858e+05  -6.776968e+05
  -2.393313e+05  -8.804314e+05
   2.820295e+05  -5.595191e+05
   3.841836e+05  -2.070957e+05
   2.369729e+05  -1.485769e+05
   3.003897e+05  -2.473996e+05
   7.164791e+05  -1.663679e+05
   1.078250e+06   2.358362e+05
   8.336053e+05   7.791696e+05
  -8.441437e+04   1.106916e+06
  -1.057996e+06   9.348473e+05
  -1.301953e+06   2.920057e+05
  -6.507999e+05  -4.143695e+05
   2.313200e+05  -6.814444e+05
   5.276133e+05  -3.764852e+05
   1.110180e+05   1.103104e+05
  -4.135815e+05   2.649400e+05
  -4.646635e+05  -9.445654e+03
  -8.537041e+04  -3.216727e+05
   2.479645e+05  -2.647494e+05
   2.088644e+05   1.088870e+05
  -1.234271e+05   3.293270e+05
  -4.375096e+05   2.245396e+04
  -4.351599e+05  -6.390369e+05
   2.068311e+03  -1.035043e+06
   6.712863e+05  -6.999082e+05
   1.083284e+06   1.695849e+05
   8.536989e+05   8.693777e+05
   1.403269e+05   8.866148e+05
  -4.491528e+05   3.883192e+05
  -4.802801e+05  -3.311191e+04
  -1.319857e+05  -2.607644e+04
   6.950428e+04   2.178242e+05
  -1.252732e+05   2.938863e+05
  -4.455365e+05   6.706485e+04
  -4.590178e+05  -2.360101e+05
  -7.832662e+04  -3.210245e+05
   3.242147e+05  -1.210620e+05
   2.929547e+05   1.629951e+05
  -2.129336e+05   2.432660e+05
  -7.075050e+05  -1.056532e+04
  -6.327150e+05  -4.327682e+05
   3.726332e+04  -6.671782e+05
   7.146248e+05  -4.818195e+05
   7.919869e+05  -1.291530e+04
   2.720218e+05   3.394501e+05
  -2.748035e+05   2.952894e+05
  -3.395983e+05  -3.066687e+04
   4.325995e+04  -2.545854e+05
   4.283121e+05  -1.211768e+05
   4.445745e+05   2.372691e+05
   1.054749e+05   4.473118e+05
  -2.656885e+05   2.952772e+05
  -3.441547e+05  -4.094238e+04
  -9.311365e+04  -1.864271e+05
   1.881994e+05   1.473636e+04
   1.449321e+05   3.243437e+05
  -2.444535e+05   3.714730e+05
  -5.969545e+05   4.985292e+04
  -5.150713e+05  -3.828347e+05
  -2.944274e+04  -5.737582e+05
   4.222428e+05  -3.967658e+05
   4.585093e+05  -2.872194e+04
   1.275002e+05   2.300513e+05
  -1.954792e+05   2.060714e+05
  -2.150530e+05  -1.547939e+04
   2.041768e+04  -1.805019e+05
   2.203496e+05  -1.230469e+05
   1.681494e+05   5.179010e+04
  -5.936459e+04   8.594752e+04
  -1.715461e+05  -1.104335e+05
   2.547909e+04  -3.153038e+05
   3.938797e+05  -2.298515e+05
   5.724776e+05   1.718320e+05
   3.424607e+05   5.890214e+05
  -1.403151e+05   6.864703e+05
  -5.035448e+05   3.995688e+05
  -5.242744e+05  -3.870714e+04
  -3.044675e+05  -3.219555e+05
  -1.056843e+05  -3.203195e+05
  -6.455103e+04  -1.610437e+05
  -8.749125e+04  -8.064576e+04
   3.270834e+03  -1.674173e+05
   2.425825e+05  -2.521191e+05
   4.421034e+05  -1.053538e+05
   3.521232e+05   2.477873e+05
  -6.602065e+04   4.835082e+05
  -5.315304e+05   3.096023e+05
  -6.541841e+05  -1.925485e+05
  -2.918164e+05  -6.179385e+05
   3.022794e+05  -6.273724e+05
   7.003339e+05  -2.495157e+05
   6.672316e+05   1.921365e+05
   3.200878e+05   3.999297e+05
  -3.367548e+04   3.405128e+05
  -1.825111e+05   2.111391e+05
  -1.547680e+05   2.036632e+05
  -1.271199e+05   2.977914e+05
  -2.139691e+05   2.875601e+05
  -3.407899e+05   2.778043e+04
  -3.235511e+05  -3.577627e+05
  -8.187454e+04  -5.577104e+05
   2.357810e+05  -3.824075e+05
   3.688466e+05   3.390212e+04
   2.023009e+05   3.594661e+05
  -1.070823e+05   3.733410e+05
  -2.815252e+05   1.328866e+05
  -1.967920e+05  -1.322161e+05
   8.307358e+03  -2.466742e+05
   9.868431e+04  -2.118059e+05
   4.802308e+03  -1.440007e+05
  -1.005288e+05  -1.248117e+05
   9.761138e+02  -1.189696e+05
   3.041452e+05  -3.560566e+04
   5.370867e+05   1.438334e+05
   4.223980e+05   3.205488e+05
  -1.419253e+04   3.678327e+05
  -4.320367e+05   2.503725e+05
  -5.026016e+05   5.025161e+04
  -2.331847e+05  -1.029925e+05
   6.669465e+04  -1.217307e+05
   1.279318e+05  -2.041186e+04
  -2.082660e+04   8.101817e+04
  -1.494510e+05   4.982188e+04
  -1.171515e+05  -1.101037e+05
  -3.552964e+03  -2.253151e+05
   3.277285e+04  -1.415559e+05
  -4.598687e+04   5.834385e+04
  -1.286190e+05   1.178608e+05
  -8.764106e+04  -7.160830e+04
   9.202507e+04  -2.985612e+05
   2.925813e+05  -2.689140e+05
   3.438143e+05   2.756446e+04
   1.582315e+05   2.927771e+05
  -1.573831e+05   2.669619e+05
  -3.372749e+05   9.372785e+03
  -1.823874e+05  -2.005981e+05
   2.060253e+05  -1.703240e+05
   4.666802e+05   4.983040e+04
   3.215538e+05   2.624650e+05
  -1.202172e+05   3.043636e+05
  -4.527075e+05   1.553410e+05
  -3.874742e+05  -5.906891e+04
  -4.560754e+04  -1.615589e+05
   1.886195e+05  -7.551274e+04
   8.306446e+04   8.482028e+04
  -2.090913e+05   1.068714e+05
  -3.315419e+05  -1.000715e+05
  -1.086541e+05  -3.791676e+05
   2.761202e+05  -4.478429e+05
   4.767332e+05  -1.708482e+05
   3.302950e+05   2.761424e+05
  -9.197962e+03   5.304429e+05
  -2.572220e+05   3.708460e+05
  -2.689385e+05  -5.412337e+04
  -1.129496e+05  -3.551220e+05
   6.098283e+04  -2.939507e+05
   1.560264e+05  -2.025893e+04
   1.492677e+05   1.327703e+05
   7.181205e+04   5.618336e+04
   5.237389e+03  -3.393268e+04
   2.672864e+04   7.560369e+04
   9.571144e+04   2.876000e+05
   5.250920e+04   3.227906e+05
  -1.781143e+05   9.428883e+04
  -4.143649e+05  -1.860872e+05
  -3.743893e+05  -2.846461e+05
  -3.444801e+04  -2.009595e+05
   2.895179e+05  -8.899173e+04
   3.013471e+05  -3.012352e+04
   7.745217e+04   1.011379e+04
  -6.087585e+04   5.560751e+04
   1.880442e+04   7.387634e+04
   1.116017e+05   5.745070e+04
  -4.569921e+03   4.507389e+04
  -2.400776e+05   3.084153e+04
  -2.970587e+05  -5.472576e+04
  -4.453047e+04  -2.106705e+05
   3.215273e+05  -2.847119e+05
   4.926655e+05  -1.254884e+05
   3.448390e+05   1.982771e+05
   1.210724e+04   4.211701e+05
  -2.637129e+05   3.553381e+05
  -3.237452e+05   9.097238e+04
  -1.865661e+05  -1.130703e+05
  -8.960431e+03  -1.097073e+05
   5.487729e+04   3.645659e+03
  -1.218704e+04   2.585558e+04
  -8.887836e+04  -1.069968e+05
  -5.292337e+04  -2.425038e+05
   8.706237e+04  -1.803097e+05
   1.986837e+05   8.647017e+04
   1.537135e+05   3.263572e+05
  -4.576595e+04   2.970295e+05
  -2.465219e+05   9.050496e+03
  -2.581839e+05  -2.774603e+05
  -3.580083e+04  -3.248956e+05
   2.371228e+05  -1.426990e+05
   3.029285e+05   7.518120e+04
   1.097886e+05   1.758806e+05
  -1.085193e+05   1.546994e+05
  -9.833940e+04   8.264909e+04
   9.982685e+04   2.167525e+04
   1.965571e+05   1.801516e+04
   2.022966e+04   8.861551e+04
  -2.632968e+05   1.664453e+05
  -3.565419e+05   1.270601e+05
  -1.813965e+05  -5.803788e+04
   6.474200e+04  -2.333976e+05
   1.662933e+05  -2.112365e+05
   9.976001e+04  -8.190424e+03
  -1.825118e+04   1.520264e+05
  -9.154887e+04   1.002520e+05
  -9.780430e+04  -8.175477e+04
  -4.618672e+04  -1.768959e+05
   3.970263e+04  -9.679050e+04
   1.093662e+05   4.005501e+04
   1.152657e+05   8.130858e+04
   6.495090e+04   2.050704e+04
   1.018486e+04  -2.449513e+04
  -2.033089e+04   2.691209e+04
  -4.681652e+04   1.197638e+05
  -8.874514e+04   1.281914e+05
  -1.177960e+05   2.471869e+03
  -8.218896e+04  -1.591065e+05
   2.714256e+04  -1.975501e+05
   1.434535e+05  -6.162470e+04
   1.628879e+05   1.246859e+05
   3.702396e+04   1.861927e+05
  -1.527624e+05   8.082006e+04
  -2.353335e+05  -6.954231e+04
  -1.143545e+05  -1.286756e+05
   1.011253e+05  -8.292093e+04
   1.856926e+05  -1.490336e+04
   5.148369e+04   9.214534e+03
  -1.314079e+05  -1.557613e+04
  -1.258079e+05  -6.401557e+04
   8.344844e+04  -9.444925e+04
   2.627317e+05  -4.747202e+04
