
 $NMID
 id='ANONYMOUS ', fmtdat='(2E16.6)'
 volume=1.0
 tramp=1.0
 $END
  -5.869152e+07  -1.276314e+06
  -3.466698e+07  -3.720394e+07
   8.585593e+06  -3.969946e+07
   2.926176e+07  -1.468633e+07
   1.718955e+07   7.769587e+06
  -3.683101e+06   9.733153e+06
  -1.033686e+07  -1.539403e+06
  -2.678358e+06  -1.036011e+07
   6.801187e+06  -9.650600e+06
   1.019666e+07  -1.836037e+06
   7.119951e+06   6.659193e+06
   5.914055e+05   8.980127e+06
  -4.210878e+06   2.739062e+06
  -2.527246e+06  -5.756310e+06
   4.173929e+06  -6.738613e+06
   8.219324e+06   1.606820e+06
   4.378167e+06   1.078422e+07
  -4.250979e+06   1.222881e+07
  -1.067334e+07   5.915625e+06
  -1.119231e+07  -2.376105e+06
  -6.731937e+06  -7.906059e+06
  -5.853566e+05  -9.002067e+06
   3.117539e+06  -6.304076e+06
   2.033209e+06  -2.886104e+06
  -9.806873e+05  -2.343523e+06
  -6.780427e+04  -4.313238e+06
   5.737536e+06  -4.339996e+06
   1.001731e+07  -1.975783e+05
   7.186577e+06   4.478356e+06
   1.333353e+05   5.209886e+06
  -3.889715e+06   2.507718e+06
  -2.494733e+06  -4.781470e+04
   7.181787e+05  -8.616932e+05
   2.364397e+06  -3.360987e+05
   2.155833e+06   1.571719e+06
   5.555545e+05   4.051362e+06
  -1.952536e+06   3.935384e+06
  -3.310152e+06  -1.380786e+05
  -1.698308e+06  -3.764644e+06
   7.802196e+05  -1.985171e+06
   2.185670e+05   2.526374e+06
  -2.660169e+06   2.311411e+06
  -2.485432e+06  -3.413390e+06
   2.680183e+06  -6.391297e+06
   7.288592e+06  -9.583640e+05
   5.204596e+06   7.325740e+06
  -2.176235e+06   8.873554e+06
  -7.800680e+06   2.345904e+06
  -7.132036e+06  -4.863237e+06
  -1.737307e+06  -6.390359e+06
   3.745522e+06  -2.729320e+06
   5.476357e+06   1.792451e+06
   2.435928e+06   3.761222e+06
  -2.598581e+06   2.250926e+06
  -4.719993e+06  -1.089639e+06
  -1.974562e+06  -2.907899e+06
   1.831451e+06  -1.389722e+06
   1.790790e+06   1.144469e+06
  -1.435843e+06   9.629931e+05
  -2.607402e+06  -1.898691e+06
   6.787709e+05  -3.640161e+06
   4.886005e+06  -1.935973e+06
   5.544872e+06   1.535861e+06
   2.341231e+06   4.224658e+06
  -2.031695e+06   5.426289e+06
  -5.364657e+06   4.861186e+06
  -6.487919e+06   1.618697e+06
  -4.659007e+06  -3.406835e+06
  -7.869041e+05  -6.449741e+06
   2.108463e+06  -4.944661e+06
   1.928864e+06  -1.247711e+06
   2.237647e+05   2.946721e+05
   2.683939e+04  -9.486815e+05
   1.707692e+06  -1.747085e+06
   2.890141e+06  -1.269114e+05
   1.993912e+06   2.079245e+06
  -8.417861e+04   2.208533e+06
  -1.627542e+06   1.133926e+05
  -1.646946e+06  -2.257766e+06
   1.231679e+05  -3.059983e+06
   2.934711e+06  -1.616732e+06
   4.605333e+06   1.384780e+06
   3.244035e+06   4.004033e+06
  -1.422526e+05   4.404420e+06
  -2.437538e+06   2.788402e+06
  -2.372044e+06   1.148022e+06
  -1.964014e+06   6.663134e+05
  -3.123203e+06   3.913919e+05
  -4.545373e+06  -9.728009e+05
  -3.551752e+06  -3.049320e+06
   3.784503e+04  -4.343072e+06
   3.532355e+06  -3.954486e+06
   4.456870e+06  -2.039515e+06
   2.748454e+06   5.479578e+05
   1.886313e+05   2.332950e+06
  -1.224949e+06   1.966079e+06
  -5.818008e+05  -5.859501e+04
   1.195626e+06  -1.323226e+06
   2.020342e+06  -3.437356e+05
   9.232867e+05   1.295371e+06
  -5.927665e+05   1.140605e+06
  -4.342905e+05  -4.459572e+05
   1.181861e+06  -7.086287e+05
   1.955343e+06   1.443513e+06
   5.589646e+05   3.750521e+06
  -1.858860e+06   3.580261e+06
  -3.419861e+06   1.045026e+06
  -3.448324e+06  -1.702894e+06
  -2.253194e+06  -3.042221e+06
  -3.380186e+05  -2.773447e+06
   1.371274e+06  -1.477742e+06
   1.663864e+06  -1.664915e+05
   5.169153e+05   7.031737e+04
  -3.441310e+05  -8.103469e+05
   4.927010e+05  -1.404803e+06
   2.042508e+06  -5.370638e+05
   2.118980e+06   1.027894e+06
   3.474484e+05   1.522655e+06
  -1.269029e+06   5.502643e+05
  -9.137715e+05  -5.329048e+05
   9.405395e+05  -5.090456e+05
   2.299057e+06   4.626159e+05
   1.764338e+06   1.536832e+06
  -3.772185e+05   2.070918e+06
  -2.523024e+06   1.628631e+06
  -2.941242e+06   1.561143e+05
  -1.232967e+06  -1.393369e+06
   1.031868e+06  -1.553485e+06
   1.659706e+06  -1.416547e+05
   1.726611e+05   1.147982e+06
  -1.634848e+06   7.126139e+05
  -1.783429e+06  -9.098265e+05
  -2.731964e+05  -1.771926e+06
   1.215882e+06  -9.810817e+05
   1.323628e+06   4.018401e+05
   2.190387e+05   8.503805e+05
  -8.522366e+05   2.545564e+04
  -7.349493e+05  -1.146393e+06
   6.691285e+05  -1.478698e+06
   2.142137e+06  -4.852260e+05
   2.103648e+06   1.198332e+06
   3.128963e+05   2.211458e+06
  -1.600448e+06   1.674042e+06
  -1.839230e+06   1.401787e+05
  -4.881348e+05  -9.478077e+05
   7.388730e+05  -8.179011e+05
   6.670213e+05  -4.551479e+04
  -1.576554e+05   3.715352e+05
  -5.327898e+05   1.793346e+05
  -1.083957e+05  -8.975022e+04
   4.927817e+05   1.061107e+05
   5.233295e+05   7.498934e+05
  -2.789699e+05   1.255157e+06
  -1.507274e+06   8.832970e+05
  -2.182341e+06  -5.346890e+05
  -1.460278e+06  -2.120592e+06
   3.418962e+05  -2.544672e+06
   1.777119e+06  -1.407899e+06
   1.776334e+06   2.252720e+05
   8.446803e+05   9.906450e+05
   2.830919e+05   6.888235e+05
   4.917534e+05   2.331184e+05
   6.630939e+05   3.522571e+05
   7.027429e+04   8.168378e+05
  -9.724298e+05   9.126053e+05
  -1.548129e+06   2.676517e+05
  -1.064282e+06  -8.172662e+05
   3.467648e+05  -1.525331e+06
   1.873616e+06  -1.044692e+06
   2.349258e+06   6.203449e+05
   1.095822e+06   2.277900e+06
  -1.184585e+06   2.461058e+06
  -2.746054e+06   9.711439e+05
  -2.456444e+06  -8.200075e+05
  -9.332057e+05  -1.471663e+06
   2.805657e+05  -9.839304e+05
   4.363453e+05  -5.015079e+05
   1.001320e+05  -7.785211e+05
   1.520903e+05  -1.377669e+06
   7.626311e+05  -1.339640e+06
   1.383288e+06  -2.845856e+05
   1.364827e+06   1.198093e+06
   5.026532e+05   2.023669e+06
  -7.203169e+05   1.487791e+06
  -1.358043e+06  -6.434499e+04
  -8.001203e+05  -1.399940e+06
   4.837844e+05  -1.463912e+06
   1.263983e+06  -3.731335e+05
   8.383743e+05   7.874795e+05
  -1.826035e+05   1.147259e+06
  -6.172160e+05   8.105349e+05
  -1.189537e+05   4.342813e+05
   4.426698e+05   3.686046e+05
   4.694488e+04   4.046655e+05
  -1.228638e+06   1.718568e+05
  -2.172626e+06  -4.416322e+05
  -1.664592e+06  -1.172821e+06
   1.088458e+05  -1.527196e+06
   1.738094e+06  -1.143668e+06
   1.955407e+06  -2.061699e+05
   8.635223e+05   5.746671e+05
  -3.019426e+05   5.985464e+05
  -5.489114e+05   9.818415e+03
  -2.334380e+04  -4.508794e+05
   4.727235e+05  -2.528896e+05
   4.949456e+05   3.806145e+05
   2.449212e+05   7.644071e+05
   9.025079e+04   5.029744e+05
   1.525583e+05  -8.566784e+04
   3.052239e+05  -2.817335e+05
   2.793607e+05   2.600930e+05
  -1.890610e+05   1.028186e+06
  -9.955682e+05   1.089048e+06
  -1.455417e+06   1.417242e+05
  -8.742205e+05  -9.942160e+05
   4.813083e+05  -1.196782e+06
   1.344671e+06  -3.189913e+05
   7.500342e+05   6.313021e+05
  -7.747180e+05   6.527096e+05
  -1.670409e+06  -1.825868e+05
  -1.006777e+06  -9.689962e+05
   5.746680e+05  -1.017495e+06
   1.609385e+06  -4.161507e+05
   1.285012e+06   2.738563e+05
   1.092951e+05   5.488309e+05
  -7.030519e+05   2.486411e+05
  -4.001937e+05  -3.304504e+05
   6.294040e+05  -5.320403e+05
   1.243524e+06   1.214549e+05
   6.740863e+05   1.263026e+06
  -6.707904e+05   1.775217e+06
  -1.589903e+06   8.849698e+05
  -1.294561e+06  -8.437718e+05
  -1.415166e+05  -1.895369e+06
   8.390820e+05  -1.325394e+06
   9.699014e+05   2.394224e+05
   3.917139e+05   1.282979e+06
  -2.940404e+05   1.009060e+06
  -6.049024e+05   5.867014e+04
  -4.618433e+05  -4.190866e+05
  -1.503336e+05  -1.513845e+05
  -6.256118e+04   9.537826e+04
  -3.081483e+05  -3.283637e+05
  -5.074503e+05  -1.044179e+06
  -1.361814e+05  -1.148218e+06
   7.941848e+05  -3.891419e+05
   1.534689e+06   5.524773e+05
   1.298182e+06   9.414058e+05
   1.651309e+05   7.500060e+05
  -9.005400e+05   4.062564e+05
  -1.041833e+06   1.441464e+05
  -3.961582e+05  -7.797062e+04
   1.552834e+05  -2.329011e+05
   6.966215e+04  -2.089869e+05
  -2.502878e+05  -1.023102e+05
  -5.745464e+04  -1.393837e+05
   6.805726e+05  -2.288112e+05
   1.107655e+06   4.250862e+04
   4.692112e+05   7.447153e+05
  -9.056488e+05   1.225308e+06
  -1.837547e+06   7.606251e+05
  -1.505590e+06  -4.856507e+05
  -2.508131e+05  -1.490029e+06
   8.648080e+05  -1.437445e+06
   1.126058e+06  -5.505478e+05
   6.787169e+05   2.542703e+05
   1.406730e+05   3.821756e+05
  -5.104336e+04   7.968698e+04
   9.813644e+04   1.746196e+03
   2.937531e+05   4.096921e+05
   2.224114e+05   8.654018e+05
  -2.060913e+05   7.172735e+05
  -7.080158e+05  -1.325049e+05
  -7.642924e+05  -1.009016e+06
  -1.208671e+05  -1.092839e+06
   7.829200e+05  -2.629529e+05
   1.077163e+06   7.674643e+05
   3.532908e+05   1.161919e+06
  -7.675605e+05   7.147363e+05
  -1.193579e+06  -1.035340e+05
  -5.621633e+05  -6.814462e+05
   3.229336e+05  -7.345670e+05
   4.353930e+05  -3.868175e+05
  -2.338683e+05  -1.101865e+04
  -6.806906e+05   2.462643e+04
  -1.553324e+05  -3.341234e+05
   8.950593e+05  -6.882392e+05
   1.374475e+06  -5.147969e+05
   8.300772e+05   2.286813e+05
  -1.250372e+05   9.267278e+05
  -6.324502e+05   9.026593e+05
  -4.792272e+05   1.814500e+05
  -5.513016e+04  -4.952173e+05
   2.588603e+05  -4.674068e+05
   3.630917e+05   1.419314e+05
   2.554127e+05   6.167132e+05
  -5.856977e+04   4.720490e+05
  -4.118378e+05  -4.762595e+04
  -5.058724e+05  -3.270522e+05
  -2.560322e+05  -1.247086e+05
   4.720184e+04   1.776473e+05
   9.222862e+04   8.878045e+04
  -3.508425e+04  -3.532773e+05
   1.508200e+04  -6.014181e+05
   3.213048e+05  -2.661672e+05
   5.037105e+05   3.791874e+05
   1.924981e+05   6.793964e+05
  -4.258013e+05   3.324158e+05
  -7.101445e+05  -2.944433e+05
  -2.647150e+05  -6.014254e+05
   5.543341e+05  -3.775652e+05
   9.457032e+05   9.028932e+04
   5.042158e+05   4.110096e+05
  -3.191400e+05   4.352270e+05
  -6.862710e+05   2.491683e+05
  -2.857489e+05   1.958806e+04
   3.360027e+05  -8.070181e+04
   4.140652e+05   4.987970e+04
  -1.638458e+05   2.825274e+05
  -7.537396e+05   2.633571e+05
