
 $NMID
 id='ANONYMOUS ', fmtdat='(2E16.6)'
 volume=1.0
 tramp=1.0
 $END
  -4.916394e+07  -3.395586e+03
  -2.989543e+07  -2.950948e+07
   5.727173e+06  -3.294238e+07
   2.364848e+07  -1.373377e+07
   1.472981e+07   5.066466e+06
  -2.382893e+06   8.194004e+06
  -8.699328e+06  -3.583979e+05
  -3.063001e+06  -8.394524e+06
   4.962275e+06  -8.803364e+06
   8.479859e+06  -2.299017e+06
   6.358745e+06   5.515553e+06
   7.850363e+05   7.867232e+06
  -3.653725e+06   2.383092e+06
  -2.539725e+06  -5.216293e+06
   3.184210e+06  -6.268333e+06
   7.027939e+06   8.822567e+05
   4.178651e+06   8.982776e+06
  -3.139708e+06   1.054066e+07
  -8.888998e+06   5.254859e+06
  -9.471335e+06  -1.919951e+06
  -5.575741e+06  -6.604193e+06
  -4.175348e+05  -7.303234e+06
   2.279376e+06  -4.966115e+06
   9.485673e+05  -2.461127e+06
  -1.471409e+06  -2.490624e+06
  -9.195628e+04  -4.265956e+06
   5.371364e+06  -4.021744e+06
   9.089238e+06  -2.080736e+05
   6.338329e+06   3.930461e+06
  -1.410816e+05   4.588144e+06
  -3.781300e+06   2.104612e+06
  -2.286036e+06  -4.395753e+05
   1.046621e+06  -1.269610e+06
   2.709603e+06  -4.092358e+05
   2.185031e+06   1.789615e+06
   3.482799e+05   3.948799e+06
  -1.810255e+06   3.363356e+06
  -2.655214e+06  -4.229731e+05
  -1.170902e+06  -3.254213e+06
   7.480671e+05  -1.300398e+06
   1.268991e+05   2.650915e+06
  -2.321946e+06   2.293272e+06
  -2.307348e+06  -2.740552e+06
   1.814409e+06  -5.406804e+06
   5.755055e+06  -9.973091e+05
   4.431139e+06   5.915532e+06
  -1.505592e+06   7.402812e+06
  -6.529214e+06   2.163163e+06
  -6.464598e+06  -3.922484e+06
  -1.972135e+06  -5.523351e+06
   3.115809e+06  -2.708146e+06
   5.030875e+06   1.150687e+06
   2.508288e+06   3.092438e+06
  -2.011839e+06   2.076995e+06
  -4.082538e+06  -6.751484e+05
  -1.859441e+06  -2.344632e+06
   1.492735e+06  -1.251623e+06
   1.706598e+06   8.855829e+05
  -9.572892e+05   9.928088e+05
  -2.237876e+06  -1.180786e+06
   1.750987e+05  -2.782265e+06
   3.737755e+06  -1.774857e+06
   4.659253e+06   9.074206e+05
   2.185896e+06   3.392327e+06
  -1.683217e+06   4.804714e+06
  -4.789375e+06   4.456016e+06
  -5.776369e+06   1.503134e+06
  -4.095897e+06  -3.021595e+06
  -8.057207e+05  -5.734003e+06
   1.553867e+06  -4.503781e+06
   1.465071e+06  -1.405367e+06
   2.913521e+05  -9.673021e+04
   3.786446e+05  -1.059032e+06
   1.880216e+06  -1.545147e+06
   2.815693e+06   8.084560e+04
   1.881398e+06   2.152196e+06
  -1.664507e+05   2.239615e+06
  -1.734744e+06   1.750183e+05
  -1.745297e+06  -2.163255e+06
   4.530417e+04  -2.916473e+06
   2.714124e+06  -1.492939e+06
   4.163535e+06   1.263549e+06
   2.866010e+06   3.514294e+06
  -9.563044e+04   3.775336e+06
  -2.010770e+06   2.383150e+06
  -1.919377e+06   1.065882e+06
  -1.645960e+06   7.607045e+05
  -2.815188e+06   5.889935e+05
  -4.226080e+06  -6.273970e+05
  -3.441232e+06  -2.628687e+06
  -1.869001e+05  -4.049486e+06
   3.148356e+06  -3.864515e+06
   4.157384e+06  -2.045008e+06
   2.601138e+06   5.210763e+05
   1.555017e+05   2.252462e+06
  -1.178799e+06   1.862071e+06
  -5.461353e+05  -7.865024e+04
   1.103322e+06  -1.281593e+06
   1.845891e+06  -3.903957e+05
   8.539764e+05   1.163300e+06
  -5.448942e+05   1.112590e+06
  -5.066785e+05  -3.595058e+05
   9.084143e+05  -8.151046e+05
   1.816738e+06   9.599228e+05
   9.064576e+05   3.209136e+06
  -1.183893e+06   3.475021e+06
  -2.934637e+06   1.443250e+06
  -3.415559e+06  -1.182584e+06
  -2.477766e+06  -2.726883e+06
  -5.416867e+05  -2.670921e+06
   1.251908e+06  -1.476333e+06
   1.589637e+06  -2.129616e+05
   4.893129e+05   4.173237e+04
  -3.651411e+05  -7.389490e+05
   3.696976e+05  -1.298212e+06
   1.824819e+06  -5.822568e+05
   1.990867e+06   8.083291e+05
   4.203744e+05   1.355929e+06
  -1.140146e+06   5.943372e+05
  -9.315546e+05  -4.329380e+05
   7.970979e+05  -5.967552e+05
   2.221476e+06   1.981494e+05
   1.858653e+06   1.317203e+06
  -1.626177e+05   2.030527e+06
  -2.282070e+06   1.725767e+06
  -2.761819e+06   3.171196e+05
  -1.211398e+06  -1.218338e+06
   8.817186e+05  -1.453416e+06
   1.495824e+06  -1.871607e+05
   1.795867e+05   1.045198e+06
  -1.488822e+06   7.343955e+05
  -1.715706e+06  -7.352628e+05
  -3.956234e+05  -1.628311e+06
   1.033286e+06  -1.023590e+06
   1.261003e+06   2.404688e+05
   2.919327e+05   7.520689e+05
  -7.623424e+05   6.913794e+04
  -7.290268e+05  -1.032070e+06
   5.712415e+05  -1.412242e+06
   1.994746e+06  -5.412028e+05
   2.023312e+06   1.033708e+06
   3.986993e+05   2.049862e+06
  -1.398444e+06   1.642722e+06
  -1.704493e+06   2.414133e+05
  -5.248868e+05  -8.476242e+05
   6.360797e+05  -8.161241e+05
   6.557353e+05  -8.179736e+04
  -8.767529e+04   4.044224e+05
  -5.194167e+05   2.641727e+05
  -1.998611e+05  -6.947034e+04
   4.004497e+05   9.964339e+03
   5.384085e+05   6.071617e+05
  -1.569274e+05   1.168304e+06
  -1.349874e+06   9.118632e+05
  -2.071572e+06  -3.845861e+05
  -1.471428e+06  -1.915313e+06
   1.930148e+05  -2.420062e+06
   1.596680e+06  -1.455347e+06
   1.714771e+06   7.974974e+04
   9.172269e+05   9.117905e+05
   3.454346e+05   7.242437e+05
   4.391341e+05   2.670767e+05
   5.743842e+05   2.914399e+05
   8.725715e+04   7.264902e+05
  -8.457292e+05   9.115649e+05
  -1.444372e+06   3.646228e+05
  -1.088491e+06  -7.140417e+05
   2.068465e+05  -1.493913e+06
   1.704599e+06  -1.114166e+06
   2.257778e+06   4.494196e+05
   1.172124e+06   2.068443e+06
  -9.442195e+05   2.357317e+06
  -2.488821e+06   1.075368e+06
  -2.361367e+06  -5.905993e+05
  -1.021829e+06  -1.316130e+06
   1.601518e+05  -9.897543e+05
   4.133381e+05  -5.604024e+05
   1.352600e+05  -7.505567e+05
   1.258243e+05  -1.265105e+06
   6.470322e+05  -1.257886e+06
   1.265248e+06  -3.176700e+05
   1.332546e+06   1.067787e+06
   5.670760e+05   1.883922e+06
  -6.114510e+05   1.437355e+06
  -1.283380e+06   1.835613e+04
  -8.300544e+05  -1.250254e+06
   3.455834e+05  -1.387346e+06
   1.114857e+06  -4.473773e+05
   8.043138e+05   6.313137e+05
  -7.703969e+04   1.037010e+06
  -4.775867e+05   7.857032e+05
  -5.934881e+04   4.327050e+05
   4.264487e+05   3.415309e+05
   5.778900e+04   3.858231e+05
  -1.123935e+06   2.245689e+05
  -2.032255e+06  -3.033764e+05
  -1.617729e+06  -1.000114e+06
  -3.197835e+03  -1.403725e+06
   1.537585e+06  -1.137464e+06
   1.806348e+06  -3.139598e+05
   8.418510e+05   4.441188e+05
  -2.406770e+05   5.492538e+05
  -4.970729e+05   5.328875e+04
  -2.051055e+04  -3.969098e+05
   4.515188e+05  -2.558299e+05
   4.783899e+05   3.371433e+05
   2.325403e+05   7.281269e+05
   7.468578e+04   4.807122e+05
   1.370877e+05  -1.148289e+05
   2.939608e+05  -3.194381e+05
   2.813394e+05   2.248924e+05
  -1.434367e+05   9.942412e+05
  -8.840154e+05   1.065564e+06
  -1.325163e+06   1.675760e+05
  -8.271169e+05  -9.064013e+05
   4.044864e+05  -1.114606e+06
   1.234488e+06  -3.220255e+05
   7.337701e+05   5.722766e+05
  -6.862109e+05   6.575200e+05
  -1.593801e+06  -6.489123e+04
  -1.043826e+06  -8.406484e+05
   4.463219e+05  -1.008913e+06
   1.492777e+06  -5.274830e+05
   1.251902e+06   1.578830e+05
   1.521261e+05   5.160043e+05
  -6.412251e+05   2.862057e+05
  -3.780293e+05  -2.829208e+05
   5.902154e+05  -5.177322e+05
   1.181685e+06   8.460532e+04
   6.645499e+05   1.182588e+06
  -5.937540e+05   1.701798e+06
  -1.485030e+06   8.886333e+05
  -1.263726e+06  -7.510762e+05
  -2.200709e+05  -1.794339e+06
   7.255142e+05  -1.313265e+06
   9.294759e+05   1.538438e+05
   4.566533e+05   1.184291e+06
  -1.923289e+05   9.786276e+05
  -5.557969e+05   9.617996e+04
  -4.819517e+05  -3.736661e+05
  -1.778748e+05  -1.379015e+05
  -4.248455e+04   9.900747e+04
  -2.649016e+05  -2.866906e+05
  -5.138106e+05  -9.586909e+05
  -2.173731e+05  -1.077616e+06
   6.943426e+05  -4.031936e+05
   1.483607e+06   4.488516e+05
   1.303130e+06   8.209627e+05
   1.940947e+05   6.940550e+05
  -8.596980e+05   4.301666e+05
  -9.860292e+05   1.983242e+05
  -3.521549e+05  -4.452015e+04
   1.470469e+05  -2.272925e+05
   2.112285e+04  -2.091023e+05
  -2.790557e+05  -9.513372e+04
  -4.817480e+04  -1.342388e+05
   6.720232e+05  -2.429184e+05
   1.047404e+06   1.794056e+03
   4.264310e+05   6.893573e+05
  -8.386253e+05   1.186091e+06
  -1.687150e+06   7.701900e+05
  -1.408040e+06  -4.219463e+05
  -2.905320e+05  -1.406815e+06
   7.484786e+05  -1.383591e+06
   1.045223e+06  -5.467989e+05
   6.619478e+05   2.281885e+05
   1.351870e+05   3.579619e+05
  -7.805454e+04   6.480110e+04
   7.680805e+04  -2.249586e+04
   3.086294e+05   3.607762e+05
   2.612984e+05   8.050783e+05
  -1.721693e+05   6.816299e+05
  -6.868637e+05  -1.154292e+05
  -7.515756e+05  -9.477461e+05
  -1.241546e+05  -1.033221e+06
   7.560093e+05  -2.555323e+05
   1.047497e+06   7.115507e+05
   3.617612e+05   1.087064e+06
  -7.064367e+05   6.858872e+05
  -1.119434e+06  -6.052198e+04
  -5.370684e+05  -6.032753e+05
   2.789812e+05  -6.788432e+05
   3.709742e+05  -3.711787e+05
  -2.527330e+05  -4.942319e+03
  -6.512153e+05   4.903505e+04
  -1.496769e+05  -3.062077e+05
   8.163355e+05  -6.925505e+05
   1.248296e+06  -5.605750e+05
   7.606398e+05   1.655192e+05
  -8.456665e+04   8.707680e+05
  -5.378601e+05   8.623964e+05
  -4.219199e+05   1.641003e+05
  -6.039211e+04  -4.814280e+05
   2.344609e+05  -4.384782e+05
   3.569421e+05   1.442974e+05
   2.632696e+05   5.745682e+05
  -4.837095e+04   4.269874e+05
  -3.930203e+05  -3.957819e+04
  -4.786491e+05  -2.725229e+05
  -2.431814e+05  -9.130731e+04
   3.417656e+04   1.489252e+05
   8.050840e+04   3.840787e+04
  -1.585764e+04  -3.578021e+05
   4.719586e+04  -5.531423e+05
   3.205258e+05  -2.216016e+05
   4.648613e+05   3.770197e+05
   1.648082e+05   6.497210e+05
  -4.054295e+05   3.219979e+05
  -6.703440e+05  -2.710244e+05
  -2.639229e+05  -5.717122e+05
   5.020238e+05  -3.738870e+05
   8.854120e+05   6.242614e+04
   4.859413e+05   3.707859e+05
  -2.888770e+05   4.050317e+05
  -6.377056e+05   2.377714e+05
  -2.500432e+05   2.099778e+04
   3.482183e+05  -7.571323e+04
   4.119081e+05   5.699961e+04
  -1.628908e+05   2.969007e+05
  -7.411565e+05   2.875744e+05
