
 $NMID
 id='ANONYMOUS ', fmtdat='(2E16.6)'
 volume=1.0
 tramp=1.0
 $END
   4.436807e+07  -3.463257e+05
   2.744422e+07   2.566843e+07
  -4.319478e+06   2.950115e+07
  -2.088951e+07   1.331336e+07
  -1.359456e+07  -3.625442e+06
   1.689042e+06  -7.441065e+06
   7.938556e+06  -2.964932e+05
   3.324102e+06   7.441909e+06
  -4.055933e+06   8.487977e+06
  -7.674951e+06   2.573930e+06
  -5.977224e+06  -5.008863e+06
  -8.248589e+05  -7.373557e+06
   3.410330e+06  -2.165777e+06
   2.519211e+06   5.056695e+06
  -2.745716e+06   6.115224e+06
  -6.470696e+06  -5.195815e+05
  -4.075015e+06  -8.134861e+06
   2.627589e+06  -9.729693e+06
   8.039140e+06  -4.887754e+06
   8.592018e+06   1.767249e+06
   4.915687e+06   5.977077e+06
   2.763126e+05   6.392297e+06
  -1.814631e+06   4.240926e+06
  -3.026027e+05   2.309945e+06
   1.751137e+06   2.719652e+06
   9.553190e+03   4.344158e+06
  -5.341284e+06   3.812911e+06
  -8.720148e+06   6.982839e+04
  -5.892800e+06  -3.761821e+06
   3.844458e+05  -4.272107e+06
   3.820912e+06  -1.810265e+06
   2.164576e+06   7.405211e+05
  -1.343781e+06   1.509416e+06
  -3.010812e+06   3.750018e+05
  -2.199329e+06  -2.023863e+06
  -1.417938e+05  -3.969511e+06
   1.796886e+06  -3.048226e+06
   2.268013e+06   6.258332e+05
   8.227246e+05   2.992905e+06
  -7.250259e+05   8.787867e+05
   1.870164e+03  -2.790718e+06
   2.215968e+06  -2.308138e+06
   2.233667e+06   2.417532e+06
  -1.362491e+06   4.929659e+06
  -4.942568e+06   1.022799e+06
  -4.007402e+06  -5.207972e+06
   1.183152e+06  -6.658659e+06
   5.915270e+06  -2.037358e+06
   6.171964e+06   3.523509e+06
   2.102538e+06   5.169082e+06
  -2.851768e+06   2.731551e+06
  -4.887643e+06  -8.561405e+05
  -2.591164e+06  -2.802637e+06
   1.720680e+06  -2.007837e+06
   3.786236e+06   4.774364e+05
   1.815258e+06   2.074216e+06
  -1.331538e+06   1.180449e+06
  -1.690684e+06  -7.753857e+05
   7.010996e+05  -1.046151e+06
   2.079794e+06   7.774978e+05
   1.377933e+05   2.333879e+06
  -3.126476e+06   1.710762e+06
  -4.232325e+06  -5.724135e+05
  -2.121777e+06  -2.983594e+06
   1.568562e+06  -4.512392e+06
   4.613895e+06  -4.237035e+06
   5.490086e+06  -1.382834e+06
   3.793473e+06   2.903881e+06
   7.552669e+05   5.435874e+06
  -1.309880e+06   4.335467e+06
  -1.247459e+06   1.541339e+06
  -3.724175e+05   3.399157e+05
  -6.476794e+05   1.121544e+06
  -2.059974e+06   1.394958e+06
  -2.819193e+06  -2.789854e+05
  -1.796682e+06  -2.287638e+06
   2.798057e+05  -2.301783e+06
   1.852851e+06  -1.673689e+05
   1.803839e+06   2.204381e+06
  -5.624313e+04   2.898956e+06
  -2.664758e+06   1.400911e+06
  -3.960940e+06  -1.282680e+06
  -2.647800e+06  -3.326067e+06
   1.098473e+05  -3.466582e+06
   1.812864e+06  -2.167640e+06
   1.696292e+06  -1.029123e+06
   1.508726e+06  -8.248397e+05
   2.716964e+06  -6.852532e+05
   4.137249e+06   4.994747e+05
   3.423818e+06   2.498287e+06
   2.596880e+05   3.982245e+06
  -3.066308e+06   3.854937e+06
  -4.116492e+06   2.021250e+06
  -2.558673e+06  -5.678233e+05
  -8.958853e+04  -2.256370e+06
   1.213693e+06  -1.814963e+06
   5.314738e+05   1.040090e+05
  -1.099197e+06   1.265317e+06
  -1.790906e+06   3.972482e+05
  -8.112277e+05  -1.121774e+06
   5.517484e+05  -1.110000e+06
   5.613613e+05   3.318852e+05
  -7.849831e+05   9.005453e+05
  -1.786242e+06  -7.096836e+05
  -1.113910e+06  -2.990248e+06
   8.575251e+05  -3.514356e+06
   2.761171e+06  -1.698597e+06
   3.488868e+06   9.578855e+05
   2.639926e+06   2.667453e+06
   6.286491e+05   2.698705e+06
  -1.241070e+06   1.490756e+06
  -1.588875e+06   2.157645e+05
  -4.845209e+05  -3.372267e+04
   3.744164e+05   7.218804e+05
  -3.241958e+05   1.261637e+06
  -1.747510e+06   5.967547e+05
  -1.953156e+06  -7.266178e+05
  -4.553846e+05  -1.297204e+06
   1.103729e+06  -6.172275e+05
   9.615123e+05   4.050426e+05
  -7.478050e+05   6.591126e+05
  -2.242420e+06  -8.264794e+04
  -1.948962e+06  -1.261776e+06
   7.597498e+04  -2.066618e+06
   2.232772e+06  -1.792814e+06
   2.733675e+06  -3.747943e+05
   1.210397e+06   1.163057e+06
  -8.345470e+05   1.414135e+06
  -1.434599e+06   1.968380e+05
  -1.701463e+05  -1.009313e+06
   1.451139e+06  -7.405034e+05
   1.708930e+06   6.781853e+05
   4.542919e+05   1.594303e+06
  -9.696466e+05   1.063263e+06
  -1.256966e+06  -1.698051e+05
  -3.332462e+05  -7.198348e+05
   7.295726e+05  -8.572242e+04
   7.266276e+05   1.002953e+06
  -5.527445e+05   1.398732e+06
  -1.967525e+06   5.531857e+05
  -2.009158e+06  -9.967414e+05
  -4.259469e+05  -2.012630e+06
   1.340405e+06  -1.643980e+06
   1.672424e+06  -2.811184e+05
   5.471961e+05   8.188802e+05
  -6.056978e+05   8.260449e+05
  -6.682390e+05   9.107306e+04
   5.892864e+04  -4.385184e+05
   5.373567e+05  -3.124837e+05
   2.627932e+05   7.103399e+04
  -3.594468e+05   4.909258e+04
  -5.584532e+05  -5.453396e+05
   1.041012e+05  -1.147806e+06
   1.306890e+06  -9.325128e+05
   2.054141e+06   3.395335e+05
   1.484376e+06   1.867397e+06
  -1.510264e+05   2.406009e+06
  -1.558474e+06   1.496089e+06
  -1.725843e+06  -2.509287e+04
  -9.697127e+05  -9.101268e+05
  -3.738296e+05  -7.762219e+05
  -4.080740e+05  -3.011158e+05
  -5.305335e+05  -2.669709e+05
  -9.060063e+04  -6.907542e+05
   8.071550e+05  -9.235455e+05
   1.430308e+06  -4.095032e+05
   1.122237e+06   6.933674e+05
  -1.557268e+05   1.516552e+06
  -1.670831e+06   1.158290e+06
  -2.257192e+06  -3.984811e+05
  -1.215471e+06  -2.019610e+06
   8.632853e+05  -2.344424e+06
   2.419483e+06  -1.127550e+06
   2.361091e+06   5.084780e+05
   1.082680e+06   1.280083e+06
  -1.118239e+05   1.022297e+06
  -4.262510e+05   6.030117e+05
  -1.760253e+05   7.451054e+05
  -1.333350e+05   1.223375e+06
  -6.129098e+05   1.229894e+06
  -1.231057e+06   3.252933e+05
  -1.328807e+06  -1.040074e+06
  -5.874351e+05  -1.859072e+06
   5.874978e+05  -1.433635e+06
   1.273637e+06  -4.610371e+04
   8.505614e+05   1.207812e+06
  -2.937273e+05   1.374586e+06
  -1.063869e+06   4.897067e+05
  -7.991921e+05  -5.646540e+05
   2.857051e+04  -9.987597e+05
   4.180187e+05  -7.881702e+05
   3.337124e+04  -4.448837e+05
  -4.208886e+05  -3.411709e+05
  -5.878978e+04  -3.854688e+05
   1.094369e+06  -2.450778e+05
   1.996438e+06   2.603991e+05
   1.616701e+06   9.498632e+05
   4.978958e+04   1.368425e+06
  -1.474716e+06   1.139939e+06
  -1.771102e+06   3.580039e+05
  -8.475414e+05  -3.909844e+05
   2.170461e+05  -5.305733e+05
   4.809911e+05  -7.423456e+04
   1.455924e+04   3.728845e+05
  -4.546377e+05   2.552020e+05
  -4.749328e+05  -3.274005e+05
  -2.166320e+05  -7.269576e+05
  -5.746298e+04  -4.786333e+05
  -1.354572e+05   1.339887e+05
  -3.043708e+05   3.447766e+05
  -2.873346e+05  -2.151223e+05
   1.383915e+05  -9.972966e+05
   8.584622e+05  -1.064601e+06
   1.281643e+06  -1.670091e+05
   8.033072e+05   8.887229e+05
  -3.856337e+05   1.086375e+06
  -1.202652e+06   3.116529e+05
  -7.323396e+05  -5.644424e+05
   6.624981e+05  -6.669761e+05
   1.590875e+06   2.362197e+04
   1.082006e+06   8.070236e+05
  -3.991313e+05   1.026813e+06
  -1.475673e+06   5.839429e+05
  -1.265891e+06  -1.155494e+05
  -1.730033e+05  -5.143946e+05
   6.272316e+05  -3.061032e+05
   3.700937e+05   2.671962e+05
  -5.906989e+05   5.104418e+05
  -1.171911e+06  -8.621399e+04
  -6.532090e+05  -1.174900e+06
   5.931071e+05  -1.688306e+06
   1.475108e+06  -8.857992e+05
   1.264004e+06   7.374299e+05
   2.408403e+05   1.784452e+06
  -7.009078e+05   1.328533e+06
  -9.291117e+05  -1.224390e+05
  -4.880934e+05  -1.166137e+06
   1.538825e+05  -9.859779e+05
   5.435371e+05  -1.126653e+05
   5.006385e+05   3.668457e+05
   1.969147e+05   1.389760e+05
   3.350407e+04  -1.040198e+05
   2.408409e+05   2.704412e+05
   5.142620e+05   9.402706e+05
   2.534752e+05   1.069937e+06
  -6.588832e+05   4.129220e+05
  -1.484110e+06  -4.249575e+05
  -1.327036e+06  -7.953996e+05
  -2.051005e+05  -6.822174e+05
   8.659835e+05  -4.386762e+05
   9.830631e+05  -2.183645e+05
   3.346370e+05   2.951222e+04
  -1.500594e+05   2.263146e+05
   3.843002e+03   2.171415e+05
   3.019074e+05   1.015007e+05
   4.086789e+04   1.347881e+05
  -6.891318e+05   2.427875e+05
  -1.037628e+06   4.019687e+03
  -3.983551e+05  -6.777272e+05
   8.407120e+05  -1.175454e+06
   1.651585e+06  -7.670349e+05
   1.375730e+06   4.169741e+05
   2.962917e+05   1.397727e+06
  -7.213173e+05   1.374393e+06
  -1.031878e+06   5.396316e+05
  -6.639272e+05  -2.312547e+05
  -1.285891e+05  -3.541446e+05
   9.706133e+04  -5.333784e+04
  -6.771655e+04   3.791054e+04
  -3.205407e+05  -3.470876e+05
  -2.776170e+05  -7.954484e+05
   1.681489e+05  -6.740529e+05
   6.884904e+05   1.217161e+05
   7.442163e+05   9.481195e+05
   1.100288e+05   1.023444e+06
  -7.622143e+05   2.417230e+05
  -1.041604e+06  -7.150591e+05
  -3.564226e+05  -1.074929e+06
   6.984913e+05  -6.726354e+05
   1.101584e+06   5.515735e+04
   5.262554e+05   5.793825e+05
  -2.696263e+05   6.572425e+05
  -3.471447e+05   3.665057e+05
   2.706224e+05   8.301312e+03
   6.511675e+05  -5.279424e+04
   1.448623e+05   2.990512e+05
  -8.026622e+05   6.987496e+05
  -1.215418e+06   5.830935e+05
  -7.363370e+05  -1.423290e+05
   7.704451e+04  -8.575120e+05
   5.083802e+05  -8.524650e+05
   3.987385e+05  -1.519375e+05
   5.522737e+04   4.858915e+05
  -2.325968e+05   4.273644e+05
  -3.580552e+05  -1.567206e+05
  -2.644270e+05  -5.684492e+05
   4.950180e+04  -4.087370e+05
   3.902349e+05   4.303113e+04
   4.708270e+05   2.539444e+05
   2.413159e+05   7.728507e+04
  -2.564942e+04  -1.344528e+05
  -7.799452e+04  -9.074953e+03
  -4.120148e+03   3.678879e+05
  -7.710821e+04   5.327101e+05
  -3.292103e+05   1.919956e+05
  -4.432928e+05  -3.920996e+05
  -1.390374e+05  -6.482023e+05
   4.088045e+05  -3.154364e+05
   6.570119e+05   2.750690e+05
   2.588914e+05   5.726275e+05
  -4.895817e+05   3.728969e+05
  -8.694559e+05  -6.221253e+04
  -4.805639e+05  -3.642003e+05
   2.838235e+05  -3.914758e+05
   6.270299e+05  -2.254131e+05
   2.343111e+05  -1.939315e+04
  -3.652396e+05   6.553063e+04
  -4.183108e+05  -7.191854e+04
   1.739207e+05  -3.090692e+05
   7.589632e+05  -2.934034e+05
