
 $NMID
 id='ANONYMOUS ', fmtdat='(2E16.6)'
 volume=1.0
 tramp=1.0
 $END
  -2.547453e+07  -2.776311e+05
  -1.660820e+07  -1.222470e+07
   3.960266e+05  -1.599662e+07
   1.093978e+07  -1.036020e+07
   8.957246e+06  -9.295251e+05
   4.892289e+05   4.453313e+06
  -4.997247e+06   2.202050e+06
  -3.762768e+06  -3.979867e+06
   1.146022e+06  -6.841649e+06
   4.670137e+06  -3.064849e+06
   4.128672e+06   3.270801e+06
   5.737345e+05   5.323146e+06
  -2.474224e+06   1.145615e+06
  -2.046001e+06  -4.364716e+06
   1.410591e+06  -5.158710e+06
   4.221251e+06  -4.712778e+05
   3.155406e+06   4.986753e+06
  -1.158056e+06   6.330641e+06
  -4.899274e+06   3.022607e+06
  -5.015527e+06  -1.504782e+06
  -2.126148e+06  -3.671064e+06
   4.511386e+05  -2.899315e+06
   2.465742e+05  -1.481204e+06
  -1.824832e+06  -1.748546e+06
  -2.420277e+06  -3.502747e+06
   5.385404e+05  -4.357989e+06
   5.126522e+06  -2.578019e+06
   6.946910e+06   8.527037e+05
   3.844862e+06   3.239372e+06
  -1.391434e+06   2.887077e+06
  -3.798977e+06   4.740059e+05
  -1.536165e+06  -1.837313e+06
   2.415036e+06  -2.125791e+06
   3.896489e+06  -1.492843e+04
   1.974444e+06   2.849614e+06
  -8.085637e+05   3.800628e+06
  -1.779934e+06   1.696065e+06
  -7.453717e+05  -1.358566e+06
   5.503690e+05  -1.920689e+06
   5.894713e+05   6.587395e+05
  -6.280603e+05   3.096033e+06
  -1.864964e+06   2.119301e+06
  -1.769126e+06  -1.288958e+06
  -6.013021e+04  -3.005570e+06
   1.934317e+06  -8.961207e+05
   2.136354e+06   2.646829e+06
  -2.757377e+05   3.707945e+06
  -3.570899e+06   1.244963e+06
  -4.679646e+06  -2.265062e+06
  -2.191131e+06  -3.804725e+06
   1.945325e+06  -2.538332e+06
   4.120457e+06   5.359127e+04
   2.619286e+06   1.813294e+06
  -7.248957e+05   1.607919e+06
  -2.560244e+06   6.049204e+04
  -1.488964e+06  -1.125693e+06
   7.572910e+05  -8.199739e+05
   1.515965e+06   4.469823e+05
   1.531718e+05   1.172206e+06
  -1.439005e+06   5.602808e+05
  -1.144965e+06  -7.170037e+05
   9.369126e+05  -1.310385e+06
   2.548622e+06  -4.345536e+05
   1.675270e+06   1.524713e+06
  -1.304115e+06   3.183859e+06
  -3.967362e+06   3.008686e+06
  -4.262618e+06   6.185995e+05
  -2.393136e+06  -2.510548e+06
  -2.727805e+05  -4.145486e+06
   6.218869e+05  -3.480540e+06
   5.420164e+05  -1.887772e+06
   6.917654e+05  -1.123522e+06
   1.613537e+06  -1.192473e+06
   2.619837e+06  -6.513632e+05
   2.625639e+06   1.108713e+06
   1.252088e+06   2.715841e+06
  -7.953441e+05   2.353611e+06
  -2.163711e+06   7.589223e+03
  -1.771877e+06  -2.335366e+06
   2.542196e+05  -2.672667e+06
   2.412920e+06  -8.610743e+05
   2.967290e+06   1.474255e+06
   1.587830e+06   2.613558e+06
  -3.049879e+05   2.204319e+06
  -1.124158e+06   1.232334e+06
  -8.897713e+05   7.820275e+05
  -1.011200e+06   9.333060e+05
  -2.282620e+06   8.356830e+05
  -3.592482e+06  -2.582126e+05
  -3.049278e+06  -2.106947e+06
  -2.755664e+05  -3.555739e+06
   2.835462e+06  -3.442418e+06
   3.860480e+06  -1.595484e+06
   2.230503e+06   8.374623e+05
  -2.726053e+05   2.138878e+06
  -1.363180e+06   1.477629e+06
  -4.417723e+05  -2.122317e+05
   1.093234e+06  -1.076053e+06
   1.525437e+06  -3.053944e+05
   5.617317e+05   9.557638e+05
  -6.065071e+05   1.007423e+06
  -7.028408e+05  -2.575358e+05
   3.807015e+05  -1.117473e+06
   1.578379e+06  -9.245673e+04
   1.626581e+06   2.167558e+06
   1.040380e+05   3.455987e+06
  -2.149136e+06   2.350075e+06
  -3.527753e+06  -3.455000e+05
  -2.906806e+06  -2.493474e+06
  -7.323572e+05  -2.694524e+06
   1.223906e+06  -1.387611e+06
   1.511519e+06  -1.220054e+05
   4.408777e+05   3.150168e+04
  -3.464304e+05  -6.454787e+05
   2.161471e+05  -1.053342e+06
   1.420153e+06  -5.248979e+05
   1.685424e+06   5.106017e+05
   4.860050e+05   1.053475e+06
  -9.543312e+05   6.036124e+05
  -9.908642e+05  -3.453145e+05
   5.841785e+05  -7.996469e+05
   2.201897e+06  -1.854022e+05
   2.086109e+06   1.127615e+06
   1.010674e+05   2.084438e+06
  -2.052974e+06   1.802193e+06
  -2.515731e+06   3.990908e+05
  -1.081804e+06  -9.776728e+05
   7.007049e+05  -1.159824e+06
   1.157002e+06  -1.467373e+05
   7.616758e+04   8.374085e+05
  -1.283745e+06   6.424940e+05
  -1.560183e+06  -5.410991e+05
  -5.448268e+05  -1.423587e+06
   7.633237e+05  -1.094919e+06
   1.173933e+06  -1.197498e+04
   4.210214e+05   5.932153e+05
  -5.821403e+05   1.003328e+05
  -6.229659e+05  -8.880087e+05
   5.376938e+05  -1.244005e+06
   1.797913e+06  -4.530250e+05
   1.796331e+06   9.283714e+05
   3.854001e+05   1.801371e+06
  -1.161254e+06   1.488709e+06
  -1.491863e+06   3.112243e+05
  -5.517065e+05  -7.088188e+05
   5.155879e+05  -7.840583e+05
   6.802037e+05  -7.843121e+04
   1.289018e+04   5.310587e+05
  -5.938339e+05   4.266242e+05
  -4.593795e+05  -9.709421e+04
   2.106980e+05  -2.339537e+05
   5.737782e+05   3.386962e+05
   1.915380e+04   1.015643e+06
  -1.144091e+06   8.820286e+05
  -1.867120e+06  -2.825475e+05
  -1.345323e+06  -1.687058e+06
   1.353655e+05  -2.222055e+06
   1.433287e+06  -1.469298e+06
   1.675461e+06  -6.301690e+04
   1.044947e+06   9.183154e+05
   3.987062e+05   9.386308e+05
   2.561329e+05   4.212049e+05
   3.380330e+05   1.928214e+05
   6.158147e+04   5.358270e+05
  -6.860519e+05   8.724719e+05
  -1.333767e+06   4.593915e+05
  -1.138825e+06  -6.550812e+05
   6.334340e+04  -1.509241e+06
   1.536335e+06  -1.153423e+06
   2.114451e+06   3.323902e+05
   1.187188e+06   1.816274e+06
  -6.707639e+05   2.131600e+06
  -2.119526e+06   1.114692e+06
  -2.211987e+06  -3.340219e+05
  -1.163631e+06  -1.156473e+06
   3.040675e+03  -1.078298e+06
   4.883079e+05  -6.898392e+05
   3.490780e+05  -6.690942e+05
   2.165833e+05  -1.003361e+06
   5.286297e+05  -1.035050e+06
   1.065144e+06  -2.672310e+05
   1.186182e+06   9.634905e+05
   5.210131e+05   1.707515e+06
  -5.548191e+05   1.310917e+06
  -1.176035e+06   6.688429e+04
  -8.101296e+05  -1.046875e+06
   1.766359e+05  -1.244941e+06
   8.636684e+05  -5.539954e+05
   7.139436e+05   3.494798e+05
   8.739823e+04   8.169240e+05
  -2.356767e+05   7.370817e+05
   3.068371e+04   4.639988e+05
   3.588601e+05   3.451089e+05
   3.647530e+04   3.668309e+05
  -9.494856e+05   2.426506e+05
  -1.753802e+06  -2.091967e+05
  -1.475696e+06  -8.179529e+05
  -1.330685e+05  -1.180267e+06
   1.243034e+06  -1.008604e+06
   1.578660e+06  -3.924629e+05
   8.050024e+05   2.360093e+05
  -1.519373e+05   4.276333e+05
  -4.063298e+05   1.165527e+05
   2.523058e+04  -2.700009e+05
   4.554450e+05  -2.125308e+05
   4.195225e+05   3.030188e+05
   1.079698e+05   6.936639e+05
  -3.243338e+04   4.462382e+05
   1.329872e+05  -1.849593e+05
   3.469651e+05  -3.936785e+05
   2.805833e+05   1.876141e+05
  -1.722706e+05   9.456487e+05
  -7.850385e+05   9.558261e+05
  -1.070578e+06   8.685653e+04
  -6.276455e+05  -8.224147e+05
   3.587921e+05  -9.093681e+05
   1.043594e+06  -1.931957e+05
   6.555691e+05   5.487734e+05
  -5.843638e+05   6.278002e+05
  -1.497697e+06   2.809647e+04
  -1.111892e+06  -7.147705e+05
   2.766153e+05  -1.015384e+06
   1.377108e+06  -6.631586e+05
   1.243422e+06   3.859984e+04
   2.058495e+05   4.933490e+05
  -5.647196e+05   3.233699e+05
  -3.088433e+05  -2.185222e+05
   5.884141e+05  -4.227556e+05
   1.068400e+06   1.536453e+05
   5.111061e+05   1.120090e+06
  -6.542792e+05   1.514789e+06
  -1.410881e+06   7.433310e+05
  -1.154757e+06  -7.231599e+05
  -1.971767e+05  -1.669175e+06
   6.566190e+05  -1.270860e+06
   8.738313e+05   6.130611e+04
   5.043583e+05   1.071861e+06
  -7.102370e+04   9.530545e+05
  -4.799752e+05   1.332359e+05
  -5.170349e+05  -3.546036e+05
  -2.434526e+05  -1.488174e+05
  -7.314957e+03   1.148774e+05
  -1.310512e+05  -2.103451e+05
  -4.355325e+05  -8.548742e+05
  -3.031597e+05  -1.003997e+06
   5.255666e+05  -3.902473e+05
   1.382881e+06   4.052239e+05
   1.293862e+06   7.435945e+05
   1.937221e+05   6.173357e+05
  -8.667161e+05   3.929749e+05
  -9.341337e+05   2.188671e+05
  -2.561273e+05   6.679362e+03
   1.651140e+05  -2.015247e+05
  -7.609247e+04  -2.365214e+05
  -3.572545e+05  -1.383939e+05
  -5.377210e+03  -1.306264e+05
   7.243299e+05  -1.867437e+05
   9.478273e+05   3.503981e+04
   2.418959e+05   6.198353e+05
  -8.684114e+05   1.025280e+06
  -1.482310e+06   6.229922e+05
  -1.165342e+06  -4.525025e+05
  -2.200470e+05  -1.307620e+06
   6.666188e+05  -1.228873e+06
   9.595571e+05  -4.270663e+05
   6.203520e+05   2.679196e+05
   7.862844e+04   3.280507e+05
  -1.588623e+05   2.732903e+03
   3.686057e+04  -8.619734e+04
   3.255857e+05   3.009417e+05
   2.737368e+05   7.366229e+05
  -1.830238e+05   6.015633e+05
  -6.482753e+05  -1.767610e+05
  -6.229890e+05  -9.393709e+05
   2.645937e+03  -9.380537e+05
   7.539475e+05  -1.359552e+05
   9.222748e+05   7.474447e+05
   2.577549e+05   9.940754e+05
  -6.700581e+05   5.505769e+05
  -9.770439e+05  -9.521803e+04
  -4.294830e+05  -4.942995e+05
   2.579280e+05  -5.321536e+05
   2.664786e+05  -3.131063e+05
  -3.166555e+05  -3.739740e+04
  -6.188390e+05   2.506983e+04
  -1.038915e+05  -2.657845e+05
   7.527240e+05  -6.370451e+05
   1.072001e+06  -5.625670e+05
   6.068941e+05   9.407835e+04
  -9.480645e+04   7.612641e+05
  -4.269514e+05   7.457928e+05
  -3.042103e+05   8.151907e+04
  -5.667674e+03  -4.771904e+05
   2.367825e+05  -3.523605e+05
   3.315996e+05   2.118639e+05
   2.217531e+05   5.316370e+05
  -7.202794e+04   3.203749e+05
  -3.562755e+05  -7.479751e+04
  -4.057030e+05  -2.021949e+05
  -2.189898e+05  -3.844288e+04
  -1.110370e+04   7.754235e+04
   6.828290e+04  -8.836561e+04
   9.536179e+04  -3.796617e+05
   2.042246e+05  -4.247435e+05
   3.484208e+05  -5.923430e+04
   3.199857e+05   4.454832e+05
   5.203727e+03   6.121654e+05
  -4.154621e+05   2.513837e+05
  -5.585344e+05  -3.103056e+05
  -1.940073e+05  -5.587219e+05
   4.413125e+05  -3.222245e+05
   7.631331e+05   1.063987e+05
   4.153932e+05   3.486402e+05
  -2.717277e+05   3.074679e+05
  -5.672698e+05   1.355370e+05
  -1.681857e+05   1.276705e+03
   4.063025e+05  -3.532860e+03
   4.113537e+05   1.443875e+05
  -2.218076e+05   3.225596e+05
  -7.964118e+05   2.511911e+05
