
 $NMID
 id='ANONYMOUS ', fmtdat='(2E16.6)'
 volume=1.0
 tramp=1.0
 $END
  -3.329122e+07   6.578909e+05
  -2.147827e+07  -1.736904e+07
   1.576077e+06  -2.164951e+07
   1.485396e+07  -1.189945e+07
   1.092795e+07   7.515545e+05
  -3.006653e+05   5.723493e+06
  -6.212452e+06   1.542925e+06
  -3.701326e+06  -5.361001e+06
   2.214558e+06  -7.591423e+06
   5.875449e+06  -2.982957e+06
   4.975950e+06   3.904116e+06
   7.906304e+05   6.168609e+06
  -2.837658e+06   1.623928e+06
  -2.330728e+06  -4.615651e+06
   1.863312e+06  -5.600467e+06
   5.158507e+06  -1.612573e+05
   3.658426e+06   6.226148e+06
  -1.621165e+06   7.772915e+06
  -6.126736e+06   3.910056e+06
  -6.522165e+06  -1.489548e+06
  -3.367903e+06  -4.556208e+06
   5.919138e+04  -4.343199e+06
   8.376443e+05  -2.647868e+06
  -9.772791e+05  -1.977496e+06
  -2.189417e+06  -3.145262e+06
   2.383460e+05  -4.353436e+06
   5.155806e+06  -3.179427e+06
   7.686831e+06   3.301230e+05
   4.759129e+06   3.367867e+06
  -9.069568e+05   3.477981e+06
  -3.786816e+06   1.096871e+06
  -1.816607e+06  -1.348847e+06
   1.944377e+06  -1.898789e+06
   3.526033e+06  -2.162285e+05
   2.101225e+06   2.476495e+06
  -3.561103e+05   3.874581e+06
  -1.746082e+06   2.283674e+06
  -1.390172e+06  -1.027588e+06
  -6.392962e+04  -2.358580e+06
   6.361937e+05   1.078724e+04
  -3.216002e+05   2.972440e+06
  -1.972826e+06   2.232027e+06
  -1.999185e+06  -1.722813e+06
   4.510135e+05  -3.821909e+06
   3.162176e+06  -1.022495e+06
   2.991110e+06   3.644459e+06
  -5.469034e+05   4.944722e+06
  -4.508205e+06   1.664566e+06
  -5.352247e+06  -2.686236e+06
  -2.236423e+06  -4.334229e+06
   2.277194e+06  -2.664913e+06
   4.452180e+06   3.068589e+05
   2.651809e+06   2.184228e+06
  -1.107626e+06   1.804601e+06
  -3.078306e+06  -1.023843e+05
  -1.658008e+06  -1.493796e+06
   9.775604e+05  -9.933675e+05
   1.602595e+06   5.567454e+05
  -1.824164e+05   1.132878e+06
  -1.715829e+06   4.018247e+04
  -7.651250e+05  -1.382942e+06
   1.814720e+06  -1.522626e+06
   3.251906e+06  -8.190759e+04
   1.904191e+06   2.095068e+06
  -1.344913e+06   3.756315e+06
  -4.169980e+06   3.587559e+06
  -4.749768e+06   1.019348e+06
  -3.018018e+06  -2.616301e+06
  -5.562759e+05  -4.670124e+06
   8.405396e+05  -3.854973e+06
   8.106228e+05  -1.761384e+06
   5.529066e+05  -8.028772e+05
   1.193561e+06  -1.174581e+06
   2.365202e+06  -9.957139e+05
   2.712940e+06   7.176143e+05
   1.518506e+06   2.511163e+06
  -5.431109e+05   2.341118e+06
  -2.034860e+06   1.072483e+05
  -1.824585e+06  -2.252229e+06
   1.246196e+05  -2.770067e+06
   2.497075e+06  -1.128716e+06
   3.401011e+06   1.333701e+06
   2.078017e+06   2.869491e+06
  -1.727789e+05   2.729041e+06
  -1.377264e+06   1.645332e+06
  -1.207217e+06   9.076833e+05
  -1.202451e+06   9.108432e+05
  -2.449407e+06   8.170721e+05
  -3.823963e+06  -2.911468e+05
  -3.243512e+06  -2.213420e+06
  -3.339134e+05  -3.727689e+06
   2.867831e+06  -3.662752e+06
   3.934875e+06  -1.838809e+06
   2.378155e+06   6.848075e+05
  -8.516074e+04   2.188218e+06
  -1.273971e+06   1.639290e+06
  -4.832263e+05  -1.587292e+05
   1.075000e+06  -1.174314e+06
   1.630838e+06  -3.738455e+05
   6.846560e+05   1.012836e+06
  -5.664376e+05   1.062149e+06
  -6.519143e+05  -2.770526e+05
   5.304647e+05  -1.041140e+06
   1.673262e+06   2.077085e+05
   1.462027e+06   2.486911e+06
  -2.351465e+05   3.492214e+06
  -2.371852e+06   2.124914e+06
  -3.525511e+06  -5.418083e+05
  -2.840077e+06  -2.522097e+06
  -7.340624e+05  -2.685831e+06
   1.207234e+06  -1.450284e+06
   1.541165e+06  -1.862009e+05
   4.597877e+05   2.509418e+04
  -3.706061e+05  -6.707742e+05
   2.394355e+05  -1.145247e+06
   1.546109e+06  -5.840236e+05
   1.809549e+06   5.676028e+05
   4.963886e+05   1.147820e+06
  -1.005347e+06   6.297422e+05
  -9.868974e+05  -3.518802e+05
   6.380205e+05  -7.533172e+05
   2.217781e+06  -1.129800e+05
   2.050150e+06   1.149146e+06
   6.308990e+04   2.077689e+06
  -2.097394e+06   1.835328e+06
  -2.600428e+06   4.337675e+05
  -1.154568e+06  -1.035554e+06
   7.336096e+05  -1.279630e+06
   1.269932e+06  -1.908343e+05
   1.323456e+05   9.067115e+05
  -1.341040e+06   7.077871e+05
  -1.633632e+06  -5.694668e+05
  -5.344020e+05  -1.487327e+06
   8.309717e+05  -1.099033e+06
   1.212055e+06   4.141173e+04
   3.984359e+05   6.401958e+05
  -6.402794e+05   1.078195e+05
  -6.824278e+05  -9.217102e+05
   5.196968e+05  -1.316076e+06
   1.857874e+06  -5.267681e+05
   1.900380e+06   9.234632e+05
   4.351567e+05   1.881893e+06
  -1.208874e+06   1.575145e+06
  -1.563080e+06   3.259861e+05
  -5.645335e+05  -7.463089e+05
   5.389542e+05  -8.128725e+05
   6.750599e+05  -9.601520e+04
  -7.193965e+03   4.935083e+05
  -5.636021e+05   3.896110e+05
  -3.796497e+05  -7.992476e+04
   2.692950e+05  -1.623306e+05
   5.744440e+05   4.142369e+05
  -1.345991e+04   1.070305e+06
  -1.195383e+06   9.231592e+05
  -1.949011e+06  -2.725950e+05
  -1.432634e+06  -1.737083e+06
   1.029709e+05  -2.300682e+06
   1.460914e+06  -1.506210e+06
   1.697061e+06  -5.475703e+04
   1.029262e+06   8.999571e+05
   4.014814e+05   8.668580e+05
   3.232789e+05   3.661830e+05
   4.202934e+05   2.150613e+05
   8.328745e+04   5.973514e+05
  -7.210828e+05   9.051014e+05
  -1.365578e+06   4.610132e+05
  -1.141933e+06  -6.524082e+05
   7.682061e+04  -1.513682e+06
   1.571987e+06  -1.181738e+06
   2.179015e+06   3.228221e+05
   1.231849e+06   1.879560e+06
  -7.112123e+05   2.232801e+06
  -2.224214e+06   1.159485e+06
  -2.281876e+06  -3.669361e+05
  -1.151994e+06  -1.189462e+06
   3.033475e+04  -1.057369e+06
   4.528713e+05  -6.617961e+05
   2.665345e+05  -7.039633e+05
   1.634253e+05  -1.096355e+06
   5.438505e+05  -1.125052e+06
   1.128267e+06  -3.108367e+05
   1.261909e+06   9.737096e+05
   5.787016e+05   1.760690e+06
  -5.450284e+05   1.371413e+06
  -1.215624e+06   7.950903e+04
  -8.465242e+05  -1.098860e+06
   2.021230e+05  -1.302837e+06
   9.372358e+05  -5.450330e+05
   7.573955e+05   4.242844e+05
   5.605689e+04   8.912749e+05
  -2.969481e+05   7.644584e+05
   1.208856e+04   4.570144e+05
   3.894550e+05   3.372185e+05
   5.138360e+04   3.735413e+05
  -1.004669e+06   2.607604e+05
  -1.856855e+06  -1.983976e+05
  -1.548784e+06  -8.457061e+05
  -1.215595e+05  -1.255994e+06
   1.319282e+06  -1.086013e+06
   1.651918e+06  -4.073699e+05
   8.288390e+05   2.851337e+05
  -1.701815e+05   4.728800e+05
  -4.354061e+05   1.069118e+05
   3.951866e+03  -3.117944e+05
   4.519174e+05  -2.370614e+05
   4.474359e+05   3.059618e+05
   1.634648e+05   7.046774e+05
   1.159566e+04   4.592071e+05
   1.316971e+05  -1.662956e+05
   3.235971e+05  -3.790426e+05
   2.860768e+05   1.938276e+05
  -1.428055e+05   9.687668e+05
  -7.976836e+05   1.013711e+06
  -1.153573e+06   1.395458e+05
  -7.132190e+05  -8.370600e+05
   3.527067e+05  -9.876084e+05
   1.103959e+06  -2.601297e+05
   6.961608e+05   5.439734e+05
  -6.058384e+05   6.545402e+05
  -1.536698e+06   3.254466e+04
  -1.113170e+06  -7.349309e+05
   3.099066e+05  -1.026589e+06
   1.408086e+06  -6.551232e+05
   1.254846e+06   4.911912e+04
   2.010685e+05   4.992336e+05
  -5.852638e+05   3.268622e+05
  -3.381875e+05  -2.322916e+05
   5.814679e+05  -4.682325e+05
   1.112635e+06   1.074706e+05
   5.880429e+05   1.132864e+06
  -6.031466e+05   1.596100e+06
  -1.424180e+06   8.253160e+05
  -1.211843e+06  -7.094550e+05
  -2.435379e+05  -1.713403e+06
   6.536043e+05  -1.306379e+06
   8.985033e+05   7.107401e+04
   5.168862e+05   1.102553e+06
  -8.827135e+04   9.691457e+05
  -5.038133e+05   1.337666e+05
  -5.167568e+05  -3.513482e+05
  -2.272968e+05  -1.413868e+05
  -1.619555e+04   1.111373e+05
  -1.796809e+05  -2.311811e+05
  -4.828508e+05  -8.819319e+05
  -3.007693e+05  -1.027194e+06
   5.731223e+05  -4.100572e+05
   1.431832e+06   3.896656e+05
   1.321108e+06   7.435631e+05
   2.092498e+05   6.406418e+05
  -8.602127e+05   4.258107e+05
  -9.510316e+05   2.346987e+05
  -2.882807e+05  -2.807012e+03
   1.556612e+05  -2.143391e+05
  -5.049087e+04  -2.285962e+05
  -3.369032e+05  -1.182828e+05
  -2.191869e+04  -1.316422e+05
   7.068339e+05  -2.208860e+05
   9.848399e+05   2.562528e+03
   3.160812e+05   6.377659e+05
  -8.393222e+05   1.100653e+06
  -1.539872e+06   7.079650e+05
  -1.258093e+06  -4.169678e+05
  -2.734116e+05  -1.340482e+06
   6.672690e+05  -1.299994e+06
   9.809307e+05  -4.893457e+05
   6.422344e+05   2.424950e+05
   1.045940e+05   3.367514e+05
  -1.333129e+05   2.496964e+04
   4.848259e+04  -6.774675e+04
   3.292932e+05   3.144209e+05
   2.884746e+05   7.562959e+05
  -1.662273e+05   6.341903e+05
  -6.672511e+05  -1.433846e+05
  -6.880598e+05  -9.319158e+05
  -5.928270e+04  -9.720355e+05
   7.544677e+05  -1.912337e+05
   9.830690e+05   7.185010e+05
   3.149797e+05   1.022107e+06
  -6.715859e+05   6.115083e+05
  -1.029047e+06  -6.162146e+04
  -4.779416e+05  -5.206505e+05
   2.524872e+05  -5.872683e+05
   2.932472e+05  -3.403024e+05
  -2.986840e+05  -2.122749e+04
  -6.315697e+05   4.672359e+04
  -1.251831e+05  -2.772141e+05
   7.623183e+05  -6.754181e+05
   1.121266e+06  -5.906650e+05
   6.617350e+05   1.021134e+05
  -7.409389e+04   8.021021e+05
  -4.466425e+05   7.973996e+05
  -3.403545e+05   1.160373e+05
  -3.351222e+04  -4.804229e+05
   2.286373e+05  -3.866526e+05
   3.453200e+05   1.841225e+05
   2.482706e+05   5.427711e+05
  -5.670252e+04   3.571506e+05
  -3.711341e+05  -5.580043e+04
  -4.362728e+05  -2.157862e+05
  -2.292790e+05  -5.030383e+04
   5.684510e+03   1.002470e+05
   7.199714e+04  -5.042225e+04
   5.259016e+04  -3.757152e+05
   1.449315e+05  -4.704424e+05
   3.384452e+05  -1.182467e+05
   3.766046e+05   4.176589e+05
   6.956495e+04   6.255131e+05
  -4.082455e+05   2.840972e+05
  -6.032982e+05  -2.860432e+05
  -2.296060e+05  -5.607942e+05
   4.552180e+05  -3.506940e+05
   8.078055e+05   7.488078e+04
   4.479259e+05   3.476028e+05
  -2.707750e+05   3.462242e+05
  -5.885904e+05   1.819203e+05
  -1.947965e+05   1.207705e+04
   3.893315e+05  -3.477333e+04
   4.160908e+05   1.084709e+05
  -1.975483e+05   3.205263e+05
  -7.774229e+05   2.810660e+05
