
 $NMID
 id='ANONYMOUS ', fmtdat='(2E16.6)'
 volume=1.0
 tramp=1.0
 $END
  -1.908489e+07  -1.152970e+05
  -1.306169e+07  -8.813788e+06
  -2.606881e+05  -1.218882e+07
   8.397678e+06  -8.438679e+06
   7.351260e+06  -1.047699e+06
   5.938054e+05   3.608696e+06
  -4.120891e+06   1.957551e+06
  -3.202333e+06  -3.197573e+06
   9.139432e+05  -5.649456e+06
   3.772075e+06  -2.551826e+06
   3.187013e+06   2.608952e+06
   3.193025e+05   4.203129e+06
  -1.937593e+06   7.934086e+05
  -1.465874e+06  -3.592123e+06
   1.234053e+06  -4.177838e+06
   3.361173e+06  -4.290036e+05
   2.480951e+06   3.896958e+06
  -8.933012e+05   4.925574e+06
  -3.745322e+06   2.280215e+06
  -3.718288e+06  -1.202670e+06
  -1.469245e+06  -2.690763e+06
   3.137470e+05  -1.975704e+06
  -7.731083e+04  -1.078813e+06
  -1.626926e+06  -1.651563e+06
  -1.781396e+06  -3.118675e+06
   7.260919e+05  -3.491598e+06
   4.213745e+06  -1.741676e+06
   5.411645e+06   1.009744e+06
   2.841269e+06   2.652309e+06
  -1.269525e+06   2.096533e+06
  -3.031887e+06   7.651120e+04
  -1.019822e+06  -1.632352e+06
   2.238137e+06  -1.579784e+06
   3.241282e+06   3.066268e+05
   1.366628e+06   2.504343e+06
  -9.534696e+05   2.979591e+06
  -1.447688e+06   1.167073e+06
  -3.430644e+05  -1.103444e+06
   5.904295e+05  -1.339638e+06
   3.083198e+05   6.978297e+05
  -7.640406e+05   2.476374e+06
  -1.595192e+06   1.641936e+06
  -1.431204e+06  -1.016746e+06
  -1.753872e+05  -2.411138e+06
   1.350081e+06  -8.671438e+05
   1.651104e+06   1.894648e+06
  -9.666300e+04   2.826349e+06
  -2.710631e+06   9.477491e+05
  -3.676187e+06  -1.868669e+06
  -1.706598e+06  -3.117578e+06
   1.636017e+06  -2.032724e+06
   3.371212e+06   1.330283e+05
   2.129960e+06   1.549906e+06
  -5.641973e+05   1.334591e+06
  -2.041966e+06   6.081517e+04
  -1.211330e+06  -9.002165e+05
   5.853649e+05  -6.529742e+05
   1.232725e+06   4.074408e+05
   1.281177e+05   1.057489e+06
  -1.266983e+06   5.550237e+05
  -1.128460e+06  -5.918018e+05
   6.060315e+05  -1.168835e+06
   2.041273e+06  -4.437616e+05
   1.366004e+06   1.172139e+06
  -1.112014e+06   2.431092e+06
  -3.254360e+06   2.179805e+06
  -3.347807e+06   3.002130e+05
  -1.724503e+06  -2.037340e+06
  -5.509975e+04  -3.254769e+06
   5.733534e+05  -2.796177e+06
   5.188733e+05  -1.601089e+06
   7.236018e+05  -9.179977e+05
   1.474780e+06  -8.094524e+05
   2.163528e+06  -2.785670e+05
   2.001998e+06   1.105614e+06
   7.958686e+05   2.285325e+06
  -8.285402e+05   1.850283e+06
  -1.789919e+06  -1.478817e+05
  -1.314037e+06  -2.018507e+06
   3.523194e+05  -2.141016e+06
   1.957343e+06  -5.469550e+05
   2.243839e+06   1.306307e+06
   1.117158e+06   2.077407e+06
  -2.878218e+05   1.657456e+06
  -8.506013e+05   9.155619e+05
  -6.779406e+05   6.308611e+05
  -8.412878e+05   7.569501e+05
  -1.884293e+06   6.083302e+05
  -2.893122e+06  -3.408355e+05
  -2.376520e+06  -1.824678e+06
  -6.841399e+04  -2.886999e+06
   2.452084e+06  -2.642768e+06
   3.189085e+06  -1.076907e+06
   1.731035e+06   8.048177e+05
  -3.615205e+05   1.697067e+06
  -1.185247e+06   1.095180e+06
  -3.377604e+05  -1.996529e+05
   9.364052e+05  -8.079630e+05
   1.237317e+06  -1.836382e+05
   4.021566e+05   7.794247e+05
  -5.490997e+05   7.837943e+05
  -5.848438e+05  -2.508186e+05
   3.499237e+05  -9.499085e+05
   1.343042e+06  -8.463594e+04
   1.327635e+06   1.828508e+06
  -1.100309e+04   2.909239e+06
  -1.884704e+06   1.915673e+06
  -2.921311e+06  -4.253327e+05
  -2.280650e+06  -2.207882e+06
  -4.615570e+05  -2.253540e+06
   1.068460e+06  -1.059572e+06
   1.230712e+06  -1.377613e+04
   3.559232e+05   4.726136e+04
  -2.538459e+05  -5.374408e+05
   2.050038e+05  -8.416770e+05
   1.155644e+06  -3.755576e+05
   1.349103e+06   4.664915e+05
   3.679388e+05   8.715167e+05
  -7.978957e+05   4.585591e+05
  -8.029375e+05  -3.291306e+05
   5.131742e+05  -6.483175e+05
   1.827135e+06  -6.197740e+04
   1.669301e+06   1.033098e+06
  -1.460352e+04   1.727031e+06
  -1.762281e+06   1.379357e+06
  -2.064331e+06   2.095510e+05
  -8.373301e+05  -8.335238e+05
   6.040105e+05  -9.013883e+05
   9.281097e+05  -7.625383e+04
   2.468028e+04   6.676206e+05
  -1.062313e+06   4.631745e+05
  -1.247264e+06  -5.022680e+05
  -3.927225e+05  -1.188599e+06
   6.683760e+05  -8.778626e+05
   9.719212e+05   2.840943e+04
   3.351253e+05   5.050036e+05
  -4.667218e+05   6.780804e+04
  -4.619999e+05  -7.371412e+05
   4.905300e+05  -9.735311e+05
   1.469393e+06  -2.779170e+05
   1.404902e+06   8.328118e+05
   2.313456e+05   1.472704e+06
  -1.003080e+06   1.156623e+06
  -1.226599e+06   1.909308e+05
  -4.253358e+05  -6.027519e+05
   4.523162e+05  -6.206203e+05
   5.635769e+05  -2.758591e+04
  -1.518134e+04   4.493957e+05
  -5.207997e+05   3.246489e+05
  -3.868223e+05  -1.200308e+05
   1.837067e+05  -2.074260e+05
   4.664068e+05   2.897599e+05
  -1.832264e+04   8.274227e+05
  -9.638445e+05   6.661326e+05
  -1.498144e+06  -3.124685e+05
  -1.009687e+06  -1.425264e+06
   2.164381e+05  -1.795611e+06
   1.240654e+06  -1.132684e+06
   1.378371e+06   2.837487e+04
   8.116761e+05   8.182236e+05
   2.632097e+05   8.100625e+05
   1.607089e+05   3.589612e+05
   2.514688e+05   1.531959e+05
   2.855744e+04   4.229889e+05
  -5.940577e+05   6.785827e+05
  -1.109294e+06   3.130314e+05
  -8.976852e+05  -5.964230e+05
   1.261253e+05  -1.236509e+06
   1.305811e+06  -8.684111e+05
   1.702622e+06   3.698431e+05
   8.866558e+05   1.528621e+06
  -6.282083e+05   1.702982e+06
  -1.765400e+06   8.205295e+05
  -1.793266e+06  -3.648187e+05
  -9.086127e+05  -1.005406e+06
   5.490839e+04  -8.976579e+05
   4.510114e+05  -5.418103e+05
   3.339558e+05  -5.072454e+05
   2.232371e+05  -7.814244e+05
   4.656928e+05  -8.063610e+05
   8.657371e+05  -1.682874e+05
   9.108216e+05   8.347132e+05
   3.392955e+05   1.406454e+06
  -5.126303e+05   1.034158e+06
  -9.589026e+05   1.316671e+03
  -6.156311e+05  -8.816452e+05
   1.900507e+05  -1.006431e+06
   7.221675e+05  -4.297349e+05
   5.740337e+05   2.959055e+05
   5.369923e+04   6.642533e+05
  -2.097609e+05   6.003721e+05
   4.980564e+03   3.895361e+05
   2.673121e+05   2.983384e+05
   7.941152e+03   2.984286e+05
  -7.753991e+05   1.571617e+05
  -1.402772e+06  -2.431025e+05
  -1.159703e+06  -7.253620e+05
  -6.923528e+04  -9.606818e+05
   1.038083e+06  -7.632507e+05
   1.297945e+06  -2.547481e+05
   6.552146e+05   2.173003e+05
  -1.328678e+05   3.361223e+05
  -3.346314e+05   8.340452e+04
   3.273095e+04  -2.056220e+05
   3.827558e+05  -1.437226e+05
   3.229732e+05   2.652734e+05
   4.043361e+04   5.625851e+05
  -5.844736e+04   3.535517e+05
   1.230305e+05  -1.492656e+05
   3.135018e+05  -3.049558e+05
   2.193178e+05   1.649001e+05
  -1.933603e+05   7.555248e+05
  -6.780571e+05   7.330708e+05
  -8.512546e+05   2.050087e+04
  -4.548229e+05  -6.867223e+05
   3.268072e+05  -7.079750e+05
   8.390045e+05  -1.002957e+05
   4.998061e+05   4.783991e+05
  -5.023313e+05   4.842441e+05
  -1.223324e+06  -4.694789e+04
  -8.822137e+05  -6.397403e+05
   2.689173e+05  -8.252772e+05
   1.160894e+06  -4.839211e+05
   1.020556e+06   8.982533e+04
   1.469282e+05   4.160266e+05
  -4.750989e+05   2.413828e+05
  -2.386749e+05  -1.853295e+05
   4.977424e+05  -3.048290e+05
   8.504440e+05   1.833563e+05
   3.462982e+05   9.287883e+05
  -6.127246e+05   1.182004e+06
  -1.179552e+06   5.210763e+05
  -8.960943e+05  -6.466101e+05
  -7.380166e+04  -1.363389e+06
   5.989783e+05  -1.002835e+06
   7.116109e+05   8.718295e+04
   3.638537e+05   8.970363e+05
  -9.828120e+04   7.801558e+05
  -3.948404e+05   9.038072e+04
  -4.071589e+05  -3.186752e+05
  -1.960822e+05  -1.398712e+05
  -1.037041e+04   9.732185e+04
  -8.848172e+04  -1.640193e+05
  -3.084099e+05  -7.090996e+05
  -2.045018e+05  -8.367682e+05
   4.357005e+05  -2.993770e+05
   1.102081e+06   3.981463e+05
   1.020413e+06   6.725754e+05
   1.285087e+05   5.085488e+05
  -7.289083e+05   2.691427e+05
  -7.725008e+05   1.319395e+05
  -2.043395e+05   1.590391e+03
   1.463746e+05  -1.524629e+05
  -5.560481e+04  -2.061828e+05
  -2.883038e+05  -1.413137e+05
   6.362241e+03  -1.035833e+05
   6.033709e+05  -1.040870e+05
   7.619052e+05   7.782613e+04
   1.513535e+05   5.024925e+05
  -7.596215e+05   7.740457e+05
  -1.219343e+06   4.266489e+05
  -9.041451e+05  -4.225593e+05
  -1.069374e+05  -1.068102e+06
   5.963775e+05  -9.586420e+05
   7.927760e+05  -2.903689e+05
   4.858212e+05   2.541089e+05
   4.302114e+04   2.659969e+05
  -1.331269e+05  -1.714329e+04
   3.527941e+04  -7.646740e+04
   2.546157e+05   2.596648e+05
   1.885331e+05   6.118849e+05
  -1.786169e+05   4.740488e+05
  -5.129519e+05  -1.831227e+05
  -4.466252e+05  -7.937462e+05
   5.944572e+04  -7.507093e+05
   6.165342e+05  -5.892446e+04
   6.992945e+05   6.578984e+05
   1.519252e+05   8.124387e+05
  -5.668534e+05   4.030144e+05
  -7.785381e+05  -1.264214e+05
  -3.207553e+05  -4.113605e+05
   2.292314e+05  -4.087551e+05
   2.219901e+05  -2.426146e+05
  -2.606111e+05  -5.534817e+04
  -5.028350e+05  -1.419292e+04
  -6.845180e+04  -2.166515e+05
   6.417898e+05  -4.780579e+05
   8.922418e+05  -4.115329e+05
   4.817873e+05   9.485045e+04
  -1.139844e+05   6.069125e+05
  -3.735227e+05   5.825195e+05
  -2.376437e+05   4.954224e+04
   2.662046e+04  -3.867399e+05
   2.081174e+05  -2.669926e+05
   2.528547e+05   1.962159e+05
   1.506581e+05   4.406083e+05
  -7.223975e+04   2.469649e+05
  -2.817533e+05  -8.179920e+04
  -3.184110e+05  -1.771086e+05
  -1.780383e+05  -3.748198e+04
  -1.294810e+04   5.356473e+04
   6.750954e+04  -8.050875e+04
   1.103044e+05  -3.002208e+05
   1.966743e+05  -3.148440e+05
   2.807146e+05  -1.286571e+04
   2.197488e+05   3.792530e+05
  -4.174351e+04   4.876202e+05
  -3.502050e+05   1.754509e+05
  -4.269225e+05  -2.813820e+05
  -1.220644e+05  -4.620337e+05
   3.700809e+05  -2.379876e+05
   6.043656e+05   1.257498e+05
   3.153730e+05   3.017937e+05
  -2.316967e+05   2.287546e+05
  -4.588942e+05   7.460846e+04
  -1.292140e+05  -5.124507e+03
   3.331791e+05   2.950525e+04
   3.230537e+05   1.486306e+05
  -2.060444e+05   2.501958e+05
  -6.678901e+05   1.545693e+05
