
 $NMID
 id='ANONYMOUS ', fmtdat='(2E16.6)'
 volume=1.0
 tramp=1.0
 $END
  -4.921909e+07  -4.857231e+05
  -2.965770e+07  -2.985823e+07
   6.059213e+06  -3.294699e+07
   2.383790e+07  -1.351384e+07
   1.471687e+07   5.239074e+06
  -2.472801e+06   8.188597e+06
  -8.718050e+06  -4.588823e+05
  -2.976090e+06  -8.449645e+06
   5.076087e+06  -8.762835e+06
   8.522826e+06  -2.208227e+06
   6.305003e+06   5.586270e+06
   7.007645e+05   7.877729e+06
  -3.675572e+06   2.346385e+06
  -2.474733e+06  -5.243569e+06
   3.264406e+06  -6.236697e+06
   7.031666e+06   9.603406e+05
   4.089570e+06   9.040192e+06
  -3.254104e+06   1.052359e+07
  -8.952049e+06   5.172880e+06
  -9.460824e+06  -2.012094e+06
  -5.520436e+06  -6.659663e+06
  -3.567222e+05  -7.315025e+06
   2.325777e+06  -4.961520e+06
   9.861297e+05  -2.470551e+06
  -1.425758e+06  -2.511729e+06
  -3.646639e+04  -4.258606e+06
   5.410846e+06  -3.953752e+06
   9.084174e+06  -1.066120e+05
   6.294698e+06   3.994759e+06
  -1.840008e+05   4.577901e+06
  -3.792191e+06   2.057683e+06
  -2.269770e+06  -4.580774e+05
   1.063072e+06  -1.240280e+06
   2.704700e+06  -3.659530e+05
   2.153664e+06   1.810365e+06
   3.033343e+05   3.942054e+06
  -1.840239e+06   3.344676e+06
  -2.648498e+06  -4.385346e+05
  -1.143854e+06  -3.259143e+06
   7.510479e+05  -1.298674e+06
   9.136310e+04   2.642806e+06
  -2.351304e+06   2.264764e+06
  -2.281591e+06  -2.770360e+06
   1.875677e+06  -5.400991e+06
   5.778739e+06  -9.474919e+05
   4.381095e+06   5.966869e+06
  -1.582367e+06   7.400871e+06
  -6.558625e+06   2.099162e+06
  -6.426003e+06  -3.999897e+06
  -1.908241e+06  -5.553773e+06
   3.152342e+06  -2.673088e+06
   5.022367e+06   1.214584e+06
   2.474089e+06   3.128087e+06
  -2.038393e+06   2.058407e+06
  -4.080460e+06  -7.207545e+05
  -1.836826e+06  -2.368243e+06
   1.507352e+06  -1.236812e+06
   1.696788e+06   9.073896e+05
  -9.752900e+05   9.854193e+05
  -2.235320e+06  -1.211062e+06
   2.032186e+05  -2.794817e+06
   3.766781e+06  -1.745269e+06
   4.661896e+06   9.587944e+05
   2.154812e+06   3.422712e+06
  -1.735418e+06   4.788720e+06
  -4.837770e+06   4.401700e+06
  -5.791872e+06   1.440247e+06
  -4.063590e+06  -3.063210e+06
  -7.431569e+05  -5.742504e+06
   1.608086e+06  -4.490409e+06
   1.489202e+06  -1.390178e+06
   2.982366e+05  -8.673559e+04
   3.889788e+05  -1.044020e+06
   1.890205e+06  -1.516632e+06
   2.805381e+06   1.131568e+05
   1.849169e+06   2.168197e+06
  -1.942699e+05   2.229622e+06
  -1.731819e+06   1.489907e+05
  -1.712975e+06  -2.183687e+06
   8.138618e+04  -2.912262e+06
   2.727917e+06  -1.460222e+06
   4.146610e+06   1.308025e+06
   2.829198e+06   3.543737e+06
  -1.330258e+05   3.776196e+06
  -2.036114e+06   2.366282e+06
  -1.934490e+06   1.048697e+06
  -1.658950e+06   7.422358e+05
  -2.825055e+06   5.536628e+05
  -4.219946e+06  -6.803831e+05
  -3.409005e+06  -2.671828e+06
  -1.358309e+05  -4.051344e+06
   3.195760e+06  -3.823391e+06
   4.179036e+06  -1.992011e+06
   2.590834e+06   5.510662e+05
   1.278915e+05   2.249645e+06
  -1.198446e+06   1.844813e+06
  -5.434170e+05  -8.434790e+04
   1.117945e+06  -1.266193e+06
   1.849570e+06  -3.678813e+05
   8.401301e+05   1.171980e+06
  -5.577333e+05   1.103607e+06
  -5.005343e+05  -3.679864e+05
   9.233051e+05  -8.041812e+05
   1.810871e+06   9.868790e+05
   8.671699e+05   3.228388e+06
  -1.234616e+06   3.465478e+06
  -2.961389e+06   1.404617e+06
  -3.402701e+06  -1.231272e+06
  -2.439348e+06  -2.761437e+06
  -5.046814e+05  -2.677141e+06
   1.269927e+06  -1.459190e+06
   1.590637e+06  -1.928214e+05
   4.886055e+05   4.772077e+04
  -3.554607e+05  -7.434192e+05
   3.858292e+05  -1.294011e+06
   1.832130e+06  -5.602076e+05
   1.981203e+06   8.332625e+05
   4.033234e+05   1.361560e+06
  -1.147843e+06   5.791022e+05
  -9.246722e+05  -4.462292e+05
   8.074952e+05  -5.860529e+05
   2.220101e+06   2.296776e+05
   1.839727e+06   1.343693e+06
  -1.913691e+05   2.028277e+06
  -2.304722e+06   1.695030e+06
  -2.765138e+06   2.815068e+05
  -1.196274e+06  -1.233217e+06
   8.988183e+05  -1.442670e+06
   1.497810e+06  -1.696828e+05
   1.671980e+05   1.046512e+06
  -1.497434e+06   7.154433e+05
  -1.706161e+06  -7.572464e+05
  -3.742055e+05  -1.633785e+06
   1.047532e+06  -1.010103e+06
   1.258367e+06   2.577060e+05
   2.816829e+05   7.565800e+05
  -7.637939e+05   5.938032e+04
  -7.158029e+05  -1.041351e+06
   5.890919e+05  -1.404520e+06
   2.000857e+06  -5.157100e+05
   2.009575e+06   1.058839e+06
   3.727975e+05   2.054376e+06
  -1.418942e+06   1.624939e+06
  -1.707326e+06   2.198469e+05
  -5.137347e+05  -8.542348e+05
   6.466225e+05  -8.074422e+05
   6.556446e+05  -7.260358e+04
  -9.494205e+04   4.028831e+05
  -5.236347e+05   2.553194e+05
  -1.972160e+05  -7.422321e+04
   4.030759e+05   1.493802e+04
   5.319880e+05   6.155732e+05
  -1.721073e+05   1.167578e+06
  -1.361893e+06   8.948843e+05
  -2.066577e+06  -4.109825e+05
  -1.446956e+06  -1.933588e+06
   2.238246e+05  -2.416754e+06
   1.615362e+06  -1.433909e+06
   1.713338e+06   1.027396e+05
   9.037705e+05   9.237561e+05
   3.339786e+05   7.272908e+05
   4.352688e+05   2.705887e+05
   5.721498e+05   2.978083e+05
   7.921351e+04   7.281430e+05
  -8.577297e+05   9.012857e+05
  -1.449666e+06   3.456404e+05
  -1.078692e+06  -7.287129e+05
   2.273234e+05  -1.491186e+06
   1.719389e+06  -1.091734e+06
   2.251617e+06   4.787158e+05
   1.145189e+06   2.083746e+06
  -9.747554e+05   2.345736e+06
  -2.503123e+06   1.043602e+06
  -2.353856e+06  -6.217483e+05
  -1.003692e+06  -1.330246e+06
   1.746198e+05  -9.872900e+05
   4.208869e+05  -5.532104e+05
   1.433457e+05  -7.470559e+05
   1.401256e+05  -1.263054e+06
   6.621783e+05  -1.250160e+06
   1.269031e+06  -3.022380e+05
   1.318652e+06   1.084056e+06
   5.429746e+05   1.890343e+06
  -6.294144e+05   1.428923e+06
  -1.283303e+06   1.673761e+03
  -8.141256e+05  -1.261164e+06
   3.636790e+05  -1.383411e+06
   1.121930e+06  -4.332184e+05
   7.976523e+05   6.424614e+05
  -9.020483e+04   1.037450e+06
  -4.887136e+05   7.805296e+05
  -6.575022e+04   4.318592e+05
   4.220641e+05   3.463669e+05
   5.299574e+04   3.863012e+05
  -1.127130e+06   2.106608e+05
  -2.028837e+06  -3.286878e+05
  -1.605070e+06  -1.020805e+06
   1.482201e+04  -1.404681e+06
   1.552182e+06  -1.118737e+06
   1.810607e+06  -2.907635e+05
   8.366999e+05   4.558720e+05
  -2.474425e+05   5.469270e+05
  -4.983267e+05   4.691673e+04
  -1.653579e+04  -3.973609e+05
   4.540432e+05  -2.500378e+05
   4.741553e+05   3.428450e+05
   2.238620e+05   7.298839e+05
   6.922081e+04   4.807201e+05
   1.389935e+05  -1.125938e+05
   2.982158e+05  -3.144453e+05
   2.785531e+05   2.288239e+05
  -1.559243e+05   9.917866e+05
  -8.973704e+05   1.054331e+06
  -1.327419e+06   1.520358e+05
  -8.162430e+05  -9.157808e+05
   4.177985e+05  -1.109877e+06
   1.237982e+06  -3.075704e+05
   7.262285e+05   5.810019e+05
  -6.946274e+05   6.487486e+05
  -1.592654e+06  -8.570839e+04
  -1.032212e+06  -8.548358e+05
   4.602666e+05  -1.003208e+06
   1.499946e+06  -5.072390e+05
   1.249481e+06   1.749641e+05
   1.449690e+05   5.180096e+05
  -6.451082e+05   2.776633e+05
  -3.747271e+05  -2.876510e+05
   5.959336e+05  -5.100368e+05
   1.179706e+06   9.898292e+04
   6.496988e+05   1.189615e+06
  -6.139525e+05   1.693131e+06
  -1.494771e+06   8.696797e+05
  -1.253509e+06  -7.663889e+05
  -1.972548e+05  -1.796136e+06
   7.422551e+05  -1.303175e+06
   9.275334e+05   1.661945e+05
   4.410011e+05   1.190244e+06
  -2.057611e+05   9.760948e+05
  -5.573312e+05   8.895110e+04
  -4.764254e+05  -3.800621e+05
  -1.753181e+05  -1.404904e+05
  -4.405805e+04   9.844506e+04
  -2.622407e+05  -2.895673e+05
  -5.018363e+05  -9.646815e+05
  -2.028337e+05  -1.080403e+06
   7.000066e+05  -3.948004e+05
   1.477162e+06   4.675592e+05
   1.291596e+06   8.377504e+05
   1.852916e+05   6.964701e+05
  -8.642074e+05   4.186686e+05
  -9.881563e+05   1.853510e+05
  -3.522242e+05  -4.883334e+04
   1.495631e+05  -2.251621e+05
   2.464046e+04  -2.090572e+05
  -2.767336e+05  -9.898656e+04
  -4.663679e+04  -1.345555e+05
   6.738819e+05  -2.338721e+05
   1.046809e+06   1.475840e+04
   4.186249e+05   6.935808e+05
  -8.521554e+05   1.174752e+06
  -1.696043e+06   7.495366e+05
  -1.402560e+06  -4.382691e+05
  -2.728662e+05  -1.409475e+06
   7.655412e+05  -1.373985e+06
   1.051262e+06  -5.338598e+05
   6.583340e+05   2.361995e+05
   1.308792e+05   3.592734e+05
  -7.790755e+04   6.360700e+04
   7.772289e+04  -2.128994e+04
   3.038359e+05   3.650301e+05
   2.507351e+05   8.082806e+05
  -1.804312e+05   6.791133e+05
  -6.845030e+05  -1.237498e+05
  -7.392238e+05  -9.559240e+05
  -1.118972e+05  -1.033618e+06
   7.578316e+05  -2.461472e+05
   1.037700e+06   7.235523e+05
   3.484180e+05   1.090704e+06
  -7.141403e+05   6.770845e+05
  -1.118299e+06  -7.405240e+04
  -5.300277e+05  -6.098446e+05
   2.868897e+05  -6.756563e+05
   3.758813e+05  -3.669569e+05
  -2.517672e+05  -8.400815e+03
  -6.513069e+05   4.080103e+04
  -1.460917e+05  -3.078634e+05
   8.247054e+05  -6.818989e+05
   1.255640e+06  -5.446948e+05
   7.592128e+05   1.748568e+05
  -9.515727e+04   8.694534e+05
  -5.486780e+05   8.559741e+05
  -4.239500e+05   1.597259e+05
  -5.441863e+04  -4.814192e+05
   2.394266e+05  -4.355529e+05
   3.544386e+05   1.482077e+05
   2.560138e+05   5.774893e+05
  -5.309032e+04   4.265115e+05
  -3.921223e+05  -4.423056e+04
  -4.755274e+05  -2.785598e+05
  -2.422456e+05  -9.461522e+04
   3.294340e+04   1.494333e+05
   8.081865e+04   4.022842e+04
  -1.176091e+04  -3.567786e+05
   5.250634e+04  -5.518387e+05
   3.218701e+05  -2.181129e+05
   4.599974e+05   3.813397e+05
   1.574502e+05   6.504714e+05
  -4.087386e+05   3.167744e+05
  -6.666415e+05  -2.785843e+05
  -2.567063e+05  -5.742677e+05
   5.065402e+05  -3.676609e+05
   8.842713e+05   7.293157e+04
   4.811983e+05   3.765087e+05
  -2.934038e+05   4.015955e+05
  -6.400010e+05   2.302987e+05
  -2.504964e+05   1.837300e+04
   3.479769e+05  -7.115682e+04
   4.101568e+05   6.174827e+04
  -1.663926e+05   2.938776e+05
  -7.435601e+05   2.774174e+05
