
 $NMID
 id='ANONYMOUS ', fmtdat='(2E16.6)'
 volume=1.0
 tramp=1.0
 $END
  -4.402811e+07   1.619770e+05
  -2.701269e+07  -2.568729e+07
   4.549075e+06  -2.923879e+07
   2.078552e+07  -1.294918e+07
   1.334090e+07   3.791864e+06
  -1.807454e+06   7.345522e+06
  -7.843928e+06   1.644681e+05
  -3.173096e+06  -7.396742e+06
   4.098204e+06  -8.303643e+06
   7.596265e+06  -2.442871e+06
   5.871561e+06   4.986205e+06
   7.738903e+05   7.274382e+06
  -3.391890e+06   2.128945e+06
  -2.479707e+06  -4.975953e+06
   2.732242e+06  -5.987471e+06
   6.377472e+06   5.700982e+05
   3.969062e+06   8.050626e+06
  -2.648787e+06   9.578480e+06
  -7.962720e+06   4.788230e+06
  -8.499247e+06  -1.774042e+06
  -4.868946e+06  -5.949078e+06
  -2.473066e+05  -6.379713e+06
   1.879797e+06  -4.212206e+06
   3.909279e+05  -2.214361e+06
  -1.708871e+06  -2.580523e+06
  -5.844361e+04  -4.241404e+06
   5.221626e+06  -3.790977e+06
   8.595242e+06  -1.036266e+05
   5.831307e+06   3.721528e+06
  -3.591810e+05   4.258428e+06
  -3.764243e+06   1.836759e+06
  -2.170905e+06  -6.866614e+05
   1.244819e+06  -1.476386e+06
   2.897006e+06  -4.116551e+05
   2.162832e+06   1.926709e+06
   1.775494e+05   3.878934e+06
  -1.767678e+06   3.017341e+06
  -2.283125e+06  -6.120215e+05
  -8.428023e+05  -2.990959e+06
   7.420006e+05  -9.230929e+05
   4.464455e+04   2.717163e+06
  -2.162130e+06   2.255074e+06
  -2.176447e+06  -2.408786e+06
   1.409703e+06  -4.865441e+06
   4.943826e+06  -9.620889e+05
   3.959189e+06   5.206224e+06
  -1.216262e+06   6.602921e+06
  -5.867607e+06   2.000595e+06
  -6.067458e+06  -3.485519e+06
  -2.037916e+06  -5.079403e+06
   2.813976e+06  -2.659860e+06
   4.780798e+06   8.681494e+05
   2.500807e+06   2.766612e+06
  -1.737120e+06   1.959354e+06
  -3.737956e+06  -5.078209e+05
  -1.761371e+06  -2.072712e+06
   1.335565e+06  -1.161534e+06
   1.649536e+06   7.733687e+05
  -7.224187e+05   1.003266e+06
  -2.033637e+06  -8.263008e+05
  -6.392064e+04  -2.332214e+06
   3.142337e+06  -1.654950e+06
   4.171544e+06   6.198544e+05
   2.064574e+06   2.965932e+06
  -1.541396e+06   4.442375e+06
  -4.516038e+06   4.175925e+06
  -5.398935e+06   1.376124e+06
  -3.752676e+06  -2.853409e+06
  -7.467526e+05  -5.349934e+06
   1.310295e+06  -4.240870e+06
   1.230829e+06  -1.463686e+06
   3.216644e+05  -2.957402e+05
   5.717428e+05  -1.113197e+06
   1.987811e+06  -1.419849e+06
   2.775789e+06   2.224735e+05
   1.794247e+06   2.215810e+06
  -2.432818e+05   2.255786e+06
  -1.799870e+06   1.831857e+05
  -1.771832e+06  -2.139037e+06
   4.209612e+04  -2.839654e+06
   2.613624e+06  -1.391998e+06
   3.906346e+06   1.245708e+06
   2.617588e+06   3.277192e+06
  -1.119669e+05   3.428338e+06
  -1.800955e+06   2.138487e+06
  -1.680785e+06   9.996217e+05
  -1.479931e+06   7.943335e+05
  -2.654444e+06   6.668569e+05
  -4.044792e+06  -4.843073e+05
  -3.350018e+06  -2.437262e+06
  -2.630774e+05  -3.892469e+06
   2.981798e+06  -3.780031e+06
   4.016359e+06  -1.998137e+06
   2.514531e+06   5.399277e+05
   1.097022e+05   2.211313e+06
  -1.179340e+06   1.787957e+06
  -5.279614e+05  -1.016102e+05
   1.071959e+06  -1.248363e+06
   1.761511e+06  -3.909849e+05
   8.018923e+05   1.106299e+06
  -5.402300e+05   1.091194e+06
  -5.475297e+05  -3.244262e+05
   7.741800e+05  -8.693031e+05
   1.740070e+06   7.166603e+05
   1.061313e+06   2.929377e+06
  -8.624173e+05   3.408165e+06
  -2.692091e+06   1.625748e+06
  -3.381722e+06  -9.421455e+05
  -2.562897e+06  -2.586225e+06
  -6.192812e+05  -2.620887e+06
   1.202763e+06  -1.458399e+06
   1.549939e+06  -2.167020e+05
   4.724150e+05   3.314765e+04
  -3.692842e+05  -7.066079e+05
   3.186953e+05  -1.240218e+06
   1.717694e+06  -5.869882e+05
   1.916423e+06   7.169162e+05
   4.431850e+05   1.278068e+06
  -1.084118e+06   6.090175e+05
  -9.431669e+05  -3.926414e+05
   7.246022e+05  -6.418374e+05
   2.179995e+06   7.613090e+04
   1.897372e+06   1.219958e+06
  -6.951488e+04   2.009030e+06
  -2.172636e+06   1.752558e+06
  -2.668675e+06   3.702660e+05
  -1.184136e+06  -1.140330e+06
   8.199833e+05  -1.389730e+06
   1.411335e+06  -1.922371e+05
   1.706915e+05   9.949601e+05
  -1.421176e+06   7.301749e+05
  -1.672720e+06  -6.630051e+05
  -4.413750e+05  -1.559096e+06
   9.515197e+05  -1.036104e+06
   1.229252e+06   1.711288e+05
   3.233948e+05   7.089797e+05
  -7.187106e+05   8.976446e+04
  -7.202828e+05  -9.772773e+05
   5.298180e+05  -1.372759e+06
   1.919956e+06  -5.526936e+05
   1.968827e+06   9.659315e+05
   4.218443e+05   1.967300e+06
  -1.309309e+06   1.609287e+06
  -1.635323e+06   2.731646e+05
  -5.332626e+05  -8.043848e+05
   5.942099e+05  -8.101299e+05
   6.547804e+05  -9.115324e+04
  -5.316516e+04   4.268805e+05
  -5.173559e+05   3.081724e+05
  -2.522624e+05  -6.116122e+04
   3.479967e+05  -4.134025e+04
   5.405376e+05   5.319590e+05
  -1.006598e+05   1.117830e+06
  -1.271726e+06   9.131652e+05
  -2.006190e+06  -3.242258e+05
  -1.455958e+06  -1.818437e+06
   1.406256e+05  -2.348564e+06
   1.517042e+06  -1.460953e+06
   1.679934e+06   2.295465e+04
   9.417595e+05   8.816869e+05
   3.649750e+05   7.474174e+05
   4.036989e+05   2.874849e+05
   5.227284e+05   2.600118e+05
   9.069550e+04   6.739904e+05
  -7.833534e+05   8.997493e+05
  -1.387990e+06   4.026705e+05
  -1.091304e+06  -6.668728e+05
   1.464852e+05  -1.472374e+06
   1.622240e+06  -1.133269e+06
   2.201628e+06   3.803171e+05
   1.191732e+06   1.967883e+06
  -8.385765e+05   2.292521e+06
  -2.361875e+06   1.105594e+06
  -2.304756e+06  -4.940608e+05
  -1.054902e+06  -1.246741e+06
   1.084301e+05  -9.930985e+05
   4.095644e+05  -5.859222e+05
   1.632509e+05  -7.298078e+05
   1.247842e+05  -1.199464e+06
   5.971226e+05  -1.205406e+06
   1.203564e+06  -3.219132e+05
   1.301991e+06   1.011375e+06
   5.801782e+05   1.813813e+06
  -5.690445e+05   1.402515e+06
  -1.244090e+06   4.861485e+04
  -8.337596e+05  -1.178495e+06
   2.855083e+05  -1.343317e+06
   1.040481e+06  -4.780107e+05
   7.820704e+05   5.536385e+05
  -2.832451e+04   9.777362e+05
  -4.098173e+05   7.704775e+05
  -3.352800e+04   4.329335e+05
   4.115286e+05   3.298673e+05
   5.895750e+04   3.741745e+05
  -1.067466e+06   2.418293e+05
  -1.950283e+06  -2.476006e+05
  -1.581500e+06  -9.229065e+05
  -5.147238e+04  -1.338510e+06
   1.438989e+06  -1.119259e+06
   1.729937e+06  -3.528224e+05
   8.283714e+05   3.830736e+05
  -2.113826e+05   5.199478e+05
  -4.696940e+05   7.250767e+04
  -1.571873e+04  -3.643706e+05
   4.415792e+05  -2.490254e+05
   4.636075e+05   3.183719e+05
   2.150110e+05   7.070563e+05
   5.940359e+04   4.664996e+05
   1.307435e+05  -1.288260e+05
   2.928139e+05  -3.360385e+05
   2.803147e+05   2.065160e+05
  -1.289969e+05   9.706245e+05
  -8.320094e+05   1.042786e+06
  -1.251749e+06   1.710639e+05
  -7.899529e+05  -8.631236e+05
   3.718071e+05  -1.063542e+06
   1.173232e+06  -3.104122e+05
   7.160334e+05   5.476087e+05
  -6.452157e+05   6.517433e+05
  -1.550761e+06  -2.041374e+04
  -1.054225e+06  -7.848699e+05
   3.890085e+05  -1.000382e+06
   1.437379e+06  -5.703437e+05
   1.233388e+06   1.107000e+05
   1.690820e+05   5.010370e+05
  -6.120743e+05   2.999772e+05
  -3.638114e+05  -2.602740e+05
   5.731209e+05  -5.017350e+05
   1.144194e+06   7.800469e+04
   6.434278e+05   1.143099e+06
  -5.709449e+05   1.649567e+06
  -1.435078e+06   8.696535e+05
  -1.234912e+06  -7.150365e+05
  -2.401124e+05  -1.739268e+06
   6.799034e+05  -1.296635e+06
   9.065009e+05   1.179196e+05
   4.786913e+05   1.136424e+06
  -1.485420e+05   9.621895e+05
  -5.305075e+05   1.117792e+05
  -4.885631e+05  -3.559563e+05
  -1.914552e+05  -1.349422e+05
  -3.346655e+04   1.012757e+05
  -2.386081e+05  -2.635046e+05
  -5.057667e+05  -9.163225e+05
  -2.484944e+05  -1.043781e+06
   6.440144e+05  -4.052424e+05
   1.448825e+06   4.103378e+05
   1.295080e+06   7.724020e+05
   2.020550e+05   6.648859e+05
  -8.416577e+05   4.299952e+05
  -9.577524e+05   2.153302e+05
  -3.278788e+05  -2.820037e+04
   1.455105e+05  -2.211956e+05
  -1.949839e+03  -2.111051e+05
  -2.928538e+05  -9.695189e+04
  -4.174096e+04  -1.307168e+05
   6.688228e+05  -2.395414e+05
   1.012518e+06  -8.420570e+03
   3.939515e+05   6.592753e+05
  -8.142631e+05   1.150219e+06
  -1.609595e+06   7.555126e+05
  -1.345233e+06  -4.003801e+05
  -2.943013e+05  -1.361706e+06
   6.988464e+05  -1.343865e+06
   1.003939e+06  -5.316788e+05
   6.480835e+05   2.217389e+05
   1.280894e+05   3.446875e+05
  -9.231412e+04   5.319813e+04
   6.681813e+04  -3.614915e+04
   3.134177e+05   3.381482e+05
   2.733365e+05   7.755453e+05
  -1.611354e+05   6.591095e+05
  -6.718715e+05  -1.149070e+05
  -7.304393e+05  -9.211414e+05
  -1.128060e+05  -9.979718e+05
   7.413577e+05  -2.397248e+05
   1.018576e+06   6.923990e+05
   3.524744e+05   1.047032e+06
  -6.781972e+05   6.596836e+05
  -1.075382e+06  -4.894127e+04
  -5.171190e+05  -5.639102e+05
   2.598014e+05  -6.439062e+05
   3.385805e+05  -3.602135e+05
  -2.618864e+05  -7.482257e+03
  -6.342137e+05   5.394668e+04
  -1.429077e+05  -2.911598e+05
   7.807798e+05  -6.841632e+05
   1.185586e+06  -5.722604e+05
   7.208016e+05   1.371397e+05
  -7.202846e+04   8.374443e+05
  -4.942022e+05   8.344056e+05
  -3.894373e+05   1.512573e+05
  -5.604136e+04  -4.727128e+05
   2.246805e+05  -4.182985e+05
   3.490492e+05   1.502688e+05
   2.600947e+05   5.533961e+05
  -4.600721e+04   4.000098e+05
  -3.807365e+05  -4.003502e+04
  -4.610824e+05  -2.470171e+05
  -2.359172e+05  -7.550681e+04
   2.673271e+04   1.319565e+05
   7.700483e+04   1.089900e+04
   1.116066e+03  -3.573075e+05
   7.008436e+04  -5.204615e+05
   3.186757e+05  -1.905811e+05
   4.349811e+05   3.786351e+05
   1.402720e+05   6.305985e+05
  -3.965968e+05   3.095127e+05
  -6.423643e+05  -2.645980e+05
  -2.551520e+05  -5.566708e+05
   4.764712e+05  -3.658603e+05
   8.489657e+05   5.656893e+04
   4.705325e+05   3.534165e+05
  -2.752088e+05   3.840353e+05
  -6.109630e+05   2.234397e+05
  -2.294846e+05   2.012555e+04
   3.543680e+05  -6.585449e+04
   4.072895e+05   6.752052e+04
  -1.677627e+05   3.008721e+05
  -7.373867e+05   2.881443e+05
