
 $NMID
 id='ANONYMOUS ', fmtdat='(2E16.6)'
 volume=1.0
 tramp=1.0
 $END
   5.586518e+07  -5.058111e+05
   3.345887e+07   3.468042e+07
  -7.541314e+06   3.781100e+07
  -2.717005e+07   1.415488e+07
  -1.591177e+07  -7.243245e+06
   3.444302e+06  -9.106474e+06
   9.487543e+06   1.450782e+06
   2.477727e+06   9.542108e+06
  -6.099431e+06   8.850239e+06
  -9.356834e+06   1.800333e+06
  -6.893174e+06  -5.957079e+06
  -9.594601e+05  -8.317225e+06
   3.850660e+06  -2.816271e+06
   2.677507e+06   5.058867e+06
  -3.561088e+06   6.213538e+06
  -7.654310e+06  -1.353479e+06
  -4.368156e+06  -9.950781e+06
   3.649764e+06  -1.156022e+07
   9.898827e+06  -5.923172e+06
   1.076053e+07   1.851463e+06
   6.770796e+06   7.387532e+06
   7.971874e+05   8.758823e+06
  -3.062449e+06   6.122815e+06
  -2.130182e+06   2.433879e+06
   1.041004e+06   1.660882e+06
   5.516353e+05   3.858286e+06
  -4.921138e+06   4.520468e+06
  -9.312476e+06   9.066180e+05
  -7.035053e+06  -3.800512e+06
  -5.386585e+05  -5.044789e+06
   3.433352e+06  -2.826107e+06
   2.529693e+06  -3.096344e+05
  -1.921852e+05   8.665296e+05
  -1.897881e+06   7.389491e+05
  -2.220923e+06  -1.042689e+06
  -1.016974e+06  -3.708621e+06
   1.627254e+06  -3.914715e+06
   3.392882e+06  -4.942307e+04
   1.923695e+06   3.645875e+06
  -8.277161e+05   2.131355e+06
  -6.050290e+05  -2.232292e+06
   2.245567e+06  -2.222273e+06
   2.360211e+06   3.118518e+06
  -2.484601e+06   5.992347e+06
  -7.005369e+06   9.280829e+05
  -5.125833e+06  -6.896238e+06
   1.905843e+06  -8.449670e+06
   7.304243e+06  -2.458571e+06
   6.752955e+06   4.212562e+06
   1.784572e+06   5.735221e+06
  -3.286347e+06   2.578569e+06
  -4.964879e+06  -1.430139e+06
  -2.258659e+06  -3.304254e+06
   2.381622e+06  -2.096550e+06
   4.399753e+06   9.016753e+05
   1.873643e+06   2.652334e+06
  -1.679962e+06   1.346997e+06
  -1.641583e+06  -9.558791e+05
   1.346001e+06  -7.762067e+05
   2.340096e+06   1.865012e+06
  -8.151191e+05   3.425164e+06
  -4.684854e+06   1.792982e+06
  -5.178527e+06  -1.416947e+06
  -2.236665e+06  -3.913460e+06
   1.624222e+06  -5.170956e+06
   4.653860e+06  -4.864209e+06
   5.956685e+06  -1.911648e+06
   4.609283e+06   2.932419e+06
   1.106073e+06   5.956133e+06
  -1.741364e+06   4.570060e+06
  -1.680716e+06   1.044124e+06
  -4.445226e+03  -3.611052e+05
   2.921669e+05   9.906586e+05
  -1.350642e+06   1.943638e+06
  -2.709882e+06   5.109724e+05
  -2.121700e+06  -1.648031e+06
  -2.427468e+05  -2.018478e+06
   1.368426e+06  -3.311867e+05
   1.660518e+06   1.807700e+06
   1.554716e+05   2.771808e+06
  -2.584264e+06   1.738859e+06
  -4.405212e+06  -9.594905e+05
  -3.286306e+06  -3.584625e+06
  -6.005757e+04  -4.188450e+06
   2.226609e+06  -2.731668e+06
   2.208644e+06  -1.111639e+06
   1.755343e+06  -6.305349e+05
   2.768100e+06  -4.895985e+05
   4.133987e+06   6.237639e+05
   3.373971e+06   2.524431e+06
   2.504516e+05   3.892473e+06
  -2.881937e+06   3.804299e+06
  -3.858831e+06   2.208529e+06
  -2.572503e+06  -2.441935e+05
  -4.240716e+05  -2.115271e+06
   9.310078e+05  -1.926898e+06
   5.537563e+05  -7.597023e+03
  -9.681457e+05   1.299087e+06
  -1.813400e+06   4.438965e+05
  -9.434648e+05  -1.137202e+06
   4.263944e+05  -1.080455e+06
   3.697766e+05   3.429868e+05
  -1.025644e+06   5.930926e+05
  -1.729019e+06  -1.320404e+06
  -5.336703e+05  -3.325208e+06
   1.555458e+06  -3.120553e+06
   2.921258e+06  -9.371838e+05
   3.034389e+06   1.332140e+06
   2.130935e+06   2.459069e+06
   5.039855e+05   2.376054e+06
  -1.096583e+06   1.427184e+06
  -1.474824e+06   2.934261e+05
  -4.674352e+05  -2.631165e+04
   3.611918e+05   7.012256e+05
  -3.749673e+05   1.296398e+06
  -1.827159e+06   5.977681e+05
  -1.959441e+06  -8.176095e+05
  -3.805244e+05  -1.350476e+06
   1.097855e+06  -5.629977e+05
   8.242164e+05   3.960810e+05
  -7.907491e+05   4.599070e+05
  -2.006476e+06  -2.808269e+05
  -1.613375e+06  -1.199618e+06
   1.929779e+05  -1.803498e+06
   2.106346e+06  -1.599614e+06
   2.601954e+06  -3.386904e+05
   1.190479e+06   1.179439e+06
  -8.476271e+05   1.478280e+06
  -1.511112e+06   2.247317e+05
  -2.380916e+05  -1.044727e+06
   1.424147e+06  -7.520914e+05
   1.643446e+06   7.030809e+05
   3.359719e+05   1.547132e+06
  -1.020559e+06   9.141645e+05
  -1.175286e+06  -2.961221e+05
  -2.196244e+05  -7.364781e+05
   7.726948e+05  -6.290398e+04
   7.402787e+05   9.848637e+05
  -4.923531e+05   1.380150e+06
  -1.887728e+06   5.955086e+05
  -1.974771e+06  -9.246748e+05
  -4.300918e+05  -1.961537e+06
   1.326783e+06  -1.600176e+06
   1.631049e+06  -2.377761e+05
   4.854991e+05   8.107713e+05
  -6.042462e+05   7.696834e+05
  -5.777520e+05   1.017282e+05
   1.060218e+05  -3.020975e+05
   4.156074e+05  -1.847469e+05
   6.073071e+04   2.693115e+04
  -4.401779e+05  -1.221741e+05
  -4.783569e+05  -6.567285e+05
   1.915624e+05  -1.127880e+06
   1.289629e+06  -8.797651e+05
   1.983988e+06   3.313654e+05
   1.452849e+06   1.796950e+06
  -1.218480e+05   2.291417e+06
  -1.467514e+06   1.362834e+06
  -1.566184e+06  -7.664402e+04
  -8.059209e+05  -7.784029e+05
  -3.301078e+05  -5.358675e+05
  -5.068190e+05  -1.628701e+05
  -6.396419e+05  -3.051696e+05
  -1.077721e+05  -7.493831e+05
   8.107901e+05  -8.685432e+05
   1.343455e+06  -3.341213e+05
   9.875113e+05   6.308455e+05
  -1.977495e+05   1.346386e+06
  -1.581134e+06   1.046154e+06
  -2.125122e+06  -3.861092e+05
  -1.117706e+06  -1.949645e+06
   9.114731e+05  -2.262781e+06
   2.388519e+06  -1.026925e+06
   2.216872e+06   5.771165e+05
   8.975956e+05   1.220181e+06
  -1.768043e+05   8.498280e+05
  -3.083231e+05   4.663080e+05
   4.147837e+03   7.383818e+05
  -3.826598e+04   1.282819e+06
  -6.089264e+05   1.264038e+06
  -1.233536e+06   3.478342e+05
  -1.311993e+06  -9.756858e+05
  -5.969332e+05  -1.772662e+06
   5.340029e+05  -1.382623e+06
   1.210202e+06  -3.540160e+04
   7.962162e+05   1.200062e+06
  -3.503883e+05   1.327638e+06
  -1.106877e+06   3.802086e+05
  -7.781846e+05  -6.829852e+05
   1.236585e+05  -1.037940e+06
   5.225359e+05  -7.376494e+05
   7.838007e+04  -3.729419e+05
  -4.330019e+05  -2.955752e+05
  -7.672957e+04  -3.582510e+05
   1.092989e+06  -2.271008e+05
   1.981810e+06   2.600664e+05
   1.560862e+06   9.410395e+05
  -2.085703e+04   1.370946e+06
  -1.499970e+06   1.132548e+06
  -1.728669e+06   3.012056e+05
  -7.835017e+05  -4.728252e+05
   2.477031e+05  -5.599817e+05
   4.880794e+05  -3.104046e+04
   4.829767e+04   4.235069e+05
  -3.996452e+05   2.711385e+05
  -4.729810e+05  -3.068261e+05
  -2.975167e+05  -6.754574e+05
  -1.361249e+05  -4.562497e+05
  -1.171758e+05   7.544154e+04
  -2.238407e+05   2.683259e+05
  -2.621581e+05  -2.116654e+05
   8.061251e+04  -9.326092e+05
   8.154604e+05  -1.046484e+06
   1.323389e+06  -2.251508e+05
   8.757200e+05   8.432561e+05
  -3.590563e+05   1.122014e+06
  -1.207004e+06   3.896595e+05
  -7.234595e+05  -5.062845e+05
   6.471594e+05  -6.300879e+05
   1.486634e+06   4.788865e+04
   9.371070e+05   7.772712e+05
  -4.466715e+05   9.170738e+05
  -1.378728e+06   4.625755e+05
  -1.136354e+06  -1.527703e+05
  -1.302689e+05  -4.688639e+05
   6.042500e+05  -2.607955e+05
   3.823967e+05   2.775914e+05
  -5.219101e+05   5.377063e+05
  -1.133154e+06  -4.953948e+03
  -7.181446e+05  -1.085855e+06
   4.544983e+05  -1.659264e+06
   1.355920e+06  -9.284520e+05
   1.224949e+06   6.515994e+05
   2.722402e+05   1.678830e+06
  -6.421418e+05   1.233793e+06
  -8.687593e+05  -1.518192e+05
  -4.289710e+05  -1.106407e+06
   1.970306e+05  -8.981474e+05
   5.342330e+05  -8.546369e+04
   4.326575e+05   3.267820e+05
   1.351301e+05   1.083702e+05
   5.054429e+04  -8.116616e+04
   3.109640e+05   2.954853e+05
   5.336648e+05   9.038677e+05
   1.921339e+05   9.973138e+05
  -6.959953e+05   3.871056e+05
  -1.407110e+06  -3.765395e+05
  -1.211556e+06  -7.308878e+05
  -1.979831e+05  -6.584636e+05
   7.608712e+05  -4.418113e+05
   9.091785e+05  -2.046232e+05
   3.640174e+05   5.790703e+04
  -1.171008e+05   2.252350e+05
  -5.622503e+04   1.703550e+05
   2.213680e+05   4.923011e+04
   6.928664e+04   1.245637e+05
  -5.776558e+05   2.770150e+05
  -9.993406e+05   4.853492e+04
  -4.981205e+05  -6.539296e+05
   7.095218e+05  -1.187024e+06
   1.607403e+06  -8.211663e+05
   1.411822e+06   3.285869e+05
   3.456873e+05   1.315795e+06
  -6.742386e+05   1.352150e+06
  -9.752416e+05   5.884306e+05
  -6.313603e+05  -1.645500e+05
  -1.617407e+05  -3.374336e+05
   3.312906e+04  -9.732064e+04
  -8.388547e+04  -1.028111e+04
  -2.812865e+05  -3.427890e+05
  -2.571693e+05  -7.514479e+05
   1.296150e+05  -6.635250e+05
   6.493449e+05   5.073053e+04
   7.793945e+05   8.417146e+05
   2.079882e+05   9.855488e+05
  -6.836286e+05   3.189061e+05
  -1.039700e+06  -5.944167e+05
  -4.144368e+05  -1.022596e+06
   6.398283e+05  -7.121791e+05
   1.087871e+06   3.876806e+03
   5.549289e+05   5.858246e+05
  -2.464671e+05   6.956962e+05
  -3.764062e+05   3.717113e+05
   2.001641e+05  -2.565262e+04
   6.053265e+05  -7.933705e+04
   1.671317e+05   2.942553e+05
  -7.469410e+05   6.817604e+05
  -1.194251e+06   5.435240e+05
  -7.653218e+05  -1.652819e+05
   4.495272e+04  -8.458097e+05
   5.152435e+05  -8.513063e+05
   4.385842e+05  -1.974133e+05
   9.988676e+04   4.393886e+05
  -1.998891e+05   4.483888e+05
  -3.458089e+05  -8.552925e+04
  -2.781855e+05  -5.337728e+05
   2.278904e+04  -4.420749e+05
   3.776874e+05   5.834423e+03
   4.748494e+05   2.672399e+05
   2.320294e+05   1.005211e+05
  -5.396372e+04  -1.713411e+05
  -7.183193e+04  -9.417370e+04
   8.392027e+04   3.202236e+05
   4.668002e+04   5.758078e+05
  -2.789146e+05   2.941289e+05
  -5.108260e+05  -2.996623e+05
  -2.498085e+05  -6.109803e+05
   3.544768e+05  -3.425116e+05
   6.747748e+05   2.076941e+05
   2.944916e+05   5.185409e+05
  -4.731284e+05   3.792822e+05
  -8.667837e+05  -8.830260e+03
  -4.873753e+05  -3.323558e+05
   2.606959e+05  -4.243662e+05
   6.093138e+05  -2.852369e+05
   2.667575e+05  -3.296098e+04
  -2.888933e+05   1.211046e+05
  -3.812921e+05   6.976345e+03
   1.055331e+05  -2.666124e+05
   6.354648e+05  -3.107322e+05
