
 $NMID
 id='ANONYMOUS ', fmtdat='(2E16.6)'
 volume=1.0
 tramp=1.0
 $END
  -1.205440e+07  -7.846313e+05
  -7.809156e+06  -5.827535e+06
   2.115393e+05  -7.507184e+06
   5.364923e+06  -5.105480e+06
   4.547231e+06  -6.414487e+05
   3.378894e+05   2.210487e+06
  -2.564942e+06   1.224523e+06
  -1.987453e+06  -1.998524e+06
   5.916583e+05  -3.563168e+06
   2.384297e+06  -1.577441e+06
   1.976086e+06   1.736081e+06
   1.228673e+05   2.712107e+06
  -1.282096e+06   4.542022e+05
  -9.157124e+05  -2.362440e+06
   8.178797e+05  -2.671236e+06
   2.114943e+06  -2.249792e+05
   1.490946e+06   2.511899e+06
  -6.707085e+05   3.093753e+06
  -2.442436e+06   1.335470e+06
  -2.334926e+06  -9.107898e+05
  -8.058920e+05  -1.802986e+06
   3.493746e+05  -1.226701e+06
   1.791215e+03  -5.787751e+05
  -1.108181e+06  -1.000006e+06
  -1.212664e+06  -2.053610e+06
   4.992338e+05  -2.315085e+06
   2.812474e+06  -1.095151e+06
   3.539187e+06   7.631363e+05
   1.785629e+06   1.806406e+06
  -9.174128e+05   1.369887e+06
  -2.039628e+06   2.811482e+03
  -6.864259e+05  -1.129047e+06
   1.483970e+06  -1.087893e+06
   2.167491e+06   1.870855e+05
   9.165908e+05   1.677544e+06
  -6.627338e+05   1.983033e+06
  -9.977763e+05   7.265062e+05
  -2.048234e+05  -7.974717e+05
   4.666069e+05  -8.964378e+05
   2.508919e+05   5.066539e+05
  -5.140645e+05   1.657119e+06
  -1.048781e+06   1.060026e+06
  -8.863177e+05  -6.557380e+05
  -8.181992e+04  -1.483608e+06
   8.119584e+05  -4.595150e+05
   9.416727e+05   1.245107e+06
  -1.474480e+05   1.747631e+06
  -1.748692e+06   5.152028e+05
  -2.330067e+06  -1.254211e+06
  -1.071513e+06  -2.013307e+06
   1.061576e+06  -1.295776e+06
   2.167062e+06   9.915822e+04
   1.362922e+06   9.933297e+05
  -3.603744e+05   8.278037e+05
  -1.288952e+06   6.877210e+03
  -7.507339e+05  -5.781255e+05
   3.835020e+05  -3.964305e+05
   7.923185e+05   2.673697e+05
   1.089947e+05   6.678596e+05
  -7.692908e+05   3.759509e+05
  -7.105734e+05  -3.118472e+05
   3.554952e+05  -6.803207e+05
   1.261971e+06  -2.576921e+05
   8.336723e+05   7.485178e+05
  -7.731441e+05   1.551891e+06
  -2.167673e+06   1.372907e+06
  -2.194702e+06   1.289628e+05
  -1.078644e+06  -1.379889e+06
   2.724029e+04  -2.120761e+06
   3.919040e+05  -1.789376e+06
   3.109376e+05  -1.037003e+06
   4.576798e+05  -6.363373e+05
   9.956887e+05  -5.665323e+05
   1.465911e+06  -1.783605e+05
   1.338580e+06   7.612188e+05
   5.180502e+05   1.535462e+06
  -5.617922e+05   1.233606e+06
  -1.190610e+06  -9.566695e+04
  -8.627306e+05  -1.335077e+06
   2.497771e+05  -1.407246e+06
   1.299762e+06  -3.317146e+05
   1.452078e+06   9.026946e+05
   6.772683e+05   1.384495e+06
  -2.405476e+05   1.061184e+06
  -5.736402e+05   5.516505e+05
  -4.329199e+05   3.799610e+05
  -5.373538e+05   4.826777e+05
  -1.223874e+06   3.859758e+05
  -1.879634e+06  -2.414838e+05
  -1.536248e+06  -1.206537e+06
  -2.516766e+04  -1.886887e+06
   1.625863e+06  -1.714666e+06
   2.106934e+06  -6.817311e+05
   1.136541e+06   5.516641e+05
  -2.555277e+05   1.124497e+06
  -7.970323e+05   7.128767e+05
  -2.220476e+05  -1.387289e+05
   6.244308e+05  -5.235244e+05
   8.096123e+05  -1.054990e+05
   2.494066e+05   5.174310e+05
  -3.681656e+05   5.120023e+05
  -3.848022e+05  -1.604582e+05
   2.146735e+05  -6.157948e+05
   8.509423e+05  -6.675596e+04
   8.553531e+05   1.165434e+06
   1.115418e+04   1.878315e+06
  -1.204157e+06   1.252970e+06
  -1.900313e+06  -2.666404e+05
  -1.496868e+06  -1.441882e+06
  -3.020143e+05  -1.479205e+06
   7.074238e+05  -6.915650e+05
   8.100101e+05  -1.577588e+03
   2.324456e+05   3.301688e+04
  -1.621815e+05  -3.531660e+05
   1.413961e+05  -5.437381e+05
   7.546181e+05  -2.308025e+05
   8.709316e+05   3.136293e+05
   2.313708e+05   5.662428e+05
  -5.230326e+05   2.934670e+05
  -5.260227e+05  -2.167689e+05
   3.305468e+05  -4.243401e+05
   1.192534e+06  -4.298381e+04
   1.095324e+06   6.748668e+05
  -7.804129e+03   1.130547e+06
  -1.156697e+06   8.977591e+05
  -1.350991e+06   1.268064e+05
  -5.385939e+05  -5.490086e+05
   4.043368e+05  -5.795253e+05
   6.042741e+05  -3.689129e+04
   5.738873e+03   4.376620e+05
  -6.987099e+05   2.935902e+05
  -8.102076e+05  -3.346125e+05
  -2.518620e+05  -7.745666e+05
   4.349752e+05  -5.690226e+05
   6.302511e+05   1.939280e+04
   2.163584e+05   3.266725e+05
  -3.037165e+05   3.849362e+04
  -2.960865e+05  -4.872337e+05
   3.298466e+05  -6.355402e+05
   9.665028e+05  -1.716710e+05
   9.145738e+05   5.560802e+05
   1.408227e+05   9.647387e+05
  -6.624116e+05   7.480762e+05
  -8.005551e+05   1.174837e+05
  -2.739704e+05  -3.939732e+05
   2.982663e+05  -4.023801e+05
   3.712295e+05  -1.622926e+04
  -6.625308e+03   2.961640e+05
  -3.416783e+05   2.174647e+05
  -2.607104e+05  -7.433978e+04
   1.112988e+05  -1.367171e+05
   3.003161e+05   1.851969e+05
  -1.433045e+04   5.368711e+05
  -6.326021e+05   4.299355e+05
  -9.781435e+05  -2.130296e+05
  -6.517645e+05  -9.392406e+05
   1.514855e+05  -1.174889e+06
   8.154826e+05  -7.372731e+05
   9.017536e+05   2.062264e+04
   5.341636e+05   5.367722e+05
   1.776006e+05   5.360113e+05
   1.052774e+05   2.442218e+05
   1.580706e+05   1.055631e+05
   1.273282e+04   2.752324e+05
  -3.900158e+05   4.403016e+05
  -7.260838e+05   2.026881e+05
  -5.890684e+05  -3.919071e+05
   8.258937e+04  -8.099682e+05
   8.571048e+05  -5.646119e+05
   1.113374e+06   2.493215e+05
   5.726449e+05   1.002889e+06
  -4.188067e+05   1.106951e+06
  -1.155359e+06   5.256908e+05
  -1.168679e+06  -2.440627e+05
  -5.931803e+05  -6.570494e+05
   3.334968e+04  -5.878988e+05
   2.962844e+05  -3.596232e+05
   2.274260e+05  -3.366199e+05
   1.576553e+05  -5.104002e+05
   3.120561e+05  -5.214350e+05
   5.672638e+05  -1.019485e+05
   5.910461e+05   5.534380e+05
   2.135158e+05   9.238138e+05
  -3.424602e+05   6.746778e+05
  -6.273994e+05  -3.950927e+03
  -3.966780e+05  -5.783629e+05
   1.283773e+05  -6.542626e+05
   4.686926e+05  -2.760797e+05
   3.677813e+05   1.932034e+05
   3.091267e+04   4.286372e+05
  -1.364251e+05   3.871659e+05
   4.588892e+03   2.543822e+05
   1.739018e+05   1.985433e+05
   3.739261e+03   1.964331e+05
  -5.065862e+05   9.729106e+04
  -9.143700e+05  -1.689676e+05
  -7.533726e+05  -4.806003e+05
  -3.937618e+04  -6.246690e+05
   6.827625e+05  -4.890420e+05
   8.479643e+05  -1.592912e+05
   4.241867e+05   1.419497e+05
  -8.970933e+04   2.161558e+05
  -2.169869e+05   5.286412e+04
   2.590330e+04  -1.337695e+05
   2.529186e+05  -9.274086e+04
   2.095899e+05   1.759778e+05
   2.193658e+04   3.723503e+05
  -4.228861e+04   2.342800e+05
   7.938583e+04  -9.915220e+04
   2.063012e+05  -2.025777e+05
   1.432853e+05   1.083439e+05
  -1.307090e+05   4.963869e+05
  -4.490122e+05   4.760041e+05
  -5.574935e+05   3.356889e+03
  -2.915191e+05  -4.563752e+05
   2.212044e+05  -4.598014e+05
   5.516692e+05  -5.651863e+04
   3.252521e+05   3.174083e+05
  -3.304291e+05   3.138536e+05
  -8.000175e+05  -3.493394e+04
  -5.764168e+05  -4.190060e+05
   1.757195e+05  -5.377444e+05
   7.591148e+05  -3.145598e+05
   6.676968e+05   5.997571e+04
   9.582702e+04   2.722179e+05
  -3.108339e+05   1.560276e+05
  -1.535123e+05  -1.232590e+05
   3.306326e+05  -1.972737e+05
   5.584041e+05   1.271811e+05
   2.206486e+05   6.144268e+05
  -4.120201e+05   7.734544e+05
  -7.792041e+05   3.346934e+05
  -5.845550e+05  -4.298215e+05
  -4.112134e+04  -8.948032e+05
   3.964434e+05  -6.551377e+05
   4.643483e+05   5.904672e+04
   2.347555e+05   5.876830e+05
  -6.539612e+04   5.093032e+05
  -2.577227e+05   5.709960e+04
  -2.670027e+05  -2.095732e+05
  -1.299509e+05  -9.120379e+04
  -6.076036e+03   6.330409e+04
  -5.340973e+04  -1.100893e+05
  -1.966707e+05  -4.672058e+05
  -1.316426e+05  -5.472648e+05
   2.846342e+05  -1.911085e+05
   7.204753e+05   2.666667e+05
   6.668421e+05   4.439493e+05
   8.119055e+04   3.333499e+05
  -4.809830e+05   1.743813e+05
  -5.068294e+05   8.362417e+04
  -1.313778e+05  -9.638469e+02
   9.762767e+04  -9.971532e+04
  -3.844019e+04  -1.337344e+05
  -1.917161e+05  -9.262727e+04
   5.288522e+03  -6.920212e+04
   3.993730e+05  -6.703808e+04
   4.998047e+05   5.646553e+04
   9.303809e+04   3.341505e+05
  -5.061814e+05   5.045261e+05
  -8.028541e+05   2.692642e+05
  -5.896214e+05  -2.869219e+05
  -6.355267e+04  -7.024902e+05
   3.972010e+05  -6.238408e+05
   5.235610e+05  -1.844427e+05
   3.190181e+05   1.702487e+05
   2.578694e+04   1.759750e+05
  -9.049267e+04  -1.073546e+04
   2.113444e+04  -5.034578e+04
   1.655095e+05   1.700105e+05
   1.206695e+05   4.014013e+05
  -1.210950e+05   3.100004e+05
  -3.375923e+05  -1.240290e+05
  -2.887696e+05  -5.262480e+05
   4.593792e+04  -4.947858e+05
   4.084055e+05  -3.471735e+04
   4.564515e+05   4.382793e+05
   9.339301e+04   5.354575e+05
  -3.765096e+05   2.600340e+05
  -5.098420e+05  -8.947645e+04
  -2.051434e+05  -2.721432e+05
   1.551617e+05  -2.650295e+05
   1.463244e+05  -1.552734e+05
  -1.730480e+05  -3.608819e+04
  -3.305739e+05  -1.195806e+04
  -4.259747e+04  -1.430256e+05
   4.235573e+05  -3.098639e+05
   5.846024e+05  -2.636414e+05
   3.119549e+05   6.626475e+04
  -7.958896e+04   3.969487e+05
  -2.481413e+05   3.770767e+05
  -1.563110e+05   2.754923e+04
   1.967753e+04  -2.554308e+05
   1.397321e+05  -1.734763e+05
   1.668775e+05   1.315265e+05
   9.598856e+04   2.903622e+05
  -5.124476e+04   1.608431e+05
  -1.851997e+05  -5.613829e+04
  -2.057743e+05  -1.179144e+05
  -1.151982e+05  -2.479800e+04
  -1.123421e+04   3.504388e+04
   4.127884e+04  -5.468074e+04
   7.483764e+04  -2.001753e+05
   1.361608e+05  -2.079814e+05
   1.890542e+05  -5.435940e+03
   1.424646e+05   2.547344e+05
  -3.260426e+04   3.237014e+05
  -2.326492e+05   1.133398e+05
  -2.788574e+05  -1.896567e+05
  -7.737483e+04  -3.056123e+05
   2.441893e+05  -1.530029e+05
   3.958924e+05   8.821270e+04
   2.046582e+05   2.006752e+05
  -1.550971e+05   1.475431e+05
  -3.031502e+05   4.413641e+04
  -8.392019e+04  -6.096567e+03
   2.217742e+05   2.027419e+04
   2.140548e+05   1.002511e+05
  -1.366372e+05   1.657692e+05
  -4.414133e+05   1.003558e+05
