
 $NMID
 id='ANONYMOUS ', fmtdat='(2E16.6)'
 volume=1.0
 tramp=1.0
 $END
  -5.393109e+07   1.028131e+06
  -3.314592e+07  -3.269443e+07
   6.336801e+06  -3.663064e+07
   2.614122e+07  -1.464880e+07
   1.598711e+07   6.311600e+06
  -2.945130e+06   9.021070e+06
  -9.476642e+06  -9.167942e+05
  -2.915399e+06  -9.314967e+06
   5.742006e+06  -9.145807e+06
   9.231876e+06  -2.147974e+06
   6.833986e+06   5.830416e+06
   9.335358e+05   8.263105e+06
  -3.789585e+06   2.693580e+06
  -2.628575e+06  -5.221112e+06
   3.496041e+06  -6.402812e+06
   7.590853e+06   1.110912e+06
   4.471004e+06   9.709318e+06
  -3.395434e+06   1.139691e+07
  -9.575862e+06   5.850000e+06
  -1.038574e+07  -1.777372e+06
  -6.457462e+06  -7.043218e+06
  -8.173917e+05  -8.235478e+06
   2.634140e+06  -5.830209e+06
   1.659843e+06  -2.654933e+06
  -1.129191e+06  -2.129193e+06
  -2.851435e+05  -4.054132e+06
   5.166904e+06  -4.306236e+06
   9.304277e+06  -6.098888e+05
   6.833242e+06   3.862458e+06
   2.926332e+05   4.848234e+06
  -3.565413e+06   2.499161e+06
  -2.366684e+06   7.210970e+03
   6.372984e+05  -9.413534e+05
   2.253710e+06  -4.842099e+05
   2.139477e+06   1.400115e+06
   6.910643e+05   3.799351e+06
  -1.678319e+06   3.715640e+06
  -3.065658e+06  -6.822328e+04
  -1.668796e+06  -3.445026e+06
   6.988550e+05  -1.812080e+06
   3.360825e+05   2.398020e+06
  -2.343391e+06   2.279078e+06
  -2.426031e+06  -3.014286e+06
   2.175426e+06  -5.937583e+06
   6.602300e+06  -1.128563e+06
   5.032291e+06   6.518491e+06
  -1.649246e+06   8.202395e+06
  -7.072967e+06   2.458518e+06
  -6.785177e+06  -4.152728e+06
  -1.912177e+06  -5.789533e+06
   3.304628e+06  -2.699909e+06
   5.128366e+06   1.362629e+06
   2.432981e+06   3.320504e+06
  -2.269747e+06   2.173716e+06
  -4.375650e+06  -7.903583e+05
  -1.938855e+06  -2.573678e+06
   1.621725e+06  -1.351914e+06
   1.710007e+06   9.592137e+05
  -1.233419e+06   9.385433e+05
  -2.431758e+06  -1.591851e+06
   4.677949e+05  -3.295306e+06
   4.361138e+06  -1.937657e+06
   5.118264e+06   1.164381e+06
   2.318097e+06   3.761271e+06
  -1.651052e+06   5.097068e+06
  -4.768571e+06   4.742906e+06
  -5.945370e+06   1.770753e+06
  -4.449239e+06  -2.975842e+06
  -1.003243e+06  -5.938503e+06
   1.700925e+06  -4.652523e+06
   1.673934e+06  -1.250418e+06
   1.963179e+05   2.052008e+05
   1.446663e+04  -9.466153e+05
   1.564439e+06  -1.724551e+06
   2.729194e+06  -2.321373e+05
   1.979316e+06   1.879686e+06
   2.624923e+04   2.100358e+06
  -1.538180e+06   2.110652e+05
  -1.674281e+06  -2.020778e+06
  -3.805094e+04  -2.864052e+06
   2.665743e+06  -1.635940e+06
   4.339194e+06   1.096772e+06
   3.161359e+06   3.578241e+06
   3.452946e+04   4.066709e+06
  -2.136198e+06   2.653416e+06
  -2.121981e+06   1.146196e+06
  -1.762831e+06   7.099776e+05
  -2.860681e+06   5.263670e+05
  -4.255135e+06  -6.669243e+05
  -3.447212e+06  -2.644152e+06
  -1.899177e+05  -4.032551e+06
   3.081707e+06  -3.858596e+06
   4.054639e+06  -2.122815e+06
   2.596698e+06   3.863407e+05
   2.853678e+05   2.182339e+06
  -1.058270e+06   1.898043e+06
  -5.493051e+05  -3.160499e+04
   1.050229e+06  -1.294493e+06
   1.858381e+06  -4.175399e+05
   9.145713e+05   1.162521e+06
  -4.963510e+05   1.098113e+06
  -4.345398e+05  -3.779690e+05
   1.027723e+06  -7.166334e+05
   1.848905e+06   1.205343e+06
   7.142399e+05   3.395299e+06
  -1.483449e+06   3.388077e+06
  -3.061437e+06   1.168420e+06
  -3.281409e+06  -1.358128e+06
  -2.280849e+06  -2.685337e+06
  -4.798852e+05  -2.562494e+06
   1.200330e+06  -1.451483e+06
   1.545359e+06  -2.415120e+05
   4.843178e+05   3.861589e+04
  -3.621716e+05  -7.340224e+05
   3.853134e+05  -1.322529e+06
   1.862847e+06  -5.962464e+05
   2.011015e+06   8.417602e+05
   4.000967e+05   1.387085e+06
  -1.145226e+06   5.780984e+05
  -8.817913e+05  -4.387461e+05
   8.306223e+05  -5.260713e+05
   2.153166e+06   2.879202e+05
   1.733716e+06   1.317132e+06
  -2.225007e+05   1.944428e+06
  -2.251006e+06   1.654911e+06
  -2.723717e+06   3.032194e+05
  -1.213732e+06  -1.227989e+06
   8.819265e+05  -1.488846e+06
   1.530190e+06  -2.089581e+05
   2.127996e+05   1.058487e+06
  -1.481888e+06   7.446960e+05
  -1.701401e+06  -7.480551e+05
  -3.519062e+05  -1.624131e+06
   1.065714e+06  -9.756214e+05
   1.243857e+06   2.938573e+05
   2.512990e+05   7.692518e+05
  -7.846029e+05   6.544258e+04
  -7.395559e+05  -1.026849e+06
   5.472599e+05  -1.408971e+06
   1.967854e+06  -5.607615e+05
   2.016993e+06   1.006309e+06
   4.046767e+05   2.037478e+06
  -1.397537e+06   1.636037e+06
  -1.698008e+06   2.275419e+05
  -5.045484e+05  -8.509031e+05
   6.400341e+05  -7.990294e+05
   6.216411e+05  -8.168353e+04
  -1.156282e+05   3.558654e+05
  -4.821264e+05   2.074634e+05
  -1.177364e+05  -6.638931e+04
   4.467945e+05   7.075815e+04
   5.191883e+05   6.582582e+05
  -1.901213e+05   1.172718e+06
  -1.350344e+06   8.981716e+05
  -2.054010e+06  -3.818407e+05
  -1.466561e+06  -1.894024e+06
   1.830936e+05  -2.384215e+06
   1.572932e+06  -1.407485e+06
   1.663157e+06   1.066779e+05
   8.498339e+05   8.724193e+05
   3.148012e+05   6.340825e+05
   4.714137e+05   2.049738e+05
   6.241408e+05   2.984238e+05
   1.010874e+05   7.517625e+05
  -8.521709e+05   8.970497e+05
  -1.421057e+06   3.348362e+05
  -1.038067e+06  -6.988093e+05
   2.319687e+05  -1.437118e+06
   1.681623e+06  -1.073796e+06
   2.216426e+06   4.491322e+05
   1.140011e+06   2.053748e+06
  -9.664926e+05   2.342155e+06
  -2.491991e+06   1.045698e+06
  -2.321651e+06  -6.237321e+05
  -9.526986e+05  -1.308511e+06
   1.960398e+05  -9.309365e+05
   3.764651e+05  -5.015322e+05
   6.248546e+04  -7.388889e+05
   8.049759e+04  -1.288129e+06
   6.421386e+05  -1.278933e+06
   1.269500e+06  -3.321207e+05
   1.330673e+06   1.044297e+06
   5.730026e+05   1.855904e+06
  -5.923230e+05   1.421737e+06
  -1.264818e+06   1.348625e+04
  -8.155288e+05  -1.254378e+06
   3.688619e+05  -1.380224e+06
   1.143624e+06  -4.123732e+05
   8.101191e+05   6.803702e+05
  -1.092449e+05   1.064476e+06
  -5.226358e+05   7.782079e+05
  -8.136153e+04   4.094648e+05
   4.311180e+05   3.227698e+05
   6.451413e+04   3.753647e+05
  -1.129257e+06   2.218952e+05
  -2.036926e+06  -2.994418e+05
  -1.605516e+06  -1.000355e+06
   2.049890e+04  -1.416367e+06
   1.551908e+06  -1.146323e+06
   1.800955e+06  -2.952650e+05
   8.274690e+05   4.807918e+05
  -2.501991e+05   5.664707e+05
  -5.051572e+05   3.841029e+04
  -3.898403e+04  -4.164297e+05
   4.297095e+05  -2.608812e+05
   4.794236e+05   3.291153e+05
   2.644459e+05   7.044804e+05
   1.062384e+05   4.681567e+05
   1.342861e+05  -9.123632e+04
   2.678639e+05  -2.856810e+05
   2.732378e+05   2.255703e+05
  -1.226231e+05   9.695937e+05
  -8.691590e+05   1.063086e+06
  -1.343444e+06   1.985772e+05
  -8.593985e+05  -8.848590e+05
   3.898313e+05  -1.133395e+06
   1.235432e+06  -3.587421e+05
   7.312810e+05   5.501424e+05
  -6.838915e+05   6.469358e+05
  -1.561673e+06  -7.736066e+04
  -9.915145e+05  -8.398705e+05
   4.720416e+05  -9.747480e+05
   1.468228e+06  -4.793124e+05
   1.209354e+06   1.788715e+05
   1.341422e+05   5.028849e+05
  -6.374532e+05   2.697873e+05
  -3.862835e+05  -2.863892e+05
   5.620903e+05  -5.278933e+05
   1.166234e+06   5.182516e+04
   6.907642e+05   1.145977e+06
  -5.381606e+05   1.690074e+06
  -1.438676e+06   9.058185e+05
  -1.250236e+06  -7.192697e+05
  -2.315957e+05  -1.757712e+06
   7.082302e+05  -1.279707e+06
   9.123845e+05   1.677290e+05
   4.346069e+05   1.168907e+06
  -2.137502e+05   9.519351e+05
  -5.564011e+05   8.682293e+04
  -4.554108e+05  -3.628859e+05
  -1.523013e+05  -1.302677e+05
  -5.079756e+04   9.169785e+04
  -2.967554e+05  -2.921866e+05
  -5.242636e+05  -9.457071e+05
  -1.920302e+05  -1.057437e+06
   7.129943e+05  -3.995774e+05
   1.457772e+06   4.326103e+05
   1.261128e+06   8.033641e+05
   1.926269e+05   6.877677e+05
  -8.202802e+05   4.285620e+05
  -9.615916e+05   1.915248e+05
  -3.676981e+05  -5.284233e+04
   1.339650e+05  -2.259923e+05
   4.783976e+04  -1.958002e+05
  -2.448422e+05  -7.969904e+04
  -5.940096e+04  -1.286546e+05
   6.275790e+05  -2.517816e+05
   1.033889e+06  -1.639190e+04
   4.685986e+05   6.746493e+05
  -7.857998e+05   1.189424e+06
  -1.671198e+06   7.973971e+05
  -1.423993e+06  -3.817638e+05
  -3.100511e+05  -1.376331e+06
   7.305721e+05  -1.380178e+06
   1.022413e+06  -5.679816e+05
   6.480219e+05   2.030050e+05
   1.489257e+05   3.502249e+05
  -4.960746e+04   7.829143e+04
   8.700430e+04  -4.799283e+03
   2.952420e+05   3.626408e+05
   2.536697e+05   7.920080e+05
  -1.563173e+05   6.783848e+05
  -6.697521e+05  -8.841595e+04
  -7.643742e+05  -9.049675e+05
  -1.642210e+05  -1.015539e+06
   7.219017e+05  -2.841677e+05
   1.045179e+06   6.637120e+05
   3.861800e+05   1.066028e+06
  -6.814213e+05   7.028439e+05
  -1.115748e+06  -3.790505e+04
  -5.533461e+05  -6.049901e+05
   2.662353e+05  -6.965764e+05
   3.828968e+05  -3.782271e+05
  -2.234061e+05   4.318928e+03
  -6.339604e+05   5.857532e+04
  -1.598669e+05  -3.036749e+05
   7.970419e+05  -6.875422e+05
   1.246827e+06  -5.497543e+05
   7.779127e+05   1.710169e+05
  -7.032963e+04   8.681370e+05
  -5.405416e+05   8.681319e+05
  -4.360160e+05   1.871657e+05
  -7.663210e+04  -4.617603e+05
   2.196614e+05  -4.473030e+05
   3.490777e+05   1.163694e+05
   2.692759e+05   5.616467e+05
  -3.424156e+04   4.405136e+05
  -3.873117e+05  -2.463046e+04
  -4.842852e+05  -2.773378e+05
  -2.425691e+05  -1.009076e+05
   4.872282e+04   1.621957e+05
   8.465288e+04   7.270151e+04
  -4.870252e+04  -3.341152e+05
  -6.721072e+03  -5.641746e+05
   2.939642e+05  -2.607291e+05
   4.884875e+05   3.356611e+05
   2.090697e+05   6.294774e+05
  -3.827433e+05   3.316589e+05
  -6.765810e+05  -2.421000e+05
  -2.772385e+05  -5.494793e+05
   4.962177e+05  -3.785611e+05
   8.848713e+05   3.890857e+04
   4.897918e+05   3.578504e+05
  -2.774081e+05   4.192645e+05
  -6.286010e+05   2.634184e+05
  -2.630987e+05   2.961305e+04
   3.151967e+05  -9.379499e+04
   3.935842e+05   2.721279e+04
  -1.385365e+05   2.769539e+05
  -6.932754e+05   2.892424e+05
