
 $NMID
 id='ANONYMOUS ', fmtdat='(2E16.6)'
 volume=1.0
 tramp=1.0
 $END
   5.118491e+07   1.635211e+06
   2.979089e+07   3.204797e+07
  -7.463183e+06   3.407540e+07
  -2.504785e+07   1.300644e+07
  -1.478117e+07  -6.137912e+06
   2.955270e+06  -8.313320e+06
   8.828889e+06   9.406875e+05
   2.603867e+06   8.751353e+06
  -5.502678e+06   8.614275e+06
  -8.752082e+06   1.885551e+06
  -6.351707e+06  -5.847213e+06
  -6.108127e+05  -8.042822e+06
   3.808503e+06  -2.406257e+06
   2.471166e+06   5.253636e+06
  -3.441778e+06   6.155806e+06
  -7.155810e+06  -1.239466e+06
  -3.940793e+06  -9.391029e+06
   3.632151e+06  -1.073167e+07
   9.377976e+06  -5.153782e+06
   9.815019e+06   2.245277e+06
   5.695833e+06   7.077150e+06
   2.220199e+05   7.769566e+06
  -2.722350e+06   5.177480e+06
  -1.335763e+06   2.335309e+06
   1.367037e+06   2.265242e+06
   1.517758e+05   4.204614e+06
  -5.398679e+06   4.078281e+06
  -9.236415e+06   1.646294e+05
  -6.462570e+06  -4.113981e+06
   1.003820e+05  -4.778484e+06
   3.803120e+06  -2.248678e+06
   2.412063e+06   3.072555e+05
  -8.062613e+05   1.208892e+06
  -2.528833e+06   5.077861e+05
  -2.224659e+06  -1.641732e+06
  -4.638690e+05  -3.959460e+06
   1.891976e+06  -3.499457e+06
   2.898858e+06   4.187677e+05
   1.271474e+06   3.463626e+06
  -8.757851e+05   1.509460e+06
  -2.328056e+05  -2.585309e+06
   2.355748e+06  -2.229915e+06
   2.228740e+06   2.911098e+06
  -2.186583e+06   5.478402e+06
  -6.133660e+06   7.314283e+05
  -4.404544e+06  -6.369411e+06
   1.892245e+06  -7.638804e+06
   6.838127e+06  -2.023842e+06
   6.438740e+06   4.194191e+06
   1.772429e+06   5.626259e+06
  -3.223300e+06   2.588122e+06
  -4.971165e+06  -1.345947e+06
  -2.353130e+06  -3.195556e+06
   2.167993e+06  -2.005539e+06
   4.142341e+06   8.645251e+05
   1.785225e+06   2.479226e+06
  -1.584888e+06   1.227747e+06
  -1.664696e+06  -9.413118e+05
   1.071129e+06  -8.764816e+05
   2.181835e+06   1.435879e+06
  -4.769578e+05   2.905225e+06
  -4.053967e+06   1.609984e+06
  -4.748335e+06  -1.208783e+06
  -2.078028e+06  -3.602558e+06
   1.819261e+06  -4.883869e+06
   4.907429e+06  -4.477842e+06
   5.913220e+06  -1.465567e+06
   4.184019e+06   3.147876e+06
   7.344739e+05   5.855248e+06
  -1.722806e+06   4.479741e+06
  -1.530378e+06   1.255871e+06
  -1.756497e+05  -1.052585e+04
  -2.141718e+05   1.092099e+06
  -1.810024e+06   1.659171e+06
  -2.841959e+06   2.405305e+04
  -1.944226e+06  -2.082671e+06
   8.705040e+04  -2.213981e+06
   1.653433e+06  -2.090971e+05
   1.704083e+06   2.102989e+06
  -4.670418e+04   2.898677e+06
  -2.741126e+06   1.510815e+06
  -4.236760e+06  -1.303082e+06
  -2.899555e+06  -3.648073e+06
   1.792755e+05  -3.911139e+06
   2.163943e+06  -2.419236e+06
   2.034935e+06  -1.010156e+06
   1.687873e+06  -6.770567e+05
   2.814656e+06  -4.983542e+05
   4.196028e+06   7.226068e+05
   3.376520e+06   2.683554e+06
   1.206442e+05   4.025382e+06
  -3.170255e+06   3.803924e+06
  -4.147800e+06   2.021157e+06
  -2.610456e+06  -5.049852e+05
  -1.882853e+05  -2.246257e+06
   1.162217e+06  -1.877783e+06
   5.543290e+05   6.787202e+04
  -1.100254e+06   1.273878e+06
  -1.854040e+06   3.646108e+05
  -8.548920e+05  -1.186236e+06
   5.359032e+05  -1.102728e+06
   4.611739e+05   3.555964e+05
  -9.434005e+05   7.217675e+05
  -1.740917e+06  -1.099718e+06
  -7.166392e+05  -3.238380e+06
   1.342863e+06  -3.323038e+06
   2.928392e+06  -1.235871e+06
   3.276372e+06   1.275982e+06
   2.345131e+06   2.688050e+06
   4.938147e+05   2.604978e+06
  -1.243092e+06   1.449858e+06
  -1.573612e+06   2.080221e+05
  -4.848507e+05  -4.715383e+04
   3.499561e+05   7.383954e+05
  -4.033716e+05   1.290656e+06
  -1.844539e+06   5.431904e+05
  -1.965446e+06  -8.576776e+05
  -3.776675e+05  -1.362957e+06
   1.141819e+06  -5.620062e+05
   8.952440e+05   4.368941e+05
  -8.005408e+05   5.404038e+05
  -2.154803e+06  -2.575917e+05
  -1.772657e+06  -1.311431e+06
   2.010635e+05  -1.965244e+06
   2.269144e+06  -1.654638e+06
   2.733113e+06  -2.713350e+05
   1.182419e+06   1.237224e+06
  -9.110987e+05   1.445076e+06
  -1.510815e+06   1.608633e+05
  -1.709546e+05  -1.056292e+06
   1.493153e+06  -7.102819e+05
   1.684118e+06   7.629409e+05
   3.476815e+05   1.613155e+06
  -1.046640e+06   9.711104e+05
  -1.228446e+06  -2.793054e+05
  -2.551218e+05  -7.492191e+05
   7.678279e+05  -4.702529e+04
   7.120582e+05   1.040574e+06
  -5.829457e+05   1.399449e+06
  -1.987881e+06   5.180508e+05
  -1.998976e+06  -1.050834e+06
  -3.664312e+05  -2.042381e+06
   1.417514e+06  -1.607124e+06
   1.693156e+06  -2.066608e+05
   4.978277e+05   8.476813e+05
  -6.438364e+05   7.918246e+05
  -6.383879e+05   7.859150e+04
   9.451875e+04  -3.723674e+05
   4.912152e+05  -2.383065e+05
   1.630015e+05   5.081880e+04
  -4.031650e+05  -5.475558e+04
  -5.041647e+05  -6.309225e+05
   1.921226e+05  -1.153539e+06
   1.356174e+06  -8.776931e+05
   2.047728e+06   4.135470e+05
   1.433774e+06   1.921262e+06
  -2.208041e+05   2.391694e+06
  -1.591301e+06   1.405817e+06
  -1.675740e+06  -1.072265e+05
  -8.784818e+05  -8.887326e+05
  -3.417227e+05  -6.801589e+05
  -4.623745e+05  -2.553972e+05
  -5.860503e+05  -3.162586e+05
  -7.354244e+04  -7.393669e+05
   8.568786e+05  -8.848791e+05
   1.426731e+06  -3.307846e+05
   1.053505e+06   7.106210e+05
  -2.282776e+05   1.452652e+06
  -1.695955e+06   1.067436e+06
  -2.221192e+06  -4.762352e+05
  -1.119749e+06  -2.064086e+06
   9.866504e+05  -2.316379e+06
   2.488693e+06  -1.012588e+06
   2.313298e+06   6.327915e+05
   9.659289e+05   1.305977e+06
  -1.767691e+05   9.473734e+05
  -3.900294e+05   5.347423e+05
  -1.135423e+05   7.583333e+05
  -1.338390e+05   1.278132e+06
  -6.690828e+05   1.250454e+06
  -1.269951e+06   2.989469e+05
  -1.312327e+06  -1.075203e+06
  -5.409117e+05  -1.873799e+06
   6.212807e+05  -1.417497e+06
   1.267806e+06   1.630560e+03
   7.964418e+05   1.256506e+06
  -3.763590e+05   1.365078e+06
  -1.120268e+06   4.028991e+05
  -7.788211e+05  -6.649475e+05
   1.159613e+05  -1.033834e+06
   5.064764e+05  -7.582388e+05
   6.994592e+04  -4.136286e+05
  -4.254856e+05  -3.405715e+05
  -5.644691e+04  -3.824172e+05
   1.124098e+06  -2.012290e+05
   2.020095e+06   3.372825e+05
   1.586702e+06   1.020591e+06
  -3.527106e+04   1.395884e+06
  -1.558460e+06   1.104630e+06
  -1.795419e+06   2.739875e+05
  -8.138413e+05  -4.686645e+05
   2.577902e+05  -5.472475e+05
   4.951838e+05  -3.576765e+04
   1.643996e+04   4.088030e+05
  -4.456542e+05   2.548879e+05
  -4.728525e+05  -3.405681e+05
  -2.388092e+05  -7.269090e+05
  -8.287955e+04  -4.825433e+05
  -1.311119e+05   1.025404e+05
  -2.782092e+05   3.049090e+05
  -2.724718e+05  -2.273322e+05
   1.449293e+05  -9.820583e+05
   8.917379e+05  -1.047574e+06
   1.337901e+06  -1.516936e+05
   8.266996e+05   9.158998e+05
  -4.208551e+05   1.114012e+06
  -1.244279e+06   3.143684e+05
  -7.249644e+05  -5.721122e+05
   6.905299e+05  -6.383576e+05
   1.567695e+06   8.933179e+04
   1.001645e+06   8.406944e+05
  -4.638820e+05   9.746815e+05
  -1.471388e+06   4.843989e+05
  -1.219038e+06  -1.769642e+05
  -1.379917e+05  -5.056917e+05
   6.370420e+05  -2.673151e+05
   3.736725e+05   2.918817e+05
  -5.870224e+05   5.165102e+05
  -1.176298e+06  -8.682091e+04
  -6.614424e+05  -1.179545e+06
   5.935464e+05  -1.692608e+06
   1.477773e+06  -8.779507e+05
   1.246949e+06   7.521498e+05
   2.022526e+05   1.776574e+06
  -7.286210e+05   1.284144e+06
  -9.111305e+05  -1.709308e+05
  -4.280509e+05  -1.174016e+06
   2.109155e+05  -9.531114e+05
   5.525804e+05  -8.157757e+04
   4.642991e+05   3.686622e+05
   1.654223e+05   1.302556e+05
   4.561220e+04  -9.237618e+04
   2.708342e+05   3.008100e+05
   5.023340e+05   9.600976e+05
   1.917215e+05   1.060528e+06
  -7.050857e+05   3.824200e+05
  -1.461492e+06  -4.587801e+05
  -1.268761e+06  -8.210228e+05
  -1.819803e+05  -6.910006e+05
   8.455338e+05  -4.227788e+05
   9.722809e+05  -1.835555e+05
   3.541925e+05   5.824818e+04
  -1.442261e+05   2.264902e+05
  -3.265539e+04   1.948609e+05
   2.652709e+05   8.389055e+04
   5.181931e+04   1.350692e+05
  -6.561556e+05   2.455252e+05
  -1.041169e+06  -8.819812e+03
  -4.343547e+05  -6.983273e+05
   8.333324e+05  -1.180961e+06
   1.692697e+06  -7.527385e+05
   1.411325e+06   4.314702e+05
   2.809347e+05   1.397016e+06
  -7.605551e+05   1.366919e+06
  -1.045550e+06   5.409004e+05
  -6.553239e+05  -2.242056e+05
  -1.361376e+05  -3.589274e+05
   7.011500e+04  -7.650148e+04
  -7.655328e+04   1.064621e+04
  -2.944230e+05  -3.617180e+05
  -2.459055e+05  -7.979928e+05
   1.756277e+05  -6.779430e+05
   6.811394e+05   1.107616e+05
   7.480348e+05   9.411282e+05
   1.274390e+05   1.033248e+06
  -7.495688e+05   2.624681e+05
  -1.041543e+06  -7.050823e+05
  -3.570559e+05  -1.085464e+06
   7.087205e+05  -6.841111e+05
   1.117310e+06   6.918078e+04
   5.303599e+05   6.149085e+05
  -2.888516e+05   6.816642e+05
  -3.827741e+05   3.626010e+05
   2.411893e+05  -2.541751e+03
   6.439831e+05  -4.606155e+04
   1.486652e+05   3.089789e+05
  -8.147872e+05   6.777320e+05
  -1.248469e+06   5.315239e+05
  -7.600016e+05  -1.850653e+05
   9.257811e+04  -8.676214e+05
   5.530772e+05  -8.504589e+05
   4.350241e+05  -1.621239e+05
   6.393121e+04   4.759339e+05
  -2.369749e+05   4.399938e+05
  -3.567068e+05  -1.356503e+05
  -2.579140e+05  -5.723793e+05
   5.312863e+04  -4.336753e+05
   3.918812e+05   3.828933e+04
   4.726398e+05   2.831832e+05
   2.375617e+05   9.912664e+04
  -3.413652e+04  -1.584292e+05
  -7.208250e+04  -5.561842e+04
   3.004765e+04   3.547909e+05
  -3.623660e+04   5.687485e+05
  -3.217459e+05   2.389451e+05
  -4.772246e+05  -3.716868e+05
  -1.771736e+05  -6.524527e+05
   4.018482e+05  -3.235288e+05
   6.727121e+05   2.706218e+05
   2.642567e+05   5.674766e+05
  -5.048866e+05   3.667844e+05
  -8.859929e+05  -6.737802e+04
  -4.821286e+05  -3.729276e+05
   2.933894e+05  -4.071657e+05
   6.416034e+05  -2.389387e+05
   2.571423e+05  -1.679223e+04
  -3.382814e+05   8.583876e+04
  -4.088290e+05  -4.613183e+04
   1.514146e+05  -2.903722e+05
   7.222026e+05  -2.865968e+05
