
 $NMID
 id='ANONYMOUS ', fmtdat='(2E16.6)'
 volume=1.0
 tramp=1.0
 $END
  -5.083478e+07  -1.457415e+06
  -2.943707e+07  -3.264601e+07
   8.018461e+06  -3.423056e+07
   2.531279e+07  -1.212404e+07
   1.444325e+07   7.076941e+06
  -3.392692e+06   8.262536e+06
  -8.710702e+06  -1.577956e+06
  -2.025224e+06  -8.853297e+06
   5.903623e+06  -7.992237e+06
   8.672033e+06  -1.373454e+06
   6.083575e+06   5.710309e+06
   5.398549e+05   7.657353e+06
  -3.619793e+06   2.406672e+06
  -2.218704e+06  -4.783570e+06
   3.528692e+06  -5.609239e+06
   6.980550e+06   1.488074e+06
   3.651353e+06   9.261379e+06
  -3.744808e+06   1.044434e+07
  -9.238028e+06   5.043991e+06
  -9.709618e+06  -2.080018e+06
  -5.869573e+06  -6.930887e+06
  -4.414721e+05  -7.938528e+06
   2.917120e+06  -5.473359e+06
   1.968081e+06  -2.263730e+06
  -8.433622e+05  -1.696005e+06
  -2.530162e+05  -3.574083e+06
   4.732235e+06  -3.856003e+06
   8.537522e+06  -3.752263e+05
   6.240384e+06   3.764124e+06
   2.543893e+05   4.570165e+06
  -3.254339e+06   2.355529e+06
  -2.253366e+06   1.274797e+05
   3.331607e+05  -7.472361e+05
   1.827871e+06  -4.874002e+05
   1.926103e+06   1.131555e+06
   6.828148e+05   3.427863e+06
  -1.644792e+06   3.467509e+06
  -3.019026e+06  -8.297714e+04
  -1.577417e+06  -3.340429e+06
   7.721906e+05  -1.857094e+06
   3.726704e+05   2.078525e+06
  -2.184484e+06   1.945790e+06
  -2.067980e+06  -2.940807e+06
   2.439068e+06  -5.420168e+06
   6.386721e+06  -6.662025e+05
   4.442381e+06   6.426464e+06
  -1.998514e+06   7.639468e+06
  -6.740428e+06   1.982809e+06
  -6.033890e+06  -4.130666e+06
  -1.424363e+06  -5.364081e+06
   3.141127e+06  -2.258916e+06
   4.545672e+06   1.520462e+06
   1.979379e+06   3.153450e+06
  -2.251376e+06   1.863363e+06
  -4.008516e+06  -9.748260e+05
  -1.639498e+06  -2.500095e+06
   1.580823e+06  -1.177628e+06
   1.484906e+06   9.540114e+05
  -1.257544e+06   7.143644e+05
  -2.129687e+06  -1.748245e+06
   7.809892e+05  -3.120514e+06
   4.306566e+06  -1.530450e+06
   4.709541e+06   1.442368e+06
   1.929856e+06   3.654635e+06
  -1.703139e+06   4.652252e+06
  -4.485173e+06   4.220579e+06
  -5.521487e+06   1.470578e+06
  -4.059240e+06  -2.871409e+06
  -7.436148e+05  -5.491991e+06
   1.788285e+06  -4.147579e+06
   1.613234e+06  -9.419608e+05
   6.126867e+04   3.188950e+05
  -1.548366e+05  -8.662776e+05
   1.342233e+06  -1.641724e+06
   2.472983e+06  -2.841733e+05
   1.811837e+06   1.638136e+06
   7.511255e+04   1.854122e+06
  -1.295695e+06   1.961430e+05
  -1.424840e+06  -1.781417e+06
   1.287527e+04  -2.557100e+06
   2.449192e+06  -1.451991e+06
   3.966171e+06   1.088642e+06
   2.834687e+06   3.406846e+06
  -1.097923e+05   3.810493e+06
  -2.123481e+06   2.404709e+06
  -2.055433e+06   9.470318e+05
  -1.648630e+06   5.236912e+05
  -2.586539e+06   3.306076e+05
  -3.789324e+06  -7.711999e+05
  -2.991626e+06  -2.495509e+06
  -3.442558e+04  -3.607138e+06
   2.858264e+06  -3.355859e+06
   3.668886e+06  -1.817826e+06
   2.337244e+06   3.689948e+05
   2.581238e+05   1.956149e+06
  -9.621006e+05   1.705991e+06
  -5.029878e+05  -2.393086e+04
   9.606741e+05  -1.139937e+06
   1.689452e+06  -3.212169e+05
   8.089264e+05   1.084233e+06
  -4.546057e+05   9.703782e+05
  -3.371385e+05  -3.452149e+05
   9.801752e+05  -5.323117e+05
   1.574897e+06   1.268055e+06
   3.877580e+05   3.112540e+06
  -1.572469e+06   2.874792e+06
  -2.783711e+06   7.783214e+05
  -2.786977e+06  -1.387551e+06
  -1.860688e+06  -2.421396e+06
  -3.328383e+05  -2.244060e+06
   1.094901e+06  -1.255699e+06
   1.376482e+06  -1.855319e+05
   4.306901e+05   4.902892e+04
  -2.984429e+05  -6.658682e+05
   4.026414e+05  -1.178335e+06
   1.708517e+06  -4.682772e+05
   1.773565e+06   8.424082e+05
   2.950425e+05   1.265508e+06
  -1.042311e+06   4.695188e+05
  -7.481023e+05  -4.137364e+05
   7.617480e+05  -3.990012e+05
   1.862983e+06   3.620145e+05
   1.444084e+06   1.211907e+06
  -2.774907e+05   1.677057e+06
  -2.041472e+06   1.374536e+06
  -2.426666e+06   1.780528e+05
  -1.043233e+06  -1.146346e+06
   8.481181e+05  -1.319420e+06
   1.398246e+06  -1.378614e+05
   1.678503e+05   9.678464e+05
  -1.350146e+06   6.218268e+05
  -1.487028e+06  -7.310990e+05
  -2.389138e+05  -1.454254e+06
   9.924537e+05  -8.066127e+05
   1.083389e+06   3.272899e+05
   1.760151e+05   6.960416e+05
  -7.127165e+05   2.505879e+04
  -6.312872e+05  -9.429705e+05
   5.261430e+05  -1.243785e+06
   1.770555e+06  -4.477878e+05
   1.771958e+06   9.559461e+05
   2.967616e+05   1.832359e+06
  -1.305590e+06   1.412561e+06
  -1.521896e+06   1.396713e+05
  -4.125150e+05  -7.761381e+05
   5.978653e+05  -6.842342e+05
   5.425309e+05  -5.983578e+04
  -1.181714e+05   2.838205e+05
  -4.072686e+05   1.489826e+05
  -6.314690e+04  -4.380644e+04
   4.066039e+05   1.193749e+05
   4.204392e+05   6.283105e+05
  -2.289133e+05   1.037276e+06
  -1.236997e+06   7.489617e+05
  -1.816101e+06  -4.086873e+05
  -1.247813e+06  -1.734592e+06
   2.347920e+05  -2.111887e+06
   1.435008e+06  -1.186733e+06
   1.454127e+06   1.555471e+05
   7.062988e+05   7.774827e+05
   2.642804e+05   5.290528e+05
   4.433461e+05   1.774262e+05
   5.698790e+05   3.033056e+05
   6.440449e+04   6.914259e+05
  -7.946779e+05   7.637679e+05
  -1.265544e+06   2.392411e+05
  -8.824424e+05  -6.442427e+05
   2.586126e+05  -1.244603e+06
   1.522525e+06  -8.864316e+05
   1.947060e+06   4.708039e+05
   9.355962e+05   1.863053e+06
  -9.538787e+05   2.049195e+06
  -2.261042e+06   8.334695e+05
  -2.029232e+06  -6.463804e+05
  -7.753492e+05  -1.185348e+06
   2.123152e+05  -7.900638e+05
   3.239706e+05  -4.152990e+05
   4.441071e+04  -6.691537e+05
   1.004184e+05  -1.170726e+06
   6.215397e+05  -1.133078e+06
   1.152625e+06  -2.587496e+05
   1.158208e+06   9.691972e+05
   4.567225e+05   1.668307e+06
  -5.669716e+05   1.248015e+06
  -1.121977e+06  -3.025829e+04
  -6.778267e+05  -1.149397e+06
   3.878361e+05  -1.213384e+06
   1.043531e+06  -3.058857e+05
   6.928016e+05   6.617472e+05
  -1.564730e+05   9.544393e+05
  -5.145389e+05   6.643044e+05
  -9.237947e+04   3.476762e+05
   3.805920e+05   2.963351e+05
   4.971272e+04   3.347184e+05
  -1.020138e+06   1.560928e+05
  -1.814677e+06  -3.389563e+05
  -1.395194e+06  -9.486855e+05
   8.198292e+04  -1.266849e+06
   1.437175e+06  -9.720207e+05
   1.614860e+06  -1.934992e+05
   7.085350e+05   4.732070e+05
  -2.521358e+05   5.040349e+05
  -4.538592e+05   7.652626e+03
  -2.437089e+04  -3.875407e+05
   3.848550e+05  -2.255920e+05
   4.197861e+05   3.079951e+05
   2.320637e+05   6.357419e+05
   9.633255e+04   4.237513e+05
   1.169600e+05  -6.618446e+04
   2.296915e+05  -2.356128e+05
   2.319044e+05   2.101525e+05
  -1.290289e+05   8.557912e+05
  -8.073568e+05   9.220450e+05
  -1.224011e+06   1.406362e+05
  -7.575066e+05  -8.188247e+05
   3.859381e+05  -1.012236e+06
   1.126557e+06  -2.944803e+05
   6.386591e+05   5.070286e+05
  -6.312951e+05   5.502949e+05
  -1.376652e+06  -1.230101e+05
  -8.329110e+05  -7.744486e+05
   4.613754e+05  -8.336211e+05
   1.308174e+06  -3.597676e+05
   1.050796e+06   2.030588e+05
   9.675399e+04   4.443935e+05
  -5.741919e+05   2.121141e+05
  -3.385951e+05  -2.730608e+05
   5.102480e+05  -4.634557e+05
   1.041391e+06   6.837560e+04
   5.982236e+05   1.038015e+06
  -5.120453e+05   1.500027e+06
  -1.301063e+06   7.783111e+05
  -1.094090e+06  -6.695486e+05
  -1.589585e+05  -1.566126e+06
   6.630515e+05  -1.108021e+06
   7.991409e+05   1.849264e+05
   3.406591e+05   1.048760e+06
  -2.287628e+05   8.265334e+05
  -4.988231e+05   5.346581e+04
  -3.844493e+05  -3.295427e+05
  -1.213202e+05  -1.124254e+05
  -5.091990e+04   7.502423e+04
  -2.689382e+05  -2.815068e+05
  -4.436545e+05  -8.606586e+05
  -1.273343e+05  -9.375630e+05
   6.598385e+05  -3.265477e+05
   1.280487e+06   4.248427e+05
   1.084167e+06   7.454017e+05
   1.487490e+05   6.188084e+05
  -7.301028e+05   3.626128e+05
  -8.539754e+05   1.397558e+05
  -3.325251e+05  -6.767620e+04
   1.213355e+05  -1.999008e+05
   5.932423e+04  -1.613300e+05
  -2.034502e+05  -6.494407e+04
  -5.504420e+04  -1.169356e+05
   5.513282e+05  -2.172183e+05
   9.231282e+05   1.010078e+04
   4.185999e+05   6.225599e+05
  -7.207049e+05   1.049898e+06
  -1.521758e+06   6.709566e+05
  -1.277043e+06  -3.763906e+05
  -2.449160e+05  -1.232273e+06
   6.930171e+05  -1.211317e+06
   9.286058e+05  -4.870894e+05
   5.715366e+05   1.894236e+05
   1.290422e+05   3.178732e+05
  -3.674668e+04   8.097827e+04
   7.882031e+04   9.415624e+03
   2.445836e+05   3.326339e+05
   1.984341e+05   7.094566e+05
  -1.553823e+05   6.033655e+05
  -5.939744e+05  -8.600300e+04
  -6.676612e+05  -8.191260e+05
  -1.340897e+05  -9.149968e+05
   6.462296e+05  -2.500238e+05
   9.213988e+05   6.075279e+05
   3.241675e+05   9.629069e+05
  -6.264323e+05   6.183616e+05
  -1.000128e+06  -6.176268e+04
  -4.809027e+05  -5.651205e+05
   2.606854e+05  -6.248667e+05
   3.629163e+05  -3.254537e+05
  -1.884173e+05   6.904171e+03
  -5.632407e+05   3.838151e+04
  -1.376515e+05  -2.784330e+05
   7.270393e+05  -5.890362e+05
   1.131633e+06  -4.432017e+05
   6.968141e+05   1.868488e+05
  -8.616338e+04   7.761726e+05
  -5.166971e+05   7.597123e+05
  -4.084930e+05   1.597146e+05
  -6.434245e+04  -4.102413e+05
   2.073316e+05  -3.998882e+05
   3.108004e+05   1.015357e+05
   2.268447e+05   5.072227e+05
  -4.255913e+04   4.024207e+05
  -3.463200e+05  -2.733678e+04
  -4.250673e+05  -2.686701e+05
  -2.110197e+05  -1.032013e+05
   4.172269e+04   1.563018e+05
   6.739061e+04   8.506069e+04
  -5.259532e+04  -2.968909e+05
  -9.005034e+03  -5.223111e+05
   2.685264e+05  -2.472939e+05
   4.456370e+05   3.033881e+05
   1.902241e+05   5.709805e+05
  -3.456172e+05   2.928665e+05
  -6.061807e+05  -2.282482e+05
  -2.399046e+05  -4.938736e+05
   4.555750e+05  -3.246646e+05
   7.952651e+05   5.479243e+04
   4.303017e+05   3.321525e+05
  -2.607249e+05   3.746058e+05
  -5.731426e+05   2.276815e+05
  -2.445504e+05   1.833649e+04
   2.738074e+05  -8.882311e+04
   3.492896e+05   2.001715e+04
  -1.176912e+05   2.390257e+05
  -6.082613e+05   2.459811e+05
