
 $NMID
 id='ANONYMOUS ', fmtdat='(2E16.6)'
 volume=1.0
 tramp=1.0
 $END
   3.302621e+07  -1.539074e+06
   2.208084e+07   1.676728e+07
  -8.795439e+05   2.177382e+07
  -1.472554e+07   1.234879e+07
  -1.120195e+07  -5.591668e+05
   1.596592e+05  -5.849362e+06
   6.350314e+06  -1.662709e+06
   3.861991e+06   5.423911e+06
  -2.200147e+06   7.739707e+06
  -5.928657e+06   3.101950e+06
  -5.011129e+06  -3.823911e+06
  -8.349739e+05  -6.126230e+06
   2.770307e+06  -1.633045e+06
   2.289178e+06   4.598741e+06
  -1.875155e+06   5.643914e+06
  -5.206750e+06   2.494112e+05
  -3.774448e+06  -6.177771e+06
   1.478483e+06  -7.809691e+06
   6.007912e+06  -4.021670e+06
   6.470646e+06   1.317080e+06
   3.439792e+06   4.366511e+06
   1.341007e+05   4.249654e+06
  -6.573509e+05   2.730980e+06
   9.925551e+05   2.149954e+06
   2.066637e+06   3.226986e+06
  -3.185201e+05   4.288394e+06
  -5.093635e+06   3.085221e+06
  -7.568253e+06  -3.321045e+05
  -4.709340e+06  -3.276688e+06
   8.631944e+05  -3.361576e+06
   3.686817e+06  -1.018826e+06
   1.695924e+06   1.332521e+06
  -2.023901e+06   1.775084e+06
  -3.490873e+06   8.124782e+04
  -1.981800e+06  -2.488928e+06
   4.151383e+05  -3.775170e+06
   1.672656e+06  -2.236941e+06
   1.300260e+06   9.322589e+05
   9.847588e+04   2.236955e+06
  -5.122455e+05  -1.873482e+04
   4.002014e+05  -2.906599e+06
   1.987612e+06  -2.214175e+06
   2.045749e+06   1.709625e+06
  -3.603561e+05   3.900576e+06
  -3.143480e+06   1.196977e+06
  -3.105776e+06  -3.524479e+06
   3.972475e+05  -4.972324e+06
   4.446232e+06  -1.757541e+06
   5.373980e+06   2.647750e+06
   2.257129e+06   4.356557e+06
  -2.296100e+06   2.682829e+06
  -4.487203e+06  -3.215704e+05
  -2.678378e+06  -2.219710e+06
   1.100206e+06  -1.852444e+06
   3.099839e+06   5.925165e+04
   1.696029e+06   1.487293e+06
  -9.610157e+05   1.014576e+06
  -1.610398e+06  -5.681768e+05
   2.085716e+05  -1.192156e+06
   1.811171e+06  -6.519667e+04
   8.679302e+05   1.462673e+06
  -1.793049e+06   1.653734e+06
  -3.310547e+06   1.602922e+05
  -1.971069e+06  -2.078194e+06
   1.300151e+06  -3.730866e+06
   4.116162e+06  -3.543140e+06
   4.681830e+06  -1.023342e+06
   2.982830e+06   2.547091e+06
   5.694199e+05   4.616008e+06
  -8.354741e+05   3.872978e+06
  -8.618569e+05   1.795833e+06
  -6.268858e+05   7.682687e+05
  -1.219148e+06   1.073564e+06
  -2.317703e+06   9.025105e+05
  -2.623243e+06  -7.517435e+05
  -1.431075e+06  -2.487367e+06
   5.896280e+05  -2.281422e+06
   2.017437e+06  -4.487861e+04
   1.766052e+06   2.273880e+06
  -1.571272e+05   2.739583e+06
  -2.463321e+06   1.096341e+06
  -3.343025e+06  -1.311776e+06
  -2.068808e+06  -2.807675e+06
   1.225114e+05  -2.692886e+06
   1.323785e+06  -1.663388e+06
   1.194707e+06  -9.445749e+05
   1.219617e+06  -9.253111e+05
   2.463515e+06  -8.050156e+05
   3.819218e+06   3.138840e+05
   3.219457e+06   2.230506e+06
   2.996530e+05   3.717327e+06
  -2.887566e+06   3.612649e+06
  -3.916460e+06   1.778989e+06
  -2.333151e+06  -7.001615e+05
   1.165297e+05  -2.148645e+06
   1.272296e+06  -1.595969e+06
   4.693541e+05   1.606607e+05
  -1.076954e+06   1.149778e+06
  -1.622437e+06   3.630878e+05
  -6.752456e+05  -1.000737e+06
   5.757990e+05  -1.042480e+06
   6.508960e+05   2.988613e+05
  -5.623937e+05   1.060320e+06
  -1.725066e+06  -2.167127e+05
  -1.478649e+06  -2.539042e+06
   2.875081e+05  -3.548528e+06
   2.448074e+06  -2.124809e+06
   3.549066e+06   6.024056e+05
   2.797873e+06   2.582109e+06
   6.839130e+05   2.695704e+06
  -1.219676e+06   1.423476e+06
  -1.530094e+06   1.634496e+05
  -4.572370e+05  -2.977060e+04
   3.629456e+05   6.722175e+05
  -2.422325e+05   1.143882e+06
  -1.543175e+06   5.792167e+05
  -1.807574e+06  -5.759529e+05
  -4.926916e+05  -1.153534e+06
   1.011213e+06  -6.207857e+05
   9.816597e+05   3.705149e+05
  -6.591722e+05   7.528314e+05
  -2.231731e+06   7.765320e+04
  -2.032503e+06  -1.191106e+06
  -2.521107e+04  -2.084277e+06
   2.121318e+06  -1.804432e+06
   2.598101e+06  -4.026531e+05
   1.144969e+06   1.040957e+06
  -7.330122e+05   1.270381e+06
  -1.262800e+06   1.886472e+05
  -1.284425e+05  -8.972924e+05
   1.339826e+06  -6.935130e+05
   1.626721e+06   5.841476e+05
   5.191943e+05   1.497090e+06
  -8.489662e+05   1.095815e+06
  -1.220258e+06  -5.588885e+04
  -3.954537e+05  -6.513480e+05
   6.404907e+05  -1.077571e+05
   6.721267e+05   9.215606e+05
  -5.286342e+05   1.302176e+06
  -1.850972e+06   5.045859e+05
  -1.880481e+06  -9.364048e+05
  -4.161585e+05  -1.877647e+06
   1.218948e+06  -1.560235e+06
   1.563770e+06  -3.107947e+05
   5.571900e+05   7.533190e+05
  -5.478544e+05   8.066901e+05
  -6.731860e+05   8.222574e+04
   2.301327e+04  -4.978290e+05
   5.777292e+05  -3.742617e+05
   3.757986e+05   1.020542e+05
  -2.848205e+05   1.697627e+05
  -5.811682e+05  -4.227060e+05
   2.121275e+04  -1.074668e+06
   1.201948e+06  -9.107610e+05
   1.939663e+06   2.910328e+05
   1.409318e+06   1.743468e+06
  -1.289988e+05   2.289474e+06
  -1.478971e+06   1.483421e+06
  -1.697491e+06   2.855368e+04
  -1.008316e+06  -9.204209e+05
  -3.714030e+05  -8.728910e+05
  -3.051530e+05  -3.587518e+05
  -4.197820e+05  -2.058835e+05
  -8.465450e+04  -5.931386e+05
   7.292722e+05  -8.978120e+05
   1.371355e+06  -4.429088e+05
   1.128679e+06   6.708082e+05
  -1.022259e+05   1.513157e+06
  -1.585274e+06   1.159561e+06
  -2.168698e+06  -3.485728e+05
  -1.209185e+06  -1.890532e+06
   7.303610e+05  -2.225134e+06
   2.233251e+06  -1.138613e+06
   2.278860e+06   3.936416e+05
   1.135966e+06   1.210976e+06
  -5.311738e+04   1.061261e+06
  -4.699504e+05   6.463456e+05
  -2.727110e+05   6.820976e+05
  -1.652359e+05   1.081143e+06
  -5.458205e+05   1.116356e+06
  -1.123704e+06   3.022647e+05
  -1.244613e+06  -9.804932e+05
  -5.565018e+05  -1.757672e+06
   5.574080e+05  -1.357927e+06
   1.213206e+06  -6.523809e+04
   8.359600e+05   1.105486e+06
  -2.137551e+05   1.302492e+06
  -9.473209e+05   5.422112e+05
  -7.634387e+05  -4.282851e+05
  -5.491389e+04  -8.969906e+05
   3.045252e+05  -7.703037e+05
  -2.542032e+03  -4.604854e+05
  -3.811586e+05  -3.376976e+05
  -4.594204e+04  -3.709177e+05
   1.004157e+06  -2.533180e+05
   1.848449e+06   2.110226e+05
   1.537057e+06   8.579782e+05
   1.139857e+05   1.258804e+06
  -1.321654e+06   1.075806e+06
  -1.654162e+06   3.915310e+05
  -8.324533e+05  -2.947701e+05
   1.693713e+05  -4.725908e+05
   4.385129e+05  -1.048492e+05
  -1.390954e+03   3.066366e+05
  -4.506931e+05   2.276078e+05
  -4.416687e+05  -3.080704e+05
  -1.523281e+05  -6.956188e+05
  -5.509155e+03  -4.500568e+05
  -1.381247e+05   1.636569e+05
  -3.331038e+05   3.685258e+05
  -2.837009e+05  -1.973106e+05
   1.553574e+05  -9.591121e+05
   8.033079e+05  -1.000680e+06
   1.143854e+06  -1.350612e+05
   6.998237e+05   8.318195e+05
  -3.545119e+05   9.785017e+05
  -1.093652e+06   2.515455e+05
  -6.843255e+05  -5.478501e+05
   6.114676e+05  -6.469464e+05
   1.534387e+06  -1.255818e+04
   1.102742e+06   7.537022e+05
  -3.255020e+05   1.026388e+06
  -1.419716e+06   6.353295e+05
  -1.254693e+06  -6.926485e+04
  -1.930816e+05  -5.032626e+05
   5.898013e+05  -3.200612e+05
   3.362755e+05   2.322831e+05
  -5.803357e+05   4.556637e+05
  -1.100126e+06  -1.189244e+05
  -5.690165e+05  -1.126905e+06
   6.154993e+05  -1.572747e+06
   1.421106e+06  -8.007418e+05
   1.194540e+06   7.192947e+05
   2.208196e+05   1.706367e+06
  -6.694022e+05   1.292344e+06
  -8.980722e+05  -8.217009e+04
  -5.025736e+05  -1.108031e+06
   1.022870e+05  -9.700129e+05
   5.054874e+05  -1.294117e+05
   5.093310e+05   3.604041e+05
   2.232065e+05   1.486986e+05
   1.891052e+04  -1.125092e+05
   1.791701e+05   2.243154e+05
   4.714884e+05   8.801381e+05
   2.865123e+05   1.031950e+06
  -5.756651e+05   4.086625e+05
  -1.419836e+06  -4.054806e+05
  -1.306106e+06  -7.612066e+05
  -2.020558e+05  -6.404375e+05
   8.604497e+05  -4.082656e+05
   9.509928e+05  -2.205649e+05
   2.895836e+05   1.465439e+03
  -1.569256e+05   2.092730e+05
   4.489808e+04   2.344002e+05
   3.306258e+05   1.284362e+05
   1.970026e+04   1.286104e+05
  -7.033837e+05   2.041952e+05
  -9.770682e+05  -1.314602e+04
  -3.073018e+05  -6.278314e+05
   8.434915e+05  -1.077975e+06
   1.533637e+06  -6.903237e+05
   1.241436e+06   4.209163e+05
   2.551237e+05   1.333083e+06
  -6.757439e+05   1.286258e+06
  -9.761130e+05   4.750451e+05
  -6.320201e+05  -2.496054e+05
  -1.000332e+05  -3.330656e+05
   1.293575e+05  -1.728445e+04
  -5.326198e+04   6.928699e+04
  -3.260033e+05  -3.192075e+05
  -2.783980e+05  -7.577180e+05
   1.711461e+05  -6.270157e+05
   6.572391e+05   1.517532e+05
   6.685640e+05   9.304867e+05
   4.796455e+04   9.594748e+05
  -7.460879e+05   1.770604e+05
  -9.628022e+05  -7.235799e+05
  -3.013802e+05  -1.015053e+06
   6.696907e+05  -5.986049e+05
   1.019770e+06   6.992859e+04
   4.730442e+05   5.188270e+05
  -2.517769e+05   5.806723e+05
  -2.934788e+05   3.399087e+05
   2.948185e+05   3.034977e+04
   6.273085e+05  -3.769146e+04
   1.221884e+05   2.748070e+05
  -7.659904e+05   6.625899e+05
  -1.124818e+06   5.794776e+05
  -6.604144e+05  -1.029055e+05
   8.049680e+04  -7.954816e+05
   4.500899e+05  -7.920824e+05
   3.348781e+05  -1.167833e+05
   2.523120e+04   4.749023e+05
  -2.285404e+05   3.802308e+05
  -3.359456e+05  -1.876179e+05
  -2.402496e+05  -5.412917e+05
   5.582126e+04  -3.524064e+05
   3.658257e+05   5.962437e+04
   4.344316e+05   2.172280e+05
   2.304309e+05   5.224102e+04
  -8.314329e+03  -9.671757e+04
  -8.043806e+04   5.009783e+04
  -6.045342e+04   3.658231e+05
  -1.445621e+05   4.550773e+05
  -3.284499e+05   1.095403e+05
  -3.626379e+05  -4.128782e+05
  -6.038210e+04  -6.130896e+05
   4.064352e+05  -2.747343e+05
   5.923046e+05   2.878262e+05
   2.194057e+05   5.572004e+05
  -4.552600e+05   3.447072e+05
  -7.989771e+05  -8.065709e+04
  -4.407414e+05  -3.488289e+05
   2.689990e+05  -3.404963e+05
   5.818152e+05  -1.750024e+05
   1.924196e+05  -1.378815e+04
  -3.834562e+05   2.403064e+04
  -4.064572e+05  -1.152444e+05
   2.037697e+05  -3.117806e+05
   7.758834e+05  -2.626627e+05
