
 $NMID
 id='ANONYMOUS ', fmtdat='(2E16.6)'
 volume=1.0
 tramp=1.0
 $END
   5.064625e+07  -7.891914e+05
   3.107578e+07   3.009850e+07
  -5.596272e+06   3.399930e+07
  -2.412121e+07   1.423483e+07
  -1.502496e+07  -5.192183e+06
   2.460095e+06  -8.389453e+06
   8.860289e+06   4.055415e+05
   3.108038e+06   8.563310e+06
  -5.017503e+06   8.932297e+06
  -8.618929e+06   2.366067e+06
  -6.572607e+06  -5.527011e+06
  -9.445348e+05  -7.983472e+06
   3.684727e+06  -2.516693e+06
   2.684553e+06   5.204276e+06
  -3.145959e+06   6.365445e+06
  -7.181246e+06  -8.442356e+05
  -4.388477e+06  -9.124335e+06
   3.058640e+06  -1.082292e+07
   9.022797e+06  -5.543010e+06
   9.781285e+06   1.777570e+06
   5.905108e+06   6.708423e+06
   5.657769e+05   7.588836e+06
  -2.363759e+06   5.188724e+06
  -1.075063e+06   2.436498e+06
   1.518447e+06   2.335147e+06
   2.715604e+05   4.266399e+06
  -5.296586e+06   4.267009e+06
  -9.234497e+06   4.859201e+05
  -6.577305e+06  -3.855731e+06
  -1.646324e+04  -4.729714e+06
   3.763441e+06  -2.313407e+06
   2.385974e+06   3.045713e+05
  -8.867773e+05   1.281973e+06
  -2.616959e+06   5.566087e+05
  -2.276428e+06  -1.639570e+06
  -5.451962e+05  -3.956642e+06
   1.745791e+06  -3.513756e+06
   2.809271e+06   3.345230e+05
   1.337770e+06   3.350524e+06
  -7.788718e+05   1.448694e+06
  -2.745045e+05  -2.631529e+06
   2.277043e+06  -2.356484e+06
   2.369896e+06   2.776844e+06
  -1.851452e+06   5.553028e+06
  -5.975085e+06   1.057827e+06
  -4.656315e+06  -6.062733e+06
   1.473397e+06  -7.648659e+06
   6.677233e+06  -2.331121e+06
   6.639751e+06   3.881782e+06
   2.067990e+06   5.555932e+06
  -3.109844e+06   2.765945e+06
  -5.075870e+06  -1.099464e+06
  -2.538098e+06  -3.085232e+06
   2.053126e+06  -2.112832e+06
   4.168777e+06   6.546777e+05
   1.900990e+06   2.375270e+06
  -1.520262e+06   1.294246e+06
  -1.722560e+06  -8.692916e+05
   1.001930e+06  -9.678749e+05
   2.265639e+06   1.259593e+06
  -2.529105e+05   2.882952e+06
  -3.882374e+06   1.828812e+06
  -4.772829e+06  -9.183972e+05
  -2.260092e+06  -3.455931e+06
   1.598193e+06  -4.939847e+06
   4.727798e+06  -4.666130e+06
   5.838113e+06  -1.695001e+06
   4.276841e+06   2.968786e+06
   9.674579e+05   5.810533e+06
  -1.503730e+06   4.570829e+06
  -1.457771e+06   1.378431e+06
  -2.178857e+05   4.847491e+04
  -2.514713e+05   1.103563e+06
  -1.807186e+06   1.688411e+06
  -2.858771e+06   7.097753e+04
  -2.001463e+06  -2.070699e+06
   5.467104e+04  -2.248517e+06
   1.701204e+06  -2.482372e+05
   1.806991e+06   2.093030e+06
   4.810997e+04   2.930449e+06
  -2.699902e+06   1.603274e+06
  -4.275695e+06  -1.152895e+06
  -3.024050e+06  -3.511804e+06
   1.088020e+04  -3.876966e+06
   2.022566e+06  -2.488919e+06
   1.955316e+06  -1.111258e+06
   1.653402e+06  -7.798498e+05
   2.817339e+06  -6.436558e+05
   4.265370e+06   5.355097e+05
   3.523526e+06   2.558626e+06
   2.915902e+05   4.062337e+06
  -3.051517e+06   3.971481e+06
  -4.113405e+06   2.189383e+06
  -2.642596e+06  -4.308090e+05
  -2.488573e+05  -2.261947e+06
   1.117551e+06  -1.920568e+06
   5.564465e+05   6.027217e+04
  -1.070724e+06   1.324846e+06
  -1.853881e+06   4.372271e+05
  -8.974278e+05  -1.158703e+06
   5.127487e+05  -1.130980e+06
   5.002375e+05   3.494661e+05
  -9.118811e+05   8.053728e+05
  -1.829605e+06  -9.820126e+05
  -9.225272e+05  -3.221042e+06
   1.162715e+06  -3.461101e+06
   2.906160e+06  -1.443028e+06
   3.405214e+06   1.124431e+06
   2.515724e+06   2.641266e+06
   6.108978e+05   2.636922e+06
  -1.204559e+06   1.515354e+06
  -1.583752e+06   2.647687e+05
  -4.905744e+05  -2.853597e+04
   3.849814e+05   7.341189e+05
  -3.487716e+05   1.319247e+06
  -1.833177e+06   6.267875e+05
  -2.021009e+06  -7.784608e+05
  -4.426493e+05  -1.360679e+06
   1.136402e+06  -6.201693e+05
   9.379168e+05   4.119309e+05
  -7.862866e+05   6.042100e+05
  -2.213877e+06  -1.533388e+05
  -1.874478e+06  -1.262133e+06
   1.155476e+05  -2.018897e+06
   2.235182e+06  -1.779104e+06
   2.756613e+06  -3.875098e+05
   1.244336e+06   1.198026e+06
  -8.573748e+05   1.489288e+06
  -1.509515e+06   2.225322e+05
  -2.097221e+05  -1.055390e+06
   1.480517e+06  -7.772945e+05
   1.737621e+06   7.001190e+05
   4.255660e+05   1.621335e+06
  -1.017767e+06   1.037306e+06
  -1.263379e+06  -2.246796e+05
  -2.975761e+05  -7.513839e+05
   7.744390e+05  -8.586507e+04
   7.658532e+05   1.021955e+06
  -5.320997e+05   1.440338e+06
  -1.989508e+06   6.044394e+05
  -2.062956e+06  -9.812752e+05
  -4.543419e+05  -2.048783e+06
   1.364457e+06  -1.683234e+06
   1.702647e+06  -2.798518e+05
   5.398831e+05   8.390636e+05
  -6.215456e+05   8.308257e+05
  -6.507242e+05   9.927676e+04
   7.960101e+04  -3.981717e+05
   5.027261e+05  -2.724233e+05
   1.869485e+05   5.484401e+04
  -4.049649e+05  -1.645101e+04
  -5.473907e+05  -6.034576e+05
   1.337443e+05  -1.175199e+06
   1.330898e+06  -9.492411e+05
   2.088831e+06   3.300127e+05
   1.529656e+06   1.881841e+06
  -1.264015e+05   2.429123e+06
  -1.556841e+06   1.493048e+06
  -1.708683e+06  -3.773794e+04
  -9.312060e+05  -8.747840e+05
  -3.671124e+05  -6.921933e+05
  -4.628200e+05  -2.444787e+05
  -5.969050e+05  -2.838610e+05
  -1.091037e+05  -7.339381e+05
   8.234507e+05  -9.340939e+05
   1.431649e+06  -4.023201e+05
   1.103146e+06   6.769427e+05
  -1.664676e+05   1.490007e+06
  -1.673217e+06   1.158630e+06
  -2.271475e+06  -3.878192e+05
  -1.225642e+06  -2.042850e+06
   8.930896e+05  -2.388745e+06
   2.472571e+06  -1.136739e+06
   2.375210e+06   5.382518e+05
   1.043813e+06   1.288264e+06
  -1.386193e+05   9.808951e+05
  -3.858192e+05   5.633872e+05
  -9.785465e+04   7.625094e+05
  -8.591296e+04   1.284639e+06
  -6.195799e+05   1.285943e+06
  -1.266279e+06   3.543755e+05
  -1.368561e+06  -1.033666e+06
  -6.220598e+05  -1.873369e+06
   5.723951e+05  -1.458572e+06
   1.285302e+06  -5.132013e+04
   8.626116e+05   1.235731e+06
  -3.171903e+05   1.399526e+06
  -1.113325e+06   4.668230e+05
  -8.217625e+05  -6.265575e+05
   6.125337e+04  -1.048299e+06
   4.706356e+05  -7.964506e+05
   5.241796e+04  -4.285053e+05
  -4.402414e+05  -3.269120e+05
  -7.144070e+04  -3.834995e+05
   1.124199e+06  -2.543266e+05
   2.052151e+06   2.505809e+05
   1.649383e+06   9.624500e+05
   3.240917e+04   1.413102e+06
  -1.521124e+06   1.184455e+06
  -1.804966e+06   3.571948e+05
  -8.508940e+05  -4.333540e+05
   2.313810e+05  -5.617650e+05
   4.987279e+05  -6.224638e+04
   3.438661e+04   4.037194e+05
  -4.408644e+05   2.711072e+05
  -4.896161e+05  -3.239632e+05
  -2.625579e+05  -7.214529e+05
  -9.634319e+04  -4.803413e+05
  -1.313766e+05   1.134638e+05
  -2.776610e+05   3.235479e+05
  -2.880068e+05  -2.167432e+05
   1.090406e+05  -9.985602e+05
   8.561551e+05  -1.096271e+06
   1.335411e+06  -2.108371e+05
   8.656562e+05   8.863595e+05
  -3.749676e+05   1.137156e+06
  -1.235218e+06   3.653675e+05
  -7.532206e+05  -5.498989e+05
   6.708043e+05  -6.757583e+05
   1.593604e+06   2.433410e+04
   1.057502e+06   8.127375e+05
  -4.255926e+05   1.014358e+06
  -1.476054e+06   5.587387e+05
  -1.249922e+06  -1.278789e+05
  -1.627542e+05  -5.099513e+05
   6.353219e+05  -3.003523e+05
   3.895445e+05   2.766604e+05
  -5.737111e+05   5.410734e+05
  -1.189079e+06  -4.478051e+04
  -7.083027e+05  -1.164251e+06
   5.375396e+05  -1.726953e+06
   1.458624e+06  -9.392813e+05
   1.288075e+06   7.127570e+05
   2.734096e+05   1.788683e+06
  -6.878773e+05   1.331291e+06
  -9.328029e+05  -1.325388e+05
  -4.855992e+05  -1.172953e+06
   1.713160e+05  -9.808084e+05
   5.560165e+05  -1.091873e+05
   4.885666e+05   3.584210e+05
   1.765828e+05   1.305236e+05
   4.192346e+04  -9.791790e+04
   2.817042e+05   2.851533e+05
   5.448917e+05   9.479339e+05
   2.410347e+05   1.070644e+06
  -6.921610e+05   4.209429e+05
  -1.497197e+06  -4.066477e+05
  -1.321460e+06  -7.835864e+05
  -2.134723e+05  -6.905968e+05
   8.422871e+05  -4.570944e+05
   9.790290e+05  -2.251092e+05
   3.584811e+05   3.867115e+04
  -1.386068e+05   2.325849e+05
  -2.173234e+04   2.049790e+05
   2.757008e+05   8.176662e+04
   5.572634e+04   1.333088e+05
  -6.582968e+05   2.675003e+05
  -1.050961e+06   3.121948e+04
  -4.586214e+05  -6.810713e+05
   7.987562e+05  -1.218579e+06
   1.673533e+06  -8.261725e+05
   1.433084e+06   3.780105e+05
   3.360108e+05   1.399781e+06
  -7.110647e+05   1.410822e+06
  -1.031960e+06   5.844550e+05
  -6.699489e+05  -2.044361e+05
  -1.496788e+05  -3.555420e+05
   7.040222e+04  -7.289761e+04
  -7.795734e+04   1.940104e+04
  -3.162645e+05  -3.541596e+05
  -2.827066e+05  -7.989248e+05
   1.513086e+05  -6.902746e+05
   6.913406e+05   9.009993e+04
   7.864788e+05   9.232923e+05
   1.630396e+05   1.033635e+06
  -7.464933e+05   2.861400e+05
  -1.074009e+06  -6.754356e+05
  -3.997272e+05  -1.079361e+06
   6.867467e+05  -7.139919e+05
   1.127465e+06   2.533047e+04
   5.600045e+05   5.939706e+05
  -2.604917e+05   6.954704e+05
  -3.670686e+05   3.841110e+05
   2.468256e+05  -6.072169e+03
   6.493731e+05  -7.016498e+04
   1.613111e+05   3.037804e+05
  -7.971501e+05   7.173762e+05
  -1.239016e+06   5.932266e+05
  -7.728711e+05  -1.491908e+05
   5.854892e+04  -8.776713e+05
   5.191884e+05  -8.820922e+05
   4.249315e+05  -1.810432e+05
   7.884409e+04   4.782120e+05
  -2.208441e+05   4.501532e+05
  -3.623303e+05  -1.278453e+05
  -2.820832e+05  -5.676585e+05
   3.471412e+04  -4.349018e+05
   3.956154e+05   2.533394e+04
   4.893019e+05   2.631521e+05
   2.459115e+05   8.785656e+04
  -4.113618e+04  -1.533210e+05
  -8.064990e+04  -4.570316e+04
   3.537064e+04   3.553476e+05
  -1.982689e+04   5.637054e+05
  -3.121304e+05   2.429734e+05
  -4.859479e+05  -3.577065e+05
  -1.954768e+05  -6.464555e+05
   3.938041e+05  -3.383091e+05
   6.844662e+05   2.477298e+05
   2.852951e+05   5.628713e+05
  -4.935958e+05   3.906073e+05
  -8.931066e+05  -3.345666e+04
  -5.000002e+05  -3.569622e+05
   2.778923e+05  -4.190909e+05
   6.341889e+05  -2.627325e+05
   2.545746e+05  -2.888028e+04
  -3.408879e+05   9.198047e+04
  -4.127555e+05  -3.778178e+04
   1.484806e+05  -2.991827e+05
   7.252378e+05  -3.119604e+05
