
 $NMID
 id='ANONYMOUS ', fmtdat='(2E16.6)'
 volume=1.0
 tramp=1.0
 $END
  -2.714562e+07  -1.355175e+06
  -1.688694e+07  -1.484631e+07
   1.970634e+06  -1.748459e+07
   1.268418e+07  -9.515350e+06
   9.271032e+06   6.475504e+05
  -2.655365e+05   4.767353e+06
  -5.351837e+06   1.314624e+06
  -3.124880e+06  -4.613774e+06
   2.082559e+06  -6.539179e+06
   5.093205e+06  -2.425479e+06
   3.965687e+06   3.571111e+06
   2.704145e+05   5.299749e+06
  -2.501414e+06   1.120514e+06
  -1.691944e+06  -4.222796e+06
   1.879204e+06  -4.812784e+06
   4.360499e+06   1.664947e+04
   2.796543e+06   5.382297e+06
  -1.709083e+06   6.420333e+06
  -5.273792e+06   2.885391e+06
  -5.224594e+06  -1.670421e+06
  -2.342899e+06  -3.904834e+06
   3.644941e+05  -3.343925e+06
   6.085252e+05  -1.961069e+06
  -1.077570e+06  -1.862469e+06
  -1.797930e+06  -3.159556e+06
   6.446877e+05  -3.888631e+06
   4.819355e+06  -2.278747e+06
   6.597059e+06   9.757427e+05
   3.731783e+06   3.250126e+06
  -1.192784e+06   2.810060e+06
  -3.445095e+06   4.834263e+05
  -1.389538e+06  -1.504687e+06
   2.095713e+06  -1.610004e+06
   3.320082e+06   1.761602e+05
   1.630704e+06   2.518018e+06
  -7.673544e+05   3.401085e+06
  -1.696713e+06   1.713691e+06
  -9.067297e+05  -1.086994e+06
   2.969759e+05  -1.910340e+06
   4.886000e+05   2.918856e+05
  -6.346994e+05   2.677566e+06
  -1.894340e+06   1.843180e+06
  -1.641962e+06  -1.518991e+06
   4.104793e+05  -3.174391e+06
   2.464453e+06  -7.771571e+05
   2.227434e+06   3.052409e+06
  -6.226361e+05   4.000516e+06
  -3.804686e+06   1.119932e+06
  -4.438320e+06  -2.591252e+06
  -1.744964e+06  -3.880475e+06
   2.117562e+06  -2.231484e+06
   3.907139e+06   4.737615e+05
   2.264352e+06   2.028508e+06
  -9.722858e+05   1.519059e+06
  -2.601865e+06  -2.027878e+05
  -1.365729e+06  -1.318836e+06
   8.574019e+05  -7.864780e+05
   1.388052e+06   5.713447e+05
  -1.280429e+05   1.062112e+06
  -1.507485e+06   1.330776e+05
  -8.026577e+05  -1.100485e+06
   1.403465e+06  -1.258943e+06
   2.722025e+06  -4.181770e+04
   1.543715e+06   1.797026e+06
  -1.414263e+06   3.088497e+06
  -3.894803e+06   2.744251e+06
  -4.144592e+06   4.770471e+05
  -2.316025e+06  -2.480259e+06
  -1.113557e+05  -4.037904e+06
   9.215507e+05  -3.307535e+06
   7.755876e+05  -1.607435e+06
   6.434719e+05  -7.885950e+05
   1.321681e+06  -9.367580e+05
   2.268719e+06  -5.735185e+05
   2.326948e+06   9.823113e+05
   1.069357e+06   2.429526e+06
  -7.573452e+05   2.055751e+06
  -1.885815e+06  -1.021790e+05
  -1.457321e+06  -2.195502e+06
   3.530813e+05  -2.446079e+06
   2.280980e+06  -7.476304e+05
   2.801436e+06   1.460777e+06
   1.513609e+06   2.599140e+06
  -3.494710e+05   2.245350e+06
  -1.227388e+06   1.259660e+06
  -1.025972e+06   7.188763e+05
  -1.084543e+06   7.641800e+05
  -2.213837e+06   5.847692e+05
  -3.353093e+06  -5.052025e+05
  -2.709751e+06  -2.177547e+06
  -2.648662e+04  -3.324511e+06
   2.824475e+06  -3.023774e+06
   3.638387e+06  -1.292575e+06
   2.029457e+06   8.342051e+05
  -3.011801e+05   1.934383e+06
  -1.288239e+06   1.319614e+06
  -4.048967e+05  -1.947466e+05
   1.054299e+06  -9.453600e+05
   1.456201e+06  -2.046904e+05
   5.056498e+05   9.321252e+05
  -5.996043e+05   8.950103e+05
  -5.911365e+05  -2.963624e+05
   5.079278e+05  -9.476777e+05
   1.494725e+06   1.875581e+05
   1.235609e+06   2.253791e+06
  -3.377124e+05   3.162936e+06
  -2.240610e+06   1.855423e+06
  -3.169199e+06  -6.746785e+05
  -2.411137e+06  -2.484232e+06
  -4.659893e+05  -2.484905e+06
   1.196880e+06  -1.197755e+06
   1.389213e+06  -3.476121e+04
   4.061000e+05   5.684467e+04
  -2.800898e+05  -6.216893e+05
   2.815273e+05  -9.867311e+05
   1.387806e+06  -4.069008e+05
   1.555244e+06   6.111673e+05
   3.714888e+05   1.038688e+06
  -9.336495e+05   4.925347e+05
  -8.696844e+05  -3.879644e+05
   6.160270e+05  -6.579908e+05
   2.015049e+06   3.040324e+04
   1.785662e+06   1.184092e+06
  -8.092136e+04   1.889753e+06
  -2.010241e+06   1.498838e+06
  -2.347789e+06   1.983084e+05
  -9.473927e+05  -9.917263e+05
   7.320598e+05  -1.062627e+06
   1.115880e+06  -7.527084e+04
   4.008304e+04   7.981778e+05
  -1.236176e+06   5.241785e+05
  -1.411527e+06  -6.158902e+05
  -3.853065e+05  -1.361631e+06
   8.063530e+05  -9.390904e+05
   1.084987e+06   1.020650e+05
   3.273563e+05   5.934502e+05
  -5.644392e+05   5.497320e+04
  -5.317947e+05  -8.637997e+05
   5.642844e+05  -1.123336e+06
   1.687738e+06  -3.200105e+05
   1.611610e+06   9.641597e+05
   2.461936e+05   1.698064e+06
  -1.181245e+06   1.308872e+06
  -1.409297e+06   1.824175e+05
  -4.552717e+05  -7.012796e+05
   5.351678e+05  -6.878877e+05
   6.180110e+05  -3.049180e+04
  -3.847641e+04   4.622164e+05
  -5.530392e+05   3.222795e+05
  -3.656286e+05  -1.144851e+05
   2.405656e+05  -1.601146e+05
   4.966521e+05   3.877963e+05
  -7.211384e+04   9.494005e+05
  -1.124274e+06   7.374764e+05
  -1.710484e+06  -3.834676e+05
  -1.141268e+06  -1.646946e+06
   2.648314e+05  -2.039788e+06
   1.416788e+06  -1.244320e+06
   1.531244e+06   6.920629e+04
   8.685124e+05   8.976712e+05
   2.905914e+05   8.397554e+05
   2.342680e+05   3.679713e+05
   3.357302e+05   2.076918e+05
   3.009957e+04   5.203729e+05
  -7.011690e+05   7.568377e+05
  -1.255666e+06   3.198838e+05
  -9.829479e+05  -6.735331e+05
   1.743313e+05  -1.362347e+06
   1.490765e+06  -9.468676e+05
   1.921219e+06   4.473976e+05
   9.668688e+05   1.760774e+06
  -7.798032e+05   1.933539e+06
  -2.051752e+06   8.806729e+05
  -2.013997e+06  -4.785647e+05
  -9.627759e+05  -1.148690e+06
   9.668673e+04  -9.647404e+05
   4.741461e+05  -5.719787e+05
   3.196098e+05  -5.950134e+05
   2.377691e+05  -9.387667e+05
   5.585239e+05  -9.454781e+05
   1.014522e+06  -1.891680e+05
   1.042674e+06   9.605609e+05
   3.788757e+05   1.608164e+06
  -5.901073e+05   1.176607e+06
  -1.088905e+06  -1.722503e+04
  -6.773193e+05  -1.031954e+06
   2.620069e+05  -1.144400e+06
   8.606462e+05  -4.358732e+05
   6.457358e+05   4.060297e+05
   5.561577e+03   7.854805e+05
  -2.982358e+05   6.660605e+05
  -1.626817e+04   4.188931e+05
   3.149714e+05   3.329501e+05
   1.421633e+04   3.372097e+05
  -9.045993e+05   1.615625e+05
  -1.624384e+06  -3.077131e+05
  -1.314271e+06  -8.593101e+05
  -3.101002e+04  -1.117425e+06
   1.235033e+06  -8.649957e+05
   1.494438e+06  -2.501510e+05
   7.252086e+05   2.972755e+05
  -1.765663e+05   4.000898e+05
  -3.915805e+05   7.168424e+04
   2.992586e+04  -2.634001e+05
   4.246688e+05  -1.714651e+05
   3.719074e+05   3.052827e+05
   7.642181e+04   6.388458e+05
  -3.833081e+04   4.063553e+05
   1.337202e+05  -1.475627e+05
   3.305831e+05  -3.221159e+05
   2.430045e+05   1.929229e+05
  -2.083923e+05   8.533268e+05
  -7.839459e+05   8.379157e+05
  -1.015974e+06   3.135021e+04
  -5.530662e+05  -7.939276e+05
   3.846845e+05  -8.370324e+05
   9.870171e+05  -1.358998e+05
   5.738330e+05   5.401393e+05
  -5.846647e+05   5.398175e+05
  -1.376733e+06  -8.036082e+04
  -9.545724e+05  -7.381965e+05
   3.415001e+05  -9.050383e+05
   1.310365e+06  -4.959200e+05
   1.127997e+06   1.308693e+05
   1.478065e+05   4.644691e+05
  -5.450383e+05   2.538417e+05
  -2.793888e+05  -2.262918e+05
   5.575712e+05  -3.630367e+05
   9.765000e+05   1.909908e+05
   4.213222e+05   1.054083e+06
  -6.724713e+05   1.362864e+06
  -1.334162e+06   6.126292e+05
  -1.020867e+06  -7.290916e+05
  -8.226289e+04  -1.545389e+06
   6.837900e+05  -1.119800e+06
   7.990725e+05   1.235001e+05
   3.855464e+05   1.021810e+06
  -1.422529e+05   8.658407e+05
  -4.562589e+05   8.668544e+04
  -4.414285e+05  -3.567196e+05
  -2.005838e+05  -1.490817e+05
  -1.986544e+04   1.017474e+05
  -1.295224e+05  -2.088701e+05
  -3.573154e+05  -8.173864e+05
  -2.004079e+05  -9.424888e+05
   5.280800e+05  -3.267601e+05
   1.246127e+06   4.575511e+05
   1.130043e+06   7.660207e+05
   1.390937e+05   5.840527e+05
  -8.078669e+05   3.089719e+05
  -8.690417e+05   1.385995e+05
  -2.493459e+05  -1.642898e+04
   1.586535e+05  -1.765598e+05
  -3.771073e+04  -2.162643e+05
  -3.015079e+05  -1.414173e+05
  -4.110335e+03  -1.183619e+05
   6.581485e+05  -1.332094e+05
   8.728133e+05   8.244466e+04
   2.131195e+05   5.847891e+05
  -8.421505e+05   9.022207e+05
  -1.413062e+06   5.018804e+05
  -1.068121e+06  -4.721991e+05
  -1.326760e+05  -1.213824e+06
   6.902524e+05  -1.099953e+06
   9.077574e+05  -3.496348e+05
   5.519480e+05   2.733727e+05
   6.116187e+04   3.059544e+05
  -1.295613e+05   1.568216e+03
   4.643717e+04  -6.601563e+04
   2.749327e+05   3.028658e+05
   2.022765e+05   6.959556e+05
  -1.993830e+05   5.472116e+05
  -5.820837e+05  -1.889318e+05
  -5.286825e+05  -8.886764e+05
   3.714263e+04  -8.636546e+05
   6.899604e+05  -9.687956e+04
   8.102374e+05   7.258763e+05
   1.915396e+05   9.303599e+05
  -6.446685e+05   4.809683e+05
  -9.026273e+05  -1.378716e+05
  -3.787571e+05  -4.903401e+05
   2.671147e+05  -4.911315e+05
   2.768523e+05  -2.790585e+05
  -2.735560e+05  -4.923418e+04
  -5.672996e+05  -1.071346e+04
  -8.612638e+04  -2.531229e+05
   7.308809e+05  -5.416106e+05
   1.035410e+06  -4.470553e+05
   5.710828e+05   1.315649e+05
  -1.289627e+05   7.021878e+05
  -4.489976e+05   6.711053e+05
  -2.986980e+05   7.098892e+04
   1.503969e+04  -4.325814e+05
   2.342898e+05  -3.190169e+05
   2.905082e+05   2.007626e+05
   1.760227e+05   5.018225e+05
  -7.909569e+04   3.031781e+05
  -3.238127e+05  -8.315012e+04
  -3.687074e+05  -2.184839e+05
  -2.010906e+05  -5.661660e+04
  -6.004740e+03   8.058240e+04
   7.163683e+04  -5.514933e+04
   9.170310e+04  -3.326634e+05
   1.828684e+05  -3.908903e+05
   3.119231e+05  -5.867242e+04
   2.854508e+05   4.094945e+05
  -5.762845e+03   5.585152e+05
  -3.890500e+05   2.138498e+05
  -5.049762e+05  -3.069910e+05
  -1.533731e+05  -5.191667e+05
   4.288496e+05  -2.746239e+05
   7.046021e+05   1.337346e+05
   3.672241e+05   3.438690e+05
  -2.662329e+05   2.785190e+05
  -5.323557e+05   1.062672e+05
  -1.657495e+05  -4.473984e+03
   3.576236e+05   1.075154e+04
   3.625868e+05   1.416380e+05
  -2.115338e+05   2.735188e+05
  -7.275214e+05   1.838932e+05
