
 $NMID
 id='ANONYMOUS ', fmtdat='(2E16.6)'
 volume=1.0
 tramp=1.0
 $END
  -3.498772e+07   1.480792e+06
  -2.324619e+07  -1.755204e+07
   8.748468e+05  -2.284356e+07
   1.537972e+07  -1.319940e+07
   1.178443e+07   3.013157e+05
  -4.802517e+04   6.125666e+06
  -6.647527e+06   1.944330e+06
  -4.216523e+06  -5.620083e+06
   2.135253e+06  -8.288986e+06
   6.216836e+06  -3.418807e+06
   5.377575e+06   4.057768e+06
   9.375132e+05   6.578175e+06
  -2.988713e+06   1.743834e+06
  -2.546706e+06  -4.965513e+06
   1.892360e+06  -6.100943e+06
   5.511483e+06  -3.428714e+05
   4.063365e+06   6.532454e+06
  -1.519409e+06   8.306346e+06
  -6.387169e+06   4.271398e+06
  -6.881497e+06  -1.454880e+06
  -3.580191e+06  -4.695615e+06
  -3.040802e+04  -4.468088e+06
   6.916067e+05  -2.761233e+06
  -1.239370e+06  -2.201277e+06
  -2.409720e+06  -3.508850e+06
   2.909496e+05  -4.729824e+06
   5.556224e+06  -3.401215e+06
   8.228679e+06   3.402196e+05
   5.078005e+06   3.549145e+06
  -9.980765e+05   3.661205e+06
  -4.075691e+06   1.112404e+06
  -1.897887e+06  -1.519590e+06
   2.216893e+06  -2.075884e+06
   3.894433e+06  -1.820964e+05
   2.248824e+06   2.747512e+06
  -4.414465e+05   4.179679e+06
  -1.847122e+06   2.401803e+06
  -1.384405e+06  -1.109788e+06
  -2.114153e+04  -2.444968e+06
   6.239707e+05   1.120456e+05
  -4.012184e+05   3.240424e+06
  -2.116962e+06   2.439630e+06
  -2.197076e+06  -1.779714e+06
   3.101926e+05  -4.093796e+06
   3.234542e+06  -1.231591e+06
   3.241641e+06   3.719208e+06
  -4.080603e+05   5.227083e+06
  -4.721825e+06   1.861937e+06
  -5.790904e+06  -2.775026e+06
  -2.508068e+06  -4.634082e+06
   2.409486e+06  -2.934537e+06
   4.837219e+06   2.407548e+05
   2.938779e+06   2.311427e+06
  -1.120349e+06   1.983328e+06
  -3.295563e+06  -2.011622e+04
  -1.827120e+06  -1.548525e+06
   1.010648e+06  -1.083728e+06
   1.750806e+06   5.749376e+05
  -1.424779e+05   1.279356e+06
  -1.880795e+06   1.653831e+05
  -9.716508e+05  -1.435231e+06
   1.809348e+06  -1.723510e+06
   3.471142e+06  -2.315807e+05
   2.108107e+06   2.163775e+06
  -1.390288e+06   4.019140e+06
  -4.450608e+06   3.861880e+06
  -5.065543e+06   1.115835e+06
  -3.215951e+06  -2.766962e+06
  -6.326195e+05  -4.986380e+06
   8.289953e+05  -4.175943e+06
   8.465139e+05  -1.975382e+06
   6.554053e+05  -9.185742e+05
   1.370177e+06  -1.250153e+06
   2.588263e+06  -1.016766e+06
   2.915110e+06   8.280879e+05
   1.606746e+06   2.745529e+06
  -6.261611e+05   2.538868e+06
  -2.235495e+06   9.747644e+04
  -1.987716e+06  -2.462083e+06
   1.357611e+05  -2.999401e+06
   2.683928e+06  -1.208610e+06
   3.636884e+06   1.423359e+06
   2.227007e+06   3.036186e+06
  -1.475290e+05   2.882811e+06
  -1.415275e+06   1.759900e+06
  -1.249987e+06   1.007092e+06
  -1.280194e+06   1.023069e+06
  -2.646921e+06   9.234139e+05
  -4.144598e+06  -2.727412e+05
  -3.532431e+06  -2.367540e+06
  -3.888807e+05  -4.037851e+06
   3.090423e+06  -3.982047e+06
   4.255749e+06  -1.993885e+06
   2.562818e+06   7.487339e+05
  -1.094828e+05   2.365392e+06
  -1.384316e+06   1.761825e+06
  -5.172301e+05  -1.761721e+05
   1.162894e+06  -1.270466e+06
   1.756834e+06  -4.151527e+05
   7.382810e+05   1.082554e+06
  -6.158423e+05   1.150967e+06
  -7.247161e+05  -3.013306e+05
   5.572276e+05  -1.168077e+06
   1.843254e+06   1.595379e+05
   1.667811e+06   2.674047e+06
  -1.812523e+05   3.844974e+06
  -2.567523e+06   2.392256e+06
  -3.874777e+06  -5.440966e+05
  -3.128862e+06  -2.745584e+06
  -8.130604e+05  -2.933200e+06
   1.309538e+06  -1.578095e+06
   1.672351e+06  -2.024146e+05
   4.988557e+05   2.472772e+04
  -4.067090e+05  -7.247835e+05
   2.433615e+05  -1.239859e+06
   1.660363e+06  -6.480708e+05
   1.965564e+06   5.903802e+05
   5.556893e+05   1.235827e+06
  -1.084758e+06   6.940765e+05
  -1.081900e+06  -3.789530e+05
   6.888293e+05  -8.391906e+05
   2.427314e+06  -1.474407e+05
   2.253825e+06   1.246272e+06
   8.415925e+04   2.275138e+06
  -2.273178e+06   2.014099e+06
  -2.822582e+06   4.882325e+05
  -1.260149e+06  -1.109979e+06
   7.788225e+05  -1.385299e+06
   1.364165e+06  -2.180675e+05
   1.464118e+05   9.734669e+05
  -1.446459e+06   7.745780e+05
  -1.778696e+06  -6.029941e+05
  -5.989183e+05  -1.613700e+06
   8.916075e+05  -1.211188e+06
   1.324096e+06   2.695116e+04
   4.472011e+05   6.924399e+05
  -6.885571e+05   1.257110e+05
  -7.435028e+05  -9.922310e+05
   5.575125e+05  -1.426614e+06
   2.010413e+06  -5.777393e+05
   2.063080e+06   9.910986e+05
   4.836927e+05   2.036371e+06
  -1.297703e+06   1.717204e+06
  -1.693740e+06   3.677533e+05
  -6.221564e+05  -8.058878e+05
   5.786065e+05  -8.886900e+05
   7.367978e+05  -1.047820e+05
  -5.472335e+03   5.476558e+05
  -6.225472e+05   4.318324e+05
  -4.269699e+05  -9.598624e+04
   2.904347e+05  -1.961820e+05
   6.366107e+05   4.372582e+05
   8.851712e+02   1.163473e+06
  -1.289397e+06   1.012211e+06
  -2.116315e+06  -2.827103e+05
  -1.563663e+06  -1.874869e+06
   9.998869e+04  -2.498437e+06
   1.581704e+06  -1.649219e+06
   1.851705e+06  -7.085055e+04
   1.129663e+06   9.838279e+05
   4.349657e+05   9.576006e+05
   3.380382e+05   4.014681e+05
   4.483874e+05   2.212252e+05
   9.586308e+04   6.397098e+05
  -7.748782e+05   9.899788e+05
  -1.484465e+06   5.125458e+05
  -1.249712e+06  -7.079586e+05
   7.454289e+04  -1.654876e+06
   1.703644e+06  -1.297061e+06
   2.370818e+06   3.382401e+05
   1.353476e+06   2.033398e+06
  -7.502680e+05   2.430293e+06
  -2.403484e+06   1.280032e+06
  -2.487049e+06  -3.782900e+05
  -1.269691e+06  -1.290423e+06
   2.581061e+04  -1.162026e+06
   5.007454e+05  -7.265717e+05
   2.987130e+05  -7.565306e+05
   1.735813e+05  -1.178000e+06
   5.779238e+05  -1.218315e+06
   1.216729e+06  -3.436356e+05
   1.371743e+06   1.049311e+06
   6.359093e+05   1.907011e+06
  -5.851764e+05   1.490152e+06
  -1.320309e+06   9.423348e+04
  -9.291490e+05  -1.184691e+06
   2.049594e+05  -1.417516e+06
   1.010225e+06  -6.087465e+05
   8.296532e+05   4.432264e+05
   7.798313e+04   9.642477e+05
  -3.078796e+05   8.382433e+05
   1.775940e+04   5.025362e+05
   4.210436e+05   3.651791e+05
   5.584594e+04   4.053493e+05
  -1.085595e+06   2.917636e+05
  -2.011511e+06  -2.001811e+05
  -1.686783e+06  -9.053226e+05
  -1.480910e+05  -1.360348e+06
   1.416273e+06  -1.187240e+06
   1.789718e+06  -4.574259e+05
   9.080250e+05   2.971112e+05
  -1.762895e+05   5.116283e+05
  -4.713459e+05   1.233004e+05
   2.588027e+03  -3.314996e+05
   4.911786e+05  -2.564572e+05
   4.858702e+05   3.292486e+05
   1.732716e+05   7.621311e+05
   8.419811e+03   4.953124e+05
   1.452502e+05  -1.853430e+05
   3.573086e+05  -4.159151e+05
   3.130182e+05   2.088204e+05
  -1.545508e+05   1.052384e+06
  -8.592330e+05   1.102735e+06
  -1.240539e+06   1.568771e+05
  -7.699713e+05  -9.006378e+05
   3.743507e+05  -1.066911e+06
   1.188418e+06  -2.836707e+05
   7.558481e+05   5.882901e+05
  -6.529525e+05   7.156199e+05
  -1.672315e+06   4.547780e+04
  -1.221699e+06  -7.947110e+05
   3.273401e+05  -1.124757e+06
   1.531548e+06  -7.267689e+05
   1.370811e+06   4.509921e+04
   2.234250e+05   5.442167e+05
  -6.343358e+05   3.613830e+05
  -3.670433e+05  -2.470440e+05
   6.300771e+05  -5.058949e+05
   1.204406e+06   1.159892e+05
   6.358507e+05   1.225769e+06
  -6.528785e+05   1.728212e+06
  -1.542599e+06   8.956317e+05
  -1.316551e+06  -7.667866e+05
  -2.702096e+05  -1.859501e+06
   7.055641e+05  -1.424391e+06
   9.790841e+05   6.951779e+04
   5.708042e+05   1.196209e+06
  -8.747772e+04   1.058600e+06
  -5.458391e+05   1.507781e+05
  -5.661411e+05  -3.822416e+05
  -2.511770e+05  -1.563621e+05
  -1.605408e+04   1.231001e+05
  -1.910973e+05  -2.434462e+05
  -5.262684e+05  -9.524569e+05
  -3.361184e+05  -1.117668e+06
   6.144146e+05  -4.520857e+05
   1.556813e+06   4.173401e+05
   1.442643e+06   8.041192e+05
   2.311881e+05   6.937115e+05
  -9.362221e+05   4.629419e+05
  -1.033956e+06   2.597368e+05
  -3.104671e+05   3.040499e+03
   1.695771e+05  -2.318584e+05
  -5.982359e+04  -2.535477e+05
  -3.702891e+05  -1.332132e+05
  -2.180661e+04  -1.419172e+05
   7.712147e+05  -2.369734e+05
   1.066844e+06   2.930048e+02
   3.372952e+05   6.852284e+05
  -9.100435e+05   1.190929e+06
  -1.661592e+06   7.717456e+05
  -1.357433e+06  -4.471007e+05
  -2.988723e+05  -1.452992e+06
   7.163311e+05  -1.411655e+06
   1.060074e+06  -5.306100e+05
   6.967468e+05   2.643540e+05
   1.122297e+05   3.634897e+05
  -1.478056e+05   2.151578e+04
   5.248948e+04  -7.860624e+04
   3.620364e+05   3.394606e+05
   3.181610e+05   8.204712e+05
  -1.784692e+05   6.866627e+05
  -7.234016e+05  -1.575684e+05
  -7.443159e+05  -1.010369e+06
  -6.182666e+04  -1.050230e+06
   8.182717e+05  -2.029142e+05
   1.064392e+06   7.799446e+05
   3.417344e+05   1.105278e+06
  -7.250291e+05   6.610063e+05
  -1.112712e+06  -6.339501e+04
  -5.189571e+05  -5.575421e+05
   2.687883e+05  -6.329304e+05
   3.116229e+05  -3.712428e+05
  -3.280955e+05  -2.647810e+04
  -6.857529e+05   5.140625e+04
  -1.355008e+05  -2.983534e+05
   8.247530e+05  -7.359994e+05
   1.211620e+06  -6.506846e+05
   7.150584e+05   1.018267e+05
  -7.693243e+04   8.679564e+05
  -4.760983e+05   8.666033e+05
  -3.618136e+05   1.259394e+05
  -3.427198e+04  -5.216620e+05
   2.461949e+05  -4.168909e+05
   3.731509e+05   2.031652e+05
   2.703134e+05   5.876013e+05
  -5.939446e+04   3.827420e+05
  -4.014725e+05  -6.114395e+04
  -4.738910e+05  -2.285220e+05
  -2.502265e+05  -5.088630e+04
   6.005826e+03   1.039458e+05
   8.157667e+04  -6.238792e+04
   6.359579e+04  -4.073742e+05
   1.620705e+05  -5.010898e+05
   3.653141e+05  -1.195498e+05
   4.009601e+05   4.540652e+05
   6.900392e+04   6.747276e+05
  -4.429693e+05   3.059751e+05
  -6.505472e+05  -3.097249e+05
  -2.475220e+05  -6.080489e+05
   4.907591e+05  -3.818045e+05
   8.724369e+05   7.925368e+04
   4.854308e+05   3.748899e+05
  -2.907454e+05   3.728557e+05
  -6.342740e+05   1.955690e+05
  -2.071983e+05   1.481736e+04
   4.252711e+05  -3.269257e+04
   4.509505e+05   1.224493e+05
  -2.188877e+05   3.492168e+05
  -8.488482e+05   3.036781e+05
