
 $NMID
 id='ANONYMOUS ', fmtdat='(2E16.6)'
 volume=1.0
 tramp=1.0
 $END
   2.896607e+07   1.347509e+06
   1.695161e+07   1.865753e+07
  -4.465067e+06   1.959700e+07
  -1.473005e+07   7.208783e+06
  -8.704563e+06  -3.869886e+06
   1.818643e+06  -4.859232e+06
   5.245015e+06   7.664190e+05
   1.353183e+06   5.245679e+06
  -3.516593e+06   4.903407e+06
  -5.179227e+06   8.892496e+05
  -3.462912e+06  -3.433442e+06
  -1.329571e+05  -4.516007e+06
   2.122910e+06  -1.261772e+06
   1.110539e+06   3.013055e+06
  -2.246757e+06   3.409733e+06
  -4.137449e+06  -8.654609e+05
  -2.087376e+06  -5.464347e+06
   2.258396e+06  -6.092169e+06
   5.381164e+06  -2.819698e+06
   5.488239e+06   1.331193e+06
   3.180420e+06   3.950245e+06
   2.042759e+05   4.356500e+06
  -1.476066e+06   3.068961e+06
  -9.075934e+05   1.586076e+06
   4.295108e+05   1.427293e+06
  -1.950467e+05   2.237691e+06
  -3.071884e+06   1.955728e+06
  -5.028410e+06  -2.266026e+05
  -3.447763e+06  -2.399931e+06
   1.120809e+05  -2.506005e+06
   2.018744e+06  -1.023999e+06
   1.142470e+06   1.799912e+05
  -5.805031e+05   3.906396e+05
  -1.322693e+06  -2.978163e+04
  -9.910772e+05  -9.738505e+05
  -6.829234e+04  -2.059185e+06
   1.052544e+06  -1.873972e+06
   1.519832e+06   1.294516e+05
   7.063170e+05   1.814950e+06
  -3.378266e+05   8.708451e+05
   7.585702e+04  -1.319667e+06
   1.444547e+06  -1.133547e+06
   1.232658e+06   1.736822e+06
  -1.350027e+06   3.196613e+06
  -3.567665e+06   4.740294e+05
  -2.494023e+06  -3.646685e+06
   1.148142e+06  -4.382551e+06
   3.906081e+06  -1.059394e+06
   3.537245e+06   2.591373e+06
   7.995440e+05   3.314028e+06
  -1.971370e+06   1.354451e+06
  -2.812907e+06  -1.008542e+06
  -1.234888e+06  -1.972723e+06
   1.312155e+06  -1.124595e+06
   2.363182e+06   5.937765e+05
   9.789239e+05   1.474142e+06
  -9.255475e+05   6.685521e+05
  -9.088899e+05  -6.204935e+05
   7.167234e+05  -5.335064e+05
   1.350048e+06   9.093850e+05
  -2.576607e+05   1.812232e+06
  -2.397499e+06   9.825259e+05
  -2.787805e+06  -7.712076e+05
  -1.159513e+06  -2.133777e+06
   1.137788e+06  -2.683956e+06
   2.850763e+06  -2.302279e+06
   3.302245e+06  -6.387810e+05
   2.225349e+06   1.816131e+06
   2.356375e+05   3.263094e+06
  -1.152084e+06   2.505787e+06
  -1.019539e+06   6.904033e+05
  -2.097317e+05  -1.013579e+05
  -1.642905e+05   4.266036e+05
  -9.690297e+05   7.263257e+05
  -1.438821e+06  -1.195677e+05
  -8.745419e+05  -1.171811e+06
   1.890608e+05  -1.117850e+06
   8.777171e+05   5.117711e+04
   7.627286e+05   1.266158e+06
  -1.845496e+05   1.567518e+06
  -1.537394e+06   7.056887e+05
  -2.260953e+06  -8.406008e+05
  -1.517186e+06  -2.073249e+06
   1.501655e+05  -2.177037e+06
   1.241826e+06  -1.349302e+06
   1.195127e+06  -5.662862e+05
   1.025184e+06  -3.337424e+05
   1.638765e+06  -1.389037e+05
   2.335406e+06   6.196728e+05
   1.758467e+06   1.678480e+06
  -1.507707e+05   2.253880e+06
  -1.964570e+06   1.932760e+06
  -2.372151e+06   8.844670e+05
  -1.370905e+06  -3.944805e+05
   1.939831e+04  -1.194302e+06
   7.054896e+05  -9.414516e+05
   2.808558e+05   5.588499e+04
  -6.664330e+05   6.297289e+05
  -1.040913e+06   1.145126e+05
  -4.234921e+05  -6.781889e+05
   3.510700e+05  -5.580835e+05
   2.270719e+05   2.597545e+05
  -6.335728e+05   3.821961e+05
  -1.027125e+06  -7.447344e+05
  -2.743076e+05  -1.968210e+06
   1.018531e+06  -1.899299e+06
   1.845155e+06  -5.407586e+05
   1.818051e+06   9.732498e+05
   1.117848e+06   1.700686e+06
   8.218271e+04   1.489091e+06
  -7.713524e+05   7.208725e+05
  -8.688338e+05   2.250340e+04
  -2.661225e+05  -5.168846e+04
   1.520707e+05   4.316345e+05
  -2.880394e+05   7.094830e+05
  -1.059694e+06   2.226834e+05
  -1.067016e+06  -5.808438e+05
  -1.445486e+05  -7.921029e+05
   6.757478e+05  -2.465778e+05
   4.655888e+05   3.180437e+05
  -5.191709e+05   2.602979e+05
  -1.220689e+06  -3.075425e+05
  -8.983667e+05  -8.833032e+05
   2.660368e+05  -1.098390e+06
   1.381024e+06  -7.787504e+05
   1.539940e+06   1.000205e+04
   5.996415e+05   7.520079e+05
  -5.687895e+05   7.643732e+05
  -8.471078e+05   2.938556e+04
  -4.984075e+04  -5.853465e+05
   8.658504e+05  -3.149487e+05
   9.018901e+05   5.239541e+05
   9.794473e+04   9.355339e+05
  -6.617020e+05   4.890838e+05
  -6.876965e+05  -2.398600e+05
  -9.813191e+04  -4.506078e+05
   4.398584e+05   1.078934e+04
   3.412134e+05   6.190840e+05
  -4.010096e+05   7.429780e+05
  -1.129043e+06   1.761605e+05
  -1.050592e+06  -6.918342e+05
  -9.310498e+04  -1.156489e+06
   8.787580e+05  -8.219808e+05
   9.594792e+05  -2.234345e+04
   2.287815e+05   5.059517e+05
  -4.094318e+05   4.032525e+05
  -3.508864e+05  -6.459738e+03
   1.037508e+05  -2.050822e+05
   3.074864e+05  -7.727036e+04
   7.023926e+04   7.521727e+04
  -2.618130e+05  -4.237261e+04
  -2.705940e+05  -3.996381e+05
   1.724273e+05  -6.539787e+05
   8.131717e+05  -4.194271e+05
   1.121747e+06   3.464612e+05
   6.926068e+05   1.149493e+06
  -2.612568e+05   1.315601e+06
  -9.783990e+05   6.834403e+05
  -9.325431e+05  -1.738645e+05
  -4.156158e+05  -5.613717e+05
  -1.129754e+05  -3.909448e+05
  -2.278187e+05  -1.400866e+05
  -3.272569e+05  -1.891393e+05
  -1.827431e+04  -4.199669e+05
   5.339790e+05  -4.541191e+05
   8.278309e+05  -9.687508e+04
   5.399516e+05   4.722831e+05
  -2.325647e+05   8.035604e+05
  -1.020552e+06   4.928885e+05
  -1.212169e+06  -4.009919e+05
  -5.052016e+05  -1.226330e+06
   6.868068e+05  -1.251634e+06
   1.460286e+06  -4.307220e+05
   1.266686e+06   4.996170e+05
   4.533981e+05   8.087281e+05
  -1.814622e+05   5.231222e+05
  -2.631013e+05   2.507600e+05
  -9.195941e+04   3.856193e+05
  -1.216625e+05   6.945200e+05
  -4.297990e+05   6.675851e+05
  -7.215945e+05   1.057714e+05
  -6.681137e+05  -6.665781e+05
  -1.937973e+05  -1.068896e+06
   4.247545e+05  -7.490994e+05
   7.074173e+05   7.723749e+04
   3.780176e+05   7.530966e+05
  -2.910002e+05   7.528602e+05
  -6.701122e+05   1.704481e+05
  -4.234991e+05  -4.227528e+05
   1.154144e+05  -5.932495e+05
   3.378270e+05  -4.151120e+05
   7.565724e+04  -2.311658e+05
  -2.151785e+05  -2.065239e+05
  -9.871417e+03  -2.127602e+05
   6.436794e+05  -5.649514e+04
   1.115555e+06   2.918688e+05
   8.331595e+05   6.609020e+05
  -9.461229e+04   7.935760e+05
  -9.317431e+05   5.449799e+05
  -1.026286e+06   5.222965e+04
  -4.425310e+05  -3.202939e+05
   1.682568e+05  -3.016168e+05
   2.878367e+05   5.805656e+03
   1.800334e+03   2.275543e+05
  -2.546244e+05   1.130829e+05
  -2.447136e+05  -2.121927e+05
  -9.510280e+04  -4.007620e+05
  -2.417025e+04  -2.584421e+05
  -8.807693e+04   4.452793e+04
  -1.807698e+05   1.375555e+05
  -1.410045e+05  -1.466917e+05
   1.374285e+05  -5.305613e+05
   5.539000e+05  -5.349857e+05
   7.516803e+05  -2.979276e+04
   4.152402e+05   5.389481e+05
  -2.832006e+05   6.017500e+05
  -6.995338e+05   1.212430e+05
  -3.672194e+05  -3.537737e+05
   4.237817e+05  -3.185688e+05
   8.713615e+05   1.474677e+05
   5.049568e+05   5.447185e+05
  -3.308751e+05   5.248574e+05
  -8.639965e+05   1.730794e+05
  -6.724639e+05  -1.857528e+05
  -4.096634e+04  -2.948376e+05
   3.769260e+05  -1.102924e+05
   1.971532e+05   1.811916e+05
  -3.455327e+05   2.496150e+05
  -6.376431e+05  -1.088750e+05
  -3.005364e+05  -6.760169e+05
   4.117414e+05  -8.920119e+05
   8.550953e+05  -4.006376e+05
   6.433888e+05   4.836786e+05
   9.039580e+03   9.923450e+05
  -4.847307e+05   6.664635e+05
  -5.034690e+05  -1.540344e+05
  -1.665976e+05  -6.861181e+05
   1.852395e+05  -5.254501e+05
   3.187097e+05  -1.428274e+04
   2.297360e+05   2.396145e+05
   7.581583e+04   9.049579e+04
   3.533669e+04  -5.068468e+04
   1.464735e+05   1.714417e+05
   2.285031e+05   5.568680e+05
   3.692366e+04   6.093799e+05
  -4.215871e+05   1.839983e+05
  -7.819401e+05  -3.398450e+05
  -6.504672e+05  -5.391655e+05
  -6.323607e+04  -3.961894e+05
   4.865170e+05  -1.766602e+05
   5.513153e+05  -4.042600e+04
   2.031894e+05   4.691780e+04
  -8.953676e+04   1.135152e+05
  -4.045110e+04   1.149662e+05
   1.293784e+05   7.138476e+04
   2.239069e+04   7.301058e+04
  -3.659951e+05   8.754414e+04
  -5.725496e+05  -6.055526e+04
  -2.119353e+05  -3.933702e+05
   5.138831e+05  -5.977526e+05
   9.731858e+05  -3.341400e+05
   7.567441e+05   2.985896e+05
   7.731997e+04   7.822682e+05
  -4.949402e+05   7.189192e+05
  -6.005727e+05   2.448787e+05
  -3.420855e+05  -1.596259e+05
  -5.771238e+04  -2.012112e+05
   3.063900e+04  -3.112330e+04
  -5.346611e+04   1.566935e+03
  -1.434308e+05  -2.244706e+05
  -8.834204e+04  -4.602576e+05
   1.316001e+05  -3.633168e+05
   3.605256e+05   9.820812e+04
   3.556356e+05   5.505479e+05
   2.052216e+04   5.647788e+05
  -4.132149e+05   1.014259e+05
  -5.269305e+05  -4.381159e+05
  -1.413813e+05  -6.118546e+05
   4.197523e+05  -3.409541e+05
   6.129786e+05   9.288214e+04
   2.702378e+05   3.667736e+05
  -1.874692e+05   3.668269e+05
  -2.343088e+05   1.897554e+05
   1.238703e+05   2.030335e+04
   3.553567e+05   1.225379e+04
   6.902121e+04   1.762762e+05
  -4.892844e+05   3.282068e+05
  -7.318759e+05   2.292390e+05
  -4.232471e+05  -1.378458e+05
   9.456490e+04  -4.750515e+05
   3.529406e+05  -4.506241e+05
   2.468210e+05  -8.012694e+04
   7.357712e+03   2.584431e+05
  -1.483934e+05   2.308055e+05
  -1.795765e+05  -9.046846e+04
  -1.110699e+05  -3.286466e+05
   4.321499e+04  -2.382569e+05
   2.100773e+05   4.036878e+04
   2.535932e+05   1.824620e+05
   1.318073e+05   7.070229e+04
  -2.001634e+04  -8.824915e+04
  -5.257287e+04  -4.231951e+04
  -2.730013e+03   1.808445e+05
  -3.128749e+04   2.979125e+05
  -1.698539e+05   1.166994e+05
  -2.375459e+05  -2.127485e+05
  -6.873884e+04  -3.517622e+05
   2.323665e+05  -1.538036e+05
   3.530825e+05   1.767762e+05
   1.130091e+05   3.209004e+05
  -2.989822e+05   1.782294e+05
  -4.836670e+05  -7.819746e+04
  -2.465611e+05  -2.293856e+05
   1.769750e+05  -2.119512e+05
   3.592550e+05  -1.034432e+05
   1.448901e+05  -3.752972e+03
  -1.779592e+05   2.151874e+04
  -2.096268e+05  -4.685452e+04
   1.018523e+05  -1.395224e+05
   4.065457e+05  -1.037429e+05
