
 $NMID
 id='ANONYMOUS ', fmtdat='(2E16.6)'
 volume=1.0
 tramp=1.0
 $END
  -4.783063e+07  -2.818965e+05
  -2.920435e+07  -2.895565e+07
   5.641975e+06  -3.224043e+07
   2.335616e+07  -1.337967e+07
   1.462400e+07   5.089440e+06
  -2.362769e+06   8.108847e+06
  -8.669448e+06  -4.152296e+05
  -2.986513e+06  -8.366288e+06
   5.056581e+06  -8.682022e+06
   8.426516e+06  -2.185735e+06
   6.132423e+06   5.476548e+06
   6.188033e+05   7.687218e+06
  -3.565594e+06   2.250659e+06
  -2.308767e+06  -5.166945e+06
   3.293469e+06  -6.121107e+06
   6.920057e+06   9.381525e+05
   3.999122e+06   8.854606e+06
  -3.184214e+06   1.029251e+07
  -8.711381e+06   5.045295e+06
  -9.168301e+06  -1.935196e+06
  -5.363377e+06  -6.397785e+06
  -4.349120e+05  -7.046794e+06
   2.144324e+06  -4.890777e+06
   9.545540e+05  -2.592521e+06
  -1.246403e+06  -2.595394e+06
   1.226056e+05  -4.123709e+06
   5.314948e+06  -3.689995e+06
   8.787299e+06   4.682116e+04
   6.050627e+06   3.918419e+06
  -2.173009e+05   4.356437e+06
  -3.655460e+06   1.865227e+06
  -2.088550e+06  -4.850942e+05
   1.167984e+06  -1.084772e+06
   2.647059e+06  -1.701905e+05
   1.963465e+06   1.844065e+06
   1.604492e+05   3.779589e+06
  -1.784536e+06   3.193429e+06
  -2.480270e+06  -3.827439e+05
  -1.091246e+06  -3.077656e+06
   6.243071e+05  -1.231611e+06
  -4.399777e+04   2.538713e+06
  -2.358571e+06   2.172319e+06
  -2.247532e+06  -2.727131e+06
   1.803935e+06  -5.338587e+06
   5.629144e+06  -1.030555e+06
   4.313009e+06   5.765071e+06
  -1.492223e+06   7.238150e+06
  -6.379881e+06   2.053585e+06
  -6.262969e+06  -3.969610e+06
  -1.819871e+06  -5.495491e+06
   3.146698e+06  -2.601408e+06
   4.950579e+06   1.270819e+06
   2.419997e+06   3.137067e+06
  -2.010003e+06   2.042039e+06
  -4.008084e+06  -7.128908e+05
  -1.810070e+06  -2.334814e+06
   1.473213e+06  -1.212461e+06
   1.663165e+06   9.241661e+05
  -9.859345e+05   1.021639e+06
  -2.272939e+06  -1.173714e+06
   1.127016e+05  -2.803701e+06
   3.671461e+06  -1.794576e+06
   4.608270e+06   9.118579e+05
   2.133888e+06   3.358133e+06
  -1.728688e+06   4.638368e+06
  -4.761298e+06   4.192325e+06
  -5.630410e+06   1.321872e+06
  -3.892991e+06  -2.996357e+06
  -6.518883e+05  -5.585179e+06
   1.632412e+06  -4.402339e+06
   1.529929e+06  -1.390463e+06
   3.810244e+05  -5.806828e+04
   4.436832e+05  -9.148129e+05
   1.842336e+06  -1.351763e+06
   2.660692e+06   2.040952e+05
   1.685959e+06   2.143914e+06
  -2.820910e+05   2.129813e+06
  -1.693890e+06   5.270701e+04
  -1.591820e+06  -2.199998e+06
   1.607302e+05  -2.829741e+06
   2.666914e+06  -1.353622e+06
   3.984096e+06   1.329513e+06
   2.704388e+06   3.453229e+06
  -1.374373e+05   3.655522e+06
  -1.971469e+06   2.302029e+06
  -1.893266e+06   1.038230e+06
  -1.654029e+06   7.230350e+05
  -2.796718e+06   4.924900e+05
  -4.129546e+06  -7.531111e+05
  -3.284128e+06  -2.692824e+06
  -3.721211e+04  -3.971950e+06
   3.220231e+06  -3.655706e+06
   4.120091e+06  -1.827895e+06
   2.489149e+06   6.017143e+05
   5.304238e+04   2.172484e+06
  -1.207961e+06   1.747163e+06
  -5.176714e+05  -9.422319e+04
   1.120761e+06  -1.200621e+06
   1.812443e+06  -3.225354e+05
   7.958754e+05   1.150057e+06
  -5.754583e+05   1.056194e+06
  -4.885731e+05  -3.905070e+05
   9.468223e+05  -8.018643e+05
   1.818531e+06   9.934994e+05
   8.323275e+05   3.231808e+06
  -1.305226e+06   3.452385e+06
  -3.006483e+06   1.350353e+06
  -3.357886e+06  -1.316639e+06
  -2.320852e+06  -2.816045e+06
  -4.055904e+05  -2.653803e+06
   1.285254e+06  -1.387488e+06
   1.556155e+06  -1.405010e+05
   4.771103e+05   5.917159e+04
  -3.303071e+05  -7.370223e+05
   3.997178e+05  -1.262751e+06
   1.802632e+06  -5.181788e+05
   1.931279e+06   8.539981e+05
   3.742476e+05   1.347537e+06
  -1.141172e+06   5.434816e+05
  -8.981406e+05  -4.708985e+05
   8.229582e+05  -5.660115e+05
   2.195719e+06   2.923014e+05
   1.774524e+06   1.392279e+06
  -2.556453e+05   2.001032e+06
  -2.316330e+06   1.601798e+06
  -2.720296e+06   2.036280e+05
  -1.147363e+06  -1.234198e+06
   9.029410e+05  -1.392843e+06
   1.464630e+06  -1.420685e+05
   1.436461e+05   1.019405e+06
  -1.480182e+06   6.653379e+05
  -1.658482e+06  -7.836164e+05
  -3.300672e+05  -1.621152e+06
   1.061161e+06  -9.763290e+05
   1.242097e+06   2.838306e+05
   2.649671e+05   7.579104e+05
  -7.495056e+05   4.706288e+04
  -6.756457e+05  -1.033229e+06
   6.102985e+05  -1.355714e+06
   1.966914e+06  -4.520584e+05
   1.937486e+06   1.084968e+06
   3.155652e+05   2.019764e+06
  -1.428550e+06   1.560230e+06
  -1.681888e+06   1.758935e+05
  -4.859724e+05  -8.537776e+05
   6.558076e+05  -7.781363e+05
   6.445397e+05  -4.749861e+04
  -1.147052e+05   4.007064e+05
  -5.347528e+05   2.289493e+05
  -1.919957e+05  -9.968616e+04
   4.104864e+05   1.017595e+04
   5.215679e+05   6.197203e+05
  -1.934298e+05   1.149118e+06
  -1.358461e+06   8.462358e+05
  -2.015035e+06  -4.543492e+05
  -1.368233e+06  -1.928971e+06
   2.838168e+05  -2.361010e+06
   1.628662e+06  -1.363224e+06
   1.685078e+06   1.527855e+05
   8.556565e+05   9.449568e+05
   2.870030e+05   7.307426e+05
   4.026781e+05   2.676879e+05
   5.545339e+05   2.911812e+05
   6.744030e+04   7.111025e+05
  -8.650243e+05   8.656981e+05
  -1.437072e+06   2.996966e+05
  -1.037183e+06  -7.529722e+05
   2.717995e+05  -1.464063e+06
   1.721044e+06  -1.025097e+06
   2.196023e+06   5.314174e+05
   1.071551e+06   2.076452e+06
  -1.011596e+06   2.282516e+06
  -2.483975e+06   9.675149e+05
  -2.302159e+06  -6.722701e+05
  -9.529425e+05  -1.344936e+06
   2.085562e+05  -9.744678e+05
   4.417587e+05  -5.237882e+05
   1.621275e+05  -7.091666e+05
   1.605096e+05  -1.221557e+06
   6.713516e+05  -1.208197e+06
   1.246148e+06  -2.683428e+05
   1.261159e+06   1.092903e+06
   4.815941e+05   1.863327e+06
  -6.535280e+05   1.380947e+06
  -1.259014e+06  -3.219673e+04
  -7.705804e+05  -1.257801e+06
   3.889387e+05  -1.353665e+06
   1.117799e+06  -4.077102e+05
   7.801149e+05   6.448030e+05
  -1.036655e+05   1.022492e+06
  -4.974221e+05   7.659984e+05
  -7.988664e+04   4.281552e+05
   4.005197e+05   3.482403e+05
   4.009042e+04   3.782259e+05
  -1.109812e+06   1.822970e+05
  -1.979182e+06  -3.669566e+05
  -1.549781e+06  -1.039769e+06
   4.233196e+04  -1.381878e+06
   1.543284e+06  -1.064588e+06
   1.785683e+06  -2.430141e+05
   8.196954e+05   4.684997e+05
  -2.499749e+05   5.324358e+05
  -4.931722e+05   3.718444e+04
  -1.196272e+04  -3.844226e+05
   4.498550e+05  -2.288221e+05
   4.547430e+05   3.466389e+05
   1.956934e+05   7.123068e+05
   5.283495e+04   4.644135e+05
   1.452614e+05  -1.069434e+05
   3.090332e+05  -2.949357e+05
   2.679023e+05   2.328790e+05
  -1.826460e+05   9.631759e+05
  -9.042247e+05   1.008509e+06
  -1.295146e+06   1.228555e+05
  -7.723143e+05  -9.076232e+05
   4.298404e+05  -1.073526e+06
   1.210072e+06  -2.726372e+05
   6.925352e+05   5.869591e+05
  -6.982326e+05   6.195914e+05
  -1.562754e+06  -1.283991e+05
  -9.930613e+05  -8.751151e+05
   4.823380e+05  -9.803139e+05
   1.494726e+06  -4.575554e+05
   1.226916e+06   2.106946e+05
   1.272133e+05   5.159646e+05
  -6.427846e+05   2.568331e+05
  -3.613136e+05  -2.879373e+05
   5.933375e+05  -4.783462e+05
   1.145100e+06   1.286369e+05
   5.991405e+05   1.174088e+06
  -6.443635e+05   1.630382e+06
  -1.480802e+06   8.054411e+05
  -1.202679e+06  -7.836944e+05
  -1.424982e+05  -1.762165e+06
   7.662205e+05  -1.256225e+06
   9.091536e+05   1.881191e+05
   4.014884e+05   1.182442e+06
  -2.303547e+05   9.580032e+05
  -5.505116e+05   7.484704e+04
  -4.558753e+05  -3.905306e+05
  -1.671365e+05  -1.486071e+05
  -4.712643e+04   9.789263e+04
  -2.510473e+05  -2.809614e+05
  -4.661204e+05  -9.540187e+05
  -1.695314e+05  -1.070405e+06
   6.952783e+05  -3.760591e+05
   1.433010e+06   4.988627e+05
   1.242835e+06   8.617640e+05
   1.640843e+05   6.871637e+05
  -8.576584e+05   3.801171e+05
  -9.748060e+05   1.528246e+05
  -3.458501e+05  -5.148332e+04
   1.522817e+05  -2.137921e+05
   3.178574e+04  -2.118075e+05
  -2.655352e+05  -1.128154e+05
  -4.080330e+04  -1.299828e+05
   6.642699e+05  -2.017057e+05
   1.020722e+06   4.225254e+04
   3.894577e+05   6.780997e+05
  -8.619241e+05   1.117473e+06
  -1.671839e+06   6.910248e+05
  -1.353139e+06  -4.579240e+05
  -2.267552e+05  -1.382705e+06
   7.825913e+05  -1.324110e+06
   1.036986e+06  -4.925448e+05
   6.332033e+05   2.507100e+05
   1.176319e+05   3.514444e+05
  -7.485614e+04   5.257776e+04
   8.112547e+04  -2.225026e+04
   2.902144e+05   3.680641e+05
   2.240209e+05   7.999167e+05
  -1.933788e+05   6.570757e+05
  -6.609827e+05  -1.419759e+05
  -6.908492e+05  -9.509082e+05
  -8.053759e+04  -1.004949e+06
   7.412495e+05  -2.141967e+05
   9.875996e+05   7.342199e+05
   3.104306e+05   1.070542e+06
  -7.111404e+05   6.400953e+05
  -1.088034e+06  -9.946721e+04
  -5.054978e+05  -6.051220e+05
   2.919903e+05  -6.515904e+05
   3.743750e+05  -3.539839e+05
  -2.447842e+05  -2.201092e+04
  -6.369472e+05   2.033445e+04
  -1.352229e+05  -3.023055e+05
   8.252907e+05  -6.443917e+05
   1.245512e+06  -5.051103e+05
   7.409533e+05   1.837649e+05
  -1.139724e+05   8.459821e+05
  -5.553842e+05   8.268140e+05
  -4.124971e+05   1.500761e+05
  -3.674570e+04  -4.690779e+05
   2.424821e+05  -4.171434e+05
   3.366513e+05   1.560488e+05
   2.341421e+05   5.703330e+05
  -5.841911e+04   4.125738e+05
  -3.793347e+05  -5.410734e+04
  -4.607526e+05  -2.820659e+05
  -2.377958e+05  -9.812172e+04
   3.207443e+04   1.429295e+05
   8.733830e+04   3.928893e+04
   3.699542e+03  -3.416319e+05
   6.232565e+04  -5.248111e+05
   3.105065e+05  -1.983540e+05
   4.304262e+05   3.787593e+05
   1.330191e+05   6.295636e+05
  -4.056407e+05   2.947987e+05
  -6.389581e+05  -2.871222e+05
  -2.322104e+05  -5.654659e+05
   5.035314e+05  -3.470654e+05
   8.584549e+05   9.222914e+04
   4.593803e+05   3.790837e+05
  -2.930357e+05   3.834121e+05
  -6.256434e+05   2.080943e+05
  -2.432469e+05   1.561439e+04
   3.385081e+05  -5.257972e+04
   3.929582e+05   7.539846e+04
  -1.755958e+05   2.781435e+05
  -7.355347e+05   2.421341e+05
