
 $NMID
 id='ANONYMOUS ', fmtdat='(2E16.6)'
 volume=1.0
 tramp=1.0
 $END
  -5.174326e+07   5.539391e+05
  -3.171224e+07  -3.119463e+07
   5.998939e+06  -3.495217e+07
   2.501174e+07  -1.430043e+07
   1.547373e+07   5.694113e+06
  -2.658991e+06   8.662615e+06
  -9.153379e+06  -6.274852e+05
  -3.022438e+06  -8.910177e+06
   5.386079e+06  -9.040903e+06
   8.911605e+06  -2.245276e+06
   6.625079e+06   5.699921e+06
   8.559438e+05   8.101986e+06
  -3.733258e+06   2.543442e+06
  -2.579561e+06  -5.252905e+06
   3.370934e+06  -6.374597e+06
   7.353206e+06   9.968703e+05
   4.351028e+06   9.393085e+06
  -3.278694e+06   1.102609e+07
  -9.269026e+06   5.581857e+06
  -9.963966e+06  -1.850032e+06
  -6.039862e+06  -6.836462e+06
  -6.349826e+05  -7.786073e+06
   2.442119e+06  -5.427642e+06
   1.299965e+06  -2.601730e+06
  -1.288229e+06  -2.351447e+06
  -1.618586e+05  -4.180066e+06
   5.304862e+06  -4.156578e+06
   9.230474e+06  -3.843547e+05
   6.600821e+06   3.918227e+06
   6.677682e+04   4.719963e+06
  -3.685813e+06   2.285693e+06
  -2.315633e+06  -2.279411e+05
   8.728012e+05  -1.093808e+06
   2.501436e+06  -4.180480e+05
   2.153199e+06   1.619215e+06
   4.994030e+05   3.885127e+06
  -1.750715e+06   3.544747e+06
  -2.853856e+06  -2.406833e+05
  -1.419295e+06  -3.347088e+06
   7.091099e+05  -1.553214e+06
   2.089354e+05   2.534254e+06
  -2.355246e+06   2.293836e+06
  -2.382759e+06  -2.892453e+06
   1.995748e+06  -5.708824e+06
   6.201054e+06  -1.086826e+06
   4.758721e+06   6.233413e+06
  -1.574047e+06   7.839889e+06
  -6.828604e+06   2.323099e+06
  -6.657639e+06  -4.066604e+06
  -1.948358e+06  -5.696642e+06
   3.236042e+06  -2.718460e+06
   5.114532e+06   1.273580e+06
   2.487365e+06   3.233387e+06
  -2.151114e+06   2.140754e+06
  -4.252293e+06  -7.354714e+05
  -1.912113e+06  -2.471766e+06
   1.563632e+06  -1.308143e+06
   1.718595e+06   9.319220e+05
  -1.103389e+06   9.808784e+05
  -2.360369e+06  -1.387148e+06
   3.052550e+05  -3.061651e+06
   4.063508e+06  -1.880872e+06
   4.920779e+06   1.032643e+06
   2.269703e+06   3.594482e+06
  -1.680411e+06   4.970610e+06
  -4.810605e+06   4.607342e+06
  -5.887412e+06   1.631804e+06
  -4.281626e+06  -3.015140e+06
  -8.978242e+05  -5.862370e+06
   1.642593e+06  -4.605662e+06
   1.587248e+06  -1.343992e+06
   2.612419e+05   5.421224e+04
   2.128760e+05  -9.928872e+05
   1.735152e+06  -1.620518e+06
   2.775713e+06  -5.722047e+04
   1.920210e+06   2.033928e+06
  -8.743615e+04   2.175011e+06
  -1.647576e+06   1.782974e+05
  -1.706694e+06  -2.115743e+06
   1.715412e+04  -2.904091e+06
   2.705098e+06  -1.560276e+06
   4.262694e+06   1.195542e+06
   3.019292e+06   3.562817e+06
  -3.144881e+04   3.934587e+06
  -2.079802e+06   2.529343e+06
  -2.030217e+06   1.115137e+06
  -1.718384e+06   7.406672e+05
  -2.859958e+06   5.544088e+05
  -4.266354e+06  -6.638490e+05
  -3.457312e+06  -2.663979e+06
  -1.747734e+05  -4.066635e+06
   3.148913e+06  -3.871561e+06
   4.136031e+06  -2.076683e+06
   2.606464e+06   4.673544e+05
   2.088231e+05   2.226185e+06
  -1.131251e+06   1.881192e+06
  -5.478873e+05  -5.766475e+04
   1.087854e+06  -1.288961e+06
   1.862659e+06  -4.000767e+05
   8.844373e+05   1.169657e+06
  -5.284669e+05   1.107456e+06
  -4.733459e+05  -3.759607e+05
   9.799414e+05  -7.737835e+05
   1.851514e+06   1.091159e+06
   8.156321e+05   3.331983e+06
  -1.353361e+06   3.463541e+06
  -3.032334e+06   1.313679e+06
  -3.375379e+06  -1.293222e+06
  -2.385787e+06  -2.740678e+06
  -5.007305e+05  -2.639089e+06
   1.240538e+06  -1.466823e+06
   1.577022e+06  -2.210153e+05
   4.895808e+05   4.217224e+04
  -3.628977e+05  -7.424230e+05
   3.831519e+05  -1.317173e+06
   1.855698e+06  -5.877859e+05
   2.011043e+06   8.354812e+05
   4.093449e+05   1.381223e+06
  -1.152263e+06   5.855425e+05
  -9.110338e+05  -4.443504e+05
   8.244329e+05  -5.644656e+05
   2.205535e+06   2.545670e+05
   1.804356e+06   1.337782e+06
  -2.040975e+05   2.003133e+06
  -2.290148e+06   1.692343e+06
  -2.761691e+06   3.011277e+05
  -1.216119e+06  -1.234222e+06
   8.903661e+05  -1.476312e+06
   1.521012e+06  -1.954457e+05
   1.937066e+05   1.056829e+06
  -1.496470e+06   7.381621e+05
  -1.716971e+06  -7.525709e+05
  -3.707369e+05  -1.639260e+06
   1.060974e+06  -1.003929e+06
   1.261450e+06   2.732866e+05
   2.715341e+05   7.675761e+05
  -7.784644e+05   6.545355e+04
  -7.345057e+05  -1.038458e+06
   5.686208e+05  -1.416369e+06
   1.995198e+06  -5.457514e+05
   2.027872e+06   1.034120e+06
   3.963945e+05   2.057459e+06
  -1.412392e+06   1.644606e+06
  -1.712904e+06   2.301336e+05
  -5.151452e+05  -8.566909e+05
   6.453997e+05  -8.102689e+05
   6.428837e+05  -7.821165e+04
  -1.061100e+05   3.839556e+05
  -5.082048e+05   2.341075e+05
  -1.603504e+05  -7.327564e+04
   4.288617e+05   3.891777e+04
   5.329637e+05   6.389366e+05
  -1.779925e+05   1.179078e+06
  -1.362504e+06   9.063552e+05
  -2.074559e+06  -3.936635e+05
  -1.470673e+06  -1.922167e+06
   1.991849e+05  -2.416363e+06
   1.601914e+06  -1.434322e+06
   1.700963e+06   1.015058e+05
   8.850972e+05   9.040338e+05
   3.262341e+05   6.868551e+05
   4.542152e+05   2.382742e+05
   6.019525e+05   2.965619e+05
   9.345273e+04   7.434457e+05
  -8.580420e+05   9.079386e+05
  -1.445006e+06   3.464777e+05
  -1.067850e+06  -7.172160e+05
   2.281455e+05  -1.476149e+06
   1.709927e+06  -1.094588e+06
   2.250196e+06   4.618006e+05
   1.155756e+06   2.079714e+06
  -9.700405e+05   2.362251e+06
  -2.510921e+06   1.058938e+06
  -2.355859e+06  -6.204701e+05
  -9.892221e+05  -1.327082e+06
   1.848603e+05  -9.679739e+05
   4.023223e+05  -5.318697e+05
   1.033574e+05  -7.457835e+05
   1.075480e+05  -1.281835e+06
   6.519772e+05  -1.273611e+06
   1.275647e+06  -3.225888e+05
   1.335171e+06   1.067544e+06
   5.657361e+05   1.883516e+06
  -6.114958e+05   1.435569e+06
  -1.282439e+06   1.071533e+04
  -8.238562e+05  -1.263638e+06
   3.643514e+05  -1.392300e+06
   1.139109e+06  -4.302651e+05
   8.122051e+05   6.620449e+05
  -9.581789e+04   1.058233e+06
  -5.059313e+05   7.872134e+05
  -7.308541e+04   4.246202e+05
   4.295869e+05   3.356608e+05
   5.979615e+04   3.830884e+05
  -1.134617e+06   2.211231e+05
  -2.046288e+06  -3.101529e+05
  -1.618413e+06  -1.012701e+06
   1.294567e+04  -1.419833e+06
   1.557922e+06  -1.144228e+06
   1.816810e+06  -3.001696e+05
   8.399890e+05   4.685829e+05
  -2.480411e+05   5.608391e+05
  -5.050654e+05   4.493517e+04
  -2.942220e+04  -4.084101e+05
   4.441145e+05  -2.576141e+05
   4.804839e+05   3.367736e+05
   2.464175e+05   7.204117e+05
   8.863193e+04   4.763847e+05
   1.380125e+05  -1.033762e+05
   2.856115e+05  -3.025998e+05
   2.785501e+05   2.281714e+05
  -1.385304e+05   9.871735e+05
  -8.862341e+05   1.067458e+06
  -1.342025e+06   1.801243e+05
  -8.443194e+05  -9.030056e+05
   4.028536e+05  -1.128974e+06
   1.242314e+06  -3.380975e+05
   7.342941e+05   5.675047e+05
  -6.920463e+05   6.540101e+05
  -1.588248e+06  -7.823486e+04
  -1.021643e+06  -8.513739e+05
   4.667542e+05  -9.979908e+05
   1.493916e+06  -5.008080e+05
   1.239090e+06   1.754266e+05
   1.418243e+05   5.140466e+05
  -6.450728e+05   2.774303e+05
  -3.835997e+05  -2.874222e+05
   5.814084e+05  -5.227506e+05
   1.179767e+06   7.368514e+04
   6.760716e+05   1.173056e+06
  -5.762427e+05   1.702270e+06
  -1.473657e+06   8.957133e+05
  -1.261072e+06  -7.448753e+05
  -2.195146e+05  -1.787720e+06
   7.274331e+05  -1.301687e+06
   9.269439e+05   1.656370e+05
   4.438428e+05   1.186679e+06
  -2.087693e+05   9.718055e+05
  -5.603992e+05   9.019493e+04
  -4.700499e+05  -3.735228e+05
  -1.654444e+05  -1.367126e+05
  -4.750383e+04   9.618470e+04
  -2.816181e+05  -2.908081e+05
  -5.183502e+05  -9.595945e+05
  -2.015606e+05  -1.076159e+06
   7.095146e+05  -4.023154e+05
   1.477874e+06   4.497963e+05
   1.286924e+06   8.236547e+05
   1.919629e+05   6.960749e+05
  -8.470809e+05   4.274912e+05
  -9.810958e+05   1.917749e+05
  -3.623224e+05  -4.948121e+04
   1.422721e+05  -2.269930e+05
   3.576131e+04  -2.048772e+05
  -2.628541e+05  -9.054468e+04
  -5.331735e+04  -1.320683e+05
   6.546928e+05  -2.446501e+05
   1.046529e+06  -3.002663e+03
   4.470626e+05   6.860918e+05
  -8.216063e+05   1.190082e+06
  -1.691359e+06   7.820827e+05
  -1.421717e+06  -4.087973e+05
  -2.959486e+05  -1.400737e+06
   7.492510e+05  -1.387334e+06
   1.041541e+06  -5.562024e+05
   6.573731e+05   2.200515e+05
   1.412645e+05   3.563083e+05
  -6.409266e+04   7.043159e+04
   8.320001e+04  -1.401764e+04
   3.027549e+05   3.656444e+05
   2.557679e+05   8.049062e+05
  -1.679148e+05   6.830058e+05
  -6.811270e+05  -1.058882e+05
  -7.575414e+05  -9.345174e+05
  -1.405276e+05  -1.029644e+06
   7.434675e+05  -2.673157e+05
   1.048468e+06   6.959515e+05
   3.715602e+05   1.083680e+06
  -7.001123e+05   6.951706e+05
  -1.123530e+06  -5.368772e+04
  -5.465403e+05  -6.091453e+05
   2.760477e+05  -6.904625e+05
   3.802707e+05  -3.762127e+05
  -2.393444e+05  -2.432164e+03
  -6.465460e+05   5.112458e+04
  -1.545448e+05  -3.069756e+05
   8.144902e+05  -6.908001e+05
   1.257828e+06  -5.543644e+05
   7.736880e+05   1.711751e+05
  -8.112423e+04   8.740476e+05
  -5.453107e+05   8.689590e+05
  -4.311937e+05   1.757628e+05
  -6.637364e+04  -4.742139e+05
   2.297217e+05  -4.442212e+05
   3.536205e+05   1.328745e+05
   2.653990e+05   5.724297e+05
  -4.254775e+04   4.356490e+05
  -3.918852e+05  -3.399165e+04
  -4.837287e+05  -2.780426e+05
  -2.445082e+05  -9.751017e+04
   4.166223e+04   1.559707e+05
   8.439427e+04   5.580410e+04
  -3.005154e+04  -3.469427e+05
   2.211551e+04  -5.596706e+05
   3.084379e+05  -2.402349e+05
   4.764974e+05   3.594253e+05
   1.847726e+05   6.424547e+05
  -3.974140e+05   3.264894e+05
  -6.755377e+05  -2.604023e+05
  -2.693041e+05  -5.646315e+05
   5.034113e+05  -3.766055e+05
   8.895323e+05   5.420770e+04
   4.890944e+05   3.682082e+05
  -2.857873e+05   4.131729e+05
  -6.369170e+05   2.494411e+05
  -2.578105e+05   2.512991e+04
   3.334721e+05  -8.256035e+04
   4.039124e+05   4.473738e+04
  -1.536787e+05   2.872412e+05
  -7.229316e+05   2.856289e+05
