
 $NMID
 id='ANONYMOUS ', fmtdat='(2E16.6)'
 volume=1.0
 tramp=1.0
 $END
   2.732823e+07   2.248777e+06
   1.611575e+07   1.564945e+07
  -2.894683e+06   1.736374e+07
  -1.288374e+07   8.751413e+06
  -8.837408e+06  -1.132627e+06
   5.871965e+05  -4.610377e+06
   5.192136e+06  -9.873176e+05
   2.779889e+06   4.593688e+06
  -2.232662e+06   6.209879e+06
  -5.020139e+06   2.138747e+06
  -3.831963e+06  -3.638549e+06
  -1.700582e+05  -5.235364e+06
   2.540747e+06  -1.082785e+06
   1.666482e+06   4.138699e+06
  -1.893139e+06   4.623212e+06
  -4.252950e+06  -1.785592e+05
  -2.586545e+06  -5.380494e+06
   1.878564e+06  -6.270218e+06
   5.330207e+06  -2.715359e+06
   5.220449e+06   1.807870e+06
   2.295745e+06   4.056363e+06
  -5.230188e+05   3.477811e+06
  -8.634809e+05   1.931237e+06
   8.924464e+05   1.625937e+06
   1.806140e+06   2.894460e+06
  -5.133235e+05   3.791296e+06
  -4.706057e+06   2.336871e+06
  -6.546745e+06  -9.149211e+05
  -3.723190e+06  -3.273512e+06
   1.168560e+06  -2.898933e+06
   3.434508e+06  -5.978818e+05
   1.492757e+06   1.416912e+06
  -1.878916e+06   1.630986e+06
  -3.164055e+06  -2.588400e+04
  -1.668084e+06  -2.352738e+06
   6.523625e+05  -3.345558e+06
   1.705862e+06  -1.736328e+06
   1.025253e+06   1.113560e+06
  -2.617491e+05   2.016312e+06
  -6.016838e+05  -1.874757e+05
   5.032538e+05  -2.612931e+06
   1.820346e+06  -1.785393e+06
   1.538566e+06   1.544441e+06
  -5.805556e+05   3.076207e+06
  -2.555659e+06   5.695977e+05
  -2.121228e+06  -3.202259e+06
   8.037803e+05  -3.977741e+06
   3.843364e+06  -1.017924e+06
   4.311907e+06   2.604437e+06
   1.633350e+06   3.776991e+06
  -2.076402e+06   2.119919e+06
  -3.751140e+06  -5.054251e+05
  -2.116507e+06  -1.977616e+06
   1.025044e+06  -1.422207e+06
   2.546546e+06   2.927227e+05
   1.268550e+06   1.342967e+06
  -8.891910e+05   7.499733e+05
  -1.327124e+06  -5.695241e+05
   1.621862e+05  -9.546951e+05
   1.390501e+06  -1.176161e+04
   5.990022e+05   1.081835e+06
  -1.497802e+06   1.096682e+06
  -2.638591e+06  -1.067062e+05
  -1.427063e+06  -1.822374e+06
   1.416887e+06  -3.042694e+06
   3.815436e+06  -2.719550e+06
   4.097416e+06  -4.808342e+05
   2.317088e+06   2.470472e+06
   9.890165e+04   3.987755e+06
  -9.445519e+05   3.183081e+06
  -7.334849e+05   1.467306e+06
  -5.131429e+05   7.342837e+05
  -1.176972e+06   9.945429e+05
  -2.190831e+06   6.883670e+05
  -2.333437e+06  -8.639065e+05
  -1.136185e+06  -2.337166e+06
   6.646415e+05  -2.029491e+06
   1.815244e+06   3.667001e+04
   1.449890e+06   2.087956e+06
  -3.093412e+05   2.388780e+06
  -2.239973e+06   7.676946e+05
  -2.788802e+06  -1.422854e+06
  -1.502330e+06  -2.593144e+06
   3.840028e+05  -2.248722e+06
   1.266185e+06  -1.229922e+06
   1.034222e+06  -6.588331e+05
   1.046518e+06  -7.086071e+05
   2.129959e+06  -5.612379e+05
   3.242654e+06   4.785938e+05
   2.631800e+06   2.094272e+06
   5.029386e+04   3.218409e+06
  -2.703837e+06   2.962311e+06
  -3.520301e+06   1.308642e+06
  -2.005702e+06  -7.805876e+05
   2.453422e+05  -1.901474e+06
   1.238558e+06  -1.318051e+06
   4.098704e+05   1.881702e+05
  -1.016973e+06   9.410273e+05
  -1.426850e+06   2.025619e+05
  -5.029557e+05  -9.232046e+05
   5.764905e+05  -8.820746e+05
   5.669288e+05   2.747286e+05
  -4.835719e+05   8.836373e+05
  -1.399913e+06  -2.151283e+05
  -1.135044e+06  -2.155994e+06
   3.363984e+05  -2.976871e+06
   2.109573e+06  -1.735125e+06
   3.002666e+06   6.290685e+05
   2.324208e+06   2.336232e+06
   4.824538e+05   2.370768e+06
  -1.136612e+06   1.173216e+06
  -1.344290e+06   5.307837e+04
  -3.918806e+05  -5.289537e+04
   2.775408e+05   6.020249e+05
  -2.769261e+05   9.623755e+05
  -1.357236e+06   3.955384e+05
  -1.510097e+06  -6.000910e+05
  -3.531181e+05  -1.013934e+06
   9.074067e+05  -4.843998e+05
   8.454738e+05   3.621971e+05
  -5.761007e+05   6.303011e+05
  -1.921124e+06  -7.049395e+03
  -1.721528e+06  -1.103532e+06
   5.308961e+04  -1.805031e+06
   1.916922e+06  -1.461509e+06
   2.264530e+06  -2.100874e+05
   9.189636e+05   9.616979e+05
  -7.169641e+05   1.039769e+06
  -1.094766e+06   6.980620e+04
  -4.393540e+04  -7.887373e+05
   1.200490e+06  -5.197351e+05
   1.368312e+06   5.903084e+05
   3.730836e+05   1.310132e+06
  -7.751075e+05   9.004577e+05
  -1.041632e+06  -1.007988e+05
  -3.110178e+05  -5.739793e+05
   5.542631e+05  -5.800118e+04
   5.315535e+05   8.337319e+05
  -5.293489e+05   1.101236e+06
  -1.632560e+06   3.350758e+05
  -1.574119e+06  -9.167104e+05
  -2.524125e+05  -1.643899e+06
   1.137142e+06  -1.273219e+06
   1.361185e+06  -1.793749e+05
   4.388588e+05   6.788589e+05
  -5.165521e+05   6.691789e+05
  -5.994476e+05   3.869593e+04
   2.352223e+04  -4.408382e+05
   5.156290e+05  -3.226388e+05
   3.484845e+05   8.632590e+04
  -2.190202e+05   1.398497e+05
  -4.674487e+05  -3.696251e+05
   6.597005e+04  -9.091960e+05
   1.076640e+06  -7.199979e+05
   1.655656e+06   3.530159e+05
   1.120165e+06   1.581041e+06
  -2.348758e+05   1.972355e+06
  -1.351116e+06   1.210176e+06
  -1.468080e+06  -5.187937e+04
  -8.411487e+05  -8.438068e+05
  -2.978961e+05  -7.905781e+05
  -2.450960e+05  -3.507897e+05
  -3.311486e+05  -2.069169e+05
  -3.042678e+04  -5.049488e+05
   6.663724e+05  -7.306379e+05
   1.196830e+06  -3.212571e+05
   9.493196e+05   6.260276e+05
  -1.474586e+05   1.302267e+06
  -1.419442e+06   9.268376e+05
  -1.855307e+06  -4.082687e+05
  -9.482812e+05  -1.688510e+06
   7.403226e+05  -1.871928e+06
   1.975004e+06  -8.623760e+05
   1.941046e+06   4.473724e+05
   9.312238e+05   1.091825e+06
  -8.051161e+04   9.195206e+05
  -4.378895e+05   5.558489e+05
  -2.930882e+05   5.906429e+05
  -2.230607e+05   9.219177e+05
  -5.385041e+05   9.222550e+05
  -9.843218e+05   1.909021e+05
  -1.020248e+06  -9.192600e+05
  -3.840856e+05  -1.551939e+06
   5.581894e+05  -1.145236e+06
   1.052131e+06   6.023772e+03
   6.610596e+05   9.921777e+05
  -2.473578e+05   1.104513e+06
  -8.275978e+05   4.184736e+05
  -6.198920e+05  -3.952013e+05
  -2.293957e+03  -7.577907e+05
   2.880386e+05  -6.385336e+05
   1.235337e+04  -3.989776e+05
  -3.095429e+05  -3.168199e+05
  -1.893164e+04  -3.239575e+05
   8.721258e+05  -1.616896e+05
   1.573308e+06   2.841807e+05
   1.276710e+06   8.187720e+05
   3.446100e+04   1.079709e+06
  -1.191755e+06   8.458124e+05
  -1.441332e+06   2.509654e+05
  -6.966831e+05  -2.852922e+05
   1.715929e+05  -3.885569e+05
   3.761115e+05  -6.909166e+04
  -2.856948e+04   2.582638e+05
  -4.068840e+05   1.705704e+05
  -3.615459e+05  -2.919285e+05
  -8.501743e+04  -6.181241e+05
   2.884557e+04  -3.965010e+05
  -1.228977e+05   1.406665e+05
  -3.072022e+05   3.153995e+05
  -2.355447e+05  -1.798935e+05
   1.860610e+05  -8.247142e+05
   7.466298e+05  -8.195222e+05
   9.881984e+05  -4.174975e+04
   5.486923e+05   7.645039e+05
  -3.657678e+05   8.168189e+05
  -9.581591e+05   1.431656e+05
  -5.611575e+05  -5.147358e+05
   5.593842e+05  -5.244557e+05
   1.324890e+06   6.480393e+04
   9.212880e+05   6.979390e+05
  -3.211494e+05   8.682760e+05
  -1.252265e+06   4.868151e+05
  -1.083175e+06  -1.137772e+05
  -1.462636e+05  -4.437768e+05
   5.229583e+05  -2.486458e+05
   2.735220e+05   2.186400e+05
  -5.343037e+05   3.617431e+05
  -9.494173e+05  -1.704908e+05
  -4.242518e+05  -1.015731e+06
   6.320258e+05  -1.329447e+06
   1.282482e+06  -6.103083e+05
   9.947319e+05   6.920504e+05
   9.701679e+04   1.490434e+06
  -6.458066e+05   1.085896e+06
  -7.693612e+05  -1.122758e+05
  -3.806669e+05  -9.798723e+05
   1.288969e+05  -8.328519e+05
   4.392087e+05  -8.724105e+04
   4.286726e+05   3.361819e+05
   1.939075e+05   1.383835e+05
   1.887214e+04  -9.647057e+04
   1.301837e+05   2.060199e+05
   3.549110e+05   7.880804e+05
   2.005092e+05   9.046811e+05
  -5.101647e+05   3.170975e+05
  -1.207561e+06  -4.278862e+05
  -1.095756e+06  -7.242637e+05
  -1.396960e+05  -5.621512e+05
   7.736413e+05  -3.096699e+05
   8.352232e+05  -1.432439e+05
   2.416159e+05   1.690307e+04
  -1.509554e+05   1.734028e+05
   3.638730e+04   2.031216e+05
   2.911817e+05   1.272368e+05
   7.914425e+03   1.150636e+05
  -6.309796e+05   1.414034e+05
  -8.457957e+05  -6.858458e+04
  -2.176547e+05  -5.677988e+05
   8.019312e+05  -8.864510e+05
   1.364328e+06  -5.013026e+05
   1.043283e+06   4.458243e+05
   1.439475e+05   1.171342e+06
  -6.556892e+05   1.070796e+06
  -8.746530e+05   3.512625e+05
  -5.379747e+05  -2.545102e+05
  -6.493411e+04  -2.962633e+05
   1.235840e+05  -8.240626e+03
  -4.302564e+04   6.083434e+04
  -2.667262e+05  -2.888965e+05
  -2.025090e+05  -6.692254e+05
   1.863089e+05  -5.332714e+05
   5.667178e+05   1.724649e+05
   5.257678e+05   8.524938e+05
  -2.252789e+04   8.391398e+05
  -6.666204e+05   1.066662e+05
  -7.950066e+05  -6.900675e+05
  -1.978257e+05  -8.987773e+05
   6.187659e+05  -4.751621e+05
   8.762431e+05   1.228884e+05
   3.721134e+05   4.731444e+05
  -2.547155e+05   4.809628e+05
  -2.677786e+05   2.719684e+05
   2.622428e+05   4.096023e+04
   5.474840e+05   2.414231e+03
   8.664481e+04   2.448626e+05
  -6.997024e+05   5.312569e+05
  -9.961975e+05   4.391814e+05
  -5.543503e+05  -1.258387e+05
   1.175313e+05  -6.815407e+05
   4.300056e+05  -6.525215e+05
   2.926329e+05  -7.169888e+04
  -6.879830e+03   4.180604e+05
  -2.233256e+05   3.130309e+05
  -2.849750e+05  -1.876189e+05
  -1.764303e+05  -4.830351e+05
   7.426912e+04  -2.970711e+05
   3.151145e+05   7.552947e+04
   3.582209e+05   2.098220e+05
   1.934009e+05   5.425571e+04
   5.123101e+03  -8.143533e+04
  -6.483976e+04   4.941463e+04
  -7.929083e+04   3.240232e+05
  -1.692268e+05   3.876295e+05
  -3.032732e+05   6.688406e+04
  -2.871179e+05  -3.921912e+05
  -6.347926e+03  -5.434194e+05
   3.730454e+05  -2.137728e+05
   4.949785e+05   2.902545e+05
   1.568554e+05   4.997879e+05
  -4.122586e+05   2.701797e+05
  -6.852918e+05  -1.209660e+05
  -3.598997e+05  -3.286986e+05
   2.559693e+05  -2.745354e+05
   5.164198e+05  -1.107754e+05
   1.627674e+05   4.091694e+03
  -3.448810e+05  -1.238430e+03
  -3.536737e+05  -1.286746e+05
   1.972403e+05  -2.672383e+05
   6.970167e+05  -1.898116e+05
