
 $NMID
 id='ANONYMOUS ', fmtdat='(2E16.6)'
 volume=1.0
 tramp=1.0
 $END
   4.910200e+07   1.607672e+06
   2.878059e+07   3.055936e+07
  -6.928601e+06   3.270659e+07
  -2.406038e+07   1.277883e+07
  -1.442204e+07  -5.665512e+06
   2.713365e+06  -8.062022e+06
   8.606639e+06   7.337074e+05
   2.684583e+06   8.455419e+06
  -5.259009e+06   8.503786e+06
  -8.495077e+06   1.944739e+06
  -6.142916e+06  -5.681364e+06
  -5.452404e+05  -7.825939e+06
   3.702003e+06  -2.276645e+06
   2.365456e+06   5.206035e+06
  -3.359055e+06   6.069056e+06
  -6.947552e+06  -1.139992e+06
  -3.843133e+06  -9.076018e+06
   3.485418e+06  -1.038019e+07
   9.033604e+06  -4.950857e+06
   9.403069e+06   2.204500e+06
   5.389790e+06   6.783145e+06
   1.893181e+05   7.357989e+06
  -2.498834e+06   4.914166e+06
  -1.116626e+06   2.364714e+06
   1.358856e+06   2.412347e+06
   1.617113e+04   4.183534e+06
  -5.387755e+06   3.862367e+06
  -9.006360e+06  -7.626269e+03
  -6.199538e+06  -4.069907e+06
   2.244088e+05  -4.578720e+06
   3.776692e+06  -2.038118e+06
   2.282844e+06   4.385104e+05
  -9.799514e+05   1.206299e+06
  -2.618154e+06   3.750727e+05
  -2.125649e+06  -1.762323e+06
  -2.946699e+05  -3.900916e+06
   1.883376e+06  -3.319035e+06
   2.686814e+06   4.720455e+05
   1.116529e+06   3.299572e+06
  -8.062145e+05   1.333995e+06
  -1.012887e+05  -2.591891e+06
   2.349173e+06  -2.187366e+06
   2.188056e+06   2.806637e+06
  -2.027696e+06   5.311578e+06
  -5.816676e+06   7.707479e+05
  -4.228651e+06  -6.073453e+06
   1.771456e+06  -7.338449e+06
   6.581272e+06  -1.943237e+06
   6.274625e+06   4.095162e+06
   1.756298e+06   5.518967e+06
  -3.164493e+06   2.560559e+06
  -4.911866e+06  -1.308213e+06
  -2.352939e+06  -3.136029e+06
   2.078527e+06  -1.979509e+06
   4.027362e+06   8.161343e+05
   1.757033e+06   2.394851e+06
  -1.527924e+06   1.192961e+06
  -1.648344e+06  -9.281317e+05
   1.002446e+06  -9.193865e+05
   2.161444e+06   1.296110e+06
  -3.318075e+05   2.778625e+06
  -3.825517e+06   1.613740e+06
  -4.600727e+06  -1.094703e+06
  -2.044483e+06  -3.459392e+06
   1.808114e+06  -4.722856e+06
   4.854716e+06  -4.292134e+06
   5.768460e+06  -1.342159e+06
   3.998094e+06   3.107540e+06
   6.451547e+05   5.706453e+06
  -1.685131e+06   4.395703e+06
  -1.496541e+06   1.303741e+06
  -2.520949e+05   5.307493e+04
  -3.422228e+05   1.044623e+06
  -1.862211e+06   1.517600e+06
  -2.779673e+06  -1.068371e+05
  -1.826328e+06  -2.137946e+06
   1.869151e+05  -2.193563e+06
   1.685562e+06  -1.452737e+05
   1.657918e+06   2.149414e+06
  -1.090104e+05   2.866016e+06
  -2.715025e+06   1.417194e+06
  -4.097948e+06  -1.348619e+06
  -2.757906e+06  -3.568620e+06
   2.038655e+05  -3.762095e+06
   2.083389e+06  -2.316170e+06
   1.952605e+06  -9.901011e+05
   1.652403e+06  -6.858490e+05
   2.786355e+06  -4.884463e+05
   4.139744e+06   7.424477e+05
   3.311079e+06   2.683456e+06
   7.323594e+04   3.985460e+06
  -3.193736e+06   3.717722e+06
  -4.137151e+06   1.915282e+06
  -2.553816e+06  -5.649106e+05
  -1.145608e+05  -2.219924e+06
   1.196396e+06  -1.813596e+06
   5.388809e+05   8.564136e+04
  -1.113821e+06   1.235629e+06
  -1.829544e+06   3.357999e+05
  -8.162156e+05  -1.172038e+06
   5.579836e+05  -1.080799e+06
   4.761020e+05   3.639687e+05
  -9.245612e+05   7.523094e+05
  -1.744068e+06  -1.031847e+06
  -7.601053e+05  -3.191670e+06
   1.295523e+06  -3.347953e+06
   2.921515e+06  -1.288994e+06
   3.293384e+06   1.271426e+06
   2.337137e+06   2.728529e+06
   4.588466e+05   2.621491e+06
  -1.262928e+06   1.418064e+06
  -1.565388e+06   1.732347e+05
  -4.797061e+05  -5.363867e+04
   3.384471e+05   7.357295e+05
  -4.037066e+05   1.268274e+06
  -1.816872e+06   5.207786e+05
  -1.935204e+06  -8.561141e+05
  -3.704591e+05  -1.347211e+06
   1.136598e+06  -5.497613e+05
   8.960043e+05   4.482319e+05
  -7.997112e+05   5.515630e+05
  -2.162160e+06  -2.640214e+05
  -1.773506e+06  -1.336874e+06
   2.177862e+05  -1.975252e+06
   2.281941e+06  -1.626369e+06
   2.718308e+06  -2.365920e+05
   1.157204e+06   1.233018e+06
  -9.100394e+05   1.409773e+06
  -1.482609e+06   1.430782e+05
  -1.512573e+05  -1.037101e+06
   1.484122e+06  -6.828275e+05
   1.663638e+06   7.711070e+05
   3.382109e+05   1.607834e+06
  -1.044817e+06   9.684392e+05
  -1.226273e+06  -2.773435e+05
  -2.590031e+05  -7.462827e+05
   7.541732e+05  -4.400265e+04
   6.897090e+05   1.035480e+06
  -5.977280e+05   1.374266e+06
  -1.974638e+06   4.815098e+05
  -1.962387e+06  -1.068482e+06
  -3.370745e+05  -2.025660e+06
   1.420029e+06  -1.575883e+06
   1.680786e+06  -1.890120e+05
   4.896540e+05   8.465102e+05
  -6.470002e+05   7.819909e+05
  -6.419300e+05   6.516809e+04
   9.765286e+04  -3.857369e+05
   5.081955e+05  -2.400291e+05
   1.829841e+05   6.684618e+04
  -3.954343e+05  -3.348582e+04
  -5.058160e+05  -6.180466e+05
   1.920365e+05  -1.142739e+06
   1.352065e+06  -8.572922e+05
   2.024455e+06   4.340853e+05
   1.394962e+06   1.921216e+06
  -2.525760e+05   2.370512e+06
  -1.603248e+06   1.382267e+06
  -1.674739e+06  -1.254115e+05
  -8.707630e+05  -9.109257e+05
  -3.230643e+05  -7.065867e+05
  -4.343580e+05  -2.688831e+05
  -5.633221e+05  -3.079492e+05
  -6.542371e+04  -7.219690e+05
   8.570764e+05  -8.706387e+05
   1.425279e+06  -3.160864e+05
   1.045009e+06   7.264933e+05
  -2.439390e+05   1.453618e+06
  -1.701094e+06   1.044561e+06
  -2.202265e+06  -5.014032e+05
  -1.091846e+06  -2.062098e+06
   9.960983e+05  -2.288000e+06
   2.475494e+06  -9.839118e+05
   2.297465e+06   6.477314e+05
   9.592290e+05   1.315766e+06
  -1.851141e+05   9.575488e+05
  -4.118926e+05   5.344387e+05
  -1.425603e+05   7.389155e+05
  -1.543539e+05   1.247834e+06
  -6.723284e+05   1.222553e+06
  -1.254984e+06   2.789661e+05
  -1.282571e+06  -1.083670e+06
  -5.085586e+05  -1.865040e+06
   6.372126e+05  -1.395968e+06
   1.259543e+06   1.675473e+04
   7.791056e+05   1.252010e+06
  -3.811463e+05   1.351801e+06
  -1.109965e+06   4.015225e+05
  -7.700961e+05  -6.507738e+05
   1.115693e+05  -1.018906e+06
   4.973485e+05  -7.544678e+05
   7.149061e+04  -4.186793e+05
  -4.122928e+05  -3.455636e+05
  -4.797171e+04  -3.802779e+05
   1.112297e+06  -1.887735e+05
   1.991414e+06   3.548485e+05
   1.561433e+06   1.027651e+06
  -4.046594e+04   1.380342e+06
  -1.546675e+06   1.075884e+06
  -1.782819e+06   2.563626e+05
  -8.103313e+05  -4.641547e+05
   2.548514e+05  -5.351589e+05
   4.902692e+05  -3.575968e+04
   1.013388e+04   3.954567e+05
  -4.485442e+05   2.418295e+05
  -4.620834e+05  -3.438108e+05
  -2.151563e+05  -7.220629e+05
  -6.572553e+04  -4.758261e+05
  -1.356468e+05   1.060377e+05
  -2.914447e+05   3.033584e+05
  -2.692378e+05  -2.286365e+05
   1.637686e+05  -9.723147e+05
   8.969509e+05  -1.024285e+06
   1.313390e+06  -1.306139e+05
   7.947328e+05   9.143070e+05
  -4.284410e+05   1.088961e+06
  -1.226510e+06   2.875473e+05
  -7.073904e+05  -5.798888e+05
   6.919414e+05  -6.263476e+05
   1.560127e+06   1.070879e+05
   9.958989e+05   8.512006e+05
  -4.677419e+05   9.728315e+05
  -1.475194e+06   4.725468e+05
  -1.218983e+06  -1.894240e+05
  -1.338336e+05  -5.082856e+05
   6.366068e+05  -2.615951e+05
   3.647330e+05   2.899858e+05
  -5.917831e+05   4.966297e+05
  -1.160481e+06  -1.100883e+05
  -6.276338e+05  -1.178644e+06
   6.223105e+05  -1.660448e+06
   1.480154e+06  -8.392594e+05
   1.222924e+06   7.680924e+05
   1.714405e+05   1.766703e+06
  -7.446835e+05   1.268192e+06
  -9.062333e+05  -1.776782e+05
  -4.143387e+05  -1.173371e+06
   2.171720e+05  -9.514075e+05
   5.485927e+05  -7.766464e+04
   4.607162e+05   3.770715e+05
   1.680651e+05   1.372250e+05
   4.505779e+04  -9.441516e+04
   2.566195e+05   2.929370e+05
   4.812991e+05   9.562269e+05
   1.819626e+05   1.060742e+06
  -6.964607e+05   3.750597e+05
  -1.444409e+06  -4.781122e+05
  -1.254366e+06  -8.374762e+05
  -1.719273e+05  -6.870313e+05
   8.517334e+05  -4.024339e+05
   9.712193e+05  -1.687966e+05
   3.466298e+05   5.616040e+04
  -1.489210e+05   2.204311e+05
  -2.922268e+04   2.008355e+05
   2.682430e+05   9.614953e+04
   4.568919e+04   1.335778e+05
  -6.621513e+05   2.253799e+05
  -1.029752e+06  -2.714531e+04
  -4.075567e+05  -6.914855e+05
   8.505245e+05  -1.148352e+06
   1.680909e+06  -7.158704e+05
   1.378969e+06   4.498284e+05
   2.520907e+05   1.389107e+06
  -7.718338e+05   1.341075e+06
  -1.041866e+06   5.137172e+05
  -6.449000e+05  -2.380616e+05
  -1.256020e+05  -3.559399e+05
   7.569687e+04  -6.598918e+04
  -7.608006e+04   1.654504e+04
  -2.913991e+05  -3.625269e+05
  -2.346026e+05  -7.965221e+05
   1.857482e+05  -6.664920e+05
   6.722221e+05   1.272814e+05
   7.184003e+05   9.480180e+05
   1.006787e+05   1.020633e+06
  -7.482837e+05   2.374155e+05
  -1.014344e+06  -7.218979e+05
  -3.309228e+05  -1.078378e+06
   7.118150e+05  -6.595848e+05
   1.100797e+06   8.713180e+04
   5.135909e+05   6.100013e+05
  -2.930619e+05   6.635564e+05
  -3.775384e+05   3.546497e+05
   2.450714e+05   7.943633e+03
   6.402487e+05  -3.298846e+04
   1.403832e+05   3.058852e+05
  -8.189501e+05   6.594143e+05
  -1.242166e+06   5.151770e+05
  -7.455052e+05  -1.862728e+05
   1.051186e+05  -8.549531e+05
   5.538977e+05  -8.338190e+05
   4.236209e+05  -1.517224e+05
   5.007884e+04   4.738059e+05
  -2.414721e+05   4.273212e+05
  -3.484049e+05  -1.471504e+05
  -2.449503e+05  -5.711177e+05
   5.862829e+04  -4.218073e+05
   3.859448e+05   4.720858e+04
   4.635627e+05   2.825393e+05
   2.357062e+05   9.789245e+04
  -3.037381e+04  -1.506145e+05
  -7.567181e+04  -4.530714e+04
   1.245328e+04   3.518528e+05
  -5.503958e+04   5.490789e+05
  -3.210612e+05   2.170130e+05
  -4.537755e+05  -3.798958e+05
  -1.521649e+05  -6.446276e+05
   4.053215e+05  -3.088119e+05
   6.552278e+05   2.816285e+05
   2.475381e+05   5.676431e+05
  -5.037570e+05   3.549407e+05
  -8.711005e+05  -8.262569e+04
  -4.693138e+05  -3.766872e+05
   2.949971e+05  -3.933761e+05
   6.347716e+05  -2.206070e+05
   2.491546e+05  -1.379476e+04
  -3.414242e+05   7.029123e+04
  -4.035303e+05  -6.160700e+04
   1.631970e+05  -2.867538e+05
   7.302115e+05  -2.666913e+05
