
 $NMID
 id='ANONYMOUS ', fmtdat='(2E16.6)'
 volume=1.0
 tramp=1.0
 $END
  -6.005842e+07  -5.516550e+05
  -3.547838e+07  -3.797705e+07
   8.760968e+06  -4.064804e+07
   2.966018e+07  -1.480296e+07
   1.719126e+07   8.135937e+06
  -3.855901e+06   9.832136e+06
  -1.030025e+07  -1.732510e+06
  -2.528935e+06  -1.041401e+07
   6.826657e+06  -9.499472e+06
   1.019866e+07  -1.765823e+06
   7.294948e+06   6.584794e+06
   8.177550e+05   8.991526e+06
  -4.194825e+06   2.937331e+06
  -2.705966e+06  -5.535030e+06
   4.045704e+06  -6.639860e+06
   8.260615e+06   1.628361e+06
   4.492295e+06   1.084813e+07
  -4.204687e+06   1.240032e+07
  -1.079518e+07   6.162744e+06
  -1.151889e+07  -2.219573e+06
  -7.119069e+06  -8.045891e+06
  -7.280379e+05  -9.396461e+06
   3.347047e+06  -6.572803e+06
   2.349870e+06  -2.714372e+06
  -9.723801e+05  -1.919150e+06
  -3.925876e+05  -4.142085e+06
   5.422425e+06  -4.638054e+06
   9.994567e+06  -6.683610e+05
   7.436870e+06   4.255964e+06
   4.568795e+05   5.367073e+06
  -3.717806e+06   2.875451e+06
  -2.640270e+06   2.592492e+05
   3.165143e+05  -8.365145e+05
   2.066653e+06  -6.187017e+05
   2.274682e+06   1.234792e+06
   9.180393e+05   3.980682e+06
  -1.836947e+06   4.139368e+06
  -3.590819e+06   1.332131e+04
  -1.980460e+06  -3.897337e+06
   8.592925e+05  -2.253490e+06
   5.063136e+05   2.388184e+06
  -2.517702e+06   2.316316e+06
  -2.493822e+06  -3.428854e+06
   2.787192e+06  -6.448839e+06
   7.559424e+06  -9.216649e+05
   5.395524e+06   7.497904e+06
  -2.204140e+06   9.067758e+06
  -7.907501e+06   2.488008e+06
  -7.172755e+06  -4.735882e+06
  -1.763855e+06  -6.273572e+06
   3.646595e+06  -2.702952e+06
   5.353982e+06   1.709818e+06
   2.372230e+06   3.673021e+06
  -2.618939e+06   2.237601e+06
  -4.740093e+06  -1.068124e+06
  -1.982078e+06  -2.914308e+06
   1.835052e+06  -1.421620e+06
   1.756071e+06   1.090909e+06
  -1.485958e+06   8.514315e+05
  -2.546514e+06  -2.050559e+06
   8.867522e+05  -3.724013e+06
   5.081865e+06  -1.893290e+06
   5.593224e+06   1.624984e+06
   2.345976e+06   4.281462e+06
  -1.896033e+06   5.512275e+06
  -5.159139e+06   5.062558e+06
  -6.448936e+06   1.864427e+06
  -4.849969e+06  -3.270183e+06
  -1.007666e+06  -6.432680e+06
   2.023811e+06  -4.905970e+06
   1.894821e+06  -1.117234e+06
   6.959668e+04   4.083856e+05
  -2.430142e+05  -9.934479e+05
   1.493604e+06  -1.966486e+06
   2.871039e+06  -4.228193e+05
   2.164052e+06   1.839538e+06
   1.543161e+05   2.145877e+06
  -1.481407e+06   2.629148e+05
  -1.692495e+06  -2.030450e+06
  -5.044663e+04  -2.980735e+06
   2.825212e+06  -1.766742e+06
   4.681553e+06   1.169601e+06
   3.422184e+06   3.934555e+06
  -3.482444e+04   4.496310e+06
  -2.452502e+06   2.889860e+06
  -2.412624e+06   1.158498e+06
  -1.932746e+06   6.375301e+05
  -3.021910e+06   4.284768e+05
  -4.447414e+06  -8.322628e+05
  -3.547075e+06  -2.859242e+06
  -1.128995e+05  -4.211837e+06
   3.264458e+06  -3.977588e+06
   4.237589e+06  -2.209327e+06
   2.738394e+06   3.641865e+05
   3.595727e+05   2.270740e+06
  -1.071807e+06   2.019887e+06
  -5.880851e+05  -8.554029e+03
   1.090341e+06  -1.352424e+06
   1.966891e+06  -4.151514e+05
   9.761915e+05   1.248301e+06
  -5.010736e+05   1.141658e+06
  -3.888836e+05  -3.959067e+05
   1.148154e+06  -6.255868e+05
   1.865738e+06   1.483450e+06
   4.885504e+05   3.652743e+06
  -1.817790e+06   3.377834e+06
  -3.252596e+06   9.284979e+05
  -3.267786e+06  -1.588168e+06
  -2.198849e+06  -2.785936e+06
  -4.266146e+05  -2.601263e+06
   1.247964e+06  -1.487120e+06
   1.599770e+06  -2.497195e+05
   5.043451e+05   4.769751e+04
  -3.613189e+05  -7.702646e+05
   4.481709e+05  -1.386457e+06
   1.990030e+06  -5.832880e+05
   2.090467e+06   9.505714e+05
   3.686506e+05   1.473502e+06
  -1.205578e+06   5.661392e+05
  -8.727183e+05  -4.671673e+05
   8.868917e+05  -4.687473e+05
   2.173306e+06   3.994442e+05
   1.693616e+06   1.386659e+06
  -2.985141e+05   1.952501e+06
  -2.352907e+06   1.637564e+06
  -2.826738e+06   2.562008e+05
  -1.243391e+06  -1.318506e+06
   9.629847e+05  -1.563523e+06
   1.634850e+06  -1.935466e+05
   2.207120e+05   1.127755e+06
  -1.562621e+06   7.549237e+05
  -1.749555e+06  -8.246458e+05
  -3.037450e+05  -1.692151e+06
   1.145186e+06  -9.558171e+05
   1.268183e+06   3.657665e+05
   2.144439e+05   8.088684e+05
  -8.328604e+05   4.080758e+04
  -7.550152e+05  -1.088489e+06
   5.883923e+05  -1.461677e+06
   2.056391e+06  -5.595519e+05
   2.088315e+06   1.078355e+06
   3.844357e+05   2.133193e+06
  -1.496308e+06   1.676256e+06
  -1.774386e+06   1.937323e+05
  -4.961349e+05  -8.968262e+05
   6.830826e+05  -8.085216e+05
   6.263369e+05  -8.243549e+04
  -1.363353e+05   3.247140e+05
  -4.665544e+05   1.728646e+05
  -6.185505e+04  -4.910119e+04
   4.846357e+05   1.414597e+05
   5.006261e+05   7.344617e+05
  -2.528605e+05   1.217756e+06
  -1.431844e+06   8.973461e+05
  -2.128156e+06  -4.419712e+05
  -1.491907e+06  -1.999954e+06
   2.303671e+05  -2.468422e+06
   1.649139e+06  -1.410028e+06
   1.695719e+06   1.550654e+05
   8.339818e+05   8.882961e+05
   3.180305e+05   6.011068e+05
   5.275231e+05   1.916589e+05
   6.784803e+05   3.462267e+05
   8.952785e+04   8.119705e+05
  -9.161379e+05   9.069038e+05
  -1.472682e+06   2.996875e+05
  -1.037956e+06  -7.348851e+05
   2.815076e+05  -1.452698e+06
   1.759683e+06  -1.060216e+06
   2.279462e+06   5.121123e+05
   1.125424e+06   2.156201e+06
  -1.077299e+06   2.410377e+06
  -2.625409e+06   1.014356e+06
  -2.378039e+06  -7.184659e+05
  -9.206561e+05  -1.366950e+06
   2.359017e+05  -9.187184e+05
   3.642939e+05  -4.847344e+05
   2.869951e+04  -7.830729e+05
   8.844872e+04  -1.374478e+06
   7.036001e+05  -1.339574e+06
   1.342745e+06  -3.270361e+05
   1.372896e+06   1.106538e+06
   5.680907e+05   1.936805e+06
  -6.347582e+05   1.467809e+06
  -1.308640e+06  -1.342914e+04
  -8.123477e+05  -1.329896e+06
   4.322991e+05  -1.423925e+06
   1.216252e+06  -3.723243e+05
   8.218851e+05   7.667295e+05
  -1.694460e+05   1.121247e+06
  -5.941978e+05   7.837839e+05
  -1.030945e+05   4.042671e+05
   4.521975e+05   3.370993e+05
   6.570795e+04   3.896944e+05
  -1.190550e+06   2.016645e+05
  -2.128691e+06  -3.611055e+05
  -1.647246e+06  -1.081422e+06
   7.506583e+04  -1.482612e+06
   1.662848e+06  -1.164413e+06
   1.881865e+06  -2.556051e+05
   8.339464e+05   5.433634e+05
  -2.868494e+05   5.961144e+05
  -5.311262e+05   1.544248e+04
  -3.792668e+04  -4.565318e+05
   4.430838e+05  -2.734271e+05
   4.977093e+05   3.508163e+05
   2.891253e+05   7.370473e+05
   1.257651e+05   4.929896e+05
   1.346489e+05  -7.665519e+04
   2.595586e+05  -2.756537e+05
   2.736917e+05   2.421348e+05
  -1.315216e+05   1.000809e+06
  -9.245565e+05   1.092979e+06
  -1.431725e+06   1.906488e+05
  -9.061751e+05  -9.410972e+05
   4.305094e+05  -1.193684e+06
   1.312916e+06  -3.709462e+05
   7.571438e+05   5.772811e+05
  -7.265701e+05   6.544865e+05
  -1.607164e+06  -1.172942e+05
  -9.819025e+05  -8.872373e+05
   5.254182e+05  -9.782202e+05
   1.517241e+06  -4.404835e+05
   1.225689e+06   2.182705e+05
   1.197997e+05   5.150700e+05
  -6.655969e+05   2.569104e+05
  -4.016831e+05  -3.132042e+05
   5.840110e+05  -5.537288e+05
   1.217499e+06   5.479853e+04
   7.243037e+05   1.197697e+06
  -5.612672e+05   1.764035e+06
  -1.500140e+06   9.395399e+05
  -1.291672e+06  -7.564162e+05
  -2.195238e+05  -1.823292e+06
   7.498444e+05  -1.304375e+06
   9.348549e+05   2.019231e+05
   4.160077e+05   1.216312e+06
  -2.533545e+05   9.657398e+05
  -5.816477e+05   7.049844e+04
  -4.523580e+05  -3.752307e+05
  -1.406165e+05  -1.268057e+05
  -5.871886e+04   8.739047e+04
  -3.237630e+05  -3.259137e+05
  -5.372322e+05  -9.959002e+05
  -1.646151e+05  -1.089373e+06
   7.671744e+05  -3.931912e+05
   1.502229e+06   4.682946e+05
   1.276886e+06   8.460623e+05
   1.858856e+05   7.197036e+05
  -8.411050e+05   4.396368e+05
  -9.919536e+05   1.800324e+05
  -3.918176e+05  -7.453692e+04
   1.359321e+05  -2.365060e+05
   6.914375e+04  -1.869617e+05
  -2.349050e+05  -6.859712e+04
  -6.803016e+04  -1.353557e+05
   6.346944e+05  -2.675425e+05
   1.078039e+06  -9.004819e+03
   5.076465e+05   7.194290e+05
  -8.149652e+05   1.243938e+06
  -1.764774e+06   8.181998e+05
  -1.504065e+06  -4.105045e+05
  -3.141334e+05  -1.432497e+06
   7.842510e+05  -1.429615e+06
   1.073978e+06  -5.909468e+05
   6.707578e+05   2.065405e+05
   1.589229e+05   3.685697e+05
  -3.816689e+04   9.832320e+04
   9.296384e+04   1.236154e+04
   2.902984e+05   3.837852e+05
   2.450338e+05   8.231303e+05
  -1.675722e+05   7.082395e+05
  -6.945387e+05  -8.464421e+04
  -7.997830e+05  -9.390765e+05
  -1.808016e+05  -1.066171e+06
   7.470675e+05  -3.102569e+05
   1.090656e+06   6.855995e+05
   4.018622e+05   1.117540e+06
  -7.176985e+05   7.383735e+05
  -1.170763e+06  -4.971968e+04
  -5.750095e+05  -6.523041e+05
   2.918698e+05  -7.382724e+05
   4.197971e+05  -3.876005e+05
  -2.167385e+05   1.439679e+04
  -6.558261e+05   5.775173e+04
  -1.677974e+05  -3.230016e+05
   8.355475e+05  -7.028046e+05
   1.313435e+06  -5.385829e+05
   8.202492e+05   2.063961e+05
  -8.354802e+04   9.092162e+05
  -5.898780e+05   8.987235e+05
  -4.774380e+05   1.970821e+05
  -8.627591e+04  -4.764196e+05
   2.330763e+05  -4.733533e+05
   3.655309e+05   1.085423e+05
   2.763788e+05   5.870514e+05
  -4.066293e+04   4.737087e+05
  -4.052228e+05  -2.292180e+04
  -5.026060e+05  -3.066748e+05
  -2.481874e+05  -1.178118e+05
   5.312537e+04   1.843249e+05
   7.941598e+04   1.029622e+05
  -7.278486e+04  -3.442700e+05
  -2.750452e+04  -6.143235e+05
   3.072611e+05  -3.008486e+05
   5.319214e+05   3.414354e+05
   2.403615e+05   6.630411e+05
  -3.957275e+05   3.513782e+05
  -7.151729e+05  -2.514846e+05
  -2.927493e+05  -5.702821e+05
   5.257199e+05  -3.891865e+05
   9.316285e+05   4.547557e+04
   5.105030e+05   3.783203e+05
  -2.965376e+05   4.453662e+05
  -6.654073e+05   2.812128e+05
  -2.877328e+05   2.684190e+04
   3.145271e+05  -1.131126e+05
   4.074938e+05   1.163133e+04
  -1.286345e+05   2.800109e+05
  -6.997175e+05   3.017514e+05
