
 $NMID
 id='ANONYMOUS ', fmtdat='(2E16.6)'
 volume=1.0
 tramp=1.0
 $END
  -1.215722e+07   8.420666e+04
  -8.264201e+06  -5.443176e+06
  -2.338839e+05  -7.643239e+06
   5.133850e+06  -5.395793e+06
   4.525354e+06  -7.967659e+05
   4.204727e+05   2.215296e+06
  -2.508546e+06   1.302603e+06
  -2.052311e+06  -1.918215e+06
   4.397680e+05  -3.548142e+06
   2.302119e+06  -1.670043e+06
   2.065310e+06   1.598909e+06
   2.882072e+05   2.664088e+06
  -1.228364e+06   5.405955e+05
  -1.027835e+06  -2.249729e+06
   6.741153e+05  -2.664354e+06
   2.099441e+06  -3.278466e+05
   1.629479e+06   2.418980e+06
  -4.865577e+05   3.126405e+06
  -2.349491e+06   1.498569e+06
  -2.396365e+06  -7.274177e+05
  -9.661860e+05  -1.728837e+06
   2.195009e+05  -1.282315e+06
  -1.946940e+04  -6.432968e+05
  -1.079159e+06  -9.451272e+05
  -1.256860e+06  -1.911413e+06
   3.485281e+05  -2.260249e+06
   2.656366e+06  -1.239206e+06
   3.497724e+06   5.122948e+05
   1.877039e+06   1.645663e+06
  -7.774715e+05   1.396260e+06
  -1.960002e+06   1.416869e+05
  -7.269608e+05  -1.023536e+06
   1.359307e+06  -1.104177e+06
   2.081639e+06   6.782579e+04
   9.716764e+05   1.552232e+06
  -5.121377e+05   1.947154e+06
  -9.132153e+05   7.881493e+05
  -2.689955e+05  -7.269905e+05
   3.601228e+05  -9.033758e+05
   2.566300e+05   4.383147e+05
  -3.984862e+05   1.616362e+06
  -9.656714e+05   1.088943e+06
  -9.147590e+05  -6.104901e+05
  -1.421455e+05  -1.492695e+06
   8.334293e+05  -5.214371e+05
   1.048435e+06   1.198383e+06
  -4.259428e+04   1.780061e+06
  -1.713866e+06   6.338177e+05
  -2.369671e+06  -1.106592e+06
  -1.154322e+06  -1.925922e+06
   9.792256e+05  -1.323305e+06
   2.128790e+06  -6.020732e+03
   1.380113e+06   9.136936e+05
  -3.254291e+05   8.393710e+05
  -1.281895e+06   7.362280e+04
  -7.740635e+05  -5.394738e+05
   3.606134e+05  -4.180768e+05
   7.880550e+05   2.233471e+05
   1.182001e+05   6.460271e+05
  -7.539368e+05   3.780193e+05
  -6.958447e+05  -3.142348e+05
   3.575085e+05  -7.093188e+05
   1.258850e+06  -3.085778e+05
   8.719236e+05   7.112730e+05
  -6.590428e+05   1.577213e+06
  -2.028024e+06   1.478829e+06
  -2.138537e+06   2.714023e+05
  -1.154176e+06  -1.273402e+06
  -1.100636e+05  -2.079527e+06
   2.930291e+05  -1.779581e+06
   2.669016e+05  -1.018519e+06
   4.095619e+05  -6.175193e+05
   9.109332e+05  -5.888582e+05
   1.387874e+06  -2.617697e+05
   1.331258e+06   6.442680e+05
   5.904048e+05   1.442482e+06
  -4.670652e+05   1.216284e+06
  -1.147747e+06  -2.970641e+04
  -9.039594e+05  -1.243086e+06
   1.608499e+05  -1.378009e+06
   1.240665e+06  -4.047195e+05
   1.474371e+06   7.822347e+05
   7.610826e+05   1.310197e+06
  -1.590937e+05   1.067932e+06
  -5.329516e+05   5.938075e+05
  -4.158775e+05   4.048791e+05
  -5.078224e+05   4.978394e+05
  -1.176135e+06   4.385570e+05
  -1.847189e+06  -1.352096e+05
  -1.562927e+06  -1.092405e+06
  -1.273426e+05  -1.834927e+06
   1.484550e+06  -1.756806e+06
   2.004590e+06  -7.831115e+05
   1.133659e+06   4.642661e+05
  -1.783368e+05   1.100473e+06
  -7.266175e+05   7.380109e+05
  -2.230271e+05  -1.191526e+05
   5.750146e+05  -5.438481e+05
   7.832712e+05  -1.493194e+05
   2.760750e+05   4.890220e+05
  -3.270824e+05   5.163858e+05
  -3.779819e+05  -1.385768e+05
   1.877182e+05  -6.059875e+05
   8.333978e+05  -9.170182e+04
   8.848250e+05   1.108201e+06
   8.644307e+04   1.828189e+06
  -1.121090e+06   1.265983e+06
  -1.858044e+06  -1.735556e+05
  -1.519193e+06  -1.323533e+06
  -3.673072e+05  -1.416543e+06
   6.474877e+05  -7.089265e+05
   7.844624e+05  -4.709050e+04
   2.276720e+05   1.933171e+04
  -1.768656e+05  -3.348316e+05
   1.088741e+05  -5.397154e+05
   7.253130e+05  -2.679279e+05
   8.677885e+05   2.604133e+05
   2.551284e+05   5.420250e+05
  -4.943491e+05   3.131048e+05
  -5.202297e+05  -1.841430e+05
   3.031825e+05  -4.263290e+05
   1.155546e+06  -9.800622e+04
   1.093295e+06   6.003254e+05
   4.718620e+04   1.095751e+06
  -1.076614e+06   9.309150e+05
  -1.306023e+06   1.951695e+05
  -5.548661e+05  -5.061126e+05
   3.614902e+05  -5.894158e+05
   5.889090e+05  -7.139419e+04
   3.246190e+04   4.263759e+05
  -6.637649e+05   3.247470e+05
  -8.064669e+05  -2.831478e+05
  -2.837595e+05  -7.413211e+05
   3.964619e+05  -5.746272e+05
   6.146913e+05  -1.056627e+04
   2.254800e+05   3.088062e+05
  -2.957790e+05   5.428718e+04
  -3.158380e+05  -4.577873e+05
   2.846302e+05  -6.362970e+05
   9.293433e+05  -2.210413e+05
   9.200095e+05   4.895557e+05
   1.900080e+05   9.307899e+05
  -6.044470e+05   7.641379e+05
  -7.730458e+05   1.567321e+05
  -2.866235e+05  -3.695521e+05
   2.693563e+05  -4.068282e+05
   3.578897e+05  -3.520153e+04
   6.268667e+03   2.855099e+05
  -3.191567e+05   2.249577e+05
  -2.511520e+05  -5.978285e+04
   1.061331e+05  -1.352957e+05
   3.021941e+05   1.685983e+05
   1.275252e+04   5.247880e+05
  -5.929782e+05   4.521896e+05
  -9.627998e+05  -1.542221e+05
  -6.852016e+05  -8.775354e+05
   8.339943e+04  -1.149337e+06
   7.531153e+05  -7.580248e+05
   8.756727e+05  -2.570529e+04
   5.429834e+05   4.918551e+05
   1.975933e+05   5.054880e+05
   1.171444e+05   2.261591e+05
   1.640541e+05   9.358860e+04
   2.921812e+04   2.691201e+05
  -3.566067e+05   4.490772e+05
  -6.947957e+05   2.341247e+05
  -5.906026e+05  -3.493250e+05
   3.953206e+04  -7.892105e+05
   8.029227e+05  -5.928756e+05
   1.094556e+06   1.829201e+05
   6.094994e+05   9.450420e+05
  -3.496829e+05   1.100279e+06
  -1.097547e+06   5.726791e+05
  -1.149021e+06  -1.776075e+05
  -6.076416e+05  -6.085264e+05
   4.742150e+03  -5.703286e+05
   2.672049e+05  -3.606726e+05
   1.973155e+05  -3.376221e+05
   1.213777e+05  -5.065889e+05
   2.745788e+05  -5.265304e+05
   5.469558e+05  -1.315640e+05
   6.051781e+05   5.048495e+05
   2.582378e+05   8.856420e+05
  -2.954899e+05   6.740692e+05
  -6.098658e+05   2.955786e+04
  -4.168207e+05  -5.423462e+05
   9.142963e+04  -6.441910e+05
   4.446468e+05  -2.922269e+05
   3.703927e+05   1.720564e+05
   5.146421e+04   4.188430e+05
  -1.156813e+05   3.849736e+05
   1.596230e+04   2.460760e+05
   1.801662e+05   1.821693e+05
   1.470688e+04   1.900606e+05
  -4.885708e+05   1.223443e+05
  -9.000935e+05  -1.141574e+05
  -7.590065e+05  -4.272484e+05
  -7.078232e+04  -6.079005e+05
   6.392853e+05  -5.146908e+05
   8.171886e+05  -1.997445e+05
   4.205563e+05   1.185140e+05
  -7.595488e+04   2.170923e+05
  -2.094702e+05   6.229019e+04
   1.590437e+04  -1.328700e+05
   2.392915e+05  -1.040263e+05
   2.136187e+05   1.592380e+05
   4.381418e+04   3.586972e+05
  -2.605051e+04   2.286851e+05
   7.220567e+04  -9.886956e+04
   1.884718e+05  -2.051595e+05
   1.448469e+05   9.790430e+04
  -9.897890e+04   4.880448e+05
  -4.101137e+05   4.876218e+05
  -5.436084e+05   3.679392e+04
  -3.110736e+05  -4.259905e+05
   1.886447e+05  -4.611499e+05
   5.334171e+05  -8.828932e+04
   3.333805e+05   2.895719e+05
  -3.047291e+05   3.227779e+05
  -7.786779e+05   7.870668e+03
  -5.798881e+05  -3.777674e+05
   1.447206e+05  -5.310741e+05
   7.212386e+05  -3.432189e+05
   6.505215e+05   2.470317e+04
   1.063832e+05   2.592240e+05
  -2.943050e+05   1.674773e+05
  -1.570336e+05  -1.117735e+05
   3.086572e+05  -2.103968e+05
   5.487531e+05   9.098681e+04
   2.497962e+05   5.826904e+05
  -3.546647e+05   7.735120e+05
  -7.363312e+05   3.688693e+05
  -5.909110e+05  -3.843514e+05
  -8.901850e+04  -8.658998e+05
   3.496792e+05  -6.565046e+05
   4.543819e+05   3.371046e+04
   2.585391e+05   5.587959e+05
  -3.830289e+04   4.979042e+05
  -2.481775e+05   6.893472e+04
  -2.690283e+05  -1.892633e+05
  -1.292292e+05  -8.171065e+04
  -3.336729e+03   6.156820e+04
  -6.084065e+04  -1.040089e+05
  -2.176355e+05  -4.429673e+05
  -1.554920e+05  -5.247445e+05
   2.684403e+05  -2.018218e+05
   7.137244e+05   2.196266e+05
   6.697845e+05   3.954894e+05
   9.701912e+04   3.197373e+05
  -4.556582e+05   1.950361e+05
  -4.871761e+05   1.079812e+05
  -1.295113e+05   5.916247e+03
   8.857788e+04  -1.020227e+05
  -4.218509e+04  -1.276660e+05
  -1.885573e+05  -7.926221e+04
   5.489709e+02  -6.695869e+04
   3.813723e+05  -8.679888e+04
   4.883163e+05   2.648761e+04
   1.120578e+05   3.181270e+05
  -4.609341e+05   5.180559e+05
  -7.652522e+05   3.080106e+05
  -5.903167e+05  -2.434848e+05
  -1.011845e+05  -6.776993e+05
   3.513511e+05  -6.285882e+05
   4.974331e+05  -2.094863e+05
   3.182534e+05   1.466045e+05
   3.570598e+04   1.690138e+05
  -8.601420e+04  -5.056239e+03
   1.911196e+04  -4.895137e+04
   1.694158e+05   1.570205e+05
   1.385069e+05   3.834563e+05
  -9.976368e+04   3.079030e+05
  -3.335080e+05  -1.005052e+05
  -3.100496e+05  -4.928875e+05
   1.478200e+04  -4.819730e+05
   3.923305e+05  -5.770377e+04
   4.671652e+05   3.979775e+05
   1.217568e+05   5.140616e+05
  -3.499926e+05   2.746559e+05
  -5.006065e+05  -5.748005e+04
  -2.160855e+05  -2.536047e+05
   1.351444e+05  -2.677978e+05
   1.348706e+05  -1.601115e+05
  -1.678216e+05  -2.562172e+04
  -3.209412e+05   6.804648e+03
  -5.009761e+04  -1.365140e+05
   3.941044e+05  -3.240509e+05
   5.551177e+05  -2.877692e+05
   3.090322e+05   4.754536e+04
  -5.470357e+04   3.903980e+05
  -2.211678e+05   3.813595e+05
  -1.513624e+05   3.764710e+04
   4.320156e+03  -2.478122e+05
   1.251595e+05  -1.769785e+05
   1.683853e+05   1.168287e+05
   1.095465e+05   2.763289e+05
  -3.961253e+04   1.602502e+05
  -1.826070e+05  -4.344392e+04
  -2.074462e+05  -1.038738e+05
  -1.137308e+05  -1.867882e+04
  -7.486966e+03   3.551154e+04
   3.838834e+04  -5.273366e+04
   5.976758e+04  -1.962762e+05
   1.164659e+05  -2.096344e+05
   1.806656e+05  -1.826526e+04
   1.536584e+05   2.362814e+05
  -1.084362e+04   3.142913e+05
  -2.182626e+05   1.233650e+05
  -2.817872e+05  -1.669049e+05
  -9.264263e+04  -2.912422e+05
   2.288720e+05  -1.626148e+05
   3.897955e+05   6.232648e+04
   2.103056e+05   1.830932e+05
  -1.416972e+05   1.530929e+05
  -2.914672e+05   6.147751e+04
  -8.295243e+04  -3.192930e+02
   2.139077e+05   6.910404e+03
   2.117049e+05   8.389346e+04
  -1.224640e+05   1.666599e+05
  -4.203832e+05   1.208442e+05
