
 $NMID
 id='ANONYMOUS ', fmtdat='(2E16.6)'
 volume=1.0
 tramp=1.0
 $END
   4.140355e+07  -1.805359e+06
   2.694240e+07   2.303433e+07
  -2.772999e+06   2.797208e+07
  -1.940013e+07   1.347749e+07
  -1.333648e+07  -2.906193e+06
   1.254957e+06  -7.235910e+06
   7.722839e+06  -6.144830e+05
   3.518688e+06   7.085455e+06
  -3.704034e+06   8.361366e+06
  -7.327614e+06   2.730546e+06
  -5.750830e+06  -4.599888e+06
  -8.804072e+05  -6.949071e+06
   3.131175e+06  -2.068628e+06
   2.360465e+06   4.810381e+06
  -2.579523e+06   5.933110e+06
  -6.207583e+06  -2.906636e+05
  -4.091610e+06  -7.604220e+06
   2.213522e+06  -9.284842e+06
   7.404234e+06  -4.817718e+06
   8.034215e+06   1.403563e+06
   4.725713e+06   5.340651e+06
   5.485222e+05   5.837548e+06
  -1.370066e+06   4.085220e+06
  -1.457899e+05   2.481689e+06
   1.537476e+06   2.801723e+06
  -1.407315e+05   4.095261e+06
  -5.041538e+06   3.477782e+06
  -8.139950e+06   3.622916e+04
  -5.515483e+06  -3.443148e+06
   3.399326e+05  -3.867339e+06
   3.522800e+06  -1.564836e+06
   1.866264e+06   7.417715e+05
  -1.480787e+06   1.299433e+06
  -2.904690e+06   1.340948e+05
  -1.931445e+06  -2.022302e+06
   1.507435e+01  -3.676766e+06
   1.615593e+06  -2.805578e+06
   1.970546e+06   4.881405e+05
   7.833934e+05   2.637876e+06
  -4.932911e+05   7.520447e+05
   1.559823e+05  -2.610209e+06
   2.142577e+06  -2.197172e+06
   2.215924e+06   2.246814e+06
  -1.078779e+06   4.784398e+06
  -4.574806e+06   1.270991e+06
  -3.961788e+06  -4.687298e+06
   8.396274e+05  -6.313813e+06
   5.481681e+06  -2.084731e+06
   5.923087e+06   3.259685e+06
   2.082112e+06   4.951103e+06
  -2.728187e+06   2.666889e+06
  -4.740308e+06  -7.925030e+05
  -2.560597e+06  -2.705091e+06
   1.585270e+06  -2.003162e+06
   3.626930e+06   3.489024e+05
   1.807671e+06   1.935675e+06
  -1.221740e+06   1.159797e+06
  -1.640954e+06  -7.432495e+05
   6.647010e+05  -1.115511e+06
   2.128170e+06   6.281017e+05
   3.628030e+05   2.289013e+06
  -2.858667e+06   1.846679e+06
  -4.092718e+06  -3.621485e+05
  -2.139734e+06  -2.771604e+06
   1.423667e+06  -4.251986e+06
   4.333967e+06  -3.966668e+06
   5.130002e+06  -1.310968e+06
   3.539784e+06   2.668636e+06
   7.369293e+05   5.097425e+06
  -1.209684e+06   4.178712e+06
  -1.247271e+06   1.570911e+06
  -4.999586e+05   3.191364e+05
  -7.215338e+05   9.260692e+05
  -1.943041e+06   1.159824e+06
  -2.570132e+06  -3.647918e+05
  -1.572536e+06  -2.192190e+06
   3.659069e+05  -2.133515e+06
   1.779137e+06  -5.981585e+04
   1.654914e+06   2.166756e+06
  -1.087637e+05   2.741540e+06
  -2.504551e+06   1.279742e+06
  -3.685040e+06  -1.206987e+06
  -2.494009e+06  -3.072913e+06
   3.001713e+04  -3.225005e+06
   1.626144e+06  -2.076414e+06
   1.574716e+06  -1.043080e+06
   1.457254e+06  -8.290168e+05
   2.623158e+06  -6.562836e+05
   3.962328e+06   4.984337e+05
   3.255873e+06   2.414383e+06
   2.055603e+05   3.808607e+06
  -2.975264e+06   3.629485e+06
  -3.932201e+06   1.843957e+06
  -2.385255e+06  -5.815744e+05
  -2.216135e+04  -2.111090e+06
   1.174045e+06  -1.671286e+06
   4.871382e+05   1.060185e+05
  -1.060781e+06   1.175822e+06
  -1.700858e+06   3.679612e+05
  -7.591212e+05  -1.052540e+06
   5.459455e+05  -1.038567e+06
   5.486680e+05   3.473293e+05
  -7.828514e+05   9.134824e+05
  -1.796293e+06  -6.511672e+05
  -1.137879e+06  -2.924584e+06
   8.497890e+05  -3.485788e+06
   2.752454e+06  -1.684531e+06
   3.415961e+06   9.812275e+05
   2.507070e+06   2.659657e+06
   5.396056e+05   2.623573e+06
  -1.216371e+06   1.395848e+06
  -1.514643e+06   1.712122e+05
  -4.626878e+05  -3.871392e+04
   3.496866e+05   6.940967e+05
  -3.080791e+05   1.205368e+06
  -1.663478e+06   5.694635e+05
  -1.871126e+06  -6.970632e+05
  -4.406858e+05  -1.246209e+06
   1.063575e+06  -5.839478e+05
   9.217596e+05   4.136032e+05
  -7.456348e+05   6.431722e+05
  -2.186244e+06  -1.176912e+05
  -1.865207e+06  -1.274614e+06
   1.194420e+05  -2.008648e+06
   2.182257e+06  -1.689125e+06
   2.626229e+06  -3.207667e+05
   1.151252e+06   1.119281e+06
  -7.940587e+05   1.340305e+06
  -1.359260e+06   1.884635e+05
  -1.561453e+05  -9.496224e+05
   1.388658e+06  -6.909569e+05
   1.633926e+06   6.664170e+05
   4.247310e+05   1.545319e+06
  -9.502928e+05   1.027117e+06
  -1.222981e+06  -1.723486e+05
  -3.248670e+05  -7.035175e+05
   6.947216e+05  -8.402059e+04
   6.799927e+05   9.605587e+05
  -5.457110e+05   1.320582e+06
  -1.879902e+06   4.964253e+05
  -1.900094e+06  -9.764479e+05
  -3.835619e+05  -1.925927e+06
   1.297872e+06  -1.560106e+06
   1.607465e+06  -2.542150e+05
   5.208141e+05   7.941182e+05
  -5.909916e+05   7.876660e+05
  -6.424576e+05   6.845477e+04
   7.678907e+04  -4.338873e+05
   5.430459e+05  -2.839528e+05
   2.576702e+05   1.042231e+05
  -3.641602e+05   6.864819e+04
  -5.516328e+05  -5.293236e+05
   1.052182e+05  -1.109389e+06
   1.263690e+06  -8.806116e+05
   1.960915e+06   3.511884e+05
   1.393367e+06   1.802895e+06
  -1.816372e+05   2.298708e+06
  -1.525057e+06   1.412549e+06
  -1.666910e+06  -5.684448e+04
  -9.118523e+05  -9.109670e+05
  -3.182755e+05  -7.692381e+05
  -3.584526e+05  -2.866261e+05
  -5.011531e+05  -2.398604e+05
  -8.799396e+04  -6.533156e+05
   7.863677e+05  -8.798206e+05
   1.386775e+06  -3.712428e+05
   1.066074e+06   6.968295e+05
  -1.837807e+05   1.465531e+06
  -1.627477e+06   1.086562e+06
  -2.158460e+06  -4.188954e+05
  -1.140768e+06  -1.955748e+06
   8.497776e+05  -2.242927e+06
   2.333779e+06  -1.060409e+06
   2.269994e+06   5.189067e+05
   1.028740e+06   1.261555e+06
  -1.352309e+05   9.975010e+05
  -4.410390e+05   5.648536e+05
  -1.885720e+05   6.828431e+05
  -1.346911e+05   1.147203e+06
  -5.889549e+05   1.165510e+06
  -1.173127e+06   2.997128e+05
  -1.251298e+06  -1.009605e+06
  -5.326379e+05  -1.782914e+06
   5.828144e+05  -1.358935e+06
   1.221444e+06  -2.578975e+04
   8.050679e+05   1.167110e+06
  -2.931741e+05   1.321016e+06
  -1.031400e+06   4.739215e+05
  -7.771912e+05  -5.387351e+05
   2.174371e+04  -9.635683e+05
   4.041154e+05  -7.679008e+05
   4.219450e+04  -4.364198e+05
  -3.913064e+05  -3.309006e+05
  -4.744157e+04  -3.680288e+05
   1.049027e+06  -2.263094e+05
   1.903661e+06   2.665659e+05
   1.537713e+06   9.276208e+05
   4.267737e+04   1.315569e+06
  -1.414538e+06   1.080098e+06
  -1.703755e+06   3.262611e+05
  -8.224587e+05  -3.823262e+05
   2.045269e+05  -5.067286e+05
   4.653685e+05  -7.140966e+04
   1.572418e+04   3.474518e+05
  -4.380619e+05   2.310509e+05
  -4.480668e+05  -3.180603e+05
  -1.872777e+05  -6.877325e+05
  -4.180179e+04  -4.473649e+05
  -1.406118e+05   1.286178e+05
  -3.106932e+05   3.201847e+05
  -2.734191e+05  -2.121659e+05
   1.546011e+05  -9.470506e+05
   8.337232e+05  -1.003394e+06
   1.212084e+06  -1.501973e+05
   7.468073e+05   8.472496e+05
  -3.734353e+05   1.026591e+06
  -1.138194e+06   2.823696e+05
  -6.865785e+05  -5.501547e+05
   6.439313e+05  -6.319508e+05
   1.529501e+06   4.827467e+04
   1.033005e+06   8.021061e+05
  -4.013282e+05   9.922169e+05
  -1.437851e+06   5.408357e+05
  -1.222274e+06  -1.362589e+05
  -1.577004e+05  -5.018503e+05
   6.089528e+05  -2.872746e+05
   3.513204e+05   2.549927e+05
  -5.688134e+05   4.699215e+05
  -1.108259e+06  -1.034315e+05
  -5.958740e+05  -1.123341e+06
   5.939862e+05  -1.588149e+06
   1.417342e+06  -8.130343e+05
   1.190879e+06   7.257610e+05
   1.980984e+05   1.708116e+06
  -6.974867e+05   1.260871e+06
  -8.943892e+05  -1.306503e+05
  -4.522862e+05  -1.129544e+06
   1.640064e+05  -9.522630e+05
   5.239637e+05  -1.037436e+05
   4.740129e+05   3.668722e+05
   1.870087e+05   1.453333e+05
   3.466805e+04  -1.032879e+05
   2.257194e+05   2.477352e+05
   4.764635e+05   9.009421e+05
   2.278234e+05   1.037117e+06
  -6.325670e+05   3.961563e+05
  -1.411543e+06  -4.318943e+05
  -1.259455e+06  -7.909917e+05
  -1.873445e+05  -6.554371e+05
   8.374448e+05  -3.962956e+05
   9.473382e+05  -1.909413e+05
   3.208664e+05   2.438737e+04
  -1.475505e+05   2.101434e+05
  -9.481328e+01   2.196734e+05
   2.857556e+05   1.150285e+05
   3.400534e+04   1.255294e+05
  -6.630992e+05   2.072625e+05
  -9.863380e+05  -1.339133e+04
  -3.634378e+05  -6.370849e+05
   8.197601e+05  -1.094906e+06
   1.577248e+06  -7.081855e+05
   1.293644e+06   4.103332e+05
   2.559392e+05   1.335079e+06
  -7.059841e+05   1.300344e+06
  -9.860493e+05   4.944859e+05
  -6.242823e+05  -2.358559e+05
  -1.147131e+05  -3.352896e+05
   9.164471e+04  -3.736178e+04
  -7.062883e+04   4.169150e+04
  -3.053946e+05  -3.396549e+05
  -2.537220e+05  -7.672509e+05
   1.701352e+05  -6.367854e+05
   6.484473e+05   1.326915e+05
   6.843552e+05   9.133895e+05
   8.391533e+04   9.659593e+05
  -7.239730e+05   2.073213e+05
  -9.708405e+05  -6.999857e+05
  -3.195049e+05  -1.024028e+06
   6.705759e+05  -6.246421e+05
   1.044122e+06   6.736079e+04
   4.960308e+05   5.522583e+05
  -2.587542e+05   6.184026e+05
  -3.309490e+05   3.505539e+05
   2.588485e+05   2.283067e+04
   6.214268e+05  -3.647098e+04
   1.334021e+05   2.836614e+05
  -7.780145e+05   6.535819e+05
  -1.171422e+06   5.467396e+05
  -7.024239e+05  -1.355961e+05
   8.438790e+04  -8.137562e+05
   4.913539e+05  -8.103457e+05
   3.719908e+05  -1.439826e+05
   3.867870e+04   4.612111e+05
  -2.248445e+05   3.995313e+05
  -3.310845e+05  -1.596738e+05
  -2.417031e+05  -5.451246e+05
   4.773470e+04  -3.831078e+05
   3.675529e+05   4.880391e+04
   4.487773e+05   2.443245e+05
   2.337115e+05   7.516460e+04
  -2.649788e+04  -1.214880e+05
  -8.707408e+04  -3.528730e+03
  -2.053734e+04   3.419454e+05
  -8.116448e+04   4.864250e+05
  -3.047908e+05   1.654122e+05
  -4.012707e+05  -3.750197e+05
  -1.135470e+05  -6.064501e+05
   3.928500e+05  -2.877635e+05
   6.135329e+05   2.703338e+05
   2.318522e+05   5.474335e+05
  -4.703966e+05   3.489800e+05
  -8.214679e+05  -7.077669e+04
  -4.504579e+05  -3.527182e+05
   2.708734e+05  -3.653391e+05
   5.926991e+05  -2.029548e+05
   2.192691e+05  -2.032366e+04
  -3.468012e+05   4.435507e+04
  -3.900105e+05  -8.329405e+04
   1.797264e+05  -2.869077e+05
   7.334326e+05  -2.548229e+05
