
 $NMID
 id='ANONYMOUS ', fmtdat='(2E16.6)'
 volume=1.0
 tramp=1.0
 $END
  -2.045314e+07  -9.905988e+05
  -1.321750e+07  -9.904595e+06
   4.057929e+05  -1.275649e+07
   8.991672e+06  -8.484372e+06
   7.491168e+06  -9.353905e+05
   4.886065e+05   3.677251e+06
  -4.215565e+06   1.949689e+06
  -3.225448e+06  -3.314288e+06
   9.769389e+05  -5.824725e+06
   3.930688e+06  -2.582084e+06
   3.332143e+06   2.834678e+06
   2.944668e+05   4.481484e+06
  -2.112554e+06   8.240755e+05
  -1.589880e+06  -3.820307e+06
   1.291448e+06  -4.379252e+06
   3.506573e+06  -3.713097e+05
   2.515998e+06   4.165559e+06
  -1.074277e+06   5.175123e+06
  -4.071221e+06   2.308982e+06
  -3.983246e+06  -1.435543e+06
  -1.483908e+06  -3.030448e+06
   5.236420e+05  -2.178668e+06
   9.278886e+04  -1.051575e+06
  -1.718515e+06  -1.570621e+06
  -2.020027e+06  -3.220948e+06
   6.848829e+05  -3.767211e+06
   4.526151e+06  -1.942440e+06
   5.849145e+06   1.066214e+06
   3.053113e+06   2.898470e+06
  -1.394827e+06   2.332335e+06
  -3.313879e+06   1.533226e+05
  -1.200383e+06  -1.750156e+06
   2.292240e+06  -1.801417e+06
   3.470228e+06   1.846431e+05
   1.570944e+06   2.634732e+06
  -9.450436e+05   3.251240e+06
  -1.600650e+06   1.281066e+06
  -4.481745e+05  -1.263493e+06
   6.632976e+05  -1.538273e+06
   4.526585e+05   7.338532e+05
  -7.280378e+05   2.691242e+06
  -1.671077e+06   1.760195e+06
  -1.466977e+06  -1.085362e+06
  -9.699435e+04  -2.470732e+06
   1.444082e+06  -7.427829e+05
   1.631817e+06   2.124745e+06
  -2.502883e+05   2.964375e+06
  -2.930942e+06   9.126234e+05
  -3.873497e+06  -2.013266e+06
  -1.791140e+06  -3.275708e+06
   1.709894e+06  -2.134508e+06
   3.532884e+06   1.217907e+05
   2.228026e+06   1.598015e+06
  -6.033325e+05   1.358824e+06
  -2.136028e+06   2.081713e+04
  -1.240099e+06  -9.547925e+05
   6.367906e+05  -6.664376e+05
   1.295307e+06   4.183477e+05
   1.623705e+05   1.057199e+06
  -1.242032e+06   5.639143e+05
  -1.089647e+06  -5.421616e+05
   6.605507e+05  -1.105153e+06
   2.098837e+06  -3.959846e+05
   1.380657e+06   1.253495e+06
  -1.216080e+06   2.601250e+06
  -3.494047e+06   2.359029e+06
  -3.611301e+06   3.198535e+05
  -1.863271e+06  -2.223036e+06
  -4.957370e+04  -3.497659e+06
   6.054791e+05  -2.940302e+06
   4.904834e+05  -1.661638e+06
   6.873190e+05  -1.012010e+06
   1.536678e+06  -9.650113e+05
   2.343077e+06  -3.921476e+05
   2.214141e+06   1.136692e+06
   9.320683e+05   2.445560e+06
  -8.312875e+05   2.020067e+06
  -1.914216e+06  -9.422470e+04
  -1.451475e+06  -2.115892e+06
   3.394349e+05  -2.297571e+06
   2.105957e+06  -6.123299e+05
   2.434545e+06   1.402659e+06
   1.193940e+06   2.258262e+06
  -3.520440e+05   1.789360e+06
  -9.505027e+05   9.521037e+05
  -7.270735e+05   6.333684e+05
  -8.717453e+05   7.899543e+05
  -1.981244e+06   6.604378e+05
  -3.070605e+06  -3.325192e+05
  -2.544730e+06  -1.910967e+06
  -1.112404e+05  -3.068499e+06
   2.573746e+06  -2.854068e+06
   3.394491e+06  -1.205077e+06
   1.878471e+06   8.359351e+05
  -3.506377e+05   1.837743e+06
  -1.255679e+06   1.202806e+06
  -3.702279e+05  -2.109989e+05
   9.903716e+05  -8.805771e+05
   1.318161e+06  -2.044376e+05
   4.341858e+05   8.373575e+05
  -5.727118e+05   8.479348e+05
  -6.202956e+05  -2.455610e+05
   3.391061e+05  -9.877209e+05
   1.372166e+06  -1.000097e+05
   1.393385e+06   1.882298e+06
   4.604713e+04   3.024699e+06
  -1.916395e+06   2.033187e+06
  -3.071204e+06  -3.832174e+05
  -2.461621e+06  -2.273737e+06
  -5.430146e+05  -2.376428e+06
   1.116922e+06  -1.151031e+06
   1.313634e+06  -3.917227e+04
   3.790001e+05   4.455242e+04
  -2.768132e+05  -5.681847e+05
   2.144046e+05  -8.932328e+05
   1.227037e+06  -4.029349e+05
   1.430393e+06   4.855259e+05
   3.921138e+05   9.172130e+05
  -8.408118e+05   4.941766e+05
  -8.565488e+05  -3.314897e+05
   5.230943e+05  -6.900875e+05
   1.923602e+06  -1.042632e+05
   1.788678e+06   1.050631e+06
   2.489550e+04   1.823760e+06
  -1.841069e+06   1.494808e+06
  -2.188055e+06   2.558559e+05
  -8.964736e+05  -8.759520e+05
   6.396440e+05  -9.636419e+05
   9.892178e+05  -8.304876e+04
   2.948682e+04   7.166651e+05
  -1.126544e+06   5.054836e+05
  -1.328258e+06  -5.163938e+05
  -4.317153e+05  -1.248504e+06
   6.894956e+05  -9.327921e+05
   1.020856e+06   1.584131e+04
   3.568182e+05   5.242187e+05
  -4.963755e+05   7.196826e+04
  -5.019811e+05  -7.822346e+05
   5.097464e+05  -1.047829e+06
   1.564286e+06  -3.195798e+05
   1.510001e+06   8.673091e+05
   2.660997e+05   1.563965e+06
  -1.050666e+06   1.240984e+06
  -1.297181e+06   2.185379e+05
  -4.569682e+05  -6.308160e+05
   4.706023e+05  -6.631641e+05
   5.987259e+05  -4.204584e+04
  -1.034987e+03   4.733489e+05
  -5.389698e+05   3.603860e+05
  -4.148956e+05  -1.056845e+05
   1.792290e+05  -2.144114e+05
   4.893715e+05   2.969726e+05
  -9.032453e+03   8.729537e+05
  -1.013246e+06   7.208537e+05
  -1.597582e+06  -3.095290e+05
  -1.095892e+06  -1.501655e+06
   2.000283e+05  -1.913288e+06
   1.294061e+06  -1.224082e+06
   1.459096e+06   1.622841e+03
   8.811985e+05   8.440822e+05
   3.095761e+05   8.503465e+05
   1.891106e+05   3.862289e+05
   2.683184e+05   1.702123e+05
   3.129895e+04   4.521820e+05
  -6.187830e+05   7.282551e+05
  -1.168948e+06   3.534141e+05
  -9.663993e+05  -6.107944e+05
   1.050580e+05  -1.311156e+06
   1.368479e+06  -9.456997e+05
   1.815225e+06   3.625313e+05
   9.648677e+05   1.607461e+06
  -6.438386e+05   1.813640e+06
  -1.860315e+06   8.931975e+05
  -1.903286e+06  -3.573111e+05
  -9.795099e+05  -1.042525e+06
   3.464224e+04  -9.470279e+05
   4.598559e+05  -5.895608e+05
   3.461016e+05  -5.590860e+05
   2.325988e+05  -8.430146e+05
   4.896056e+05  -8.637517e+05
   9.213218e+05  -1.885804e+05
   9.835611e+05   8.757112e+05
   3.839464e+05   1.492236e+06
  -5.290189e+05   1.109661e+06
  -1.018414e+06   1.687798e+04
  -6.644109e+05  -9.267965e+05
   1.882398e+05  -1.067240e+06
   7.551415e+05  -4.593995e+05
   6.035908e+05   3.089400e+05
   5.933823e+04   6.988375e+05
  -2.143638e+05   6.313212e+05
   1.481340e+04   4.090412e+05
   2.921715e+05   3.142538e+05
   1.492780e+04   3.183987e+05
  -8.217065e+05   1.761196e+05
  -1.495574e+06  -2.413379e+05
  -1.242093e+06  -7.541353e+05
  -8.253911e+04  -1.015960e+06
   1.096364e+06  -8.215248e+05
   1.372652e+06  -2.877186e+05
   6.912741e+05   2.203269e+05
  -1.406628e+05   3.571757e+05
  -3.515914e+05   9.120509e+04
   3.570831e+04  -2.227609e+05
   4.053141e+05  -1.622381e+05
   3.482078e+05   2.776785e+05
   5.557532e+04   6.036773e+05
  -5.473088e+04   3.829576e+05
   1.236895e+05  -1.608631e+05
   3.223277e+05  -3.338146e+05
   2.359277e+05   1.706287e+05
  -1.898929e+05   8.102832e+05
  -7.110560e+05   7.918408e+05
  -9.120699e+05   2.949042e+04
  -4.974766e+05  -7.309515e+05
   3.422099e+05  -7.603377e+05
   8.983666e+05  -1.176691e+05
   5.420128e+05   5.013058e+05
  -5.254422e+05   5.214742e+05
  -1.297912e+06  -2.762086e+04
  -9.456752e+05  -6.576962e+05
   2.682346e+05  -8.749645e+05
   1.217538e+06  -5.339294e+05
   1.081340e+06   7.382974e+04
   1.640004e+05   4.365379e+05
  -4.987442e+05   2.630880e+05
  -2.554794e+05  -1.960909e+05
   5.273646e+05  -3.365158e+05
   9.133431e+05   1.806959e+05
   3.878660e+05   9.882049e+05
  -6.333243e+05   1.275755e+06
  -1.250242e+06   5.787108e+05
  -9.671444e+05  -6.727140e+05
  -1.035702e+05  -1.450249e+06
   6.167632e+05  -1.076890e+06
   7.545978e+05   8.022973e+04
   4.012072e+05   9.444065e+05
  -8.946376e+04   8.261179e+05
  -4.169713e+05   1.009330e+05
  -4.389422e+05  -3.281346e+05
  -2.114749e+05  -1.410036e+05
  -8.412942e+03   1.016518e+05
  -9.548371e+04  -1.800471e+05
  -3.395994e+05  -7.520573e+05
  -2.316456e+05  -8.814801e+05
   4.590017e+05  -3.198032e+05
   1.179643e+06   4.037672e+05
   1.096421e+06   6.931117e+05
   1.444970e+05   5.386249e+05
  -7.705144e+05   3.035785e+05
  -8.178642e+05   1.550901e+05
  -2.157479e+05   1.014769e+03
   1.532368e+05  -1.664861e+05
  -6.419239e+04  -2.126285e+05
  -3.112242e+05  -1.393246e+05
   4.004285e+03  -1.126732e+05
   6.414521e+05  -1.277864e+05
   8.147476e+05   7.006749e+04
   1.709696e+05   5.408996e+05
  -7.977637e+05   8.435212e+05
  -1.296358e+06   4.727426e+05
  -9.751729e+05  -4.404155e+05
  -1.339266e+05  -1.137793e+06
   6.208686e+05  -1.030606e+06
   8.433656e+05  -3.239964e+05
   5.249688e+05   2.607933e+05
   5.098884e+04   2.851838e+05
  -1.441941e+05  -1.037351e+04
   3.303053e+04  -7.941617e+04
   2.734963e+05   2.701718e+05
   2.107488e+05   6.465848e+05
  -1.832015e+05   5.095657e+05
  -5.531587e+05  -1.844166e+05
  -4.938674e+05  -8.404187e+05
   4.955564e+04  -8.069007e+05
   6.601406e+05  -7.785490e+04
   7.616103e+05   6.893972e+05
   1.765695e+05   8.665378e+05
  -6.006439e+05   4.411472e+05
  -8.340403e+05  -1.233709e+05
  -3.462662e+05  -4.367673e+05
   2.420326e+05  -4.405810e+05
   2.347690e+05  -2.584760e+05
  -2.791100e+05  -4.924710e+04
  -5.365158e+05  -4.890862e+03
  -7.626458e+04  -2.315013e+05
   6.749516e+05  -5.202962e+05
   9.411567e+05  -4.489601e+05
   5.125305e+05   9.837704e+04
  -1.127536e+05   6.495588e+05
  -3.909361e+05   6.235963e+05
  -2.569902e+05   5.319746e+04
   1.904456e+04  -4.145228e+05
   2.194162e+05  -2.897364e+05
   2.769574e+05   2.032920e+05
   1.685568e+05   4.675679e+05
  -7.622518e+04   2.666183e+05
  -3.035778e+05  -8.200813e+04
  -3.398435e+05  -1.855181e+05
  -1.877509e+05  -3.758671e+04
  -1.560229e+04   6.036266e+04
   6.374032e+04  -8.505492e+04
   1.080838e+05  -3.269970e+05
   2.065427e+05  -3.485015e+05
   3.059086e+05  -2.331092e+04
   2.473216e+05   4.046327e+05
  -3.330065e+04   5.277538e+05
  -3.717230e+05   1.958448e+05
  -4.635750e+05  -2.945364e+05
  -1.404956e+05  -4.921000e+05
   3.913201e+05  -2.590490e+05
   6.490344e+05   1.255356e+05
   3.418592e+05   3.174728e+05
  -2.462221e+05   2.487083e+05
  -4.920662e+05   8.736219e+04
  -1.393400e+05  -6.358062e+03
   3.578574e+05   2.014519e+04
   3.511520e+05   1.497476e+05
  -2.114654e+05   2.733004e+05
  -7.077347e+05   1.826515e+05
