
 $NMID
 id='ANONYMOUS ', fmtdat='(2E16.6)'
 volume=1.0
 tramp=1.0
 $END
  -3.353749e+07  -2.784198e+06
  -1.936844e+07  -1.977734e+07
   4.131336e+06  -2.138334e+07
   1.591445e+07  -1.003557e+07
   1.042728e+07   2.008374e+06
  -1.014401e+06   5.523447e+06
  -6.131522e+06   7.790007e+05
  -2.966821e+06  -5.581469e+06
   2.890060e+06  -7.092796e+06
   6.004471e+06  -2.276888e+06
   4.567630e+06   4.333051e+06
   2.549385e+05   6.173524e+06
  -2.995067e+06   1.389758e+06
  -1.978794e+06  -4.700965e+06
   2.277856e+06  -5.278883e+06
   5.061391e+06   3.791256e+05
   2.991058e+06   6.504363e+06
  -2.374605e+06   7.520280e+06
  -6.497597e+06   3.292774e+06
  -6.429668e+06  -2.127242e+06
  -2.980396e+06  -4.982958e+06
   5.597799e+05  -4.480327e+06
   1.294972e+06  -2.543858e+06
  -6.678333e+05  -1.807493e+06
  -1.991999e+06  -3.058962e+06
   4.268625e+05  -4.263450e+06
   5.300544e+06  -2.868928e+06
   7.637096e+06   8.379074e+05
   4.513094e+06   3.747090e+06
  -1.141421e+06   3.505971e+06
  -3.867293e+06   9.369223e+05
  -1.830510e+06  -1.403622e+06
   1.872429e+06  -1.800789e+06
   3.413170e+06  -1.220499e+05
   1.988005e+06   2.483565e+06
  -5.169303e+05   3.828706e+06
  -1.937258e+06   2.194148e+06
  -1.444191e+06  -1.168849e+06
   8.267980e+04  -2.480950e+06
   7.632007e+05  -3.502069e+04
  -4.060040e+05   2.906558e+06
  -2.069504e+06   2.041061e+06
  -1.772448e+06  -1.890219e+06
   9.003412e+05  -3.677146e+06
   3.316979e+06  -5.641289e+05
   2.596020e+06   4.019810e+06
  -1.108742e+06   4.870605e+06
  -4.676402e+06   1.216994e+06
  -5.032752e+06  -3.100249e+06
  -1.813759e+06  -4.400090e+06
   2.427132e+06  -2.394848e+06
   4.280525e+06   6.545355e+05
   2.360843e+06   2.320155e+06
  -1.276422e+06   1.625309e+06
  -3.010544e+06  -4.115082e+05
  -1.458096e+06  -1.629615e+06
   1.074926e+06  -8.821609e+05
   1.505806e+06   6.651282e+05
  -2.830823e+05   1.007533e+06
  -1.588715e+06  -1.937378e+05
  -4.617256e+05  -1.395465e+06
   2.011113e+06  -1.211936e+06
   3.169985e+06   3.045120e+05
   1.632338e+06   2.260682e+06
  -1.636027e+06   3.626507e+06
  -4.380683e+06   3.273202e+06
  -4.801938e+06   6.730042e+05
  -2.836444e+06  -2.846565e+06
  -2.022746e+05  -4.679982e+06
   1.140726e+06  -3.682117e+06
   8.900047e+05  -1.576938e+06
   4.846167e+05  -7.283434e+05
   1.152429e+06  -1.160833e+06
   2.382205e+06  -9.396211e+05
   2.683923e+06   8.074262e+05
   1.411555e+06   2.544281e+06
  -6.198997e+05   2.288680e+06
  -1.980318e+06   3.104016e+04
  -1.664900e+06  -2.282258e+06
   2.796052e+05  -2.714799e+06
   2.548991e+06  -9.709547e+05
   3.305369e+06   1.553890e+06
   1.861413e+06   3.031417e+06
  -4.143897e+05   2.729459e+06
  -1.546289e+06   1.515821e+06
  -1.286707e+06   7.588539e+05
  -1.233570e+06   7.699930e+05
  -2.432877e+06   6.172310e+05
  -3.706856e+06  -5.460259e+05
  -3.017931e+06  -2.375797e+06
  -8.786946e+04  -3.660444e+06
   3.027554e+06  -3.408101e+06
   3.970077e+06  -1.577830e+06
   2.315971e+06   8.066819e+05
  -1.890029e+05   2.160249e+06
  -1.347727e+06   1.555089e+06
  -4.768096e+05  -1.848534e+05
   1.125701e+06  -1.094834e+06
   1.630125e+06  -2.557557e+05
   6.098333e+05   1.054649e+06
  -6.170359e+05   1.011983e+06
  -6.062479e+05  -2.985044e+05
   5.768421e+05  -9.370054e+05
   1.558125e+06   3.552324e+05
   1.184874e+06   2.495268e+06
  -4.771362e+05   3.295984e+06
  -2.393846e+06   1.843915e+06
  -3.334774e+06  -7.459100e+05
  -2.589658e+06  -2.585534e+06
  -5.631289e+05  -2.636843e+06
   1.258280e+06  -1.347248e+06
   1.518044e+06  -9.604262e+04
   4.465666e+05   5.343955e+04
  -3.196587e+05  -6.791429e+05
   3.188952e+05  -1.103860e+06
   1.560111e+06  -4.601960e+05
   1.725116e+06   6.866086e+05
   3.963272e+05   1.156419e+06
  -1.023474e+06   5.473725e+05
  -9.362141e+05  -3.967113e+05
   6.554274e+05  -6.783891e+05
   2.138976e+06   2.466931e+04
   1.911052e+06   1.219813e+06
  -5.733651e+04   2.004703e+06
  -2.143843e+06   1.654299e+06
  -2.558426e+06   2.610504e+05
  -1.055877e+06  -1.090619e+06
   8.126007e+05  -1.206582e+06
   1.265021e+06  -9.435487e+04
   6.990455e+04   9.078465e+05
  -1.359941e+06   6.072787e+05
  -1.553341e+06  -6.624085e+05
  -4.181539e+05  -1.476278e+06
   8.772042e+05  -1.003029e+06
   1.165552e+06   1.247269e+05
   3.363898e+05   6.459245e+05
  -6.373032e+05   5.958854e+04
  -6.130580e+05  -9.467261e+05
   5.866696e+05  -1.259941e+06
   1.850269e+06  -4.059813e+05
   1.803116e+06   1.019478e+06
   3.062366e+05   1.866473e+06
  -1.282421e+06   1.457913e+06
  -1.543139e+06   2.136343e+05
  -4.971513e+05  -7.632301e+05
   5.779532e+05  -7.560867e+05
   6.632157e+05  -5.763272e+04
  -2.838458e+04   4.700422e+05
  -5.554779e+05   3.491076e+05
  -3.572792e+05  -7.860186e+04
   2.607706e+05  -1.212365e+05
   5.168075e+05   4.410210e+05
  -8.683854e+04   1.034216e+06
  -1.221729e+06   8.221259e+05
  -1.883260e+06  -3.864500e+05
  -1.291229e+06  -1.784113e+06
   2.394785e+05  -2.236661e+06
   1.508548e+06  -1.374287e+06
   1.645110e+06   4.760477e+04
   9.455857e+05   9.218622e+05
   3.539843e+05   8.508622e+05
   3.123087e+05   3.775678e+05
   4.012885e+05   2.500395e+05
   3.851000e+04   5.936430e+05
  -7.572807e+05   8.319228e+05
  -1.348980e+06   3.650547e+05
  -1.068744e+06  -6.923437e+05
   1.596355e+05  -1.456477e+06
   1.595091e+06  -1.053029e+06
   2.100214e+06   4.440815e+05
   1.080952e+06   1.904287e+06
  -8.379246e+05   2.126562e+06
  -2.239701e+06   9.829201e+05
  -2.189876e+06  -5.011254e+05
  -1.039576e+06  -1.217412e+06
   8.791478e+04  -1.012878e+06
   4.643460e+05  -6.181598e+05
   2.928144e+05  -6.873257e+05
   2.309158e+05  -1.074548e+06
   6.091956e+05  -1.066960e+06
   1.126152e+06  -2.309696e+05
   1.174703e+06   1.028921e+06
   4.588171e+05   1.754488e+06
  -6.147915e+05   1.306645e+06
  -1.188840e+06   2.890880e+03
  -7.525657e+05  -1.124731e+06
   2.832104e+05  -1.252034e+06
   9.455134e+05  -4.593861e+05
   7.003707e+05   4.711993e+05
  -1.417258e+04   8.692988e+05
  -3.435682e+05   7.150447e+05
  -1.535198e+04   4.383389e+05
   3.631268e+05   3.522650e+05
   2.968130e+04   3.673237e+05
  -9.967026e+05   1.880078e+05
  -1.800712e+06  -3.134271e+05
  -1.455728e+06  -9.223404e+05
  -3.161599e+04  -1.230403e+06
   1.362273e+06  -9.729770e+05
   1.634011e+06  -2.892916e+05
   7.799252e+05   3.337575e+05
  -2.020735e+05   4.504191e+05
  -4.290227e+05   7.227461e+04
   2.648538e+04  -3.102322e+05
   4.542340e+05  -2.070977e+05
   4.182094e+05   3.267130e+05
   1.235711e+05   7.022749e+05
  -1.132907e+04   4.548042e+05
   1.325551e+05  -1.511294e+05
   3.279813e+05  -3.516212e+05
   2.657770e+05   2.041336e+05
  -1.918012e+05   9.371874e+05
  -8.401487e+05   9.419517e+05
  -1.144573e+06   6.280877e+04
  -6.519898e+05  -8.673311e+05
   4.101087e+05  -9.472520e+05
   1.102791e+06  -1.873827e+05
   6.489472e+05   5.721444e+05
  -6.306124e+05   5.983943e+05
  -1.493988e+06  -6.168093e+04
  -1.031705e+06  -7.760834e+05
   3.637916e+05  -9.705323e+05
   1.401282e+06  -5.477643e+05
   1.210706e+06   1.213506e+05
   1.647614e+05   4.941742e+05
  -5.882394e+05   2.801069e+05
  -3.158604e+05  -2.511916e+05
   5.963555e+05  -4.280506e+05
   1.085112e+06   1.684072e+05
   5.131887e+05   1.145071e+06
  -6.816335e+05   1.530384e+06
  -1.441095e+06   7.264514e+05
  -1.142245e+06  -7.633473e+05
  -1.369705e+05  -1.685489e+06
   7.119079e+05  -1.232170e+06
   8.666839e+05   1.250213e+05
   4.342666e+05   1.102073e+06
  -1.449294e+05   9.319419e+05
  -4.982683e+05   9.717177e+04
  -4.810269e+05  -3.684405e+05
  -2.114251e+05  -1.457815e+05
  -2.258344e+04   1.044423e+05
  -1.635800e+05  -2.454416e+05
  -4.188249e+05  -8.928650e+05
  -2.284458e+05  -1.013618e+06
   5.876180e+05  -3.584074e+05
   1.372599e+06   4.646597e+05
   1.239797e+06   7.987565e+05
   1.642303e+05   6.373087e+05
  -8.612143e+05   3.688984e+05
  -9.383787e+05   1.725459e+05
  -2.811837e+05  -2.597944e+04
   1.639638e+05  -2.019160e+05
  -3.391849e+04  -2.180954e+05
  -3.204777e+05  -1.268305e+05
  -1.615010e+04  -1.317303e+05
   7.000997e+05  -1.817801e+05
   9.636379e+05   6.025149e+04
   2.764864e+05   6.507089e+05
  -8.840142e+05   1.032848e+06
  -1.552765e+06   5.989125e+05
  -1.212276e+06  -4.864152e+05
  -1.900910e+05  -1.326218e+06
   7.315652e+05  -1.229453e+06
   9.905981e+05  -4.228035e+05
   6.154111e+05   2.711740e+05
   8.435999e+04   3.376051e+05
  -1.310087e+05   2.434854e+04
   4.885545e+04  -5.830962e+04
   2.990720e+05   3.251497e+05
   2.350856e+05   7.534430e+05
  -2.003306e+05   6.118857e+05
  -6.463592e+05  -1.753128e+05
  -6.232764e+05  -9.514589e+05
  -4.458226e+03  -9.596527e+05
   7.509363e+05  -1.496031e+05
   9.238375e+05   7.578595e+05
   2.495625e+05   1.020656e+06
  -6.953784e+05   5.615162e+05
  -1.005059e+06  -1.224626e+05
  -4.348874e+05  -5.428082e+05
   2.864285e+05  -5.623627e+05
   3.113832e+05  -3.117484e+05
  -2.881414e+05  -3.211024e+04
  -6.191593e+05   1.025046e+04
  -1.062172e+05  -2.805188e+05
   7.838635e+05  -6.138152e+05
   1.129760e+06  -5.030650e+05
   6.402174e+05   1.471033e+05
  -1.216436e+05   7.809932e+05
  -4.889932e+05   7.495211e+05
  -3.467315e+05   9.110711e+04
  -8.387114e+03  -4.720881e+05
   2.480438e+05  -3.671392e+05
   3.304578e+05   1.964176e+05
   2.110884e+05   5.453543e+05
  -7.960274e+04   3.499344e+05
  -3.613414e+05  -7.513531e+04
  -4.115124e+05  -2.407299e+05
  -2.181614e+05  -6.502175e+04
  -1.994045e+03   1.033545e+05
   6.615786e+04  -3.906639e+04
   6.575678e+04  -3.677700e+05
   1.672475e+05  -4.636701e+05
   3.434564e+05  -1.048058e+05
   3.532271e+05   4.319101e+05
   3.806408e+04   6.224385e+05
  -4.159073e+05   2.574419e+05
  -5.778078e+05  -3.155824e+05
  -1.948958e+05  -5.621651e+05
   4.671042e+05  -3.149102e+05
   7.889198e+05   1.218584e+05
   4.182660e+05   3.673198e+05
  -2.884288e+05   3.249945e+05
  -5.909648e+05   1.449929e+05
  -1.945248e+05  -2.780390e+03
   3.822078e+05  -1.882928e+04
   4.036125e+05   1.246766e+05
  -2.057492e+05   3.031575e+05
  -7.710160e+05   2.354133e+05
