
 $NMID
 id='ANONYMOUS ', fmtdat='(2E16.6)'
 volume=1.0
 tramp=1.0
 $END
   2.193197e+07   2.045569e+06
   1.306425e+07   1.217281e+07
  -1.942765e+06   1.377754e+07
  -1.015321e+07   7.543996e+06
  -7.363927e+06  -2.899241e+05
   9.498490e+04  -3.655978e+06
   4.147268e+06  -1.147090e+06
   2.531191e+06   3.569977e+06
  -1.550431e+06   5.267889e+06
  -4.033954e+06   2.004626e+06
  -3.202024e+06  -2.920299e+06
  -2.205654e+05  -4.344948e+06
   2.037336e+06  -8.782729e+05
   1.377338e+06   3.514467e+06
  -1.517201e+06   3.964323e+06
  -3.519608e+06  -2.007078e+04
  -2.235760e+06  -4.421777e+06
   1.462212e+06  -5.257957e+06
   4.391416e+06  -2.295960e+06
   4.276923e+06   1.519381e+06
   1.763109e+06   3.311553e+06
  -4.971176e+05   2.666507e+06
  -5.070806e+05   1.417208e+06
   1.102821e+06   1.470358e+06
   1.670707e+06   2.761506e+06
  -5.810995e+05   3.383487e+06
  -4.174814e+06   1.868931e+06
  -5.555074e+06  -9.516425e+05
  -3.016843e+06  -2.778575e+06
   1.128018e+06  -2.297246e+06
   2.959883e+06  -3.033074e+05
   1.174943e+06   1.386988e+06
  -1.833457e+06   1.487366e+06
  -2.943466e+06  -9.525757e+04
  -1.498210e+06  -2.208285e+06
   6.450390e+05  -2.978302e+06
   1.482455e+06  -1.427558e+06
   7.203355e+05   1.014690e+06
  -3.871115e+05   1.609651e+06
  -4.937248e+05  -3.745274e+05
   5.549380e+05  -2.363339e+06
   1.603954e+06  -1.579893e+06
   1.329579e+06   1.204712e+06
  -3.295228e+05   2.481176e+06
  -1.884889e+06   4.974929e+05
  -1.626761e+06  -2.518302e+06
   6.313704e+05  -3.162688e+06
   3.138177e+06  -7.860987e+05
   3.642435e+06   2.196095e+06
   1.461057e+06   3.214898e+06
  -1.721945e+06   1.862498e+06
  -3.241757e+06  -3.450280e+05
  -1.932283e+06  -1.605790e+06
   7.144330e+05  -1.193050e+06
   2.073157e+06   1.626490e+05
   1.111190e+06   1.013539e+06
  -6.764711e+05   5.949477e+05
  -1.153599e+06  -4.396955e+05
   8.603830e+03  -8.430382e+05
   1.141715e+06  -2.028152e+05
   6.725503e+05   7.210584e+05
  -1.051778e+06   9.228845e+05
  -2.160267e+06   5.184796e+04
  -1.237612e+06  -1.446940e+06
   1.242609e+06  -2.586856e+06
   3.359826e+06  -2.306141e+06
   3.530514e+06  -3.383647e+05
   1.905253e+06   2.160460e+06
   4.760679e+04   3.401323e+06
  -7.273657e+05   2.759568e+06
  -5.596605e+05   1.410780e+06
  -5.368810e+05   8.029197e+05
  -1.228966e+06   8.891415e+05
  -2.050708e+06   4.663975e+05
  -2.034909e+06  -9.184241e+05
  -9.087524e+05  -2.133655e+06
   6.644354e+05  -1.782619e+06
   1.630458e+06   7.391175e+04
   1.259832e+06   1.870882e+06
  -3.039698e+05   2.082221e+06
  -1.951839e+06   6.062068e+05
  -2.359085e+06  -1.291617e+06
  -1.223339e+06  -2.222993e+06
   3.504428e+05  -1.861058e+06
   1.046039e+06  -1.007134e+06
   8.409371e+05  -5.830568e+05
   8.946777e+05  -6.538579e+05
   1.870917e+06  -5.033477e+05
   2.850327e+06   4.284152e+05
   2.310174e+06   1.849187e+06
   2.346354e+04   2.830574e+06
  -2.422231e+06   2.584000e+06
  -3.124482e+06   1.100993e+06
  -1.731959e+06  -7.306746e+05
   2.780860e+05  -1.667573e+06
   1.106952e+06  -1.124951e+06
   3.280263e+05   1.674209e+05
  -9.044531e+05   7.904456e+05
  -1.212345e+06   1.617948e+05
  -4.056203e+05  -7.819777e+05
   4.975215e+05  -7.480709e+05
   4.894827e+05   2.377403e+05
  -3.946209e+05   7.896614e+05
  -1.216997e+06  -1.257707e+05
  -1.066186e+06  -1.845352e+06
   1.950966e+05  -2.659062e+06
   1.832171e+06  -1.626546e+06
   2.710967e+06   4.992832e+05
   2.114812e+06   2.082093e+06
   4.316474e+05   2.129146e+06
  -1.023643e+06   1.040550e+06
  -1.191499e+06   4.051061e+04
  -3.472586e+05  -4.131941e+04
   2.309655e+05   5.261508e+05
  -2.446148e+05   8.178270e+05
  -1.161698e+06   3.257164e+05
  -1.289810e+06  -5.092157e+05
  -3.026284e+05  -8.486168e+05
   7.807300e+05  -3.951998e+05
   7.251428e+05   3.311572e+05
  -5.277718e+05   5.607215e+05
  -1.723347e+06  -1.229432e+04
  -1.541866e+06  -9.977389e+05
   4.912822e+04  -1.616055e+06
   1.704814e+06  -1.291785e+06
   1.995402e+06  -1.826662e+05
   8.007118e+05   8.276490e+05
  -6.182821e+05   8.846534e+05
  -9.291046e+05   5.662531e+04
  -1.790776e+04  -6.670421e+05
   1.046899e+06  -4.336499e+05
   1.189514e+06   5.156556e+05
   3.350670e+05   1.137514e+06
  -6.598756e+05   7.905958e+05
  -8.987495e+05  -7.280184e+04
  -2.690010e+05  -4.786384e+05
   4.758198e+05  -2.016992e+04
   4.362378e+05   7.544261e+05
  -5.042294e+05   9.607728e+05
  -1.455151e+06   2.624723e+05
  -1.375739e+06  -8.313529e+05
  -2.083546e+05  -1.445149e+06
   9.970216e+05  -1.111728e+06
   1.185573e+06  -1.669006e+05
   3.845800e+05   5.746580e+05
  -4.450919e+05   5.716752e+05
  -5.157704e+05   2.666756e+04
   3.740128e+04  -3.906600e+05
   4.778015e+05  -2.767739e+05
   3.218915e+05   9.763328e+04
  -2.015140e+05   1.431502e+05
  -4.295672e+05  -3.266967e+05
   5.776246e+04  -8.149353e+05
   9.649256e+05  -6.353310e+05
   1.467247e+06   3.286211e+05
   9.787281e+05   1.410963e+06
  -2.169520e+05   1.746366e+06
  -1.195790e+06   1.073841e+06
  -1.307067e+06  -3.791064e+04
  -7.660704e+05  -7.493321e+05
  -2.799622e+05  -7.190331e+05
  -2.145380e+05  -3.303956e+05
  -2.846274e+05  -1.920659e+05
  -2.415429e+04  -4.550365e+05
   5.991550e+05  -6.608180e+05
   1.086042e+06  -2.878198e+05
   8.647746e+05   5.750927e+05
  -1.341628e+05   1.179431e+06
  -1.279478e+06   8.240948e+05
  -1.652540e+06  -3.775456e+05
  -8.281706e+05  -1.501764e+06
   6.656987e+05  -1.644519e+06
   1.743644e+06  -7.504204e+05
   1.711851e+06   3.948655e+05
   8.291588e+05   9.621358e+05
  -6.549612e+04   8.206223e+05
  -3.961405e+05   5.039959e+05
  -2.781519e+05   5.256665e+05
  -2.111224e+05   8.076201e+05
  -4.797505e+05   8.045185e+05
  -8.674966e+05   1.582683e+05
  -8.938293e+05  -8.220093e+05
  -3.267413e+05  -1.375414e+06
   5.024315e+05  -1.006760e+06
   9.271082e+05   1.361423e+04
   5.749127e+05   8.784504e+05
  -2.213963e+05   9.706460e+05
  -7.240887e+05   3.654523e+05
  -5.387927e+05  -3.466669e+05
   1.376879e+03  -6.615441e+05
   2.523970e+05  -5.563496e+05
   5.803145e+03  -3.513168e+05
  -2.788539e+05  -2.875121e+05
  -1.747754e+04  -2.946734e+05
   7.765619e+05  -1.394533e+05
   1.395685e+06   2.668620e+05
   1.123652e+06   7.350543e+05
   1.825649e+04   9.480086e+05
  -1.060302e+06   7.316838e+05
  -1.269548e+06   2.138855e+05
  -6.072928e+05  -2.491289e+05
   1.556571e+05  -3.399209e+05
   3.320375e+05  -6.038198e+04
  -2.676749e+04   2.329711e+05
  -3.625376e+05   1.586629e+05
  -3.234677e+05  -2.583293e+05
  -7.585450e+04  -5.566223e+05
   2.840533e+04  -3.562409e+05
  -1.094017e+05   1.307242e+05
  -2.795342e+05   2.832653e+05
  -2.135212e+05  -1.706107e+05
   1.736416e+05  -7.456489e+05
   6.791716e+05  -7.233586e+05
   8.852462e+05  -1.664425e+04
   4.799372e+05   6.934510e+05
  -3.373828e+05   7.221353e+05
  -8.576989e+05   1.168433e+05
  -4.995134e+05  -4.610554e+05
   4.960547e+05  -4.646424e+05
   1.176122e+06   5.629554e+04
   8.206951e+05   6.165506e+05
  -2.806354e+05   7.704114e+05
  -1.108841e+06   4.337419e+05
  -9.607342e+05  -1.003212e+05
  -1.300890e+05  -3.923865e+05
   4.611873e+05  -2.159532e+05
   2.352003e+05   1.977257e+05
  -4.828456e+05   3.171314e+05
  -8.452154e+05  -1.617501e+05
  -3.702532e+05  -9.106382e+05
   5.713813e+05  -1.182882e+06
   1.145714e+06  -5.398186e+05
   8.841931e+05   6.178155e+05
   8.361573e+04   1.326001e+06
  -5.746999e+05   9.644963e+05
  -6.805496e+05  -1.013202e+05
  -3.333561e+05  -8.695462e+05
   1.172914e+05  -7.341274e+05
   3.898591e+05  -7.141343e+04
   3.797905e+05   2.992600e+05
   1.716143e+05   1.204464e+05
   1.392305e+04  -8.365223e+04
   1.090654e+05   1.897224e+05
   3.086172e+05   7.023531e+05
   1.760750e+05   7.967697e+05
  -4.512055e+05   2.727135e+05
  -1.070691e+06  -3.830676e+05
  -9.721847e+05  -6.424583e+05
  -1.215683e+05  -5.008767e+05
   6.903245e+05  -2.779776e+05
   7.420185e+05  -1.260011e+05
   2.121723e+05   1.925176e+04
  -1.337187e+05   1.545359e+05
   3.732413e+04   1.766824e+05
   2.623580e+05   1.122311e+05
   3.981333e+03   1.068385e+05
  -5.668703e+05   1.277294e+05
  -7.529776e+05  -6.788707e+04
  -1.876977e+05  -5.143190e+05
   7.209279e+05  -7.884675e+05
   1.218411e+06  -4.349931e+05
   9.286600e+05   4.083844e+05
   1.238792e+05   1.045668e+06
  -5.916151e+05   9.485852e+05
  -7.860707e+05   3.063789e+05
  -4.805987e+05  -2.315072e+05
  -5.354421e+04  -2.676704e+05
   1.153046e+05  -1.043574e+04
  -3.494744e+04   5.281149e+04
  -2.339071e+05  -2.564777e+05
  -1.746185e+05  -5.937161e+05
   1.710471e+05  -4.717239e+05
   5.054038e+05   1.578050e+05
   4.643776e+05   7.639844e+05
  -2.562768e+04   7.505628e+05
  -5.979985e+05   9.421123e+04
  -7.084981e+05  -6.190830e+05
  -1.715826e+05  -8.041107e+05
   5.572969e+05  -4.208160e+05
   7.810796e+05   1.172115e+05
   3.238480e+05   4.271585e+05
  -2.361965e+05   4.257407e+05
  -2.414867e+05   2.337811e+05
   2.364431e+05   3.091351e+04
   4.894371e+05   3.377873e+03
   7.542833e+04   2.204640e+05
  -6.238569e+05   4.693643e+05
  -8.834075e+05   3.820609e+05
  -4.879561e+05  -1.184889e+05
   1.091383e+05  -6.054096e+05
   3.868412e+05  -5.741607e+05
   2.644348e+05  -5.748668e+04
  -5.602192e+03   3.751705e+05
  -2.032801e+05   2.789602e+05
  -2.579173e+05  -1.681532e+05
  -1.550861e+05  -4.315975e+05
   7.168770e+04  -2.649725e+05
   2.816127e+05   6.893396e+04
   3.140783e+05   1.892190e+05
   1.692702e+05   4.851301e+04
   9.256861e+03  -7.441137e+04
  -5.042300e+04   4.437569e+04
  -6.976292e+04   2.943114e+05
  -1.578594e+05   3.524877e+05
  -2.783725e+05   6.061692e+04
  -2.587721e+05  -3.564458e+05
  -3.491999e+03  -4.919950e+05
   3.357510e+05  -1.910414e+05
   4.425641e+05   2.642621e+05
   1.388655e+05   4.488142e+05
  -3.693258e+05   2.372768e+05
  -6.113415e+05  -1.141430e+05
  -3.185225e+05  -2.955495e+05
   2.321762e+05  -2.423328e+05
   4.632778e+05  -9.475438e+04
   1.450778e+05   6.934109e+03
  -3.099616e+05   1.278838e+03
  -3.184303e+05  -1.140586e+05
   1.738577e+05  -2.403612e+05
   6.212064e+05  -1.722883e+05
