
 $NMID
 id='ANONYMOUS ', fmtdat='(2E16.6)'
 volume=1.0
 tramp=1.0
 $END
   1.586896e+06  -3.873688e+06
   3.547133e+06  -1.852756e+06
   2.837884e+06   1.419736e+06
   4.509192e+05   2.833822e+06
  -1.151798e+06   1.502838e+06
  -8.239939e+05  -5.256541e+05
   4.354391e+05  -1.024885e+06
   1.098387e+06   2.073394e+04
   7.024007e+05   1.049524e+06
  -1.735166e+05   1.021027e+06
  -7.606212e+05   2.468564e+05
  -6.491104e+05  -3.826191e+05
   1.523340e+04  -3.432865e+05
   5.725431e+05   2.288173e+05
   3.915535e+05   7.447751e+05
  -4.029983e+05   6.556678e+05
  -9.887072e+05  -2.823979e+04
  -7.867985e+05  -7.280223e+05
  -8.019536e+04  -9.133383e+05
   4.639457e+05  -6.121508e+05
   5.870631e+05  -2.083218e+05
   5.137397e+05   5.883426e+04
   4.810818e+05   2.005018e+05
   4.958183e+05   2.728794e+05
   4.436957e+05   3.237170e+05
   2.116067e+05   4.351659e+05
  -2.096601e+05   5.824514e+05
  -5.889985e+05   5.423103e+05
  -5.774503e+05   1.869408e+05
  -1.557860e+05  -2.099801e+05
   2.149144e+05  -2.416990e+05
   1.286602e+05   7.689413e+04
  -2.396944e+05   3.024873e+05
  -4.189751e+05   1.475400e+05
  -2.962938e+05  -1.864437e+05
  -1.410175e+05  -3.390910e+05
  -8.429787e+04  -2.278165e+05
   3.296159e+03  -4.120108e+04
   1.212798e+05   2.359776e+04
   7.733083e+04  -9.907856e+04
  -7.677054e+04  -3.154713e+05
   9.768396e+03  -3.822208e+05
   3.805714e+05  -1.014928e+05
   5.155126e+05   3.712295e+05
   3.975038e+04   5.688471e+05
  -6.003818e+05   2.267683e+05
  -6.187463e+05  -3.510088e+05
   6.899901e+04  -6.045887e+05
   7.131127e+05  -3.261260e+05
   6.564673e+05   1.853782e+05
   4.164219e+04   4.968798e+05
  -4.899272e+05   4.116060e+05
  -5.177462e+05   3.935841e+04
  -1.349091e+05  -3.142471e+05
   2.615804e+05  -3.545029e+05
   3.269355e+05  -7.273019e+04
   4.966372e+04   1.862117e+05
  -2.199280e+05   9.522647e+04
  -1.299695e+05  -2.202068e+05
   2.331928e+05  -3.072004e+05
   4.142568e+05   2.384565e+04
   1.598927e+05   4.341536e+05
  -2.619096e+05   4.719231e+05
  -4.255201e+05   8.709247e+04
  -2.492199e+05  -3.820733e+05
   3.442807e+04  -5.963905e+05
   2.510708e+05  -4.574894e+05
   3.928085e+05  -8.281073e+04
   4.359075e+05   2.921352e+05
   3.102433e+05   4.427732e+05
   7.118003e+04   3.371455e+05
  -1.043145e+05   1.721497e+05
  -1.499348e+05   1.289989e+05
  -1.767694e+05   1.435306e+05
  -2.473594e+05   4.028855e+04
  -2.401713e+05  -1.620141e+05
  -4.345196e+04  -2.477528e+05
   2.277416e+05  -1.055578e+05
   3.320236e+05   1.287194e+05
   1.724114e+05   2.652079e+05
  -1.197918e+05   2.564755e+05
  -3.378614e+05   1.523165e+05
  -3.706674e+05  -5.138803e+03
  -2.539604e+05  -1.610118e+05
  -1.122569e+05  -2.345074e+05
  -3.342555e+04  -2.227064e+05
   2.714649e+04  -2.315641e+05
   1.765243e+05  -3.042038e+05
   3.945905e+05  -2.966808e+05
   4.915388e+05  -5.247801e+04
   3.243652e+05   3.348746e+05
  -1.824036e+03   5.627981e+05
  -2.348568e+05   4.403794e+05
  -2.444972e+05   8.789432e+04
  -1.120589e+05  -1.968217e+05
   1.219531e+04  -2.144282e+05
   4.449517e+04  -1.231400e+04
  -1.918388e+04   1.797323e+05
  -1.153856e+05   1.633404e+05
  -1.309361e+05  -2.460705e+04
  -1.380656e+04  -1.370877e+05
   1.092591e+05  -9.377591e+03
   3.476017e+04   2.037088e+05
  -2.415084e+05   1.881147e+05
  -4.451195e+05  -1.300992e+05
  -3.096619e+05  -4.662335e+05
   1.062730e+05  -5.037066e+05
   4.695498e+05  -2.359729e+05
   5.140288e+05   8.476379e+04
   2.693083e+05   2.461994e+05
  -2.105225e+04   2.270669e+05
  -1.364735e+05   1.205192e+05
  -4.666580e+04   3.203660e+04
   8.862309e+04   3.683543e+04
   8.013802e+04   1.273388e+05
  -8.748853e+04   1.875664e+05
  -2.239694e+05   1.053187e+05
  -1.544683e+05  -6.822360e+04
   4.928666e+04  -1.468671e+05
   1.376257e+05  -3.228621e+04
  -1.301826e+04   1.515811e+05
  -2.483081e+05   1.914253e+05
  -3.214850e+05   1.654949e+04
  -1.624168e+05  -2.348231e+05
   8.383507e+04  -3.534287e+05
   2.293179e+05  -2.420655e+05
   1.961853e+05   3.883798e+03
   4.260153e+04   1.724945e+05
  -9.128076e+04   1.246001e+05
  -8.066874e+04  -6.306905e+04
   7.080927e+04  -1.705969e+05
   2.100791e+05  -7.524525e+04
   1.807597e+05   1.141818e+05
   2.551821e+03   1.944593e+05
  -1.401197e+05   1.022062e+05
  -1.055363e+05  -3.695717e+04
   4.773606e+04  -6.916820e+04
   1.346938e+05   3.193611e+04
   4.807673e+04   1.613920e+05
  -1.374087e+05   1.858860e+05
  -2.498018e+05   5.421488e+04
  -1.870842e+05  -1.474131e+05
  -7.663606e+03  -2.495619e+05
   1.300325e+05  -1.582078e+05
   1.205219e+05   3.164497e+04
   9.451776e+03   1.269802e+05
  -6.612090e+04   5.339689e+04
  -3.188429e+04  -6.876885e+04
   4.935457e+04  -8.623476e+04
   6.335455e+04   2.364119e+03
  -1.872675e+04   6.660724e+04
  -1.083255e+05   1.372957e+04
  -9.412615e+04  -1.124948e+05
   4.499139e+04  -1.878139e+05
   2.127087e+05  -1.236193e+05
   2.713623e+05   5.936564e+04
   1.607952e+05   2.357619e+05
  -4.035924e+04   2.671354e+05
  -1.803024e+05   1.327494e+05
  -1.770388e+05  -3.462057e+04
  -8.930505e+04  -8.416915e+04
  -3.339971e+04  -1.626938e+04
  -4.638693e+04   2.940586e+04
  -5.937199e+04  -4.001723e+04
  -2.811005e+02  -1.501915e+05
   1.093209e+05  -1.540998e+05
   1.704485e+05  -9.449932e+03
   1.032172e+05   1.738923e+05
  -7.458581e+04   2.427882e+05
  -2.458183e+05   1.307491e+05
  -2.726130e+05  -9.534886e+04
  -1.116145e+05  -2.817734e+05
   1.288022e+05  -2.979209e+05
   2.687801e+05  -1.442300e+05
   2.217835e+05   4.456644e+04
   7.373064e+04   1.301146e+05
  -1.774352e+04   1.044094e+05
   7.987393e+03   7.050166e+04
   6.677025e+04   9.891752e+04
   4.262800e+04   1.445470e+05
  -7.811380e+04   1.174875e+05
  -1.925779e+05   6.105725e+02
  -1.864918e+05  -1.284613e+05
  -4.765674e+04  -1.737530e+05
   1.166843e+05  -1.006598e+05
   1.741687e+05   4.100931e+04
   8.879764e+04   1.500068e+05
  -4.912000e+04   1.449988e+05
  -1.195385e+05   3.448572e+04
  -9.322665e+04  -8.331080e+04
  -4.232715e+04  -1.123706e+05
  -3.670179e+04  -5.558192e+04
  -5.756407e+04  -4.937140e+03
  -2.985024e+04  -3.259573e+04
   7.505588e+04  -1.075255e+05
   1.917285e+05  -1.295612e+05
   2.195639e+05  -3.902387e+04
   1.220574e+05   1.144365e+05
  -3.344978e+04   2.115461e+05
  -1.329934e+05   1.745453e+05
  -1.169890e+05   4.439110e+04
  -2.901741e+04  -5.723996e+04
   3.551420e+04  -5.135587e+04
   2.531545e+04   1.971594e+04
  -2.885933e+04   5.114977e+04
  -6.482554e+04   4.485497e+03
  -5.656276e+04  -5.157418e+04
  -2.574502e+04  -3.725119e+04
  -7.088617e+03   3.189656e+04
  -1.762401e+04   6.344929e+04
  -4.517167e+04   1.967352e+03
  -5.077573e+04  -1.048142e+05
   2.985589e+02  -1.572262e+05
   8.557916e+04  -1.026053e+05
   1.203945e+05   1.963638e+04
   4.664200e+04   1.136809e+05
  -7.420494e+04   1.036699e+05
  -1.044767e+05  -3.260410e+03
   9.644595e+03  -1.134040e+05
   1.572116e+05  -1.197417e+05
   1.792704e+05  -2.730896e+03
   4.899481e+04   1.399910e+05
  -1.035798e+05   1.809629e+05
  -1.418775e+05   8.859118e+04
  -6.011498e+04  -4.064024e+04
   3.587672e+04  -8.141250e+04
   4.984201e+04  -8.106718e+03
  -2.288049e+04   8.042219e+04
  -1.098643e+05   6.533602e+04
  -1.292527e+05  -6.381380e+04
  -5.138526e+04  -1.882582e+05
   7.812342e+04  -1.748743e+05
   1.673286e+05  -1.625635e+04
   1.464528e+05   1.514645e+05
   2.713944e+04   1.815159e+05
  -1.005688e+05   6.361596e+04
  -1.390386e+05  -7.512434e+04
  -6.681668e+04  -1.134493e+05
   4.023725e+04  -5.573135e+04
   8.155191e+04   3.091660e+03
   3.767175e+04   4.919939e+03
  -7.398250e+03  -1.636650e+04
   2.885462e+04  -2.976862e+03
   1.102462e+05   4.647890e+04
   1.117938e+05   8.739976e+04
  -1.836176e+04   9.160429e+04
  -1.707394e+05   6.507913e+04
  -1.922721e+05   1.713178e+04
  -6.979634e+04  -4.691279e+04
   5.956014e+04  -9.847015e+04
   8.106799e+04  -9.314294e+04
   2.621252e+04  -2.951991e+04
  -1.677057e+03   2.954989e+04
   2.630662e+04   2.931823e+04
   4.633647e+04  -1.414821e+03
   7.967423e+03   9.052816e+03
  -5.943929e+04   6.225772e+04
  -9.300584e+04   6.962922e+04
  -6.576337e+04  -2.752531e+04
   5.730454e+03  -1.563631e+05
   8.756950e+04  -1.790830e+05
   1.380910e+05  -5.444226e+04
   1.191939e+05   1.092667e+05
   3.399739e+04   1.737639e+05
  -5.494144e+04   1.129891e+05
  -7.732196e+04   1.723499e+04
  -3.100118e+04  -2.198080e+04
   1.441032e+04  -1.101353e+03
  -1.721745e+03   1.806904e+04
  -6.082838e+04  -7.307192e+03
  -8.631225e+04  -5.525511e+04
  -2.956446e+04  -7.036928e+04
   7.212570e+04  -2.735291e+04
   1.245718e+05   4.211342e+04
   6.752185e+04   8.155269e+04
  -5.784339e+04   6.103004e+04
  -1.383943e+05  -3.862567e+03
  -9.922952e+04  -7.142568e+04
   1.732844e+04  -1.005153e+05
   9.807108e+04  -6.917732e+04
   8.363119e+04   6.575125e+03
   2.447457e+04   6.807376e+04
   4.293415e+03   5.770242e+04
   3.548939e+04  -1.075151e+04
   5.870702e+04  -4.732407e+04
   3.070368e+04   1.431322e+04
  -2.584296e+04   1.214314e+05
  -6.403847e+04   1.487418e+05
  -6.871858e+04   4.958474e+04
  -5.240853e+04  -7.947030e+04
  -2.320471e+04  -1.115086e+05
   1.290519e+04  -3.631644e+04
   3.150504e+04   4.393464e+04
   7.571655e+03   4.870071e+04
  -4.177629e+04   1.602928e+02
  -6.180822e+04  -3.396474e+04
  -2.328813e+04  -3.108229e+04
   3.723264e+04  -1.864356e+04
   5.904440e+04  -1.706954e+04
   2.901575e+04  -1.585756e+04
  -8.571713e+03  -1.369774e+03
  -1.183431e+04   2.093533e+04
   9.283605e+03   3.695313e+04
   1.255161e+04   3.801487e+04
  -1.865668e+04   2.019759e+04
  -5.112165e+04  -1.410294e+04
  -3.893309e+04  -4.692352e+04
   1.971563e+04  -5.066711e+04
   7.063716e+04  -1.485036e+04
   5.677507e+04   3.751894e+04
  -1.587269e+04   6.708412e+04
  -7.679251e+04   5.092047e+04
  -6.596121e+04   9.458134e+01
  -2.783844e+03  -4.772952e+04
   3.689123e+04  -5.500479e+04
   1.175409e+04  -1.825715e+04
  -3.808369e+04   1.996372e+04
  -4.477045e+04   9.539867e+03
   5.678499e+03  -4.472995e+04
   6.444506e+04  -7.462390e+04
