
 $NMID
 id='ANONYMOUS ', fmtdat='(2E16.6)'
 volume=1.0
 tramp=1.0
 $END
  -3.560769e+07   3.287142e+06
  -2.504729e+07  -1.742120e+07
  -9.547846e+04  -2.402610e+07
   1.585075e+07  -1.405296e+07
   1.255710e+07   4.601637e+05
   4.620560e+03   6.548389e+06
  -7.052192e+06   1.892026e+06
  -4.347068e+06  -5.976826e+06
   2.386958e+06  -8.505680e+06
   6.484359e+06  -3.489763e+06
   5.506865e+06   3.956799e+06
   1.048936e+06   6.519143e+06
  -2.846138e+06   1.848276e+06
  -2.423817e+06  -4.823783e+06
   2.023803e+06  -6.088648e+06
   5.708356e+06  -3.816424e+05
   4.276336e+06   6.619495e+06
  -1.374466e+06   8.546199e+06
  -6.343613e+06   4.601069e+06
  -7.009600e+06  -1.086575e+06
  -3.966694e+06  -4.442457e+06
  -5.262425e+05  -4.569451e+06
   4.877954e+05  -3.201099e+06
  -9.552736e+05  -2.578281e+06
  -1.969287e+06  -3.476652e+06
   3.964108e+05  -4.424185e+06
   5.262578e+06  -3.222818e+06
   7.906887e+06   2.261129e+05
   5.050604e+06   3.289531e+06
  -7.297458e+05   3.446248e+06
  -3.703091e+06   1.072560e+06
  -1.644478e+06  -1.285858e+06
   2.172184e+06  -1.655351e+06
   3.575148e+06   6.979293e+04
   1.957743e+06   2.582802e+06
  -4.226105e+05   3.860847e+06
  -1.634556e+06   2.405827e+06
  -1.349085e+06  -7.680020e+05
  -2.715727e+05  -2.234933e+06
   3.565800e+05  -6.823375e+04
  -4.806662e+05   2.949325e+06
  -2.129008e+06   2.339082e+06
  -2.279985e+06  -1.831286e+06
   2.940098e+05  -4.352845e+06
   3.462549e+06  -1.562486e+06
   3.591086e+06   3.664668e+06
  -2.131638e+05   5.468573e+06
  -4.728305e+06   2.076309e+06
  -5.812491e+06  -2.772774e+06
  -2.442343e+06  -4.699043e+06
   2.479681e+06  -2.891565e+06
   4.837286e+06   3.692581e+05
   2.898042e+06   2.430475e+06
  -1.174911e+06   2.064417e+06
  -3.373818e+06   8.563508e+03
  -1.893045e+06  -1.591233e+06
   1.002284e+06  -1.132153e+06
   1.728591e+06   6.154978e+05
  -2.918378e+05   1.338541e+06
  -2.091677e+06   4.705565e+04
  -1.027600e+06  -1.747188e+06
   1.978511e+06  -1.981535e+06
   3.691241e+06  -2.553929e+05
   2.230348e+06   2.244918e+06
  -1.296575e+06   4.001303e+06
  -4.285836e+06   3.789207e+06
  -4.914660e+06   1.172389e+06
  -3.207607e+06  -2.586264e+06
  -6.952092e+05  -4.870072e+06
   8.793838e+05  -4.184880e+06
   1.019776e+06  -1.947187e+06
   7.605877e+05  -7.228190e+05
   1.268023e+06  -9.799943e+05
   2.331905e+06  -8.642979e+05
   2.642901e+06   7.769768e+05
   1.427955e+06   2.544813e+06
  -6.368085e+05   2.312016e+06
  -2.074457e+06  -1.931923e+04
  -1.792879e+06  -2.402862e+06
   1.760048e+05  -2.856272e+06
   2.550668e+06  -1.163417e+06
   3.514390e+06   1.309460e+06
   2.264202e+06   2.898881e+06
  -1.626666e+04   2.872851e+06
  -1.349561e+06   1.858234e+06
  -1.291816e+06   1.081509e+06
  -1.341999e+06   1.001161e+06
  -2.644806e+06   8.371566e+05
  -4.062490e+06  -3.570409e+05
  -3.403421e+06  -2.383612e+06
  -2.899711e+05  -3.931842e+06
   3.067698e+06  -3.782813e+06
   4.108400e+06  -1.844384e+06
   2.418114e+06   7.226150e+05
  -1.297573e+05   2.212091e+06
  -1.311987e+06   1.652118e+06
  -4.772890e+05  -1.550286e+05
   1.126145e+06  -1.192555e+06
   1.705850e+06  -3.888864e+05
   7.228240e+05   1.036203e+06
  -6.003241e+05   1.079301e+06
  -6.711477e+05  -3.430204e+05
   6.569150e+05  -1.131433e+06
   1.907079e+06   2.840050e+05
   1.570355e+06   2.800027e+06
  -4.148238e+05   3.835878e+06
  -2.722520e+06   2.219522e+06
  -3.788327e+06  -7.396936e+05
  -2.895650e+06  -2.806373e+06
  -6.598558e+05  -2.856017e+06
   1.297931e+06  -1.479707e+06
   1.602828e+06  -1.588251e+05
   4.831779e+05   3.358259e+04
  -3.764295e+05  -7.112189e+05
   2.572029e+05  -1.215536e+06
   1.635408e+06  -6.190265e+05
   1.920874e+06   6.150308e+05
   5.221610e+05   1.228845e+06
  -1.073068e+06   6.446708e+05
  -1.020144e+06  -4.133937e+05
   7.363502e+05  -7.821770e+05
   2.376509e+06  -2.131801e+04
   2.114514e+06   1.315679e+06
  -2.846672e+04   2.206133e+06
  -2.272164e+06   1.871310e+06
  -2.748233e+06   3.978886e+05
  -1.211483e+06  -1.106101e+06
   7.674092e+05  -1.347266e+06
   1.334846e+06  -2.118398e+05
   1.431654e+05   9.378391e+05
  -1.413625e+06   7.248490e+05
  -1.717288e+06  -6.324468e+05
  -5.320085e+05  -1.597208e+06
   9.225669e+05  -1.154122e+06
   1.300390e+06   7.989286e+04
   4.108872e+05   7.019350e+05
  -6.803040e+05   1.106293e+05
  -6.996597e+05  -9.763378e+05
   5.683019e+05  -1.363154e+06
   1.951031e+06  -5.139911e+05
   1.973339e+06   1.000160e+06
   4.266305e+05   1.984560e+06
  -1.299470e+06   1.643182e+06
  -1.658910e+06   3.187982e+05
  -5.838955e+05  -8.025100e+05
   5.864293e+05  -8.455206e+05
   7.006841e+05  -7.405560e+04
  -5.207658e+04   5.198402e+05
  -6.233310e+05   3.628978e+05
  -3.742432e+05  -1.380999e+05
   3.366563e+05  -1.770823e+05
   6.258076e+05   4.731071e+05
  -3.799995e+04   1.152088e+06
  -1.286129e+06   9.532531e+05
  -2.048004e+06  -3.276197e+05
  -1.473087e+06  -1.853368e+06
   1.591244e+05  -2.413358e+06
   1.583672e+06  -1.545068e+06
   1.795626e+06   4.928748e+02
   1.038446e+06   9.922749e+05
   3.567198e+05   9.167513e+05
   3.108252e+05   3.598317e+05
   4.570694e+05   2.100803e+05
   9.557951e+04   6.342725e+05
  -7.880422e+05   9.474289e+05
  -1.464522e+06   4.445101e+05
  -1.177381e+06  -7.347865e+05
   1.437639e+05  -1.600157e+06
   1.697791e+06  -1.200826e+06
   2.286333e+06   3.981771e+05
   1.254942e+06   2.016721e+06
  -7.986925e+05   2.353325e+06
  -2.381421e+06   1.184687e+06
  -2.410961e+06  -4.499526e+05
  -1.177523e+06  -1.307190e+06
   8.827176e+04  -1.120405e+06
   5.110228e+05  -6.575396e+05
   2.801354e+05  -6.969903e+05
   1.643659e+05  -1.136270e+06
   5.774692e+05  -1.182392e+06
   1.188594e+06  -3.173888e+05
   1.304249e+06   1.041596e+06
   5.708956e+05   1.856460e+06
  -5.988514e+05   1.424673e+06
  -1.281149e+06   5.438576e+04
  -8.748639e+05  -1.181175e+06
   2.424941e+05  -1.382550e+06
   1.023052e+06  -5.673651e+05
   8.203852e+05   4.690742e+05
   5.175479e+04   9.657277e+05
  -3.406193e+05   8.236889e+05
  -1.123927e+04   4.879920e+05
   3.986447e+05   3.558489e+05
   4.482602e+04   3.906039e+05
  -1.069139e+06   2.621526e+05
  -1.958086e+06  -2.358126e+05
  -1.619013e+06  -9.236696e+05
  -1.085741e+05  -1.342532e+06
   1.408628e+06  -1.135287e+06
   1.757728e+06  -3.977731e+05
   8.854044e+05   3.299063e+05
  -1.806944e+05   5.063425e+05
  -4.717069e+05   1.065712e+05
  -6.459143e+03  -3.264082e+05
   4.731411e+05  -2.355853e+05
   4.654272e+05   3.271096e+05
   1.590624e+05   7.252762e+05
   7.476099e+03   4.659306e+05
   1.539438e+05  -1.665713e+05
   3.593442e+05  -3.721775e+05
   2.973373e+05   2.163310e+05
  -1.749475e+05   1.005851e+06
  -8.578694e+05   1.049155e+06
  -1.210378e+06   1.447209e+05
  -7.373340e+05  -8.742051e+05
   3.751944e+05  -1.035121e+06
   1.152380e+06  -2.677742e+05
   7.157253e+05   5.808805e+05
  -6.546891e+05   6.788574e+05
  -1.622410e+06  -8.091504e+03
  -1.151288e+06  -8.201125e+05
   3.672041e+05  -1.084739e+06
   1.515890e+06  -6.457110e+05
   1.324320e+06   9.846211e+04
   1.933406e+05   5.360003e+05
  -6.298902e+05   3.296190e+05
  -3.565595e+05  -2.471008e+05
   6.091174e+05  -4.732036e+05
   1.152394e+06   1.303696e+05
   5.917794e+05   1.182708e+06
  -6.526432e+05   1.645670e+06
  -1.496110e+06   8.317577e+05
  -1.250255e+06  -7.659980e+05
  -2.162093e+05  -1.798506e+06
   7.227296e+05  -1.352727e+06
   9.505280e+05   1.013265e+05
   5.150405e+05   1.179676e+06
  -1.277924e+05   1.025333e+06
  -5.390812e+05   1.304356e+05
  -5.274559e+05  -3.897648e+05
  -2.267566e+05  -1.633723e+05
  -2.425416e+04   1.193593e+05
  -1.970137e+05  -2.326331e+05
  -4.925293e+05  -9.299516e+05
  -2.853191e+05  -1.096203e+06
   6.180977e+05  -4.324223e+05
   1.491465e+06   4.418733e+05
   1.364289e+06   8.218970e+05
   2.075755e+05   6.794215e+05
  -9.057913e+05   4.169011e+05
  -1.005216e+06   2.192756e+05
  -3.128829e+05  -2.071701e+03
   1.644343e+05  -2.172862e+05
  -3.652474e+04  -2.523031e+05
  -3.370172e+05  -1.435648e+05
  -2.055516e+04  -1.325717e+05
   7.342117e+05  -2.023814e+05
   1.027364e+06   2.023048e+04
   3.276866e+05   6.538446e+05
  -8.877581e+05   1.124274e+06
  -1.619733e+06   7.233227e+05
  -1.307081e+06  -4.414471e+05
  -2.581774e+05  -1.402708e+06
   7.224655e+05  -1.353082e+06
   1.027680e+06  -4.954704e+05
   6.581797e+05   2.669167e+05
   1.044299e+05   3.485506e+05
  -1.271917e+05   1.360100e+04
   6.380581e+04  -7.109316e+04
   3.400201e+05   3.444956e+05
   2.839379e+05   8.032862e+05
  -1.828320e+05   6.578978e+05
  -6.840840e+05  -1.633404e+05
  -6.941836e+05  -9.769509e+05
  -4.963766e+04  -1.002833e+06
   7.764482e+05  -1.812252e+05
   1.003140e+06   7.623858e+05
   3.130864e+05   1.066989e+06
  -7.040534e+05   6.277804e+05
  -1.073986e+06  -7.716437e+04
  -5.015244e+05  -5.501356e+05
   2.642431e+05  -6.145886e+05
   3.147895e+05  -3.619823e+05
  -3.032026e+05  -3.865338e+04
  -6.588647e+05   3.346674e+04
  -1.294550e+05  -2.892865e+05
   8.129433e+05  -6.907863e+05
   1.198307e+06  -6.028767e+05
   7.047098e+05   1.110166e+05
  -8.803922e+04   8.383385e+05
  -4.820438e+05   8.382405e+05
  -3.539519e+05   1.303440e+05
  -2.271312e+04  -4.949257e+05
   2.394039e+05  -4.000879e+05
   3.462881e+05   1.962845e+05
   2.490852e+05   5.708660e+05
  -5.507565e+04   3.730889e+05
  -3.822346e+05  -6.345566e+04
  -4.612865e+05  -2.331127e+05
  -2.460382e+05  -5.950288e+04
   1.470238e+04   1.023383e+05
   9.470804e+04  -4.505050e+04
   6.421321e+04  -3.735843e+05
   1.405323e+05  -4.712116e+05
   3.330515e+05  -1.171956e+05
   3.774458e+05   4.243506e+05
   6.569892e+04   6.348098e+05
  -4.249635e+05   2.852526e+05
  -6.203938e+05  -3.008966e+05
  -2.263688e+05  -5.836293e+05
   4.826042e+05  -3.617118e+05
   8.404306e+05   8.576382e+04
   4.623640e+05   3.687619e+05
  -2.812423e+05   3.596058e+05
  -6.093723e+05   1.855260e+05
  -2.052992e+05   1.867231e+04
   3.937937e+05  -1.930379e+04
   4.181825e+05   1.218290e+05
  -2.167594e+05   3.180601e+05
  -8.117468e+05   2.618409e+05
