
 $NMID
 id='ANONYMOUS ', fmtdat='(2E16.6)'
 volume=1.0
 tramp=1.0
 $END
   9.170678e+06  -1.750260e+04
   6.262513e+06   3.646859e+06
   4.830888e+05   5.519248e+06
  -3.572712e+06   4.459419e+06
  -3.462688e+06   1.132835e+06
  -5.630225e+05  -1.636686e+06
   1.867562e+06  -1.328607e+06
   1.831426e+06   1.313052e+06
  -5.025177e+04   2.932958e+06
  -1.703361e+06   1.525735e+06
  -1.688005e+06  -1.230867e+06
  -2.879996e+05  -2.174318e+06
   1.008969e+06  -4.199096e+05
   9.375063e+05   1.893385e+06
  -4.039814e+05   2.259140e+06
  -1.626937e+06   3.941006e+05
  -1.373660e+06  -1.833656e+06
   2.748880e+05  -2.458322e+06
   1.804123e+06  -1.179347e+06
   1.841589e+06   6.174763e+05
   6.326160e+05   1.368268e+06
  -2.908184e+05   8.719483e+05
   1.002205e+05   3.023521e+05
   1.144948e+06   6.925345e+05
   1.253131e+06   1.681662e+06
  -2.642840e+05   2.017215e+06
  -2.302897e+06   1.086782e+06
  -2.976281e+06  -4.343251e+05
  -1.536886e+06  -1.382794e+06
   7.442469e+05  -1.170974e+06
   1.749060e+06  -9.261730e+04
   6.554282e+05   9.763515e+05
  -1.224948e+06   1.101346e+06
  -1.916391e+06   1.368160e+04
  -9.189852e+05  -1.403067e+06
   4.565662e+05  -1.746218e+06
   8.069400e+05  -6.201503e+05
   1.609523e+05   7.269891e+05
  -4.198201e+05   7.561770e+05
  -2.702619e+05  -5.046723e+05
   3.316883e+05  -1.478675e+06
   7.845960e+05  -9.714799e+05
   7.634145e+05   4.212908e+05
   2.512360e+05   1.114972e+06
  -4.705624e+05   4.050572e+05
  -7.513634e+05  -8.514588e+05
  -3.071450e+04  -1.303498e+06
   1.312229e+06  -4.997286e+05
   1.974201e+06   8.172614e+05
   1.063154e+06   1.536968e+06
  -7.410478e+05   1.164584e+06
  -1.790772e+06   1.344883e+05
  -1.229228e+06  -6.695432e+05
   1.807284e+05  -6.950062e+05
   1.011786e+06  -1.290738e+05
   6.535972e+05   3.749967e+05
  -2.619827e+05   3.386227e+05
  -6.803707e+05  -1.429121e+05
  -2.033400e+05  -5.530175e+05
   5.628969e+05  -4.560636e+05
   6.672357e+05   9.133566e+04
  -1.180356e+05   5.500518e+05
  -9.337874e+05   3.600146e+05
  -7.218944e+05  -4.849505e+05
   5.322357e+05  -1.299223e+06
   1.707823e+06  -1.263611e+06
   1.791927e+06  -2.277601e+05
   9.412475e+05   1.080140e+06
   1.056810e+05   1.733897e+06
  -1.544562e+05   1.491889e+06
  -1.301924e+05   9.185808e+05
  -3.445912e+05   6.316676e+05
  -8.570420e+05   5.827160e+05
  -1.275506e+06   2.363514e+05
  -1.200948e+06  -5.883753e+05
  -5.417905e+05  -1.294884e+06
   4.039885e+05  -1.105601e+06
   1.040124e+06  -1.367807e+04
   8.446267e+05   1.069901e+06
  -1.095060e+05   1.205571e+06
  -1.069171e+06   3.542076e+05
  -1.252071e+06  -6.721579e+05
  -6.165084e+05  -1.093002e+06
   1.466685e+05  -8.487909e+05
   4.143362e+05  -4.498970e+05
   2.917129e+05  -3.318550e+05
   3.848738e+05  -4.538082e+05
   9.790890e+05  -4.322008e+05
   1.580490e+06   4.249951e+04
   1.377322e+06   8.792274e+05
   1.732170e+05   1.574877e+06
  -1.230771e+06   1.563751e+06
  -1.724233e+06   7.254814e+05
  -9.958809e+05  -3.946517e+05
   1.466911e+05  -9.748329e+05
   6.313233e+05  -6.545021e+05
   1.963111e+05   1.064728e+05
  -4.887595e+05   4.851691e+05
  -6.637747e+05   1.482072e+05
  -2.377667e+05  -4.119344e+05
   2.739267e+05  -4.605016e+05
   3.472183e+05   9.681239e+04
  -1.027125e+05   5.474759e+05
  -6.917864e+05   1.730078e+05
  -8.422749e+05  -8.610786e+05
  -2.238278e+05  -1.576709e+06
   8.715055e+05  -1.195144e+06
   1.630248e+06   3.038570e+04
   1.406017e+06   1.085645e+06
   3.862931e+05   1.229808e+06
  -5.440604e+05   6.402785e+05
  -6.850241e+05   6.237303e+04
  -1.977595e+05  -9.076031e+03
   1.643156e+05   2.820250e+05
  -7.115494e+04   4.590981e+05
  -6.026239e+05   2.497799e+05
  -7.463146e+05  -1.840962e+05
  -2.423482e+05  -4.457392e+05
   4.101388e+05  -2.896241e+05
   4.651168e+05   1.357044e+05
  -2.334849e+05   3.932871e+05
  -1.002658e+06   1.510935e+05
  -9.927558e+05  -4.717668e+05
  -9.860590e+04  -9.592786e+05
   8.966615e+05  -8.569966e+05
   1.123640e+06  -2.188742e+05
   4.930795e+05   4.119216e+05
  -2.905113e+05   5.087076e+05
  -4.940776e+05   7.492310e+04
  -3.331481e+04  -3.619684e+05
   5.600656e+05  -2.992287e+05
   7.050096e+05   2.102869e+05
   2.818032e+05   6.249653e+05
  -3.085084e+05   5.185178e+05
  -5.288661e+05   4.636172e+04
  -2.145816e+05  -2.497385e+05
   2.450393e+05  -5.618205e+04
   2.834308e+05   3.837971e+05
  -2.290602e+05   5.573600e+05
  -7.980241e+05   2.173525e+05
  -8.092998e+05  -3.953715e+05
  -1.944722e+05  -7.956305e+05
   4.917054e+05  -6.787990e+05
   6.589352e+05  -1.661244e+05
   2.645810e+05   3.046162e+05
  -2.144484e+05   3.626932e+05
  -3.145168e+05   4.458413e+04
  -2.477644e+04  -2.559901e+05
   2.735004e+05  -2.205468e+05
   2.395188e+05   3.994325e+04
  -7.160580e+04   1.338780e+05
  -2.682158e+05  -1.200393e+05
  -3.760888e+04  -4.475710e+05
   4.928438e+05  -4.122767e+05
   8.366205e+05   9.911477e+04
   6.208023e+05   7.350338e+05
  -3.252071e+04   9.996141e+05
  -6.240450e+05   6.910893e+05
  -7.635738e+05   6.247938e+04
  -5.037494e+05  -4.107385e+05
  -2.001435e+05  -4.501515e+05
  -1.027589e+05  -2.086493e+05
  -1.302574e+05  -7.546408e+04
  -2.929409e+04  -2.242879e+05
   2.885999e+05  -4.017488e+05
   5.938138e+05  -2.339360e+05
   5.336737e+05   2.817674e+05
   2.566666e+03   6.933696e+05
  -6.734090e+05   5.486010e+05
  -9.571319e+05  -1.174363e+05
  -5.651183e+05  -7.923996e+05
   2.552632e+05  -9.592795e+05
   9.197022e+05  -5.374227e+05
   1.001418e+06   1.014718e+05
   5.618225e+05   4.997115e+05
   2.837352e+04   5.038161e+05
  -2.239726e+05   3.366188e+05
  -1.767870e+05   3.033724e+05
  -9.990631e+04   4.350259e+05
  -2.196471e+05   4.560205e+05
  -4.643884e+05   1.278022e+05
  -5.385666e+05  -4.185294e+05
  -2.521414e+05  -7.589521e+05
   2.345364e+05  -5.938749e+05
   5.270106e+05  -4.875954e+04
   3.801646e+05   4.491242e+05
  -4.946096e+04   5.567659e+05
  -3.618832e+05   2.741946e+05
  -3.197575e+05  -1.219156e+05
  -6.594610e+04  -3.486235e+05
   7.340079e+04  -3.340427e+05
  -2.947495e+04  -2.157683e+05
  -1.608016e+05  -1.556066e+05
  -1.790190e+04  -1.660194e+05
   4.137640e+05  -1.223422e+05
   7.756316e+05   6.837083e+04
   6.694784e+05   3.398433e+05
   8.738902e+04   5.145123e+05
  -5.274885e+05   4.606102e+05
  -6.948485e+05   2.051256e+05
  -3.669468e+05  -7.640948e+04
   5.605702e+04  -1.838472e+05
   1.747490e+05  -6.429227e+04
  -1.502563e+04   1.105502e+05
  -2.080605e+05   9.763755e+04
  -1.892216e+05  -1.315108e+05
  -4.279376e+04  -3.146305e+05
   2.223140e+04  -2.023105e+05
  -5.819650e+04   9.393662e+04
  -1.600847e+05   1.929619e+05
  -1.298157e+05  -7.881586e+04
   7.270233e+04  -4.303557e+05
   3.393822e+05  -4.340410e+05
   4.621916e+05  -4.069141e+04
   2.741120e+05   3.626318e+05
  -1.510850e+05   3.980851e+05
  -4.566794e+05   8.424759e+04
  -2.981454e+05  -2.429182e+05
   2.504923e+05  -2.906945e+05
   6.762811e+05  -3.884767e+04
   5.251035e+05   3.016947e+05
  -9.711891e+04   4.688516e+05
  -6.113595e+05   3.339162e+05
  -5.696271e+05   9.201473e+03
  -1.058385e+05  -2.213990e+05
   2.468839e+05  -1.585185e+05
   1.361173e+05   8.999652e+04
  -2.658452e+05   1.899436e+05
  -4.800736e+05  -6.720376e+04
  -2.294538e+05  -5.028475e+05
   2.920336e+05  -6.824822e+05
   6.327805e+05  -3.400957e+05
   5.260143e+05   3.173067e+05
   1.053256e+05   7.508051e+05
  -2.803094e+05   5.856934e+05
  -3.950732e+05  -8.588847e+03
  -2.479664e+05  -4.737008e+05
   8.513842e+03  -4.346495e+05
   2.099721e+05  -7.010797e+04
   2.451425e+05   1.546428e+05
   1.209905e+05   6.628145e+04
  -1.961799e+03  -5.448254e+04
   4.688385e+04   8.747636e+04
   2.000105e+05   3.767587e+05
   1.595887e+05   4.490220e+05
  -2.181955e+05   1.824383e+05
  -6.281345e+05  -1.667741e+05
  -6.009402e+05  -3.187610e+05
  -9.505815e+04  -2.727932e+05
   3.949819e+05  -1.858405e+05
   4.207007e+05  -1.127065e+05
   1.063449e+05  -1.090046e+04
  -7.590222e+04   9.174238e+04
   4.860735e+04   1.102802e+05
   1.746258e+05   6.384793e+04
  -9.793847e+02   5.964823e+04
  -3.368926e+05   8.772292e+04
  -4.247141e+05  -1.007378e+04
  -9.661466e+04  -2.755473e+05
   3.921827e+05  -4.626796e+05
   6.520955e+05  -2.843962e+05
   5.131447e+05   2.003664e+05
   1.067054e+05   5.876092e+05
  -2.846228e+05   5.536458e+05
  -4.271691e+05   1.924903e+05
  -2.833702e+05  -1.209464e+05
  -3.312871e+04  -1.467073e+05
   8.245203e+04   3.444210e+03
  -1.099158e+04   4.686527e+04
  -1.543083e+05  -1.277100e+05
  -1.348487e+05  -3.274270e+05
   7.909163e+04  -2.694221e+05
   2.957979e+05   8.110612e+04
   2.820708e+05   4.245845e+05
  -5.819635e+03   4.212158e+05
  -3.455563e+05   5.730608e+04
  -4.180949e+05  -3.382331e+05
  -1.168844e+05  -4.441378e+05
   2.986825e+05  -2.447050e+05
   4.339957e+05   3.799107e+04
   1.897075e+05   2.107388e+05
  -1.112725e+05   2.304513e+05
  -1.074369e+05   1.394386e+05
   1.534246e+05   1.699887e+04
   2.804950e+05  -1.529821e+04
   4.512171e+04   1.167460e+05
  -3.320288e+05   2.942153e+05
  -4.663637e+05   2.691822e+05
  -2.619685e+05  -2.963304e+04
   3.714568e+04  -3.385251e+05
   1.762992e+05  -3.333163e+05
   1.261734e+05  -3.053210e+04
   1.594904e+03   2.191140e+05
  -1.058417e+05   1.547208e+05
  -1.523011e+05  -1.015572e+05
  -1.026879e+05  -2.372589e+05
   3.304873e+04  -1.360954e+05
   1.606291e+05   3.468285e+04
   1.798684e+05   8.101718e+04
   9.790985e+04   9.485781e+03
   9.884922e+03  -2.798620e+04
  -2.807203e+04   5.559167e+04
  -5.202836e+04   1.787816e+05
  -1.078701e+05   1.840650e+05
  -1.638232e+05   1.290581e+04
  -1.360571e+05  -2.099929e+05
   9.223937e+03  -2.781422e+05
   1.897763e+05  -1.121218e+05
   2.476253e+05   1.417139e+05
   8.723592e+04   2.535738e+05
  -1.927085e+05   1.465531e+05
  -3.382390e+05  -4.636909e+04
  -1.865398e+05  -1.536118e+05
   1.202307e+05  -1.331203e+05
   2.519652e+05  -5.646562e+04
   6.821083e+04   4.375726e+02
  -1.937310e+05  -1.544864e+03
  -1.912303e+05  -7.165471e+04
   1.047758e+05  -1.540176e+05
   3.696545e+05  -1.205158e+05
