
 $NMID
 id='ANONYMOUS ', fmtdat='(2E16.6)'
 volume=1.0
 tramp=1.0
 $END
  -1.957628e+07   7.072236e+05
  -1.314344e+07  -1.010088e+07
   5.799990e+05  -1.301392e+07
   8.945808e+06  -7.321100e+06
   6.815788e+06   4.292753e+05
  -1.261332e+05   3.546060e+06
  -3.891480e+06   9.413464e+05
  -2.290445e+06  -3.339200e+06
   1.449213e+06  -4.660341e+06
   3.624164e+06  -1.804453e+06
   2.932532e+06   2.339586e+06
   3.988561e+05   3.652623e+06
  -1.651000e+06   9.202228e+05
  -1.253276e+06  -2.790153e+06
   1.236324e+06  -3.362233e+06
   3.137606e+06  -9.684229e+04
   2.193860e+06   3.734939e+06
  -9.588014e+05   4.651419e+06
  -3.600841e+06   2.338433e+06
  -3.804176e+06  -8.273495e+05
  -1.994668e+06  -2.573722e+06
  -9.076458e+04  -2.479451e+06
   3.445227e+05  -1.649010e+06
  -5.755991e+05  -1.395103e+06
  -1.116426e+06  -2.025439e+06
   3.229632e+05  -2.532696e+06
   3.084282e+06  -1.690247e+06
   4.458637e+06   3.598658e+05
   2.717161e+06   2.009099e+06
  -5.706700e+05   1.927104e+06
  -2.179277e+06   4.851814e+05
  -9.225084e+05  -8.329853e+05
   1.298345e+06  -9.636239e+05
   2.083113e+06   9.362704e+04
   1.075998e+06   1.543437e+06
  -3.602934e+05   2.202317e+06
  -1.008656e+06   1.275048e+06
  -7.035484e+05  -5.397599e+05
  -2.233644e+04  -1.272709e+06
   2.419383e+05   3.614063e+04
  -3.435087e+05   1.703325e+06
  -1.241990e+06   1.277920e+06
  -1.212995e+06  -1.051616e+06
   2.390842e+05  -2.359482e+06
   1.879912e+06  -7.433288e+05
   1.837797e+06   2.098143e+06
  -2.561301e+05   2.969349e+06
  -2.655159e+06   1.006978e+06
  -3.171195e+06  -1.668832e+06
  -1.277214e+06  -2.661038e+06
   1.434660e+06  -1.570159e+06
   2.697211e+06   2.857052e+05
   1.575250e+06   1.395680e+06
  -6.862015e+05   1.109004e+06
  -1.859660e+06  -7.264209e+04
  -1.003692e+06  -9.152408e+05
   5.843727e+05  -5.964151e+05
   9.565172e+05   3.766702e+05
  -1.571157e+05   7.411236e+05
  -1.131692e+06   2.408063e+04
  -5.498176e+05  -9.244995e+05
   1.083320e+06  -1.020305e+06
   2.007759e+06  -7.691411e+04
   1.172112e+06   1.267560e+06
  -8.294523e+05   2.190262e+06
  -2.507668e+06   2.012258e+06
  -2.785574e+06   5.171960e+05
  -1.710636e+06  -1.549079e+06
  -2.526244e+05  -2.743064e+06
   5.710302e+05  -2.309314e+06
   5.736988e+05  -1.080241e+06
   4.312057e+05  -4.367006e+05
   7.730146e+05  -5.685836e+05
   1.388470e+06  -4.414302e+05
   1.510912e+06   5.275384e+05
   7.589075e+05   1.511427e+06
  -4.274903e+05   1.325368e+06
  -1.203636e+06  -4.768915e+04
  -9.822774e+05  -1.411500e+06
   1.678094e+05  -1.622231e+06
   1.480184e+06  -5.872699e+05
   1.941931e+06   8.438832e+05
   1.172758e+06   1.688569e+06
  -1.025266e+05   1.585541e+06
  -7.948906e+05   9.746028e+05
  -7.236432e+05   5.605495e+05
  -7.558485e+05   5.390103e+05
  -1.498632e+06   4.281018e+05
  -2.278931e+06  -2.752851e+05
  -1.871555e+06  -1.408925e+06
  -8.718613e+04  -2.227696e+06
   1.813670e+06  -2.080365e+06
   2.373684e+06  -9.544913e+05
   1.359466e+06   4.767579e+05
  -1.320698e+05   1.264995e+06
  -7.950594e+05   9.065024e+05
  -2.698402e+05  -1.077494e+05
   6.703476e+05  -6.535175e+05
   9.739105e+05  -1.783219e+05
   3.777655e+05   6.062986e+05
  -3.715606e+05   6.019184e+05
  -3.841961e+05  -2.037350e+05
   3.731446e+05  -6.356334e+05
   1.055988e+06   1.648302e+05
   8.476928e+05   1.574495e+06
  -2.647279e+05   2.151180e+06
  -1.546597e+06   1.229409e+06
  -2.129142e+06  -4.597187e+05
  -1.606203e+06  -1.634651e+06
  -3.307558e+05  -1.635746e+06
   7.663882e+05  -8.148842e+05
   9.145531e+05  -5.499900e+04
   2.719347e+05   2.931053e+04
  -1.997604e+05  -4.108803e+05
   1.694712e+05  -6.790066e+05
   9.336400e+05  -3.129055e+05
   1.069254e+06   3.851374e+05
   2.697998e+05   7.029444e+05
  -6.214396e+05   3.464813e+05
  -5.784754e+05  -2.519997e+05
   4.211534e+05  -4.391554e+05
   1.347700e+06   1.518331e+04
   1.186981e+06   7.765862e+05
  -4.552511e+04   1.254348e+06
  -1.320058e+06   1.023583e+06
  -1.563652e+06   1.732000e+05
  -6.596846e+05  -6.488119e+05
   4.640999e+05  -7.403914e+05
   7.553885e+05  -8.602897e+04
   5.592672e+04   5.346475e+05
  -8.159766e+05   3.805902e+05
  -9.591214e+05  -3.900471e+05
  -2.736194e+05  -9.121442e+05
   5.393208e+05  -6.382027e+05
   7.341030e+05   6.483504e+04
   2.224290e+05   4.035763e+05
  -3.860218e+05   5.127880e+04
  -3.786066e+05  -5.661716e+05
   3.482700e+05  -7.626496e+05
   1.116198e+06  -2.532539e+05
   1.097550e+06   6.059715e+05
   2.016201e+05   1.131069e+06
  -7.665629e+05   9.024067e+05
  -9.430281e+05   1.471858e+05
  -3.147702e+05  -4.657357e+05
   3.490749e+05  -4.688672e+05
   4.042498e+05  -2.809711e+04
  -3.215882e+04   3.011309e+05
  -3.622373e+05   2.054310e+05
  -2.226769e+05  -8.084260e+04
   1.817220e+05  -1.014566e+05
   3.441313e+05   2.683697e+05
  -3.740382e+04   6.459745e+05
  -7.418145e+05   5.156793e+05
  -1.151841e+06  -2.227644e+05
  -7.974782e+05  -1.076389e+06
   1.367147e+05  -1.363661e+06
   9.253716e+05  -8.479244e+05
   1.018481e+06   2.996248e+04
   5.758060e+05   5.826440e+05
   1.898449e+05   5.347467e+05
   1.657235e+05   2.179664e+05
   2.465964e+05   1.267136e+05
   3.979336e+04   3.545704e+05
  -4.588448e+05   5.202080e+05
  -8.341615e+05   2.294579e+05
  -6.572166e+05  -4.342397e+05
   1.041340e+05  -9.055306e+05
   9.804335e+05  -6.524805e+05
   1.287846e+06   2.655705e+05
   6.753424e+05   1.162936e+06
  -4.918143e+05   1.314852e+06
  -1.365445e+06   6.270710e+05
  -1.356399e+06  -2.948569e+05
  -6.489522e+05  -7.595987e+05
   6.449533e+04  -6.377123e+05
   3.040302e+05  -3.706296e+05
   1.813207e+05  -3.918113e+05
   1.221029e+05  -6.359637e+05
   3.502880e+05  -6.529879e+05
   6.767460e+05  -1.539604e+05
   7.170087e+05   6.161610e+05
   2.865290e+05   1.062960e+06
  -3.678773e+05   7.954937e+05
  -7.271557e+05   7.326312e+03
  -4.734299e+05  -6.825045e+05
   1.598493e+05  -7.760398e+05
   5.833541e+05  -3.049833e+05
   4.520800e+05   2.732620e+05
   1.490494e+04   5.412280e+05
  -2.012595e+05   4.587022e+05
  -1.242783e+04   2.780383e+05
   2.173316e+05   2.103185e+05
   1.733434e+04   2.219332e+05
  -6.063893e+05   1.280770e+05
  -1.099000e+06  -1.698121e+05
  -8.979087e+05  -5.511869e+05
  -3.944842e+04  -7.579333e+05
   8.144447e+05  -6.127905e+05
   1.000113e+06  -1.934691e+05
   4.949631e+05   1.978696e+05
  -1.102923e+05   2.794653e+05
  -2.663990e+05   5.326149e+04
   5.600619e+03  -1.806975e+05
   2.739884e+05  -1.224369e+05
   2.554561e+05   1.944263e+05
   7.128616e+04   4.152047e+05
  -9.215487e+03   2.650070e+05
   8.943972e+04  -9.430554e+04
   2.124148e+05  -2.091126e+05
   1.651956e+05   1.257739e+05
  -1.189012e+05   5.670096e+05
  -5.045055e+05   5.769778e+05
  -6.829260e+05   5.553673e+04
  -3.954331e+05  -5.098337e+05
   2.329699e+05  -5.743026e+05
   6.548187e+05  -1.241251e+05
   3.929381e+05   3.440930e+05
  -3.821646e+05   3.716204e+05
  -9.187435e+05  -3.329401e+04
  -6.409313e+05  -4.834149e+05
   2.232980e+05  -6.088787e+05
   8.697415e+05  -3.426180e+05
   7.508753e+05   7.686109e+04
   1.016604e+05   3.076805e+05
  -3.622427e+05   1.765823e+05
  -1.957406e+05  -1.458965e+05
   3.565715e+05  -2.547215e+05
   6.503823e+05   9.960318e+04
   3.081690e+05   6.837787e+05
  -4.071559e+05   9.178466e+05
  -8.661955e+05   4.383627e+05
  -6.924129e+05  -4.601926e+05
  -8.631652e+04  -1.023425e+06
   4.352885e+05  -7.539999e+05
   5.364801e+05   7.279221e+04
   2.717998e+05   6.770311e+05
  -8.783554e+04   5.800090e+05
  -3.064343e+05   6.528835e+04
  -2.943894e+05  -2.310577e+05
  -1.288551e+05  -9.755976e+04
  -1.491165e+04   6.781169e+04
  -1.023091e+05  -1.342762e+05
  -2.588658e+05  -5.359144e+05
  -1.438302e+05  -6.267430e+05
   3.542124e+05  -2.327281e+05
   8.365787e+05   2.796979e+05
   7.599757e+05   4.915767e+05
   1.046045e+05   3.877304e+05
  -5.241786e+05   2.182761e+05
  -5.744515e+05   1.058660e+05
  -1.740479e+05  -5.798269e+03
   9.896397e+04  -1.195553e+05
  -1.959211e+04  -1.445489e+05
  -1.926186e+05  -8.913088e+04
  -7.962219e+03  -7.597473e+04
   4.241766e+05  -9.944954e+04
   5.812369e+05   3.310354e+04
   1.665880e+05   3.771620e+05
  -5.295533e+05   6.170710e+05
  -9.294826e+05   3.735729e+05
  -7.265098e+05  -2.793009e+05
  -1.165357e+05  -8.002212e+05
   4.351127e+05  -7.501190e+05
   5.920385e+05  -2.575051e+05
   3.685150e+05   1.661819e+05
   5.076195e+04   1.997365e+05
  -7.605910e+04   3.570118e+03
   3.574419e+04  -4.147225e+04
   1.874123e+05   2.003022e+05
   1.464623e+05   4.604917e+05
  -1.178311e+05   3.685171e+05
  -3.856625e+05  -1.087588e+05
  -3.715970e+05  -5.705085e+05
  -3.258790e+03  -5.693309e+05
   4.464245e+05  -8.344241e+04
   5.517778e+05   4.558301e+05
   1.529936e+05   6.106438e+05
  -4.123813e+05   3.383920e+05
  -6.047964e+05  -6.676018e+04
  -2.704262e+05  -3.193184e+05
   1.621566e+05  -3.393135e+05
   1.826633e+05  -1.975769e+05
  -1.742587e+05  -2.894113e+04
  -3.745578e+05   5.269819e+03
  -6.609701e+04  -1.658284e+05
   4.742697e+05  -3.750551e+05
   6.874023e+05  -3.190704e+05
   3.928116e+05   7.510979e+04
  -6.755307e+04   4.715458e+05
  -2.872018e+05   4.628209e+05
  -1.999219e+05   6.353877e+04
  -1.148983e+03  -2.823087e+05
   1.445609e+05  -2.198195e+05
   1.926664e+05   1.211995e+05
   1.289071e+05   3.284490e+05
  -4.009323e+04   2.074029e+05
  -2.152423e+05  -4.516712e+04
  -2.549673e+05  -1.394984e+05
  -1.376623e+05  -3.679919e+04
   4.322037e+03   5.611790e+04
   5.365696e+04  -2.858246e+04
   4.799272e+04  -2.129552e+05
   9.595984e+04  -2.615091e+05
   1.938900e+05  -5.410546e+04
   2.014313e+05   2.524251e+05
   1.871654e+04   3.621313e+05
  -2.482374e+05   1.514946e+05
  -3.433062e+05  -1.854304e+05
  -1.148727e+05  -3.365425e+05
   2.797166e+05  -1.943100e+05
   4.724694e+05   6.747364e+04
   2.533142e+05   2.185413e+05
  -1.671017e+05   1.954944e+05
  -3.485556e+05   8.938372e+04
  -1.141571e+05   5.295662e+03
   2.274280e+05  -8.600044e+02
   2.362802e+05   8.102362e+04
  -1.318514e+05   1.782917e+05
  -4.697606e+05   1.321611e+05
