
 $NMID
 id='ANONYMOUS ', fmtdat='(2E16.6)'
 volume=1.0
 tramp=1.0
 $END
   4.108588e+07  -1.690683e+06
   2.683584e+07   2.239918e+07
  -2.405272e+06   2.754832e+07
  -1.902489e+07   1.383091e+07
  -1.338767e+07  -2.335944e+06
   9.934823e+05  -7.191046e+06
   7.718850e+06  -9.743176e+05
   3.816084e+06   6.957550e+06
  -3.443227e+06   8.633606e+06
  -7.298699e+06   2.992186e+06
  -5.830878e+06  -4.632224e+06
  -8.968171e+05  -7.089983e+06
   3.206567e+06  -2.035335e+06
   2.468961e+06   5.034304e+06
  -2.509345e+06   6.181814e+06
  -6.237816e+06  -1.451093e+05
  -4.206299e+06  -7.588262e+06
   2.124014e+06  -9.333477e+06
   7.389808e+06  -4.814993e+06
   7.985922e+06   1.483050e+06
   4.560606e+06   5.351299e+06
   4.188515e+05   5.659261e+06
  -1.233094e+06   3.865600e+06
   2.203563e+05   2.503809e+06
   1.809734e+06   3.105432e+06
  -2.095156e+05   4.407147e+06
  -5.369142e+06   3.551095e+06
  -8.441092e+06  -1.005083e+05
  -5.569474e+06  -3.610947e+06
   5.485562e+05  -3.936561e+06
   3.799670e+06  -1.472817e+06
   1.927781e+06   9.894577e+05
  -1.747568e+06   1.541314e+06
  -3.274632e+06   1.280960e+05
  -2.064842e+06  -2.299040e+06
   1.429252e+05  -3.931089e+06
   1.739641e+06  -2.779583e+06
   1.866580e+06   6.765032e+05
   5.926553e+05   2.670382e+06
  -5.387499e+05   5.391918e+05
   2.460854e+05  -2.867990e+06
   2.220026e+06  -2.330308e+06
   2.282158e+06   2.206437e+06
  -9.186549e+05   4.767098e+06
  -4.372955e+06   1.302066e+06
  -3.896247e+06  -4.593525e+06
   7.622744e+05  -6.239017e+06
   5.469542e+06  -2.084258e+06
   6.084927e+06   3.261811e+06
   2.253862e+06   5.048536e+06
  -2.750343e+06   2.823606e+06
  -4.933248e+06  -6.910002e+05
  -2.742591e+06  -2.706244e+06
   1.524812e+06  -2.064480e+06
   3.664749e+06   2.846431e+05
   1.869208e+06   1.906188e+06
  -1.212583e+06   1.176214e+06
  -1.725587e+06  -7.324184e+05
   5.542809e+05  -1.202273e+06
   2.141685e+06   4.411624e+05
   5.406033e+05   2.146285e+06
  -2.678279e+06   1.878555e+06
  -4.069331e+06  -2.220706e+05
  -2.200607e+06  -2.709116e+06
   1.475981e+06  -4.328187e+06
   4.526558e+06  -4.055014e+06
   5.289935e+06  -1.283638e+06
   3.560748e+06   2.796315e+06
   7.140270e+05   5.242783e+06
  -1.164949e+06   4.319355e+06
  -1.191260e+06   1.732481e+06
  -5.654661e+05   4.882575e+05
  -9.285814e+05   1.036461e+06
  -2.188526e+06   1.147092e+06
  -2.746514e+06  -5.173026e+05
  -1.620596e+06  -2.425784e+06
   4.640430e+05  -2.313176e+06
   1.966407e+06  -5.862370e+04
   1.789996e+06   2.333597e+06
  -1.349769e+05   2.905521e+06
  -2.644258e+06   1.291602e+06
  -3.790594e+06  -1.321695e+06
  -2.494373e+06  -3.174438e+06
   7.173560e+04  -3.239982e+06
   1.627949e+06  -2.056962e+06
   1.542781e+06  -1.066645e+06
   1.463996e+06  -9.069865e+05
   2.725377e+06  -7.416719e+05
   4.148709e+06   4.708638e+05
   3.433974e+06   2.500002e+06
   2.450462e+05   4.004959e+06
  -3.126828e+06   3.837471e+06
  -4.164177e+06   1.928538e+06
  -2.511215e+06  -6.594768e+05
   2.476166e+04  -2.251781e+06
   1.280244e+06  -1.745327e+06
   5.111005e+05   1.324479e+05
  -1.131819e+06   1.236955e+06
  -1.777674e+06   3.850518e+05
  -7.745114e+05  -1.100708e+06
   5.910420e+05  -1.101643e+06
   6.157007e+05   3.523736e+05
  -7.559032e+05   1.015040e+06
  -1.875780e+06  -5.469888e+05
  -1.313292e+06  -2.967931e+06
   7.155193e+05  -3.708243e+06
   2.811963e+06  -1.926571e+06
   3.658873e+06   9.147662e+05
   2.750167e+06   2.791614e+06
   6.184374e+05   2.803223e+06
  -1.290808e+06   1.487122e+06
  -1.610243e+06   1.771836e+05
  -4.880943e+05  -3.870051e+04
   3.743265e+05   7.288800e+05
  -3.065458e+05   1.256522e+06
  -1.723897e+06   6.039351e+05
  -1.960318e+06  -7.016412e+05
  -4.817771e+05  -1.290848e+06
   1.111140e+06  -6.301310e+05
   9.972522e+05   4.247981e+05
  -7.604217e+05   7.179431e+05
  -2.330437e+06  -5.999058e+04
  -2.031183e+06  -1.322662e+06
   7.902728e+04  -2.152699e+06
   2.292748e+06  -1.826161e+06
   2.773229e+06  -3.642668e+05
   1.215694e+06   1.161600e+06
  -8.237313e+05   1.395653e+06
  -1.408765e+06   1.968992e+05
  -1.544959e+05  -9.899959e+05
   1.456565e+06  -7.314245e+05
   1.727986e+06   6.808210e+05
   4.793494e+05   1.621524e+06
  -9.743106e+05   1.109570e+06
  -1.294448e+06  -1.455875e+05
  -3.665763e+05  -7.288245e+05
   7.188730e+05  -9.662398e+04
   7.179093e+05   1.005649e+06
  -5.732971e+05   1.393452e+06
  -1.982957e+06   5.276215e+05
  -2.006085e+06  -1.023085e+06
  -4.151519e+05  -2.025016e+06
   1.350729e+06  -1.651256e+06
   1.688624e+06  -2.857359e+05
   5.624658e+05   8.288426e+05
  -6.132561e+05   8.403882e+05
  -6.917683e+05   7.633148e+04
   6.291966e+04  -4.816096e+05
   5.868164e+05  -3.318040e+05
   3.131927e+05   1.086903e+05
  -3.578858e+05   1.060953e+05
  -5.930492e+05  -5.246959e+05
   8.408369e+04  -1.162829e+06
   1.318463e+06  -9.418709e+05
   2.069994e+06   3.535056e+05
   1.479924e+06   1.891455e+06
  -1.770576e+05   2.432013e+06
  -1.601454e+06   1.518522e+06
  -1.775614e+06  -3.315441e+04
  -9.971815e+05  -9.685065e+05
  -3.546284e+05  -8.494281e+05
  -3.620736e+05  -3.282335e+05
  -5.033688e+05  -2.433433e+05
  -9.143631e+04  -6.716189e+05
   8.140371e+05  -9.369431e+05
   1.463304e+06  -4.165650e+05
   1.149630e+06   7.292302e+05
  -1.677901e+05   1.567670e+06
  -1.710164e+06   1.174371e+06
  -2.289622e+06  -4.217034e+05
  -1.229794e+06  -2.051062e+06
   8.624501e+05  -2.369441e+06
   2.439815e+06  -1.147173e+06
   2.407075e+06   5.100703e+05
   1.124403e+06   1.320270e+06
  -1.163739e+05   1.077715e+06
  -4.769698e+05   6.255427e+05
  -2.285870e+05   7.235721e+05
  -1.544669e+05   1.193433e+06
  -6.110476e+05   1.217648e+06
  -1.226777e+06   3.170509e+05
  -1.322566e+06  -1.061227e+06
  -5.706091e+05  -1.881149e+06
   6.103923e+05  -1.438989e+06
   1.291488e+06  -3.936668e+04
   8.621373e+05   1.216660e+06
  -2.853522e+05   1.392913e+06
  -1.064867e+06   5.237495e+05
  -8.179559e+05  -5.345220e+05
  -1.542316e+03  -9.983142e+05
   3.954976e+05  -8.137836e+05
   3.015564e+04  -4.702806e+05
  -4.107681e+05  -3.530327e+05
  -4.950383e+04  -3.906848e+05
   1.096261e+06  -2.477827e+05
   1.997843e+06   2.654323e+05
   1.628012e+06   9.607857e+05
   6.787333e+04   1.374851e+06
  -1.468613e+06   1.141501e+06
  -1.788749e+06   3.657215e+05
  -8.742157e+05  -3.765914e+05
   2.054240e+05  -5.251065e+05
   4.839310e+05  -8.638848e+04
   1.047131e+04   3.541902e+05
  -4.683959e+05   2.429466e+05
  -4.719967e+05  -3.340297e+05
  -1.859443e+05  -7.312970e+05
  -3.163553e+04  -4.749272e+05
  -1.479986e+05   1.478307e+05
  -3.366995e+05   3.554134e+05
  -2.930220e+05  -2.195521e+05
   1.644737e+05  -1.007013e+06
   8.736523e+05  -1.061549e+06
   1.261354e+06  -1.532104e+05
   7.747541e+05   8.930286e+05
  -3.901787e+05   1.071122e+06
  -1.191077e+06   2.877179e+05
  -7.259951e+05  -5.826597e+05
   6.718386e+05  -6.737432e+05
   1.621689e+06   3.223761e+04
   1.116808e+06   8.342674e+05
  -4.005579e+05   1.061950e+06
  -1.517432e+06   6.032385e+05
  -1.305509e+06  -1.229280e+05
  -1.784672e+05  -5.322416e+05
   6.390447e+05  -3.147799e+05
   3.670263e+05   2.629475e+05
  -6.069238e+05   4.926911e+05
  -1.171404e+06  -1.157592e+05
  -6.212590e+05  -1.191888e+06
   6.380407e+05  -1.676747e+06
   1.503549e+06  -8.557464e+05
   1.262014e+06   7.678616e+05
   2.157677e+05   1.809049e+06
  -7.306429e+05   1.345552e+06
  -9.485608e+05  -1.229560e+05
  -4.949991e+05  -1.189787e+06
   1.538584e+05  -1.014693e+06
   5.489940e+05  -1.181538e+05
   5.137596e+05   3.868926e+05
   2.102074e+05   1.553054e+05
   3.159949e+04  -1.124536e+05
   2.233197e+05   2.548340e+05
   5.022259e+05   9.479943e+05
   2.599797e+05   1.097258e+06
  -6.514732e+05   4.232560e+05
  -1.497698e+06  -4.500853e+05
  -1.349081e+06  -8.291614e+05
  -2.027943e+05  -6.894258e+05
   8.952047e+05  -4.229912e+05
   1.004961e+06  -2.113175e+05
   3.293682e+05   1.843125e+04
  -1.597311e+05   2.221502e+05
   1.473701e+04   2.375691e+05
   3.177406e+05   1.265382e+05
   3.124096e+04   1.340479e+05
  -7.161387e+05   2.179847e+05
  -1.041837e+06  -1.499485e+04
  -3.656075e+05  -6.721643e+05
   8.774759e+05  -1.153456e+06
   1.656950e+06  -7.427096e+05
   1.352498e+06   4.394698e+05
   2.695875e+05   1.413869e+06
  -7.389063e+05   1.372157e+06
  -1.041677e+06   5.164868e+05
  -6.637921e+05  -2.549782e+05
  -1.163870e+05  -3.545769e+05
   1.097527e+05  -3.280828e+04
  -6.901825e+04   5.336768e+04
  -3.301673e+05  -3.532343e+05
  -2.764062e+05  -8.099223e+05
   1.812116e+05  -6.712677e+05
   6.898801e+05   1.475665e+05
   7.188659e+05   9.740919e+05
   7.586579e+04   1.021264e+06
  -7.746089e+05   2.087487e+05
  -1.025083e+06  -7.504223e+05
  -3.313942e+05  -1.082094e+06
   7.106521e+05  -6.523368e+05
   1.097867e+06   7.316889e+04
   5.173165e+05   5.742649e+05
  -2.722857e+05   6.422705e+05
  -3.383780e+05   3.675881e+05
   2.861801e+05   2.700530e+04
   6.602799e+05  -3.848178e+04
   1.372853e+05   2.976188e+05
  -8.208094e+05   6.946499e+05
  -1.225882e+06   5.890554e+05
  -7.298938e+05  -1.333608e+05
   8.890426e+04  -8.558518e+05
   5.074533e+05  -8.518457e+05
   3.817185e+05  -1.430620e+05
   3.600413e+04   4.931868e+05
  -2.397788e+05   4.165381e+05
  -3.521766e+05  -1.788376e+05
  -2.550392e+05  -5.764157e+05
   5.363534e+04  -3.954932e+05
   3.887490e+05   5.569937e+04
   4.703782e+05   2.501855e+05
   2.464003e+05   7.216420e+04
  -2.187889e+04  -1.204207e+05
  -9.003497e+04   1.416837e+04
  -3.549377e+04   3.702281e+05
  -1.077265e+05   5.046732e+05
  -3.309604e+05   1.561583e+05
  -4.117324e+05  -4.103634e+05
  -1.018550e+05  -6.447489e+05
   4.209804e+05  -3.000850e+05
   6.425512e+05   2.928068e+05
   2.409292e+05   5.834030e+05
  -4.935515e+05   3.678256e+05
  -8.626162e+05  -7.905942e+04
  -4.736046e+05  -3.727886e+05
   2.866901e+05  -3.784349e+05
   6.244383e+05  -2.050242e+05
   2.232676e+05  -1.909746e+04
  -3.797753e+05   3.981059e+04
  -4.186036e+05  -9.938804e+04
   1.987822e+05  -3.121250e+05
   7.914924e+05  -2.718388e+05
