
 $NMID
 id='ANONYMOUS ', fmtdat='(2E16.6)'
 volume=1.0
 tramp=1.0
 $END
   4.158808e+07  -4.050889e+06
   2.866396e+07   2.168318e+07
  -1.082881e+06   2.846365e+07
  -1.899092e+07   1.486771e+07
  -1.390840e+07  -2.143214e+06
   8.187247e+05  -7.492861e+06
   7.951541e+06  -1.105601e+06
   4.053326e+06   7.096435e+06
  -3.388175e+06   8.835106e+06
  -7.387295e+06   3.209482e+06
  -6.044745e+06  -4.407108e+06
  -1.170779e+06  -7.020903e+06
   3.065770e+06  -2.199429e+06
   2.547231e+06   4.854993e+06
  -2.409518e+06   6.224162e+06
  -6.363508e+06   4.354632e+04
  -4.553767e+06  -7.523636e+06
   1.766029e+06  -9.541578e+06
   7.225904e+06  -5.242607e+06
   8.129525e+06   1.008899e+06
   4.992412e+06   5.075206e+06
   9.021110e+05   5.756854e+06
  -1.035163e+06   4.204014e+06
   6.094045e+04   2.696086e+06
   1.616576e+06   2.960941e+06
  -1.037910e+05   4.189974e+06
  -5.036272e+06   3.628023e+06
  -8.232414e+06   2.658860e+05
  -5.677884e+06  -3.271681e+06
   2.379960e+05  -3.843194e+06
   3.509910e+06  -1.600818e+06
   1.819516e+06   7.501345e+05
  -1.617490e+06   1.320259e+06
  -3.019063e+06   9.941155e+04
  -1.948664e+06  -2.081468e+06
  -2.083536e+04  -3.707089e+06
   1.510007e+06  -2.844556e+06
   1.894399e+06   3.937564e+05
   8.584000e+05   2.540862e+06
  -3.676683e+05   7.075906e+05
   1.747091e+05  -2.666507e+06
   2.137024e+06  -2.323397e+06
   2.388182e+06   2.180561e+06
  -7.972494e+05   4.962684e+06
  -4.519835e+06   1.623625e+06
  -4.270182e+06  -4.477056e+06
   4.689587e+05  -6.439173e+06
   5.426878e+06  -2.390855e+06
   6.189293e+06   3.070645e+06
   2.350753e+06   5.004102e+06
  -2.704197e+06   2.861567e+06
  -4.928247e+06  -6.294234e+05
  -2.767560e+06  -2.694008e+06
   1.518114e+06  -2.150246e+06
   3.724444e+06   1.722241e+05
   1.952990e+06   1.889271e+06
  -1.183248e+06   1.243359e+06
  -1.722515e+06  -7.079281e+05
   6.307748e+05  -1.238603e+06
   2.278177e+06   4.860382e+05
   5.984911e+05   2.346642e+06
  -2.763014e+06   2.108053e+06
  -4.214138e+06  -1.111030e+05
  -2.347400e+06  -2.704185e+06
   1.272380e+06  -4.358336e+06
   4.267087e+06  -4.151958e+06
   5.140670e+06  -1.498015e+06
   3.651897e+06   2.558435e+06
   9.240934e+05   5.136466e+06
  -1.069026e+06   4.338611e+06
  -1.245490e+06   1.716335e+06
  -5.871849e+05   3.566120e+05
  -7.869901e+05   8.985077e+05
  -1.959590e+06   1.147979e+06
  -2.585603e+06  -3.626698e+05
  -1.597942e+06  -2.218820e+06
   3.755061e+05  -2.172902e+06
   1.843166e+06  -5.852035e+04
   1.735060e+06   2.214958e+06
  -5.867526e+04   2.804772e+06
  -2.507287e+06   1.353904e+06
  -3.753563e+06  -1.113973e+06
  -2.623742e+06  -3.003195e+06
  -1.144441e+05  -3.240976e+06
   1.527386e+06  -2.172300e+06
   1.539665e+06  -1.154082e+06
   1.468777e+06  -9.277814e+05
   2.683450e+06  -7.683793e+05
   4.087709e+06   3.856817e+05
   3.414106e+06   2.381883e+06
   3.151317e+05   3.905821e+06
  -2.960857e+06   3.795835e+06
  -3.978792e+06   1.969565e+06
  -2.433263e+06  -5.488999e+05
  -4.831938e+04  -2.144854e+06
   1.165927e+06  -1.714336e+06
   4.917302e+05   1.019321e+05
  -1.060549e+06   1.223245e+06
  -1.728856e+06   4.245302e+05
  -8.006872e+05  -1.045681e+06
   5.429426e+05  -1.071753e+06
   5.883510e+05   3.575606e+05
  -7.870659e+05   1.003338e+06
  -1.919905e+06  -5.771628e+05
  -1.322238e+06  -2.992800e+06
   7.559483e+05  -3.687182e+06
   2.828273e+06  -1.874411e+06
   3.594141e+06   9.198449e+05
   2.664158e+06   2.712351e+06
   6.101886e+05   2.707077e+06
  -1.221425e+06   1.457887e+06
  -1.548542e+06   2.037251e+05
  -4.756298e+05  -2.846767e+04
   3.781981e+05   7.045932e+05
  -2.744157e+05   1.247791e+06
  -1.684325e+06   6.394289e+05
  -1.947131e+06  -6.544784e+05
  -4.975173e+05  -1.269532e+06
   1.080414e+06  -6.338679e+05
   9.676702e+05   4.106266e+05
  -7.596196e+05   7.006178e+05
  -2.279308e+06  -6.229078e+04
  -1.968299e+06  -1.285791e+06
   7.834912e+04  -2.091906e+06
   2.213863e+06  -1.798145e+06
   2.695519e+06  -3.960854e+05
   1.215311e+06   1.115216e+06
  -7.693058e+05   1.394080e+06
  -1.380829e+06   2.368800e+05
  -1.858710e+05  -9.615822e+05
   1.405255e+06  -7.460220e+05
   1.701855e+06   6.401852e+05
   4.841650e+05   1.586448e+06
  -9.550651e+05   1.095807e+06
  -1.276696e+06  -1.403053e+05
  -3.629510e+05  -7.222545e+05
   7.100585e+05  -1.131377e+05
   7.244080e+05   9.648866e+05
  -5.256035e+05   1.366892e+06
  -1.914592e+06   5.551356e+05
  -1.973059e+06  -9.531451e+05
  -4.448394e+05  -1.966671e+06
   1.290175e+06  -1.639135e+06
   1.647432e+06  -3.060752e+05
   5.601457e+05   8.061207e+05
  -5.891125e+05   8.290984e+05
  -6.631135e+05   7.954550e+04
   7.436806e+04  -4.621969e+05
   5.686608e+05  -3.063916e+05
   2.784698e+05   1.200423e+05
  -3.799851e+05   1.010080e+05
  -5.965793e+05  -5.246657e+05
   7.010048e+04  -1.149079e+06
   1.274783e+06  -9.423892e+05
   2.024698e+06   3.086311e+05
   1.477525e+06   1.814691e+06
  -1.310860e+05   2.367047e+06
  -1.540472e+06   1.493699e+06
  -1.726029e+06  -2.037889e+04
  -9.603499e+05  -9.310893e+05
  -3.295261e+05  -7.997480e+05
  -3.561193e+05  -2.836116e+05
  -5.165690e+05  -2.178506e+05
  -1.139665e+05  -6.605343e+05
   7.838619e+05  -9.288627e+05
   1.422415e+06  -4.195630e+05
   1.116898e+06   6.982230e+05
  -1.568527e+05   1.522881e+06
  -1.651847e+06   1.161990e+06
  -2.233029e+06  -3.780058e+05
  -1.228027e+06  -1.985038e+06
   8.088094e+05  -2.334894e+06
   2.372656e+06  -1.160312e+06
   2.358874e+06   4.735759e+05
   1.099265e+06   1.284344e+06
  -1.204820e+05   1.044753e+06
  -4.562513e+05   5.908645e+05
  -1.865200e+05   6.894357e+05
  -1.056482e+05   1.166939e+06
  -5.666385e+05   1.209258e+06
  -1.191533e+06   3.404466e+05
  -1.307813e+06  -1.004175e+06
  -5.900219e+05  -1.817337e+06
   5.659777e+05  -1.409079e+06
   1.257136e+06  -5.741307e+04
   8.630986e+05   1.178292e+06
  -2.618300e+05   1.371503e+06
  -1.050473e+06   5.281765e+05
  -8.252026e+05  -5.226792e+05
  -1.673639e+04  -9.944510e+05
   3.887564e+05  -8.126480e+05
   3.402621e+04  -4.579989e+05
  -4.055394e+05  -3.294005e+05
  -5.577386e+04  -3.757221e+05
   1.069980e+06  -2.642877e+05
   1.959973e+06   2.177998e+05
   1.606997e+06   9.109943e+05
   8.825657e+04   1.353994e+06
  -1.416859e+06   1.152205e+06
  -1.745332e+06   3.848609e+05
  -8.668089e+05  -3.678695e+05
   1.895813e+05  -5.261988e+05
   4.783274e+05  -9.079167e+04
   2.872508e+04   3.484222e+05
  -4.443789e+05   2.430108e+05
  -4.665361e+05  -3.143652e+05
  -2.014678e+05  -6.950921e+05
  -4.823496e+04  -4.513810e+05
  -1.469161e+05   1.384001e+05
  -3.217293e+05   3.355750e+05
  -2.881770e+05  -2.112926e+05
   1.400557e+05  -9.740907e+05
   8.290264e+05  -1.050763e+06
   1.229239e+06  -1.903113e+05
   7.812499e+05   8.423439e+05
  -3.505863e+05   1.058243e+06
  -1.150284e+06   3.180633e+05
  -7.149915e+05  -5.484558e+05
   6.458132e+05  -6.678474e+05
   1.578658e+06   1.236033e+04
   1.090003e+06   8.072319e+05
  -3.888345e+05   1.041060e+06
  -1.476040e+06   5.964596e+05
  -1.269655e+06  -1.129503e+05
  -1.752778e+05  -5.170533e+05
   6.217517e+05  -3.136697e+05
   3.679857e+05   2.490845e+05
  -5.713783e+05   4.902237e+05
  -1.134163e+06  -8.255001e+04
  -6.309839e+05  -1.133908e+06
   5.744566e+05  -1.634188e+06
   1.433025e+06  -8.607559e+05
   1.236551e+06   7.184772e+05
   2.412583e+05   1.749307e+06
  -6.907184e+05   1.314137e+06
  -9.277224e+05  -1.109410e+05
  -4.957786e+05  -1.154228e+06
   1.449855e+05  -9.915424e+05
   5.372606e+05  -1.231950e+05
   4.979472e+05   3.713124e+05
   1.976460e+05   1.516231e+05
   3.352233e+04  -1.101620e+05
   2.361363e+05   2.386459e+05
   5.102391e+05   9.101089e+05
   2.616974e+05   1.067502e+06
  -6.364429e+05   4.302984e+05
  -1.460458e+06  -4.116961e+05
  -1.316455e+06  -7.890636e+05
  -2.097583e+05  -6.685048e+05
   8.537619e+05  -4.206357e+05
   9.719073e+05  -2.177534e+05
   3.301616e+05   1.052446e+04
  -1.475767e+05   2.166190e+05
   6.195164e+03   2.342243e+05
   2.971868e+05   1.208255e+05
   3.573667e+04   1.256303e+05
  -6.781621e+05   2.190201e+05
  -1.009880e+06   8.779228e+03
  -3.819780e+05  -6.342501e+05
   8.160537e+05  -1.133091e+06
   1.593484e+06  -7.645512e+05
   1.326883e+06   3.849691e+05
   2.905505e+05   1.361833e+06
  -6.903190e+05   1.350837e+06
  -9.952170e+05   5.272956e+05
  -6.428767e+05  -2.310029e+05
  -1.236907e+05  -3.382580e+05
   9.316442e+04  -3.172885e+04
  -7.460871e+04   4.989929e+04
  -3.256151e+05  -3.431089e+05
  -2.802202e+05  -7.840916e+05
   1.592674e+05  -6.549293e+05
   6.646945e+05   1.255947e+05
   7.158425e+05   9.202191e+05
   1.039284e+05   9.808967e+05
  -7.341392e+05   2.207964e+05
  -1.004307e+06  -6.975212e+05
  -3.486494e+05  -1.038197e+06
   6.690821e+05  -6.516097e+05
   1.068172e+06   4.293917e+04
   5.234795e+05   5.479649e+05
  -2.446441e+05   6.365715e+05
  -3.261599e+05   3.717484e+05
   2.676889e+05   2.504223e+04
   6.365145e+05  -4.955818e+04
   1.430830e+05   2.849003e+05
  -7.836580e+05   6.888517e+05
  -1.189746e+06   5.960363e+05
  -7.240729e+05  -1.136270e+05
   6.578189e+04  -8.342927e+05
   4.791004e+05  -8.458931e+05
   3.696341e+05  -1.592101e+05
   4.560849e+04   4.705585e+05
  -2.188478e+05   4.114608e+05
  -3.380347e+05  -1.601351e+05
  -2.595924e+05  -5.526774e+05
   3.622159e+04  -3.890605e+05
   3.754836e+05   4.301412e+04
   4.682333e+05   2.357335e+05
   2.446716e+05   6.930541e+04
  -3.232214e+04  -1.183249e+05
  -9.804920e+04   4.542780e+03
  -2.188538e+04   3.460130e+05
  -7.353190e+04   4.858298e+05
  -3.012128e+05   1.662892e+05
  -4.085466e+05  -3.725925e+05
  -1.227739e+05  -6.101214e+05
   3.953630e+05  -2.993896e+05
   6.290320e+05   2.619367e+05
   2.461289e+05   5.546142e+05
  -4.722718e+05   3.696354e+05
  -8.390709e+05  -5.219566e+04
  -4.686114e+05  -3.497605e+05
   2.652724e+05  -3.778881e+05
   5.969508e+05  -2.195539e+05
   2.204262e+05  -2.946089e+04
  -3.543525e+05   4.434075e+04
  -3.972730e+05  -8.313909e+04
   1.847893e+05  -2.958933e+05
   7.514504e+05  -2.697517e+05
