
 $NMID
 id='ANONYMOUS ', fmtdat='(2E16.6)'
 volume=1.0
 tramp=1.0
 $END
  -2.122371e+07   2.864310e+06
  -1.608258e+07  -8.265309e+06
  -1.983472e+06  -1.391110e+07
   8.523522e+06  -1.043056e+07
   8.216142e+06  -1.743495e+06
   9.837932e+05   4.062041e+06
  -4.467718e+06   2.463982e+06
  -3.823703e+06  -3.333286e+06
   5.583404e+05  -6.290859e+06
   3.959521e+06  -3.161639e+06
   3.796269e+06   2.441454e+06
   8.523460e+05   4.481353e+06
  -1.946032e+06   1.123476e+06
  -1.915272e+06  -3.646322e+06
   9.582551e+05  -4.631324e+06
   3.699344e+06  -8.263080e+05
   3.213261e+06   4.010818e+06
  -3.675506e+05   5.562570e+06
  -3.799239e+06   3.057710e+06
  -4.253688e+06  -7.012372e+05
  -2.120223e+06  -2.648647e+06
  -1.341314e+05  -2.279691e+06
  -2.596001e+05  -1.414676e+06
  -1.744029e+06  -1.768622e+06
  -2.039514e+06  -3.101645e+06
   4.206033e+05  -3.679745e+06
   4.190240e+06  -2.285503e+06
   5.805500e+06   4.070936e+05
   3.370493e+06   2.425129e+06
  -9.900640e+05   2.322974e+06
  -3.076502e+06   4.268056e+05
  -1.173286e+06  -1.505700e+06
   2.175412e+06  -1.730828e+06
   3.332035e+06   7.491201e+04
   1.606471e+06   2.424117e+06
  -6.585959e+05   3.140100e+06
  -1.316076e+06   1.438377e+06
  -5.034943e+05  -9.677572e+05
   3.370297e+05  -1.429295e+06
   2.877472e+05   5.897253e+05
  -5.627262e+05   2.593631e+06
  -1.536398e+06   1.894418e+06
  -1.691512e+06  -9.832310e+05
  -4.239637e+05  -2.734840e+06
   1.535053e+06  -1.236838e+06
   2.193108e+06   1.889279e+06
   2.810908e+05   3.231782e+06
  -2.861933e+06   1.440983e+06
  -4.197223e+06  -1.622101e+06
  -2.143118e+06  -3.212982e+06
   1.583742e+06  -2.340980e+06
   3.643581e+06  -1.496004e+05
   2.425013e+06   1.501880e+06
  -5.162312e+05   1.533030e+06
  -2.247631e+06   2.841294e+05
  -1.426822e+06  -8.762543e+05
   5.719626e+05  -7.931957e+05
   1.356205e+06   3.299784e+05
   1.564464e+05   1.141188e+06
  -1.409864e+06   6.403660e+05
  -1.268750e+06  -6.997454e+05
   6.566589e+05  -1.451128e+06
   2.279743e+06  -6.884368e+05
   1.661359e+06   1.175797e+06
  -8.761254e+05   2.750139e+06
  -3.172090e+06   2.694483e+06
  -3.507060e+06   7.437086e+05
  -2.104346e+06  -1.910910e+06
  -4.624752e+05  -3.452887e+06
   3.431110e+05  -3.077540e+06
   4.710027e+05  -1.744019e+06
   7.050278e+05  -9.509298e+05
   1.411608e+06  -9.080501e+05
   2.153514e+06  -4.930800e+05
   2.148919e+06   9.145625e+05
   1.037447e+06   2.256481e+06
  -6.767687e+05   1.967337e+06
  -1.852978e+06  -1.246531e+04
  -1.540792e+06  -1.987550e+06
   1.553277e+05  -2.270973e+06
   1.980128e+06  -7.946726e+05
   2.514706e+06   1.090269e+06
   1.470558e+06   2.050500e+06
  -5.581588e+04   1.830761e+06
  -7.913335e+05   1.143715e+06
  -6.911853e+05   7.929110e+05
  -8.556242e+05   8.930972e+05
  -1.959630e+06   8.205488e+05
  -3.111907e+06  -8.336287e+04
  -2.698434e+06  -1.702976e+06
  -3.505673e+05  -3.045403e+06
   2.323750e+06  -3.023287e+06
   3.230949e+06  -1.450584e+06
   1.883587e+06   6.516239e+05
  -1.992072e+05   1.789907e+06
  -1.111167e+06   1.259318e+06
  -3.674599e+05  -1.677805e+05
   8.985637e+05  -9.387197e+05
   1.289837e+06  -3.213077e+05
   5.146303e+05   7.750035e+05
  -4.970231e+05   8.678333e+05
  -6.279221e+05  -2.293152e+05
   3.288329e+05  -1.036759e+06
   1.468937e+06  -1.623885e+05
   1.569367e+06   1.890107e+06
   1.788067e+05   3.114028e+06
  -1.892161e+06   2.165357e+06
  -3.132278e+06  -2.343664e+05
  -2.571256e+06  -2.140661e+06
  -6.721170e+05  -2.324825e+06
   1.019015e+06  -1.209954e+06
   1.284104e+06  -1.331963e+05
   3.789861e+05   1.531881e+04
  -3.187660e+05  -5.443663e+05
   1.360782e+05  -9.202120e+05
   1.194809e+06  -5.191452e+05
   1.483834e+06   3.694351e+05
   4.722763e+05   8.990777e+05
  -8.066699e+05   5.581410e+05
  -8.706917e+05  -2.837930e+05
   5.036715e+05  -7.263305e+05
   1.929817e+06  -2.078449e+05
   1.836916e+06   9.556561e+05
   1.208037e+05   1.819938e+06
  -1.737492e+06   1.607825e+06
  -2.157608e+06   4.113899e+05
  -9.686447e+05  -8.029855e+05
   5.460517e+05  -1.020926e+06
   9.791956e+05  -1.815899e+05
   1.004596e+05   7.018251e+05
  -1.076844e+06   5.939625e+05
  -1.367533e+06  -4.174949e+05
  -5.180400e+05  -1.227224e+06
   6.404254e+05  -9.868462e+05
   1.036852e+06  -4.582736e+04
   3.948175e+05   5.149827e+05
  -4.961666e+05   1.196848e+05
  -5.635990e+05  -7.342077e+05
   4.198397e+05  -1.074999e+06
   1.519577e+06  -4.377262e+05
   1.562356e+06   7.397124e+05
   3.870329e+05   1.532658e+06
  -9.507271e+05   1.319601e+06
  -1.280033e+06   3.158103e+05
  -5.025433e+05  -6.014926e+05
   4.240761e+05  -6.963406e+05
   5.852287e+05  -7.586836e+04
   1.000641e+04   4.715493e+05
  -5.226764e+05   3.731865e+05
  -4.006407e+05  -1.051551e+05
   1.979894e+05  -2.322070e+05
   5.280506e+05   2.774492e+05
   5.454732e+04   8.859521e+05
  -9.583790e+05   7.968044e+05
  -1.612387e+06  -1.872054e+05
  -1.203140e+06  -1.406340e+06
   5.842546e+04  -1.910957e+06
   1.206077e+06  -1.302737e+06
   1.453408e+06  -8.747918e+04
   9.135741e+05   7.890211e+05
   3.322913e+05   8.134688e+05
   2.019988e+05   3.414252e+05
   2.963428e+05   1.295511e+05
   8.122938e+04   4.489877e+05
  -5.662562e+05   7.748690e+05
  -1.143854e+06   4.291462e+05
  -9.939438e+05  -5.486249e+05
   2.924168e+04  -1.312201e+06
   1.299775e+06  -1.033268e+06
   1.828810e+06   2.329947e+05
   1.076940e+06   1.535149e+06
  -5.084327e+05   1.865450e+06
  -1.796412e+06   1.033675e+06
  -1.930290e+06  -2.282683e+05
  -1.040070e+06  -9.875622e+05
  -8.339125e+03  -9.473287e+05
   4.263855e+05  -5.950752e+05
   2.871638e+05  -5.524761e+05
   1.437564e+05  -8.463230e+05
   4.091537e+05  -9.037015e+05
   8.987034e+05  -2.671686e+05
   1.040815e+06   7.893905e+05
   4.923667e+05   1.447877e+06
  -4.402972e+05   1.137172e+06
  -1.011569e+06   8.959627e+04
  -7.348699e+05  -8.779061e+05
   1.108664e+05  -1.087075e+06
   7.376455e+05  -5.217542e+05
   6.481855e+05   2.694312e+05
   1.184770e+05   7.120882e+05
  -1.773718e+05   6.633264e+05
   3.258152e+04   4.099813e+05
   3.099905e+05   2.834159e+05
   3.776884e+04   3.109763e+05
  -8.076905e+05   2.429799e+05
  -1.510218e+06  -1.179596e+05
  -1.296063e+06  -6.575616e+05
  -1.630185e+05  -1.019294e+06
   1.027337e+06  -9.150755e+05
   1.352026e+06  -3.900447e+05
   7.184446e+05   1.792663e+05
  -1.069378e+05   3.755898e+05
  -3.513909e+05   1.187590e+05
   5.180424e+03  -2.222474e+05
   3.837080e+05  -1.865761e+05
   3.664436e+05   2.465796e+05
   1.019752e+05   5.785953e+05
  -2.124829e+04   3.702145e+05
   1.194451e+05  -1.633517e+05
   3.020909e+05  -3.396450e+05
   2.472160e+05   1.547675e+05
  -1.294258e+05   8.086054e+05
  -6.429811e+05   8.398523e+05
  -8.989381e+05   1.176054e+05
  -5.537590e+05  -6.704803e+05
   2.690106e+05  -7.842292e+05
   8.715758e+05  -1.987628e+05
   5.709537e+05   4.520154e+05
  -4.859389e+05   5.585350e+05
  -1.293632e+06   6.019569e+04
  -9.824600e+05  -6.013313e+05
   2.177351e+05  -8.960968e+05
   1.185008e+06  -6.080024e+05
   1.082292e+06   9.622853e+03
   1.886869e+05   4.262959e+05
  -4.820486e+05   2.966902e+05
  -2.739131e+05  -1.725402e+05
   4.878032e+05  -3.687774e+05
   9.079667e+05   1.052609e+05
   4.573917e+05   9.345379e+05
  -5.203966e+05   1.297184e+06
  -1.181835e+06   6.624767e+05
  -1.001929e+06  -5.909931e+05
  -2.072992e+05  -1.424070e+06
   5.382296e+05  -1.107878e+06
   7.603602e+05   2.998745e+04
   4.639726e+05   9.148298e+05
  -3.927140e+04   8.331286e+05
  -4.116925e+05   1.319782e+05
  -4.530050e+05  -3.002640e+05
  -2.127177e+05  -1.322616e+05
  -5.290950e+03   1.036391e+05
  -1.197546e+05  -1.601865e+05
  -3.961417e+05  -7.152214e+05
  -2.870745e+05  -8.658205e+05
   4.381661e+05  -3.624197e+05
   1.195604e+06   3.146933e+05
   1.131252e+06   6.161798e+05
   1.842994e+05   5.245756e+05
  -7.349317e+05   3.478949e+05
  -7.998737e+05   2.084742e+05
  -2.223089e+05   2.261200e+04
   1.367602e+05  -1.726056e+05
  -6.899765e+04  -2.145533e+05
  -3.067230e+05  -1.242184e+05
  -5.509259e+03  -1.066981e+05
   6.147894e+05  -1.627786e+05
   8.072553e+05   5.651048e+03
   2.182023e+05   5.047499e+05
  -7.135077e+05   8.842062e+05
  -1.239714e+06   5.754386e+05
  -9.951623e+05  -3.445760e+05
  -2.170247e+05  -1.108309e+06
   5.335259e+05  -1.069242e+06
   8.007072e+05  -3.865190e+05
   5.306080e+05   2.174937e+05
   7.390584e+04   2.727501e+05
  -1.320619e+05  -7.124185e+03
   3.634971e+04  -8.164561e+04
   2.918198e+05   2.534474e+05
   2.547005e+05   6.277652e+05
  -1.392768e+05   5.154895e+05
  -5.510572e+05  -1.399261e+05
  -5.454134e+05  -7.826536e+05
  -1.787755e+04  -7.877851e+05
   6.318636e+05  -1.236118e+05
   7.944967e+05   6.155579e+05
   2.428998e+05   8.347294e+05
  -5.504704e+05   4.819515e+05
  -8.313795e+05  -5.213104e+04
  -3.849961e+05  -4.015447e+05
   1.956392e+05  -4.578767e+05
   2.134552e+05  -2.831728e+05
  -2.712259e+05  -3.647605e+04
  -5.272172e+05   3.338763e+04
  -9.607518e+04  -2.199345e+05
   6.286417e+05  -5.637469e+05
   9.065928e+05  -5.198102e+05
   5.254797e+05   5.131405e+04
  -5.795552e+04   6.502629e+05
  -3.381809e+05   6.556644e+05
  -2.460294e+05   8.511231e+04
  -1.016933e+04  -4.033588e+05
   1.883104e+05  -3.026087e+05
   2.790694e+05   1.768518e+05
   2.017245e+05   4.470856e+05
  -4.561438e+04   2.695194e+05
  -3.017483e+05  -5.610200e+04
  -3.571078e+05  -1.566445e+05
  -1.940149e+05  -2.506075e+04
  -1.690266e+03   5.875703e+04
   7.182698e+04  -8.314693e+04
   8.317619e+04  -3.154125e+05
   1.601940e+05  -3.446839e+05
   2.805717e+05  -4.653174e+04
   2.679207e+05   3.637684e+05
   1.171107e+04   5.057814e+05
  -3.454158e+05   2.181575e+05
  -4.755428e+05  -2.468622e+05
  -1.736960e+05  -4.685009e+05
   3.661093e+05  -2.884391e+05
   6.474780e+05   6.759691e+04
   3.619716e+05   2.844114e+05
  -2.169306e+05   2.665425e+05
  -4.709075e+05   1.291401e+05
  -1.391484e+05   1.230629e+04
   3.428830e+05   4.898930e+02
   3.454132e+05   1.213417e+05
  -1.911299e+05   2.745527e+05
  -6.785804e+05   2.196165e+05
