
 $NMID
 id='ANONYMOUS ', fmtdat='(2E16.6)'
 volume=1.0
 tramp=1.0
 $END
  -1.582989e+03  -4.921553e+02
  -9.183399e+02  -1.450633e+03
   2.918097e+02  -8.932945e+02
   1.154261e+03  -5.181897e+02
   4.280342e+02   1.194734e+01
  -6.891934e+01   1.080065e+02
  -2.100700e+02  -6.292075e+01
  -1.178114e+02  -3.070089e+02
   3.324295e+02  -3.955728e+02
   3.949909e+02  -2.901018e+01
   2.049715e+02   4.214891e+02
  -1.864032e+02   5.329859e+02
  -1.045574e+02   1.281199e+02
  -1.335199e+02  -3.485526e+02
   1.741964e+02  -3.405484e+02
   3.299095e+02  -2.304620e+01
   1.207694e+02   3.061966e+02
  -1.223790e+02   3.199364e+02
  -3.735142e+02   1.644426e+02
  -2.609320e+02  -2.058459e+02
  -9.215225e+01  -2.560612e+02
   1.213512e+02  -1.172634e+02
   1.043606e+02  -1.046631e+02
  -1.178322e+02  -9.552962e+01
  -1.574603e+02  -7.936046e+01
  -3.074303e+01  -2.022975e+02
   2.199807e+02  -1.773566e+02
   3.028992e+02   1.241701e+02
   1.934615e+02   2.290093e+02
  -1.947669e+02   1.287075e+02
  -3.321494e+02  -5.346182e+01
  -5.927223e+01  -2.451938e+02
   1.981506e+02  -2.093746e+02
   2.365242e+02  -1.004226e+02
   1.926270e+02   9.909473e+01
   8.660176e+01   1.914548e+02
  -9.178705e+01   1.095988e+02
  -3.871882e+01  -2.578367e+01
   4.095817e+01  -1.063395e+02
   1.576110e+02  -2.063805e+01
  -2.300085e+01   4.000072e+02
  -1.277888e+02   1.584086e+02
  -2.204386e+02  -9.469786e+00
  -4.957218e+01  -2.417945e+02
   9.918262e+01  -9.751133e+01
   1.307892e+02   1.672521e+02
  -6.155262e+01   2.453647e+02
  -3.268183e+02  -2.808258e+01
  -2.112365e+02  -2.241723e+02
  -4.433794e+01  -2.213302e+02
   1.658208e+02  -1.305474e+02
   2.596163e+02   7.585452e+01
   1.711994e+02   1.152230e+02
  -5.214847e+01   1.533910e+02
  -2.124568e+02  -1.717463e+01
  -1.316914e+02  -9.975084e+00
   1.648875e+01  -3.628309e+01
   6.013477e+01   1.061516e+01
  -7.981448e+01   3.739585e+00
  -1.351052e+02  -4.509746e+01
  -9.457999e+01  -1.233027e+02
   1.120783e+02  -1.529341e+02
   2.377347e+02  -6.384142e+01
   1.573734e+02   6.817610e+01
  -9.250781e+01   9.923808e+01
  -1.504485e+02   2.301604e+02
  -2.610153e+02   1.177584e+02
  -1.168798e+02  -1.198490e+02
  -3.565691e+01  -2.339890e+02
   1.408480e+01  -1.202363e+02
   8.225717e+00  -8.245286e+01
  -1.572074e-01  -5.339564e+01
   1.310251e+02  -3.891739e+01
   1.321001e+02  -2.167575e+01
   6.991366e+01   5.862334e+01
   9.099711e+01   1.573880e+02
  -5.709128e+01   1.508228e+02
  -1.212892e+02  -1.873310e+01
  -1.012691e+02  -1.216602e+02
   4.218294e+01  -1.604033e+02
   1.939089e+02  -2.949962e+01
   1.474636e+02   8.151848e+01
   1.008197e+02   1.965348e+02
  -3.809363e+01   1.397283e+02
  -1.361666e+02   9.081537e+01
  -9.164988e+01   2.697157e+01
  -8.827436e+01   5.066165e+01
  -1.469354e+02  -8.786680e+00
  -1.577075e+02  -7.626768e+01
  -1.245266e+02  -2.118149e+02
  -1.328650e+01  -2.050114e+02
   2.028077e+02  -1.850790e+02
   2.814035e+02  -1.296784e+02
   1.668126e+02   1.113201e+02
   5.524197e+01   1.663109e+02
  -2.172849e+01   1.598922e+02
   1.678250e+01   8.969882e+01
   6.095506e+01  -2.847302e+00
   1.382077e+02   3.843581e-01
  -4.974561e+00   1.126104e+02
  -1.193557e+02   8.665157e+01
  -6.365678e+01  -2.993388e+01
   1.756695e+00  -4.305081e+01
   1.035187e+02  -2.968467e+01
   6.495938e+01   9.831422e+01
  -6.410944e+01   1.883931e+02
  -9.569966e+01   9.054936e+01
  -1.759256e+02  -2.769830e+01
  -1.102842e+02  -2.229799e+02
  -5.972725e+01  -1.367895e+02
   6.283640e+01  -1.828595e+01
   7.341210e+01  -2.119813e+01
  -2.283403e+01  -1.357480e+00
  -1.733601e+01  -4.034108e+01
  -2.066387e+01  -4.813636e+01
   1.102988e+02  -2.576711e+01
   3.735188e+01   4.535916e+01
   2.490396e+01   5.937905e+01
  -3.622309e+01  -1.504187e+01
  -3.589366e+01  -3.295035e+01
   7.204687e+01  -7.944120e+01
   1.113303e+02   3.521203e+01
   1.066138e+02   1.069618e+02
   5.158687e+00   1.560169e+02
  -1.655510e+02   1.213264e+02
  -1.126983e+02   4.345199e+01
  -1.172658e+02  -3.453974e+01
   2.605708e+01  -3.129267e+01
   4.096298e+01   5.827629e+00
  -1.867199e+01   4.985897e+01
  -9.415836e+01  -6.473171e+00
  -8.489663e+01  -9.688787e+01
  -4.049669e+01  -7.029070e+01
   4.879350e+01  -7.007982e+01
   8.506101e+01   1.534978e+01
   3.504058e+01   3.169052e+01
  -1.616904e+00  -1.003535e+01
   5.205141e-01  -3.176084e+01
   5.654070e+01  -4.610318e+01
   7.206156e+01   2.544069e+01
   8.757978e+01   4.853730e+01
  -1.521503e+01   1.404559e+02
  -8.530240e+01   6.396224e+01
  -1.135250e+02   4.512400e+01
  -6.487213e+01  -4.601735e+01
  -1.958740e+01  -5.432860e+01
   4.398305e+01  -4.828227e+00
  -2.006613e+01   1.889193e+01
  -1.002326e+01   2.246603e+01
   8.266759e+01  -6.482335e+00
   4.347243e+01  -3.959351e+01
   5.870977e+01   6.491367e+01
   1.831453e+01   1.632298e+02
  -9.796440e+01   6.363204e+01
  -1.538497e+02   9.048962e+00
  -1.040446e+02  -1.888521e+02
  -3.961100e+01  -1.773169e+02
   9.050792e+01  -7.093059e+01
   2.520506e+01  -3.151898e+01
   2.672343e+01   2.838117e+01
   3.446309e+01  -2.183593e+01
   1.973435e+01   1.799417e+01
   3.221503e+01   1.371177e+01
   2.150952e+01   5.738374e+01
  -9.394390e+00   5.281208e+01
  -7.371498e+01   2.121227e+01
  -4.544790e+01  -5.701692e+01
   9.598634e+00  -1.289516e+02
   4.376272e+01  -6.563376e+01
   1.622601e+02   6.686909e+01
   5.004837e+01   5.911678e+01
  -4.546051e+01   9.605138e+01
  -1.533754e+02   5.544576e+01
  -1.079987e+02  -7.431301e+01
   1.549727e+01  -1.122817e+02
  -8.674916e+00  -5.606308e+01
   4.110810e+01  -7.284096e+01
   1.403426e+01  -4.481048e+01
   8.264128e+01  -8.918570e+01
   7.600601e+01  -1.834972e+01
   1.212723e+02   7.018322e+00
   7.231471e+01   6.980223e+01
  -1.209372e+00   1.413160e+02
  -6.204959e+00   9.008798e+01
  -8.155604e+01  -2.140140e+01
  -5.749330e+01  -6.966401e+01
   6.414822e+00  -8.263854e+01
   2.660206e+01   1.720894e+00
   6.559460e+01   1.108270e+01
   2.888980e+01   3.209069e+01
  -8.421298e+01   2.032841e+01
   7.356063e+00   1.950883e+01
   2.420671e+01  -7.445245e+00
   1.716964e+01   5.750780e+01
  -5.958563e+01   1.589883e+00
  -2.620770e+01   2.074580e+01
  -6.687473e+01  -3.446422e+01
  -3.003181e+01  -4.765250e+01
   7.635419e+01  -4.314601e+01
   9.574992e+01  -2.713790e+00
  -6.009215e-01   7.205988e+00
  -5.086817e+01   5.817575e+01
  -3.168699e+01  -5.467932e+00
  -5.698169e+01  -6.087151e+01
   5.757848e+01  -1.427008e+01
  -7.798414e+00   1.318994e+00
   3.343163e+01   8.777788e+01
   3.157097e+01   5.491757e+01
   2.688044e+01   1.592173e+01
   3.734585e+00   9.968079e+00
   4.087112e+01   4.434671e+01
  -3.802390e+01   3.791386e+01
  -5.887606e+01   7.956258e+01
  -1.500036e+02   9.862740e+00
  -7.940852e+01  -5.494376e+01
  -2.341860e+01  -8.433051e+01
   4.768357e+01  -1.598053e+01
   1.139491e+01   2.302402e+01
  -6.801671e+01  -1.386386e+01
  -7.313342e+01  -2.831360e+01
  -2.070759e+01  -3.518330e+01
   4.695411e+01   5.630086e+00
   9.279407e+01  -4.648479e+01
   1.200764e+02   4.052181e+01
   2.204775e+01   6.142030e+01
  -9.188658e+00   1.157534e+01
  -2.884146e+01  -9.760829e+00
   4.671879e+01  -2.385499e+01
   5.887710e+01   9.965444e+00
   4.700451e+01   1.042676e+02
  -5.589392e+01   7.819025e+01
  -8.538034e+01   4.005927e+01
  -4.293187e+01  -7.833164e+01
   4.247674e+01  -8.672040e+01
   2.674467e+01  -4.445551e+01
   5.706273e+01   3.329040e+00
  -1.904856e+01   6.723271e+01
   3.997460e+00   2.090935e+01
  -5.946359e+01  -2.407965e+01
  -2.728115e+01   3.997229e+00
  -4.887895e+00  -4.255713e-01
  -4.240778e+00   3.645697e+00
  -3.238731e+01  -2.501822e+01
  -4.570162e+01  -5.652151e+01
   1.989394e+01  -6.654529e+01
   1.786807e+01  -2.880518e+01
   5.760169e+01  -3.460557e+01
   1.139050e+02   8.166815e+01
   1.317209e+01  -6.514260e+00
  -5.507979e+01   6.164924e+00
  -7.904099e+01  -4.075864e+00
   3.903914e+01  -3.697718e+01
   7.904904e+01  -5.164972e+00
   5.537536e+01   1.614669e+00
   1.955651e+01   6.704806e+00
  -3.099931e+00   6.992647e+01
   3.877926e+01   1.294520e+00
   5.741830e+01   4.793603e+01
   1.820732e+01   7.416223e+01
  -7.847847e+01   1.220334e+02
  -1.210829e+02   3.381927e+01
  -1.053938e+02  -4.136807e+00
  -1.219635e+00  -1.085854e+02
   5.302779e+01  -1.182534e+02
   8.985102e+01  -6.360287e+01
   8.378991e+01   2.893078e+01
  -1.229313e+01   7.366996e+01
   9.530999e-01   2.048043e+01
  -9.694839e+00   2.352090e+01
  -1.203040e+01   2.181926e+01
   1.290034e+01   9.603693e+01
   3.524570e+01   5.403410e+01
  -3.690220e+01  -2.314853e+01
  -3.096628e+01  -3.747666e+01
   1.904848e+01  -9.015142e+01
   3.483107e+01   7.716098e+00
   3.090295e+01   5.639553e+00
   3.401449e+00   2.845458e+01
  -6.623329e+01   6.869126e+00
  -4.355897e+01   5.650352e+00
  -4.199353e+01  -3.317014e+01
   6.647748e+00  -9.445441e+01
   1.405020e+01  -3.168575e+01
  -3.835075e+01   2.827206e+01
  -3.123437e+01  -1.971814e+01
   4.374836e+00   3.296911e+00
   4.625086e+01  -5.514567e+01
   1.136331e+02  -8.309604e+00
   4.479228e+01   1.417712e+01
  -8.517642e+00   4.008963e+01
  -9.755809e+01   5.478653e+01
  -4.496582e+01  -1.460153e+00
  -3.632740e+01  -2.166105e+01
   2.190510e+01  -3.280188e+01
   3.282514e+01  -1.426243e-01
   2.293912e+01   4.692540e+01
   2.213865e+01   2.600504e+01
  -3.237820e+01  -2.235781e+01
  -4.457422e+01  -2.966253e+01
   1.165047e+01   3.748063e+01
  -2.116179e+00   1.990929e+01
   1.338997e+01   3.565895e+01
   4.071637e+00  -5.217182e+01
   5.138681e+00  -5.957365e+01
   3.064815e+01   5.747251e+00
   5.148486e+01   6.703786e+01
   5.975643e+00   7.619255e+00
  -2.181702e+01  -1.731231e+01
  -1.283374e+01  -4.231419e+01
   2.078201e+01  -2.273410e+01
   5.494308e+01  -1.118361e+01
   7.808802e+01   1.442461e+01
   2.212859e+01   1.074852e+01
  -3.270148e+01   6.719834e+01
  -3.035052e+01   6.023855e+00
  -6.943595e+01  -6.599020e+00
   3.209064e+01  -3.207694e+01
   4.141656e+01   4.464356e+01
   1.489529e+01   4.999363e+01
  -4.655094e+01   3.050782e+01
