
 $NMID
 id='ANONYMOUS ', fmtdat='(2E16.6)'
 volume=1.0
 tramp=1.0
 $END
   1.744263e+03   5.271719e+01
   1.400882e+03   1.337905e+03
  -2.186423e+02   1.155818e+03
  -8.737902e+02   7.348478e+02
  -3.671466e+02   1.271121e+02
  -1.187220e+02  -1.125431e+02
   1.835249e+02  -3.890767e+01
   1.419796e+02   1.651800e+02
  -3.119223e+02   3.345864e+02
  -3.717877e+02  -3.644620e+01
  -3.151057e+02  -3.192418e+02
   1.356828e+02  -4.115100e+02
   7.968689e+01  -2.002383e+02
   1.590657e+02   2.237330e+02
  -6.563137e+01   4.099168e+02
  -3.367835e+02   2.326479e+01
  -2.485056e+02  -2.235719e+02
   4.461227e+01  -4.345508e+02
   3.916840e+02  -1.351399e+02
   2.886854e+02   1.485699e+02
   8.270744e+01   2.531657e+02
  -8.630880e+01   1.182979e+02
  -1.127054e+02   1.055527e+02
   8.886794e+01   1.068005e+02
   1.709274e+02   1.705452e+02
   7.612849e+01   1.950606e+02
  -2.614014e+02   1.928188e+02
  -3.661770e+02  -3.815142e+01
  -2.121171e+02  -1.885275e+02
   2.160791e+02  -1.382380e+02
   2.228228e+02  -3.695242e+01
   1.200186e+02   1.962157e+02
  -1.724481e+02   2.276488e+02
  -3.079885e+02   1.139903e+02
  -2.246662e+02  -4.208069e+01
  -2.243629e+01  -1.596872e+02
   3.411176e+01  -1.627231e+02
  -4.185136e+01   2.829769e+01
  -1.561183e+01   2.767117e+01
  -3.863832e+01  -5.902134e+01
  -9.825484e+01  -3.129941e+02
   1.301696e+02  -2.572430e+02
   2.005848e+02  -3.131811e+01
   4.694783e+01   2.869485e+02
  -3.806223e+01   6.501289e+01
  -1.389140e+02  -1.544884e+02
   4.430120e+01  -2.403913e+02
   2.413667e+02  -4.816120e+01
   2.478882e+02   1.291938e+02
   1.092566e+02   2.214505e+02
  -1.163624e+02   2.028137e+02
  -2.837091e+02   3.867504e+01
  -2.364879e+02  -1.109130e+02
   8.774536e+01  -1.196218e+02
   2.102117e+02  -3.338329e+01
   7.598971e+01  -1.079421e+00
  -9.443894e+00   3.745401e+01
  -9.914124e+00  -5.088543e+01
   9.673193e+01  -3.950224e+01
   1.932097e+02   2.267026e+01
   9.057099e+01   1.568642e+02
  -6.105308e+01   1.540428e+02
  -2.252077e+02   6.343598e+01
  -2.039640e+02  -9.592647e+01
   4.067978e+01  -1.800323e+02
   2.183959e+02  -2.072379e+02
   2.579217e+02  -8.652699e+01
   1.691442e+02   9.921663e+01
   7.882938e+01   2.256523e+02
   4.450827e+01   1.779323e+02
  -9.406472e+00   8.302904e+01
  -3.512081e+01   5.310849e+01
  -4.152785e+01   7.516155e+01
  -1.130333e+02  -2.237691e+01
  -1.254107e+02  -9.920731e+01
  -4.224432e+01  -1.646228e+02
   6.654890e+01  -1.076822e+02
   1.171683e+02   2.112039e+01
   6.862238e+01   1.518423e+02
  -1.963881e+01   1.591613e+02
  -1.928714e+02   3.020553e+01
  -1.502087e+02  -2.144170e+01
  -8.740890e+01  -1.768033e+02
   5.864739e+00  -1.349088e+02
   8.775389e+01  -5.794226e+01
   1.167542e+02   9.391800e+00
   1.088651e+02  -6.557611e+01
   1.575243e+02   1.941459e+00
   1.647181e+02   9.824761e+00
   1.255164e+02   1.848054e+02
   2.260996e+01   2.142839e+02
  -2.400561e+02   2.173115e+02
  -2.124196e+02   8.991176e+01
  -1.850862e+02  -1.131162e+02
  -7.055701e-01  -1.488172e+02
   4.265523e+01  -8.362059e+01
   1.849125e+01  -7.635937e+01
  -5.123534e+01  -4.244700e+00
  -7.504173e+01  -2.809783e+01
  -1.890070e+01  -1.161533e+02
   7.996970e+01  -3.925150e+01
   7.904826e+01   4.226023e+01
   1.177033e+01   8.024106e+01
  -1.685765e+02   2.585470e+01
  -1.001200e+02  -1.004481e+02
   4.101133e+00  -1.663607e+02
   1.052455e+02  -1.572432e+02
   2.421392e+02   2.417424e+01
   1.271072e+02   1.970078e+02
   2.243191e+01   1.445875e+02
  -8.613864e+01   1.112776e+02
  -5.728207e+01  -1.458878e+00
  -4.340222e+01  -7.589474e+00
   1.806363e+01   3.259394e+01
   6.191019e+00   2.663695e+01
  -6.119790e+01   5.097912e+01
  -3.096931e+01   1.210491e+01
   1.260235e+01  -2.566221e+01
   4.652583e+01  -3.093758e+01
   3.939777e+01   5.961320e+01
  -6.625618e+01   6.641734e+01
  -1.297114e+02   3.230697e+00
  -1.040604e+02  -8.004489e+01
   1.281509e+00  -1.595181e+02
   1.175946e+02  -1.100419e+02
   1.649841e+02  -7.876459e+01
   1.033814e+02   5.293078e+01
  -1.201761e+00  -1.753601e+01
  -1.674406e+01  -4.991022e+00
   6.221634e+01  -2.013412e+01
   1.131862e+02   1.348330e+01
   1.167896e+02   7.467813e+01
   6.346988e+01   1.061859e+02
  -4.227242e+01   1.460710e+02
  -4.358844e+01   8.658256e+00
  -3.882535e+01   8.651801e+00
   2.409223e+01  -4.463881e+00
   2.481178e+01   5.589016e+01
  -4.621082e+01   5.565155e+01
  -9.118187e+01   2.205383e+01
  -1.352026e+02  -6.732865e+01
   5.786595e+00  -8.144289e+01
   1.044920e+02  -6.576863e+01
   8.256959e+01  -2.898469e+01
   6.192309e+01   9.246452e+01
  -9.012129e+01   7.460529e+01
  -4.838486e+01   5.337209e+00
  -9.516772e+00  -1.195691e+01
   3.699536e+01   2.758962e+01
   2.867961e+01   2.211802e+01
  -5.160302e+01   8.541585e+00
  -6.714099e+01  -4.323367e+01
  -3.269948e+00  -1.107471e+02
   8.732276e+01  -1.200180e+02
   1.273246e+02   9.335849e+00
   1.381975e+02   1.435737e+02
   4.297481e+01   1.222315e+02
  -1.202375e+02   8.533409e+01
  -7.402318e+01  -1.930991e+00
  -5.410192e+01  -6.895188e+00
  -2.051859e+01  -5.655742e+01
  -2.302207e+01  -2.394520e+00
  -5.162733e+01  -1.819507e+01
  -5.300783e+01   4.300192e+00
   3.484890e+01  -3.274158e+01
   4.129639e+01  -2.095589e+01
   6.611883e+01   5.798048e+01
   1.522267e+01   1.080118e+02
  -3.238769e+01   4.831297e+01
  -1.000735e+02  -6.233534e+01
  -4.721248e+01  -1.008104e+02
   5.442307e+01  -1.047738e+02
   1.617091e+02  -6.640212e+01
   1.271349e+02   5.586497e+01
   6.134649e+01   1.167062e+02
  -3.649494e+00   3.528702e+01
  -7.678669e+00   5.192009e+01
  -1.950644e+01   6.569162e+01
  -6.337614e+01   4.676244e+01
  -4.333606e+01   3.382566e+01
  -8.371967e+01   2.008666e+01
  -6.276355e+00  -1.204158e+02
  -1.341141e+01  -1.571518e+02
   9.207025e+01  -8.006648e+01
   1.319340e+02  -4.518714e+00
   4.594329e+01   8.179535e+01
  -1.629991e+01   1.130578e+02
  -4.810959e+01   9.016630e+00
  -4.701775e+01   6.613366e+00
   3.755920e+00  -4.650270e+01
   3.914396e+01  -1.093579e+01
  -5.610084e+00  -2.755630e-01
  -5.126481e+01  -2.597329e+00
  -6.063267e+00  -2.008255e+01
   6.725197e+01  -5.394505e+00
   9.780356e+01  -9.461164e-01
   5.761094e+01   3.506734e+01
   1.665154e+00   1.013247e+02
  -1.002308e+02   4.945929e+01
  -1.023586e+02   1.027969e+01
  -5.713325e+00  -1.096744e+01
   2.315072e+01   1.569643e+01
   9.058223e+01   2.010852e+01
   3.383736e+01   7.950431e+01
  -2.412859e+01   3.822040e+01
  -4.187413e+01   1.721191e+01
  -4.666638e+01  -3.465186e+01
  -2.106559e+01  -1.394194e+01
  -4.843992e+01   1.504302e+01
  -3.523294e+01   1.028235e+00
  -4.022230e+01  -2.880136e+01
  -1.527430e+01  -9.169929e+01
   9.432642e+01  -5.404685e+01
   1.243565e+02   2.977481e+01
   5.891171e+01   6.888770e+01
  -2.141265e+01   6.760839e+01
  -8.403549e+01   2.993138e+01
  -3.463639e+01   9.618461e+00
  -1.349348e+01  -9.726180e+00
   6.581068e+01   2.689499e+01
   4.664032e+01   6.201269e+01
  -9.446304e+01   7.764556e+01
  -8.540303e+01  -8.766736e-01
  -4.805949e+01  -2.611393e+01
   8.381338e+00  -6.015491e+01
   5.481948e+01  -7.818540e+01
   1.357961e+01   1.971616e+01
  -3.394050e+01   2.319129e+01
  -9.100528e+00  -3.052962e+01
  -4.079218e+01  -7.462494e+01
   9.369114e+01  -1.582383e+02
   1.363612e+02  -6.805308e+01
   6.447990e+01   6.571695e+01
  -1.140281e+01   1.377245e+02
  -8.496837e+01   2.531828e+01
  -3.222937e+01  -2.208533e+01
  -3.691106e+00  -1.082111e+02
   2.957484e+01  -5.906779e+01
   2.476745e+01   1.200798e+01
   3.061416e+00   3.450127e+01
   2.615562e+01   3.844968e+01
   9.639238e+00  -3.511583e+01
   4.630184e+01   3.956804e+01
   4.158731e+01   3.022709e+01
   7.492210e+01   3.962935e+01
  -4.220082e+01   7.335174e+01
  -4.767983e+01   7.771612e+00
  -4.083232e+01  -4.869454e+01
   2.991323e+01  -1.527825e+01
   1.920817e+01  -2.925678e+01
   2.865172e+01   9.208628e+00
  -4.277022e+00   8.735072e+00
  -2.550371e+01   4.120747e+01
   3.858459e+01  -1.230059e+01
   6.776096e+00  -4.331685e+01
   3.496252e+00   7.987490e-01
  -3.997773e+01   6.099059e+00
  -3.308222e+01  -4.101805e+01
  -1.510706e+01  -4.045307e+01
   9.013137e+01  -1.000677e+02
   1.423462e+02  -4.141844e+01
   1.062388e+02  -4.510500e+01
  -1.465090e+00   6.509685e+01
  -1.626982e+01   1.251658e+02
  -7.165206e+01   3.362663e+01
  -3.860008e+01  -3.130226e+01
  -2.959690e+01  -2.841874e+01
   2.548340e+01  -2.473644e+01
  -1.545844e+01  -1.468154e+01
   2.131886e+01  -4.776088e+01
  -1.029344e+00  -6.716246e+01
   8.882284e+00  -3.973614e+01
   7.131056e+01  -4.631015e+01
   9.191657e+01   6.636262e+01
   3.038178e+00   4.238777e+01
   1.019547e+01   5.943679e+00
  -2.207575e+01   2.269855e+01
   6.111100e+01  -4.866051e+01
   3.594860e+01  -4.230914e+01
   9.809148e+01  -5.389881e+00
   5.006543e+01   8.233853e+01
  -1.123371e+00   6.671305e+01
  -4.486191e+01   2.798526e+01
   2.701572e+01   3.399183e+00
   4.101193e+01  -1.564252e+01
  -9.235872e-02   3.265224e+00
  -6.859505e+00   3.129448e+01
  -2.649819e-01   8.188002e+01
  -2.624132e+00   1.398945e+01
  -6.905755e+00  -3.563193e+01
   2.952624e+01  -5.680080e+01
   2.287665e+01  -5.214233e+01
  -8.375861e+00   1.754126e+01
  -9.667587e+00   4.318620e+01
  -5.308917e+01   4.649871e+01
   4.085341e+00  -1.894624e+01
  -3.689382e+01  -5.142072e+00
   7.107210e-01  -4.388401e+01
   1.557416e+01   5.303656e+00
   2.389355e+01   1.438746e+01
  -1.572003e+01  -3.731081e+01
  -4.422313e-01   2.868814e+01
   3.754469e+01   3.971158e+01
   8.103787e+00   3.564344e+01
  -5.040755e+01   3.812987e-01
  -3.444934e+01  -1.003939e+01
   4.894740e+01  -5.348904e+01
   2.332691e+00  -7.423459e+00
   7.604109e+00   2.030759e+01
   1.279495e+00   4.189604e+01
  -4.767611e+01   3.280851e+01
  -6.661198e+01  -2.182308e+01
  -2.791675e+01  -7.725577e+00
  -9.563501e+00  -1.289244e+01
   2.853656e+01  -2.722692e+01
   3.146490e+01  -4.314955e+00
  -1.687547e+01  -4.554414e+01
  -2.929802e+01   1.844094e+00
  -1.517335e+01  -1.442336e+01
   3.919836e+01   4.688505e+00
