
 $NMID
 id='ANONYMOUS ', fmtdat='(2E16.6)'
 volume=1.0
 tramp=1.0
 $END
   7.726751e+02  -5.184396e+02
   6.878959e+02   7.588775e+02
   1.211101e+02   2.711401e+02
  -1.471043e+02   4.115179e+02
  -1.663558e+02  -6.039822e+01
  -3.044372e+02  -1.988440e+02
   1.026339e+02  -1.019938e+02
   2.212298e+02   1.133665e+02
  -1.486100e+02   1.723595e+02
  -2.025949e+02  -4.327463e+01
  -2.026955e+02   1.540600e+00
   1.979559e+02  -1.110059e+02
   9.130757e-01  -1.234642e+02
   1.954920e+02   1.094488e+02
  -3.387234e+01   1.066574e+02
  -4.470015e+01   1.259522e+02
  -1.486202e+02   1.556603e+01
  -4.212538e+01  -2.200267e+02
   1.466051e+02  -4.733537e+01
   1.446388e+02  -2.176676e+01
   4.104719e+01   9.628730e+01
  -2.416921e+01   7.611521e+01
  -1.536183e+01   1.837518e+01
   1.971233e+01   7.276498e+01
   1.287959e+02  -1.120619e+01
   2.239708e+00   1.599519e+01
  -5.690454e+01   6.465012e+01
  -2.209867e+01   4.634567e+01
  -1.556929e+02   6.703852e+00
   4.779764e+01  -4.449257e+01
   5.918199e+00  -3.868690e+01
   6.240483e+01   9.984004e+01
  -6.872881e+01   9.619535e+01
  -1.150626e+02   7.100130e+01
  -3.363833e+01   1.418311e+01
   5.764131e+01  -5.495888e+01
   1.492992e+01  -8.231280e+01
   8.503958e+00  -6.906358e+01
   7.404650e+01   2.376697e+01
  -3.207556e+01   1.987707e+01
  -8.776356e+01  -1.403024e+02
   9.169627e+01  -1.271556e+02
  -3.038457e+01  -8.394762e+01
   1.117036e+02  -5.834507e+01
   3.885737e+01   5.980877e+00
  -7.270308e+01  -6.018081e+01
   1.738628e+01  -6.950520e+01
   9.827320e+01  -5.835680e+01
   1.111162e+02   5.124340e+01
   3.270376e+01   6.316130e+01
  -2.766136e+01   1.192760e+02
  -9.571978e+01  -3.339552e+01
  -8.718502e+01  -1.029188e+02
   5.756736e-01  -2.174305e+01
   6.625607e+01  -7.730392e+01
   5.957947e+01   4.915497e+00
   1.213057e+01   2.780011e+01
   6.278415e+00   4.273111e+01
   4.506337e+01  -5.276667e+01
   4.016002e+01  -1.076858e+01
   5.235023e+01   7.125757e+01
   2.598668e+01   1.049227e+02
  -6.468355e+01   5.512045e+01
  -2.613622e+01   2.508689e+01
  -2.067982e+01  -1.124278e+02
   9.113429e+01  -9.094277e+01
   1.056697e+02  -9.028413e+00
   6.169088e+01  -2.247591e+01
   4.574471e+01   9.762850e+01
   4.144488e+01   6.574791e+01
   4.660241e+01   2.782594e+01
   1.889712e+01  -2.698094e+01
  -4.735722e+01   1.140548e+01
  -3.107505e+01   1.371712e+01
  -3.589198e+01  -4.136285e+01
  -1.533745e+01  -1.596002e+01
   7.105162e+00  -4.503595e+01
   4.732788e+01   2.597145e+01
   2.675060e+01   3.695778e+01
  -4.707015e+01   6.497621e+01
  -5.241043e+01   1.876865e+00
  -7.156172e+00   6.218300e+01
  -7.338471e+01  -7.488308e+01
   1.743561e+01  -4.251196e+01
   3.723844e+01  -4.746112e+01
   8.179728e+01  -7.635719e+01
  -1.797222e+01  -1.397601e+01
   3.593448e+01  -1.755271e+01
   7.003011e+01   6.571481e+01
   2.841375e+01   1.932807e+01
   7.677046e+01   3.935093e+01
  -1.107362e+01   6.903224e+01
  -5.770663e+01   1.542141e+01
  -4.789104e+01  -7.366631e+01
  -1.472308e+01  -8.407397e+01
  -1.535169e+01  -4.921417e+01
  -1.590702e+01  -2.428944e+01
  -2.292668e+01  -1.410410e+01
   9.675957e+00   3.638267e+01
  -3.753016e+01  -4.264763e+01
  -7.915648e+00   3.254431e+00
   4.405639e+01  -8.989185e+00
   3.650917e+01   4.348045e+01
  -1.089569e+01   2.462459e+01
  -6.670329e+01  -1.438709e+00
   2.005727e+01  -9.689759e+01
  -4.261726e+01  -5.121133e+01
   8.082603e+01   6.231532e+01
   4.994539e+01   6.099775e+00
  -2.846529e+01   3.008049e+01
  -2.233469e+01   2.076249e+00
  -6.007960e+01   4.110732e+01
   2.280858e+01   9.880625e+00
   8.430030e+00  -6.177594e+00
   8.037099e+00   1.310164e+01
  -8.331977e+00   3.719413e+01
   1.278202e+01  -1.136671e+01
   2.917515e+01   4.042301e+00
  -1.353975e+01  -2.845780e+01
  -9.246822e+00   4.510316e+01
  -2.930602e+01   6.063650e+01
  -1.060608e+02   1.663863e+01
  -1.014299e+02  -1.326710e+01
  -3.308747e+01  -6.658489e+01
   1.047778e+01  -6.623575e+01
  -8.723846e+00  -9.659332e+01
   6.085555e+01  -2.380194e+00
   1.263044e+01   5.919624e+00
  -1.887195e+01  -3.145256e+01
  -3.335501e+01  -3.851405e+01
   1.504688e+01  -1.081324e+00
   6.832520e+01   2.418652e+01
   3.140810e+01   5.760742e+01
  -3.772625e+01   9.330856e+01
  -6.507845e+01   3.164534e+01
  -1.015223e+00  -1.946745e+01
  -2.354360e+01   2.058761e+01
  -1.025897e+01   4.193393e+01
  -9.075788e+00  -2.626136e+01
  -3.098442e+01  -5.822350e+00
  -4.967404e+01   5.884676e+01
   1.403500e+01  -1.511749e+01
   6.147612e+01  -1.270393e+01
   5.633005e+00  -7.810538e+00
   6.653645e+00   6.693289e+00
   3.636053e+00   2.343749e+01
  -9.172144e+00   5.994403e+00
   1.689236e+00   5.337241e+00
   9.560637e+00   2.633775e+01
  -1.940856e+01   3.490046e+01
  -6.716363e+01  -5.863499e+00
  -3.564120e+01  -3.112473e+01
   1.389373e+01  -3.400485e+01
   2.038154e+01   1.581948e+01
   3.734543e+01  -1.426536e+01
   3.769548e+01   2.922731e+01
   3.980526e+01   5.537880e+00
  -3.107589e+01   6.467623e+01
   7.574215e+00   9.864669e+00
  -1.617150e+01   4.013839e+01
  -5.298362e+01  -8.120400e+00
  -4.128343e+01   4.847178e+01
  -2.616462e-01   5.250806e+00
  -3.269737e+00  -4.255224e+01
   1.285302e+01  -5.829355e+00
   1.639450e+01   4.878538e+01
  -1.347676e+01   2.701936e+01
   3.550752e+01   1.893031e+01
  -2.754546e+01   1.012570e+01
  -4.793189e+01  -6.109940e+01
   1.524640e+01  -5.370049e+01
  -3.878947e-01  -6.695439e+01
   5.961832e+01  -6.599483e+01
   2.307938e+01  -1.173534e+01
   3.919543e+01   7.506246e+01
  -1.626151e+00   5.091876e+01
   4.805069e+00   3.053603e+01
  -3.565766e+01   3.694652e+00
   2.589186e+01   5.776846e+01
  -4.154840e+01   3.606718e+01
  -4.104085e+01   3.339065e+01
  -2.242535e+01  -4.219838e+01
  -3.160702e+01  -4.061387e+01
   2.068427e+01  -7.808191e+00
  -2.510918e+01   1.850126e+01
   4.826811e+01   1.807280e+01
   2.010944e+00   1.610743e+01
  -6.294451e+00   3.944632e+01
   3.050577e+01   2.874354e+01
  -1.973206e+01   1.240274e+00
  -7.978644e+00   1.504724e+01
   6.563955e+00   1.796399e+01
  -8.288665e+00  -8.731716e+00
  -2.392227e+01   1.739951e+01
  -2.327410e+00   9.153512e+00
   1.996830e+01  -3.759348e+00
   2.455007e+01   1.673664e+01
  -8.848464e+00   2.531248e+01
  -8.632852e+00   2.225259e+00
  -7.505610e+01   3.313127e+00
  -2.032141e+01  -2.204270e+01
  -1.661623e+01  -2.701335e+01
  -1.140620e+01   5.366405e+01
   6.208145e+00   1.081255e+01
  -6.305844e+00  -1.196653e+01
  -3.662393e+01  -4.728755e+00
  -6.296159e+00  -3.816270e+01
  -4.784993e+01   3.638435e+01
  -2.383420e+00  -6.358818e+01
  -8.252116e+00   1.385060e+01
   1.188094e+01   3.225654e+01
  -5.390091e+00  -6.774563e+01
   5.642088e+01  -4.502121e+01
   5.744187e+01   1.667139e+01
   5.643454e+01  -1.337708e+01
  -9.429608e+00   5.067739e+01
  -1.011180e+01   2.343179e+01
  -6.763058e+01   2.385720e+00
  -8.207561e+00   4.057463e+01
  -2.473210e+01  -2.371003e+00
   3.421109e+01  -1.182674e+01
  -2.754216e+01   2.190069e+01
  -9.726529e+01   2.620970e+01
  -1.337879e+01  -1.270368e+01
  -2.336459e+01   1.686740e+01
   1.384101e+01  -4.684702e+01
  -3.138400e+00  -2.110229e+01
  -5.593195e+01   2.294068e+01
  -1.028196e+01   2.700693e+00
  -3.317559e+00  -8.211107e+00
   1.168695e+01  -1.350256e+01
  -6.185524e+00  -7.858661e+01
   2.991246e+01  -1.198474e+01
  -3.548753e+01   1.708251e+01
   4.741328e+01   5.556061e+01
  -3.480684e+01   2.451904e+01
   3.422159e+00  -4.855745e+01
   3.710883e+01  -1.201793e+01
  -5.761812e+01  -2.632925e+01
   5.166151e+00   2.052358e+00
   2.210603e+01   1.238509e+01
  -1.707763e+01  -2.839658e+00
  -4.332919e+01   1.697694e+01
   7.533240e+00  -1.543997e+01
  -4.186985e+00   3.548626e+01
  -4.743081e+01  -3.687652e+01
  -1.015421e+01   1.223543e+01
  -6.172625e+01   2.430648e+01
  -2.727169e+01  -1.319268e+01
   3.315259e+01  -6.185509e+01
  -1.517359e+01   2.792537e+01
  -1.678780e+01  -1.528168e+01
  -2.722616e+01  -1.837288e+01
  -1.636632e+01  -1.232776e+01
  -3.765200e+01  -2.297035e+01
  -4.382548e+00  -1.847464e+01
  -4.350842e+01  -3.548325e+00
  -4.962250e+01   1.717433e+00
  -7.130107e+01   1.432754e+01
   1.534250e+01  -5.240048e+01
   2.310005e+01  -4.290261e+01
   8.642406e+01  -8.698538e+00
   1.074616e+01  -1.525142e+01
  -1.314997e+01   5.074215e+01
   7.838579e+00   3.545566e+01
  -2.227970e+01  -4.573828e-01
  -4.213141e+01  -4.496701e+01
   3.743836e+01   5.065582e+01
   1.878001e+01  -3.238271e+01
   1.182793e+01  -2.784428e+01
   1.507353e+01  -5.053989e+01
  -7.720045e+00  -2.089776e+01
   1.242015e+01   7.651901e+00
   5.058392e+01  -4.612777e+00
   1.307282e+01   4.314175e+01
  -1.442893e+01   2.492584e+00
  -3.783554e+01  -2.684913e+01
  -3.360394e+01  -4.480917e+01
  -5.946840e+00   3.386842e+00
   3.513736e+01   9.969378e+00
   2.120168e+01   9.456056e+00
  -5.530300e+00   1.890147e+01
   4.939503e+00  -2.820446e+00
  -1.989438e+01   1.561237e+01
  -1.677859e+01  -2.806918e+01
   2.976827e+01   1.398689e-01
   8.936997e+00   1.461908e+01
   1.072628e+01   1.649926e+01
  -3.425931e+01   1.424566e+01
  -1.064288e+00  -7.082109e+01
  -6.475308e+00  -1.241181e+01
  -5.345537e+00  -2.938679e+01
  -4.125082e+01  -3.778201e+01
   5.730283e+00   3.175816e+01
  -6.246176e-01  -1.426411e+01
  -1.838674e+01  -1.813076e+01
  -1.944195e+01  -1.003128e+01
   5.524897e+00  -8.407595e+00
  -2.389080e+01   1.735930e-01
  -9.520163e+00   1.949439e+01
  -2.759653e+01  -8.385891e+00
   1.911434e+01   6.468287e+00
  -4.074313e+00   2.926406e+01
   1.743502e+01   2.203258e+01
  -1.623765e+01   6.152917e+01
   1.243005e+01  -2.573669e+01
   6.605106e+00  -5.493583e+01
  -2.218529e+01  -1.958758e+01
   2.991925e+01   2.430643e+01
  -9.028467e-01   2.994398e+01
  -1.269731e+00   1.116866e+01
  -4.095176e+01   1.457731e+01
  -2.881305e+01  -3.189582e+01
   1.192534e+01  -3.283009e+01
   1.027209e+00  -6.239801e+00
   3.136561e+01   3.440180e+01
   7.583516e+00  -1.613897e+01
  -2.986453e+00  -7.311545e+00
  -1.898409e+01   7.098284e-01
  -1.399882e+01  -1.966306e+01
