
 $NMID
 id='ANONYMOUS ', fmtdat='(2E16.6)'
 volume=1.0
 tramp=1.0
 $END
   6.084974e+02  -1.342681e+02
   2.515403e+02   6.315488e+02
   4.715561e+01   2.370031e+02
  -1.735290e+02   2.172949e+02
  -1.414716e+02   1.113890e+02
  -2.005931e+02  -9.213240e+01
   7.160436e+01   4.157528e+01
   9.187746e+01   4.440238e+00
  -1.143237e+02   1.083857e+02
  -1.036250e+02   7.580750e+00
  -1.081531e+02  -2.456764e+01
   4.877100e+01   1.563605e+00
  -5.587645e+01  -3.885547e+01
   8.952460e+01  -3.885344e+01
  -2.995418e+01   1.134541e+02
  -9.439112e+00  -5.158922e+01
  -2.193558e+01  -1.779499e+01
  -1.144898e+01  -1.291314e+02
   7.154987e+01   4.151161e+00
   9.564671e+01   1.144332e+01
   5.705479e-01   1.316504e+02
   5.121092e+00   5.199836e+01
   2.135031e+01   6.178106e+01
  -5.223030e+01   8.442033e+00
   6.741405e+01   9.165033e+01
  -4.743245e+01   6.867364e+01
  -3.352629e+01   4.129528e+01
  -6.990266e+01   1.157902e+02
  -5.866620e+01   6.559597e+01
  -2.373393e+00  -5.243811e+01
  -1.731068e+00  -4.523295e+01
   1.611601e-01   4.991773e+01
  -2.272457e+01   8.628372e+01
  -5.869901e+01  -4.240082e+01
  -4.441647e+01   1.879437e+01
  -7.968799e+01   1.275239e+01
   9.752652e+00  -4.292891e+01
  -7.778856e+01   2.123976e+01
   4.194745e+01  -1.036946e+02
   2.733810e-01   1.609499e+01
  -4.584221e+00  -1.091455e+02
  -6.967092e+00  -2.431747e+01
  -3.575048e+01  -2.420728e+01
   5.196405e+01  -9.804130e+00
   9.088617e+01  -1.310040e+00
  -5.517601e+01  -7.405017e+01
  -2.364624e+00  -7.912830e+01
   1.865894e+00  -1.352899e+01
   1.429852e+02   1.091446e+02
   8.159746e+01  -4.783899e+00
   1.222950e+01   8.837897e+01
   2.393056e+01   6.016631e+01
  -4.975101e+01  -2.818269e+01
  -4.996487e+01  -3.642607e+00
   7.536883e+01  -4.000183e+01
   3.514620e+01  -9.298287e+00
   3.359690e+01  -2.594048e+01
  -3.360793e+01   1.416365e+01
   7.166894e+00   1.897857e+01
   3.873766e+01   6.408592e+01
  -3.065711e+01   7.473189e+01
  -2.215885e+01   4.657477e+01
  -4.863824e+01   2.118363e+01
  -4.221519e+01   9.251376e+00
   1.957747e+01  -5.632569e+01
   2.331775e+01  -7.987243e+01
   6.131516e+01   1.496060e+01
   5.908023e+00   3.215742e+01
  -2.567877e+01  -3.442700e+01
   4.129907e+01   4.525606e+01
  -1.678723e+01   3.407632e+01
  -8.370879e+00   1.140207e+01
  -2.870049e+01   8.937589e+00
  -7.004690e+00  -9.095031e+01
  -4.011319e+01  -6.083997e+01
  -2.350974e+01  -2.836879e+01
  -3.194555e+01  -3.928637e+01
   3.415805e+01  -5.120015e+00
  -6.192264e+01   3.902804e+01
  -9.681749e+00   8.846757e+01
  -6.934101e+01  -3.329266e+01
  -1.825985e+01   1.714458e+01
  -6.040052e+01  -4.380976e+01
   1.282786e+00  -4.202217e+01
   3.150505e+01  -4.829906e+01
   7.914514e+01  -8.109972e-01
  -5.399893e-01  -1.640775e+01
   2.594485e+01  -2.778997e+01
   1.232277e+01   1.014664e+02
   5.524439e+01   4.353518e+01
   5.414865e+01   3.415314e+01
   1.798409e+01  -8.051873e-01
  -2.714234e+01  -9.182905e+00
  -1.031412e+01  -1.548167e+01
  -3.898387e+01  -3.361111e+00
  -5.822951e+01  -4.762483e+00
   1.297426e+01   3.228640e+00
  -1.894466e+01  -4.689032e+01
  -1.274966e+01  -3.547732e+01
  -4.668160e+00  -2.186926e+01
   3.600618e+01  -6.023218e+01
  -5.456999e+01  -4.089069e+01
   5.642391e+01   1.995032e+01
  -9.050903e+00   3.155642e+01
  -1.396449e+01   2.723229e+01
   3.686664e+01  -6.991278e+01
  -4.050074e+01  -4.023402e+01
   7.795721e+01   3.337153e+01
   1.636607e+01   6.308293e+01
  -3.074543e+01   9.557730e+00
   9.634412e+00   9.138114e+01
  -4.304890e+01  -6.960093e+00
  -2.244592e+01   3.558459e+01
  -3.463727e+00  -4.151492e+00
  -2.264512e+01  -9.901245e-01
  -4.099970e+00  -2.298363e+01
  -2.881818e+01  -2.731986e+01
  -1.479710e+01   3.694312e-01
   1.456789e+01  -2.648162e+00
  -2.059198e+01   3.944983e+01
  -1.928811e+01   3.623774e+01
  -5.598711e+01   4.624939e+01
   1.008065e+00  -2.915610e+01
  -2.644296e+01  -1.111178e+01
   1.189945e+01  -4.442665e+01
   1.130955e+01  -3.761800e+00
   3.712361e+01   3.241499e+01
   3.412157e+01   2.619916e+01
   4.296461e+01   2.882390e+01
  -5.995320e+00  -1.899394e+01
   4.953171e+01   3.583075e+01
   3.225379e+01  -2.946912e-01
   2.993503e+01   1.472447e+01
  -1.280882e+01   6.234908e+00
  -1.166671e+01  -7.256583e+00
  -3.674263e+01  -8.410166e+00
   3.422393e+00  -2.195554e+01
   3.098571e+01   4.877986e+01
  -2.123816e+01   1.991693e+01
  -5.879908e+01   6.927043e+00
  -4.666436e+01   1.963942e+01
   2.563562e+01   2.428772e+01
   2.548671e+01  -2.247699e+01
  -1.074610e+01  -4.302303e+01
  -7.762033e+00   6.989406e+00
   5.149280e+01  -8.748339e+00
  -3.301729e+01  -1.140743e-01
   3.920928e+01  -9.722224e+00
  -8.612072e-01  -2.926066e+00
  -1.825851e+01   1.034971e+01
  -1.766936e+01  -1.326559e+01
  -3.253746e+01  -1.866733e+01
   4.092019e+01  -1.290607e+00
   3.490023e+01   1.185442e+01
   2.195837e+01  -5.143412e+01
  -1.013395e+01   1.347302e+01
   3.607983e+01   9.574796e-01
  -2.541016e+00   3.655798e+01
  -8.171211e+01   3.026959e+01
  -6.918639e+00   4.346509e+00
  -3.633743e+01  -1.124413e+00
   7.706113e+00   4.346180e+01
  -4.384724e+01  -4.836332e+00
  -1.378176e+00   5.065989e+01
   1.111355e+01   3.043765e+01
   4.381641e+01  -1.474572e+01
   1.088744e+01  -9.007041e+00
  -3.983410e+01  -3.742204e+01
  -4.829772e+01   1.977631e+01
  -4.468813e+00  -1.915405e+01
  -5.107416e-01  -2.318487e+01
   3.955174e+01  -1.574713e+01
   5.735529e+01  -2.086808e+01
  -1.486896e+01  -1.770651e+01
  -3.284487e+01   4.701074e+00
   1.821723e+01   2.938009e+01
   8.555684e+00   2.278106e+01
  -4.674026e+00   3.979276e+01
   3.837450e+01   2.901378e+01
  -5.068675e+01   8.144452e+00
  -2.251278e+01  -1.967901e+01
  -3.623290e+01  -4.751723e+01
  -3.532484e+01  -1.971544e+01
   2.854899e+01  -3.209219e+01
   3.886419e+01  -7.825275e-01
   5.002823e+01  -2.736459e+01
   1.648702e+00   6.693241e+01
  -2.506934e+01   3.051775e+01
  -1.342971e+01  -7.992909e+00
  -3.321408e+01  -1.792209e+00
   1.162343e+01   2.792081e+01
   1.744002e+01   2.552731e+01
   2.617337e+00   9.939528e+00
  -1.566553e+01  -4.129505e+01
  -8.690296e+00  -2.048773e+01
   2.810281e+01  -2.890305e+01
   7.068873e+00  -4.810768e+00
   4.492712e+00   2.638319e+01
   2.869070e+00  -2.257936e+01
  -3.092772e+01  -4.056388e+01
  -4.961043e+01   1.805669e+01
  -1.090535e+01  -2.040614e+01
  -2.881225e+01   2.745145e+01
   1.223441e+01   2.309209e+01
   3.094299e+01  -5.064833e+01
   4.696061e+00   5.330848e+01
  -1.513351e+01  -2.553670e+01
   5.925110e+00   2.317205e+01
   2.564869e+01   2.866496e+01
   4.340650e+01  -3.649802e+01
   2.004579e+01  -1.988078e+01
  -1.232313e+01  -1.332202e+01
   2.125227e+01  -2.958708e+01
  -1.689586e+01  -2.931563e+01
  -7.522216e+00   6.243300e+00
  -1.226867e+01  -1.421417e+01
  -1.304076e+01   2.241632e+01
  -2.188672e+00  -4.129769e+01
   3.708344e+00   3.946650e+01
   4.693002e+00   3.490186e+01
   3.477188e+01  -3.321240e+01
  -1.493185e+01   3.873837e+01
  -4.878358e+01   1.663725e+01
  -1.844864e+01  -2.927773e+01
  -2.037070e+00  -3.579738e+01
   2.352980e+01  -4.644540e+01
   1.816854e+01  -3.443896e+01
   5.662745e-01   7.469576e+00
  -1.115690e+01  -2.251769e+01
   5.501101e+01   1.940048e+01
   4.277015e+00  -4.453111e+01
   5.034291e+01   1.382666e+01
  -1.021933e+01   5.345777e+01
  -3.087228e+01   3.548710e+01
  -5.898112e+00   3.299232e+01
   4.220605e+01   2.287646e+01
  -2.651047e+01  -3.174712e+01
  -1.569219e+01  -2.666327e+01
  -9.834375e-01   4.457880e+00
   1.431690e+01  -5.307214e+00
   3.632185e+01  -2.284062e+01
  -3.109977e+00  -1.191952e+01
  -2.139112e+01  -1.656063e+01
  -7.695099e-01   2.062808e+01
   6.118254e+00  -2.670471e+01
  -2.065496e+01   1.579420e+01
  -2.757566e+01  -1.614790e+01
  -1.649026e+01   7.124220e-01
  -1.205838e+01  -3.874096e+01
   4.708144e+01   1.672608e+01
  -1.281391e+01  -2.487506e+00
  -2.040315e+00   2.890441e+01
   1.314954e+01   1.832399e+01
  -2.075156e+01   5.615588e+00
   6.508837e+00  -3.903250e+01
   8.477009e+00  -2.765073e+01
  -3.395066e+01   3.461020e+01
  -1.026849e+01   1.191821e+00
   1.506860e+00  -2.278371e+01
   4.731424e+00  -2.222269e+01
   3.128395e+01  -3.837828e+01
  -9.685002e+00  -4.482028e+01
   1.266704e+01   2.871545e+01
   1.167757e+01   3.846246e+00
  -2.057465e+01   2.736791e+01
  -5.910989e+01   3.524539e+01
  -1.971872e+01   1.828471e+01
   3.738069e+01   2.858751e+01
   1.602202e+01   3.146636e+01
   1.989183e+01  -2.786605e+01
   5.290334e+01   9.386145e+00
  -2.638227e+01   2.080026e+01
   1.584937e+01  -1.916143e+01
   4.018374e+01  -5.314650e+01
   2.805626e+01   2.299589e+01
   2.426010e+01   9.310862e+00
   2.521396e+00  -1.394371e+01
  -4.068204e+01  -2.441472e+01
   9.291124e-01  -1.490393e+01
   1.765907e+01  -3.128990e+00
  -1.380950e+01   2.718380e+01
  -2.270313e+01   3.674562e+01
  -1.039741e+01   1.613699e+01
   5.971486e+01   7.189806e+00
   2.177194e+01  -1.224034e+01
  -8.453832e+00   2.891638e+00
   2.174758e+01   7.320390e+00
  -5.530495e+00  -3.609443e+01
   1.083809e+01   9.899996e-01
   9.138100e+00  -3.514188e+01
  -2.471345e+01  -6.665445e+00
   8.956045e+00   2.028472e+01
   3.993015e+00  -3.419921e-01
  -7.781373e+00   1.649841e-01
  -1.563770e-01  -1.087145e-01
   3.444436e+01  -7.721816e+01
  -2.570882e+01  -1.606536e+01
  -7.523499e+00  -4.354462e+00
  -2.968318e+01  -2.212450e+01
   9.829634e+00   2.367669e+01
   2.042488e+01  -6.055212e+00
  -9.216117e+00   3.496967e+01
   2.993721e+01   4.876244e+01
   2.185713e+01  -1.745772e+01
  -8.006993e+00  -2.662044e+00
   9.575022e-01  -6.411719e+00
   8.299784e+00  -5.322438e+01
   3.042086e-01   2.365875e+01
  -3.760855e+01   1.955202e+01
   3.977158e+00   1.374487e+01
  -1.954705e+01   5.799555e+01
  -4.885572e+01   8.804774e+00
  -1.972023e+01  -2.483872e+01
   1.996537e+01  -1.096844e+01
   3.878132e+00   2.210366e+01
   1.425042e+01   1.585028e+01
   6.965357e+00  -1.141731e+01
  -1.984080e+01   7.696800e+00
   1.061239e+01  -1.135792e+00
  -1.003055e+01  -3.383434e+01
