
 $NMID
 id='ANONYMOUS ', fmtdat='(2E16.6)'
 volume=1.0
 tramp=1.0
 $END
  -2.041454e+03   1.355953e+02
  -1.279199e+03  -1.230384e+03
  -2.715435e+02  -1.198196e+03
   5.744617e+02  -7.951210e+02
   7.498679e+02  -2.817705e+02
   4.990228e+02   8.127966e+01
  -2.368261e+02  -1.503856e+02
  -3.027939e+01  -2.197813e+02
   3.061954e+02  -9.521608e+01
   3.887494e+02  -2.415194e+02
   3.521109e+02   2.223837e+02
  -3.911248e+01   4.142930e+02
  -3.656643e+01   1.170353e+01
  -8.287300e+01  -2.495210e+02
   4.549266e+01  -3.072832e+02
   2.629179e+02  -4.489547e+01
   3.189683e+02   1.542025e+02
  -2.096652e+01   3.459283e+02
  -3.080836e+02   1.778398e+02
  -3.250114e+02  -9.911006e+01
  -1.484527e+02  -3.030200e+02
   7.110255e+01  -1.418281e+02
   2.487627e+01  -5.999808e+01
  -1.269762e+02  -1.488521e+02
  -2.012151e+02  -2.882832e+02
   1.366399e+02  -3.223352e+02
   2.801225e+02   5.518157e+01
   3.662211e+02   2.315282e+02
  -1.578839e+01   2.049214e+02
  -2.504836e+02   5.999752e+01
  -1.890560e+02  -2.773134e+01
  -6.043569e+01  -3.043173e+02
   2.348804e+02  -1.362895e+02
   2.644695e+02  -5.377582e+00
   1.882022e+02   1.043874e+02
  -4.316161e+01   1.335315e+02
  -8.764302e+00   4.613757e+01
   4.154799e+01  -3.420712e+01
   7.422462e+01  -4.334112e+01
   4.588798e+01   1.152062e+02
  -3.281174e+01   3.020409e+02
  -1.168347e+02   2.209965e+02
  -1.479696e+02   2.946629e+01
  -1.157813e+02  -1.031899e+02
   9.180820e+01  -2.579898e+01
   5.850885e+01   2.325900e+02
  -2.137502e+02   3.045594e+02
  -2.032776e+02   5.347429e+01
  -3.709763e+02  -2.639296e+02
  -1.236518e+02  -3.115655e+02
   2.209706e+02  -1.754457e+02
   2.413237e+02   8.684012e+01
   2.433057e+02   9.715942e+01
   6.770101e+01   1.216556e+02
  -2.002130e+02   2.750360e+01
  -1.049914e+02   6.898741e+01
  -5.180483e+01   7.185927e-01
   1.673846e+00  -3.774570e+01
  -1.224390e+02  -7.509856e+00
  -1.434433e+02  -2.558582e+01
  -6.812439e+01  -9.594313e+01
   5.851955e+01  -1.414620e+02
   2.112505e+02  -1.434524e+02
   1.844199e+02   8.276539e+01
   6.843841e+01   2.825950e+02
  -2.386580e+02   3.464019e+02
  -3.446035e+02   1.457051e+02
  -1.060393e+02  -1.769300e+02
   3.094862e+00  -3.302898e+02
  -6.327514e+00  -2.025153e+02
   1.246724e+01  -1.192964e+02
   2.226492e+01  -1.060185e+02
   1.452044e+02  -7.125406e+01
   1.734707e+02   1.232798e+00
   1.416256e+02   3.383634e+01
   7.879999e+01   1.597587e+02
  -9.513268e+01   9.737378e+01
  -1.125569e+02  -2.345995e+01
  -8.114360e+01  -1.480259e+02
   3.330377e+01  -1.768620e+02
   2.050115e+02  -1.293805e+01
   1.996237e+02   6.646003e+01
   1.226524e+02   2.270203e+02
  -4.388400e+01   2.111042e+02
  -1.185019e+02   1.170106e+02
  -9.153892e+01   9.953536e+01
  -1.355589e+02   5.328550e+01
  -2.079457e+02   6.361701e+01
  -3.209885e+02  -1.397023e+02
  -2.397003e+02  -1.993325e+02
  -1.190592e+01  -3.267983e+02
   3.008736e+02  -2.245907e+02
   2.783922e+02  -1.400347e+02
   2.041032e+02   1.459931e+02
   1.775776e+01   1.730970e+02
   2.795402e+01   9.942061e+01
  -3.563606e+00   2.960221e+01
   9.895473e+01   9.194972e+00
   7.486724e+01   8.411760e+01
  -1.569148e+00   5.625061e+01
  -6.476108e+01   6.166793e+01
  -5.158771e+01  -3.306459e+01
   2.980893e+01  -1.135639e+02
   7.256537e+01   2.641861e+01
   9.437659e+01   1.809255e+02
  -2.314350e+01   2.368832e+02
  -1.530903e+02   1.593074e+02
  -2.395397e+02  -9.008283e+01
  -1.920864e+02  -1.784908e+02
  -2.265686e+01  -1.466630e+02
   8.578970e+01  -7.281160e+01
   8.746165e+01   9.094174e+00
   3.671942e+01   2.460420e+01
  -2.163227e+01  -5.514226e+01
   3.193742e+01  -1.160450e+02
   5.702007e+01  -5.361428e+01
   7.366996e+01  -6.456469e-01
  -1.738614e+00   1.131696e+01
  -6.570742e+01  -4.252174e+01
  -9.856743e-01  -9.213202e+01
   1.064416e+02  -5.801926e+01
   2.344180e+02   3.708619e+01
   1.985952e+02   1.458885e+02
   3.779994e+01   1.741014e+02
  -2.085678e+02   1.691305e+02
  -9.475654e+01   7.297632e+01
  -7.539993e+01  -6.407970e+01
   1.739274e+01  -8.279108e+01
  -1.368641e+01   1.517147e+00
  -4.157371e+01   5.965521e+01
  -1.012588e+02  -1.477272e+01
  -1.535449e+02  -5.435169e+01
  -1.351375e+02  -9.903655e+01
   2.906796e+01  -8.794383e+01
   3.477163e+01  -5.139680e+01
   3.677269e+01   3.870760e+01
  -4.392416e+01  -1.766487e+01
  -3.516510e+01  -1.173425e+02
   5.644023e+01  -1.053373e+02
   1.623787e+02   1.667864e+01
   1.555932e+02   1.331166e+02
   1.786104e+01   1.106601e+02
  -8.369382e+01   6.974682e+01
  -1.080160e+02   1.898271e+01
  -2.825780e+01  -7.232415e+01
   2.875619e+01  -3.055634e+01
   4.772951e+01   2.194133e+01
  -3.025450e+01   1.697647e+00
  -4.161481e+01   3.846391e+00
   3.374970e+01   1.219593e+01
   4.608510e+01   8.977886e+00
   1.132431e+02   5.785039e+01
  -3.521910e+01   8.159653e+01
  -9.454956e+01   1.827976e+02
  -1.574964e+02  -5.191661e+01
  -1.651465e+02  -8.625657e+01
   2.190022e+00  -1.594672e+02
   1.088012e+02  -1.387851e+02
   6.742803e+01  -3.420883e+01
   5.910771e+01   1.731604e+01
   1.013416e+01   2.315934e+01
   5.580812e+01   1.684361e+01
   4.645726e+01  -3.842147e+01
   7.004319e+01   3.059746e+01
   3.214482e+00   6.914038e+01
  -1.269562e+02   2.409871e+01
  -5.094021e+01  -5.658403e+01
   5.272520e+01  -1.004594e+02
   6.815618e+01  -1.084314e+02
   1.279577e+02   4.759394e+01
   6.241470e+01   1.858245e+02
  -9.726474e+01   1.590891e+02
  -1.996297e+02   4.875666e+01
  -1.826374e+02  -1.109162e+02
  -7.320129e+01  -1.537101e+02
   5.592645e+00  -8.051810e+01
   4.377753e+01  -7.035775e+01
   2.949239e+01  -4.117921e+01
   1.800435e+01  -5.165049e+01
   6.897691e+01   1.578938e+00
   9.243211e+01  -1.619064e+01
   8.354479e+01   1.542380e+02
   9.974640e+01   1.544902e+02
  -5.674957e+01   1.165269e+02
  -1.057875e+02   3.409022e+00
  -6.252153e+01  -1.058165e+02
   1.748038e+00  -9.910005e+01
   4.729602e+01  -7.112377e+01
   2.459505e+01  -2.264074e+01
  -4.491838e+01   2.569159e+01
  -4.180876e+01   4.104847e+01
   5.643102e+01   2.827285e+01
   9.221541e+00   3.476334e+01
   1.462684e+01   3.285934e+01
  -4.185374e+01   2.203137e+01
  -1.267878e+02   1.725655e+00
  -1.149103e+02  -4.147608e+01
   3.780823e+01  -9.675874e+01
   9.886613e+01  -2.574480e+01
   1.044401e+02  -2.052330e+01
   3.338008e+01   3.598342e+01
  -2.683918e+01   3.858515e+01
  -7.094632e+01   2.851918e+01
   5.289470e+01  -9.093486e+01
   5.682471e+01  -7.356434e+01
   5.687401e+01   1.257704e+00
   2.973059e+01  -9.402408e-01
   5.645532e+01   2.546239e+01
   1.680247e+01  -1.608650e+01
   3.485332e+01   1.909314e+01
   9.608979e+01   4.048704e+01
  -5.830077e+01   1.122652e+02
  -1.031182e+02   9.922918e+01
  -1.334112e+02   3.411077e+01
  -9.725847e+01  -6.841493e+01
   1.837484e+01  -1.340979e+02
   2.920027e+01  -5.418377e+01
   8.820791e+00   1.797299e+01
  -5.128346e+01  -9.427919e+00
  -6.931987e+01  -4.068238e+01
  -1.892780e+01  -9.537499e+01
   5.828611e+01  -4.637596e+01
   1.403082e+02  -2.553100e+01
   1.493796e+02   4.359953e+01
   1.703726e+01   7.002801e+01
  -9.120339e+01   4.793005e+01
  -3.090287e+01   5.628752e+00
   2.794992e+01   2.491402e+01
   4.383465e+01  -1.306566e+01
   2.797514e+01   1.078842e+02
  -4.729510e+01   4.910175e+01
  -8.289572e+01   8.797114e+01
  -1.325960e+02  -9.507464e+01
  -7.649424e+00  -1.333225e+02
   2.894635e+01  -1.140387e+02
   5.106533e+01   3.663858e+01
   1.036514e+01   8.218785e+01
  -7.282596e+01   9.410862e+01
  -5.163388e+01   3.512475e+01
  -3.620479e+01  -8.252642e+00
  -8.360515e+00   7.492459e+00
  -4.590435e+00   4.184659e+01
  -2.953867e+01  -5.224590e+01
  -7.029646e+01  -1.290125e+01
   7.307153e+00  -6.551116e+01
   3.757824e+01   8.563552e+00
   6.964190e+01   6.221978e+01
   3.277524e+01   6.748297e+01
   4.703171e+01   4.676834e+01
  -2.820890e+01   1.616153e+01
  -6.983266e+01   3.261064e+01
  -2.325050e-01  -1.688812e+01
   3.209231e+01  -2.650639e+01
   9.164586e-01   1.101392e+01
   3.933488e+00   1.905362e+01
   2.408576e+01  -8.256131e+00
   6.701939e+01   3.715601e+00
   5.025690e+01   2.775559e+00
  -3.670116e+01   3.589492e+01
  -9.921632e+01   6.568211e+01
  -1.665028e+02   2.445804e+01
  -1.499399e+02   3.009156e+01
  -1.669235e+01  -1.087618e+02
   6.658421e+01  -1.075681e+02
   7.593117e+01  -2.919653e+01
  -9.493118e+00   7.688524e+00
  -9.831404e+00   2.134602e+01
   2.490128e+01   3.922614e+01
  -6.747981e+00   2.932005e+01
  -3.035187e+01  -1.810975e+01
  -1.830710e+01   5.520131e+01
  -4.862607e+01   3.847824e+01
  -8.448471e+01  -5.223844e+01
  -6.804654e+01  -8.533355e+01
  -1.987068e+01  -9.532718e+01
   1.968760e+01  -7.552601e+01
   8.472762e+01   5.511648e+01
   3.155665e+01   6.505906e+01
  -4.536079e+01   2.516840e+01
  -7.405099e+01   5.015476e+00
  -1.521404e+01  -4.125189e+01
   5.708372e+01  -6.467006e+01
  -8.558808e+00  -4.180347e+01
  -6.715260e+00   2.102394e+01
  -4.651353e+01   9.997844e+00
  -2.898601e+01   7.892957e-02
   5.603062e+01  -5.179957e+01
   1.035726e+02   1.620722e+01
   4.748981e+01  -2.851722e+00
  -3.584149e+01   1.273753e+01
  -5.256113e+01   3.150325e+01
  -4.505314e+01   5.135304e+01
  -3.355941e+01  -2.561918e+01
   3.517969e+01  -1.913367e+01
   8.490713e+00  -1.575369e+01
   4.406536e+01   6.680969e+01
  -4.973548e+00   5.221127e+01
  -2.023536e-01  -1.282816e+00
   9.508580e+00  -2.398155e+01
   2.536991e+00  -1.261010e-01
  -2.260527e+01   1.329112e+01
  -1.918306e+01  -2.004695e+01
  -2.860810e+01  -3.007183e+01
  -3.961543e+01  -4.326091e+01
   2.593973e+01   1.118793e+01
   5.469241e+01   2.429050e+01
   3.758473e+01   4.854869e+01
   9.755843e+00  -1.343885e+01
  -3.211641e+01  -3.248209e+01
  -5.897837e+00  -3.849282e+01
   4.291490e+01  -7.822191e+00
   7.335185e+01   2.289117e+01
   2.711607e+01   4.104045e+01
   2.417388e+01   8.128582e+01
  -8.680769e+01  -1.619783e-01
  -1.804081e+01  -1.684574e+01
   2.024138e+01   2.010568e-01
   4.361765e+01   4.945505e+01
   5.977285e+00  -7.806907e+00
  -3.122820e+01   4.722601e+01
