
 $NMID
 id='ANONYMOUS ', fmtdat='(2E16.6)'
 volume=1.0
 tramp=1.0
 $END
   2.465725e+03  -2.771341e+01
   1.964549e+03   1.461154e+03
   3.537145e+02   1.761999e+03
  -7.303633e+02   9.009345e+02
  -7.268075e+02   4.291929e+02
  -3.011155e+02  -1.007811e+02
   3.860861e+02  -5.114359e+01
  -9.322071e+01   2.144631e+02
  -3.848515e+02   2.295195e+02
  -4.649219e+02   1.656756e+02
  -3.430668e+02  -3.106121e+02
   5.571687e+00  -3.910589e+02
   9.950941e+01  -1.193859e+02
   1.516797e+02   2.599932e+02
  -2.589955e+01   4.552405e+02
  -2.949457e+02   1.315071e+02
  -2.430871e+02  -2.616326e+02
  -6.435338e+01  -4.621418e+02
   4.209370e+02  -1.818804e+02
   4.486252e+02   9.862960e+01
   1.536994e+02   3.322442e+02
  -9.701666e+01   1.768533e+02
   2.797830e+01   9.999995e+01
   1.765244e+02   2.337257e+02
   1.962120e+02   3.299762e+02
  -2.359329e+02   4.074447e+02
  -4.225107e+02  -2.860628e+01
  -4.749945e+02  -1.534191e+02
  -2.865786e+01  -2.568523e+02
   2.839795e+02  -6.781949e+01
   2.925474e+02   7.309610e+01
   8.488632e+01   3.952004e+02
  -2.727681e+02   2.546632e+02
  -3.688547e+02   4.318022e+01
  -1.899032e+02  -1.590194e+02
  -3.685905e+00  -1.883556e+02
   5.816705e+00  -1.043012e+02
  -7.585153e+01   4.884636e+01
  -1.464485e+02   4.417382e+01
  -1.055827e+02  -1.348972e+02
   1.228993e+02  -5.138003e+02
   1.293687e+02  -3.684428e+02
   2.096082e+02  -5.106358e+00
   5.366076e+01   1.475635e+02
  -6.432298e+01   3.350893e+01
   1.312370e+01  -4.034300e+02
   1.645898e+02  -2.916789e+02
   3.590944e+02   3.745888e+01
   4.723576e+02   3.529677e+02
   2.704876e+02   3.671389e+02
  -2.915835e+02   2.214107e+02
  -4.145794e+02  -1.191439e+02
  -2.934457e+02  -2.386471e+02
  -3.872587e+01  -1.075688e+02
   1.879676e+02  -5.139139e+01
   2.037048e+02  -6.718741e+01
   1.823180e+01  -3.000168e+01
   1.644063e+01  -8.445109e+01
   1.219746e+02   7.841158e+00
   1.680468e+02   3.715161e+00
   8.111328e+01   2.265718e+02
  -1.473156e+02   2.294079e+02
  -2.882640e+02   1.719615e+02
  -2.701516e+02  -1.004833e+02
  -1.563833e+01  -3.356719e+02
   2.759268e+02  -3.231144e+02
   3.804817e+02  -1.742358e+02
   1.778217e+02   9.613062e+01
  -1.968706e+00   3.200512e+02
  -2.672721e+01   2.072174e+02
   2.878608e+00   1.485787e+02
  -1.171429e+01   1.236342e+02
  -1.540401e+02   1.132165e+02
  -2.593605e+02   1.961471e+01
  -2.466195e+02  -1.343352e+02
  -1.008095e+02  -1.781391e+02
   8.416885e+01  -1.503751e+02
   2.115350e+02   3.343847e+01
   5.228030e+01   2.375554e+02
  -6.636866e+01   1.956197e+02
  -2.622140e+02   5.790327e+01
  -2.214747e+02  -1.527302e+02
  -1.528256e+02  -2.516425e+02
   5.104621e+01  -2.306887e+02
   1.389842e+02  -1.058524e+02
   1.253481e+02  -5.792020e+01
   1.538151e+02  -8.218788e+01
   2.354377e+02   1.203339e+01
   3.549806e+02   1.706732e+02
   3.067250e+02   2.480651e+02
   6.766585e+01   3.502618e+02
  -4.343062e+02   3.194860e+02
  -3.735540e+02   1.379850e+02
  -2.096310e+02  -1.383182e+02
  -3.548487e+01  -2.096734e+02
   8.752941e+01  -1.487393e+02
   4.107060e+01   2.151482e+01
  -1.584053e+02   3.484786e+01
  -6.901247e+01  -8.346092e+01
   8.427627e+00  -1.067340e+02
   8.415160e+01  -7.525480e+01
   6.669081e+01   6.137108e+01
  -1.809354e+01   4.278504e+01
  -1.015059e+02  -1.023005e+01
  -1.297913e+02  -2.065850e+02
   5.363042e+01  -3.298417e+02
   1.603648e+02  -1.435494e+02
   3.236728e+02   8.197647e+01
   2.294220e+02   2.379720e+02
   7.728298e+01   2.466684e+02
  -1.164903e+02   9.019916e+01
  -1.292592e+02   2.813269e+01
  -3.504459e+01  -2.608747e+01
  -1.568348e+01   9.221507e+01
  -9.099047e+00   1.116309e+02
  -9.216809e+01   4.358589e+01
  -8.983842e+01  -1.727603e+01
   1.450006e+00  -6.259268e+01
   7.739624e+01   4.768582e+01
   2.998334e+01   7.961085e+01
  -1.105086e+02   6.629162e+01
  -3.045643e+02  -1.050716e+01
  -2.534264e+02  -2.020995e+02
  -1.680264e+01  -2.521371e+02
   2.623800e+02  -1.856703e+02
   2.304535e+02  -7.693007e+01
   1.458638e+02   3.637231e+01
  -4.364194e+01   3.576590e+01
  -4.813570e+01  -9.450772e+00
   1.006533e+02  -9.194831e+01
   1.413298e+02  -2.824355e-01
   1.402468e+02   1.256455e+02
   8.022727e+01   1.448665e+02
  -6.922171e+01   1.215524e+02
  -1.206767e+02  -8.395757e+00
  -4.594071e+01  -4.628614e+01
   7.653832e+01   4.269808e+01
   2.087437e+01   1.232855e+02
  -9.773286e+01   9.839346e+01
  -2.125793e+02  -3.253187e+01
  -1.390831e+02  -1.076505e+02
  -5.981107e+01  -1.500724e+02
   1.219055e+02  -1.357918e+02
   9.969311e+01   8.016003e-02
   7.640883e+01   8.102209e+01
  -7.366085e+01   8.394097e+01
  -6.220747e+01  -3.813994e+01
   5.641288e+01  -2.754325e+01
   3.386606e+00   3.834509e+00
  -2.209454e+01   4.392994e+01
  -9.853012e+01   2.578615e+01
  -9.241900e+01  -5.369408e+01
  -5.613012e+01  -1.670286e+02
   1.858501e+02  -1.495685e+02
   2.531471e+02   1.785742e+01
   1.670799e+02   1.351371e+02
   2.520216e+01   2.439594e+02
  -1.476546e+02   9.695948e+01
  -1.292742e+02   1.567205e+00
  -8.245695e+01  -7.315251e+01
  -3.700660e+01  -2.107403e+01
  -4.549799e+01  -1.364207e+01
  -3.873350e+01  -1.604443e+01
  -2.845864e+01  -5.070932e+01
   5.708911e+01  -8.978542e+01
   1.498534e+02  -2.585080e+01
   1.169698e+02   5.126603e+01
   8.007845e+00   1.438694e+02
  -1.719038e+02   8.777873e+01
  -1.717084e+02  -7.162959e+01
  -9.177018e+01  -1.815847e+02
   9.733334e+01  -2.045803e+02
   2.395486e+02  -8.285625e+01
   2.227183e+02   7.633226e+01
   5.128841e+01   1.705418e+02
  -2.286480e+01   1.143914e+02
  -9.677004e+01   8.658109e+01
  -4.069478e+01   6.809047e+01
  -1.038401e+02   1.219436e+02
  -1.015185e+02   8.274935e+01
  -1.050960e+02   2.703799e+01
  -7.757551e+01  -1.179077e+02
  -1.978643e+01  -1.817947e+02
   8.626532e+01  -1.107917e+02
   1.354580e+02  -6.237866e+01
   1.023680e+02   1.282042e+02
   1.826056e+01   1.606642e+02
  -6.941056e+01   8.119000e+01
  -8.767139e+00  -4.353517e+01
  -1.177852e+01  -7.041515e+01
   3.558096e+01  -6.667831e+01
  -5.245745e+01   1.902382e+01
  -1.027578e+02  -4.736828e+01
  -5.606529e+01  -1.488777e+00
   7.288980e+01  -8.556209e+01
   1.884702e+02   2.414379e+01
   1.496093e+02   5.442852e+01
  -5.237589e+01   1.130585e+02
  -1.600635e+02   3.903746e+01
  -1.634707e+02  -1.972978e+01
  -1.738646e+01  -2.536056e+01
   5.022336e+01  -4.560786e+01
   1.030095e+02  -1.973500e+01
  -1.709481e+01   6.071990e+01
  -4.367181e+01   4.951601e+01
  -7.636799e+01   5.970133e+00
  -7.279125e+01  -3.517905e+01
  -4.898677e+01  -6.166751e+01
  -4.199911e+01  -2.103559e+01
  -5.122468e+01   4.508262e+00
  -1.645173e+01  -7.031466e+01
   3.856733e+01  -1.523480e+02
   9.868686e+01  -1.260740e+02
   1.378429e+02  -4.495269e+01
   1.200975e+02   8.636030e+01
   2.010806e+01   1.312470e+02
  -6.593556e+01   8.450175e+01
  -8.577554e+01  -3.692510e-01
   8.477370e+01  -1.927682e+01
   1.105660e+02   2.002807e+01
   5.820101e+01   1.230569e+02
  -1.347144e+02   1.490045e+02
  -1.806225e+02   5.436211e+01
  -1.283579e+02  -4.126438e+01
   8.614884e-01  -6.086411e+01
   4.282647e+01  -6.341982e+01
   8.409391e+01  -2.079129e+01
  -4.714298e+01   1.089024e+01
  -6.426138e+01  -6.004436e+01
  -6.671352e+01  -1.106014e+02
   1.145538e+02  -7.694892e+01
   1.707375e+02  -1.002910e+02
   9.242013e+01   1.159545e+02
  -1.981375e+01   1.596726e+02
  -1.120339e+02   1.423189e+02
  -5.174184e+01   5.640658e+00
  -3.382095e+01  -1.302480e+02
   3.809393e+01  -9.950441e+01
   5.049238e+01   2.219137e+01
   6.346005e+01   3.653663e+01
   3.648175e+01   1.866230e+01
   2.078439e+01  -9.334864e+00
   2.482218e+01   4.038584e+01
   5.881422e+01   6.926963e+00
   6.444591e+00   1.025345e+02
  -8.305814e+01   4.907992e+01
  -1.185417e+02  -2.677874e+01
  -9.237329e+01  -9.339494e+01
   1.799235e+01  -5.900210e+01
   4.167757e+01  -1.584271e+01
   7.002691e+01   6.813842e+01
   3.142816e+01   1.832340e+01
  -4.344969e+01   2.202388e+01
  -1.040017e+01   2.357785e+01
   3.259540e+01  -1.699128e+01
   5.313668e+00   4.665233e+00
  -6.275111e+01   1.260009e+00
  -5.531092e+01   1.901659e+00
  -2.869756e+01  -7.279143e+01
   3.850720e+01  -9.510064e+01
   1.585604e+02  -1.029829e+02
   1.240708e+02   4.677988e+01
   3.959071e+01   1.720892e+02
  -1.307681e+02   1.603456e+02
  -1.118735e+02   8.944187e+01
  -3.592914e+01  -1.809044e+01
  -5.603394e+01  -6.040946e+01
  -7.293779e+00  -4.960700e+01
  -1.318029e+01  -3.293800e+01
   1.697205e+01  -4.864322e+01
  -2.088012e+01  -8.792602e+01
   3.400719e+01  -4.177695e+01
   8.348283e+01  -3.552291e+00
   4.371060e+01   5.277018e+01
   5.734868e+01   8.743494e+01
  -6.973093e+01   8.855363e+01
  -7.492903e+01  -7.120974e+01
  -2.550275e+01  -4.599767e+01
   7.757137e+01  -6.438716e+01
   9.687534e+01   3.783681e+01
   4.868604e+01  -1.347876e+01
   1.665199e+01   6.477415e+01
  -3.265032e+01   2.701660e+00
   3.678223e+01   1.027039e+01
   5.289631e+01  -2.757609e+01
   4.331193e+01  -8.355415e+00
  -8.920788e+01   4.252955e+01
  -9.347595e+01   8.027100e+00
  -1.041052e+02  -1.001473e+00
   1.795567e+01  -4.554412e+01
   1.378700e+01  -9.320429e+01
   2.140947e+01  -1.998844e+00
   8.645898e+00   6.272962e+01
   1.073249e+01   4.267132e+01
  -6.354892e+00  -3.961436e+00
  -2.759345e+01  -7.696571e+01
   2.899807e+01  -7.136753e+01
  -9.997651e+00   4.876567e+00
   3.650247e+01   1.775825e+01
   1.306281e+01  -5.212550e+00
  -5.048247e+00  -2.346480e+01
   1.063634e+01   1.275150e+01
   3.936750e+01   3.794617e+01
  -2.083977e+01   6.067422e+01
  -1.053704e+01  -4.238607e-01
  -3.864402e+01  -4.308136e+01
  -2.199552e+01  -3.231554e+01
   1.866456e+01   1.051794e+01
   6.061124e+01   2.288292e+01
   1.785688e+01   3.986089e+01
  -6.709188e+01   6.139252e+01
  -9.397487e+01  -1.221277e+01
  -3.569532e+01  -4.389490e+00
   2.116202e+01  -7.225076e+01
   8.182363e+01  -3.522922e+01
   4.461990e+01   7.445099e+00
  -2.116373e+01   1.062315e+01
  -4.946184e+01  -1.574280e+01
   3.371299e+01   1.828946e-01
   5.400187e+01  -1.160281e+01
