
 $NMID
 id='ANONYMOUS ', fmtdat='(2E16.6)'
 volume=1.0
 tramp=1.0
 $END
   3.785347e+03  -2.893007e+02
   1.976842e+03   1.890869e+03
   3.033210e+01   1.933729e+03
  -1.894221e+03   5.336910e+02
  -1.090398e+03  -1.822820e+02
   2.729168e+02  -3.563363e+02
   7.613867e+02   2.054600e+02
   1.615651e+02   8.426684e+02
  -7.056577e+02   5.974703e+02
  -6.984419e+02  -1.385028e+02
  -3.505417e+02  -7.698470e+02
   2.534241e+02  -7.836585e+02
   5.279965e+02  -1.126457e+02
   3.848347e+02   6.617712e+02
  -3.026963e+02   6.120367e+02
  -4.834908e+02  -6.785975e+00
  -4.281962e+02  -6.242749e+02
   2.571287e+02  -6.630543e+02
   5.540116e+02  -8.123365e+01
   3.569008e+02   2.993229e+02
  -1.423780e+01   3.469312e+02
  -1.374578e+02   2.155371e+02
  -1.822953e+02   6.994341e+01
   1.587339e+02   2.531351e+01
   3.588362e+02   1.582598e+02
   1.103630e+02   3.672929e+02
  -3.908891e+02   3.608832e+02
  -6.693071e+02  -1.616815e+02
  -4.650316e+02  -4.107659e+02
   3.950747e+02  -3.095579e+02
   7.138461e+02   1.467438e+02
   2.468023e+02   4.174555e+02
  -2.794749e+02   4.532423e+02
  -4.816647e+02   1.726698e+02
  -3.310009e+02  -1.368606e+02
  -7.867173e+01  -3.385634e+02
   1.314566e+02  -2.369133e+02
   1.197507e+02   1.499423e+02
  -1.128617e+02   3.708726e+02
  -3.839501e+02  -7.524272e+01
  -2.250777e+02  -5.454152e+02
   3.547658e+02  -4.749639e+02
   5.153241e+02  -9.707197e+01
   1.698903e+02   4.713678e+02
  -2.183536e+02   2.697436e+02
  -2.408603e+02  -2.523842e+02
   7.198062e+01  -4.366428e+02
   4.919047e+02  -1.096428e+02
   4.875153e+02   4.054067e+02
   2.650327e+02   5.362999e+02
  -3.294987e+02   2.992679e+02
  -5.389746e+02  -1.143713e+02
  -3.854095e+02  -2.633711e+02
   1.687762e+02  -3.564464e+02
   3.788510e+02  -2.677497e+01
   1.684860e+02   1.266881e+02
  -1.126692e+02   1.293516e+02
  -1.371487e+02  -1.174448e+02
   1.989011e+02  -1.270509e+02
   2.491020e+02   5.045776e+01
   1.263705e+02   2.572554e+02
  -1.539190e+02   2.405063e+02
  -3.418505e+02   1.044227e+02
  -2.293080e+02  -1.169074e+02
   6.003323e+01  -2.544416e+02
   3.060083e+02  -3.155333e+02
   3.238474e+02  -1.961817e+02
   2.639599e+02   1.075164e+02
   2.421969e+01   4.213314e+02
  -1.754314e+01   3.698080e+02
  -9.067768e+01   1.285167e+02
  -1.995330e+01   2.612407e+01
  -1.287386e+02   2.664636e+01
  -1.776994e+02   1.156590e+02
  -2.640655e+02  -9.796616e+01
  -1.328614e+02  -2.668257e+02
   4.777088e+01  -1.900409e+02
   2.008652e+02   2.667305e+01
   1.611823e+02   2.301658e+02
  -7.791438e+01   2.374079e+02
  -2.472862e+02   7.041943e+01
  -3.316011e+02  -1.982983e+02
  -1.611507e+02  -2.802946e+02
   1.410989e+02  -2.577139e+02
   1.901048e+02  -1.084993e+02
   9.892217e+01  -1.958591e+01
   1.001088e+02  -2.237114e+01
   2.606966e+02  -7.119955e+01
   4.190940e+02   6.953230e+01
   2.734088e+02   2.540009e+02
   5.583326e+00   4.979004e+02
  -3.189003e+02   4.293313e+02
  -4.413523e+02   2.091764e+02
  -2.669993e+02  -1.445756e+02
  -3.404285e+01  -2.451746e+02
   9.276449e+01  -2.102100e+02
   4.279945e+01  -5.103774e+01
  -9.682053e+01   5.591453e+01
  -1.675936e+02  -4.828997e+01
  -6.558040e+01  -1.776012e+02
   1.434717e+02  -1.118534e+02
   1.826714e+02   4.488630e+01
  -2.584706e+01   1.580468e+02
  -1.670709e+02   1.911448e+00
  -1.636722e+02  -2.069145e+02
   2.188497e+01  -2.804640e+02
   1.978481e+02  -1.267287e+02
   2.745630e+02   8.063598e+01
   2.179748e+02   2.441423e+02
   7.806638e+01   2.491234e+02
  -1.072434e+02   1.402806e+02
  -1.673481e+02   3.738866e+01
  -4.163044e+01  -3.211096e+01
   5.498117e+01   3.139218e+01
   1.236066e+01   5.743224e+01
  -1.098256e+02   5.223066e+01
  -2.289716e+02  -4.188839e+01
  -5.872365e+01  -6.336471e+01
   6.724587e+01  -5.805181e+01
   3.768581e+01   8.030412e+01
  -1.102504e+02   1.074716e+02
  -2.203083e+02   5.466998e+01
  -2.570338e+02  -1.795391e+02
  -6.551688e+01  -2.485067e+02
   1.524489e+02  -1.883112e+02
   2.276909e+02  -9.388697e+01
   1.417621e+02   7.430254e+01
  -2.755093e+01   1.331336e+02
  -6.946141e+01  -2.083440e+01
   5.630039e+01  -8.491111e+01
   1.840075e+02  -6.971085e+01
   1.684745e+02   8.742288e+01
   9.318785e+01   1.810342e+02
  -9.362215e+01   1.313611e+02
  -1.544331e+02   3.958433e+01
  -7.646443e+01  -2.505751e+01
   1.081529e+01   7.463626e+01
  -5.101806e+01   3.426178e+01
  -9.826109e+01   1.459840e+02
  -1.992006e+02   2.040981e+01
  -1.780473e+02  -1.125673e+02
   2.813465e+01  -1.998912e+02
   1.366675e+02  -1.034506e+02
   1.978344e+02  -1.538592e+00
   8.137839e+01   8.817370e+01
  -2.190347e+01   1.144408e+02
  -6.876023e+01   5.729490e+01
  -6.912084e+01  -2.782908e+01
   2.955346e+01  -1.044353e+01
  -3.415934e+01   1.280380e+01
  -4.598418e+01  -7.012370e+00
  -1.277215e+02  -7.466520e+01
   1.979727e+01  -2.067138e+02
   1.357610e+02  -1.431030e+02
   2.619125e+02  -3.201954e+01
   1.826883e+02   1.467991e+02
  -1.273014e+01   2.568323e+02
  -1.126727e+02   1.478203e+02
  -1.285542e+02   5.033166e+01
  -6.414265e+01  -6.551682e+01
  -1.310320e+01   3.080085e-01
  -4.108735e+01   1.004362e+01
  -7.572287e+01  -2.312480e+01
  -3.101296e+01  -6.879097e+01
   2.098646e+01  -3.564214e+01
   3.230993e+01  -3.577139e+01
   8.043416e+01   1.478771e+01
  -4.528313e+01   9.242474e+01
  -1.009130e+02   7.512977e+01
  -1.938504e+02  -6.627100e+01
  -7.413576e+01  -2.579577e+02
   1.365800e+02  -1.791153e+02
   2.885074e+02  -6.047169e+01
   2.004089e+02   3.537968e+01
   7.977581e+01   1.089700e+02
  -5.034973e+01   1.427976e+02
  -9.377903e+01   1.048588e+02
  -7.037779e+01   4.673331e+01
  -1.000124e+02   8.229199e+01
  -6.075524e+01   6.997917e+01
  -1.579342e+02  -2.345781e+01
  -8.676842e+01  -1.668008e+02
   2.178044e+01  -2.374102e+02
   8.485387e+01  -1.825809e+02
   1.609678e+02  -2.830132e+01
   9.773995e+01   9.483927e+01
   3.742930e+01   1.574906e+02
  -8.072844e+01   8.603455e+01
  -5.509578e+01   6.220111e+01
   5.642324e+00  -8.691054e+01
   2.121092e+01  -4.088323e+01
  -7.586787e+00  -2.645061e+01
  -8.103144e+01  -5.730648e+01
  -3.378629e+01  -4.245277e+01
   6.109786e+01  -8.103478e+00
   1.473278e+02  -2.913096e+00
   1.435251e+02   7.770099e+00
   6.226748e+01   7.457195e+01
  -8.537578e+01   7.716116e+01
  -1.356576e+02   1.887238e+01
  -3.933366e+01  -5.508998e+01
   4.940131e+01  -2.550743e+01
   3.483778e+01  -7.100827e+00
   2.430558e+00   1.013783e+02
  -5.354906e+01   7.018538e+01
  -1.480756e+01   4.895181e+01
  -6.990937e+01  -3.441671e+01
  -4.453120e+01  -3.698062e+01
  -7.838124e+00  -1.119963e+01
  -5.981487e+01   3.408887e+01
  -2.878578e+01  -7.685640e+01
   1.210772e+01  -1.255853e+02
   1.524694e+02  -1.053819e+02
   1.492587e+02  -4.280973e+01
   9.453839e+01   4.313168e+01
   4.778486e+00   1.272654e+02
  -1.145824e+02   8.364611e+01
  -8.479124e+01   7.474790e+00
   7.603062e+01  -5.276891e+01
   1.333203e+02   4.175587e+01
   1.092468e+02   1.215150e+02
  -5.800062e+01   1.239122e+02
  -2.109338e+02   3.727362e+01
  -1.188582e+02  -2.812576e+01
  -1.564385e+01  -7.321381e+01
   5.149244e+01  -4.977258e+01
   4.471389e+01  -2.760718e+01
  -2.124269e+01   3.191306e+01
  -7.937545e+01  -1.113636e+01
  -5.475810e+01  -1.416018e+02
   1.127347e+02  -1.206833e+02
   1.661618e+02  -6.455333e+01
   7.881055e+01   1.291410e+02
  -1.619326e+01   1.298873e+02
  -5.470508e+01   1.293280e+02
  -9.655325e+01  -6.157284e+00
   1.613890e-02  -7.063511e+01
  -1.720406e+01  -9.169777e+01
   2.000698e+01   1.288866e+00
   5.520916e+01   4.563483e+01
  -2.548280e+01  -1.358158e+00
   4.513400e+01   3.739595e+00
   1.912785e+01   2.330890e+01
   1.458647e+01   5.973743e+01
  -1.772911e+00   1.239178e+02
  -7.505284e+01   5.540399e+00
  -9.653806e+01   2.347414e+01
  -1.730223e+02  -5.251587e+01
  -2.579097e+01  -2.226707e+01
   1.210157e+02  -7.879436e+01
   7.334109e+01  -2.072524e+01
   2.585348e+01  -3.881772e+01
  -2.779358e+01   8.565485e+00
  -4.372558e+01  -9.561517e+00
   4.071883e+01  -3.409504e+01
   1.120448e+01   1.352591e+01
  -5.547022e+01   1.103265e+01
  -7.282914e+01  -7.038905e+01
   1.775129e+01  -6.602948e+01
   9.999050e+01  -9.248733e+01
   1.597689e+02   1.446146e+01
   1.945732e+02   2.668147e+01
   3.899505e+01   1.122817e+02
  -1.051233e+02   1.258268e+02
  -1.225447e+02   5.856144e+01
  -9.434377e+01  -2.154068e+01
  -3.983982e+01  -5.205862e+01
  -7.813224e+00   9.910033e+00
   5.488137e+00   7.273132e+00
   1.440138e+01  -2.400890e+01
  -5.822922e+01  -9.268399e+01
   2.707270e+01  -7.832468e+01
   5.452086e+01   2.522200e-01
   7.779614e+01   6.407405e+01
  -4.233403e+00   1.135540e+02
  -9.284752e+01   2.205695e+01
  -9.839587e+01  -4.932405e+01
   7.396229e+00  -9.510921e+01
   1.789017e+01  -4.366689e+01
   1.466063e+02   1.368274e+01
   6.489125e+01   8.609743e+01
  -5.189310e+01   5.753840e+01
  -2.077205e+01   2.779339e+00
   4.837411e+01   2.052617e+01
   4.135863e+01  -3.516212e+01
   3.493555e+01   1.969013e+01
  -9.195929e+01   1.816035e+01
  -9.701419e+01   6.374059e+01
  -5.444017e+01  -1.599415e+01
   3.207219e+01  -8.586748e+01
   5.837548e+01  -6.938388e+01
   1.269493e+01  -7.775124e+00
   2.687053e+01   5.988220e+01
  -5.416080e+01   4.527332e+01
  -2.291665e+01   2.239798e+01
  -3.535007e+00  -1.750512e+01
  -8.047797e+00  -2.612944e+01
   2.890026e+01   6.666007e+01
   4.534574e+01   3.340440e+01
   3.221768e+01   2.723608e+01
  -7.622695e+01   1.406053e+01
   5.157430e+01  -3.425903e+00
   2.952309e+01   1.540428e+01
  -2.615044e+01   5.226106e+01
  -6.805472e+01   1.194660e+01
  -2.932522e+01  -3.175308e+01
  -2.511375e+01  -1.902067e+01
   5.613882e+01  -2.981484e+01
   3.817171e+01  -1.143074e+01
   2.986292e+01   9.328073e+01
  -5.185579e+01  -3.067936e+01
  -7.871275e+01  -3.599326e+01
  -3.899297e+01   4.904556e+00
  -4.799332e-01  -9.051723e+00
   9.794819e+01  -6.832557e+01
   6.721096e+01  -1.296878e+01
  -7.413399e+00  -3.403663e+00
  -4.522147e+01  -5.914274e+00
   3.979708e+01  -1.756178e+01
   9.243897e+01  -6.359059e+01
