
 $NMID
 id='ANONYMOUS ', fmtdat='(2E16.6)'
 volume=1.0
 tramp=1.0
 $END
   2.294542e+03  -2.713029e+02
   1.186968e+03   9.930941e+02
   3.316697e+02   1.512084e+03
  -9.825797e+02   6.899864e+02
  -6.413852e+02   3.233608e+02
  -2.158784e+02  -1.934238e+02
   2.197034e+02  -2.493181e+01
   1.275014e+02   4.019192e+02
  -2.445306e+02   2.992957e+02
  -3.323692e+02   4.761519e+01
  -2.579755e+02  -2.341007e+02
   2.233493e+00  -3.722337e+02
   1.857511e+02  -2.166121e+02
   1.365659e+02   2.582691e+02
  -9.126391e+01   3.704919e+02
  -2.003358e+02  -7.592648e+00
  -2.687877e+02  -3.413770e+02
   1.690086e+01  -4.793124e+02
   2.913371e+02  -1.757109e+02
   3.523836e+02   1.486472e+02
   7.778951e+01   2.493892e+02
  -5.547167e+01   1.884852e+02
  -1.013622e+02   5.155986e+01
   9.836499e+01   6.804471e+01
   1.856514e+02   1.745628e+02
  -4.736772e+01   2.419185e+02
  -2.820647e+02   1.438269e+02
  -3.723918e+02  -7.406400e+01
  -1.386523e+02  -2.564280e+02
   2.811611e+02  -9.638528e+01
   3.470425e+02   5.271707e+01
   1.884443e+01   2.017776e+02
  -1.961943e+02   1.570017e+02
  -3.311127e+02   4.909849e+01
  -2.005146e+02  -9.723763e+01
  -4.343414e+01  -1.624122e+02
   3.041676e+00  -1.447245e+02
  -1.827241e+01   5.707922e+01
  -4.372458e+01   1.370145e+02
  -1.396267e+02  -1.566585e+02
   9.530724e+01  -3.470366e+02
   1.484555e+02  -3.289486e+02
   1.907736e+02  -4.121714e+01
  -1.494988e+01   1.944791e+02
  -6.855252e+01   9.758175e+01
  -1.341420e+02  -1.254891e+02
   7.013080e+01  -2.726149e+02
   2.474436e+02  -7.989829e+01
   3.477938e+02   2.974556e+02
   1.976158e+02   3.434663e+02
  -1.829416e+02   1.667798e+02
  -3.625463e+02   6.332910e+00
  -2.030991e+02  -1.142581e+02
   1.051095e+02  -1.663096e+01
   1.742202e+02   1.539746e+01
   1.466940e+02   6.839232e+00
   1.212474e+01   5.334587e+01
  -1.323974e+01   7.343041e+00
   5.151902e+01  -3.165354e+01
   1.110995e+02   1.982503e+01
   1.027965e+02   1.208346e+02
  -5.793206e+01   1.934302e+02
  -2.118945e+02   1.210889e+02
  -1.421633e+02  -1.041995e+02
  -1.695292e+01  -2.103360e+02
   1.938414e+02  -2.124479e+02
   2.306771e+02  -3.132891e+01
   1.410892e+02   1.130288e+02
   7.122751e+00   2.262029e+02
   4.262954e+01   2.111310e+02
  -2.007959e+01   1.009187e+02
  -2.138907e+01   6.809223e+01
  -1.434718e+02   3.945910e+01
  -1.284694e+02  -2.007920e+01
  -1.916174e+02  -4.501822e+01
  -6.752332e+01  -1.596504e+02
   2.914537e+01  -1.218065e+02
   1.488037e+02   5.128386e+01
   1.082581e+02   1.249708e+02
  -7.812548e+01   1.737556e+02
  -1.412946e+02  -4.894749e+01
  -1.983925e+02  -9.493271e+01
  -1.567429e+02  -1.778533e+02
   1.898009e+01  -1.771521e+02
   1.288889e+02  -1.006556e+02
   9.869167e+01  -7.016406e+01
   1.338461e+02  -6.592955e+01
   2.295934e+02  -3.119495e+00
   2.881377e+02   1.503090e+01
   1.950262e+02   1.499937e+02
   1.379161e+01   2.797138e+02
  -2.470211e+02   3.482641e+02
  -2.983496e+02   1.347813e+02
  -2.022236e+02  -1.051824e+02
  -2.251625e+01  -1.889984e+02
   3.313336e+01  -1.579492e+02
   3.514156e+01  -9.066688e+00
  -8.718300e+01   3.133817e+00
  -9.206929e+01  -5.475149e+00
   2.269550e+01  -1.014496e+02
   1.162295e+02   5.651113e+00
   7.404423e+01   2.249959e+01
   2.158650e+01   8.709486e+01
  -7.591521e+01  -4.481676e+00
  -1.584318e+02  -1.558159e+02
   7.716585e+01  -1.907176e+02
   2.045932e+02  -1.526633e+02
   2.667463e+02   8.005232e+01
   1.372073e+02   1.559612e+02
   2.973776e+01   1.874800e+02
  -9.976644e+01   9.569566e+01
  -1.349721e+02  -1.935565e+00
   3.300393e+00  -2.966230e-01
   1.752273e+01   4.073603e+01
   3.822064e+01   6.214920e+01
  -1.044960e+02   4.164460e+01
  -7.989851e+01  -4.608838e+00
  -4.442727e+01  -3.719365e+01
   2.352050e+01   6.750036e+00
   2.365301e+01   6.739115e+01
  -1.460530e+02   6.300070e+01
  -1.653788e+02  -7.537735e+00
  -1.690640e+02  -1.684440e+02
  -1.434857e+01  -1.631541e+02
   1.531540e+02  -1.349225e+02
   1.956607e+02  -6.500876e+01
   1.219614e+02  -4.987318e-01
  -5.094735e+01   5.694874e+01
  -3.535967e+01   2.565330e+00
   4.547492e+01  -6.747385e+01
   1.378005e+02  -2.555627e+01
   1.291955e+02   7.931905e+01
   6.076665e+01   1.466330e+02
  -8.132777e+01   9.525820e+01
  -6.916968e+01   2.765907e+01
  -4.437770e+01   9.266249e+00
   1.558740e+01   4.803261e+01
  -2.677964e+01   8.693521e+01
  -9.866680e+01   5.029219e+01
  -1.236667e+02   4.173986e+00
  -1.055213e+02  -8.766496e+01
  -2.238868e+00  -7.668778e+01
   1.385957e+02  -1.088332e+02
   5.803776e+01  -7.784292e+01
   8.893224e+01   7.172939e+01
  -2.668281e+01   3.924004e+01
  -5.727051e+01   1.305788e+01
  -9.823901e+00   1.699670e+00
   3.715729e+01   5.829254e+01
   6.785450e+00  -8.692195e-01
  -3.702871e+01   6.862348e+00
  -7.044874e+01  -6.615515e+01
   2.082223e+01  -9.208123e+01
   8.894396e+01  -1.376512e+02
   1.278268e+02  -6.400595e+00
   1.408954e+02   1.302554e+02
   1.273845e+00   1.908462e+02
  -6.464124e+01   4.408665e+01
  -1.075984e+02   2.997224e+01
  -5.031685e+01  -6.648039e+00
  -5.576749e+01   4.100996e+01
  -2.688208e+01  -1.305216e+01
  -7.001670e+01  -2.919950e+01
  -6.409011e+01  -9.849160e+01
   4.092439e+01  -9.347499e+01
   7.565112e+01  -4.050246e+01
   9.512016e+01   5.196097e+01
  -4.730799e+01   8.848669e+01
  -8.738258e+01   6.747897e+01
  -1.586288e+02  -2.005213e+01
  -5.344596e+01  -1.904487e+02
   1.350510e+02  -1.428137e+02
   1.673100e+02  -8.571102e+01
   2.181646e+02   1.481628e+01
   5.490071e+01   1.370038e+02
  -3.480690e+00   1.037561e+02
  -7.139968e+01   7.689734e+01
  -1.197623e+02   4.676087e+01
  -5.721389e+01   8.380983e+01
  -6.923872e+01   6.159120e+01
  -1.346054e+02  -4.512257e+01
  -5.924923e+01  -1.625602e+02
   6.679278e+00  -1.442511e+02
   9.857358e+01  -1.282855e+02
   7.049577e+01   3.136032e+01
   1.006244e+02   2.339987e+01
  -3.182354e+01   1.579274e+02
  -3.397417e+01   4.137924e+00
  -6.885092e+01   2.284155e+01
   2.996653e+01  -8.450559e+01
   5.329384e+01  -4.548966e+01
   1.357024e+01  -9.139377e+00
  -3.344679e+01  -6.086624e+00
   1.283651e+01  -5.227382e+01
   8.124506e+01  -8.219482e+00
   6.793991e+01   1.916110e+01
   5.328294e+01   4.379758e+01
  -2.114514e+01   9.071953e+01
  -7.729188e+01   3.503067e+01
  -6.194598e+01   2.234349e+01
  -2.645506e+01  -2.217125e+01
   4.196283e+01  -6.647063e+01
   2.104919e+01   2.944526e+01
   2.333507e+00   4.775916e+01
  -1.005081e+01   5.407441e+01
  -2.063961e+01   2.505313e+00
  -3.912978e+01  -4.159974e+01
  -4.235255e+01  -1.481511e+01
  -1.912471e+01  -6.438672e+01
  -4.733397e+01   2.564640e+01
  -7.843562e+01  -6.835073e+00
   3.220688e+01  -7.695461e+01
   1.110590e+02  -1.365043e+02
   1.227742e+02  -1.708385e+01
   1.471337e+02   4.930303e+01
  -9.772048e+00   4.452521e+01
  -6.703534e+01   3.783967e+01
  -3.455242e+01   1.488985e+01
  -1.917886e+00   7.347635e+00
   8.633845e+01   1.985025e+01
   7.649738e+00   8.606563e+01
  -4.654104e+01   1.064664e+02
  -8.996436e+01   5.237454e+01
  -1.250991e+02  -6.075361e+01
   1.365856e+01  -5.984421e+01
   7.653842e+01  -3.175475e+01
   4.331651e+01  -9.548771e+00
  -4.444200e+01   7.161370e+01
  -2.195996e+01  -2.258175e+01
  -2.632271e+01  -6.298410e+01
   4.364786e+01  -1.145273e+02
   1.010360e+02  -4.809564e+01
   1.135571e+02   2.852610e+01
  -3.769048e+00   1.283527e+02
  -8.204406e+01   9.318620e+01
  -9.707806e+01   1.537887e+01
  -6.751563e+01  -4.045127e+01
   5.290113e+01  -7.301342e+01
   2.591114e+01   3.527265e+01
  -1.716181e+00  -2.146956e+01
   2.997761e+00   4.442667e+01
  -1.338750e+01  -8.384576e-01
   3.132756e+01   1.127574e+01
   6.766582e+01   8.698993e+01
  -2.400383e+01   6.726443e+01
  -4.709064e+01   2.654993e+01
  -9.589002e+01   8.345856e+00
  -5.430712e+01  -6.088488e+01
  -5.738769e+00  -3.271354e+01
   7.994739e+01  -1.152184e+01
   5.926348e+01  -1.539032e+01
  -4.058178e+01   3.461850e+01
  -2.044724e+01   2.515986e+01
  -1.809018e+01   2.146869e+01
  -1.998204e+01   9.862251e-01
  -3.996267e+00   2.924401e+01
  -4.036056e+01  -3.061141e+01
  -7.266560e+01  -2.619894e+01
  -4.943430e+01  -1.484491e+00
   9.033774e+01  -9.418587e+01
   7.913097e+01  -6.985502e+01
   1.346198e+02   3.647018e+01
   1.823273e+01   1.122853e+02
  -5.416980e+01   1.140629e+02
  -8.195914e+01   3.855474e+01
  -1.093301e+02   2.189959e+00
   1.087649e+01  -4.672153e+01
  -2.661043e+01   3.222978e+01
   1.835290e+01  -1.119578e+01
   6.939825e+00  -2.641448e+00
  -6.036361e-01  -4.608663e+00
   2.731564e+01  -4.593123e+01
   5.316197e+01  -1.124225e+01
   1.011599e+02  -4.460663e+00
   1.315510e+00   1.145688e+02
  -5.635143e+01   2.772740e+01
  -7.441526e+01  -1.440595e+01
   3.250892e+01  -4.718754e+01
   6.143618e+01  -5.935619e+01
   9.148786e+01   2.516812e+00
   1.903565e+01   4.695064e+01
  -6.097591e+01   4.407920e+01
  -3.253457e+01  -2.823623e+01
   4.979941e+01  -3.047722e+01
   2.311446e+01  -4.235494e+01
   3.171504e+01  -8.931671e-01
  -4.625399e+01   5.608197e+01
  -7.729093e+01   6.204383e+01
  -5.841055e+01  -3.145619e+00
   3.018534e+01  -8.833761e+01
   5.147467e+00  -7.348522e+01
   7.520145e+00  -5.584413e+01
   3.458829e+01   1.140143e+01
  -4.980688e+01   1.515227e+00
   6.544082e+00   6.796296e+00
  -1.938426e+00  -2.489703e+01
   6.238418e+00  -2.121492e+01
   3.046894e+01   2.751096e+01
   5.936496e+01   1.523639e+01
   6.080948e+01   2.924620e+01
   3.353919e+01   2.254698e+01
   2.867956e+00  -6.574349e+01
   1.702151e+01   4.532143e+01
  -1.231278e+00   5.476786e+01
  -1.684225e+01   2.818318e+01
  -6.473085e+01   1.092440e+01
   2.050159e+01  -2.393197e+01
   1.515876e+01  -3.461020e+01
   5.831579e+01   1.729309e+01
  -1.219777e+01   3.869932e+00
  -5.932105e+01   2.676440e+01
  -4.090133e+01   3.599763e+00
  -4.261707e+01  -2.763133e+01
   3.550267e+01  -5.985637e+01
   4.931837e+01  -4.913216e+01
   1.537861e+01  -2.618470e+01
  -4.020792e+01   6.961686e+00
  -1.841008e+01  -1.118507e+01
   2.898750e+01  -2.672368e+01
   3.977560e+01  -2.671986e+01
