
 $NMID
 id='ANONYMOUS ', fmtdat='(2E16.6)'
 volume=1.0
 tramp=1.0
 $END
  -3.726401e+03   8.340329e+01
  -2.206083e+03  -2.195151e+03
   4.365633e+02  -2.397845e+03
   2.116550e+03  -2.691130e+02
   8.786233e+02   4.613856e+02
  -4.029434e+02   4.426152e+02
  -8.793620e+02  -2.780181e+02
  -7.732693e+01  -9.573587e+02
   8.171367e+02  -6.815194e+02
   8.444914e+02   1.464741e+02
   2.874503e+02   7.980845e+02
  -2.466225e+02   8.560322e+02
  -5.740641e+02   1.596394e+02
  -3.011257e+02  -7.649021e+02
   2.408112e+02  -7.000661e+02
   6.174817e+02   1.322374e+02
   3.297051e+02   6.566864e+02
  -3.045731e+02   6.078853e+02
  -5.360724e+02  -1.366906e+01
  -3.508920e+02  -3.504784e+02
   3.735486e+01  -3.460880e+02
   2.439189e+02  -2.051585e+02
   1.694669e+02  -2.478054e+01
  -1.233530e+02   3.452082e+01
  -3.769359e+02  -1.323171e+02
  -1.368968e+02  -4.294464e+02
   4.449714e+02  -3.219486e+02
   7.765102e+02   1.717162e+02
   5.034254e+02   4.517440e+02
  -4.326371e+02   3.132086e+02
  -7.435675e+02  -3.186444e+01
  -2.708326e+02  -4.960834e+02
   2.179144e+02  -5.195788e+02
   5.986441e+02  -1.461434e+02
   3.686431e+02   2.479067e+02
   4.612203e+01   4.738859e+02
  -2.511998e+02   3.095647e+02
  -1.482557e+02  -2.581753e+02
   1.703009e+02  -3.669735e+02
   4.594024e+02  -8.464816e+01
   1.013813e+02   5.642913e+02
  -2.084755e+02   5.348317e+02
  -5.678700e+02   2.826037e+01
  -1.894292e+02  -5.170925e+02
   1.962408e+02  -3.343085e+02
   3.240859e+02   3.109348e+02
  -1.188869e+02   4.651716e+02
  -4.440724e+02   1.453108e+02
  -4.557965e+02  -3.651673e+02
  -2.313036e+02  -5.815718e+02
   3.514948e+02  -3.078355e+02
   5.170017e+02   6.479831e+01
   3.293317e+02   3.600821e+02
  -1.602398e+02   3.766476e+02
  -3.828693e+02   6.863648e+01
  -2.368980e+02  -1.710975e+02
   8.321814e+01  -6.065700e+01
   9.486548e+01   1.274751e+02
  -1.320860e+02   1.832234e+02
  -3.209634e+02  -2.741112e+01
  -1.530279e+02  -2.941032e+02
   2.262421e+02  -2.636277e+02
   3.327437e+02  -6.775503e+01
   2.236572e+02   9.301413e+01
  -5.622653e+01   1.680033e+02
  -2.550938e+02   2.685280e+02
  -2.793487e+02   1.794372e+02
  -2.549657e+02  -6.568815e+01
   1.191161e+01  -4.895797e+02
   8.607224e+01  -3.516584e+02
   9.353889e+01  -1.324775e+02
   3.550789e+01  -3.247085e+01
   9.927111e+01  -4.639049e+01
   1.987521e+02  -1.735097e+02
   3.080412e+02   7.470587e+01
   1.305376e+02   2.998369e+02
  -9.880257e+01   2.440113e+02
  -2.032339e+02  -2.145686e+01
  -2.151068e+02  -1.663605e+02
   2.412075e+01  -3.004837e+02
   2.589319e+02  -8.040054e+01
   3.227566e+02   1.661914e+02
   1.647668e+02   3.758792e+02
  -9.657724e+01   2.644014e+02
  -2.053825e+02   1.068334e+02
  -7.949120e+01   3.308316e+00
  -1.557662e+02   2.984936e+01
  -2.655346e+02   3.147868e+01
  -4.293467e+02  -1.030954e+02
  -2.888242e+02  -2.751018e+02
   5.941129e+00  -4.248695e+02
   3.392968e+02  -3.806482e+02
   4.841177e+02  -2.298619e+02
   3.425256e+02   1.958738e+02
   3.573681e+00   2.589696e+02
  -1.158581e+02   2.518991e+02
  -6.344793e+01   2.984094e+01
   1.088591e+02  -5.238000e+01
   1.410934e+02   5.826607e+01
   9.167071e+01   1.843717e+02
  -1.417080e+02   1.451915e+02
  -1.780911e+02  -6.815593e+01
   7.684470e+01  -1.809771e+02
   2.369550e+02   6.392314e-01
   1.649871e+02   2.172511e+02
  -7.197808e+01   3.019969e+02
  -2.626073e+02   2.281813e+02
  -3.299306e+02  -6.376709e+01
  -2.821760e+02  -2.448685e+02
  -9.388579e+01  -2.626827e+02
   1.312539e+02  -1.418226e+02
   1.845612e+02  -4.737375e+00
   7.157033e+01   2.443805e+01
  -4.276262e+01  -4.738509e+01
  -5.388749e+00  -1.329823e+02
   1.310298e+02  -7.791864e+01
   1.922431e+02   3.206477e+01
   3.120777e+01   4.202011e+01
  -4.916791e+01  -1.114755e+01
  -9.339334e+01  -9.200326e+01
   1.307112e+02  -8.252160e+01
   2.334326e+02   1.597460e+01
   2.155149e+02   1.633550e+02
   4.563154e+01   2.554893e+02
  -1.734547e+02   1.975538e+02
  -2.457476e+02   9.987721e+01
  -1.676396e+02  -7.770369e+01
  -1.816370e+01  -1.367580e+02
   1.195980e+02   2.939130e+01
  -1.698803e+01   8.792056e+01
  -1.924479e+02   4.664959e+01
  -2.030451e+02  -1.301077e+02
  -1.053797e+02  -2.131139e+02
   7.099605e+01  -1.442558e+02
   1.889407e+02   1.420813e+00
   4.321067e+01   2.541390e+01
  -3.824947e+01   1.052647e+01
  -6.070772e+00  -1.510147e+02
   6.423741e+01  -1.292624e+02
   1.463377e+02   3.597805e+01
   1.803240e+02   7.274683e+01
   1.794028e+01   1.396134e+02
  -1.561779e+02   1.454895e+02
  -1.840644e+02  -9.912633e+00
  -5.270707e+01  -7.326254e+01
   4.874700e+01  -6.994409e+01
   8.044186e+01  -3.191169e+01
   2.324703e+01   3.589759e+01
  -3.016403e+01  -9.946688e+00
   3.166631e+01  -3.138206e+01
   5.148352e+01   5.452998e+01
   9.509459e+01   7.144727e+01
   9.248546e+00   1.448094e+02
  -1.326160e+02   1.185883e+02
  -2.118422e+02  -1.606237e+01
  -1.292495e+02  -1.463886e+02
  -6.054024e+01  -1.872596e+02
   1.392206e+02  -1.470575e+02
   1.673258e+02  -6.590139e+01
   7.597735e+01   5.583401e+01
   1.630364e+01   1.478661e+01
   7.376750e+01  -1.055402e-01
   8.841470e+01   7.702027e+00
   6.328498e+01   4.004697e+01
  -2.175068e+01   5.526928e+01
  -6.675772e+01   8.104613e+01
   1.042716e+00  -3.499730e+01
   2.102515e+01  -9.661208e+01
   1.768395e+02  -4.081271e+01
   1.880950e+02   4.850718e+01
   7.056781e+01   2.620815e+02
  -1.271024e+02   1.695082e+02
  -2.517344e+02   6.701903e+01
  -2.419919e+02  -8.138506e+01
  -9.604872e+01  -1.992436e+02
   8.117871e+00  -9.817876e+01
   1.171398e+02  -5.035675e+01
   7.568750e+01  -9.461564e+01
   8.094030e+01  -1.023413e+02
   1.042230e+02  -7.488560e+01
   1.610206e+02   1.191881e+00
   9.840796e+01   1.151105e+02
   4.851107e+01   2.414271e+02
  -1.174296e+02   1.728359e+02
  -1.893399e+02  -2.617862e+01
  -1.261879e+02  -1.114514e+02
   2.540877e+00  -1.872914e+02
   1.215190e+02  -6.388980e+01
   9.897168e+01   1.359471e+01
   7.690462e+00   5.236377e+01
  -2.575038e+01   5.821810e+01
   9.491366e+00   3.108781e+01
   9.009655e+01   4.897966e+01
   5.423702e+01   4.186416e+01
  -1.005309e+02   4.193178e+01
  -1.265721e+02  -1.356142e+00
  -1.748831e+02  -4.921382e+01
  -4.578448e+00  -8.588500e+01
   1.302695e+02  -7.469029e+01
   1.080807e+02  -2.021989e+01
   4.279688e+01   3.946446e+01
  -4.696988e+01   4.922062e+01
  -9.274472e+01   1.503208e+01
  -2.398886e+01  -7.216612e+01
   6.308997e+01  -3.797743e+01
   4.285123e+01   1.658072e+01
   1.558935e+01   2.721621e+01
   5.237124e+01   4.892778e+01
   5.518614e+01   6.744123e+01
   5.729632e+01   1.483663e+01
   3.838270e+00   7.688344e+01
  -5.754021e+01   1.430203e+02
  -1.268812e+02   1.435886e+02
  -1.753970e+02   3.744951e+00
  -1.039820e+02  -2.031987e+01
  -3.728162e+00  -1.118625e+02
   7.320881e+01  -4.443666e+01
   3.803818e+01   4.906628e+01
  -6.988137e+01   4.469380e+01
  -1.324000e+02  -7.374530e+01
  -1.003124e+02  -1.073207e+02
   6.320225e+01  -1.411086e+02
   1.610183e+02  -9.675923e+01
   1.254840e+02   3.948874e+01
  -2.444253e+01   9.746135e+01
  -5.903660e+01   3.752149e+01
  -2.804837e+01  -2.756922e+00
   4.269661e+01  -4.101638e+01
   1.115778e+02   2.424485e+01
   3.591480e+01   9.495498e+01
  -1.260073e+02   1.051063e+02
  -1.349393e+02   6.920677e+01
  -1.143277e+02  -9.951253e+01
  -2.898707e+01  -1.096531e+02
   5.606697e+01  -1.413366e+02
   1.519755e+02   4.947288e+00
   1.385594e+01   9.708196e+01
  -2.982967e-01   1.182685e+02
  -3.387830e+01  -6.017137e+01
  -3.923462e+01  -7.767542e+01
  -4.405682e+01   3.300647e+00
  -8.879097e+00   2.797251e+01
   7.481513e+00   2.011175e+01
  -3.334199e+01  -8.826805e+01
  -5.832789e+01  -7.284837e+01
   4.458677e+01  -7.353576e+01
   1.382710e+02   4.012756e+01
   1.521583e+02   7.926047e+01
  -2.194141e+01   4.703913e+01
  -6.211284e+01   1.369469e+01
  -9.546540e+01   4.275618e+01
   1.337077e+01  -2.040458e+00
   6.205736e+01  -5.499139e+01
  -6.739501e+00  -1.742468e+01
  -4.287086e+00   1.942014e+01
  -1.131151e+01  -5.228608e+00
   1.242412e+01   1.242631e+01
   6.894467e+01   1.311058e+01
   1.061651e+01   4.300064e+01
  -1.025981e+02   1.170931e+02
  -1.812193e+02   7.609932e+01
  -1.356292e+02  -4.512128e+01
  -1.560839e+00  -1.173409e+02
   1.029642e+02  -1.141746e+02
   1.129439e+02  -5.408688e+01
   8.386630e+01   1.514754e+01
   4.299245e+01   1.049917e+01
  -2.385721e+01   1.412888e+00
  -5.005532e+00   1.385630e+01
   2.767583e+01  -1.958496e+01
   6.833808e+01   6.848286e+01
  -1.167365e+01   1.000911e+02
  -1.157393e+02  -4.086750e+01
  -7.884229e+01  -6.921439e+01
  -2.312947e+01  -6.374980e+01
   1.020101e+02  -1.943963e+01
   7.618183e+01   8.557817e+01
   1.533329e+01   1.126333e+02
  -5.896670e+01   2.488085e+01
  -1.564491e+02   5.721589e+00
  -2.177461e+01  -5.190340e+01
   5.595982e+01  -6.680546e+01
   2.062526e+01  -2.831736e+01
  -4.968712e+01  -2.023339e+01
  -5.221345e+01   9.307298e-01
  -1.409822e-01  -4.908294e+01
   8.702215e+01  -6.475950e+01
   1.290798e+02  -5.809287e+01
   9.151103e+01  -2.770912e+01
  -9.364807e+00   1.086839e+02
  -3.851264e+01   6.476400e+01
  -2.796424e+01   1.606887e+00
   2.009082e+01  -5.474053e+01
   1.178245e+01  -4.477077e+00
  -2.140504e+01   1.171872e+01
   2.471938e+01   4.355062e+01
  -7.386182e+00   3.539233e+01
  -6.208720e+01   8.012160e+00
  -7.014012e+01  -1.858098e+01
  -7.498321e+00   8.413549e+00
  -5.894581e+00  -3.399447e+01
  -3.650909e+01   3.502224e+00
   1.063729e+01   2.088658e+01
   3.905051e+00  -5.268854e+01
   1.027340e+01  -2.054275e+01
   5.443820e+01   5.594022e+01
   8.890547e+00   4.015400e+01
  -8.035383e+00   5.839021e+01
  -4.334335e+01  -4.693358e+01
  -1.283078e+01  -4.200957e+01
   3.604670e+01  -1.909788e+01
   9.392391e+01  -2.178548e+00
   4.146493e+01   6.165313e+01
  -2.668810e+00   4.341897e+01
  -1.101422e+02   4.618259e+01
  -2.146944e+01   5.226430e+01
   1.477714e+01   8.781795e+00
  -8.499907e+00  -4.444541e+00
  -3.827103e+01   2.459381e+01
  -1.230615e+02   4.435187e+01
