
 $NMID
 id='ANONYMOUS ', fmtdat='(2E16.6)'
 volume=1.0
 tramp=1.0
 $END
  -3.775268e+03  -5.797624e+02
  -2.089199e+03  -2.202208e+03
   7.274304e+02  -2.655891e+03
   1.839229e+03  -5.260376e+02
   9.561890e+02   5.366647e+02
  -7.044003e+02   6.177467e+02
  -7.188556e+02  -5.209927e+02
   6.465047e+01  -9.480278e+02
   8.352502e+02  -6.538234e+02
   9.252762e+02   6.590537e+01
   3.867423e+02   8.319924e+02
  -2.036808e+02   8.834053e+02
  -5.941241e+02   1.232044e+02
  -2.836563e+02  -7.098207e+02
   2.493012e+02  -6.548559e+02
   5.491110e+02   1.197916e+02
   2.700174e+02   6.272503e+02
  -2.725698e+02   5.157543e+02
  -5.671843e+02   1.248392e+02
  -3.227349e+02  -2.835346e+02
  -7.701708e+01  -4.811404e+02
   2.118984e+02  -2.900607e+02
   2.023205e+02  -2.567358e+01
  -1.131634e+02   5.747376e+01
  -4.251091e+02  -1.898306e+02
  -1.495074e+02  -3.806912e+02
   4.217582e+02  -3.944198e+02
   8.216001e+02   1.172139e+02
   4.382705e+02   5.265048e+02
  -3.225075e+02   4.152012e+02
  -6.742942e+02   1.631664e+01
  -2.752317e+02  -5.238234e+02
   3.058825e+02  -5.199027e+02
   5.898155e+02  -1.240438e+02
   2.838228e+02   2.390664e+02
   7.682608e+01   4.329157e+02
  -1.717606e+02   1.483720e+02
  -1.249781e+02  -2.731739e+02
   1.932856e+02  -4.339498e+02
   4.290661e+02   3.800960e+01
   1.411631e+02   6.413245e+02
  -3.472567e+02   6.802964e+02
  -5.939162e+02   3.503672e+00
  -2.224736e+02  -5.717685e+02
   2.786961e+02  -3.353187e+02
   3.319526e+02   3.569214e+02
  -1.274119e+02   5.156779e+02
  -4.841279e+02   1.368398e+02
  -5.433137e+02  -3.735319e+02
  -1.819715e+02  -5.101404e+02
   3.535154e+02  -3.348270e+02
   5.704608e+02   5.688244e+01
   3.582355e+02   3.146321e+02
  -1.139050e+02   3.816525e+02
  -4.628349e+02   1.937232e+01
  -2.328628e+02  -2.050816e+02
   8.760361e+01  -1.145320e+02
   1.173468e+02   1.218331e+02
  -1.421995e+02   1.053444e+02
  -2.913715e+02  -6.522019e+01
  -8.584119e+01  -3.042639e+02
   1.913954e+02  -3.022124e+02
   2.374442e+02  -7.840540e+01
   1.577636e+02   5.278840e+01
   1.250346e+01   2.582037e+02
  -1.465791e+02   3.274190e+02
  -3.460005e+02   2.222162e+02
  -2.440943e+02  -1.533067e+02
  -2.448282e+01  -4.408881e+02
   7.916603e+01  -3.735960e+02
   9.221600e+01  -1.416619e+02
   6.313018e-01  -3.416116e+01
   6.019965e+01  -1.569515e+02
   2.263935e+02  -1.547489e+02
   2.657498e+02   6.582034e+01
   1.780834e+02   2.559140e+02
  -1.431336e+02   2.522830e+02
  -2.370934e+02  -1.041469e+01
  -2.010696e+02  -2.791461e+02
   7.356453e+01  -3.074578e+02
   2.584961e+02  -8.589927e+01
   3.542772e+02   1.503416e+02
   1.443604e+02   3.826223e+02
  -1.041164e+02   2.933528e+02
  -2.231656e+02   1.013272e+02
  -1.507186e+02   1.974774e+01
  -8.633003e+01   2.876478e+01
  -2.558855e+02   6.302631e+01
  -4.061247e+02  -6.193626e+01
  -2.883952e+02  -2.625970e+02
   9.167337e-01  -4.322228e+02
   3.242153e+02  -3.796222e+02
   4.592400e+02  -2.458301e+02
   2.980213e+02   1.069881e+02
   9.065468e+00   2.640266e+02
  -1.109014e+02   2.820721e+02
  -1.266134e+02   6.929704e+01
   1.457416e+02  -6.816571e+01
   1.907780e+02   5.083347e+01
   4.999420e+01   2.167233e+02
  -1.614982e+02   1.897973e+02
  -1.553308e+02  -7.524778e+01
   7.081534e+01  -2.152830e+02
   2.002040e+02  -1.191533e+01
   1.737800e+02   2.370215e+02
  -1.953721e+01   3.127747e+02
  -2.016338e+02   2.000458e+02
  -3.059673e+02  -6.113744e+01
  -2.565851e+02  -1.944657e+02
  -9.142321e+01  -2.719237e+02
   1.166603e+02  -1.330441e+02
   1.539912e+02  -3.514978e+01
   6.690955e+01   2.172213e+01
  -6.627571e+01  -7.132740e+01
  -2.691141e+01  -1.449993e+02
   6.692171e+01  -5.959982e+01
   1.568969e+02   4.133302e+00
   7.912178e+01   6.527941e+01
  -1.237920e+02   6.208321e+00
  -1.062330e+02  -7.369878e+01
   9.393435e+01  -1.084677e+02
   2.925241e+02  -4.407618e+00
   2.831235e+02   1.175978e+02
   8.158792e+01   2.754335e+02
  -2.080382e+02   2.769613e+02
  -3.240454e+02   8.178923e+01
  -1.655866e+02  -7.695728e+01
   3.467902e+00  -8.522694e+01
   8.715119e+01   1.566585e+01
  -7.174615e+01   1.191264e+02
  -2.006484e+02   6.648735e+01
  -2.115969e+02  -1.623205e+02
  -4.849140e+01  -1.973134e+02
   7.993967e+01  -1.429792e+02
   1.659112e+02  -2.669556e+01
   9.483102e+01   6.747665e-01
  -1.002757e+02   3.628521e+01
  -5.522101e+01  -8.025247e+01
   1.096508e+02  -1.293404e+02
   1.672177e+02  -1.062625e+01
   2.461763e+02   7.546975e+01
  -6.220894e+01   1.939816e+02
  -1.658208e+02   1.200954e+02
  -1.945522e+02   5.769082e+01
  -5.594691e+01  -1.089964e+02
   3.976373e+01  -1.123514e+02
   9.345048e+01  -2.777487e+01
   3.688645e+01   1.624607e+01
  -9.028873e+00   4.510511e+01
   2.594552e+01  -5.336851e+00
   8.452595e+01  -1.623195e+01
   7.582285e+01   5.506864e+01
  -2.443048e+01   1.914752e+02
  -1.399650e+02   1.319191e+02
  -2.353485e+02   6.724923e+01
  -1.678428e+02  -1.377917e+02
  -6.508084e+01  -2.261163e+02
   1.111350e+02  -2.001115e+02
   1.147570e+02  -2.329319e+01
   1.014378e+02   1.132294e+02
   6.478387e+01   4.200980e+01
   1.744953e+00  -1.077038e+01
   5.947488e+01  -1.168048e+01
   5.318986e+01  -1.272684e+01
  -8.507630e+01   7.492967e+01
  -9.113383e+01   7.205445e+01
  -6.555902e+01  -5.063018e+01
   2.408271e+01  -1.443982e+02
   1.138401e+02  -1.549283e+02
   1.424613e+02   9.713604e-01
   1.117664e+02   2.070045e+02
  -1.248347e+02   2.110405e+02
  -2.346972e+02   1.201184e+02
  -2.477802e+02  -4.577679e+01
  -7.461063e+01  -1.346312e+02
   2.314692e+01  -1.410760e+02
   1.108459e+02  -1.354081e+02
   7.113587e+01  -1.052874e+02
   9.775275e+01  -8.011091e+01
   9.608607e+01  -6.983241e+01
   1.294897e+02   1.531611e+01
   1.064735e+02   1.472968e+02
   2.829685e+01   2.184876e+02
  -1.339237e+02   1.340290e+02
  -1.675527e+02   4.411621e+01
  -1.728597e+02  -1.248869e+02
  -2.671670e+01  -1.797720e+02
   6.104939e+01  -1.307874e+02
   7.852609e+01   2.335943e+01
   3.867026e+01   6.505381e+00
   3.868037e+00   4.375267e+01
   5.552312e+01   3.984368e+01
   9.549307e+01   1.809128e+00
   4.021322e+01   5.224049e+01
  -9.324728e+01   3.580482e+01
  -1.983731e+02  -3.272698e+01
  -1.319836e+02  -9.223105e+01
   2.403970e+01  -4.042897e+01
   1.165226e+02  -6.979308e+01
   1.884359e+02   3.168256e+00
   5.902518e+01   5.348432e+01
  -4.525593e+01   3.875178e+01
  -5.015727e+01   9.129491e+00
  -4.390889e+01  -6.352969e+01
   1.007943e+02  -7.810456e+01
   6.353697e+01   9.424893e+00
   6.005851e+01   1.956984e+01
   4.623749e+01   3.688898e+01
   5.909708e+01  -3.537555e+01
   4.922977e+01  -3.213471e+01
   5.802615e+01   8.411780e+01
  -4.710346e+01   1.611907e+02
  -9.617961e+01   1.151745e+02
  -1.627119e+02   6.288877e+01
  -1.237687e+02  -9.297786e+01
  -2.965047e+01  -1.587065e+02
   1.085510e+02  -9.435097e+00
   7.014211e+01   4.866039e+01
  -6.672978e+01  -1.044981e+01
  -1.398798e+02  -4.377061e+01
  -1.109129e+02  -1.287496e+02
   9.372820e+01  -8.834919e+01
   1.631587e+02  -5.671699e+01
   1.877288e+02   3.934829e+01
   5.495919e+01   8.222174e+01
  -6.259439e+01   1.189201e+02
  -5.978506e+01   5.218858e-01
   7.310454e+01  -2.933504e+01
   1.166789e+02   6.346068e+01
   1.447540e+01   1.184120e+02
  -6.803753e+01   1.857495e+02
  -1.680728e+02   6.341461e+01
  -1.293753e+02  -9.339607e+01
  -4.935996e+01  -1.604873e+02
   9.817814e+01  -1.178238e+02
   1.263952e+02  -2.703673e+01
   8.906106e+00   1.202710e+02
   2.923446e+01   1.036415e+02
  -7.309464e+01   2.477084e+01
  -7.543692e+01  -3.928200e+01
  -3.486317e+01   1.470985e+01
   3.037347e+01   3.304127e+01
  -9.780855e+00  -4.894609e+01
  -4.791469e+01  -7.220103e+01
  -1.112755e+01  -1.224297e+02
   7.378654e+01  -6.630690e+01
   1.052450e+02   3.016663e+01
   9.691884e+01   5.319203e+01
  -1.438634e+01   6.276285e+01
  -7.975126e+01   4.105154e+01
  -1.458488e+02  -3.107171e+01
  -9.378556e+00   2.323557e+01
   3.951392e+01  -4.129762e+01
   1.363727e+01  -1.822414e+01
  -2.847521e+01  -5.113895e+00
  -1.221255e+01   2.005954e+01
   5.894185e+01   3.896518e+01
   1.455565e+02   2.577582e+01
   2.848406e+01   1.048651e+02
  -1.461624e+02   1.018581e+02
  -1.834310e+02   3.465758e+01
  -1.029050e+02  -7.514365e+01
   2.740494e+00  -1.713467e+02
   1.208321e+02  -1.442045e+02
   1.281673e+02  -9.370806e+01
   7.500460e+01   6.171038e+00
   5.511423e-01   3.253360e+01
   4.159485e+00  -1.636474e+01
   4.198427e+01   5.195796e+01
   1.175087e+01   4.282153e+01
   1.342364e+01   7.485517e+01
   3.230981e+01   7.443497e+01
  -7.695851e+01  -2.156062e+01
  -8.038299e+01  -1.621395e+02
   3.437174e+00  -1.041975e+02
   5.657794e+01   2.451741e+01
   1.082595e+02   9.633641e+01
   6.980742e+00   1.382943e+02
  -3.671731e+01   4.985166e+01
  -7.873175e+01  -3.086212e+01
  -3.977380e+01  -4.274580e+01
   4.016324e+01  -3.330903e+01
   5.377682e+01   4.193203e-02
  -4.135391e+01   1.630207e+00
  -5.837816e+01   1.638479e+01
  -3.557773e+01  -3.277896e+00
   5.426340e+01  -7.460145e+01
   1.073482e+02  -1.009362e+02
   4.499674e+01   8.924311e+00
   4.731860e+00   5.821737e+01
  -3.080052e+01   7.253715e+01
  -5.564889e+01   6.653687e+00
   1.108139e+01  -4.008063e+01
   3.156429e+01  -7.391322e+01
   4.802182e+01   1.806487e+01
  -4.327854e+00   7.174451e+01
   2.811288e+01   3.579448e+01
  -2.711567e+01   1.350297e+01
  -5.798351e+01   7.532242e+00
   1.422177e+01  -5.028319e+00
   2.784745e+01  -3.361886e+01
   1.006722e+01  -5.479236e+00
  -4.393773e+00  -3.046400e+01
  -6.689408e+00  -7.206593e+01
   3.357897e+01   3.754146e+00
   6.437695e+01   6.488145e+01
   1.620290e+01   5.596027e+01
  -1.165973e+01   3.677436e+01
  -5.507149e+01  -3.831243e+01
   2.044384e+01  -6.147824e+01
   2.077217e+01  -2.604038e+01
   6.790169e+01  -8.574702e+00
   1.298667e+01   3.410654e+01
  -5.138639e+01   3.444824e+01
  -9.439723e+01   3.587999e+01
  -1.017678e+01  -1.094600e+01
   1.796868e+01   5.054197e+01
  -1.289146e+01   1.964401e+01
  -2.236742e+00  -7.271950e+00
  -8.040665e+01   8.289125e+01
