
 $NMID
 id='ANONYMOUS ', fmtdat='(2E16.6)'
 volume=1.0
 tramp=1.0
 $END
   3.926668e+03   5.061723e+02
   1.970238e+03   2.245361e+03
  -4.497666e+02   2.717534e+03
  -1.596999e+03   4.786653e+02
  -7.257497e+02  -4.468064e+02
   5.973089e+02  -3.288062e+02
   6.682181e+02   4.622481e+02
  -1.090060e+01   9.133861e+02
  -8.367643e+02   5.410468e+02
  -9.981576e+02  -1.468528e+02
  -3.988699e+02  -6.685401e+02
   2.630220e+02  -9.170990e+02
   5.710141e+02  -4.999648e+01
   2.681726e+02   7.136092e+02
  -2.194583e+02   6.773474e+02
  -5.833782e+02  -4.947805e+01
  -2.298438e+02  -6.427618e+02
   3.387032e+02  -5.299699e+02
   5.357533e+02  -2.929494e+01
   3.427131e+02   2.276782e+02
   4.337399e+01   4.146392e+02
  -2.266708e+02   2.580469e+02
  -1.616059e+02   1.260219e+01
   1.647822e+02  -4.372324e+01
   4.137833e+02   2.131879e+02
   7.081484e+01   4.680802e+02
  -4.994774e+02   3.911169e+02
  -7.849883e+02  -1.335422e+02
  -3.786397e+02  -5.257821e+02
   3.534913e+02  -3.857174e+02
   6.341707e+02   1.143824e+01
   2.479354e+02   4.692637e+02
  -3.313332e+02   5.040262e+02
  -5.095947e+02   1.404802e+02
  -3.631049e+02  -2.309489e+02
  -8.242114e+01  -4.262865e+02
   1.847064e+02  -1.610912e+02
   6.338972e+01   2.405403e+02
  -2.829678e+02   3.816508e+02
  -3.773860e+02  -3.338726e+01
  -3.760219e+01  -6.500290e+02
   3.578080e+02  -6.701939e+02
   5.076834e+02   2.080050e+01
   2.333083e+02   5.436792e+02
  -3.965024e+02   2.290345e+02
  -2.438963e+02  -3.890964e+02
   1.591803e+02  -3.437909e+02
   4.589097e+02  -6.835392e+01
   5.810679e+02   4.289601e+02
   1.401589e+02   5.579908e+02
  -4.280993e+02   2.941263e+02
  -5.805744e+02  -6.546445e+01
  -3.876029e+02  -3.833853e+02
   9.094550e+01  -3.189329e+02
   4.187847e+02  -3.599040e+01
   2.438938e+02   2.096318e+02
  -5.416747e+01   1.039935e+02
  -1.056163e+02  -1.762843e+02
   1.839518e+02  -1.015998e+02
   2.648153e+02   8.987195e+01
   8.605513e+01   2.742330e+02
  -1.740049e+02   2.740548e+02
  -2.965676e+02   5.041921e+01
  -2.826463e+02  -8.056871e+01
  -3.776355e+00  -2.799589e+02
   1.936725e+02  -3.263781e+02
   3.967022e+02  -2.056580e+02
   2.085806e+02   1.413696e+02
   6.033252e+01   4.398122e+02
  -9.656871e+01   3.365012e+02
  -1.111616e+02   1.493109e+02
   1.033486e+00   3.698709e+01
  -4.913371e+01   1.456509e+02
  -2.256036e+02   1.562793e+02
  -3.051834e+02  -7.791924e+01
  -1.802487e+02  -2.313182e+02
   1.399843e+02  -2.535373e+02
   1.787897e+02   1.280142e+01
   1.786853e+02   2.471979e+02
  -5.584134e+01   3.102647e+02
  -2.936872e+02   8.441603e+01
  -3.762670e+02  -1.652126e+02
  -2.205465e+02  -3.266138e+02
   8.471852e+01  -3.068319e+02
   1.846787e+02  -1.291888e+02
   1.312626e+02  -5.034008e+01
   1.094230e+02  -6.876312e+01
   2.286581e+02  -5.736885e+01
   3.390185e+02   5.268259e+01
   3.458858e+02   2.822880e+02
  -9.981728e+00   4.656794e+02
  -2.688419e+02   3.910215e+02
  -4.640053e+02   2.147515e+02
  -2.664487e+02  -1.187966e+02
   1.327554e+01  -2.413242e+02
   9.809294e+01  -1.952119e+02
   3.381615e+01  -9.874028e+00
  -1.428362e+02   1.212261e+02
  -1.651849e+02  -6.655652e+01
  -5.085050e+01  -1.913197e+02
   1.328431e+02  -1.690374e+02
   1.352488e+02   9.050548e+01
  -5.223932e+01   2.140475e+02
  -2.488106e+02  -6.236042e+00
  -1.708544e+02  -2.688947e+02
   2.812029e+01  -3.550909e+02
   2.076450e+02  -2.270296e+02
   3.052422e+02   7.924098e+01
   3.152510e+02   2.203430e+02
   1.097016e+02   3.099877e+02
  -1.301633e+02   1.321842e+02
  -1.972690e+02   1.138385e+01
  -6.733989e+01  -5.936446e+00
   9.326920e+01   4.849491e+01
   3.590210e+01   1.263961e+02
  -1.192900e+02   8.617706e+01
  -2.293349e+02   2.222311e+01
  -1.169863e+02  -8.685978e+01
   1.285046e+02  -9.071480e+00
   5.357440e+01   9.429526e+01
  -1.218254e+02   8.049744e+01
  -2.783227e+02   3.315734e+01
  -2.472224e+02  -1.587649e+02
  -2.002244e+01  -2.742698e+02
   2.064680e+02  -2.312292e+02
   3.102467e+02  -1.431686e+02
   1.532317e+02   6.614744e+01
   3.108017e+01   9.624275e+01
  -8.851611e+01   2.056734e+01
   8.369075e+01  -1.543855e+02
   1.650618e+02  -4.613258e+01
   2.164481e+02   1.200610e+02
   6.687573e+01   2.074132e+02
  -2.677866e+01   1.353482e+02
  -1.049554e+02   4.800540e+01
  -6.379242e+01  -6.205830e+01
   2.181262e+01  -3.875785e+01
   1.565562e+01   1.155965e+02
  -1.058600e+02   1.251705e+02
  -1.817301e+02   3.472094e+01
  -1.785216e+02  -1.392495e+02
  -3.156364e+01  -2.221622e+02
   1.693464e+02  -1.358408e+02
   1.970506e+02  -1.533352e+01
   1.089903e+02   1.310575e+02
  -5.693965e+01   1.644216e+02
  -1.123309e+02   4.761689e+01
   9.417212e+00  -5.056540e+01
   1.443443e+01  -3.732430e+01
   1.582053e+01  -1.363359e+01
  -8.043171e+01   2.850863e+01
  -4.673176e+01  -1.081015e+02
  -1.044101e+01  -1.594064e+02
   1.483791e+02  -1.117009e+02
   2.470258e+02  -3.510813e+01
   1.475090e+02   1.323779e+02
   3.292131e+01   1.912645e+02
  -1.109734e+02   1.423108e+02
  -1.379719e+02  -1.784912e+00
  -7.809903e+01  -4.031095e+01
  -2.425189e+01  -4.657581e+01
  -4.329185e+01  -5.838754e+00
  -9.352377e+01   5.961725e-01
  -6.496232e+01  -3.769001e+01
   3.083758e+01  -8.539266e+01
   7.289331e+01  -4.450015e+01
   6.472525e+01   5.429900e+01
  -7.717046e+00   1.240727e+02
  -1.455606e+02   1.041573e+02
  -1.627676e+02  -3.624985e+01
  -8.096414e+01  -2.604223e+02
   6.842177e+01  -2.358443e+02
   2.685270e+02  -9.390353e+01
   2.087982e+02   1.210937e+02
   1.028823e+02   1.890705e+02
  -3.618124e+01   1.191105e+02
  -1.158402e+02   3.931710e+01
  -4.234974e+01   6.078006e+01
  -2.336306e+01   8.710688e+01
  -1.244511e+02   6.636818e+01
  -1.123322e+02   1.668985e+01
  -8.749852e+01  -1.870817e+02
  -4.212026e+01  -1.561954e+02
   8.687482e+01  -1.550041e+02
   1.680232e+02  -4.822260e+01
   1.627275e+02   8.807689e+01
   2.909623e+01   1.405423e+02
  -6.169169e+01   6.988371e+01
  -1.036016e+02  -6.876352e+01
   2.947855e+01  -2.924380e+01
   1.553147e+01  -4.083897e+01
  -1.955714e+01   1.091856e+01
  -6.658532e+01   4.871781e+00
  -7.337371e+01  -1.798498e+01
   5.718427e+01  -5.785355e+01
   1.710954e+02   1.194482e+01
   1.201108e+02   6.420926e+01
   1.431639e+01   1.098194e+02
  -6.785522e+01   1.148625e+02
  -1.358297e+02  -3.724890e+00
  -5.311832e+01  -5.414320e+01
   5.497369e+01  -2.246751e+00
   4.483730e+01   2.120363e+01
   5.805779e+00   5.437482e+01
  -7.531695e+01   9.274220e+01
  -9.336690e+01   3.052355e+00
  -9.317378e+01  -3.341730e+01
  -5.131425e+01  -4.647263e+01
  -4.552500e+01  -2.356349e+00
  -8.165612e+01   1.693525e+01
  -1.660479e+01  -1.008186e+02
   2.205690e+01  -1.679565e+02
   8.413911e+01  -8.606550e+01
   1.321714e+02  -3.631776e+01
   1.356013e+02   5.788616e+01
   8.546593e+00   1.560146e+02
  -8.860635e+01   7.862074e+01
  -6.074828e+01  -2.614237e+01
   4.799880e+01  -2.117945e+01
   9.824165e+01  -2.240006e+01
   1.034311e+02   1.076344e+02
  -9.021742e+01   1.401016e+02
  -1.513445e+02   5.236969e+01
  -1.903766e+02  -1.140061e+01
   3.940833e+00  -6.837883e+01
   3.322502e+01  -1.608430e+01
   8.302768e+00  -1.983700e+00
  -6.830820e+01   3.560336e+01
  -4.294013e+01  -5.299863e+00
  -4.597120e+01  -7.179054e+01
   1.124775e+02  -1.298684e+02
   1.945793e+02  -8.596172e+01
   1.108372e+02   1.090022e+02
  -4.605374e+01   1.652641e+02
  -1.034396e+02   1.356670e+02
  -1.057029e+02   1.085549e+01
  -4.242203e+01  -1.408613e+02
  -2.867886e+01  -1.165776e+02
   5.344948e+01  -8.646640e+00
   8.725890e+01   6.252019e+01
  -9.120511e+00   1.662185e+01
   1.437576e+01  -1.174571e+01
   2.601213e+01  -1.524792e+01
   6.871224e+01   8.511315e+01
  -2.052414e+01   8.400532e+01
  -4.726003e+01   2.574742e+01
  -1.268713e+02  -4.018469e+01
  -7.373384e+01  -9.116299e+01
  -9.083525e+00  -1.968533e+01
   1.057620e+02  -1.242130e+01
   6.853481e+01   1.532031e+01
   4.150971e+00   2.264516e+01
  -5.835840e+01   5.307953e+01
  -2.371389e+01   2.671752e+01
  -4.564779e+01  -2.909723e+01
  -2.455750e+01  -3.222817e+01
  -4.595908e+01  -5.174497e+01
  -6.033644e+01  -1.903728e+01
   2.292221e+01  -9.612910e+01
   1.301294e+02  -1.058266e+02
   1.904016e+02  -7.276128e+00
   1.449736e+02   3.112324e+01
   2.270446e+01   1.534340e+02
  -1.061671e+02   1.518892e+02
  -8.717364e+01   9.272793e+01
  -9.269816e+01  -3.421042e+01
  -2.689638e+01  -4.363671e+01
   4.187670e+00  -2.034095e+01
  -3.548893e+01  -2.582497e+01
  -1.059950e+01  -2.041619e+01
  -2.963477e+01  -7.580916e+01
   2.133680e+01  -7.677473e+01
   6.615160e+01  -1.289804e+01
   4.840659e+01   1.368740e+02
   3.121857e+01   9.491668e+01
  -1.177260e+02   6.172980e+01
  -8.412698e+01  -8.196321e+01
  -9.573769e+00  -1.179291e+02
  -2.601199e+00  -6.961844e+00
   1.239886e+02  -1.825233e+01
   3.025873e+01   5.760529e+01
  -4.299146e+01   5.996902e+01
  -7.452422e+01   4.812965e+01
   2.809499e+01   3.563615e+01
   4.450136e+01  -2.157918e+01
   1.889062e+01   2.609700e+01
  -8.989519e+01   4.949811e+01
  -7.544115e+01   7.083089e+01
  -1.129497e+02  -1.258332e+01
   2.018416e+01  -1.127064e+02
   6.345675e+01  -9.902058e+01
   6.135427e+01   2.600757e+01
  -1.032977e+01   6.048231e+01
  -4.990368e+01   4.187542e+01
  -1.961554e+01  -5.121886e+01
  -3.691506e+01  -3.047674e+01
   1.718616e+01  -3.457759e+01
   4.486270e+01  -9.506722e+00
   7.370950e+01   2.729283e+01
   2.034752e+01   1.114824e+01
   4.181866e+01  -8.044889e+00
  -1.758366e+01   1.081656e+00
   4.907660e+00   3.282098e+01
  -1.018766e+01   2.862730e+01
  -7.048449e+00  -2.062688e+01
  -6.000561e+01  -6.947059e+01
   7.533080e+00  -5.588560e+01
   4.422260e+01  -7.146996e+01
   5.639037e+01   4.686168e+01
  -2.843902e+00   6.340133e+01
  -3.503522e+01   1.088111e+01
  -1.017395e+02  -2.570081e+00
  -5.515456e+01  -4.781559e+01
   5.228785e+01  -3.710630e+01
   6.978281e+01  -2.977928e+01
   2.625453e+01  -2.644501e+01
  -4.012838e+01   1.929854e+01
  -3.545141e+01  -2.993837e+01
   5.930688e+01  -1.331362e+01
   5.390393e+01  -4.452762e+01
