
 $NMID
 id='ANONYMOUS ', fmtdat='(2E16.6)'
 volume=1.0
 tramp=1.0
 $END
   2.736412e+03   6.444216e+02
   1.285621e+03   1.577734e+03
   6.287542e+01   1.460359e+03
  -5.387620e+02   1.239528e+03
  -7.294783e+02   2.433704e+02
  -3.473172e+02  -5.807778e+01
   1.253658e+02   2.203127e+02
  -5.607338e+01   3.284121e+02
  -4.533244e+02   4.659517e+02
  -5.299667e+02   2.676333e+01
  -3.313542e+02  -2.318859e+02
   6.081442e+01  -4.582607e+02
   1.204016e+02  -1.633737e+02
   8.787835e+01   3.874307e+02
  -1.649000e+02   4.078658e+02
  -3.983328e+02   6.863584e+01
  -1.725439e+02  -3.582471e+02
   6.967291e+01  -5.172351e+02
   3.648516e+02  -2.592348e+02
   4.420264e+02   1.126767e+02
   1.133226e+02   3.089653e+02
  -7.672543e+01   1.797085e+02
  -1.246198e+01   6.458587e+01
   2.526744e+02   1.330257e+02
   2.925657e+02   3.667617e+02
  -1.222098e+02   3.245893e+02
  -3.320989e+02   1.188281e+02
  -3.602360e+02  -2.302628e+02
  -1.277274e+02  -3.063537e+02
   2.561203e+02  -7.690334e+01
   3.759590e+02   2.033086e+02
   6.393618e+01   3.451673e+02
  -3.173865e+02   2.987157e+02
  -4.640344e+02   1.257316e+02
  -2.799079e+02  -9.201400e+01
  -1.355413e+02  -2.717946e+02
   7.105963e+00  -1.236066e+02
  -1.044264e+02   4.322766e+01
  -8.482382e+01   1.540410e+02
  -4.608276e+01  -1.813849e+02
   1.321724e+02  -3.861995e+02
   1.125368e+02  -2.567287e+02
   1.806262e+02   3.663783e+01
   6.392296e+01   1.752080e+02
  -6.540321e+01   3.431277e+01
   3.550196e+01  -2.445636e+02
   1.531894e+02  -3.172425e+02
   3.308100e+02  -2.166562e+01
   3.863941e+02   3.969006e+02
   1.262291e+02   4.434411e+02
  -3.399893e+02   1.550451e+02
  -3.861162e+02  -5.145384e+01
  -3.350888e+02  -1.879252e+02
   5.402490e+01  -1.343366e+02
   1.450391e+02  -3.839214e+01
   1.586978e+02  -1.749277e+00
   8.358687e+01  -1.339925e+01
  -4.246532e+01  -1.024290e+01
   1.051291e+02  -1.180454e+01
   1.620812e+02   4.125330e+01
   6.103772e+01   1.088921e+02
  -1.231889e+02   2.306514e+02
  -3.068538e+02   1.528058e+02
  -2.787318e+02  -1.218224e+02
   2.884900e+01  -3.245541e+02
   3.230670e+02  -3.587486e+02
   3.704178e+02  -8.028592e+01
   1.831764e+02   1.729800e+02
  -2.045296e+01   2.721951e+02
  -2.625839e+01   2.664166e+02
  -1.295506e+01   1.974794e+02
  -4.256207e+01   8.662334e+01
  -1.424410e+02   9.732306e+01
  -2.905034e+02   6.949796e+01
  -2.064737e+02  -1.305699e+02
  -9.343264e+01  -2.786495e+02
   1.706554e+02  -1.535164e+02
   2.137061e+02   6.108267e+01
   8.376167e+01   2.045934e+02
  -8.946311e+01   2.742537e+02
  -2.544202e+02   5.228462e+01
  -2.789277e+02  -1.673761e+02
  -1.880530e+02  -1.927014e+02
   9.627547e+01  -2.075760e+02
   9.240039e+01  -1.249059e+02
   1.572975e+02  -6.361860e+01
   8.449523e+01  -9.612295e+01
   2.100164e+02  -6.656341e+00
   3.491757e+02   1.246481e+02
   2.844972e+02   2.718925e+02
  -2.643024e+01   4.656084e+02
  -3.215554e+02   2.693950e+02
  -4.318762e+02   1.588942e+02
  -2.426666e+02  -1.223961e+02
   3.825293e+01  -2.387061e+02
   8.370708e+01  -1.637181e+02
  -2.489022e+01  -4.679100e+01
  -1.313094e+02   1.271108e+01
  -7.812552e+01  -7.532954e+01
   6.800837e+00  -1.254993e+02
   6.776483e+01  -3.997581e+01
   7.750402e+01   6.357646e+01
  -2.947909e+01   8.237961e+01
  -1.994363e+02  -4.062752e+01
  -8.626184e+01  -2.164769e+02
   8.064908e+01  -2.759776e+02
   1.851378e+02  -1.841083e+02
   2.854844e+02   1.020652e+02
   2.924725e+02   2.382368e+02
   3.567366e+01   1.971128e+02
  -1.437771e+02   1.353033e+02
  -9.492737e+01   1.344995e+01
  -4.059290e+01   1.695473e+01
   8.398559e+01   4.351297e+01
  -2.785643e+01   8.922670e+01
  -1.020320e+02   5.731047e+01
  -7.630483e+01  -1.603089e+01
   5.905808e+00  -7.016135e+00
   1.010358e+02   3.505974e+01
   3.657877e+01   1.346097e+02
  -1.325915e+02   2.842760e+01
  -3.023381e+02  -9.032823e+01
  -2.228899e+02  -1.889938e+02
   3.001051e+01  -3.022331e+02
   2.622022e+02  -1.641435e+02
   2.656618e+02  -7.600702e+01
   1.160568e+02   6.236390e+01
  -2.163400e+01   3.398278e+01
  -4.044066e+01  -3.286642e+01
   4.856138e+01  -7.464915e+01
   1.014154e+02  -1.992834e+01
   1.646384e+02   1.072911e+02
   9.838700e+01   1.354033e+02
  -7.401385e+01   1.021958e+02
  -6.227767e+01  -1.458500e+01
  -2.529794e+01  -4.743847e+01
   6.366510e+01   6.078862e+01
  -1.176923e+01   4.342416e+01
  -1.191016e+02   8.318966e+01
  -1.827561e+02  -9.273317e+00
  -1.768042e+02  -1.690664e+02
   5.327581e+00  -1.847760e+02
   1.673763e+02  -1.079560e+02
   1.591055e+02  -6.526810e+01
   8.892866e+01   1.085188e+02
  -7.903207e+01   4.012477e+01
  -4.189071e+01   5.767275e+01
  -4.769298e+00  -3.036215e+01
   3.487263e+01  -1.406912e+01
  -7.648984e+00   5.333909e+01
  -5.016518e+01  -1.111241e+01
  -8.965796e+01  -1.402989e+02
  -3.215121e+01  -1.620366e+02
   1.600235e+02  -1.355509e+02
   1.969395e+02   5.144647e+01
   1.326478e+02   1.381969e+02
   4.378303e+01   1.492773e+02
  -9.105575e+01   1.465813e+02
  -1.132655e+02   1.099839e+02
  -6.208268e+01  -9.119617e+01
  -3.491905e+01  -3.838329e+01
  -8.841426e+01   2.456070e+01
  -5.771599e+01  -2.431419e+00
  -8.641495e+01  -8.870558e+01
   7.096190e+01  -7.498202e+01
   1.332580e+02  -3.701152e+01
   1.110432e+02   2.864777e+01
  -2.370427e+00   1.015228e+02
  -1.191541e+02   9.389227e+01
  -2.143854e+02  -7.088902e+01
  -2.790668e+01  -1.809193e+02
   9.569105e+01  -1.833889e+02
   2.335148e+02  -5.609383e+01
   2.311272e+02   7.290568e+01
   4.383881e+01   1.267997e+02
  -4.315471e+01   1.312087e+02
  -5.340458e+01   5.697201e+01
  -4.371134e+01   6.838385e+01
  -7.947144e+01   4.946853e+01
  -6.764439e+01   6.764762e+01
  -8.879705e+01  -1.887298e+01
  -2.604505e+01  -1.494733e+02
  -7.586469e+01  -2.002099e+02
   8.439442e+01  -1.647008e+02
   1.213853e+02   6.942745e-01
   1.504731e+02   9.099017e+01
  -3.293508e+01   1.694487e+02
  -7.626139e+01   1.022154e+02
  -7.408593e+01   2.216930e+01
  -3.861718e+01  -4.409168e+01
   2.114829e+01  -6.218154e+00
  -1.521984e+01  -2.829301e+01
  -7.945124e+01  -3.550130e+01
  -3.865531e+01  -1.296438e+00
   4.379188e+01  -6.573735e+01
   1.765289e+02   1.492167e+01
   1.642543e+02   6.068490e+01
   2.009891e+00   1.108221e+02
  -1.333252e+02   6.561564e+01
  -1.265358e+02   1.303176e+01
  -3.109659e+01  -4.792649e+01
   3.801109e+01  -2.559415e+01
   9.235651e+01  -9.788345e+00
   1.647253e+01   5.113017e+01
  -8.188204e+01   2.703478e+01
  -7.419601e+01   2.274038e+01
  -5.911042e+01  -7.952743e+01
  -1.964224e+01  -3.040563e+00
  -7.629777e+01   1.074324e+01
  -5.775060e+01  -2.407724e+01
  -2.588425e+01  -8.606777e+01
   4.842542e+01  -1.594863e+02
   1.276905e+02  -1.978302e+02
   1.636208e+02  -3.724759e+00
   9.966538e+01   9.333164e+01
  -2.859316e+01   1.465821e+02
  -9.700897e+01   6.191339e+01
  -7.044117e+01   2.128142e+01
   5.926425e+01  -1.225593e+01
   1.343524e+02   5.405220e+01
   1.247831e+02   5.076263e+01
  -9.102447e+01   6.697042e+01
  -1.432134e+02   1.597567e+01
  -1.787820e+02  -3.854067e+01
   1.216916e+01  -4.030451e+01
   3.689342e+01  -5.920757e+01
   9.748789e+01  -1.588359e+01
  -6.779124e+01  -2.865107e+01
  -1.171549e+02   3.045131e-01
  -1.243654e+01  -7.301832e+01
   6.388299e+01  -1.062352e+02
   1.466086e+02  -9.012583e+01
   9.355335e+01   8.276124e+01
  -1.804485e+01   1.899049e+02
  -1.012006e+02   1.204166e+02
  -3.598914e+01  -6.763336e+00
  -1.605602e+01  -9.918421e+01
   5.724417e+01  -4.420064e+01
   3.923923e+01  -8.066270e+00
   5.026620e+01   3.773272e+01
  -2.622732e+01   1.390071e+01
  -2.398821e+01  -2.714322e+01
   5.568451e+00   2.836588e+01
   6.375720e+01   1.160418e+02
   2.262320e+01   7.781282e+01
  -4.035499e+01   2.907550e+01
  -1.354773e+02  -6.825476e+01
  -9.911142e+01  -6.899435e+01
  -3.064056e+01  -7.143016e+01
   8.495804e+01   8.456303e-01
   7.711484e+01   1.068594e+01
  -1.433981e+01   4.502287e+01
  -4.836788e+01   2.179054e+01
  -1.448297e+01  -5.970467e+00
   4.383122e+00  -1.203606e+01
  -4.529169e+01  -5.572902e+00
  -5.029499e+01   6.977293e+00
  -8.961158e+01  -4.040787e+01
   7.954442e+00  -5.230889e+01
   7.735193e+01  -9.926250e+01
   1.717552e+02  -2.768819e+01
   1.302083e+02   4.845744e+01
   2.771629e+01   1.415510e+02
  -6.155841e+01   1.602189e+02
  -9.773866e+01   4.541059e+01
  -9.233774e+01  -3.546760e+01
  -2.544038e+01  -3.173916e+01
   1.428924e+01  -1.297018e+01
  -2.202730e+01  -8.123409e+00
  -7.506889e+00  -1.971729e+01
  -1.185417e+01  -7.508505e+01
   5.740911e+01  -9.335455e+01
   9.276362e+01   2.111449e-01
   1.061437e+02   5.310706e+01
   1.112166e+01   1.168191e+02
  -4.831770e+01   7.045021e+01
  -9.171450e+01  -2.745948e+01
  -6.344974e+01  -6.129855e+01
   4.702561e+01  -5.899613e+01
   1.152563e+02  -7.563208e+00
   7.615220e+01   6.724496e+01
  -2.234567e+01   3.270088e+01
  -6.798621e+01   2.644548e+01
   2.765820e+01   4.321712e+00
  -7.807388e+00  -5.010813e+01
   1.026815e+01   3.793929e+00
  -3.784219e+01   5.542190e+01
  -1.282696e+02   7.352518e+01
  -1.090228e+02  -5.465593e+00
  -1.176971e+01  -6.213869e+01
   9.414522e+01  -5.335691e+01
   5.743714e+01   8.928225e+00
   3.282051e+01   8.923544e+00
  -4.424610e+01  -1.138787e+01
  -1.655830e+01   3.395349e+01
  -8.286671e+00  -7.850314e+01
  -7.109391e+00  -3.149498e+01
   2.075804e+01   3.229362e+01
   6.666020e+01  -6.721670e+00
   1.087063e+01   4.322464e+00
   3.291922e+01   1.690386e+01
   4.408290e+01  -2.125453e+01
  -1.815045e+01   3.689991e+01
  -2.254010e+01   4.355134e+01
  -1.058091e+01  -3.292976e+00
  -8.979155e+01   3.638236e+01
   1.884271e+00  -3.389376e+01
  -4.289409e-01  -9.573351e+00
   1.092960e+01   5.295753e+00
   3.185351e-01   5.805624e+01
  -1.058696e+01   2.771016e+01
  -6.784272e+01  -3.326081e+01
  -5.552291e+01  -7.643044e+01
   4.299047e+01  -7.249805e+01
   1.471243e+01  -1.772512e+01
  -6.190517e+00  -2.181193e+01
  -1.778347e+01   2.119053e+01
  -5.464065e+01   3.924258e+00
   3.055820e+01   6.116059e+00
   3.901316e+01  -2.619632e+01
