
 $NMID
 id='ANONYMOUS ', fmtdat='(2E16.6)'
 volume=1.0
 tramp=1.0
 $END
  -3.585132e+03  -2.165320e+02
  -1.766282e+03  -2.097033e+03
   2.190355e+02  -2.231433e+03
   1.613888e+03  -4.104757e+02
   7.782867e+02   4.913705e+02
  -5.344442e+02   6.351854e+02
  -5.216324e+02  -3.658456e+02
   1.623043e+00  -9.735200e+02
   6.678688e+02  -5.162112e+02
   8.956494e+02   1.707564e+02
   3.632375e+02   7.431785e+02
  -3.289809e+02   7.716756e+02
  -5.398570e+02   8.779622e+01
  -2.727631e+02  -7.865316e+02
   2.101473e+02  -6.827645e+02
   5.087523e+02   1.091018e+02
   2.033269e+02   6.544891e+02
  -2.644708e+02   5.524735e+02
  -4.725596e+02   6.322847e+01
  -2.816945e+02  -2.954553e+02
  -4.082687e+01  -3.357775e+02
   2.668879e+02  -2.270205e+02
   1.884055e+02   4.519666e+01
  -9.263591e+01   4.934757e+00
  -3.321502e+02  -1.737848e+02
  -1.435663e+02  -4.480280e+02
   4.798133e+02  -2.848563e+02
   6.136867e+02   1.081602e+02
   3.378741e+02   5.339426e+02
  -3.966252e+02   3.614595e+02
  -6.437689e+02  -2.149949e+01
  -2.372716e+02  -4.338637e+02
   2.936176e+02  -4.475364e+02
   5.482171e+02  -9.450068e+01
   3.689345e+02   2.109801e+02
   5.335400e+01   4.021795e+02
  -1.956743e+02   1.633451e+02
  -1.435731e+02  -1.515019e+02
   1.447092e+02  -4.189196e+02
   3.341890e+02   6.030232e+01
   1.386911e+02   5.911467e+02
  -2.435078e+02   5.944315e+02
  -4.937415e+02  -2.138202e+01
  -2.392168e+02  -4.258522e+02
   2.709626e+02  -2.762703e+02
   2.439507e+02   2.825913e+02
  -1.716462e+02   4.679003e+02
  -4.549378e+02   1.548945e+02
  -5.339442e+02  -4.065385e+02
  -2.168357e+02  -5.844568e+02
   3.611707e+02  -3.006280e+02
   4.765723e+02   8.708600e+01
   3.343282e+02   2.602075e+02
  -1.804329e+02   2.393803e+02
  -4.081146e+02   2.173748e+01
  -2.084366e+02  -1.941055e+02
   1.382370e+02  -8.424392e+01
   9.197613e+01   1.528217e+02
  -1.791826e+02   1.344395e+02
  -2.651065e+02  -7.757424e+01
  -1.034805e+02  -2.510894e+02
   2.164583e+02  -2.365881e+02
   3.065189e+02  -1.098358e+02
   2.265857e+02   1.019333e+02
   7.437271e+00   1.965006e+02
  -2.578409e+02   3.196767e+02
  -4.261534e+02   8.497248e+01
  -2.017149e+02  -1.268701e+02
   3.222920e+01  -3.624096e+02
   1.680086e+02  -3.422674e+02
   9.137579e+01  -1.100711e+02
   5.125173e+01  -7.698810e+01
   3.636281e+01  -6.579495e+01
   1.804414e+02  -1.713485e+02
   2.729773e+02   1.163445e+02
   9.597171e+01   2.346212e+02
  -6.299917e+01   1.706817e+02
  -1.918866e+02  -2.552916e+01
  -1.419593e+02  -2.006457e+02
   7.018491e+01  -2.804440e+02
   2.323752e+02  -6.100470e+01
   3.132709e+02   1.739101e+02
   1.609983e+02   3.087020e+02
  -8.192216e+01   2.236838e+02
  -1.687492e+02   6.711505e+01
  -1.170270e+02   3.472172e+00
  -1.264071e+02   4.253717e+01
  -2.160722e+02   6.175816e+01
  -3.629612e+02  -9.649094e+01
  -3.477662e+02  -2.904002e+02
  -6.069638e+00  -4.582770e+02
   3.470735e+02  -3.571240e+02
   4.808549e+02  -2.243829e+02
   2.599520e+02   1.371153e+02
   5.335486e-01   2.619963e+02
  -1.731678e+02   2.399394e+02
  -2.716293e+01   1.543861e+01
   9.833454e+01  -1.195229e+02
   1.285768e+02   4.240494e+01
   1.296326e+01   1.535766e+02
  -1.508382e+02   1.598838e+02
  -1.674388e+02  -6.737738e+01
   4.861639e+01  -1.984639e+02
   1.255287e+02  -2.472491e+01
   1.213638e+02   2.205465e+02
  -6.589621e+01   2.836219e+02
  -2.740134e+02   1.332862e+02
  -2.606260e+02  -1.071269e+02
  -2.910803e+02  -2.106515e+02
  -1.079686e+02  -2.614480e+02
   1.014774e+02  -1.135436e+02
   1.706188e+02   1.679085e+00
   7.431653e+01  -3.567633e+00
  -4.837760e+01   3.215860e+01
  -1.195865e+01  -1.221101e+02
   1.163958e+02  -8.657835e+01
   1.944239e+02   3.140311e+01
   4.094451e+01   8.030846e+01
  -1.007009e+02   1.708613e+01
   5.483336e+00  -6.715946e+01
   1.141064e+02  -5.273291e+01
   2.909661e+02  -2.562550e+01
   2.185109e+02   1.807763e+02
   4.135429e+01   2.319355e+02
  -1.903459e+02   2.215515e+02
  -2.773098e+02   1.391441e+02
  -1.610953e+02  -7.227375e+01
   4.330206e+01  -6.690245e+01
   8.297725e+01   1.365942e+01
   2.973121e+00   7.644069e+01
  -1.291893e+02   5.918016e+01
  -1.647378e+02  -6.724097e+01
  -7.533304e+01  -2.226442e+02
   8.995282e+01  -1.306315e+02
   1.096652e+02  -2.374289e+01
   1.969634e+01   1.580847e+01
  -4.382987e+01  -1.927853e+01
  -2.153096e+01  -5.243105e+01
   7.422615e+01  -6.541929e+01
   2.049611e+02  -3.209611e+01
   1.831116e+02   1.337102e+02
   3.762592e+00   2.070595e+02
  -1.447681e+02   7.793082e+01
  -1.902842e+02   2.194462e+00
  -5.357341e+01  -1.190432e+02
   8.337699e+01  -9.321830e+01
   1.141967e+02  -7.006654e+01
   5.394669e+01  -1.078953e+00
   7.036438e+00   3.677060e+01
   1.252883e+01  -6.738873e+00
   9.758491e+01   1.661832e+01
   1.051111e+02   6.223197e+01
   2.006993e+01   1.510357e+02
  -1.327505e+02   1.098812e+02
  -2.595839e+02  -2.140095e+01
  -1.785295e+02  -1.159517e+02
  -1.538043e+01  -1.954634e+02
   1.281337e+02  -1.368687e+02
   1.298574e+02  -1.608602e+01
   1.022323e+02   2.439678e+01
   1.749488e+01   8.877339e+00
   5.246886e+01  -8.494910e+00
   3.364794e+01  -2.345715e+01
   3.277051e+01   7.955516e+01
  -5.196863e+01   1.069812e+02
  -9.832943e+01   4.145095e+01
  -1.004603e+02  -7.266577e+01
   4.686951e+01  -6.755331e+01
   1.461641e+02  -9.367058e+01
   1.986095e+02   9.894272e+01
   9.800630e+01   2.090088e+02
  -1.201152e+02   2.045089e+02
  -2.125653e+02   1.111660e+02
  -2.246918e+02  -3.165887e+01
  -1.092388e+02  -1.531921e+02
   7.054455e+01  -1.719698e+02
   7.596938e+01  -5.395005e+01
   8.174176e+01  -5.342480e+01
   1.120048e+02  -6.932265e+01
   1.266049e+02  -3.373056e+01
   1.095977e+02   3.032314e+01
   1.324760e+02   1.671827e+02
   6.857756e+01   2.162108e+02
  -1.014962e+02   1.516439e+02
  -1.644786e+02   1.267060e+01
  -1.610520e+02  -9.070806e+01
  -5.478143e+00  -1.583928e+02
   6.665129e+01  -1.074552e+02
   8.279068e+01   2.594554e+01
   7.735659e+00   5.274040e+01
  -6.329690e+01   2.634064e+01
   5.882527e+00   5.836544e+01
   6.136744e+01   1.442783e+01
   5.425980e+01   5.910395e+01
  -7.183292e+01   3.339406e+01
  -1.665274e+02   7.847476e-01
  -1.376820e+02  -3.911050e+01
  -4.165521e+00  -4.792064e+01
   1.173416e+02  -4.199455e+01
   9.279966e+01  -2.265444e+01
   6.224455e+01   3.897850e+01
  -7.653225e+01   2.819813e+01
  -6.379617e+01  -8.890534e+00
  -2.469597e+01  -5.876576e+01
   3.670227e+01  -4.447362e+01
   7.389427e+01  -1.811077e+01
   9.905862e+01   4.529073e+01
   3.427394e+01   9.960623e+00
   6.023939e+01   1.913231e+01
   7.514469e+01   8.402011e+00
   1.690470e+01   5.102075e+01
  -7.419394e+01   1.036112e+02
  -9.868121e+01   1.355438e+02
  -1.611970e+02  -2.955420e+01
  -1.264125e+02  -5.405458e+01
   1.104959e+01  -1.028241e+02
   4.978882e+01  -6.059682e+01
   7.674466e+01   3.236730e+01
  -8.360917e+01   1.815003e+01
  -1.392725e+02  -1.725284e+01
  -7.463721e+01  -7.466206e+01
   1.037384e+02  -9.915923e+01
   1.965512e+02  -1.870986e+01
   1.711779e+02  -3.171686e+01
   3.456089e+01   8.132756e+01
  -1.306916e+02   3.752026e+01
  -1.694047e+01  -2.483044e+01
   2.489446e+01  -2.392274e+01
   4.503569e+01   1.267855e+01
   1.430156e+01   1.356351e+02
  -8.833489e+01   1.277897e+02
  -1.572221e+02   5.283324e+01
  -9.089736e+01  -9.313651e+01
  -8.016592e+00  -1.427743e+02
   1.055303e+02  -1.514394e+02
   1.078738e+02   2.169244e+01
   1.645564e+01   7.007233e+01
  -1.773966e+01   6.354622e+01
  -7.578942e+01   1.163356e+01
  -3.616798e+01  -3.990126e+01
  -2.926221e+00   7.202313e+00
  -1.172274e+01   3.347070e+01
  -6.339463e+01   1.012927e+01
  -3.935720e+01  -6.967458e+01
  -3.364957e+01  -1.153577e+02
   3.923621e+01  -5.582818e+01
   1.049260e+02   6.112750e+01
   7.263108e+01   8.706125e+01
   2.581275e+01   1.977143e+01
  -6.119401e+01   2.035820e+01
  -1.157499e+02   3.898621e+00
  -1.501436e+01   7.331167e+00
   3.047580e+01  -3.939552e+01
   6.313069e+01   6.372744e+00
  -2.580188e+01  -1.568736e+00
  -1.302920e+01   5.707353e+01
   1.959118e+01   3.058752e+01
   8.373057e+01   4.757530e+01
  -1.316440e+01   7.717813e+01
  -9.438413e+01   7.576603e+01
  -1.644353e+02   3.954641e+01
  -1.672558e+02  -8.459285e+01
  -1.868795e+01  -1.073464e+02
   1.223774e+02  -1.232397e+02
   1.159739e+02  -5.991278e+01
   4.726404e+01   5.481275e+01
   8.715277e+01   9.440058e+00
  -8.094224e+00   2.198642e+01
   2.530829e+01   9.307997e+00
  -2.677521e+01   3.940514e+01
  -4.850912e+00   9.842350e+01
  -4.966680e+01   3.162978e+01
  -1.276777e+01  -2.604405e+01
  -5.419506e+01  -1.110154e+02
  -1.026344e+00  -7.208293e+01
   9.663044e+01  -1.432001e+01
   1.069653e+02   6.563125e+01
   4.568820e+01   8.131580e+01
  -3.845829e+01   6.399254e+01
  -9.294344e+01   8.926868e+00
  -1.637201e+01  -6.922862e+01
   1.436853e+01  -6.220933e+01
   9.661610e+00  -1.905770e+01
  -5.247878e+01  -1.825172e+01
  -8.287653e+01   3.016669e+00
   2.151340e+00  -3.321297e+01
   8.854217e+01  -3.840246e+01
   9.830167e+01  -4.468267e+01
   8.040213e+01   2.032906e+01
  -8.140336e+00   3.982546e+01
  -9.565861e+01   1.195649e+01
  -4.663887e+01   1.807662e+01
   1.509119e+01  -4.618206e+01
   1.551166e+01  -1.691773e+01
   1.814328e+01   4.012123e+01
   7.371209e+00   7.133266e+01
  -3.375466e+00   2.480940e+01
  -1.512763e+01  -2.283892e+00
  -1.033555e+01  -3.513849e+01
   9.915944e+00   1.723403e+00
   2.040378e+01   1.531337e+01
  -4.779597e+00   7.320335e+00
   1.036540e+01  -5.037552e+00
   1.512932e+00  -4.009401e+01
   3.390179e+01  -2.391354e+01
   4.063234e+01   1.972824e+00
   3.094540e+01   5.138501e+01
  -5.184469e+01   1.579802e+01
  -6.449165e+01  -3.750736e+01
  -1.799888e+01  -3.650294e+01
  -3.647805e+00  -1.465250e+01
   3.867380e+01   6.864086e+01
   4.090058e+01   2.779231e+01
  -8.036373e+00   2.828368e+01
  -2.419448e+01   1.264338e+01
  -2.623799e+01   5.545057e+00
   4.387443e+01   1.904148e+01
   1.553216e+01   2.799807e+01
  -4.184171e+01  -2.321218e+01
  -1.350685e+02   4.194467e+01
