
 $NMID
 id='ANONYMOUS ', fmtdat='(2E16.6)'
 volume=1.0
 tramp=1.0
 $END
  -4.492082e+03   1.169725e+02
  -2.687184e+03  -2.709306e+03
   6.925659e+02  -3.045989e+03
   1.928321e+03  -6.377325e+02
   8.276008e+02   9.061939e+02
  -8.854849e+02   5.540049e+02
  -7.185885e+02  -3.844597e+02
   3.595835e+01  -1.160095e+03
   1.011046e+03  -7.034096e+02
   9.700894e+02   1.329660e+02
   4.832608e+02   8.721472e+02
  -3.522028e+02   8.678662e+02
  -7.038664e+02   1.059989e+02
  -2.805335e+02  -6.642972e+02
   2.884823e+02  -8.506236e+02
   5.628915e+02   5.588278e+01
   2.096043e+02   6.878178e+02
  -3.475449e+02   5.731050e+02
  -5.322078e+02  -9.375437e+01
  -3.974407e+02  -4.008489e+02
   2.284708e+01  -4.023145e+02
   2.908256e+02  -2.570243e+02
   2.050470e+02   3.643666e+01
  -8.758234e+01   8.124636e+01
  -4.776030e+02  -1.104551e+02
  -2.375077e+02  -4.828062e+02
   5.316118e+02  -4.481921e+02
   8.283755e+02  -2.336780e+01
   4.281011e+02   6.439577e+02
  -3.584635e+02   4.327173e+02
  -8.041759e+02  -3.054295e+00
  -3.436348e+02  -4.499591e+02
   2.915359e+02  -5.172846e+02
   5.872229e+02  -1.365918e+02
   4.246198e+02   2.133102e+02
   8.448280e+01   5.312606e+02
  -2.199057e+02   2.514377e+02
  -1.324170e+02  -1.944807e+02
   1.988528e+02  -5.008477e+02
   4.957941e+02  -7.274003e+01
   2.532247e+02   7.065901e+02
  -3.105252e+02   6.626015e+02
  -5.599317e+02  -4.122493e+01
  -3.917711e+02  -5.750344e+02
   2.660971e+02  -3.553891e+02
   3.090719e+02   3.795866e+02
  -1.011102e+02   4.805042e+02
  -5.551945e+02   9.395588e+01
  -5.174368e+02  -4.539037e+02
  -1.996246e+02  -6.131724e+02
   4.327037e+02  -3.382407e+02
   6.401109e+02   7.332464e+01
   3.654840e+02   4.720265e+02
  -1.595568e+02   3.401527e+02
  -4.912551e+02   2.550429e+01
  -2.543400e+02  -2.026437e+02
   2.091924e+02  -1.581616e+02
   1.623949e+02   1.494500e+02
  -1.377386e+02   1.546329e+02
  -4.209980e+02  -6.637139e+01
  -1.161137e+02  -2.864469e+02
   2.289387e+02  -2.751558e+02
   3.375554e+02  -1.085279e+02
   1.856895e+02   1.096135e+02
  -1.226635e+01   1.891056e+02
  -2.459851e+02   3.474734e+02
  -3.521146e+02   1.991302e+02
  -3.023046e+02  -1.047208e+02
  -4.236061e+01  -4.120003e+02
   1.063892e+02  -3.785716e+02
   8.733973e+01  -8.909100e+01
   1.055488e+01   2.772510e+01
   6.116200e+00  -8.142539e+01
   2.708139e+02  -8.608280e+01
   3.276885e+02   1.134439e+02
   2.276362e+02   3.095764e+02
  -1.011617e+02   2.670908e+02
  -2.310105e+02   7.722083e+00
  -2.482286e+02  -2.527820e+02
   2.371828e+01  -3.329351e+02
   2.685593e+02  -8.921136e+01
   3.669037e+02   8.144451e+01
   2.186021e+02   4.009646e+02
  -1.388863e+02   3.154963e+02
  -2.216455e+02   1.209509e+02
  -1.360272e+02   6.876679e+01
  -8.334742e+01   5.628605e+01
  -2.150558e+02   6.511924e+01
  -3.743759e+02  -6.480875e+01
  -4.063831e+02  -2.780104e+02
  -3.543244e+01  -5.256385e+02
   2.847383e+02  -4.604828e+02
   5.586332e+02  -2.381282e+02
   3.371546e+02   7.879454e+01
   7.269007e+01   3.103348e+02
  -9.653733e+01   2.813740e+02
  -9.805116e+01   2.466138e+01
   1.372392e+02  -1.364918e+02
   2.344494e+02   4.697458e+01
   8.059133e+01   2.373092e+02
  -1.682184e+02   1.694053e+02
  -2.033600e+02  -6.564490e+01
   1.255990e+01  -1.631248e+02
   1.838141e+02  -3.082104e+01
   2.014590e+02   2.528192e+02
   2.308247e+01   2.876667e+02
  -2.424869e+02   1.787155e+02
  -3.370513e+02  -3.843476e+01
  -2.893262e+02  -2.791618e+02
  -7.191146e+01  -2.595229e+02
   9.665047e+01  -1.738350e+02
   2.184537e+02  -4.242180e+01
   5.862138e+01   2.793043e+01
  -6.511836e+01  -3.302264e+01
  -5.104314e+01  -1.294457e+02
   1.248865e+02  -1.099560e+02
   2.389176e+02  -1.305486e+01
   5.157812e+01   5.562614e+01
  -9.652401e+01   4.112200e+00
  -7.686228e+01  -8.901123e+01
   1.452445e+02  -4.250381e+01
   2.541784e+02  -1.438913e+01
   3.076978e+02   1.379053e+02
   6.936851e+01   2.372292e+02
  -1.994478e+02   2.865396e+02
  -3.021455e+02   1.446299e+02
  -1.728555e+02  -7.355608e+01
   4.302160e+01  -1.041182e+02
   7.013918e+01  -2.607578e+01
  -5.447431e+01   8.163433e+01
  -1.695804e+02   9.866337e+01
  -2.130650e+02  -1.054082e+02
  -7.470237e+01  -1.997804e+02
   8.762351e+01  -1.447846e+02
   1.806077e+02  -7.144169e+01
   6.713465e+01  -5.007093e+00
  -4.136091e+01   7.230287e+00
  -4.689244e+01  -6.863806e+01
   7.313979e+01  -8.800694e+01
   1.299970e+02  -9.911980e+00
   1.870591e+02   1.341085e+02
   2.193862e+01   2.220980e+02
  -1.967785e+02   1.519240e+02
  -1.689658e+02  -2.452724e+01
  -6.465461e+01  -1.025253e+02
   3.868465e+01  -1.262787e+02
   7.553485e+01  -4.010368e+01
  -2.349834e+01   1.733022e+01
  -4.382872e+01   2.748733e+01
   3.495491e+01   1.836594e+01
   1.257340e+02  -1.395487e+01
   4.136105e+01   8.936760e+01
   4.403309e+01   1.387991e+02
  -1.231083e+02   1.708836e+02
  -2.179994e+02   1.657202e+01
  -2.085778e+02  -1.331274e+02
  -2.453787e+01  -2.403404e+02
   7.796646e+01  -1.639203e+02
   1.466491e+02  -2.679030e+01
   1.155764e+02   7.601443e+01
   1.909956e+01   3.598588e+01
   4.629928e+01   1.448235e+00
   6.887710e+01  -2.139917e+01
   3.241945e+01   4.323051e+01
  -5.919351e+01   1.246051e+02
  -1.030834e+02   8.123614e+01
  -8.803623e+01  -2.247986e+01
   4.167120e+01  -1.120832e+02
   1.679110e+02  -1.135340e+02
   1.714682e+02   5.989077e+01
   1.028438e+02   2.106406e+02
  -1.566073e+02   2.766142e+02
  -2.389170e+02   1.239676e+02
  -2.456802e+02  -9.596669e+01
  -9.594194e+01  -1.429597e+02
   6.969785e+01  -1.727776e+02
   9.663617e+01  -5.315684e+01
   8.373093e+01  -1.077770e+02
   4.163596e+01  -7.451402e+01
   1.205191e+02  -5.321507e+01
   1.192141e+02  -2.576660e+01
   1.144105e+02   1.460337e+02
   1.197126e+01   2.684362e+02
  -7.488367e+01   1.458981e+02
  -1.901388e+02   2.892880e+01
  -1.571201e+02  -1.889694e+02
  -4.439232e+01  -1.822916e+02
   6.349517e+01  -8.494399e+01
   5.076860e+01  -3.527472e+01
   2.761192e+00   7.000445e+01
   7.243602e+00   3.185525e+01
   2.669639e+01   6.574760e+00
   6.042040e+01  -7.548625e+00
   4.774329e+01  -3.909305e+00
  -4.151205e+01   5.539672e+01
  -1.783900e+02   3.719862e+01
  -1.099453e+02  -6.638653e+01
  -1.901987e+01  -8.048523e+01
   4.863328e+01  -4.387443e+01
   1.280668e+02  -2.616473e+01
   1.343729e+01   2.950272e+01
  -6.143873e+01   3.451728e+01
  -5.860339e+01  -2.179483e+01
   1.095854e+01  -7.228947e+01
   8.792199e+01  -2.061109e+01
   9.114257e+01   2.991693e+01
   8.334258e+01   8.019628e+01
   4.497542e+01   3.998651e+01
   5.619116e+01   3.359311e+00
   7.925349e+01  -4.114249e+01
   7.050585e-01   6.645492e+01
  -1.204232e+01   1.139253e+02
  -9.150621e+01   1.099569e+02
  -1.645770e+02   3.273144e+01
  -9.502313e+01  -7.579675e+01
  -4.053397e+01  -1.006847e+02
   1.037394e+02  -9.066365e+01
   2.188940e+01  -9.771682e+00
  -4.358687e+01  -8.939134e+00
  -1.138368e+02  -4.497870e+01
  -8.788352e+01  -1.472077e+02
   3.167430e+01  -1.560569e+02
   1.333727e+02  -1.847741e+01
   1.391030e+02   3.053874e+01
   5.583135e+01   9.172829e+01
  -6.919430e+01   6.526118e+01
  -3.340467e+01   5.558558e+01
   1.363352e+01  -2.942214e+01
   6.491067e+01   1.640405e+01
  -9.967769e+00   6.385941e+01
  -1.358748e+02   1.430385e+02
  -1.468874e+02   3.586359e+01
  -1.476495e+02  -1.120860e+02
   3.673665e+01  -1.585105e+02
   1.239660e+02  -1.812509e+02
   1.550892e+02   1.699087e+01
   9.415188e+01   9.733376e+01
  -1.880962e+01   8.361660e+01
  -9.088152e+01  -2.118293e+01
  -4.059538e+01  -1.558316e+01
  -3.282023e+01  -3.783066e+01
   7.443695e+00   4.270877e+01
  -1.006531e+01  -2.856102e+01
  -6.089355e+01  -1.168834e+02
  -4.511903e+01  -1.108473e+02
   5.250884e+01  -2.249669e+01
   1.237819e+02   7.936758e+00
   1.430514e+02   8.067820e+01
  -1.175449e+01   7.926375e+01
  -1.247373e+02   2.337175e+00
  -7.139529e+01  -6.971093e+00
  -2.274174e+01  -9.180222e+00
   4.478700e+01   8.568596e+00
  -5.203902e+00  -2.966302e+01
  -6.400815e+00   4.641689e+01
   2.128474e+01  -2.832283e+01
   6.881623e+01   2.007184e+01
   1.118603e+02   2.142579e+01
  -1.226620e+01   7.514065e+01
  -1.402358e+02   1.165158e+02
  -1.954118e+02   6.304710e+01
  -2.125836e+02  -6.600536e+01
  -7.241576e+01  -1.698536e+02
   7.608456e+01  -1.023900e+02
   7.457211e+01  -4.615956e+01
   5.859517e+01   2.727582e+01
   3.216913e+01   5.739099e+01
  -3.402979e+01  -3.088429e+01
  -7.051122e+00   2.495244e+01
   1.064631e+01   4.122066e+01
   4.233551e+01   1.226101e+02
  -3.842761e+01   6.791638e+01
  -9.490712e+01  -1.482173e+01
  -8.301748e+01  -9.918096e+01
   1.377429e+01  -8.896179e+01
   8.201646e+01  -1.786065e+01
   1.066497e+02   8.453670e+01
   9.120304e+01   7.362628e+01
  -3.315988e+01   4.624488e+01
  -1.415447e+02  -2.479246e+01
   1.078187e+00  -6.424972e+01
   1.709191e+01  -4.526715e+01
  -2.569022e+01  -7.281693e+01
  -4.832124e+01   9.673549e-01
  -1.058660e+02   6.619075e+00
   4.019517e+01  -2.978025e+01
   7.727012e+01  -3.668761e+01
   9.441102e+01  -9.403791e+01
   3.982580e+01   2.805775e+01
  -8.874072e+00   1.203380e+02
  -3.590846e+01   5.012804e+01
  -6.901049e+01  -3.013722e+01
   3.280887e+00  -5.231757e+01
   4.349466e+01  -8.332074e+01
   5.991141e+00   5.869028e+01
  -5.690139e+00   6.147152e+01
   1.354318e+00   2.757902e+01
  -4.440765e+01  -1.486297e+01
  -7.860374e+01  -4.900504e+01
  -2.047763e+01   2.357510e+00
  -1.152752e+01   5.431010e+01
   5.477480e+01  -1.353864e+01
   1.213652e+01  -5.305964e+01
   8.360413e+00  -4.788970e+01
   3.787128e+01   3.770035e+01
   6.077342e+01   5.546833e+01
   1.142794e+00   5.539359e+01
  -7.642387e+01   4.094141e+01
  -2.134865e+01  -2.941667e+01
  -1.105173e+01  -3.308525e+01
   2.712764e+01  -4.563254e+01
   9.918685e+01   4.185047e+01
   6.090242e+01   1.680772e+01
  -4.598192e+01  -3.390691e+00
  -6.776967e+01   2.176126e+01
  -3.091670e+01  -7.914198e+00
   4.345208e+01   3.450695e+01
  -5.857382e+00   5.600308e+01
  -2.007706e+01  -9.528914e-01
  -7.625925e+01   4.966058e+01
