
 $NMID
 id='ANONYMOUS ', fmtdat='(2E16.6)'
 volume=1.0
 tramp=1.0
 $END
   4.575695e+03   3.409694e+02
   2.276513e+03   2.732788e+03
  -5.097602e+02   2.661853e+03
  -1.834088e+03   6.633016e+02
  -1.036342e+03  -8.873731e+02
   7.937465e+02  -5.141230e+02
   7.336897e+02   5.199112e+02
   1.338986e+01   1.099959e+03
  -9.619509e+02   7.409883e+02
  -8.749586e+02  -1.774712e+02
  -4.651063e+02  -8.650851e+02
   3.419756e+02  -9.027507e+02
   7.043166e+02  -1.063098e+02
   2.730830e+02   6.708188e+02
  -3.859140e+02   7.710973e+02
  -5.426301e+02  -6.212722e+01
  -2.611114e+02  -6.142880e+02
   3.111865e+02  -6.471256e+02
   5.745822e+02   4.238202e+01
   3.814241e+02   3.754368e+02
   6.317043e+01   3.977886e+02
  -2.870890e+02   3.055658e+02
  -1.396022e+02  -1.952823e+01
   1.329171e+02  -8.480521e+01
   4.839983e+02   1.580530e+02
   2.283058e+02   4.696651e+02
  -5.641489e+02   3.677687e+02
  -8.294212e+02  -7.135497e+01
  -3.568471e+02  -6.207639e+02
   3.637999e+02  -3.764610e+02
   7.316632e+02   1.536818e+02
   2.832344e+02   4.440295e+02
  -3.092917e+02   4.847834e+02
  -6.276071e+02   1.659525e+02
  -3.969767e+02  -2.074577e+02
   9.215258e-01  -5.072308e+02
   2.556657e+02  -1.998734e+02
   1.316763e+02   2.894553e+02
  -2.349206e+02   4.366573e+02
  -3.995713e+02  -1.763850e+01
  -2.097784e+02  -6.649265e+02
   4.057232e+02  -6.690601e+02
   6.173158e+02  -3.484093e+01
   2.874067e+02   5.353858e+02
  -3.157409e+02   2.856742e+02
  -3.574965e+02  -3.192724e+02
   1.368109e+02  -5.863237e+02
   6.258282e+02  -8.277882e+01
   4.938970e+02   4.751470e+02
   2.304733e+02   5.742673e+02
  -3.867455e+02   3.559366e+02
  -6.713953e+02  -7.357279e+01
  -4.441013e+02  -4.115779e+02
   1.980318e+02  -3.982480e+02
   4.716169e+02   1.759713e+01
   1.690205e+02   1.890966e+02
  -1.415665e+02   1.136648e+02
  -1.826979e+02  -2.068367e+02
   1.985446e+02  -1.475869e+02
   4.164580e+02   6.906546e+01
   1.308106e+02   3.035281e+02
  -2.209422e+02   2.664042e+02
  -2.723642e+02   8.858615e+01
  -1.848530e+02  -2.293972e+01
   1.084094e+01  -2.058920e+02
   2.012204e+02  -4.197030e+02
   3.101799e+02  -2.141904e+02
   3.383393e+02   1.010785e+02
   8.936239e+01   4.448140e+02
  -9.723110e+01   3.607433e+02
  -1.289109e+02   9.946470e+01
  -1.729739e+01  -5.070261e+01
  -3.020214e+01   3.025458e+01
  -2.512641e+02   1.647937e+02
  -2.813898e+02  -6.023816e+01
  -2.189846e+02  -3.018300e+02
   1.074602e+02  -2.749729e+02
   2.487186e+02   2.223977e+01
   2.688020e+02   2.696668e+02
   3.041748e+01   3.395976e+02
  -2.511949e+02   6.804697e+01
  -3.646348e+02  -1.751671e+02
  -2.164061e+02  -3.702945e+02
   8.793074e+01  -3.476286e+02
   1.901205e+02  -7.887423e+01
   9.460991e+01  -7.442338e-02
   9.698290e+01  -1.044291e+02
   2.212235e+02  -9.271554e+01
   4.252660e+02   1.598793e+01
   3.746281e+02   2.766176e+02
   2.660904e+00   5.345308e+02
  -3.251293e+02   3.990948e+02
  -5.125454e+02   1.939722e+02
  -2.945309e+02  -7.151458e+01
  -5.391986e+01  -2.949674e+02
   8.115159e+01  -3.267166e+02
   6.467351e+01  -6.954730e+01
  -8.436639e+01   1.124506e+02
  -2.379635e+02  -2.509463e+01
  -2.574689e+01  -1.840442e+02
   2.044522e+02  -1.599497e+02
   2.244162e+02   9.097418e+01
  -6.261448e+01   1.845548e+02
  -2.382649e+02   2.553676e+01
  -2.313959e+02  -2.896625e+02
   1.733856e+01  -2.982558e+02
   2.098246e+02  -2.259364e+02
   2.818621e+02   6.927189e+01
   2.643495e+02   2.493564e+02
   3.953904e+01   2.904213e+02
  -1.332900e+02   2.025611e+02
  -1.603292e+02   3.586162e+01
  -3.801041e+01  -5.607029e+01
   6.021326e+01   6.375187e+01
   5.378588e+01   1.370852e+02
  -1.402695e+02   1.499238e+02
  -2.249734e+02  -4.513609e+01
  -1.059125e+02  -1.197637e+02
   1.063409e+02   3.109131e+01
   9.137430e+01   5.580187e+01
  -1.393201e+02   5.316429e+01
  -2.858773e+02   4.730718e+01
  -2.792319e+02  -1.552095e+02
  -9.815832e+01  -2.032106e+02
   2.229488e+02  -3.001929e+02
   2.831552e+02  -1.220893e+02
   1.803982e+02   3.366417e+01
  -3.965512e+01   9.276469e+01
  -9.565103e+01  -5.908377e+00
   5.166978e+01  -1.010516e+02
   1.924425e+02  -6.034346e+01
   2.933794e+02   1.155099e+02
   1.084806e+02   2.610072e+02
  -7.346902e+01   1.848147e+02
  -1.215142e+02   8.787179e+00
  -6.762651e+01  -2.772411e+01
   7.105949e+00  -1.826400e+00
   8.407614e+00   1.033202e+02
  -1.016461e+02   8.719137e+01
  -1.885917e+02   5.701958e+01
  -2.164717e+02  -1.137867e+02
  -1.004736e+01  -2.624197e+02
   1.562702e+02  -1.496115e+02
   2.303099e+02   1.040718e+01
   9.360831e+01   1.380496e+02
  -7.583298e+01   1.291484e+02
  -1.250153e+02   1.966871e+01
  -7.227055e+00  -6.779687e+00
   1.356627e+01   3.000570e+00
   5.246191e+00   5.672616e+00
  -3.671239e+01  -7.362108e+00
  -8.770187e+01  -7.246505e+01
  -1.176919e+01  -1.312881e+02
   1.241384e+02  -1.663752e+02
   2.653513e+02  -5.885382e+00
   2.058112e+02   1.388647e+02
   4.939114e+01   2.228998e+02
  -1.457831e+02   1.506217e+02
  -1.332273e+02   7.176924e+01
  -6.501492e+01  -2.590115e+01
  -1.802627e+01  -5.797357e+01
  -4.319376e+01  -1.318690e+01
  -5.843212e+01  -1.698672e+01
  -4.191140e+01  -7.141646e+01
   1.766325e+01  -1.152480e+02
   1.302196e+02  -1.041362e+02
   1.038511e+02   1.155391e+01
   1.654533e+01   1.183489e+02
  -1.103676e+02   7.285186e+01
  -2.018374e+02  -7.734521e+01
  -9.955376e+01  -2.206703e+02
   1.037800e+02  -2.994723e+02
   2.723510e+02  -9.107268e+01
   2.376274e+02   2.697501e+01
   1.054706e+02   1.349536e+02
  -2.605401e+01   1.531457e+02
  -1.425506e+02   7.943777e+01
  -7.249798e+01   6.035605e+01
  -4.174906e+01   8.862260e+01
  -1.134048e+02   7.101419e+01
  -1.134249e+02  -1.697987e+01
  -5.322281e+01  -1.834989e+02
  -2.829619e+01  -2.498377e+02
   1.023999e+02  -1.310764e+02
   2.076153e+02   9.009473e+00
   1.395467e+02   1.385562e+02
   1.051461e+00   1.636257e+02
  -7.484993e+01   7.314186e+01
  -1.239740e+02   7.645034e+00
  -2.453382e+01  -5.133514e+01
   2.904919e+01  -3.625758e+01
  -3.542735e+01  -8.760790e+00
  -9.339014e+01   3.799684e+00
  -7.118570e+01  -6.695937e+01
   3.519392e+01  -4.014164e+01
   1.778641e+02  -2.057984e+01
   1.467569e+02   6.836155e+01
   1.354028e+01   6.678243e+01
  -1.282435e+02   6.686080e+01
  -1.191606e+02   4.693982e+01
  -4.145490e+01  -3.715254e+01
   1.855050e+01  -7.955893e+01
   3.078950e+01   2.389039e+01
  -1.187077e+01   8.779412e+01
  -2.634901e+01   3.814405e+01
  -6.877839e+01  -2.802129e+00
  -8.807050e+01  -2.841662e+01
  -6.359750e+01  -4.301467e+01
  -5.521466e+01  -3.756115e+01
  -7.261308e+01   1.065640e+01
  -6.094045e+01  -3.718254e+01
   3.233066e+01  -1.875128e+02
   1.139422e+02  -1.595935e+02
   1.652683e+02  -1.472862e+01
   1.054428e+02   6.105221e+01
   7.146243e+01   1.749579e+02
  -1.014029e+02   8.931688e+01
  -3.828950e+01  -1.716744e+01
   8.424035e+01  -1.958488e+01
   9.722826e+01   5.031127e+01
   1.164145e+02   1.333805e+02
  -7.028345e+01   7.425420e+01
  -1.856956e+02   5.771401e+01
  -1.357713e+02  -2.195339e+01
   5.099949e+00  -8.606436e+01
   4.144195e+01  -5.206845e+01
   6.396293e+01  -3.677878e+01
  -2.363968e+01   2.899388e+01
  -7.178109e+01  -8.434173e+00
  -2.881629e+00  -1.213196e+02
   7.045016e+01  -1.032654e+02
   1.769600e+02  -4.282482e+01
   6.828539e+01   7.751515e+01
  -1.213881e+01   1.319103e+02
  -1.026051e+02   1.508849e+02
  -1.066539e+02  -3.911259e+00
   9.847820e+00  -9.201034e+01
  -2.794391e+01  -1.063383e+02
   2.091599e+01   1.169376e+01
   7.843227e+01   1.841199e+01
   5.327457e+01   6.032636e+01
  -1.656973e+01  -3.314177e+01
   8.222600e+00   4.235971e+01
   6.175753e+01   9.985983e+01
   8.886600e+01   1.738352e+02
   2.914362e+01   3.861925e+01
  -1.219355e+02  -1.013392e+01
  -1.158049e+02  -3.575803e+01
  -2.168202e+01  -6.016701e+01
   8.830540e+01  -3.480752e+01
   1.072386e+02   1.625406e+01
   1.658476e+00  -8.311864e+00
  -6.120676e+01   3.561354e+01
  -2.231336e+00   5.434567e+00
   4.918678e+00  -2.504985e+01
  -4.263850e+01  -7.284035e+00
  -3.210328e+01  -3.033176e+01
  -1.018432e+02   1.217903e+01
   3.834620e+00  -1.207434e+02
   1.148854e+02  -1.375207e+02
   1.374606e+02  -7.029394e+01
   1.644795e+02   2.103021e+01
   2.085888e+01   1.670810e+02
  -1.184616e+02   1.530032e+02
  -1.317389e+02   7.190231e+01
  -3.877327e+01  -1.879967e+01
  -2.492112e+01  -2.348361e+01
  -2.391294e+00   6.006531e+00
  -6.447226e+01  -2.430828e+00
  -4.845713e+01  -7.977201e+01
  -2.098685e+01  -1.038792e+02
   9.307518e+00  -3.248247e+01
   5.175251e+01   1.499073e+01
   1.229349e+02   1.341226e+02
   2.427841e+01   1.227776e+02
  -5.547041e+01   1.844965e+01
  -1.176463e+02  -7.543566e+01
  -8.590301e+01  -1.093461e+02
   4.530597e+01  -5.482911e+01
   8.062043e+01  -6.681990e+00
   9.686200e+00   6.736461e+01
  -7.219440e+01   6.505293e+01
  -1.695858e+01   5.456810e+01
   3.477072e+01  -1.250950e+01
   9.947774e+01   2.066443e+01
   3.741091e+01   1.980334e+01
  -8.120311e+01   9.380378e+01
  -1.314634e+02   9.589708e+01
  -4.411789e+01   2.317170e+01
   3.552043e+01  -8.403714e+01
   3.681441e+01  -5.369264e+01
   1.829782e+01   4.986207e+00
  -8.787580e+00   6.660483e+01
  -2.412473e+01   8.179710e+01
   4.192977e+01   7.011737e-01
  -6.937036e+00  -8.681214e+01
  -2.591895e+01  -2.715282e+01
   4.778935e+01   3.758193e+01
   5.536162e+01   7.908213e+01
  -6.479737e+00  -2.241450e+01
   1.767576e+01   2.351937e+01
  -1.351889e+01  -9.052444e+00
   1.919247e-01   4.552203e+01
  -1.684251e+01   6.212775e+01
  -1.189763e+01  -3.821121e+01
   3.478947e-01  -5.787974e+01
   2.936134e+01  -6.058077e+01
   1.910271e+01  -2.972547e+01
   9.227731e+01   4.624694e+01
   1.557099e+01   8.310535e+01
  -6.281319e+01   3.453824e+01
  -1.267835e+02  -7.869063e+01
  -6.169897e+01  -1.207681e+01
   6.734758e+01  -6.598492e+01
   3.539269e+01  -4.843088e+01
   8.396663e+00   7.570790e+00
  -4.189411e+01   5.393303e+00
  -3.297215e+01  -3.823558e+01
   7.140562e+01  -3.954209e+01
   1.006121e+02  -1.895591e+01
