
 $NMID
 id='ANONYMOUS ', fmtdat='(2E16.6)'
 volume=1.0
 tramp=1.0
 $END
   4.062478e+03  -1.508055e+01
   2.407100e+03   2.599779e+03
  -7.883293e+02   2.954857e+03
  -1.955634e+03   5.790339e+02
  -8.388136e+02  -8.280554e+02
   7.232665e+02  -6.077662e+02
   6.395070e+02   5.168032e+02
  -4.802688e+01   1.160771e+03
  -9.070660e+02   5.838026e+02
  -9.447756e+02  -1.429610e+02
  -4.617362e+02  -7.463575e+02
   3.994801e+02  -9.376558e+02
   6.486163e+02  -2.264646e+01
   3.843572e+02   7.099531e+02
  -3.683830e+02   7.411025e+02
  -5.849350e+02  -5.357625e+01
  -2.526822e+02  -7.260974e+02
   2.951499e+02  -5.187818e+02
   5.762636e+02  -5.622427e+01
   3.699374e+02   3.141190e+02
  -3.439989e+01   4.277088e+02
  -2.539369e+02   2.627145e+02
  -1.956428e+02  -4.477201e+01
   9.278819e+01  -1.022952e+02
   3.878588e+02   6.823701e+01
   1.322731e+02   4.358925e+02
  -5.242780e+02   4.285437e+02
  -9.520509e+02  -2.659117e+01
  -4.379315e+02  -6.432627e+02
   3.056843e+02  -3.660910e+02
   8.147703e+02   1.517928e+01
   2.769355e+02   4.767671e+02
  -2.944856e+02   4.527789e+02
  -6.238706e+02   1.326617e+02
  -4.345286e+02  -1.963292e+02
   9.087002e+00  -4.408467e+02
   1.623847e+02  -2.394564e+02
   1.447644e+02   3.029093e+02
  -2.284362e+02   4.789096e+02
  -5.111512e+02   6.322308e-01
  -2.323298e+02  -7.215902e+02
   3.015715e+02  -6.418667e+02
   5.950268e+02  -2.248779e+01
   3.475077e+02   5.870927e+02
  -3.137793e+02   2.312968e+02
  -3.164171e+02  -3.547883e+02
   2.147644e+02  -5.434872e+02
   5.324589e+02  -8.268913e+01
   5.065859e+02   5.163470e+02
   2.048685e+02   6.391594e+02
  -3.748145e+02   2.670430e+02
  -6.064326e+02  -5.319051e+01
  -4.086871e+02  -4.164901e+02
   1.897244e+02  -3.720045e+02
   4.329081e+02   1.582458e+01
   1.918939e+02   2.142196e+02
  -1.823570e+02   1.067407e+02
  -1.031639e+02  -1.983386e+02
   2.052080e+02  -1.632376e+02
   4.410462e+02   1.060532e+02
   1.595892e+02   2.867979e+02
  -1.841987e+02   2.865011e+02
  -3.294961e+02   9.264363e+01
  -1.680513e+02  -7.845839e+01
   5.101888e+01  -2.064512e+02
   1.997307e+02  -3.224441e+02
   3.780706e+02  -2.023676e+02
   2.878554e+02   1.669147e+02
   4.112041e+01   4.591258e+02
  -7.320906e+01   4.026197e+02
  -1.623672e+02   1.059724e+02
   3.006660e+01  -1.978394e+01
  -3.571835e+01   8.181913e+01
  -2.392395e+02   1.577788e+02
  -3.452799e+02  -4.462727e+01
  -1.464822e+02  -2.762642e+02
   6.935368e+01  -2.717424e+02
   2.646799e+02   3.160128e+01
   2.670124e+02   2.602887e+02
  -3.586254e+00   3.065471e+02
  -2.812571e+02   8.046668e+01
  -3.737797e+02  -2.042836e+02
  -2.104870e+02  -3.980656e+02
   1.544594e+02  -2.850371e+02
   2.367894e+02  -1.178068e+02
   1.372000e+02  -3.638727e+01
   9.329940e+01  -2.642768e+00
   2.187024e+02  -3.516692e+01
   4.456508e+02   7.504509e+01
   3.523192e+02   3.059184e+02
   4.541892e+01   4.630780e+02
  -3.316343e+02   4.706370e+02
  -5.908758e+02   2.304450e+02
  -3.145376e+02  -1.083796e+02
  -6.551392e+01  -2.664786e+02
   9.033090e+01  -2.874194e+02
   1.183422e+02  -2.100230e+01
  -1.236553e+02   7.962068e+01
  -1.905668e+02  -6.328770e+01
  -4.962268e+01  -2.474706e+02
   2.102851e+02  -1.592388e+02
   1.701350e+02   5.971142e+01
  -2.302659e+01   1.550139e+02
  -1.920745e+02   2.655343e+01
  -1.433730e+02  -2.793393e+02
   1.474188e+01  -3.600760e+02
   2.415735e+02  -1.767353e+02
   3.327565e+02   7.779838e+01
   3.385312e+02   2.702357e+02
   1.209552e+02   3.114456e+02
  -1.011535e+02   1.281941e+02
  -2.032522e+02   2.601351e+01
  -7.530957e+01  -3.864928e+01
   9.061072e+01   3.907323e+01
   3.709953e+01   1.423046e+02
  -1.289901e+02   1.075147e+02
  -2.034280e+02  -2.123811e+01
  -9.546561e+01  -6.302665e+01
   8.329144e+01  -3.245661e+01
   3.271825e+01   8.033373e+01
  -1.532626e+02   4.703370e+01
  -2.691270e+02   2.937039e+01
  -2.569853e+02  -1.815995e+02
  -6.262729e+01  -2.825313e+02
   2.109385e+02  -2.687159e+02
   3.041801e+02  -1.404633e+02
   1.645197e+02   6.021054e+01
  -3.053402e+01   1.040936e+02
  -9.777786e+01   4.278276e+01
   4.763357e+01  -1.021975e+02
   2.053022e+02  -1.708946e+01
   2.193970e+02   1.237656e+02
   1.900054e+01   2.180209e+02
  -7.682948e+01   1.549187e+02
  -1.841484e+02   8.271906e+00
  -6.209576e+01  -2.081609e+01
   5.030342e+01   2.540523e+01
   1.574420e+01   3.331002e+01
  -6.535028e+01   1.161069e+02
  -1.830128e+02   1.625861e+01
  -2.064601e+02  -1.243700e+02
  -5.664457e+01  -2.331827e+02
   1.678194e+02  -1.209650e+02
   1.985953e+02   5.973796e+00
   6.487382e+01   1.685780e+02
  -7.216321e+00   1.244396e+02
  -6.327806e+01   6.160062e+01
  -4.534831e+01  -3.235943e+01
   3.539213e+01  -3.133559e+01
  -1.658769e+01  -4.526755e+00
  -9.768814e+01   4.193849e+01
  -9.302739e+01  -4.938123e+01
  -4.480443e+01  -1.373179e+02
   1.571195e+02  -1.567406e+02
   1.931134e+02   1.545194e+01
   1.744860e+02   2.007072e+02
   2.021255e+01   2.360821e+02
  -7.194931e+01   1.377445e+02
  -1.625921e+02   5.641030e+01
  -1.220144e+02  -6.860645e+01
   6.166934e+00  -4.205053e+01
  -4.576741e+01  -9.599860e+00
  -1.094139e+02  -5.723737e+00
  -5.351923e+01  -5.150353e+01
   4.322771e+01  -8.406576e+01
   8.320216e+01  -6.438673e+01
   6.824030e+01   3.044426e+01
  -3.211317e+01   1.518573e+02
  -1.899516e+02   1.323419e+02
  -1.716264e+02  -1.118851e+01
  -1.115020e+02  -1.619296e+02
   1.396247e+02  -2.330898e+02
   2.859068e+02  -1.336373e+02
   2.439605e+02   1.390598e+02
   9.133756e+01   1.831871e+02
   5.443384e+00   1.572220e+02
  -9.283347e+01   9.006933e+01
  -9.702262e+01   1.038898e+02
  -6.105343e+01   8.978820e+01
  -9.039640e+01   7.161972e+01
  -1.551853e+02  -7.179421e+01
  -8.422205e+01  -1.397661e+02
  -2.946171e+01  -2.332866e+02
   1.215324e+02  -1.737003e+02
   1.819839e+02   1.487323e+01
   1.315716e+02   1.392344e+02
  -5.923272e+01   1.662569e+02
  -7.310609e+01   7.840369e+01
  -8.627040e+01   2.894460e+00
  -1.433147e+01  -1.652863e+01
   1.366322e+01  -6.796974e+01
  -5.105685e+01  -3.180381e+01
  -8.181795e+01  -2.741796e+01
  -4.168723e+01  -3.424919e+01
   5.244629e+01  -7.016261e+01
   1.481277e+02   2.356481e+00
   1.395249e+02   4.650969e+01
   4.160698e+00   5.541189e+01
  -8.386904e+01   1.138931e+02
  -1.575143e+02   5.632326e+01
  -2.407411e+01  -2.907029e+01
   3.990390e+01   2.585993e+01
   9.187649e+01  -6.766734e+00
   2.178327e+01   5.048840e+01
  -8.142731e+00   3.806085e+01
  -6.596351e+01   8.223934e+00
  -1.520439e+01  -5.371496e+01
  -1.237014e+01  -4.053614e+01
  -6.994031e+01  -3.273805e+01
  -9.508463e+01   1.853533e+01
  -1.225223e+01  -1.032404e+02
   2.467943e+01  -1.439076e+02
   5.935131e+01  -8.360412e+01
   1.461580e+02  -4.843781e+01
   1.312364e+02   1.006804e+02
  -1.481909e+01   1.206091e+02
  -1.065399e+02   5.566144e+01
  -3.886562e+01  -3.465712e+00
   2.769236e+01  -4.450255e+00
   1.321442e+02   1.042486e+01
   4.306022e+01   1.379957e+02
  -5.717081e+01   1.136133e+02
  -2.373831e+02   1.253415e+02
  -1.927161e+02  -2.140892e+01
  -2.517644e+01  -9.142798e+01
   6.527708e+01  -7.651230e+01
   5.318532e+01  -5.361169e+01
  -1.075103e+01   4.124527e+01
  -1.234122e+02  -5.723303e+01
  -1.648048e+01  -1.175436e+02
   1.270018e+02  -8.560682e+01
   1.798464e+02  -3.712606e+01
   9.772625e+01   6.048372e+01
  -1.898646e+01   1.517169e+02
  -1.245653e+02   1.511558e+02
  -9.475794e+01  -1.956374e+01
  -5.578056e+01  -1.602554e+02
  -5.712297e+00  -1.060011e+02
  -2.064280e+00   4.297775e+01
   7.373861e+01  -1.896812e+00
   4.434159e+01   2.267828e+01
  -2.768601e+01  -2.650132e+00
   2.262497e+01   2.355866e+01
   7.941464e+01   9.274812e+01
   4.360414e+01   1.044223e+02
  -6.808612e+01   4.538341e+01
  -1.863720e+02  -1.952493e+01
  -1.067116e+02  -1.024468e+02
  -2.580997e+01  -3.409588e+01
   7.250809e+01   4.967295e+00
   1.121817e+02  -1.035680e+01
   2.383314e+01   3.405571e+01
  -2.985738e+01   7.308958e+00
  -4.656557e+01   2.029178e+01
   4.490061e+01   1.434842e+01
   3.393733e+01   3.182444e+01
  -7.844747e+01  -3.773313e+00
  -6.157330e+01  -1.975726e+01
  -3.302813e+01  -8.282808e+01
   1.540632e+02  -1.136670e+02
   1.664938e+02  -1.368205e+00
   1.253364e+02   5.161017e+01
  -2.471837e+00   1.139236e+02
  -9.633163e+01   1.440349e+02
  -1.598980e+02   1.063679e+02
  -8.252528e+01  -3.003827e+01
  -4.706620e+00  -1.409984e+01
  -2.874240e+01   6.778349e+00
  -1.649022e+00   4.178095e+01
  -7.824429e+01  -3.527404e+01
  -3.513824e+01  -1.093401e+02
   1.807673e+01  -3.513834e+01
   4.539945e+01   4.500385e+01
   6.821745e+01   1.414651e+02
   1.072078e+01   8.666337e+01
  -8.252673e+01   3.723770e+01
  -7.687007e+01  -2.897667e+01
  -3.395577e+01  -1.165562e+02
   2.947972e+01  -2.981127e+01
   1.150422e+02  -2.284208e+01
   4.855815e+00   4.288120e+01
   1.009334e+01   5.577231e+01
  -3.715718e+01   2.679305e+01
   5.755924e+01   2.238560e+01
   7.280640e+01  -3.486373e+01
   2.855992e+01   8.645425e+01
  -9.316549e+01   5.231438e+01
  -8.964799e+01   5.449772e+01
  -7.391510e+01  -6.005652e+01
   3.888604e+01  -1.093741e+02
   4.038021e+01  -5.929176e+01
   4.143517e+01   5.508421e+00
  -1.293370e+01   1.446306e+01
   2.799198e+01   3.354723e+01
  -3.457064e+01  -6.799245e+01
  -4.610003e+01  -4.989969e+01
   2.687247e+00  -6.404996e+01
   4.760639e+01  -6.734181e+00
   4.170384e+01   7.637665e+01
  -4.116951e+00  -1.485400e+01
  -1.360686e+01  -4.319386e+01
  -8.431235e+01   7.966841e+00
  -1.614844e+01  -1.048712e+01
  -2.340133e+01   3.922656e+01
  -4.286737e+01  -7.939110e+00
  -3.726741e+01   1.313863e+00
  -3.742896e+00  -2.101094e+01
   5.405190e+01   1.301119e+01
   7.245674e+01   3.249377e+00
   3.947509e+01   4.773883e+01
  -5.168494e+01   6.184298e+00
  -1.177539e+02  -3.703660e+00
  -3.539109e+01  -4.738186e+01
   3.372942e+01  -4.296289e+01
   8.636932e+01  -4.110856e+01
   4.975170e+01  -3.615274e+01
  -1.799585e+01   3.695721e+00
  -3.136588e+01  -3.203717e+01
   2.558258e+00  -8.795796e+00
   9.586780e+01   2.556095e+01
