
 $NMID
 id='ANONYMOUS ', fmtdat='(2E16.6)'
 volume=1.0
 tramp=1.0
 $END
  -2.182529e+03  -8.292837e+02
  -1.155077e+03  -1.455890e+03
  -6.310090e+01  -1.495253e+03
   8.826492e+02  -8.683476e+02
   6.644131e+02  -7.067836e+01
  -1.399164e+02   1.787761e+02
  -1.081898e+02  -1.052305e+01
  -1.092448e+02  -2.924969e+02
   2.935973e+02  -3.132264e+02
   4.617119e+02  -4.460334e+00
   4.320165e+02   5.216397e+02
  -4.386413e+01   5.481634e+02
  -1.074628e+02   1.319528e+02
  -1.073345e+02  -3.564454e+02
   1.616395e+02  -2.878397e+02
   2.637442e+02  -4.069549e+01
   2.825139e+02   4.151714e+02
  -1.433222e+02   4.795320e+02
  -3.815106e+02   1.601646e+02
  -2.872869e+02  -1.829273e+02
  -5.539488e+01  -3.071047e+02
   1.332782e+02  -1.743249e+02
   1.052710e+02  -9.955156e+01
  -1.700127e+02  -1.398137e+02
  -1.880505e+02  -2.357267e+02
   8.772567e+01  -2.511185e+02
   3.789145e+02  -1.023182e+02
   5.307597e+02   1.665185e+02
   1.737959e+02   3.526470e+02
  -2.327057e+02   8.467746e+01
  -4.140384e+02  -2.155737e+02
  -9.748355e+01  -2.437818e+02
   3.144195e+02  -2.185597e+02
   3.552953e+02  -6.021388e+01
   2.709111e+02   1.142334e+02
   4.839520e+01   2.167608e+02
   2.445912e+01   2.081131e+01
   2.218425e+01  -7.486880e+01
   1.078448e+02  -1.147035e+02
   1.377940e+02   1.849969e+02
  -1.319811e+02   2.790529e+02
  -2.742848e+02   3.246446e+02
  -3.345406e+02   1.515657e+01
  -5.489750e+01  -2.816301e+02
   1.478888e+02  -1.816417e+02
   1.449903e+01   2.040383e+02
  -1.493323e+02   2.326096e+02
  -3.986958e+02   1.033499e+02
  -2.632220e+02  -3.151940e+02
  -8.941505e+01  -4.303679e+02
   3.153793e+02  -1.158950e+02
   3.816130e+02   5.473937e+01
   2.541698e+02   2.259459e+02
  -1.078107e+02   1.439772e+02
  -2.335098e+02   9.363361e+01
  -6.293117e+01  -2.332393e+01
  -4.612206e+01  -1.590214e+01
   6.686088e+01   3.659121e+01
  -8.908880e+01   1.639097e+01
  -1.689593e+02  -6.150302e+01
  -1.845442e+01  -1.846019e+02
   1.240783e+02  -1.709683e+02
   2.580909e+02  -8.486971e+01
   1.985582e+02   8.106414e+01
  -5.928557e+01   2.284744e+02
  -2.651580e+02   2.680418e+02
  -2.757904e+02   9.744942e+01
  -2.079763e+02  -1.983453e+02
   1.590322e+01  -2.837272e+02
   5.701326e+01  -2.323277e+02
   5.658899e+01  -1.591047e+02
  -1.400548e+00  -4.089540e+01
   1.029182e+02  -7.580707e+01
   1.862707e+02  -3.035536e+01
   1.928343e+02   1.001605e+02
   2.489635e+01   2.038209e+02
  -9.176043e+01   1.639102e+02
  -1.974893e+02  -8.393556e+01
  -9.120148e+01  -1.636258e+02
   7.922538e+01  -1.465988e+02
   2.622932e+02  -9.651141e+00
   2.711540e+02   1.219783e+02
   1.078260e+02   2.222347e+02
  -1.180195e+02   1.975139e+02
  -1.017016e+02   1.036178e+02
  -1.576293e+02   5.334332e+01
  -1.206830e+02   3.017307e+01
  -1.985688e+02   1.187231e+01
  -2.389405e+02  -9.735883e+01
  -2.018049e+02  -2.371485e+02
   5.051848e+01  -3.856202e+02
   3.703993e+02  -3.061979e+02
   4.367527e+02  -1.270210e+02
   1.712401e+02   7.068857e+01
  -1.494157e+01   2.034048e+02
  -8.731999e+01   1.785522e+02
  -1.111828e+01  -1.032736e+00
   8.052286e+01  -7.822815e+01
   1.030582e+02   8.476339e+01
  -7.846226e+01   8.434268e+01
  -8.959617e+01   6.538108e+01
  -4.938713e+01  -3.607027e+01
   4.972139e+01  -1.549204e+02
   1.415944e+02   4.706442e+01
   1.263706e+02   2.279192e+02
  -8.447787e+01   2.567972e+02
  -1.582546e+02   1.419419e+02
  -2.280322e+02  -8.109914e+01
  -1.809138e+02  -2.060598e+02
   2.743095e+01  -2.420349e+02
   9.582655e+01  -9.673122e+01
   1.232025e+02   2.601948e+01
  -2.195710e+01   1.586650e+01
  -4.169008e+01  -3.795562e+01
   3.552467e+01  -1.123269e+02
   9.694668e+01  -5.665018e+01
   1.210447e+02   3.179373e+01
   4.159005e+01   4.694200e+00
  -6.906722e+01  -1.202552e+01
  -3.644723e+01  -1.239065e+02
   1.298455e+02  -6.389801e+01
   2.429873e+02   3.798303e+01
   1.639702e+02   1.671517e+02
  -2.713182e+01   2.187431e+02
  -1.679969e+02   1.219839e+02
  -2.503794e+02   6.312292e+01
  -1.052780e+02  -8.031367e+01
   6.939670e+01  -2.221999e+01
   3.769714e+01   1.793846e+01
  -4.737717e+01   6.641369e+01
  -1.047234e+02   4.391453e+01
  -1.140610e+02  -1.055453e+02
   6.822737e+01  -1.509312e+02
   6.921745e+01  -1.294110e+02
   1.218222e+02   3.395549e+01
   5.371065e+00   6.323429e+00
  -5.514555e+01  -3.503760e+01
   3.827624e+00  -9.229340e+01
   8.579401e+01  -1.297775e+02
   2.034574e+02   4.031204e+01
   1.778356e+02   1.344525e+02
   2.805241e+01   1.339217e+02
  -9.581093e+01   7.581631e+01
  -9.669850e+01   1.313096e+01
  -4.423405e+01  -1.117346e+02
   4.626841e+01  -5.186564e+01
   3.071734e+01  -4.474598e+01
  -1.993435e+01  -6.443514e-01
  -5.586789e+01   1.383742e+01
  -2.546692e+01  -7.277454e+00
   3.364603e+01  -9.513904e+00
   6.086964e+01   6.131269e+01
   7.533787e+00   1.189512e+02
  -1.554751e+02   8.713195e+01
  -1.444740e+02  -1.722027e+01
  -7.627131e+01  -1.527758e+02
   1.918869e+01  -1.823187e+02
   1.058909e+02  -9.102539e+01
   9.876516e+01  -7.621110e+00
   2.632141e+01   1.470172e+01
   4.107628e+01  -3.598220e+00
   4.933986e+01   1.250715e+01
   7.900227e+01  -1.514316e+01
   4.438755e+01   7.565402e+01
  -3.446274e+01   9.647907e+01
  -1.186021e+02   8.243582e+01
  -9.027461e+01   9.743426e+00
   2.313743e+01  -1.085492e+02
   1.523273e+02  -1.188734e+01
   1.347158e+02   1.134609e+01
   3.219640e+01   2.164888e+02
  -1.425072e+02   1.100997e+02
  -2.082719e+02   5.338108e+01
  -1.260909e+02  -1.160584e+02
  -5.793946e+01  -7.729813e+01
   8.481631e+01  -1.480799e+02
   6.557781e+01  -9.217338e+01
   8.771741e+01  -5.905452e+01
   3.164047e+01  -1.076750e+02
   9.516414e+01  -2.757007e+01
   1.124766e+02   4.928336e+01
   6.987898e+01   1.361147e+02
   1.270234e+01   2.128127e+02
  -9.993274e+01   1.337131e+02
  -1.285133e+02  -2.124487e+01
  -1.229865e+02  -1.127519e+02
   2.425301e+01  -4.950875e+01
   6.119798e+01  -3.497511e+01
   4.083081e+01  -3.795017e+01
  -4.144495e+01   5.845579e+01
  -4.424984e+01   1.494875e+01
   4.154511e+00  -3.766998e+01
   2.688583e+01   2.379151e+01
   2.552937e+01   6.335526e+01
  -6.985816e+01   5.175653e+01
  -1.382100e+02  -1.339676e+01
  -9.097973e+01  -3.779793e+01
   1.889947e+01  -1.255651e+02
   1.076496e+02  -7.873157e+01
   8.687950e+01   1.139324e+01
   8.709676e+00   3.775187e+01
  -1.934486e+01   8.114407e+00
  -7.726232e+01  -2.686103e+01
  -3.033233e+01  -8.759404e+01
   2.929210e+01  -1.338079e+01
   5.971417e+01  -1.107487e+01
   5.245655e+01   4.668015e+01
   5.282643e+01   4.927232e+01
   4.987609e+01   4.902962e+01
   1.141360e+01  -1.444869e+01
   7.812405e+01   4.295662e+01
  -4.628712e+01   1.272915e+02
  -8.716684e+01   3.614658e+01
  -1.661176e+02   6.334622e+01
  -9.261297e+01  -9.534899e+01
   1.026366e+01  -7.725824e+01
   1.011151e+02  -8.706939e+01
   1.896599e+01  -9.471465e+00
  -5.032548e+01   8.867176e+00
  -5.631877e+01  -6.064276e+01
  -3.957998e+01  -1.130979e+02
   8.779095e+01  -4.289227e+01
   1.591529e+02  -7.869561e+01
   1.255537e+02  -6.597204e+00
   3.763556e+01   4.587161e+01
  -5.281367e+01   2.901241e+01
  -5.388045e+01  -4.880980e+00
  -6.695404e+00  -3.276107e+01
   6.120042e+01  -1.703662e+01
   2.062692e+01   5.269192e+01
  -5.517222e+01   9.868896e+01
  -1.206640e+02   1.972737e+01
  -4.658924e+01  -7.212611e+01
  -1.007081e+01  -1.707997e+02
   7.024773e+01  -1.205995e+02
   9.648906e+01  -4.089104e+01
   5.854943e+01   6.953901e+01
   2.439583e+01   8.917828e+01
  -5.717514e+01  -4.042056e+00
  -8.651044e+01  -1.797379e+01
  -7.653782e+01  -2.976695e+01
  -1.052872e+01   1.315031e+01
  -2.921216e+01  -5.632505e+01
  -5.309970e+01  -4.277512e+01
   1.067369e+01  -7.030041e+01
   5.298773e+01  -4.724967e+01
   1.099634e+02   1.632294e+01
   1.070057e+02   1.021002e+02
  -3.007339e+01   4.864511e+01
  -8.119747e+01   8.398162e-01
  -3.661385e+01   1.545020e+01
  -1.753164e+01   3.813662e+01
   7.523353e+01  -2.073982e+01
   1.293716e+01  -3.386583e+01
  -1.159780e+01  -4.858862e+01
  -1.314564e+01  -3.143143e+01
   4.209412e+01   2.611836e+00
   4.840765e+01   3.077992e+01
   7.936838e+00   8.126248e+01
  -5.228810e+01   9.857040e+01
  -1.837696e+02   3.191899e+01
  -1.303814e+02  -4.030233e+01
  -8.125848e+00  -1.001806e+02
   5.383298e+01  -1.058574e+02
   4.831038e+01  -6.896481e+01
   5.537088e+01   2.711643e+01
   1.895794e+01   8.152245e+00
  -3.040302e+01   3.664328e+00
  -1.181478e+01   4.390342e+01
   3.989044e+01   1.552754e+01
  -3.944159e+00   7.670722e+01
  -6.399388e+01   1.515764e+01
  -4.501104e+01  -3.541263e+01
  -8.392540e+01  -1.441388e+02
   9.892012e+00  -8.550784e+01
   8.491774e+01   1.500830e+01
   7.350148e+01   5.596860e+01
   2.509754e+01   1.224333e+02
   1.400396e-01   4.388948e+01
  -1.108799e+02  -5.972882e+01
  -4.574372e+01  -4.068369e+01
   3.557178e+01  -4.003746e+01
   4.647022e+01  -2.347903e+01
   2.777372e+01   5.898397e+01
  -5.755330e+01   1.670371e+01
  -1.303979e+00  -3.243006e+01
   4.576532e+01  -4.180864e+01
   1.496808e+02  -9.169649e+00
   2.879910e+01   1.993291e+01
  -2.239189e+00   3.253556e+01
  -1.829669e+01   7.359467e+01
  -3.496911e+01  -1.545130e+01
   1.357031e+01  -6.064522e+01
   1.834353e+01   4.943484e+00
  -1.683604e+01  -1.634943e+01
   3.682254e+01   7.377023e+01
  -1.140994e+01   3.867492e+01
  -2.186242e+01   2.407375e+00
  -5.569501e+01  -6.777842e+01
  -1.155696e+01   1.409477e+01
   1.808543e+01   2.319876e+00
   2.571719e+00   2.664039e+01
  -3.132401e+01  -1.774480e+01
   2.347805e+00  -5.434444e+01
  -1.579352e+00  -2.452841e+01
   2.619105e+01   3.643317e+01
   2.706087e+01   3.389774e+01
  -3.417936e+01  -2.486226e+01
  -2.119505e+01  -4.721081e+01
   3.901295e+00  -2.539685e+01
   1.115948e+01  -5.060966e+01
   7.014869e+01   2.072430e+01
   5.316585e+01   4.825740e+01
  -1.413572e+01   1.038578e+02
  -2.959680e+01   1.372086e+01
  -1.450847e+01   2.807541e+00
   1.411274e+01   4.055127e+01
   4.396472e+00   1.669158e+00
   6.868848e+00  -3.289980e+01
  -7.339901e+01   3.821536e+01
