
 $NMID
 id='ANONYMOUS ', fmtdat='(2E16.6)'
 volume=1.0
 tramp=1.0
 $END
  -2.665622e+03  -1.022683e+02
  -1.950338e+03  -1.546526e+03
  -7.228347e+01  -2.195412e+03
   8.254105e+02  -1.093464e+03
   7.367336e+02  -1.446974e+02
  -2.527458e+01   3.555183e+02
  -1.658779e+02  -1.984520e+02
   8.758894e+01  -5.552676e+02
   3.541006e+02  -4.937587e+02
   5.925299e+02  -3.916655e+01
   5.100157e+02   5.253733e+02
   6.898540e+01   6.802282e+02
  -2.454290e+02   1.828030e+02
   3.215777e+00  -4.420871e+02
   3.834053e+01  -5.040898e+02
   4.102337e+02  -1.061054e+02
   2.104321e+02   4.715943e+02
  -1.867587e+02   6.552203e+02
  -4.626722e+02   2.909042e+02
  -3.854452e+02  -1.123288e+02
  -1.196000e+02  -3.826312e+02
   1.048242e+02  -2.178459e+02
   1.530318e+01  -3.248719e+01
  -1.675580e+02  -1.032548e+02
  -2.128619e+02  -2.905725e+02
   3.766023e+01  -4.161983e+02
   5.464614e+02  -2.090876e+02
   6.422217e+02   1.553468e+02
   1.442605e+02   5.128732e+02
  -2.331747e+02   2.479097e+02
  -4.786263e+02  -7.414189e+01
  -1.907966e+02  -3.367490e+02
   2.964844e+02  -2.723952e+02
   3.929130e+02  -7.062477e+01
   3.097189e+02   1.425859e+02
   7.905825e+01   3.278577e+02
  -6.337263e+01   1.077640e+02
   5.804071e+01  -1.355946e+02
   2.146010e+02  -1.939240e+02
   1.461879e+02   1.023900e+02
  -1.754071e+01   4.056774e+02
  -1.315810e+02   4.443993e+02
  -3.095962e+02  -7.027530e+01
  -1.530227e+02  -2.276394e+02
   1.564884e+02  -1.421647e+02
   9.802331e+01   2.952474e+02
  -1.660097e+02   3.553060e+02
  -4.953594e+02   1.116551e+02
  -4.586999e+02  -3.268159e+02
  -1.172487e+02  -4.747333e+02
   3.219067e+02  -1.910701e+02
   5.383103e+02   3.766940e+01
   3.816322e+02   2.575932e+02
  -1.485789e+01   1.639847e+02
  -2.324268e+02   6.910134e+01
  -1.350695e+02   1.308167e+01
   1.123763e+01   2.241710e+01
   8.676728e+01   5.592581e+01
  -7.073585e+01   9.227079e+01
  -2.485838e+02  -5.477303e+01
  -1.290379e+02  -2.073422e+02
   1.383152e+02  -2.236687e+02
   3.531996e+02  -1.842696e+02
   2.556877e+02   1.141409e+02
  -8.730275e+00   3.648827e+02
  -2.956250e+02   3.396093e+02
  -3.609332e+02   2.010815e+02
  -2.115095e+02  -1.583333e+02
  -3.367038e+01  -3.465018e+02
   6.519693e+01  -3.163601e+02
   1.693624e+01  -1.816594e+02
   2.127927e+00  -1.000052e+02
   1.417810e+02  -8.617600e+01
   2.615820e+02  -3.846363e+01
   2.233403e+02   1.867771e+02
   1.142970e+02   2.410681e+02
  -1.039764e+02   1.537338e+02
  -1.554449e+02  -2.770335e+01
  -1.517263e+02  -2.289397e+02
   8.709375e+01  -2.101986e+02
   2.290510e+02  -1.037142e+02
   2.875442e+02   1.899028e+02
   1.805259e+02   3.393513e+02
  -4.937986e+01   1.950666e+02
  -1.477125e+02   1.120544e+02
  -1.755911e+02   3.583154e+01
  -1.112656e+02   8.191587e+01
  -2.458766e+02   1.554985e+01
  -4.192427e+02  -8.199845e+01
  -3.319232e+02  -3.086282e+02
   3.207886e+01  -4.309662e+02
   4.709725e+02  -3.613436e+02
   4.748478e+02  -1.858152e+02
   2.874669e+02   8.398658e+01
   7.072123e+01   2.362949e+02
  -1.643229e+02   1.804010e+02
  -2.362294e+01   2.170997e+01
   1.690915e+02  -3.090216e+01
   1.560718e+02   1.006005e+02
   1.875817e+01   1.247030e+02
  -1.198513e+02   1.127486e+02
  -1.152048e+02  -3.206799e+01
   3.447509e+01  -1.174626e+02
   1.777837e+02  -1.869537e+01
   1.644079e+02   2.592278e+02
   1.204455e+01   3.250259e+02
  -2.535552e+02   1.898272e+02
  -3.396745e+02  -5.239574e+00
  -2.774689e+02  -2.268306e+02
  -5.885719e+01  -2.604389e+02
   1.607171e+02  -1.704832e+02
   1.370848e+02  -1.977751e+01
   6.932036e+01   1.951814e+01
  -8.439138e+00  -6.563422e+01
   3.195798e+01  -1.285243e+02
   9.021043e+01  -5.677784e+01
   2.223231e+02   1.014966e+02
  -1.143116e+01   2.056640e+01
  -8.091996e+01  -2.075002e+01
  -4.611948e+01  -9.462195e+01
   1.406327e+02  -7.484149e+01
   3.015776e+02  -2.848595e+00
   2.286645e+02   1.207796e+02
   2.180400e+00   2.087061e+02
  -2.538107e+02   1.989021e+02
  -2.894817e+02   1.946757e+01
  -1.580882e+02  -4.405705e+01
   5.650107e+01  -4.533589e+01
   2.875488e+01  -9.697967e+00
  -5.767481e+01   9.600799e+01
  -2.008104e+02   4.252564e+01
  -1.647982e+02  -1.246522e+02
  -3.303341e+01  -1.848464e+02
   1.010367e+02  -1.574571e+02
   8.981803e+01  -1.636662e+01
   7.144674e+01   4.346482e+00
  -4.783801e+01  -1.154766e+01
  -1.767991e+01  -6.927864e+01
   8.858211e+01  -1.029412e+02
   2.559987e+02  -2.001944e+01
   2.147332e+02   1.404980e+02
  -1.470851e+01   2.055102e+02
  -1.891041e+02   1.151129e+02
  -1.637736e+02   2.163863e+01
  -4.626807e+01  -1.030093e+02
   9.464193e+01  -1.253931e+02
   6.004861e+01  -3.732875e+01
   1.517107e+01   1.592842e+01
  -2.756656e+01   1.041240e+01
   9.921196e+00  -2.516060e+01
   4.036575e+01   3.453442e+01
   1.364121e+02   8.079789e+01
   1.344946e+01   2.118309e+02
  -1.320437e+02   1.397035e+02
  -2.112396e+02   7.990202e+00
  -1.952220e+02  -1.442505e+02
  -5.093265e+01  -2.046056e+02
   1.175145e+02  -1.430963e+02
   1.117273e+02   1.387610e+01
   4.679160e+01   6.301650e+01
   1.669567e+01   2.147014e+01
   1.190927e+01  -6.862812e+01
   1.226953e+02  -2.406790e+01
   2.659021e+01   6.669534e+01
  -5.281367e+01   1.005122e+02
  -8.796826e+01   8.719244e+01
  -1.012522e+02  -1.023365e+02
   1.580645e+01  -1.547418e+02
   1.183818e+02  -7.631310e+01
   2.206308e+02   5.948747e+01
   6.984095e+01   1.971195e+02
  -1.050524e+02   2.118331e+02
  -2.644663e+02   7.630580e+01
  -2.485375e+02  -1.403856e+02
  -7.606927e+01  -2.024202e+02
   4.294372e+01  -1.409802e+02
   1.179630e+02  -1.139651e+02
   5.266069e+01  -7.566653e+01
   1.037603e+02  -1.129306e+02
   5.322472e+01  -6.700378e+01
   1.433803e+02   1.355966e+01
   1.136050e+02   1.500597e+02
  -2.259760e+01   2.448551e+02
  -6.358868e+01   2.100895e+02
  -1.180009e+02   1.339739e+01
  -9.441107e+01  -1.742963e+02
  -8.956671e+00  -1.181839e+02
   5.529731e+01  -2.125673e+01
   8.698083e+01   1.265758e+01
   1.597107e+01   2.245232e+01
  -4.561961e+01   1.358623e+01
   4.872870e+01   2.746602e+00
   6.530380e+01   5.171352e+01
  -3.084688e+00   6.654407e+01
  -9.860862e+01   7.362950e+01
  -1.926221e+02   2.412755e+01
  -1.116132e+02  -5.194016e+01
   1.873210e+01  -8.677800e+01
   1.166585e+02  -8.779345e+01
   1.005146e+02   8.253742e+00
   3.091022e+01   6.145787e+01
  -2.234806e+01   4.000020e+01
  -1.809665e+01  -1.141756e+01
  -2.048403e+01  -8.486808e+01
   4.876590e+01  -4.788531e+01
   5.234476e+01   3.340134e+01
   3.102804e+01   7.238994e+01
   3.393333e+01  -1.160512e+01
   3.824956e+01   1.383608e+01
   6.458634e+01  -3.554939e+00
   2.381758e+01   7.211585e+01
  -4.802070e+00   1.405320e+02
  -9.555751e+01   1.452127e+02
  -1.742206e+02   7.955809e+00
  -1.828700e+02  -1.007915e+02
   2.037494e+01  -1.016556e+02
   8.965537e+01  -7.685373e+01
   5.674438e+01   2.239638e+01
  -5.331697e+01  -3.123150e+00
  -1.204251e+02  -6.467951e+01
  -1.518904e+01  -1.098160e+02
   1.393964e+02  -1.047130e+02
   1.795003e+02  -4.272374e+01
   1.516968e+02   4.301128e+01
   1.180536e+01   7.591466e+01
  -9.375138e+01   1.938973e+01
  -5.401774e+01  -1.099844e+01
   5.698181e+01  -3.885071e+01
   7.881859e+01   1.359170e+01
   2.671084e+01   1.733147e+02
  -4.044658e+01   1.351687e+02
  -1.332109e+02   3.621394e+01
  -1.406632e+02  -7.343549e+01
  -1.929701e+01  -1.780704e+02
   7.768535e+01  -1.142842e+02
   1.416127e+02   4.882272e+01
   1.828162e+01   1.343093e+02
  -1.006820e+02   8.396105e+01
  -2.464166e+01   2.149603e+01
  -2.866996e+01  -6.463863e+01
  -4.767541e+01  -3.438000e+01
  -2.499596e+01   9.704290e+00
  -3.699220e+01   2.613285e+00
  -5.698622e+01  -6.732664e+01
  -1.165823e+01  -1.013386e+02
   5.212203e+01  -3.111289e+01
   1.373674e+02   9.429287e+00
   6.875874e+01   9.486573e+01
   2.243320e+01   6.617653e+01
  -2.549551e+01  -2.324520e+00
  -7.802645e+01   2.028728e+01
   2.466153e+01  -5.611350e+00
   1.282475e+01  -4.327828e+01
   3.522366e+01   3.598820e+00
  -3.282157e+01   2.392525e+01
   2.737514e+00  -2.543633e+01
   4.206944e+01  -3.155349e+01
   6.586217e+01  -8.312783e+00
   4.086712e+01   4.396297e+01
  -1.008993e+02   7.299818e+01
  -1.517498e+02   6.032425e+01
  -1.302064e+02  -6.999261e+01
  -5.064887e+01  -1.948409e+02
   6.602981e+01  -1.263564e+02
   1.442117e+02  -1.565285e+01
   9.822381e+01   2.352481e+01
   5.436017e+01   2.378953e+01
   8.687916e+00   3.347811e+01
   2.478608e+01  -1.015203e+00
   5.358149e+01   5.533267e+01
   1.549549e+01   8.903779e+01
  -1.758053e+01   5.095354e+01
  -1.084337e+02  -2.521227e+01
  -7.005472e+01  -5.177405e+01
  -6.111258e+01  -1.200221e+02
   3.291832e+01  -5.781039e+00
   1.076333e+02   3.498182e+01
   1.869295e+01   1.412325e+02
  -5.343128e+01   4.671745e+01
  -7.183806e+01  -4.508458e+01
  -3.461719e+01  -7.701773e+01
   4.547129e+01  -9.025338e+01
   7.507450e+01  -4.432183e+00
  -3.550524e+01   5.119520e+00
  -7.894492e+01  -1.170128e+01
  -3.057858e+01  -3.046698e+01
   1.139743e+02  -5.689215e+01
   1.518252e+02  -5.220763e+01
   3.690776e+01   4.917419e-01
  -3.579707e+00   1.332938e+02
  -2.770631e+01   7.307883e+01
  -6.141036e+01   2.183724e+01
  -2.970235e+01  -1.780402e+01
   4.937359e+01  -8.254648e+01
   4.338920e+01  -2.298870e+00
  -3.489873e+01   3.199250e+01
  -2.042029e-01   4.862188e+01
  -2.144052e+01  -9.463843e+00
   1.719323e+00  -2.838895e+01
  -1.731446e+01  -2.229669e+01
   1.967923e+01   4.196176e+01
   9.297730e+00   2.796274e+01
  -1.348086e+00  -1.839991e+01
   3.345711e+01  -6.812303e+01
   4.813324e+01  -2.920975e+01
   6.078354e+01   5.417857e+01
   1.682942e+01   4.728896e+01
  -6.397466e+01  -9.157828e+00
  -3.648485e+01  -3.208123e+01
  -4.585073e+01  -7.791189e+01
   6.676973e+01  -1.964121e+01
   1.085914e+02   1.709671e+00
   7.576756e+01   5.483421e+01
  -3.005119e+01   8.239318e+01
  -9.758224e+01   4.200923e+01
  -3.812181e+01   9.786226e+00
   1.465305e+01  -3.848886e+00
  -5.784524e+00   2.154477e+01
  -6.456058e+01   1.070040e+01
  -7.668762e+01   1.507601e+01
