
 $NMID
 id='ANONYMOUS ', fmtdat='(2E16.6)'
 volume=1.0
 tramp=1.0
 $END
   2.791708e+03   2.106109e+02
   1.975534e+03   1.316948e+03
  -1.627361e+02   2.310632e+03
  -1.283360e+03   8.676203e+02
  -1.059180e+03  -1.173562e+02
   3.217733e+02  -2.584332e+02
   3.580972e+02   1.551402e+02
   4.405123e+01   6.779629e+02
  -5.059030e+02   5.525848e+02
  -6.702493e+02   2.238075e+01
  -3.828311e+02  -7.142831e+02
   7.526487e+01  -5.305482e+02
   4.364122e+02  -1.492546e+02
   2.534576e+02   4.432394e+02
  -1.661673e+02   3.978184e+02
  -4.513516e+02   3.218041e+01
  -2.834315e+02  -5.827462e+02
   2.731024e+02  -6.341226e+02
   4.462484e+02  -2.235590e+02
   3.884654e+02   2.593386e+02
   3.251542e+01   3.466860e+02
  -1.131974e+02   2.575467e+02
  -8.029928e+01   6.431184e+01
   1.164639e+02   3.813346e+01
   1.964540e+02   2.007833e+02
   3.751319e+01   3.115172e+02
  -4.728393e+02   1.726867e+02
  -6.694907e+02  -1.583638e+02
  -2.940114e+02  -4.291460e+02
   3.265351e+02  -3.202303e+02
   6.731200e+02   1.267411e+02
   2.082235e+02   3.304033e+02
  -2.980822e+02   3.177824e+02
  -4.591804e+02   6.205858e+01
  -3.357149e+02  -1.413341e+02
  -2.479488e+01  -4.114497e+02
   3.314804e+01  -1.827126e+02
  -3.741974e+01   1.108855e+02
  -2.045917e+02   2.150982e+02
  -2.913458e+02  -6.917970e+01
  -5.746374e+01  -4.510392e+02
   3.671665e+02  -4.856406e+02
   5.476298e+02   5.378847e+00
   2.338816e+02   3.836762e+02
  -2.655381e+02   2.559299e+02
  -2.419676e+02  -2.377493e+02
   1.010109e+02  -4.115906e+02
   4.741041e+02  -9.322960e+01
   3.302903e+02   3.831716e+02
   9.721091e+01   5.558701e+02
  -2.166217e+02   2.931749e+02
  -5.198367e+02  -4.759714e+01
  -3.231065e+02  -3.145565e+02
   1.091533e+02  -2.494764e+02
   2.629412e+02  -4.349547e+01
   1.716774e+02   2.872455e+01
  -3.835612e+01   9.024750e+01
  -3.667241e+01  -1.394891e+02
   8.417110e+01  -1.311487e+02
   2.257363e+02   6.363438e+01
   7.646149e+01   2.239556e+02
  -2.051928e+02   1.841995e+02
  -3.262141e+02   9.875789e+01
  -1.639238e+02  -7.295989e+01
   3.620602e+01  -2.754926e+02
   2.504747e+02  -2.336980e+02
   2.851264e+02  -1.189206e+02
   2.281470e+02   1.103875e+02
   6.881737e+01   3.482415e+02
  -1.199776e+02   3.405635e+02
  -4.686573e+01   1.402081e+02
  -1.808806e+01   3.754299e+01
  -8.308460e+01   8.162470e+01
  -2.063601e+02   4.044356e+01
  -2.414010e+02  -1.534470e+02
  -1.146620e+02  -1.971252e+02
   8.643825e+01  -1.403416e+02
   1.552807e+02   6.235608e+01
   1.442836e+02   2.287324e+02
  -1.108589e+02   1.597108e+02
  -2.158935e+02   3.979330e+01
  -2.880333e+02  -1.878113e+02
  -7.604996e+01  -2.593875e+02
   8.137469e+01  -2.147583e+02
   1.273998e+02  -1.242040e+02
   1.561289e+02   1.888584e+01
   1.188875e+02  -7.305439e+01
   2.166962e+02   4.191676e+00
   3.649974e+02   9.563718e+01
   3.035789e+02   2.784828e+02
  -5.467890e+01   4.221600e+02
  -3.071316e+02   3.687349e+02
  -4.099449e+02   1.615760e+02
  -2.786474e+02  -7.018939e+01
  -5.512646e+01  -2.401009e+02
   1.425770e+02  -2.021731e+02
   6.797433e+01  -1.587211e+01
  -1.577926e+02   6.418615e+01
  -1.331701e+02  -3.319178e+01
   2.020289e+01  -1.914005e+02
   1.119055e+02  -5.076158e+01
   9.168593e+01   5.006327e+01
  -4.975699e+01   1.086726e+02
  -1.287661e+02  -3.534780e+01
  -1.358107e+02  -2.695441e+02
   1.800387e+00  -2.923037e+02
   2.698398e+02  -1.979960e+02
   3.272887e+02   9.540063e+01
   2.604048e+02   1.931665e+02
   2.806540e+01   2.254375e+02
  -1.487649e+02   1.251550e+02
  -1.538810e+02  -4.667926e+01
  -3.753125e+01   2.474412e+00
   1.487681e+01   2.892986e+01
   1.486898e+01   7.996817e+01
  -1.046799e+02   5.140429e+01
  -1.536333e+02   7.247218e+00
  -7.666316e+01  -3.537015e+01
   1.009860e+02   1.375018e+01
  -1.287057e-01   8.767769e+01
  -1.159162e+02   5.468467e+01
  -2.778249e+02  -2.153214e+01
  -1.720161e+02  -1.364948e+02
   4.210929e+01  -2.213049e+02
   1.684195e+02  -2.240750e+02
   2.609879e+02  -7.226584e+01
   1.184453e+02  -1.053982e+01
  -5.440824e+00   6.398997e+01
  -9.282831e+01  -7.691246e+00
   5.751913e+01  -6.668709e+01
   1.647949e+02  -7.077339e+01
   1.469070e+02   1.129664e+02
   6.362880e+01   1.364078e+02
  -9.790169e+01   1.209945e+02
  -1.221017e+02   4.326507e+00
  -6.546873e+01   1.128457e+01
   4.426329e+01   3.143565e+01
   1.629324e+01   9.656745e+01
  -7.997263e+01   5.643146e+01
  -1.679505e+02  -4.708246e+01
  -1.479892e+02  -1.752094e+02
   1.663078e+01  -2.093855e+02
   1.370454e+02  -1.179720e+02
   1.902027e+02  -2.954392e+01
   2.596162e+01   9.342787e+01
  -6.347644e+01   9.134403e+01
  -6.100313e+01  -1.606513e+01
   1.344225e+01   1.061680e+01
   5.354571e+01   5.332844e+00
   5.756010e+00   2.864790e+01
  -5.831274e+01  -1.166793e+01
  -7.607573e+01  -4.071070e+01
  -2.062233e+01  -1.509244e+02
   1.190291e+02  -1.028448e+02
   1.822871e+02   2.387454e+01
   1.489839e+02   1.234771e+02
   7.648264e+00   1.956353e+02
  -8.585823e+01   1.408105e+02
  -9.654952e+01   2.456592e+01
  -1.055943e+02  -8.440118e+01
  -5.063576e+01  -8.728360e+00
  -1.350727e+01   3.234196e+01
  -5.423047e+01   1.002983e+01
  -1.700099e+01  -3.595304e+01
   5.926897e+01  -1.122597e+02
   1.045750e+02  -5.033422e+01
   7.404491e+01   2.629658e+01
  -9.895147e+00   1.028985e+02
  -1.145472e+02   6.794715e+01
  -1.809650e+02  -7.771674e+01
  -7.202613e+01  -1.601897e+02
   5.292936e+01  -1.827687e+02
   2.145376e+02  -1.354404e+02
   2.384940e+02   1.253587e+02
   9.912239e+01   1.753316e+02
  -9.010414e+01   1.231996e+02
  -1.152956e+02   7.888888e+01
  -9.925914e+01   4.695860e+01
  -1.886843e+01   5.696660e+01
  -6.672577e+01   6.828730e+01
  -1.092718e+02  -1.052036e+01
  -6.256754e+01  -1.486905e+02
  -6.344662e+00  -2.152193e+02
   7.888945e+01  -2.107271e+02
   1.210903e+02  -1.889110e+01
   9.515545e+01   1.133503e+02
  -1.987517e+01   9.144601e+01
  -8.589354e+01   8.061998e+01
  -2.025197e+01   2.331607e+00
  -1.149843e+00  -1.376458e+01
  -1.405497e+01  -3.659535e+00
  -6.293991e+01  -6.422837e+00
  -7.515107e+01  -3.365200e+01
  -8.887258e+01   2.596630e-01
   5.282833e+01  -3.799197e+01
   1.255824e+02  -2.062534e+01
   1.228567e+02   9.261595e+01
  -5.940528e+00   1.016000e+02
  -8.912443e+01  -1.552114e+00
  -6.951935e+01  -2.060515e+01
  -2.064354e+01  -5.375691e+01
   5.164946e-01  -1.933864e+01
   7.044517e+01   3.038093e+01
   8.127718e+00   9.987027e+01
  -1.735203e+01   1.386848e+01
  -1.673120e+01  -2.415716e+01
  -7.000564e+01  -5.045251e+01
  -1.404206e+01  -8.974759e+01
  -4.407548e+01  -4.974111e+00
  -6.950076e+01   1.737316e+01
  -4.241231e+01  -1.086381e+02
   3.252569e+01  -1.120444e+02
   9.267940e+01  -1.734279e+02
   1.526933e+02  -4.264313e+01
   7.825912e+01   6.604041e+01
   6.927565e+00   1.172554e+02
  -8.575471e+01   3.142687e+01
  -6.520003e+01  -5.604862e+01
   7.266307e+01   9.759886e+00
   1.206791e+02   2.109523e+01
   6.913737e+01   4.665752e+01
  -9.836176e+01   5.420689e+01
  -1.808232e+02   4.410750e+01
  -1.678207e+02  -6.418275e+01
  -3.249076e+01  -5.719583e+01
   9.171990e+01  -6.525989e+01
   4.060385e+01  -2.556634e+01
  -2.898809e+01   3.665092e+01
  -7.136207e+01   7.564389e+00
  -4.465702e-01  -9.395447e+01
   5.162649e+01  -1.195749e+02
   9.942197e+01  -4.051611e+01
   9.259010e+01   5.282401e+01
   2.835608e+00   1.388172e+02
  -8.807335e+01   8.338063e+01
  -1.317918e+02   2.850517e+00
  -2.929311e+01  -1.091113e+02
   3.056287e+01  -7.919803e+01
   3.221797e+01  -1.329938e+01
   1.830402e+01  -5.076261e+00
   1.676881e+01  -1.729436e+01
   1.507920e+01   2.254180e+01
   1.263460e+01   3.011712e+01
   5.749924e+01   6.427241e+01
   7.199594e+00   9.327784e+01
  -5.174140e+01   4.550448e+01
  -1.821282e+02  -4.331505e+01
  -1.216516e+02  -8.457942e+01
   9.486783e+00  -4.870098e+01
   5.341417e+01  -4.337000e+01
   6.278308e+01   3.974454e+01
  -2.104437e+01   2.687261e+01
  -7.333463e+01   3.397583e+01
  -1.666195e+01   2.563688e+01
   3.422635e+01  -2.814802e+01
   1.052617e+01  -6.115119e+01
  -4.993811e+01   1.775334e+01
  -5.400307e+01   1.798869e+01
  -5.235996e+00  -8.267132e+01
   8.427987e+01  -8.746283e+01
   1.702796e+02  -1.442797e+01
   1.453496e+02   7.908421e+01
   1.170751e+01   1.027722e+02
  -4.741284e+01   1.712174e+02
  -1.095380e+02   4.268157e+01
  -2.908952e+01  -4.478351e+01
  -2.249054e+01  -5.274821e+01
   1.749014e+01  -2.498677e+01
  -2.083788e+01   3.856706e+00
   3.488150e+00  -5.254966e+01
   2.525523e+01  -7.899852e+01
   5.648394e+01  -7.772253e+01
   6.327002e+01  -2.582299e+01
   6.760067e+01   6.918877e+01
   5.076507e+00   9.861122e+01
  -8.092074e+01  -3.741486e+00
  -8.292243e+01  -7.528133e+01
   1.141656e+01  -6.807099e+01
   2.583731e+01  -4.753694e+01
   1.243227e+02   6.323967e+00
   3.500779e+01   7.742855e+01
  -6.812388e+01   4.924887e+01
  -3.186945e+01   1.590979e+01
   5.610160e+00  -4.637275e+01
   5.009744e+01  -8.594464e+00
   3.214961e+01   4.326886e+01
  -8.394799e+01   8.748781e+01
  -1.064920e+02   4.595811e+01
  -7.571058e+01  -2.423103e+01
   2.740423e+01  -7.076313e+01
   9.282109e+01  -7.626158e+01
   4.634618e+01  -4.416184e+01
  -2.540584e+00   7.459340e+01
  -2.850778e+01   2.956230e+01
  -3.592318e+01   1.930409e+01
  -1.447778e+01  -3.661937e+01
   1.266948e+01  -7.491267e+00
  -2.936687e+00   1.412715e+01
   4.561664e+01   1.130766e+01
   2.450793e+01  -5.347226e+00
  -2.616064e+01  -7.036454e+00
   2.036653e+01  -1.105942e+01
  -1.749579e+01   1.516482e+00
   2.552661e+00   6.520244e+01
  -5.014466e+01  -8.541478e+00
  -2.488377e+00  -2.924319e+01
  -1.222378e+01  -4.211889e+01
   5.821954e+01  -4.571413e+00
   4.318061e+00   3.628216e+01
   4.491349e+01   5.580257e+01
  -5.446047e+01   6.499826e+00
  -6.314052e+01  -4.442260e+01
  -3.786369e+01  -4.300266e+01
   4.807909e+01  -2.468371e+01
   6.488369e+01   1.213077e+01
   1.446252e+01   1.701371e+01
  -5.755797e+01  -6.328249e+00
  -6.242732e+01  -1.616095e+01
   4.356331e+01   1.421353e+01
   5.771256e+01   5.648972e+01
