
 $NMID
 id='ANONYMOUS ', fmtdat='(2E16.6)'
 volume=1.0
 tramp=1.0
 $END
  -3.277787e+03  -3.229613e+01
  -2.359266e+03  -1.778372e+03
   1.934466e+02  -2.760361e+03
   1.796127e+03  -9.848228e+02
   8.511403e+02   3.361489e+02
  -5.198243e+02   3.782585e+02
  -6.135339e+02  -2.818366e+02
  -1.483717e+02  -9.787219e+02
   7.217656e+02  -7.998364e+02
   8.536898e+02   9.146137e+01
   5.024550e+02   8.902100e+02
  -8.951698e+01   7.802388e+02
  -5.820143e+02   2.019182e+02
  -3.025783e+02  -4.717835e+02
   2.850865e+02  -6.274236e+02
   5.557889e+02   1.403760e+01
   3.377660e+02   7.518734e+02
  -3.419615e+02   6.779925e+02
  -5.429031e+02   1.032126e+02
  -3.716405e+02  -2.980324e+02
  -1.346907e-01  -3.504891e+02
   2.324178e+02  -2.753928e+02
   1.968473e+02  -5.987452e+01
  -1.355231e+02   3.690816e+01
  -2.666662e+02  -1.395589e+02
  -1.576209e+02  -3.592955e+02
   4.734755e+02  -2.889018e+02
   9.346239e+02   1.118574e+02
   4.205024e+02   5.111763e+02
  -3.955777e+02   5.010556e+02
  -6.457532e+02  -1.587142e+02
  -2.850410e+02  -4.220214e+02
   3.491388e+02  -4.380617e+02
   5.318245e+02  -1.161641e+02
   4.203024e+02   2.430646e+02
   1.144942e+02   4.776727e+02
  -1.243931e+02   3.098847e+02
  -7.994340e+01  -1.282942e+02
   2.446260e+02  -3.774403e+02
   4.074880e+02   2.531960e+01
   2.230462e+02   5.389706e+02
  -3.855181e+02   6.253458e+02
  -6.333742e+02   5.943402e-01
  -2.403104e+02  -5.702970e+02
   3.083885e+02  -3.012057e+02
   3.058799e+02   2.438632e+02
  -9.833794e+01   4.761533e+02
  -5.863318e+02   1.339027e+02
  -4.300665e+02  -3.905119e+02
  -6.924011e+01  -5.506642e+02
   3.249866e+02  -2.682876e+02
   6.740592e+02   9.484095e+01
   3.498770e+02   3.978250e+02
  -1.396355e+02   3.151624e+02
  -3.458544e+02   1.305147e+01
  -1.783902e+02  -1.280674e+02
   4.842573e+01  -8.634239e+01
   1.197179e+02   1.438737e+02
  -1.222230e+02   1.874039e+02
  -3.144610e+02  -4.359524e+01
  -1.384460e+02  -2.893105e+02
   2.149458e+02  -2.237199e+02
   3.414925e+02  -9.293415e+01
   2.438743e+02   7.347343e+01
  -2.711321e+01   2.319467e+02
  -2.737453e+02   2.109485e+02
  -3.232478e+02   1.642328e+02
  -2.189648e+02  -1.653974e+02
  -6.404429e+01  -4.162056e+02
   1.627554e+02  -3.694649e+02
   5.256833e+01  -1.516630e+02
   3.981818e+01   2.825714e+01
   3.210031e+01  -8.140975e+01
   1.663160e+02  -5.694588e+01
   2.878983e+02   7.454105e+01
   7.172534e+01   2.878278e+02
  -1.180822e+02   2.102535e+02
  -2.331671e+02  -9.100342e-01
  -1.801666e+02  -2.342217e+02
   1.280740e+01  -2.782102e+02
   2.568509e+02  -9.801754e+01
   3.456931e+02   1.563469e+02
   1.470971e+02   3.899076e+02
  -1.020698e+02   2.983450e+02
  -1.843415e+02   1.628028e+02
  -1.557037e+02  -1.546874e+01
  -1.385672e+02   5.595518e+01
  -2.509275e+02   1.503533e+01
  -3.873506e+02  -7.585659e+01
  -3.512570e+02  -3.232101e+02
   2.989923e+01  -4.401890e+02
   3.502287e+02  -4.716859e+02
   4.983062e+02  -1.639076e+02
   3.023057e+02   8.077830e+01
  -2.931532e+01   2.635754e+02
  -1.536292e+02   2.699386e+02
  -6.971055e+01   5.534322e+01
   1.132969e+02  -1.282852e+02
   1.580369e+02   3.140686e+01
  -1.551380e+01   1.590175e+02
  -1.877345e+02   1.487883e+02
  -1.314242e+02  -3.841884e+01
   2.475280e+01  -1.779045e+02
   2.002674e+02  -2.261194e+00
   1.620320e+02   2.931114e+02
  -1.946284e+01   3.405731e+02
  -2.645375e+02   1.881012e+02
  -2.627844e+02  -5.518351e+01
  -2.548150e+02  -2.465436e+02
  -8.294762e+01  -3.135431e+02
   1.282000e+02  -1.303311e+02
   1.532680e+02  -1.942508e+01
   4.716545e+01   3.465917e+00
  -5.425556e+01  -3.382667e+01
  -6.619151e+01  -1.331644e+02
   1.166317e+02  -1.063575e+02
   1.617963e+02   3.955264e+01
   4.124824e+01   7.931260e+01
  -5.858466e+01   6.054973e+00
  -4.960028e+01  -6.302823e+01
   1.427059e+02  -1.195238e+02
   2.789757e+02  -3.615618e+00
   2.272579e+02   1.154296e+02
   8.859419e+00   1.737163e+02
  -1.832563e+02   2.703237e+02
  -2.748407e+02   1.005405e+02
  -1.668047e+02  -8.086253e+01
   3.063862e+01  -1.147445e+02
   9.588683e+01   8.153770e+00
  -5.736167e+01   3.403554e+01
  -1.867423e+02   3.876507e+01
  -1.967133e+02  -1.158837e+02
  -3.638914e+01  -1.570204e+02
   1.003650e+02  -1.972676e+02
   1.504235e+02  -6.043096e+00
   1.030418e+02   5.895580e+01
  -1.996795e+01   8.203165e+00
  -3.472773e+00  -1.339700e+02
   7.293313e+01  -4.987569e+01
   1.811067e+02  -1.719734e+00
   2.149946e+02   1.177477e+02
   2.461918e+01   2.186342e+02
  -1.186873e+02   1.103672e+02
  -2.224589e+02  -8.189924e+00
  -8.142189e+01  -9.064439e+01
   9.055882e+01  -1.003500e+02
   2.968644e+01   1.042236e+01
   2.407151e+01   2.221584e+01
   6.726022e-01  -2.367639e+01
   2.444374e+01  -2.021830e+01
   4.963450e+01  -2.012150e+01
   7.570754e+01   9.065793e+01
   3.411402e+01   1.725342e+02
  -8.638835e+01   1.058809e+02
  -2.653087e+02   2.865666e+01
  -1.396189e+02  -1.402729e+02
   1.706056e+01  -2.510491e+02
   1.182834e+02  -1.631037e+02
   1.279431e+02  -9.640943e+00
   2.632427e+01   7.634187e+01
   3.753693e+01   4.581779e+01
   5.314860e+01  -1.924432e+01
   6.552641e+01  -1.244853e+01
   3.979897e+01   5.572704e+01
  -3.598266e+01   8.210504e+01
  -1.092302e+02   4.386194e+01
  -6.055009e+01  -8.428272e+01
   4.031313e+01  -6.854614e+01
   1.681679e+02  -6.936811e+01
   2.333617e+02   6.059249e+01
   5.845139e+01   1.551886e+02
  -1.281895e+02   2.049172e+02
  -2.438703e+02   1.160968e+02
  -2.961654e+02  -1.047718e+02
  -9.113594e+01  -1.705439e+02
   4.175218e+01  -1.625891e+02
   1.013530e+02  -9.599601e+01
   1.339318e+02  -8.167985e+00
   4.732800e+01  -9.725065e+01
   9.421319e+01  -9.590347e+01
   1.223879e+02   3.571351e+01
   7.762335e+01   1.114980e+02
   1.290050e+00   2.292527e+02
  -6.839055e+01   1.988018e+02
  -1.826707e+02   1.337825e+01
  -1.550056e+02  -1.186652e+02
   5.570100e-01  -1.595074e+02
   8.359079e+01  -1.314631e+02
   3.407239e+01   1.422775e+01
   1.702294e+01   5.692124e+01
  -3.821500e+01   8.287678e+01
   4.557701e+01   9.081455e+00
   6.425239e+01   2.975099e+01
   4.341206e+01   6.476209e+01
  -9.280227e+01   4.179343e+01
  -2.126445e+02  -5.797369e+00
  -1.630988e+02  -2.783556e+01
  -1.348378e+01  -6.336353e+01
   1.723799e+02  -1.609071e+01
   1.353259e+02  -2.103965e+01
   2.784081e+01   4.118148e+01
  -3.551777e+01   6.323234e+01
  -1.032951e+02  -7.064858e+00
  -3.059395e+01  -6.406555e+01
   7.714021e+01  -4.965533e+01
   3.196217e+01   3.177518e+01
   6.856475e+01   4.403296e+01
   7.902561e+01   3.984462e+01
   5.702556e+01  -7.868071e+01
   3.170889e+01  -2.641667e+01
   7.258872e+01   1.424849e+02
  -1.162164e+02   1.532526e+02
  -1.562494e+02   1.393045e+02
  -1.806343e+02   2.616237e+01
  -1.242146e+02  -9.520654e+01
  -5.914367e-02  -1.550219e+02
   8.626875e+01  -7.513270e+01
   1.057719e+02   3.272195e+01
  -8.210421e+01  -1.126415e+01
  -1.439654e+02  -7.088146e+00
  -4.679334e+01  -7.736201e+01
   1.608690e+02  -1.545406e+02
   1.432921e+02  -6.079349e+01
   2.131111e+02   4.317142e+01
   3.131912e+01   7.819684e+01
  -6.961550e+01   7.679166e+01
  -3.620756e+01   7.843583e+00
   4.942880e+01  -7.011747e+01
   7.707494e+01   2.385492e+01
   7.236694e+01   1.032697e+02
  -9.357431e+01   1.258847e+02
  -1.195424e+02   3.295572e+01
  -8.691495e+01  -1.222946e+02
   3.484472e+00  -2.329736e+02
   8.498675e+01  -1.475349e+02
   9.034553e+01  -1.066095e+01
   1.732299e+01   1.324465e+02
   1.942232e+01   1.148730e+02
  -1.350010e+01   2.427423e+01
  -6.834136e+01   8.712912e-01
  -7.608447e+01  -3.259745e+01
  -3.130131e+01   1.074270e+01
   1.222815e+00   1.384751e+01
  -4.864381e+01  -8.095993e+01
  -4.124524e+01  -6.526364e+01
   6.956420e+01  -1.962707e+01
   1.982302e+02   3.755767e+01
   1.257087e+02   8.378257e+01
   3.740730e+01   4.388252e+01
  -6.479706e+01   4.209163e+00
  -1.136760e+02   3.768843e+01
  -1.807490e+01   5.792824e-01
   5.967820e+01   6.543908e+00
   2.772026e+01  -5.788246e+01
  -2.928042e+01  -1.153011e+01
   2.172375e+01   2.146589e+01
   7.168924e+01  -2.627987e+01
   8.613907e+01   2.090744e+01
   2.053162e+01   7.114619e+01
  -1.149939e+02   7.166439e+01
  -1.705477e+02   3.856266e+01
  -1.210158e+02  -8.426941e+01
  -1.417544e+01  -1.568892e+02
   7.428590e+01  -1.900405e+02
   1.195018e+02  -5.580636e+01
   7.804350e+01  -1.039309e+01
   3.212909e+01   3.166648e+01
  -3.572080e+00   4.461829e+01
   7.528643e+00   3.378173e+01
  -5.153604e+00   5.917229e+01
   4.454272e+00   1.019641e+02
   1.424698e+00   7.251697e+01
  -6.962872e+01  -2.856319e+01
  -6.767394e+01  -1.422222e+02
  -9.913590e+00  -9.520787e+01
   1.230724e+02  -4.654739e+01
   8.695212e+01   1.032065e+02
   1.718219e+01   9.939517e+01
  -6.546646e+01   2.830012e+01
  -1.164315e+02  -1.159757e+01
  -5.013134e+00  -8.906648e+01
   4.975429e+01  -6.127886e+01
   3.090088e+01   1.341154e+01
  -1.304993e+01  -3.827366e+01
  -4.422466e+01   7.269815e+00
   6.794097e+00  -3.259821e+01
   4.034055e+01  -7.830723e+01
   1.081990e+02  -1.784902e+01
   4.893532e+01  -5.487710e-01
  -3.733948e+01   3.730679e+01
  -7.527573e+01   3.375667e+01
  -6.627047e+01   6.288109e+00
   2.346975e+01  -5.572269e+01
   2.672337e+01  -1.595222e+01
   4.965904e+01   2.978930e+01
  -1.202958e+01   6.284177e+01
   7.043801e+00   6.581929e+01
  -2.682781e+01   3.589654e+01
  -2.761496e+01  -4.335977e+01
  -1.920936e+01  -1.173509e+01
   2.212203e+01   8.357805e+00
  -3.630457e+01   1.205583e+01
   2.511963e+01  -1.106457e+01
   1.153196e+00  -3.482589e+01
   2.150689e+01   2.734448e+01
   3.774352e+01   4.353189e+01
   3.187161e+01   7.659940e+01
  -5.073196e+01  -2.681026e+00
  -1.004052e+00  -3.050117e+01
  -9.968244e+00  -2.773601e+01
   3.834646e+01  -2.439108e+01
   5.599010e+01   3.424298e+01
   4.502071e+01   5.844974e+01
  -3.845101e+01   2.762587e+01
  -5.125823e+01  -9.812085e+00
  -5.109313e+01   1.484200e+01
   6.131197e+01   2.117622e+01
   4.902312e+00   1.442150e+00
  -2.368437e+01   4.889520e+01
  -6.060268e+01   1.927605e+01
