
 $NMID
 id='ANONYMOUS ', fmtdat='(2E16.6)'
 volume=1.0
 tramp=1.0
 $END
   3.625923e+03  -1.081228e+02
   2.453589e+03   2.076356e+03
  -6.456422e+02   3.011679e+03
  -1.853691e+03   1.002007e+03
  -5.739009e+02  -3.795562e+02
   5.600000e+02  -4.128367e+02
   8.310172e+02   4.732958e+02
   2.742967e+02   1.076243e+03
  -6.554409e+02   7.147170e+02
  -9.296422e+02  -6.110614e+01
  -4.937130e+02  -9.498298e+02
   1.822295e+02  -7.901135e+02
   6.521035e+02  -1.497083e+02
   4.661583e+02   5.637180e+02
  -2.290731e+02   6.631940e+02
  -5.816735e+02   4.868806e+01
  -3.233581e+02  -7.275684e+02
   3.039231e+02  -6.570919e+02
   5.203571e+02  -1.714180e+02
   3.587846e+02   3.739468e+02
   3.024403e+01   4.354863e+02
  -2.067747e+02   3.166286e+02
  -1.574488e+02   3.176784e+01
   1.299638e+02  -6.106674e+01
   3.375065e+02   1.329468e+02
   1.370840e+02   3.406869e+02
  -4.558425e+02   3.599796e+02
  -8.636137e+02  -1.415865e+02
  -3.921637e+02  -4.562090e+02
   4.101812e+02  -3.656306e+02
   7.112047e+02   1.618000e+02
   3.261065e+02   3.327814e+02
  -3.017063e+02   4.249881e+02
  -4.867727e+02  -4.258557e+00
  -4.196997e+02  -2.076043e+02
  -3.977150e+01  -4.621531e+02
   1.622180e+02  -2.376508e+02
   1.668978e+02   1.441431e+02
  -2.380977e+02   4.014810e+02
  -4.731986e+02   5.856374e+01
  -2.320171e+02  -5.577774e+02
   3.326492e+02  -7.681450e+02
   6.952211e+02  -6.669038e+01
   2.723786e+02   5.939896e+02
  -2.619592e+02   3.226205e+02
  -3.827745e+02  -2.702285e+02
   7.461373e+01  -4.971827e+02
   5.616675e+02  -1.212781e+02
   4.931983e+02   3.380959e+02
   2.208509e+02   5.899685e+02
  -3.140596e+02   3.304585e+02
  -6.595942e+02  -7.476633e+01
  -3.525464e+02  -3.978612e+02
   1.873690e+02  -3.487116e+02
   4.216385e+02  -6.425718e+01
   2.197569e+02   1.396023e+02
  -9.077616e+01   1.737044e+02
  -1.538695e+02  -1.899424e+02
   1.384185e+02  -1.846666e+02
   3.454782e+02   1.021956e+02
   1.426436e+02   2.526554e+02
  -2.236302e+02   2.422765e+02
  -3.143390e+02   1.072172e+02
  -2.180620e+02  -9.585985e+01
   8.681294e+01  -3.091950e+02
   2.746525e+02  -2.650503e+02
   3.137292e+02  -1.287207e+02
   2.540489e+02   1.152182e+02
   4.220437e+01   3.976062e+02
  -9.113078e+01   4.193816e+02
  -1.365835e+02   1.728916e+02
  -3.255633e+01  -4.870763e+00
  -6.000610e+01   9.582460e+01
  -1.666801e+02   7.135267e+01
  -2.647129e+02  -5.047837e+01
  -1.099054e+02  -3.094362e+02
   1.139575e+02  -2.248046e+02
   2.385118e+02   3.312253e+01
   1.878339e+02   2.268830e+02
  -1.904758e+01   2.432741e+02
  -2.684680e+02   8.280321e+01
  -3.832967e+02  -1.870457e+02
  -1.886608e+02  -3.660758e+02
   1.008653e+02  -2.629824e+02
   2.296991e+02  -1.770556e+02
   1.298659e+02  -1.098595e+01
   1.055194e+02  -3.865314e+01
   2.151164e+02  -3.550072e+01
   3.932169e+02   4.473141e+01
   3.182845e+02   2.654334e+02
  -6.051056e+01   4.155490e+02
  -4.107529e+02   4.668304e+02
  -5.407527e+02   1.621966e+02
  -3.195706e+02  -4.836531e+01
  -4.873820e+01  -2.982033e+02
   1.215498e+02  -2.218468e+02
   8.153065e+01  -4.905616e+01
  -1.150304e+02   1.007783e+02
  -2.156730e+02  -5.851650e+01
  -2.223003e+01  -1.642115e+02
   1.566598e+02  -1.655814e+02
   1.653532e+02   1.094492e+02
  -2.080818e+01   2.118278e+02
  -1.724579e+02   9.968167e+00
  -1.353430e+02  -2.801822e+02
   8.198926e+01  -4.017188e+02
   2.077123e+02  -1.958388e+02
   3.288496e+02   2.373983e+01
   2.870690e+02   3.003545e+02
   9.037638e+01   2.898750e+02
  -9.317019e+01   1.187769e+02
  -1.879641e+02   7.398339e+01
  -9.828775e+01  -3.366859e+01
   3.681232e+01   4.894234e+01
  -5.947531e+00   9.085724e+01
  -1.173075e+02   8.507518e+01
  -2.237749e+02  -3.576236e+01
  -9.017199e+01  -9.147267e+01
   1.235009e+02   2.307172e+01
   4.482596e+01   5.790901e+01
  -1.202298e+02   6.237388e+01
  -2.625585e+02   3.331960e+01
  -2.405685e+02  -1.605957e+02
  -7.631849e+01  -2.356928e+02
   2.074537e+02  -2.146835e+02
   2.895444e+02  -9.084126e+01
   1.424775e+02   6.236666e+01
  -1.308527e+00   7.596157e+01
  -9.277107e+01  -2.384858e+00
   6.836190e+01  -8.340159e+01
   1.778237e+02  -2.841376e+01
   2.079947e+02   1.047519e+02
   3.260231e+01   1.775005e+02
  -4.464445e+01   1.528696e+02
  -1.329037e+02  -2.029171e+01
  -6.703118e+01  -5.679919e+01
   1.842684e+01   3.737350e+00
   7.332092e+00   4.897861e+01
  -6.887091e+01   1.015391e+02
  -2.042340e+02   3.660833e+01
  -2.161830e+02  -1.302296e+02
   1.472923e+01  -2.429783e+02
   1.479965e+02  -1.490414e+02
   1.652820e+02  -9.126312e+00
   4.627473e+01   1.409291e+02
  -9.412045e+01   1.349641e+02
  -9.905220e+01   2.762534e+01
  -7.125684e+01  -4.945158e+01
   1.992108e+01  -1.006591e+00
   1.804302e+00   8.202304e+00
  -5.663341e+01  -4.399464e+01
  -5.843732e+01  -8.860746e+01
  -1.673316e+01  -1.429741e+02
   1.204101e+02  -1.300967e+02
   2.583434e+02   4.123628e+01
   1.633912e+02   1.578441e+02
   4.239457e+01   2.378492e+02
  -9.645458e+01   1.632891e+02
  -1.121862e+02   1.263493e+01
  -9.972543e+01  -7.080806e+01
  -6.738019e+01  -4.354588e+01
  -7.788564e+01   3.584823e+01
  -8.858145e+01   2.241675e+00
  -1.615385e+01  -1.025803e+02
   2.242761e+01  -6.904731e+01
   1.138428e+02  -2.694984e+01
   7.876931e+01  -9.114177e+00
  -5.123375e+01   1.503901e+02
  -1.829287e+02   1.056104e+02
  -2.175628e+02  -7.758712e+01
  -1.136756e+02  -2.037744e+02
   8.956281e+01  -2.081871e+02
   2.704428e+02  -1.106960e+02
   2.750015e+02   8.167386e+01
   9.077342e+01   1.943084e+02
  -2.511778e+01   1.558217e+02
  -1.083208e+02   7.110624e+01
  -6.693426e+01   5.646471e+01
  -7.226925e+01   7.872434e+01
  -1.054043e+02   1.060390e+02
  -1.221981e+02   9.173815e+00
  -6.822918e+01  -1.726181e+02
   4.333940e+01  -2.642539e+02
   1.088538e+02  -1.733515e+02
   1.535323e+02  -5.552929e+01
   1.117866e+02   1.882346e+02
  -3.494751e+01   1.700665e+02
  -7.229784e+01   3.730902e+01
  -7.315226e+01  -5.310597e+01
  -2.277249e+01  -4.322894e+01
   1.004929e+02  -3.591339e+01
  -6.016148e+01  -2.628071e+01
  -7.832784e+01  -1.206999e+01
  -7.747712e+01  -2.292225e+01
   9.022127e+01  -5.176309e+01
   2.004740e+02   3.175629e+01
   1.460345e+02   6.929018e+01
  -9.060550e+00   6.685427e+01
  -1.121628e+02   9.395168e+01
  -1.432523e+02   1.886855e+01
  -7.105201e+00  -9.235618e+01
   5.385307e+01  -3.608997e+00
   1.077387e+02   5.270457e+01
   8.967733e+00   5.289568e+01
  -5.847365e+01  -2.673899e+00
  -2.869823e+01  -2.185108e+01
  -6.670204e+01  -6.016875e+01
  -7.597262e+01  -7.002062e+01
  -1.077690e+02  -2.950414e+01
  -4.404283e+01   6.299857e+00
  -8.685609e+00  -9.806260e+01
   9.973865e+01  -1.375818e+02
   1.012111e+02  -1.317299e+02
   1.749576e+02  -1.570259e+01
   1.442793e+02   9.698527e+01
   2.161451e+01   9.432541e+01
  -1.091340e+02   1.607167e+01
  -5.196648e+01   4.970907e+01
   4.145614e+01  -4.251136e+01
   1.249085e+02   4.653004e+01
   8.849561e+01   9.520600e+01
  -9.246915e+01   1.132785e+02
  -2.188168e+02   1.139719e+02
  -1.973038e+02  -4.046293e+01
  -5.961270e+01  -8.352138e+01
   4.515894e+01  -7.551958e+01
   2.961725e+01   9.023747e+00
  -3.072014e+01   2.115171e+01
  -9.781078e+01  -2.268378e+01
  -1.562951e+01  -1.357300e+02
   8.381421e+01  -1.535695e+02
   1.409495e+02  -2.766133e+01
   1.479631e+02   1.502622e+02
   6.263073e+00   1.902713e+02
  -9.145009e+01   1.954312e+02
  -1.120675e+02  -4.239450e+01
  -1.308142e+01  -1.022903e+02
  -3.817547e-01  -6.798401e+01
   3.718246e+01  -1.910828e+01
   3.570322e+01   4.758106e+01
   3.534734e+01  -2.884378e+00
   3.669531e+01  -3.222101e+01
   4.283843e+00   3.272254e+01
   6.575364e+01   1.058439e+02
   5.200998e+01   1.183722e+02
  -3.751403e+01  -6.392808e+00
  -9.929811e+01  -4.419547e+01
  -1.395257e+02  -4.303957e+01
   3.341533e+00  -6.706838e+01
   1.110450e+02  -4.677330e+01
   8.247756e+01   5.086611e+00
   1.005885e+01  -1.587109e+01
  -7.065724e+01   4.418440e+01
  -1.858870e+01   2.277196e+01
   3.654356e+01   2.264075e+00
   2.132188e+00  -2.557733e+01
  -8.383912e+01   7.907586e+00
  -1.025254e+02  -7.448009e+01
  -5.454528e+00  -8.135613e+01
   1.068337e+02  -9.702388e+01
   1.895741e+02  -3.785210e+01
   1.709936e+02   8.328304e+01
   1.987754e+01   1.504969e+02
  -9.295765e+01   1.653347e+02
  -1.064609e+02   1.173327e+02
  -6.795792e+01   4.974925e-02
   7.125623e+00  -2.963760e+01
  -1.264842e+01  -1.367537e+01
   4.622096e+01   9.181299e+00
  -3.270843e+01  -4.788523e+01
  -5.804321e+01  -1.101251e+02
   1.448315e+01  -6.723656e+01
   6.403153e+01   1.875529e+01
   1.004240e+02   1.392416e+02
  -9.321893e+00   1.310389e+02
  -8.803701e+01   5.093437e+01
  -9.129120e+01  -5.921418e+01
   2.961121e+01  -1.080921e+02
   6.335230e+01  -6.031835e+01
   8.661032e+01   1.613177e+01
   1.324917e+01   7.272937e+01
  -2.545516e+01   3.504649e+01
  -3.254022e+01  -2.032925e+00
   2.405222e+01   1.225546e+01
   2.700568e+01  -7.623066e+00
  -1.994317e+01   2.171477e+01
  -1.039189e+02   5.537855e+01
  -1.197187e+02   5.796954e+01
  -3.492790e+01   3.036875e+01
   4.890205e+01  -8.802191e+01
   5.348890e+01  -3.213987e+01
   5.573266e+01  -2.110906e+01
   2.909832e+01   7.165406e+01
  -6.493080e+01   1.327222e+01
  -4.695207e+01   3.916272e+00
   1.461976e+01  -4.334954e+01
   2.839532e+01  -4.885973e+01
   1.313745e+01   1.659887e+01
   5.395785e+01   2.934900e+01
   5.629981e+01   2.598605e+00
   1.157429e+01   4.472473e+00
  -1.418729e+01  -3.707899e+01
   9.620400e+00   6.184799e+01
   4.190634e+00   2.450545e+01
  -1.424168e+01   4.772796e+01
  -1.126095e+01  -4.392388e+01
  -2.064502e+01  -1.120094e+02
   3.517133e+01  -2.434730e+01
   8.095075e+01   6.367833e+01
  -1.213772e+01   1.013041e+02
  -4.300127e+01   3.788557e+01
  -1.056377e+02  -1.411327e+01
  -2.444881e+01  -2.901017e+01
   5.109362e+01  -6.261167e+01
   6.545361e+01  -3.740825e+01
   2.435555e+01  -2.573135e+01
  -3.515944e+01   3.976915e+01
  -2.710151e+01  -7.974395e+01
   3.026477e+01  -7.093711e+01
   9.224556e+01  -4.885907e+01
