
 $NMID
 id='ANONYMOUS ', fmtdat='(2E16.6)'
 volume=1.0
 tramp=1.0
 $END
   3.168003e+03  -3.639624e+02
   2.795029e+03   1.580231e+03
   2.010750e+01   2.236720e+03
  -1.094202e+03   1.501774e+03
  -1.260359e+03   1.991433e+02
   4.598752e+01  -4.498097e+02
   4.296234e+02  -6.426561e+01
   1.624494e+02   6.002646e+02
  -4.217413e+02   6.116924e+02
  -6.211393e+02   2.218171e+02
  -3.864571e+02  -5.536698e+02
  -5.423611e+01  -6.004409e+02
   3.689513e+02  -2.681600e+02
   2.379399e+02   2.578747e+02
  -8.713698e+01   6.115145e+02
  -3.670147e+02   1.054714e+02
  -3.154695e+02  -4.054295e+02
   1.425364e+02  -6.941420e+02
   5.297671e+02  -3.099464e+02
   4.724998e+02   1.564173e+02
   1.891930e+02   3.660601e+02
  -1.097438e+02   2.311640e+02
  -6.540425e+01   8.118038e+01
   1.430572e+02   8.559755e+01
   2.766150e+02   2.270255e+02
   1.913178e+01   4.034693e+02
  -4.911500e+02   1.994510e+02
  -7.952921e+02  -1.417905e+02
  -2.331401e+02  -4.719857e+02
   2.128976e+02  -1.664304e+02
   5.517575e+02   1.109109e+02
   2.919451e+02   3.247896e+02
  -2.197324e+02   3.834201e+02
  -4.564282e+02   1.430359e+02
  -3.692834e+02  -9.636962e+01
  -5.814957e+01  -3.535242e+02
   3.019176e+01  -1.846326e+02
   5.540044e+01   2.698958e+01
  -9.259039e+01   1.473659e+02
  -2.042406e+02  -1.091509e+02
  -1.297909e+02  -5.138176e+02
   2.333846e+02  -5.182365e+02
   3.731642e+02  -8.747889e+00
   1.973053e+02   3.818030e+02
  -1.663187e+02   1.975258e+02
  -2.090020e+02  -2.036096e+02
   7.028809e+01  -3.206339e+02
   4.472310e+02  -1.279226e+02
   4.498714e+02   2.518914e+02
   1.082853e+02   4.571073e+02
  -3.215977e+02   2.499291e+02
  -5.340317e+02  -4.449038e+01
  -3.835612e+02  -3.417475e+02
   1.018407e+01  -2.629558e+02
   2.571768e+02  -1.353374e+02
   2.483076e+02  -5.767235e+00
   2.856219e+01  -1.585336e+01
  -6.764158e+01  -7.245805e+01
   8.123147e+01  -8.147231e+01
   2.580864e+02   4.895839e+01
   1.591099e+02   1.468528e+02
  -1.649841e+02   2.306641e+02
  -3.967371e+02   1.157197e+02
  -2.944635e+02  -1.049261e+02
   1.302391e+01  -2.763554e+02
   2.861811e+02  -3.366893e+02
   2.962250e+02  -1.451304e+02
   2.510994e+02   1.363380e+02
   1.161029e+02   3.247682e+02
  -5.309453e+01   3.342289e+02
  -7.047196e+01   1.939207e+02
  -2.162342e+01   1.031199e+02
  -1.628461e+02   1.246756e+02
  -2.375331e+02   7.105484e+01
  -2.837022e+02  -1.391761e+02
  -1.464306e+02  -2.776865e+02
   1.015365e+02  -2.103923e+02
   2.055659e+02   6.533668e+00
   1.879613e+02   2.737657e+02
  -1.304197e+01   2.478681e+02
  -2.595214e+02   5.858908e+01
  -2.871743e+02  -1.961460e+02
  -2.061834e+02  -2.797253e+02
   1.305572e+01  -2.908653e+02
   1.244974e+02  -1.779532e+02
   1.794202e+02  -1.049166e+02
   1.470118e+02   2.543895e+00
   2.687121e+02   1.461407e+01
   4.390535e+02   1.204573e+02
   3.075011e+02   3.489495e+02
   7.956032e+00   4.810930e+02
  -4.205973e+02   4.289736e+02
  -4.553252e+02   1.441410e+02
  -2.627410e+02  -2.374741e+01
  -7.629600e+01  -1.937656e+02
   1.325848e+02  -2.565344e+02
  -1.592713e+01  -2.287536e+01
  -1.300353e+02   4.502153e+01
  -1.152636e+02  -2.163924e+01
  -4.921406e+01  -1.133902e+02
   1.229866e+02  -8.878941e+01
   1.120426e+02   7.180872e+01
   1.923869e+01   1.364645e+02
  -1.321428e+02   8.507788e+00
  -1.331872e+02  -2.202287e+02
   1.482946e+01  -3.685931e+02
   2.111542e+02  -2.080284e+02
   3.550209e+02   6.275747e+01
   3.307580e+02   2.641355e+02
   7.475546e+01   2.988039e+02
  -1.458284e+02   1.678747e+02
  -1.595894e+02  -9.918262e+00
  -3.855193e+01  -5.165951e+01
   1.022876e+01   3.004591e+01
  -3.538773e+00   9.154300e+01
  -1.466956e+02   1.186301e+02
  -1.478083e+02  -2.740390e+01
  -2.434467e+01  -9.665476e+01
   7.673345e+01  -1.545560e+01
   2.541505e+01   9.269390e+01
  -1.089581e+02   8.190982e+01
  -3.388364e+02  -4.028497e+00
  -2.572094e+02  -1.143834e+02
  -6.711385e+01  -2.584284e+02
   2.330298e+02  -2.321009e+02
   2.959179e+02  -1.206291e+02
   1.250000e+02   1.179194e+01
  -5.615238e+01   8.147732e+01
  -8.557413e+01  -5.859295e-01
   8.342536e+01  -5.055751e+01
   1.851844e+02  -3.196135e+01
   1.902625e+02   8.934910e+01
   6.412520e+01   2.028668e+02
  -1.169387e+02   2.040519e+02
  -1.291192e+02   2.078258e+01
  -5.141423e+01  -4.205573e+01
   5.334006e+01   5.892635e-01
   5.075047e+01   1.050637e+02
  -6.506034e+01   1.018376e+02
  -1.820008e+02   6.642016e+00
  -2.027575e+02  -1.543887e+02
  -4.007892e+01  -2.201970e+02
   1.601230e+02  -1.476094e+02
   1.576471e+02  -1.570437e+01
   2.077553e+01   1.444340e+02
  -5.962655e+01   1.130226e+02
  -5.532583e+01   1.301557e+01
  -6.093419e+01   1.570681e+01
   1.838243e+01  -5.783882e+01
  -5.003558e+01   1.525879e+01
  -1.239655e+02  -8.121366e+00
  -8.752245e+01  -1.245817e+02
  -2.431081e+00  -2.109606e+02
   8.419048e+01  -1.879076e+02
   2.141225e+02  -5.262924e+00
   2.166260e+02   1.909168e+02
   5.027454e+01   2.461638e+02
  -1.162874e+02   1.465419e+02
  -1.347443e+02  -4.111533e+00
  -5.775909e+01  -6.405855e+01
  -7.523596e+01  -8.128554e+00
  -5.374143e+01   4.126791e+01
  -8.546363e+01   3.325233e+01
  -8.398894e+01  -1.106085e+01
   3.139192e+01  -1.098941e+02
   1.369730e+02  -1.123170e+02
   1.092692e+02   4.835023e+01
  -4.157791e+01   1.501003e+02
  -1.089091e+02   1.057723e+02
  -2.440928e+02  -6.180402e+01
  -8.243043e+01  -2.217527e+02
   9.283313e+01  -2.143595e+02
   2.703215e+02  -1.085959e+02
   2.606709e+02   1.133941e+02
   1.097033e+02   1.949939e+02
  -7.558885e+01   1.342261e+02
  -8.849693e+01   8.075327e+01
  -6.500609e+01   6.128305e+01
  -4.153462e+01   1.124528e+02
  -7.879055e+01   7.336331e+01
  -1.144580e+02  -3.927905e+01
  -1.155292e+02  -1.510049e+02
   2.091064e+00  -2.568167e+02
   1.544303e+02  -2.206517e+02
   1.893554e+02  -2.583600e+00
   1.430491e+02   1.753090e+02
   2.593804e+01   1.832761e+02
  -6.666206e+01   3.291837e+01
  -1.017884e+02  -3.602322e+01
  -1.355992e+01  -6.360129e+01
  -1.670344e+01  -3.782182e+01
  -5.001323e+01  -9.625527e+00
  -9.131025e+01  -3.015866e+01
  -3.878082e+01  -2.593641e+01
   6.442424e+01  -5.754849e+01
   1.933841e+02   9.456440e+00
   1.485655e+02   8.897451e+01
  -3.259125e+01   6.324478e+01
  -2.029267e+02   1.130618e+02
  -1.334134e+02   1.171840e+01
  -9.478031e+00  -4.074253e+01
   8.628248e+01  -3.589682e+01
   1.072905e+02   3.790557e+01
   3.468212e+00   1.098869e+02
  -4.435437e+01   5.852373e+01
  -1.085483e+02   1.647314e+00
  -6.524080e+01  -3.941102e+01
  -6.330993e+01  -1.883330e+01
  -8.697837e+01  -2.941651e+01
  -4.278690e+01  -1.005399e+00
  -4.216158e+01  -1.014561e+02
   3.504436e+01  -1.008490e+02
   1.191586e+02  -1.316340e+02
   2.001120e+02  -4.435983e+01
   1.285577e+02   1.147121e+02
   2.789651e+01   1.521065e+02
  -7.063744e+01   8.048433e+01
  -4.498887e+01  -2.164864e+01
   5.174297e+01  -1.804429e+01
   1.312947e+02   3.201950e+01
   6.395830e+01   1.128349e+02
  -8.987466e+01   1.250575e+02
  -1.769644e+02   5.347890e+01
  -1.565958e+02  -1.665813e+01
  -1.453176e+01  -8.911181e+01
   8.106658e+00  -4.125067e+01
   1.893732e+01   1.681904e+01
  -2.526267e+01   2.833063e+01
  -9.936074e+01  -2.211779e+01
  -5.346273e+01  -1.103463e+02
   7.332291e+01  -1.633674e+02
   1.306466e+02  -6.732002e+01
   1.569889e+02   8.922310e+01
   4.895734e+01   1.363842e+02
  -1.020938e+02   1.478741e+02
  -1.371152e+02  -1.705502e+01
  -8.305392e+01  -1.153560e+02
   8.040213e+00  -7.144219e+01
   3.157202e+01  -1.129866e+01
   9.758776e+01   2.414170e+01
   3.026941e+01   2.831675e+01
   6.244643e+00  -2.720436e+01
   3.677218e+01   4.804168e+00
   6.370160e+01   8.331476e+01
   5.646903e+01   9.874342e+01
  -1.030695e+01   8.817691e+01
  -1.448355e+02  -3.821529e+01
  -1.030790e+02  -1.063094e+02
  -5.053472e+00  -4.746954e+01
   9.171620e+01  -2.925941e+01
   6.893561e+01   1.327590e+01
  -2.084684e+00   5.903183e+01
  -4.678699e+01   4.091685e+01
   3.621429e+01   4.768867e+01
   1.140860e+01  -2.296303e+00
  -5.131651e+00  -2.567181e+01
  -8.340200e+01  -3.201987e+01
  -9.081481e+01  -3.335128e+01
  -1.133501e+01  -8.801176e+01
   8.150647e+01  -1.244273e+02
   1.609684e+02  -4.756517e+01
   1.494060e+02   8.547588e+01
   7.736319e+01   1.377499e+02
  -8.809950e+01   1.614234e+02
  -1.397213e+02   6.244740e+01
  -7.558026e+01  -5.376364e+00
  -3.760681e+01  -2.257901e+01
  -4.919429e+01   2.456349e+01
  -6.142865e+00   2.595103e+01
   9.746329e+00  -1.863794e+01
  -4.652014e+01  -3.991121e+01
   5.567791e+01  -7.105672e+01
   5.764364e+01   4.037980e+00
   5.541576e+01   1.025143e+02
   3.119343e+01   1.296068e+02
  -8.395810e+01   3.863974e+01
  -6.335961e+01  -9.361938e+01
  -4.543054e+01  -1.162599e+02
   1.063618e+02  -6.354874e+01
   8.350235e+01   8.782541e+00
   5.627692e+01   3.694592e+01
  -4.446227e+01   4.958428e+01
  -3.376605e+01   2.398792e+01
   5.058078e+01  -2.180916e+00
   7.418099e+01  -2.089807e+01
   8.349876e+00   1.975580e+01
  -1.155057e+02   9.274370e+01
  -1.048175e+02   1.503791e+01
  -3.620047e+01   5.575814e+00
  -1.450022e+00  -8.863825e+01
   6.159027e+01  -1.218965e+02
   4.455309e+01  -3.377666e+01
   4.226769e+01   9.059277e+01
  -8.417969e+00   7.219156e+01
  -6.680104e+01   6.261177e+00
  -1.605158e+01  -6.417298e+01
  -1.621588e+01  -4.108646e+01
   2.353259e+01   4.451689e+00
   4.312024e+01   3.020956e+01
   5.210189e+01   2.509569e+01
   6.160391e+00  -1.061641e+01
  -1.891304e+01   1.280206e+01
   7.496444e+01   8.404772e+01
   1.914859e+00   6.484627e+01
  -3.640242e+01   4.955982e+01
  -5.110073e+01  -2.772806e+01
  -8.197154e+00  -6.248355e+01
   4.658497e+01  -2.614299e+01
   6.541934e+01   3.862318e+01
   4.413990e+00   8.647752e+01
  -3.143316e+01   4.135514e+01
  -5.414426e+01  -3.658123e+01
  -5.023885e+01  -4.282920e+01
   2.483524e+01  -1.811126e+01
   6.048516e+01  -4.418468e+01
   2.827014e+01  -9.941019e+00
  -1.482675e+01  -1.472566e+00
  -2.703682e+01   3.289642e+00
   3.163427e+01  -1.894102e+00
   9.512188e+01   4.437800e+00
