
 $NMID
 id='ANONYMOUS ', fmtdat='(2E16.6)'
 volume=1.0
 tramp=1.0
 $END
  -4.525240e+03   2.067346e+02
  -2.540514e+03  -2.904097e+03
   7.173558e+02  -2.942118e+03
   2.534047e+03  -1.339183e+03
   9.484761e+02   8.213237e+02
  -4.775376e+02   6.918573e+02
  -9.580451e+02  -3.831525e+02
   1.262085e+02  -1.286404e+03
   7.585254e+02  -7.562902e+02
   9.596141e+02   1.390240e+02
   5.733716e+02   9.899903e+02
  -1.045217e+02   8.086574e+02
  -7.244531e+02   1.252399e+02
  -4.872325e+02  -7.278479e+02
   3.139227e+02  -7.238115e+02
   6.656062e+02  -9.949654e+01
   2.757278e+02   7.883125e+02
  -3.660230e+02   7.652647e+02
  -7.283781e+02   2.281978e+02
  -4.503730e+02  -4.360175e+02
  -9.012834e+01  -4.799476e+02
   2.278353e+02  -2.517551e+02
   1.652447e+02  -8.539923e+01
  -4.605967e+01   6.242540e+01
  -3.164615e+02  -9.977927e+01
  -2.542325e+02  -3.966084e+02
   4.530276e+02  -3.971800e+02
   8.855594e+02   9.887466e+01
   4.863044e+02   5.463553e+02
  -3.912002e+02   5.144784e+02
  -7.698736e+02  -1.006290e+02
  -4.133686e+02  -4.939035e+02
   2.983677e+02  -4.617512e+02
   5.467005e+02  -2.646618e+02
   4.834302e+02   3.181789e+02
   1.043246e+02   5.463051e+02
  -1.511922e+02   3.045672e+02
  -1.684280e+02  -1.636128e+02
   8.059942e+01  -4.367877e+02
   5.659708e+02   7.425364e+01
   3.613232e+02   6.533914e+02
  -3.313749e+02   8.202228e+02
  -6.000043e+02   5.240817e+01
  -2.160961e+02  -6.907282e+02
   2.944196e+02  -3.399041e+02
   4.716780e+02   3.083556e+02
   2.324010e+01   4.726314e+02
  -5.510281e+02   1.290802e+02
  -6.586225e+02  -3.191084e+02
  -1.045236e+02  -5.971564e+02
   3.470028e+02  -3.848322e+02
   5.808421e+02   3.179386e+01
   3.843166e+02   3.971951e+02
  -1.566674e+02   3.357401e+02
  -4.464465e+02   4.925205e+01
  -2.831011e+02  -2.529168e+02
   6.732588e+01  -1.734754e+02
   2.080519e+02   2.065546e+02
  -1.550064e+02   1.619085e+02
  -4.011034e+02  -6.967511e+01
  -2.196900e+02  -2.903635e+02
   2.415746e+02  -2.356614e+02
   3.959544e+02  -2.816657e+01
   2.058189e+02   1.086043e+02
  -7.224593e+01   2.515046e+02
  -2.104152e+02   2.884405e+02
  -3.065904e+02   1.709670e+02
  -2.984760e+02  -1.783467e+02
  -1.125788e+02  -4.354147e+02
   1.106409e+02  -4.157036e+02
   1.346540e+02  -1.260885e+02
   8.973082e+01  -3.893565e+00
   8.355401e+01  -3.946574e+01
   2.259023e+02  -9.497031e+01
   2.380191e+02   4.869679e+01
   1.344387e+02   2.646022e+02
  -3.869245e+01   2.815092e+02
  -1.991658e+02   2.401477e+01
  -1.368409e+02  -2.754918e+02
   8.387571e+01  -2.716588e+02
   2.663357e+02  -1.906740e+02
   3.749441e+02   1.975816e+02
   2.192494e+02   3.845693e+02
  -6.197719e+01   3.159215e+02
  -2.614882e+02   1.397649e+02
  -1.948081e+02   7.725422e+00
  -1.539034e+02   4.188477e+01
  -2.478287e+02   7.631863e+01
  -4.434196e+02  -9.677752e+01
  -2.765197e+02  -3.748065e+02
   3.377477e+01  -4.273812e+02
   4.718347e+02  -4.755300e+02
   5.142295e+02  -1.940462e+02
   3.169648e+02   5.405745e+01
   5.177273e+01   2.674550e+02
  -1.155612e+02   2.884297e+02
  -1.365499e+02   3.932825e+01
   9.428196e+01  -1.262638e+02
   2.005641e+02  -2.638354e-01
   8.822899e+01   1.545810e+02
  -1.770012e+02   2.234514e+02
  -1.814781e+02  -5.559854e+01
  -3.604785e+01  -2.136949e+02
   1.618796e+02  -6.972381e+01
   1.639888e+02   2.215397e+02
  -3.697575e+01   3.249368e+02
  -2.159171e+02   1.551978e+02
  -3.386389e+02  -1.206511e+02
  -2.620135e+02  -2.162164e+02
  -5.513733e+01  -2.740795e+02
   1.290150e+02  -2.350725e+02
   2.072508e+02   2.136763e+01
   3.776358e+01   4.440621e+01
  -6.965368e+01  -3.097807e+00
  -5.165877e+01  -1.058541e+02
   1.368657e+02  -9.299675e+01
   2.237680e+02   3.057634e+01
   4.484332e+01   5.965093e+01
  -8.769367e+01   8.450634e+00
  -5.135081e+01  -6.782754e+01
   1.263034e+02  -1.385582e+02
   3.212679e+02   3.159068e+01
   1.847320e+02   1.324404e+02
   7.293548e+01   2.153899e+02
  -1.798204e+02   2.626456e+02
  -3.504006e+02   1.298088e+02
  -1.272582e+02  -3.884001e+01
   6.773757e+00  -9.482961e+01
   9.551467e+01   1.764894e+01
  -1.976832e+00   1.358453e+02
  -2.007157e+02   9.991297e+01
  -2.324013e+02  -9.442999e+01
  -8.922439e+01  -2.308440e+02
   8.325527e+01  -1.802577e+02
   1.188457e+02  -2.402309e+01
   6.721048e+01   4.009700e+01
   3.275697e+01   4.950287e+01
  -6.724581e+00  -9.918041e+01
   6.005078e+01  -5.120999e+01
   2.040178e+02  -1.499121e+01
   1.799723e+02   1.585959e+02
   1.732189e+01   2.034806e+02
  -1.465013e+02   1.669497e+02
  -1.669173e+02  -2.894175e+00
  -4.905519e+01  -1.445636e+02
   9.689823e+01  -7.649977e+01
   1.285689e+02  -2.640797e+01
   2.054673e+01   4.305164e+01
  -2.136808e+01  -1.289405e+01
   8.993120e+01   9.066606e+00
   4.685828e+01  -1.181044e+00
   1.228351e+02   7.760302e+01
  -1.521001e+01   1.303837e+02
  -1.399813e+02   1.287720e+02
  -1.973696e+02   4.680632e+00
  -2.192713e+02  -1.354000e+02
  -7.071730e+01  -2.373746e+02
   1.397580e+02  -1.670367e+02
   1.644558e+02   2.339367e+01
   9.638881e+01   6.087896e+01
   4.634365e+01   5.796838e+01
   7.814317e+01  -4.009384e+00
   8.447664e+01   7.792426e-01
   6.965189e+01   2.942821e+01
  -3.055892e+01   6.004763e+01
  -7.946553e+01   3.585657e+01
  -9.071635e+01  -6.056442e+01
   4.566667e+00  -1.005666e+02
   1.466620e+02  -7.177105e+01
   1.885538e+02   7.362332e+01
   9.300007e+01   1.975582e+02
  -1.004033e+02   2.095762e+02
  -3.256569e+02   8.384695e+01
  -2.962797e+02  -4.163614e+01
  -1.212821e+02  -2.145143e+02
   6.210973e+01  -1.806163e+02
   9.511445e+01  -9.524103e+01
   1.443705e+02  -7.804015e+01
   1.044201e+02  -1.005665e+02
   6.849975e+01  -5.893628e+01
   1.178537e+02   2.888682e+01
   1.536357e+02   1.061463e+02
  -6.700275e+00   2.448396e+02
  -8.618345e+01   1.632435e+02
  -1.614730e+02  -8.561773e+00
  -1.374417e+02  -1.410964e+02
  -7.683932e+01  -1.512377e+02
   3.872885e+01  -8.019611e+01
   3.225106e+01  -8.439076e-01
   2.717602e+01   4.928289e+01
  -1.776589e+01   3.650480e+01
   3.907963e+01   5.839140e+00
   7.808772e+01  -2.581894e-01
   3.561103e+01   2.667063e+01
  -7.796902e+01   5.212294e+01
  -1.473069e+02   1.631760e+01
  -1.387254e+02  -2.966746e+01
   2.562406e+01  -1.126210e+02
   1.368848e+02  -6.922532e+01
   1.358508e+02   2.252738e+00
   3.054492e+01   5.766397e+01
  -5.955209e+01   2.732982e+01
  -3.424960e+01   1.393922e+01
  -4.775615e+01  -5.385153e+01
   7.648955e+01  -8.982726e+01
   8.493591e+01  -2.978086e+01
   8.707747e+01   6.306835e+01
   4.584198e+01   4.738260e+01
   5.332361e+01   5.782234e+01
   1.051374e+02   3.751271e+00
   3.842372e+01   1.903837e+01
  -3.898509e+01   1.855793e+02
  -1.093446e+02   1.809274e+02
  -1.873064e+02   2.932223e+01
  -1.667109e+02  -8.481131e+01
  -4.080516e+01  -1.466857e+02
   9.623560e+01  -4.570226e+01
   5.718643e+01  -2.189010e+00
  -3.548085e+01   6.693141e-01
  -1.852227e+02  -5.994149e+01
  -1.104742e+02  -1.259910e+02
   7.227690e+01  -1.112542e+02
   2.015229e+02  -4.062275e+01
   1.781985e+02   6.437796e+01
   9.391774e+01   9.364791e+01
  -6.851175e+01   2.049139e+01
  -3.973942e+01  -1.549828e+01
   4.955425e+01  -4.407414e+01
   1.158003e+02  -2.229519e+01
  -1.149479e+01   1.258530e+02
  -9.390821e+01   1.571861e+02
  -1.181740e+02   1.492767e+02
  -1.443595e+02  -9.082453e+01
  -2.513650e+01  -1.955631e+02
   5.884413e+01  -1.055521e+02
   9.136840e+01   9.006630e+00
   3.487663e+01   1.031453e+02
   5.341750e+01   1.005914e+02
  -5.958682e+01   1.463794e+00
  -6.739827e+01  -4.120861e+01
  -5.435093e+01  -2.755787e+01
  -1.326309e+00   1.275577e+01
  -6.104336e+01  -2.746174e+01
  -4.130864e+01  -9.918806e+01
  -5.305505e+01  -1.250716e+02
   5.457891e+01  -1.828233e+01
   1.454025e+02  -3.675005e-01
   1.666009e+02   1.087772e+02
  -7.361168e+00   1.065698e+02
  -1.053141e+02   3.609204e+01
  -9.141954e+01  -1.391851e-01
  -4.247692e+01  -3.156296e+01
   1.998011e+01  -1.747443e+01
   3.129257e+01   7.220339e+00
  -1.479598e+01  -2.518283e+01
   1.352427e+01   2.564415e+01
   1.224952e+02  -9.682966e-01
   1.306473e+02   4.109690e+01
   2.602317e+01   9.835037e+01
  -1.589603e+02   1.148480e+02
  -1.633237e+02   3.711803e+00
  -1.278649e+02  -8.509909e+01
  -3.092933e+01  -1.600496e+02
   8.972489e+01  -1.023388e+02
   1.471994e+02  -7.801620e+01
   7.196652e+01   4.829114e+01
   5.260217e+01   2.933794e+01
   1.501032e+01   2.065297e+01
  -2.913958e+01   8.372898e+00
   4.951107e+01   5.396648e+01
   3.205777e+01   7.358537e+01
  -4.546653e+01   6.626914e+01
  -8.681016e+01   1.959441e+01
  -9.842632e+01  -1.325928e+02
  -5.593063e+00  -1.771584e+02
   6.451618e+01  -8.966151e+00
   1.096189e+02   8.636021e+01
   5.078348e+01   9.349661e+01
  -7.995864e+01   3.675638e+01
  -9.725621e+01   1.446271e+01
  -2.743245e+01  -3.164436e+01
   2.518276e+01  -6.584909e+01
   3.010475e+01  -4.881814e+01
  -5.533441e+01   1.493627e+01
  -1.344010e+02   1.462346e+01
  -2.821786e+01  -6.806985e+01
   7.213609e+01  -1.194862e+02
   1.491260e+02  -4.371124e+01
   4.105227e+01   2.796957e+01
   1.586807e+01   1.046406e+02
  -4.409162e+01   7.202799e+01
  -6.204976e+01  -1.393688e+01
  -3.911372e+01  -9.551909e+00
  -1.482670e+01  -4.375991e+01
   4.414978e+01   4.253113e+01
   6.991644e+00   5.182625e+01
   2.394854e+00   2.510623e+01
  -1.548587e+01  -4.884404e+00
  -6.048168e+01  -4.773256e+01
  -5.352396e-01   2.065168e+01
  -1.868573e+01   2.353919e+01
   2.043690e+01   1.120707e+01
  -1.649442e+01  -4.367146e+01
   4.604472e+01  -3.148482e+01
   6.510938e+01   5.243719e+00
   4.429195e+01   4.316974e+01
  -1.443613e+00   8.143867e+01
  -4.246140e+01   2.968446e+01
  -5.459393e+01  -4.739154e+01
  -2.258548e+01  -8.707990e+01
   7.986397e+01  -3.608387e+01
   9.548328e+01  -4.689933e+00
   1.647034e+01   6.546146e+01
  -3.252268e+01   6.865470e+01
  -5.433182e+01   2.420136e+01
  -4.928657e+01   4.336370e+01
   6.078072e+01  -1.130255e+01
   4.187579e+01   4.519298e+01
  -4.077116e+01   3.478204e+01
  -7.480275e+01   3.198728e+01
