
 $NMID
 id='ANONYMOUS ', fmtdat='(2E16.6)'
 volume=1.0
 tramp=1.0
 $END
  -3.272997e+03   1.319309e+02
  -2.584487e+03  -1.725484e+03
   1.462081e+02  -1.987527e+03
   1.132087e+03  -1.408769e+03
   1.185424e+03  -1.539236e+02
  -4.955477e+01   3.705066e+02
  -2.945667e+02   2.282699e+02
  -7.624480e+01  -5.295806e+02
   5.369740e+02  -6.050123e+02
   6.807356e+02  -2.290501e+02
   5.029262e+02   6.891966e+02
  -1.499560e+01   5.832160e+02
  -3.299170e+02   2.149403e+02
  -2.733239e+02  -3.386235e+02
   1.435724e+02  -5.735706e+02
   3.949746e+02  -9.344652e+01
   3.020100e+02   4.819943e+02
  -2.507069e+02   7.571819e+02
  -6.657888e+02   3.341910e+02
  -4.665241e+02  -9.000535e+01
  -1.484809e+02  -3.619501e+02
   1.474237e+02  -1.719734e+02
   8.879297e+01  -6.720138e+01
  -1.656041e+02  -9.523966e+01
  -2.871677e+02  -2.518332e+02
  -9.910232e+00  -4.424464e+02
   4.469734e+02  -2.133997e+02
   6.901496e+02   2.170495e+02
   3.008997e+02   4.716981e+02
  -2.410106e+02   2.453620e+02
  -5.192554e+02  -1.311288e+02
  -1.982101e+02  -3.663958e+02
   2.421848e+02  -3.766250e+02
   5.022697e+02  -8.851507e+01
   3.683087e+02   2.105032e+02
   9.674293e+01   3.916693e+02
  -1.881132e+01   1.674376e+02
   7.003086e+01  -1.088680e+02
   1.891523e+02  -1.880240e+02
   2.530097e+02   1.298289e+02
   5.332539e+01   5.478084e+02
  -3.463505e+02   4.612568e+02
  -4.072092e+02  -1.712127e+01
  -1.456979e+02  -3.916210e+02
   1.717767e+02  -2.081522e+02
   1.678845e+02   2.672684e+02
  -1.063914e+02   3.637213e+02
  -4.663470e+02   3.527203e+01
  -4.352569e+02  -3.162911e+02
  -1.516504e+02  -4.809071e+02
   3.130346e+02  -2.465010e+02
   5.711519e+02   9.137159e+01
   3.509128e+02   3.383240e+02
  -9.467756e+01   2.092916e+02
  -2.786203e+02   8.986131e+01
  -2.550662e+02  -3.544718e+01
   3.264604e+01  -1.207659e+01
   8.589375e+01   5.193146e+01
  -9.765727e+01   7.675892e+01
  -2.950819e+02  -5.055024e+01
  -1.798501e+02  -1.590800e+02
   1.521468e+02  -2.744371e+02
   3.706960e+02  -2.076332e+02
   2.633564e+02   1.300888e+02
  -4.647978e+01   3.419534e+02
  -2.756166e+02   3.436720e+02
  -3.889685e+02   1.756178e+02
  -2.476702e+02  -2.259954e+02
  -1.145855e+02  -3.316719e+02
   6.999895e+01  -2.972178e+02
   2.831714e+01  -1.497968e+02
   5.150878e+01  -6.377168e+01
   1.456338e+02  -1.180604e+02
   2.137893e+02  -9.551593e+01
   2.144653e+02   1.335487e+02
   8.576778e+01   2.937167e+02
  -9.577174e+01   1.681765e+02
  -1.773543e+02   3.962131e+01
  -1.833073e+02  -2.788042e+02
   1.131787e+01  -2.481325e+02
   2.094174e+02  -6.113142e+01
   3.167189e+02   1.931031e+02
   2.097767e+02   2.718809e+02
  -4.532252e+01   2.595998e+02
  -1.567595e+02   1.640534e+02
  -1.357842e+02   1.251961e+02
  -1.602876e+02   2.307034e+01
  -2.690504e+02   4.473110e+01
  -4.304851e+02  -7.459852e+01
  -3.375268e+02  -2.850038e+02
   3.264705e+01  -4.205108e+02
   4.078201e+02  -4.495855e+02
   4.681487e+02  -1.322285e+02
   3.171950e+02   9.267588e+01
   2.633137e+01   2.006880e+02
  -4.951791e+01   2.160821e+02
  -4.365227e+01   3.450230e+01
   1.493790e+02  -6.478242e+01
   1.458334e+02   5.601371e+01
   1.136304e+01   1.158161e+02
  -1.473179e+02   6.104280e+01
  -1.651638e+02  -6.228627e+01
   4.429710e+01  -1.331606e+02
   1.123424e+02  -1.066144e+01
   1.164062e+02   2.085952e+02
  -2.949832e+01   2.806636e+02
  -2.877047e+02   1.569955e+02
  -3.839225e+02  -8.474646e+01
  -2.756680e+02  -2.955456e+02
  -5.263989e+01  -2.654148e+02
   1.709939e+02  -1.633581e+02
   2.068156e+02  -5.193673e+00
   6.855797e+01   4.570630e+01
  -5.131580e+01  -5.624950e+01
  -1.139427e+01  -8.506957e+01
   1.438038e+02  -1.212902e+02
   1.737040e+02   3.765366e+01
   4.025069e+01   7.361827e+01
  -5.310724e+01   3.215049e-01
  -3.273557e+01  -1.156454e+02
   1.163264e+02  -8.102211e+01
   3.480214e+02   3.402463e+00
   2.665420e+02   2.288422e+02
   3.730884e+01   2.213747e+02
  -2.273022e+02   2.293190e+02
  -2.877040e+02   1.034413e+02
  -1.276115e+02  -3.333511e+01
   3.317122e+01  -7.110360e+01
   1.091447e+02   3.732335e+00
  -8.427030e+01   7.376082e+01
  -1.733629e+02   5.091548e+01
  -2.004776e+02  -8.376213e+01
  -7.759007e+01  -1.532567e+02
   9.601278e+01  -1.200348e+02
   1.347686e+02  -2.873990e+01
   5.093209e+01   4.813069e+01
   8.062393e+00  -2.732544e+01
  -3.630709e+01  -1.424954e+02
   1.178677e+02  -8.515243e+01
   2.246674e+02  -2.737153e+01
   1.936641e+02   1.790751e+02
   1.452255e+01   2.733573e+02
  -1.318474e+02   1.770861e+02
  -2.341592e+02  -2.289355e+00
  -6.974868e+01  -1.386089e+02
   2.341498e+01  -1.139142e+02
   4.741825e+01  -4.234021e+01
   2.413539e+01   3.553028e+01
  -6.492864e+01  -1.382758e+01
   2.819888e+01  -2.802945e+01
   1.168358e+02  -6.621332e+00
   3.674050e+01   1.190399e+02
   4.481926e+01   1.510775e+02
  -1.277915e+02   1.774511e+02
  -1.849059e+02   3.341477e+00
  -2.233996e+02  -1.146434e+02
   9.759542e+00  -1.952243e+02
   1.193866e+02  -1.717650e+02
   1.260466e+02  -8.278227e+01
   6.446007e+01   5.040811e+01
   5.269918e+01   1.162964e+01
   7.466375e+01  -3.158197e+01
   1.078774e+02   3.935786e+01
   5.556869e+01   7.442716e+01
  -3.515350e+01   7.451138e+01
  -8.586296e+01   5.057307e+01
  -9.686953e+01  -3.326299e+01
   9.962037e+00  -1.154736e+02
   1.431626e+02  -9.825089e+01
   2.557271e+02   5.015225e+01
   1.134029e+02   2.031144e+02
  -8.909861e+01   2.365005e+02
  -2.576147e+02   1.192882e+02
  -2.824095e+02  -8.042127e+01
  -1.187276e+02  -1.616229e+02
   3.985080e+01  -1.141498e+02
   1.171934e+02  -8.614153e+01
   5.903681e+01  -6.071758e+01
   5.256195e+01  -1.074264e+02
   9.605519e+01  -8.599268e+01
   1.338869e+02   4.181357e+01
   9.979478e+01   1.596464e+02
  -1.432103e+01   2.745632e+02
  -1.526568e+02   1.794447e+02
  -1.781439e+02  -2.436908e+01
  -1.784706e+02  -1.021361e+02
  -1.793828e+00  -1.555718e+02
   4.649780e+01  -9.367485e+01
   7.706009e+01   1.781989e+01
   1.588187e+01   6.975545e+01
  -2.056129e+01   8.374942e+01
   7.274025e-02   2.088689e+01
   7.283309e+01   5.622323e+00
   3.981383e+01   8.238712e+01
  -7.220793e+01   6.947229e+01
  -1.953132e+02   5.038685e+01
  -1.087593e+02  -9.166699e+01
  -2.647627e+01  -7.950850e+01
   1.005831e+02  -8.394380e+01
   1.427235e+02  -2.859247e+01
   4.012064e+01   7.427003e+01
  -7.205278e+01   4.125071e+01
  -3.686593e+01   9.063649e+00
  -2.358621e+01  -6.720845e+01
   5.004693e+01  -1.212142e+02
   5.834748e+01  -5.305735e+00
   4.592312e+01   6.414398e+01
   5.407316e+01   7.518507e+01
   8.039450e+01  -2.432747e+01
   6.470883e+01   4.697393e+01
   2.638930e+00   1.026102e+02
  -6.208975e+01   1.400134e+02
  -1.241601e+02   1.504222e+02
  -1.853471e+02   2.976620e+01
  -1.738696e+02  -1.282129e+02
  -3.952063e+00  -9.269507e+01
   8.589911e+01  -6.553655e+01
   8.487237e+01   1.010242e+01
  -6.728183e+01   2.496334e+01
  -1.050346e+02  -8.211259e+01
  -8.957369e+01  -1.068296e+02
   1.471128e+02  -1.350221e+02
   2.356435e+02  -5.156327e+01
   1.763902e+02   2.195581e+01
   3.261864e+01   5.131749e+01
  -4.699417e+01   7.787158e+01
  -3.870957e+01  -2.725487e+01
   3.174295e+01  -2.630654e+01
   1.068028e+02   3.880501e+01
   5.336627e+01   1.133020e+02
  -7.605639e+01   1.935368e+02
  -1.312807e+02   4.212983e+01
  -1.756852e+02  -1.298632e+02
  -7.245222e+01  -1.536471e+02
   8.279847e+01  -1.416260e+02
   1.440407e+02   5.047472e+01
   2.552518e+01   9.951163e+01
  -2.342329e+00   8.200184e+01
  -5.371029e+01  -4.201859e+00
  -6.176201e+01   3.757016e+00
   5.247700e-01   2.785762e+01
   9.506602e+00   3.924249e+01
  -6.858259e+00  -2.568700e+01
  -4.252258e+01  -7.198553e+01
  -6.009666e+01  -7.866701e+01
   7.031953e+01  -4.554682e+01
   1.410603e+02   5.099795e+01
   1.047714e+02   1.354541e+02
   2.337525e+01   8.522480e+01
  -8.866324e+01   5.080177e+01
  -6.903687e+01   1.829832e+01
  -1.119628e+01  -2.941845e+01
   3.860183e+01   1.023000e+00
   5.054889e+01   1.366068e+01
  -3.574431e+01   2.798907e+01
   1.563253e+01  -7.236758e+00
   9.837990e+01   2.503981e+01
   7.558485e+01   2.263775e+00
  -6.475477e+00   5.976016e+01
  -9.411016e+01   8.144212e+01
  -1.846545e+02   1.192079e+02
  -1.544265e+02  -7.649991e+01
  -6.121012e+01  -1.391590e+02
   1.044475e+02  -1.321954e+02
   8.830219e+01  -5.123271e+01
   7.010744e+01   5.765625e+00
   5.805398e+01   1.411786e+01
   9.085382e+00   2.256329e+00
  -3.263328e+00   2.183944e+01
   3.782130e+01   4.357446e+01
   5.004290e+00   8.178334e+01
  -2.090579e+01   8.081693e+01
  -8.437739e+01  -2.902228e+01
  -1.346971e+02  -1.073196e+02
  -2.018039e+01  -1.405419e+02
   5.527529e+01   1.225357e+01
   8.515395e+01   4.866221e+01
   4.535402e+01   5.164015e+01
  -9.073947e+01   7.850610e+01
  -1.082631e+02  -2.026956e+01
  -5.477346e+01  -1.372816e+01
   5.885384e+01  -7.609573e+01
   7.909984e+01  -2.045932e+01
  -1.279232e+01   1.400903e+01
  -5.611408e+01   3.515306e+01
  -4.463988e+01  -3.820540e+01
   6.530802e+01  -6.441902e+01
   1.359696e+02  -3.282172e+01
   4.978090e+01   3.521157e+01
  -2.841625e+01   1.119475e+02
  -5.999517e+01   9.471922e+01
  -3.497938e+01  -1.098491e+01
  -2.025282e+01  -4.312363e+01
   6.557371e+01  -6.648061e+01
   2.754038e+01   1.209539e+01
   1.263753e+01   6.254168e+01
   2.402458e+01   8.102536e+01
  -4.026969e+01   2.009630e+01
  -9.057434e+01  -4.169671e+01
   6.510009e+00  -4.333129e+00
   2.766462e+01   2.367054e+00
  -4.267959e+01  -2.155807e+00
   5.393310e+00  -3.695370e+01
   2.608711e+01  -3.101580e+01
   5.015166e+01  -2.910955e+01
   4.852129e+01   2.560702e+01
  -4.043861e+00   7.218388e+01
  -2.687132e+01   2.880520e+01
  -4.469785e+01  -2.037424e+01
   3.289612e+01  -8.110530e+01
   6.211633e+01  -3.573172e+01
   1.093276e+02  -3.063503e+01
   8.716104e+01   2.569963e+01
  -6.265010e+01   5.279032e+01
  -7.270717e+01   7.582461e+00
   2.467614e+01   2.035631e+01
   2.115612e-01  -3.630799e+01
   5.522404e+00   2.543671e+01
  -2.273620e+01   1.303553e+01
  -1.093256e+02   4.865042e+01
