
 $NMID
 id='ANONYMOUS ', fmtdat='(2E16.6)'
 volume=1.0
 tramp=1.0
 $END
  -3.258588e+03   2.147794e+02
  -2.274141e+03  -1.600100e+03
   3.101218e+01  -2.211050e+03
   9.719263e+02  -1.250843e+03
   1.079602e+03  -3.254931e+01
  -2.860409e+02   3.594900e+02
  -5.230779e+02  -6.950226e+01
  -7.075287e+01  -6.375260e+02
   3.027318e+02  -6.525068e+02
   5.874692e+02  -7.282903e+01
   2.767205e+02   5.945089e+02
   3.886927e+01   5.523403e+02
  -3.539898e+02   1.564028e+02
  -1.921144e+02  -2.954625e+02
   6.896550e+01  -5.604460e+02
   3.090241e+02  -9.369899e+01
   1.532790e+02   3.762105e+02
  -1.769046e+02   5.331408e+02
  -4.312836e+02   1.805422e+02
  -3.979239e+02  -1.445986e+02
  -5.893200e+01  -2.985054e+02
   1.325620e+02  -2.406215e+02
   7.012842e+01  -4.280450e+01
  -1.400585e+02  -2.976060e+01
  -2.367607e+02  -1.821094e+02
  -8.218101e+01  -3.336438e+02
   3.742523e+02  -1.833466e+02
   6.506556e+02   1.758736e+02
   1.729760e+02   3.140845e+02
  -1.992947e+02   2.505342e+02
  -4.525611e+02  -1.054507e+02
  -2.552291e+02  -3.360461e+02
   1.880148e+02  -2.771540e+02
   3.923473e+02  -1.616287e+02
   3.082060e+02   1.757967e+02
   7.941118e+01   2.516000e+02
  -2.862307e+01   1.932284e+02
  -4.207058e+01  -1.055819e+02
   1.112440e+02  -2.372283e+02
   2.163197e+02   7.312123e+01
   1.486359e+02   4.443711e+02
  -2.009844e+02   4.232500e+02
  -3.287982e+02   2.529849e+01
  -2.276857e+02  -3.917113e+02
   1.771560e+02  -1.953819e+02
   2.264054e+02   1.634201e+02
  -7.042796e+01   3.164860e+02
  -4.841701e+02   1.385689e+02
  -3.849459e+02  -2.401152e+02
  -1.298557e+02  -4.483063e+02
   2.356390e+02  -2.412657e+02
   5.138203e+02   5.716711e+01
   3.464672e+02   3.375800e+02
  -9.768181e+00   1.830855e+02
  -2.858424e+02   7.006446e+01
  -2.205722e+02  -2.154726e+01
   4.159398e+01  -6.327659e+01
   1.019268e+02   4.581357e+01
  -2.464617e+01   9.678196e+01
  -2.198708e+02  -5.635596e+01
  -1.332835e+02  -1.937282e+02
   8.058015e+01  -1.941738e+02
   2.937088e+02  -7.366084e+01
   1.832235e+02   1.131971e+02
  -2.207819e+01   2.284445e+02
  -2.172308e+02   2.169152e+02
  -2.534946e+02   1.632062e+02
  -2.475927e+02  -1.472914e+02
  -3.877664e+01  -2.940769e+02
   8.239428e+01  -3.150577e+02
   5.216508e+01  -1.628528e+02
  -9.746487e+00  -2.523369e+01
   1.116361e+02  -1.390673e+02
   1.189229e+02  -1.122911e+02
   2.752889e+02   1.044025e+02
   1.249085e+02   1.794962e+02
  -7.812016e+01   1.660078e+02
  -1.250217e+02   9.064441e+00
  -1.730866e+02  -2.181418e+02
  -3.829586e+01  -2.518115e+02
   1.904730e+02  -6.472217e+01
   2.522831e+02   1.763905e+02
   1.035524e+02   2.496598e+02
  -5.732839e+01   2.125720e+02
  -1.522982e+02   1.569733e+02
  -1.645401e+02   2.987700e+01
  -9.522348e+01   5.490202e+01
  -1.681933e+02  -2.753963e+00
  -3.981194e+02  -7.285861e+01
  -3.158209e+02  -2.686106e+02
   2.911659e+01  -4.222234e+02
   3.317075e+02  -3.785013e+02
   3.448691e+02  -1.657703e+02
   1.962512e+02   1.225596e+01
   3.213706e+01   2.204353e+02
  -9.608663e+01   1.867434e+02
  -1.262701e+01   6.545740e+01
   1.000053e+02  -5.374167e+01
   1.309028e+02   7.702376e-01
   5.595260e+01   1.665156e+02
  -1.148741e+02   1.218031e+02
  -1.262580e+02  -4.447407e+01
   4.612085e+00  -1.409358e+02
   1.230198e+02  -1.356282e+00
   1.321745e+02   2.464628e+02
   1.008117e+00   2.782870e+02
  -1.754825e+02   1.655118e+02
  -2.812683e+02  -4.019313e+01
  -2.717703e+02  -2.039603e+02
  -3.529840e+01  -2.898170e+02
   1.297769e+02  -1.009486e+02
   1.570859e+02  -2.884762e+01
   3.416269e+01   5.696831e+01
  -2.637749e+01  -5.891551e+01
  -3.382436e+00  -8.894323e+01
   1.091695e+02  -1.050238e+02
   1.093928e+02   3.612658e+01
   3.448502e+01   6.613516e+01
  -7.992144e+01   2.823312e+01
  -4.716990e+01  -9.054651e+01
   9.227676e+01  -3.199630e+01
   2.705711e+02  -3.238087e+01
   2.211011e+02   1.204866e+02
   2.519514e+01   2.253466e+02
  -1.895246e+02   1.773070e+02
  -2.495725e+02   9.939567e+01
  -1.197992e+02  -3.044552e+01
   3.705150e+01  -1.337432e+02
   8.471332e+01  -2.357788e+01
  -1.186908e+01   1.332306e+01
  -2.245986e+02   7.163448e+01
  -1.294174e+02  -5.515166e+01
  -4.791153e+01  -1.410066e+02
   8.303981e+01  -1.576378e+02
   1.366750e+02  -3.600738e+01
   7.775729e+01  -1.260392e+00
  -2.077566e+01  -2.993598e+01
  -2.905274e+01  -9.365202e+01
   7.583757e+01  -1.301881e+02
   2.284251e+02  -1.469317e+01
   1.616976e+02   8.769750e+01
   2.175058e+01   1.960102e+02
  -1.183729e+02   1.265356e+02
  -1.366659e+02   2.346528e+01
  -2.599500e+01  -1.346044e+02
   6.032183e+01  -1.114734e+02
   4.617155e+01  -2.317807e+01
   3.122140e+01   3.306748e+01
  -1.907612e+01   2.579646e+01
  -1.361661e+01  -3.245758e+01
   4.787409e+01  -4.140725e+00
   7.783299e+01   4.453692e+01
   2.502630e+01   1.811354e+02
  -1.085610e+02   9.796433e+01
  -1.202030e+02  -5.328528e+00
  -1.860871e+02  -1.410464e+02
   4.918611e+00  -1.128912e+02
   7.673467e+01  -1.520175e+02
   1.216124e+02  -3.836634e+01
   5.418250e+01  -7.762595e+00
  -1.362691e+00  -4.534185e+00
   2.759416e+01  -3.372100e+00
   3.979930e+01  -6.490966e+00
  -1.888048e+01   1.944197e+01
  -3.370038e+01   1.287828e+02
  -7.373801e+01   5.006856e+01
  -1.327174e+02  -2.228837e+01
  -1.275908e+01  -9.574352e+01
   1.307427e+02  -7.876633e+01
   2.019072e+02   3.340679e+01
   7.414536e+01   1.477055e+02
  -5.011831e+01   1.957285e+02
  -2.678638e+02   1.009158e+02
  -2.179664e+02  -4.731347e+01
  -9.327326e+01  -1.536347e+02
   8.249895e+00  -1.174599e+02
   1.095272e+02  -6.154401e+01
   1.099121e+02  -5.153919e+01
   6.545532e+01  -9.292054e+01
   4.347606e+01  -6.014295e+01
   7.587519e+01   2.063184e+01
   9.057945e+01   1.480523e+02
   3.538570e+01   2.260412e+02
  -4.979168e+01   1.352313e+02
  -1.604296e+02   6.020572e-01
  -1.234094e+02  -1.422318e+02
  -1.801427e+01  -1.243126e+02
   6.434458e+01  -9.853587e+01
   5.605962e+01  -5.053178e+01
  -2.368502e+01   1.647105e+01
  -2.146017e+01   6.329645e+00
   2.338687e+01   2.606618e+01
   4.830219e+01   3.065187e+01
   7.911814e+01   3.012936e+01
  -6.708128e+01   4.165936e+01
  -1.294378e+02  -1.433212e+01
  -8.637642e+01  -5.986691e+01
  -2.238001e+01  -1.074242e+02
   9.457941e+01  -7.836663e+01
   1.415188e+02  -1.075248e+01
   4.864665e+01   6.110954e+01
  -3.243986e+01   3.182170e+01
  -1.255149e+01  -2.609471e+01
  -4.029135e+01  -9.021358e+01
   4.586711e+01  -4.744115e+01
   3.346804e+01  -1.986740e+01
   7.332021e+01   3.598225e+01
   5.495469e+01   2.151949e+01
   5.297947e+00   1.479984e+01
   7.876604e+01   3.969676e+00
   4.868424e+01   1.041465e+02
  -4.600905e+01   7.364176e+01
  -9.021538e+01   1.480197e+02
  -1.521591e+02   5.728455e+00
  -6.271735e+01  -7.471391e+01
   1.122258e+01  -8.160300e+01
   1.120291e+02  -8.075335e+01
   8.159110e+01   1.970344e+00
  -1.605574e+01  -2.118630e+00
  -9.042528e+01  -2.512622e+01
  -4.622921e+01  -7.345509e+01
   5.049417e+01  -5.887186e+01
   1.842337e+02  -2.430718e+01
   1.628327e+02   4.185674e+01
   4.686698e+01   8.865422e+01
  -8.325277e+01   9.763176e+01
  -2.088738e+01  -8.910068e-01
   1.077557e+01  -5.590005e+01
   5.775507e+01  -2.286803e+01
   2.454425e+01   7.716444e+01
  -5.781812e+01   1.196530e+02
  -9.746528e+01   4.371010e+01
  -1.049580e+02  -9.386087e+01
  -5.128944e+01  -1.062446e+02
   7.106345e+01  -8.528961e+01
   8.793775e+01   3.842344e+01
   1.573933e+00   7.336971e+01
   2.880368e+01   6.574584e+01
  -3.550746e+01   5.556954e+01
  -9.071460e+01  -3.448049e+01
  -4.665626e+01   2.359961e+01
  -1.510727e+00   2.309438e+00
  -3.147731e+01  -3.754584e+01
  -5.364351e+01  -6.929808e+01
  -2.427411e+01  -1.305776e+01
   5.199454e+00  -3.757299e+01
   1.110345e+02   2.516299e+01
   9.303343e+01   6.815276e+01
   3.878357e+01   3.576117e+01
  -2.844245e+01  -1.006472e+01
  -9.745152e+01  -2.953628e+00
  -4.390606e+01   1.021380e+01
   6.168938e+01  -5.862045e+01
   1.840923e+01  -3.604596e+01
  -1.633616e+00   1.312302e+01
   3.579422e+00  -8.393047e+00
   6.284453e+01  -1.319881e+01
   6.405002e+01   2.782269e+01
  -7.750027e+00   9.253827e+01
  -9.899411e+01   7.363610e+01
  -1.096769e+02   7.241210e+01
  -1.299056e+02  -8.009486e+01
  -5.433609e+01  -1.540826e+02
   7.035120e+01  -1.054533e+02
   9.946087e+01  -6.553249e+01
   5.626219e+01   2.420103e+01
   8.879330e+00   2.771303e+01
  -4.344313e+01  -1.449537e+01
  -2.685170e+00  -2.555152e+01
   6.655531e+01   2.579335e+01
   1.387070e+00   9.791999e+01
  -6.227929e+01   7.433582e+01
  -5.721203e+01  -7.636671e+00
  -7.606369e+01  -7.641735e+01
  -1.672375e+01  -1.392738e+02
   3.551856e+01  -4.830965e+01
   6.487409e+01   3.616843e+00
   3.764486e+01   3.402580e+01
  -5.181023e+01   5.340259e+01
  -7.569831e+01  -4.126966e+01
  -3.970675e+01  -4.148482e+01
  -1.733919e+00  -3.841887e+01
   2.139513e+01  -5.043778e+01
  -1.702614e+01   2.827191e+01
  -4.493608e+01   4.285254e+01
  -2.124748e+01  -5.573477e+01
   2.477538e+01  -3.947783e+01
   1.159646e+02  -9.637935e+01
   6.632483e+01  -1.678894e+01
  -1.279781e+01   2.958402e+01
  -2.844968e+01   6.563767e+01
  -9.409580e+01   1.994334e+01
  -2.838209e+01   2.064903e+00
   2.076369e+01  -7.342854e+01
  -7.165161e+00   3.892730e+01
   8.071309e+01   4.365058e+01
   2.121776e+01   1.597378e+01
  -5.435539e+01   1.776025e+01
  -1.851155e+01  -3.232653e+01
  -3.147045e+01  -1.376255e+01
   2.271242e+01   2.480738e+01
  -2.433145e+01  -3.190857e+00
   1.548449e+00  -5.710206e+00
   1.697174e+01  -2.234334e+01
  -3.672218e+00  -4.660006e+01
   4.580179e+01  -6.967112e+00
   2.320604e+00   2.364583e+01
  -6.899009e+01   9.533304e+00
  -8.999841e+01  -9.839781e+00
  -5.479699e+01  -7.098845e+01
   6.062798e-01  -5.334151e+01
   7.038230e+01  -8.469569e+00
   5.528769e+01   4.824935e+01
  -3.757477e+01   4.331953e+01
  -2.292550e+01   4.017340e+01
   1.247105e+00  -2.646054e+01
   2.492461e+00   7.387956e+00
  -6.699764e+00  -9.693178e+00
  -2.752524e+01  -2.281585e+01
  -6.261642e+01   2.057077e-01
