
 $NMID
 id='ANONYMOUS ', fmtdat='(2E16.6)'
 volume=1.0
 tramp=1.0
 $END
  -3.622081e+03   4.846772e+02
  -2.749607e+03  -2.090119e+03
   5.711027e+02  -2.964413e+03
   2.034021e+03  -1.136128e+03
   1.204023e+03   3.417665e+02
  -5.378562e+02   3.894040e+02
  -6.709251e+02  -2.356918e+02
   1.723885e+02  -1.054770e+03
   6.621124e+02  -7.788241e+02
   8.029143e+02  -3.241668e+01
   4.152954e+02   8.462221e+02
  -1.118204e+02   7.304326e+02
  -6.393820e+02   1.623046e+02
  -3.929944e+02  -5.919859e+02
   8.888951e+01  -6.741599e+02
   5.002200e+02  -5.918185e+01
   2.592055e+02   6.959767e+02
  -2.816634e+02   7.247639e+02
  -5.692468e+02   2.230005e+02
  -5.144377e+02  -3.204354e+02
  -9.120669e+01  -3.544468e+02
   2.008737e+02  -3.528332e+02
   1.780951e+02  -4.233904e+01
  -1.360027e+02   3.329972e+01
  -2.989301e+02  -1.656605e+02
  -1.666563e+02  -3.685651e+02
   4.345374e+02  -2.750873e+02
   8.095510e+02   1.838070e+02
   3.816977e+02   5.264012e+02
  -3.089375e+02   4.729444e+02
  -6.856759e+02  -7.931054e+01
  -2.824895e+02  -4.295813e+02
   2.076815e+02  -4.382056e+02
   4.750807e+02  -1.703603e+02
   4.157392e+02   2.649689e+02
   7.691872e+00   5.608464e+02
  -1.071245e+02   3.478225e+02
  -1.219428e+02  -1.629820e+02
   1.770070e+02  -3.402778e+02
   4.104564e+02   2.690102e+01
   2.867994e+02   5.518073e+02
  -2.655486e+02   6.792446e+02
  -5.775647e+02  -2.265351e+01
  -2.494746e+02  -4.780976e+02
   2.954873e+02  -2.793104e+02
   3.593534e+02   2.522757e+02
  -4.371472e+01   4.748343e+02
  -5.568484e+02   1.022536e+02
  -5.241285e+02  -3.738111e+02
  -1.942957e+02  -5.568492e+02
   2.958195e+02  -3.646019e+02
   6.914319e+02   6.713204e+01
   4.399575e+02   3.192377e+02
  -3.282450e+01   3.141541e+02
  -3.564555e+02   1.235691e+02
  -2.774504e+02  -1.046758e+02
   5.098264e+01  -1.172441e+02
   8.540940e+01   1.346415e+02
  -6.098518e+01   1.379535e+02
  -3.602437e+02  -7.538175e+01
  -1.195163e+02  -2.942591e+02
   2.124888e+02  -2.122058e+02
   3.579121e+02  -4.514608e+01
   2.645272e+02   1.588783e+02
  -4.381577e+01   2.714949e+02
  -1.998398e+02   2.853587e+02
  -2.711719e+02   1.928802e+02
  -3.192169e+02  -1.672895e+02
  -8.079755e+01  -3.541887e+02
   1.002893e+02  -3.001289e+02
   8.503323e+01  -2.093389e+02
   4.011539e+01   1.803435e+01
   7.133859e+01  -8.586715e+01
   2.475454e+02  -1.101307e+02
   3.107651e+02   9.670653e+01
   1.464212e+02   2.982329e+02
  -6.617683e+01   1.677425e+02
  -1.862847e+02  -5.247757e+01
  -1.861940e+02  -2.686201e+02
  -1.159230e+01  -2.353362e+02
   2.417553e+02  -1.192500e+02
   3.175277e+02   1.707191e+02
   1.714262e+02   3.500581e+02
  -7.860940e+01   2.960879e+02
  -2.217675e+02   1.652513e+02
  -1.671879e+02   6.926130e+01
  -1.752415e+02   5.477697e+01
  -1.948273e+02   4.219632e+01
  -4.179117e+02  -9.162029e+01
  -3.815445e+02  -3.316401e+02
   1.596126e+01  -3.563240e+02
   3.398654e+02  -4.738844e+02
   5.079385e+02  -2.064862e+02
   3.254077e+02   1.004354e+02
   7.157718e+01   2.700250e+02
  -8.918792e+01   2.515579e+02
  -7.147538e+01   1.699917e+00
   1.134314e+02  -5.746895e+01
   1.607327e+02   1.468950e+01
   3.797888e+01   1.960015e+02
  -1.376239e+02   1.492651e+02
  -1.149594e+02  -3.235105e+01
   1.969114e+01  -1.713419e+02
   1.472848e+02  -2.049495e+01
   1.360294e+02   2.286826e+02
   3.115776e+01   4.278596e+02
  -2.551376e+02   1.732446e+02
  -3.932199e+02  -1.025754e+01
  -2.761210e+02  -1.861962e+02
  -5.875222e+01  -2.727179e+02
   1.408322e+02  -1.953289e+02
   1.194784e+02  -2.647690e+01
   8.355060e+01  -1.585567e+01
  -6.592848e+01  -3.747565e+01
  -3.427889e+01  -1.081131e+02
   1.162356e+02  -9.932899e+01
   1.439598e+02   1.651497e+00
   3.210969e+01   5.649370e+01
  -5.059615e+01   1.603514e+01
  -4.368209e+01  -4.048411e+01
   9.948915e+01  -9.956819e+01
   2.950602e+02   1.216494e+01
   1.979162e+02   1.512617e+02
   8.660000e+01   2.499781e+02
  -1.326631e+02   1.893964e+02
  -2.697207e+02   5.055934e+01
  -1.572206e+02  -6.038839e+01
  -1.846350e+00  -7.954330e+01
   9.946468e+01  -1.123696e+01
  -3.027953e+01   1.041394e+02
  -2.069865e+02   2.954030e+01
  -2.008330e+02  -7.014144e+01
  -9.026827e+01  -2.145070e+02
   7.176522e+01  -1.240437e+02
   1.480768e+02  -1.500750e+01
   6.641490e+01   1.687488e+01
  -5.434307e+01   1.150601e+01
  -2.051245e+01  -1.139782e+02
   5.964493e+01  -1.074988e+02
   1.724757e+02  -3.722606e+01
   1.814066e+02   1.027615e+02
   4.909147e+01   2.681022e+02
  -1.535864e+02   1.826863e+02
  -1.550555e+02   1.320386e+01
  -6.624907e+01  -1.466954e+02
   3.270102e+01  -1.171244e+02
   4.452906e+01  -2.105920e+01
   8.325526e+00   5.234847e+01
  -2.256945e+01   3.225577e+01
   3.725136e+00   1.619731e+01
   9.810009e+01  -5.232513e+01
   1.100590e+02   1.321615e+02
   1.734807e+01   1.563910e+02
  -1.253281e+02   1.345973e+02
  -2.687547e+02   3.217540e+01
  -1.367574e+02  -1.522998e+02
  -4.454975e+01  -2.155661e+02
   1.160353e+02  -1.710796e+02
   8.593939e+01  -2.454154e+01
   1.143976e+02   4.889639e+01
   3.835215e+01   3.257090e+01
  -4.258206e+00   1.880134e+00
   9.956918e+01  -1.078127e+01
   3.293263e+01   3.840862e+01
  -1.231785e+02   1.120181e+02
  -1.179170e+02   9.379245e+01
  -1.039337e+02  -5.194618e+01
   6.796262e+00  -6.726362e+01
   1.671428e+02  -1.058632e+02
   2.153996e+02   4.596660e+01
   1.064864e+02   1.456426e+02
  -1.174537e+02   2.380265e+02
  -2.672522e+02   8.560197e+01
  -2.563019e+02  -1.084147e+02
  -9.421041e+01  -1.732512e+02
   4.838686e+01  -8.976542e+01
   5.806104e+01  -1.097123e+02
   1.281193e+02  -6.131545e+01
   4.266486e+01  -5.029482e+01
   6.117455e+01  -7.794775e+01
   1.267577e+02   5.610000e+01
   1.335212e+02   1.120245e+02
  -2.479618e+01   2.172842e+02
  -8.425909e+01   2.051825e+02
  -2.110722e+02   2.025727e+01
  -9.286813e+01  -1.524958e+02
  -5.666340e+01  -1.200386e+02
   8.269510e+01  -8.059304e+01
   3.242019e+01   2.597768e+01
   1.914464e+01   3.223460e+01
  -5.148081e+01   6.001703e+01
   3.405185e+01   1.151928e+01
   8.339463e+01   3.755803e+00
   4.647168e+01   3.128569e+01
  -7.980618e+01   3.013310e+01
  -1.539495e+02   7.307306e+01
  -1.570522e+02  -5.441413e+01
  -3.340759e+01  -9.133973e+01
   1.681633e+02  -5.707957e+01
   1.048301e+02  -4.961033e+01
  -1.073704e+01   6.846272e+01
  -1.464177e+01   3.769109e+01
  -6.484227e+01  -1.470814e+01
  -1.656097e+01  -8.506013e+01
   2.686150e+01  -4.900497e+01
   4.403958e+01   2.856794e+00
   3.916739e+01   5.165967e+01
   4.294630e+01   7.618295e+01
   5.395500e+01  -3.367277e+01
   4.090796e+01   1.123297e+01
   3.658074e+01   6.651077e+01
   1.484120e+00   1.355429e+02
  -1.105619e+02   1.455257e+02
  -1.352285e+02   2.140042e+01
  -1.777442e+02  -1.273721e+02
  -2.555283e+01  -1.162102e+02
   1.190983e+02  -3.112841e+01
   4.291063e+01   4.940389e+01
  -6.811427e+01  -2.956482e+01
  -1.601896e+02  -4.736823e+01
  -4.090214e+01  -9.770327e+01
   8.067835e+01  -3.506824e+01
   2.074880e+02  -6.135582e+01
   1.597581e+02   2.185681e+01
   3.920194e+01   6.618878e+01
  -7.907256e+01   7.570863e+01
  -5.275612e+01   4.028523e+01
   4.781586e+01  -5.301801e+01
   9.695788e+01   3.840971e+01
   2.697854e+01   9.761799e+01
  -5.245207e+01   1.378938e+02
  -1.495593e+02   1.249539e+02
  -1.788115e+02  -7.782772e+01
  -1.126123e+01  -2.275212e+02
   1.144538e+02  -1.376566e+02
   1.258850e+02  -1.809315e+00
   4.841095e+01   9.061562e+01
  -1.531376e+01   1.112341e+02
  -4.681590e+01   5.597091e+01
  -1.373808e+01  -8.113138e+01
   1.137943e+01  -2.197430e+01
  -3.033762e+01   3.853420e+01
  -1.690406e+01  -5.337405e+01
  -5.169231e+01  -1.007683e+02
  -5.358764e+01  -8.945557e+01
   3.590369e+01  -3.702249e+01
   1.578316e+02   3.507910e+01
   1.313902e+02   9.338080e+01
   1.104066e+01   3.858184e+01
  -5.742933e+01   2.556818e+01
  -5.191221e+01  -1.137412e-01
   2.968914e+01  -1.347103e+01
   5.346817e+01  -5.744289e+01
  -8.458396e-01  -1.829925e+01
  -7.109627e+00   1.185116e+01
  -3.623631e+01   3.244277e+01
   5.522979e+01   1.802423e+01
   1.074704e+02   4.672544e+01
   1.684453e+01   6.123942e+01
  -7.916924e+01   9.686450e+01
  -2.122420e+02   7.018677e+01
  -1.376126e+02  -5.289872e+01
  -5.745387e+00  -1.498552e+02
   4.277776e+01  -1.597315e+02
   1.205642e+02  -6.990577e+01
   6.442777e+01  -4.445483e+00
   3.347992e+01  -1.252903e+00
  -1.535799e+00   9.689947e+00
   4.291017e+00  -5.758386e+01
   1.952755e+01   5.632022e+01
   3.487842e+00   7.365387e+01
  -5.503608e+01   6.203784e+01
  -3.965476e+01   1.575927e+01
  -8.011495e+01  -1.202251e+02
  -4.512073e+00  -1.720409e+02
   8.945638e+01  -5.276801e+01
   1.125138e+02   7.275376e+01
   5.229350e+01   5.922187e+01
  -6.142576e+01   3.321989e+01
  -8.697848e+01  -3.377171e+01
  -5.322896e+01  -6.308141e+01
   6.414768e-01  -1.745768e+01
  -1.805761e+01  -1.657254e+01
  -5.818668e+01   9.067256e+00
  -4.448602e+01  -1.460488e+01
  -2.939497e+00  -3.675756e+01
   4.304872e+01  -8.174039e+01
   1.393369e+02  -7.686450e+01
   4.498791e+01   4.862643e+00
  -3.910868e+01   7.263546e+01
  -7.416205e+01   9.150461e+01
  -4.292254e+01  -1.627330e+01
   6.680514e+01  -5.614441e+01
   3.520774e+01  -1.038323e+01
   9.387847e+01   2.033718e+00
   4.482575e+01   6.990706e+01
   6.498787e+00   4.233394e+01
  -1.682014e+01  -6.718358e+00
  -4.558927e+01   2.504530e+01
   4.433418e+00   1.077512e+01
  -2.303031e+00   2.236118e+01
  -1.985272e+01  -1.317964e+01
   5.646192e+01  -3.242709e+01
  -3.866591e-02  -4.108496e+01
   6.237734e+01  -1.159005e+01
   7.457707e+00   2.626605e+01
  -5.527946e+00   3.237230e+01
  -1.256869e+01   5.087212e+00
  -2.756379e+01  -7.157956e+01
   1.549775e+01  -2.475906e+01
   4.822475e+01  -4.734091e+01
   8.165079e+01   1.067414e+01
   2.016192e+01   1.651812e+01
  -2.015007e+01   4.000487e+01
  -5.317719e+01   6.571753e+01
  -4.727690e+01   2.340755e+01
   2.253334e+01  -1.932995e+01
   3.472865e+01   1.995892e+01
  -3.683422e+01   6.754735e+01
  -9.827148e+01   3.342608e+00
