
 $NMID
 id='ANONYMOUS ', fmtdat='(2E16.6)'
 volume=1.0
 tramp=1.0
 $END
   4.142995e+03  -3.646025e+02
   2.975589e+03   2.238631e+03
  -8.296467e+02   2.981260e+03
  -2.508541e+03   1.186114e+03
  -1.320325e+03  -5.495636e+02
   6.772898e+02  -6.155419e+02
   7.985189e+02   3.654481e+02
   3.396038e+00   1.297698e+03
  -8.675968e+02   9.444693e+02
  -9.996734e+02   4.705871e+01
  -4.888023e+02  -8.842216e+02
   1.878136e+02  -8.007290e+02
   6.784684e+02  -1.568292e+02
   4.777017e+02   7.936119e+02
  -1.255222e+02   7.692197e+02
  -6.478632e+02   4.016311e+00
  -2.676334e+02  -8.287960e+02
   3.784212e+02  -7.242749e+02
   6.406627e+02  -1.156447e+02
   4.714299e+02   4.222506e+02
   9.387398e+01   3.747636e+02
  -2.178501e+02   2.853720e+02
  -2.004761e+02   5.754934e+00
   1.507954e+02  -6.828310e+01
   3.427944e+02   8.545408e+01
   2.349746e+02   3.826949e+02
  -4.281372e+02   3.445677e+02
  -9.001982e+02  -1.010375e+02
  -4.959274e+02  -5.576358e+02
   3.540540e+02  -5.537680e+02
   8.042708e+02   3.110770e+01
   3.397521e+02   4.630542e+02
  -2.299423e+02   4.939825e+02
  -5.501943e+02   2.009504e+02
  -4.826266e+02  -3.081504e+02
  -4.376370e+01  -5.786991e+02
   1.787839e+02  -3.925650e+02
   1.733040e+02   1.881141e+02
  -1.597131e+02   4.671781e+02
  -5.084594e+02   9.862463e+00
  -3.484019e+02  -6.946367e+02
   3.789549e+02  -8.151478e+02
   6.339137e+02   9.877117e+00
   2.939590e+02   5.938626e+02
  -3.597813e+02   3.097892e+02
  -4.636126e+02  -3.006738e+02
   1.143404e+02  -5.505445e+02
   5.746120e+02  -1.222849e+02
   5.835024e+02   3.537524e+02
   1.749555e+02   5.831343e+02
  -3.722807e+02   3.709574e+02
  -7.441137e+02  -1.098438e+02
  -4.140494e+02  -4.025885e+02
   5.571507e+01  -3.656449e+02
   4.385577e+02  -8.391120e+01
   2.438072e+02   2.109578e+02
  -6.058261e+01   1.385672e+02
  -1.475282e+02  -1.375455e+02
   9.784275e+01  -2.359663e+02
   3.775723e+02   4.880218e+01
   1.591587e+02   2.457118e+02
  -2.539173e+02   2.788632e+02
  -3.383479e+02   7.114222e+01
  -2.612211e+02  -8.050631e+01
   6.564374e+01  -2.374782e+02
   1.767480e+02  -2.930954e+02
   3.196696e+02  -1.899201e+02
   4.064462e+02   1.624796e+02
   1.142972e+02   4.312944e+02
  -1.476115e+02   3.423134e+02
  -1.437031e+02   1.483333e+02
  -7.569583e+01  -3.085827e+01
  -4.581988e+01   9.417034e+01
  -2.349122e+02   9.014207e+01
  -2.905098e+02  -7.604606e+01
  -1.751750e+02  -3.024312e+02
   2.521711e+01  -2.221109e+02
   1.916730e+02  -3.887577e+01
   2.012949e+02   2.895439e+02
   3.230054e+01   2.851446e+02
  -2.525320e+02   1.503892e+02
  -3.549608e+02  -1.997236e+02
  -1.577332e+02  -3.402264e+02
   7.291677e+01  -3.360653e+02
   2.809344e+02  -1.767916e+02
   1.605484e+02   4.314226e-01
   1.415543e+02  -1.013021e+01
   2.077778e+02  -6.610967e+01
   4.791482e+02   8.808897e+00
   3.643389e+02   3.077347e+02
  -5.059589e+01   4.146183e+02
  -3.649808e+02   4.109586e+02
  -5.357900e+02   2.269109e+02
  -3.821889e+02  -1.062025e+02
  -6.885484e+01  -2.539318e+02
   1.502989e+02  -2.615815e+02
   8.642992e+01  -4.608885e+01
  -1.387375e+02   1.082418e+02
  -2.265898e+02   4.452853e+00
  -1.772379e+01  -1.763268e+02
   1.774630e+02  -1.979709e+02
   1.476393e+02   7.408016e+01
  -1.274904e+01   1.842462e+02
  -1.910719e+02   2.216893e+01
  -1.513372e+02  -2.717739e+02
  -5.112027e+01  -3.953519e+02
   2.516856e+02  -2.038256e+02
   3.878316e+02   6.730006e+01
   2.715302e+02   2.360035e+02
   8.020906e+01   2.935554e+02
  -1.404228e+02   2.433328e+02
  -2.550576e+02   3.331094e+01
  -7.171908e+01   1.515228e+01
   5.900746e+01  -3.971969e+00
   5.270538e+01   9.554085e+01
  -1.504189e+02   9.786393e+01
  -2.351621e+02   3.305593e-01
  -4.544355e+01  -4.582102e+01
   7.162130e+01   6.566234e+00
   2.199024e+00   1.135334e+02
  -1.504318e+02   1.074640e+02
  -2.939306e+02   3.192101e+01
  -2.608619e+02  -1.085214e+02
  -6.741245e+01  -2.580921e+02
   1.001356e+02  -2.422068e+02
   3.112616e+02  -7.900726e+01
   1.605737e+02   1.262531e+01
   1.586999e+00   1.534371e+02
  -1.031277e+02  -5.248036e+00
   6.470552e+01  -7.102543e+01
   1.852641e+02  -5.626030e+01
   2.140816e+02   6.528347e+01
   1.077670e+02   1.968506e+02
  -1.105096e+02   1.936881e+02
  -1.285798e+02   3.476436e+01
  -4.366575e+01  -7.735257e+01
   3.212258e+01   1.499785e+01
   2.813825e+01   1.044462e+02
  -1.159862e+02   6.611187e+01
  -2.473216e+02   2.129629e+01
  -2.239659e+02  -1.273688e+02
   8.474304e-01  -2.140915e+02
   1.977088e+02  -1.506429e+02
   2.278043e+02  -3.704674e+00
   5.706203e+01   9.374152e+01
  -5.198644e+01   1.087685e+02
  -1.021039e+02   2.977500e+01
  -2.916195e+01  -6.336011e+01
   2.020055e+01  -2.791219e+01
   1.607989e+00  -6.588451e-01
  -8.627921e+01   9.865846e+00
  -6.390926e+01  -7.710428e+01
  -1.664146e+01  -1.435537e+02
   9.599273e+01  -1.901446e+02
   2.308992e+02  -8.783184e+01
   1.806621e+02   1.321640e+02
   7.075718e+01   2.478476e+02
  -1.033879e+02   1.794989e+02
  -1.284511e+02  -1.406552e+01
  -1.181174e+02  -8.486383e+01
   2.372650e+01  -3.188166e+01
  -2.556842e+01   3.844166e+01
  -6.680574e+01   1.659078e+01
  -7.660260e+01  -4.417572e+01
   4.797765e+01  -8.057659e+01
   7.397590e+01  -2.916543e+01
   8.776841e+01   5.257413e+01
  -1.889277e+01   5.740245e+01
  -1.562587e+02   6.608328e+01
  -2.441553e+02  -3.401864e+01
  -1.058073e+02  -1.337944e+02
   7.556212e+01  -2.469976e+02
   2.835876e+02  -1.077362e+02
   2.427647e+02   8.551124e+01
   1.628597e+02   1.902712e+02
  -4.763611e+01   1.613609e+02
  -1.089912e+02   1.151333e+02
  -7.354920e+01   4.330313e+01
  -3.334755e+01   9.069206e+01
  -8.842260e+01   6.691614e+01
  -1.088407e+02  -5.651310e+01
  -1.081843e+02  -1.757132e+02
  -2.044944e+01  -2.465988e+02
   1.347824e+02  -1.907750e+02
   2.086895e+02  -4.112541e+01
   1.389560e+02   1.721605e+02
  -3.422531e+00   1.579775e+02
  -4.349587e+01   1.040327e+02
  -6.120303e+01  -1.746413e+01
  -1.185129e+00  -2.613753e+01
  -1.108909e+01   1.226027e+01
  -9.081774e+01  -3.907683e+01
  -4.541004e+01  -6.537203e+01
  -4.810611e+01  -6.790790e+01
   6.413522e+01  -3.900275e+01
   1.328662e+02  -1.758048e+01
   1.778295e+02   1.790846e+01
   1.407480e+00   6.732013e+01
  -1.512024e+02   5.920857e+01
  -1.628630e+02   4.237864e+01
  -6.585215e+01  -4.484754e+01
   7.795369e+01  -4.049203e+01
   5.948069e+01  -1.484861e+01
   3.630223e+01   7.986889e+01
  -6.686220e+01   9.511794e+01
  -1.199730e+01  -2.012119e+01
  -8.009641e+01  -6.192319e+01
  -5.171891e+01  -6.691304e+01
  -3.915006e+01   1.107218e+01
  -6.075764e+01   1.406167e+01
  -1.252218e+00  -6.056389e+01
   6.919342e+01  -1.344412e+02
   9.833582e+01  -1.526198e+02
   1.597736e+02  -5.021976e+00
   1.465345e+02   8.846390e+01
   2.533744e+01   1.304044e+02
  -9.793656e+01   4.331522e+01
  -4.375222e+01   2.032364e+01
   4.509071e+01  -1.008891e+01
   1.947222e+02   2.766747e+01
   7.368833e+01   1.020782e+02
  -9.635899e+01   1.310023e+02
  -2.018796e+02   3.592111e+01
  -2.001825e+02  -3.411830e+00
  -6.108367e+01  -6.068974e+01
   1.006357e+02  -1.072183e+02
   2.232144e+01   1.403166e+01
  -2.585061e+01   2.992638e+01
  -1.135702e+02  -3.079975e+01
  -4.413539e+01  -1.548799e+02
   8.166754e+01  -1.272644e+02
   1.527305e+02  -6.276027e+01
   1.540008e+02   1.283003e+02
   2.534549e+01   2.173231e+02
  -1.340834e+02   1.490261e+02
  -1.186933e+02  -5.426640e+01
  -7.259663e+01  -9.878360e+01
   3.613806e+01  -7.219675e+01
   8.549478e+01  -4.927067e+01
   3.405577e+01   6.202510e+01
   2.214561e+01   3.113798e+00
  -1.607926e+01  -3.969437e+01
   1.611711e+01   4.707303e+01
   6.891462e+01   1.103363e+02
   8.115386e+00   8.789125e+01
  -6.008277e+01   2.439077e+01
  -1.519844e+02  -3.900748e+01
  -1.896000e+02  -6.469210e+01
  -3.059207e+00  -5.429164e+01
   5.775546e+01  -8.536271e+00
   3.254051e+01  -3.613536e+01
   2.455812e+01  -4.174885e+00
  -2.115852e+01  -4.844665e+00
  -3.877794e+01   1.699780e+01
   4.171368e+01  -1.535506e+01
  -2.709325e+01  -9.448841e+00
  -1.013310e+02   1.183356e+01
  -1.585611e+02  -1.745541e+01
  -1.913311e+00  -7.921601e+01
   1.232872e+02  -1.265232e+02
   1.853169e+02  -5.428714e+01
   1.626405e+02   1.074904e+02
   9.473436e+00   1.723244e+02
  -6.270649e+01   1.786571e+02
  -1.264768e+02   5.560196e+01
  -8.445105e+01  -3.914455e+01
  -9.575180e-01  -3.342512e+01
   2.713856e+01  -2.140134e+01
  -1.133790e+01  -1.630610e+01
  -1.358943e+01  -6.025270e+01
   3.861384e+01  -7.350174e+01
   4.422729e+01  -6.643780e+01
   3.272483e+01   2.872520e+01
   8.897940e+01   1.780301e+02
   1.925666e+01   1.581295e+02
  -4.476161e+01   1.863880e+01
  -1.373817e+02  -1.125856e+02
  -2.628233e+01  -9.886384e+01
   6.885110e+01  -4.155934e+01
   5.671824e+01   2.797405e+01
   2.251656e+01   3.546292e+01
  -3.342031e+01   1.715866e+01
  -9.797841e+00   2.441934e+01
   1.088111e+01   6.261931e+01
   4.539354e+01   4.469142e-01
   8.730911e+00  -2.949457e+01
  -9.073877e+01   5.958418e+01
  -1.845353e+02   7.810462e+01
  -8.651457e+01  -3.310053e+01
   4.263328e+01  -7.989894e+01
   2.585318e+01  -9.688728e+01
   5.395606e+01   4.526758e+00
  -2.351304e+01   6.718887e+01
  -1.402183e+01   3.537542e+01
  -3.657945e+01  -4.309655e+01
  -3.101198e+01  -7.520991e+01
   1.123181e+01  -6.377539e+01
   5.512733e+01  -4.789445e-01
   4.563395e+01   1.090642e+02
  -2.070121e+01   5.907177e+01
   2.743159e+01  -2.264184e+01
   1.703291e+00   5.521548e+01
  -5.988900e+00   5.162021e+01
  -5.593813e+01   6.573851e+01
  -4.312511e+01  -1.212536e+01
   7.166335e+00  -1.148555e+02
  -4.075268e+00  -6.148016e+01
   4.078986e+01   1.303101e+01
   2.686374e+01   2.238060e+01
   3.539642e+00   4.941239e+01
  -5.402859e+01   1.471460e+01
  -1.226787e+02  -1.231572e+01
  -6.398007e+01  -6.152771e+01
   2.801071e+01  -4.124372e+01
   9.330617e+01  -5.278846e+01
   1.744131e+01  -2.277906e+01
  -3.613746e+01   1.750588e+01
  -7.496299e+01   3.193842e+01
   1.101507e+01  -9.967016e+00
   8.572346e+01  -1.513690e+01
