
 $NMID
 id='ANONYMOUS ', fmtdat='(2E16.6)'
 volume=1.0
 tramp=1.0
 $END
  -3.765706e+03   3.255466e+02
  -2.878626e+03  -2.450819e+03
   7.812008e+02  -3.125968e+03
   2.103168e+03  -1.126435e+03
   8.496906e+02   4.192581e+02
  -6.715570e+02   4.625305e+02
  -9.778337e+02  -3.508767e+02
   2.558589e+01  -1.276730e+03
   8.120381e+02  -8.730955e+02
   8.833583e+02   6.437161e+00
   5.364942e+02   9.738127e+02
  -2.035089e+02   8.053426e+02
  -7.320384e+02   1.358601e+02
  -4.685133e+02  -5.826986e+02
   2.336691e+02  -7.909835e+02
   5.338117e+02  -5.496015e+01
   2.767790e+02   7.398020e+02
  -3.554275e+02   7.494187e+02
  -6.446553e+02   1.588866e+02
  -4.710835e+02  -3.823337e+02
  -5.068059e+01  -4.116847e+02
   2.270232e+02  -2.565249e+02
   1.856848e+02  -4.057788e+01
  -1.357490e+02   1.047912e+02
  -3.609848e+02  -2.338720e+01
  -2.416071e+02  -4.370406e+02
   4.860140e+02  -4.647972e+02
   9.303951e+02   5.095750e+01
   4.338446e+02   5.852169e+02
  -4.056478e+02   4.827653e+02
  -8.075265e+02  -7.349403e+01
  -4.579224e+02  -5.541045e+02
   2.714959e+02  -5.423865e+02
   4.997359e+02  -1.705924e+02
   4.308215e+02   2.533542e+02
   1.374924e+02   5.321311e+02
  -2.403260e+02   4.066607e+02
  -1.286018e+02  -1.488413e+02
   1.162526e+02  -4.421624e+02
   5.918475e+02  -5.726839e+00
   4.112779e+02   7.019835e+02
  -3.313608e+02   8.017537e+02
  -7.309666e+02   7.440084e+01
  -2.702016e+02  -5.920814e+02
   2.897013e+02  -4.398206e+02
   4.868272e+02   3.337071e+02
   2.620983e+01   5.732877e+02
  -6.553006e+02   1.542854e+02
  -6.384978e+02  -3.360979e+02
  -1.878410e+02  -5.828958e+02
   3.891997e+02  -3.970456e+02
   6.716555e+02   2.617801e+01
   4.160081e+02   3.988685e+02
  -1.890763e+02   3.779572e+02
  -3.886871e+02   7.267241e+01
  -2.545403e+02  -1.779195e+02
   1.120304e+02  -1.117517e+02
   1.900729e+02   1.696544e+02
  -1.717879e+02   1.812274e+02
  -3.915538e+02  -6.710992e+01
  -2.362623e+02  -3.415025e+02
   2.428163e+02  -3.097678e+02
   3.564058e+02  -7.961661e+01
   2.442816e+02   7.176689e+01
  -3.336213e+01   1.936973e+02
  -2.264042e+02   3.175067e+02
  -3.900129e+02   2.104773e+02
  -3.429770e+02  -1.483802e+02
  -1.266226e+02  -3.804424e+02
   9.308290e+01  -4.069680e+02
   1.711563e+02  -8.588849e+01
   8.326002e+01  -5.884127e+00
   7.359846e+01  -9.620643e+01
   1.923380e+02  -1.057393e+02
   2.831616e+02   8.371208e-01
   1.212758e+02   2.364717e+02
  -4.561945e+00   2.452665e+02
  -2.164304e+02   4.309426e+01
  -2.221572e+02  -2.736039e+02
   3.042546e+01  -2.698370e+02
   2.726962e+02  -1.678864e+02
   3.596423e+02   2.178742e+02
   1.575117e+02   3.373199e+02
  -8.851726e+01   3.514408e+02
  -1.913103e+02   1.738093e+02
  -1.479034e+02   2.528028e+01
  -1.076872e+02   3.045033e+01
  -2.643608e+02   9.280122e+01
  -4.503918e+02  -2.105871e+01
  -3.487578e+02  -2.451473e+02
  -4.253106e+01  -4.354695e+02
   3.843136e+02  -5.009411e+02
   4.173506e+02  -1.459828e+02
   3.532737e+02   4.106925e+01
   9.822270e+01   3.268204e+02
  -1.395695e+02   2.810169e+02
  -6.922973e+01   3.092811e+01
   1.166041e+02  -1.353009e+02
   1.774792e+02  -2.745855e+01
   7.741881e+01   1.441552e+02
  -1.528637e+02   2.272565e+02
  -1.908720e+02  -2.723449e+01
  -1.391181e+01  -1.790425e+02
   2.069737e+02  -5.303854e+01
   1.354832e+02   2.266325e+02
   1.180573e+01   3.609790e+02
  -2.170912e+02   2.237152e+02
  -2.902093e+02  -9.962176e+01
  -3.358479e+02  -2.273871e+02
  -7.340024e+01  -3.202858e+02
   1.476383e+02  -2.214947e+02
   2.009159e+02  -1.473291e+00
   5.356851e+01   4.302734e+01
  -1.132718e+02  -2.650092e+01
  -3.285103e+01  -1.465854e+02
   1.196641e+02  -9.324449e+01
   2.043544e+02   5.022518e+01
   5.088940e+01   9.673183e+01
  -5.744626e+01   3.407597e+01
  -8.563023e+01  -6.756043e+01
   1.304319e+02  -1.062994e+02
   3.245364e+02  -1.876764e+01
   2.398544e+02   1.007508e+02
   1.624588e+01   2.186432e+02
  -1.380437e+02   2.467255e+02
  -2.550823e+02   1.184423e+02
  -1.453771e+02  -1.074049e+00
  -2.980540e+00  -1.326878e+02
   8.354578e+01  -9.081966e+00
   1.079195e+01   1.292019e+02
  -2.117402e+02   8.730341e+01
  -2.043738e+02  -8.058573e+01
  -1.169551e+02  -2.066180e+02
   8.052120e+01  -1.431054e+02
   1.830822e+02  -7.918223e+01
   3.142335e+01   1.994313e+01
  -5.967387e+01   7.839784e+00
  -5.452034e+01  -9.627240e+01
   4.681303e+01  -1.093039e+02
   2.327147e+02  -4.755595e+01
   1.727502e+02   1.482503e+02
   1.734068e+01   2.137480e+02
  -1.544221e+02   1.510129e+02
  -1.573578e+02  -1.832803e+01
  -7.593998e+01  -1.037691e+02
   5.974435e+01  -1.222892e+02
   6.632622e+01  -5.126357e+01
  -3.504028e+00   2.834600e+01
  -6.791346e-01  -1.756790e+01
   1.293121e+01  -1.611992e+01
   6.292791e+01   8.349931e+00
   9.696682e+01   9.629741e+01
   2.012656e+01   1.700810e+02
  -1.046293e+02   1.424850e+02
  -2.481201e+02   7.467416e+01
  -1.958857e+02  -1.128135e+02
  -9.565890e+01  -2.652525e+02
   8.368773e+01  -1.851534e+02
   1.595944e+02  -2.103878e+01
   1.004615e+02   4.582245e+01
   3.094134e+01   2.563866e+01
   5.939043e+01  -8.546243e+00
   6.352870e+01   5.085949e+01
   6.040792e+01   7.283301e+01
  -1.733382e+01   8.411222e+01
  -1.222638e+02   7.558638e+01
  -9.172691e+01  -1.739928e+01
   2.421676e+01  -8.113764e+01
   1.586863e+02  -1.178534e+02
   2.042871e+02   3.668873e+01
   6.557106e+01   2.357249e+02
  -3.631900e+01   2.176115e+02
  -2.839422e+02   6.083357e+01
  -2.682990e+02  -1.054571e+02
  -1.297799e+02  -1.798545e+02
   7.972907e+00  -1.546554e+02
   9.189540e+01  -1.239231e+02
   1.213167e+02  -9.346735e+01
   1.056031e+02  -1.237025e+02
   4.698718e+01  -8.619303e+01
   1.349647e+02   2.258485e+01
   1.377598e+02   1.016394e+02
   2.741800e+01   2.635281e+02
  -6.294709e+01   1.879225e+02
  -2.208572e+02   3.620656e+01
  -1.449409e+02  -1.477323e+02
   1.986511e+01  -1.501199e+02
   7.785635e+01  -7.149755e+01
   8.850854e+01  -2.644229e+01
   1.961634e+01   6.058838e+00
   2.352077e+01   7.000675e+01
   4.679297e+01  -8.836549e+00
   9.353114e+01  -3.803460e+00
   4.126986e+01   7.706576e+01
  -5.247583e+01   6.342603e+01
  -9.840748e+01   1.675737e+01
  -1.538689e+02  -7.292500e+01
  -1.202403e+01  -1.038387e+02
   1.199585e+02  -8.674859e+01
   1.647185e+02  -1.009646e+01
   8.940754e+01   6.977967e+01
  -4.194551e+01  -2.333688e+00
  -1.056710e+02  -4.379182e+01
  -2.108831e+01  -4.880920e+01
   5.943563e+01  -9.385405e+01
   1.062406e+02   7.805335e+00
   8.760735e+01   3.014942e+01
   1.666354e+01   2.676047e+01
   9.507544e+01  -3.432382e+01
   4.999102e+01   2.408650e+01
  -5.200332e+00   5.420006e+01
  -1.663412e+01   1.277469e+02
  -8.177701e+01   1.045696e+02
  -2.027398e+02   3.029381e+01
  -1.227667e+02  -7.811026e+01
  -2.895361e+01  -1.383534e+02
   1.322194e+02  -8.474696e+01
   9.005874e+01   8.106170e+00
  -6.947919e+01   3.045751e+01
  -1.277986e+02  -2.740475e+01
  -5.759053e+01  -1.000343e+02
   7.098068e+01  -9.791218e+01
   2.239600e+02  -7.753964e+01
   1.107473e+02   2.209474e+01
   3.979769e+01   6.882615e+01
  -2.702089e+01   1.048342e+02
  -1.997326e+01   1.141628e-01
   7.050082e+01  -4.919722e+01
   1.341845e+02   1.279166e+01
   3.075242e+01   1.121205e+02
  -4.307390e+01   1.528307e+02
  -1.502926e+02   5.487958e+01
  -1.553429e+02  -1.020981e+02
  -2.428665e+01  -2.446324e+02
   1.097975e+02  -1.497260e+02
   9.385672e+01  -3.972353e+01
   8.188930e+01   8.168518e+01
   4.663247e+01   1.468801e+02
  -5.559951e-01  -1.924267e+00
  -7.383373e+01  -3.952988e+01
  -5.042210e+01  -1.196118e+01
   3.251028e+01   1.511925e+01
  -3.274852e+00  -9.429005e+00
  -1.005066e+02  -5.081416e+01
  -4.809385e+01  -1.019048e+02
   4.020199e+01  -9.413965e+00
   1.294154e+02   6.101619e+01
   1.296787e+02   5.624277e+01
   2.795167e+01   7.013734e+01
  -6.192284e+01   4.176040e+01
  -7.896190e+01   3.398764e+01
   1.696723e+00  -5.812848e+01
   3.732260e+01  -1.801714e+01
  -6.274109e+00  -4.136780e+01
  -3.088826e+01  -2.294795e+00
  -3.388883e+00   5.578229e+00
   6.354887e+01  -9.496178e+00
   9.250352e+01   1.469748e+01
   4.309714e+01   8.922878e+01
  -7.986871e+01   1.150606e+02
  -1.781894e+02   3.428070e+01
  -1.641713e+02  -8.067013e+01
  -4.060116e+01  -1.864672e+02
   7.556966e+01  -1.396901e+02
   1.245666e+02  -4.179387e+01
   8.371238e+01   1.022329e+01
   1.578154e+01   1.296794e+01
   2.503268e+01  -2.036141e+01
   3.335922e+01   1.694837e+01
   7.004578e+01   6.060510e+01
   2.372241e+01   1.027317e+02
  -6.966058e+01   9.779845e+01
  -6.853822e+00  -2.099739e-01
  -1.074054e+02  -1.221875e+02
  -3.286774e+01  -1.266285e+02
   8.266191e+01  -1.123959e+01
   9.214660e+01   3.305916e+01
   2.285324e+01   7.613782e+01
  -1.080982e+02   7.689532e+01
  -9.494254e+01   3.123730e+00
  -6.447535e+00  -2.253814e+01
   1.711169e+01  -3.637727e+01
   1.777697e+01  -1.442860e+01
  -2.164514e+01  -9.836911e-01
  -1.064869e+01   2.828921e+01
   2.227086e+01  -8.685437e+00
   6.375200e+01  -7.825930e+01
   1.043348e+02  -5.377263e+00
   5.592290e+01   1.689340e+01
   3.565834e+01   1.046632e+02
  -5.742582e+01   5.769523e+01
  -8.716225e+00   6.957466e+00
  -1.148170e+01  -3.549104e+01
   1.845324e+00  -5.548325e+01
   6.414043e+01  -6.932588e+00
   7.067945e+01   7.371434e+01
  -2.040031e+00   5.639262e+01
  -2.954295e+01  -2.174758e+01
  -5.002573e+01  -3.012845e+01
   8.430871e+00   3.415200e+00
   3.917152e+00   5.368268e+00
   1.936240e+01  -2.435051e+01
  -7.137146e+00  -3.632562e+01
   5.435509e+01  -2.755157e+01
   3.525251e+01  -1.149392e+01
  -6.614445e-01   1.989876e+01
   4.629788e-01   5.419858e+01
  -3.578488e+01   4.849553e+01
  -5.825357e+01  -2.782838e+01
  -1.338686e+01  -5.842565e+01
   6.060313e+01  -3.529032e+00
   1.143104e+02  -7.396648e-01
   6.146802e+01   2.317852e+01
  -5.472666e+01  -3.019487e+00
  -9.138763e+01   1.976216e+01
   5.637916e+00   2.923614e+00
   5.342236e+01  -8.099019e+00
   4.682053e+01   2.831846e+01
  -1.773704e+01   3.153357e+01
  -9.133564e+01  -5.260339e+00
