
 $NMID
 id='ANONYMOUS ', fmtdat='(2E16.6)'
 volume=1.0
 tramp=1.0
 $END
  -3.687701e+03   1.223773e+03
  -3.303550e+03  -1.803117e+03
  -1.373584e+01  -2.656325e+03
   1.516006e+03  -1.597237e+03
   1.148219e+03   1.679835e+02
  -5.026381e+02   4.099101e+02
  -8.589265e+02  -2.832659e+00
  -1.756196e+02  -8.539633e+02
   5.040988e+02  -8.913842e+02
   9.337303e+02  -1.355910e+02
   3.727141e+02   6.070201e+02
  -9.104161e+01   8.394734e+02
  -5.253679e+02   2.185862e+02
  -5.141062e+02  -4.688953e+02
   3.550705e+01  -6.745511e+02
   5.495038e+02  -2.271166e+02
   3.809891e+02   5.329023e+02
  -1.098439e+02   6.935365e+02
  -6.354781e+02   2.214012e+02
  -5.455097e+02  -1.318210e+02
  -1.689035e+02  -4.120337e+02
   1.460631e+02  -2.746711e+02
   1.463460e+02  -8.191326e+01
  -1.328225e+02   5.633591e+01
  -3.393460e+02  -5.477178e+01
  -1.649252e+02  -3.298383e+02
   3.988213e+02  -3.081328e+02
   7.497688e+02   7.973221e+01
   3.795358e+02   4.400389e+02
  -2.833417e+02   4.241043e+02
  -6.687890e+02  -6.741985e+01
  -3.583332e+02  -3.009237e+02
   1.976624e+02  -4.640056e+02
   4.779583e+02  -2.939728e+02
   3.938324e+02   1.359117e+02
   1.170983e+02   4.795915e+02
   2.710162e+00   3.350881e+02
  -1.221992e+02  -9.931990e+01
   1.063050e+02  -3.225857e+02
   2.503686e+02   8.078764e+01
   2.698990e+02   5.550442e+02
  -3.032965e+02   5.528844e+02
  -4.145453e+02   1.023171e-01
  -1.938955e+02  -4.987595e+02
   2.259151e+02  -2.916232e+02
   3.258310e+02   2.044409e+02
  -5.382905e+01   4.517471e+02
  -4.587238e+02   1.296286e+02
  -6.321861e+02  -2.034269e+02
  -2.455810e+02  -5.242286e+02
   2.864274e+02  -3.611654e+02
   6.079000e+02   5.364194e+01
   3.817376e+02   3.749338e+02
  -7.829163e+01   3.045585e+02
  -3.464461e+02   1.832984e+02
  -3.247210e+02  -1.042087e+02
  -5.437140e+01  -8.289860e+01
   1.331396e+02   1.114330e+02
  -6.472216e+01   1.173592e+02
  -2.716045e+02  -2.679160e+01
  -2.249646e+02  -2.068512e+02
   1.323967e+02  -2.904744e+02
   4.243154e+02  -2.074672e+02
   2.329807e+02   8.147435e+01
  -1.392561e+01   2.765512e+02
  -1.900442e+02   3.842069e+02
  -2.545728e+02   2.857493e+02
  -2.944949e+02  -1.140561e+02
  -1.583412e+02  -4.135942e+02
   7.478437e+01  -4.265317e+02
   1.371519e+02  -1.446233e+02
   4.203628e+01  -4.628027e+01
   9.110481e+01  -1.504372e+02
   2.349518e+02  -9.718795e+01
   2.604741e+02   4.093804e+01
   1.928173e+02   2.608089e+02
  -3.339354e+01   2.447748e+02
  -1.822266e+02   2.393958e+01
  -1.708656e+02  -2.103482e+02
  -4.898646e+01  -2.601710e+02
   2.295263e+02  -1.276112e+02
   3.447469e+02   1.499950e+02
   2.159844e+02   2.802831e+02
  -4.003452e+01   3.318582e+02
  -2.430774e+02   2.023403e+02
  -1.277896e+02   1.311428e+02
  -1.314013e+02   7.065537e+01
  -1.991327e+02   7.469133e+01
  -3.515342e+02  -4.128167e+01
  -3.537747e+02  -2.512585e+02
  -1.305840e+01  -4.539707e+02
   3.373818e+02  -4.759123e+02
   5.696555e+02  -2.031633e+02
   2.902197e+02   5.927793e+01
   5.682331e+01   2.474351e+02
  -6.969338e+01   2.486849e+02
  -5.243791e+01   7.075557e+01
   9.993804e+01  -9.137689e+01
   1.374818e+02  -3.322666e+00
   9.971850e+01   1.158488e+02
  -1.598462e+02   1.590249e+02
  -1.168855e+02  -5.609302e+01
   3.147130e+01  -1.584628e+02
   2.082355e+02  -6.901370e+01
   1.871432e+02   2.299796e+02
  -1.370118e+01   3.399861e+02
  -2.364278e+02   2.498294e+02
  -3.373293e+02  -7.695989e+01
  -3.077228e+02  -2.959669e+02
  -7.819656e+01  -2.412805e+02
   1.342243e+02  -1.868937e+02
   1.461458e+02  -3.160047e+01
   6.374419e+01   8.253684e+01
  -6.746597e+01  -9.139723e+01
  -4.991461e+01  -1.174008e+02
   1.506816e+02  -1.363310e+02
   1.896622e+02   1.365141e+01
   4.350761e+01   8.941732e+01
  -6.027597e+01   4.001209e+01
  -8.295144e+01  -1.068133e+02
   1.189992e+02  -1.046476e+02
   2.669903e+02   2.339972e+00
   2.619866e+02   9.078132e+01
   6.744970e+01   2.482068e+02
  -1.957303e+02   2.308525e+02
  -2.557470e+02   1.453423e+02
  -1.951675e+02   4.381215e+01
  -3.467468e+01  -1.181817e+02
   7.259502e+01   5.191228e+00
  -2.610300e+01   9.693316e+01
  -1.700675e+02   7.941571e+01
  -2.314114e+02  -6.310965e+01
  -6.162080e+01  -1.922025e+02
   7.087079e+01  -9.489136e+01
   1.121780e+02  -7.312115e+01
   8.315949e+01   4.515103e+01
  -2.822907e+00   3.152185e+01
  -2.075439e+01  -8.631858e+01
   7.870156e+01  -1.314064e+02
   2.004236e+02  -5.866066e+01
   2.298621e+02   1.239104e+02
   2.863919e+01   2.340014e+02
  -1.784408e+02   1.737753e+02
  -1.892343e+02   2.727179e+01
  -1.034956e+02  -1.164946e+02
   9.137078e+01  -1.066123e+02
   6.362028e+01  -5.240188e+01
  -9.250718e+00   3.197668e+01
  -2.057908e+01   4.909972e+01
   1.161615e+01   3.841723e+00
   1.049906e+02  -1.264085e+01
   1.177185e+02   8.429357e+01
  -6.034124e+00   1.707461e+02
  -9.994024e+01   1.661756e+02
  -2.555948e+02   6.362042e+01
  -2.516307e+02  -1.000304e+02
  -7.396084e+01  -2.001818e+02
   8.946390e+01  -1.734928e+02
   1.222202e+02  -7.772067e+01
   1.019153e+02  -9.495725e+00
   2.554807e+01  -9.797839e+00
   2.086383e+01  -5.953435e+00
   1.117442e+02   2.572384e+01
   5.202202e+01   6.343181e+01
   2.041290e+01   9.921984e+01
  -1.486738e+02   1.222992e+02
  -1.137916e+02  -3.875025e+01
   6.570962e+00  -1.204609e+02
   1.439497e+02  -1.209993e+02
   2.292503e+02   5.776188e+01
   9.533997e+01   1.582351e+02
  -4.216656e+01   2.468173e+02
  -2.417233e+02   1.178187e+02
  -2.147191e+02  -7.659694e+01
  -1.383713e+02  -1.488550e+02
   4.079002e+01  -2.019756e+02
   5.372879e+01  -7.891896e+01
   7.619936e+01  -9.608103e+01
   5.598204e+01  -1.137376e+02
   7.371515e+01  -9.968450e+01
   1.542939e+02   3.016105e+00
   1.656367e+02   9.896276e+01
   1.448969e+01   2.320040e+02
  -1.436064e+02   1.458146e+02
  -2.094762e+02  -4.320588e+01
  -1.689060e+02  -1.073592e+02
  -4.418498e+01  -1.810179e+02
   8.040570e+01  -1.371085e+02
   5.232551e+01   1.807348e+01
   9.551369e+00   6.285904e+01
  -3.205777e+01   1.616734e+01
  -2.934221e+01  -1.143975e+01
   1.053023e+02  -3.046616e+00
   6.531224e+01   1.797026e+01
  -7.365205e+01   5.223513e+01
  -1.616372e+02   3.595984e+01
  -1.712957e+02  -2.043019e+01
  -4.684151e+00  -8.700856e+01
   9.226937e+01  -1.387118e+02
   1.657949e+02  -4.174964e+01
   5.575072e+01   8.738935e+01
  -4.988211e+01   2.586293e+01
  -8.914113e+01   3.139625e+00
  -7.534033e+00  -9.414234e+01
   3.888023e+01  -7.026625e+01
   4.551458e+01  -1.126411e+01
   1.064502e+02   3.573243e+01
   2.170634e+01   3.927844e+01
   5.970525e+01   5.153651e+01
   6.571336e+01  -2.823802e+00
   6.777880e+01   1.256345e+02
   5.111892e+00   1.592242e+02
  -1.277354e+02   1.475300e+02
  -1.594352e+02   2.747192e+01
  -1.188586e+02  -1.236766e+02
   2.938715e+01  -1.365365e+02
   1.140680e+02  -8.370537e+01
   6.337515e+01  -5.403339e+01
  -6.307582e+01   4.911824e+01
  -1.234807e+02   2.304782e+00
  -8.198809e+01  -1.397052e+02
   7.065387e+01  -1.272386e+02
   1.916531e+02  -4.277186e+01
   1.864920e+02   3.237002e+01
   5.155001e+01   4.973331e+01
  -7.748913e+01   6.491745e+01
  -3.638645e+01   3.382857e+01
   2.396733e+01  -5.215119e+01
   1.432250e+02   8.482508e+00
   6.783308e+01   1.100076e+02
  -6.109853e+01   2.209769e+02
  -1.466195e+02   1.196353e+02
  -1.271453e+02  -6.605514e+01
  -5.472993e+01  -1.850585e+02
   9.488456e+01  -1.489994e+02
   9.110820e+01  -3.996353e+01
   5.782539e+01   9.973196e+01
   5.329252e+01   1.203389e+02
  -4.829406e+01   3.194619e+01
  -6.139301e+01  -2.466036e+01
  -2.268227e+01   3.502107e+00
  -4.260015e+01   1.318747e+01
  -8.693502e+00  -1.512992e+01
  -8.971738e+01  -8.236470e+01
  -5.831310e+01  -9.105386e+01
   4.894164e+01  -5.873222e+01
   1.361425e+02   4.696944e+01
   1.198328e+02   1.112346e+02
   1.335920e+01   9.031884e+01
  -5.810472e+01   2.305478e+01
  -8.344009e+01   8.334822e+01
   3.024687e+00  -7.006588e+00
   3.402651e+00  -4.932274e+01
   3.029361e+01   1.904385e+00
  -1.730236e+01   2.807255e+01
  -1.938478e+01   1.982783e+01
   6.257326e+01  -3.832228e+01
   1.028016e+02   4.942014e+01
  -6.402985e-01   9.639778e+01
  -1.240251e+02   1.317616e+02
  -1.628363e+02   8.691812e+01
  -1.352492e+02  -6.255886e+01
  -9.296887e+01  -1.190500e+02
   7.912797e+01  -1.607573e+02
   1.579549e+02  -3.355267e+01
   7.776422e+01   1.896063e+01
   3.692591e+01   3.837772e+00
   2.034735e+01  -4.610030e+01
   1.548791e+01   1.321362e+01
   9.414809e+00   5.703431e+01
   4.498798e+01   1.050834e+02
  -1.555027e+01   1.273054e+02
  -1.003843e+02  -2.993512e+01
  -9.549245e+01  -9.513400e+01
  -5.083738e+01  -9.400569e+01
   1.316584e+02  -3.370800e+01
   1.297722e+02   7.808151e+01
   5.519657e+01   1.113454e+02
  -6.835318e+01   3.694578e+01
  -1.239690e+02  -7.716846e+00
  -4.222851e+01  -3.939647e+01
  -4.815292e+00  -2.998701e+01
   6.935093e+01  -1.822150e+01
  -1.935935e+01  -8.363215e+00
  -1.013892e+02   1.371211e+01
  -3.868855e-01  -3.386628e+01
   1.062716e+02  -8.131633e+01
   1.064294e+02  -8.214879e+01
   5.324212e+01  -9.130230e+00
  -2.471776e+01   1.409526e+02
  -4.024418e+01   1.131997e+02
  -9.490349e+00   2.329530e+01
  -3.308262e+00  -4.949022e+01
   4.387527e+01  -8.055646e+01
   5.853711e+01  -9.428049e+00
   4.650588e+01   2.925216e+01
   2.775451e+01   4.468880e+01
  -2.704326e+01  -2.759761e+01
  -2.776878e+01  -1.093300e+01
   1.314088e+01  -3.538316e+01
  -1.854756e+01  -1.886822e+01
  -7.206393e+00   2.542124e+01
   8.040980e+00  -5.206988e+01
   1.944366e+01  -6.036000e+01
   7.128124e+00  -3.009309e+01
   5.389705e+01  -7.472752e-01
   1.741227e+01   4.770296e+00
  -1.858110e+01   3.085903e+01
  -5.747447e+01  -2.605463e+01
  -3.983655e+01  -7.334459e+01
   8.987149e+01  -3.427018e+01
   7.658971e+01  -1.264811e+00
   9.752373e+01   5.473351e+01
  -4.622010e+01   5.935209e+01
  -6.889125e+01   3.029995e+01
  -2.310758e+01  -1.345077e+01
   3.159300e+01  -3.284591e+01
   6.333153e+01   2.417470e+01
  -7.886152e+00  -1.253219e+01
  -9.945761e+01   6.521771e+00
