
 $NMID
 id='ANONYMOUS ', fmtdat='(2E16.6)'
 volume=1.0
 tramp=1.0
 $END
  -4.742323e+03   5.374309e+02
  -3.357118e+03  -2.570182e+03
   6.452520e+02  -2.897683e+03
   2.437291e+03  -1.004514e+03
   1.106705e+03   4.268594e+02
  -5.318282e+02   5.560802e+02
  -1.052125e+03  -4.000673e+02
   1.446989e+02  -1.052661e+03
   9.271234e+02  -8.757017e+02
   1.029481e+03  -1.260385e+02
   4.284904e+02   8.429932e+02
  -1.828890e+02   8.556667e+02
  -6.870245e+02   6.694280e+01
  -5.193507e+02  -7.105952e+02
   1.847821e+02  -8.352108e+02
   6.856314e+02  -5.766759e+01
   2.675660e+02   7.416693e+02
  -3.860539e+02   6.825628e+02
  -5.280166e+02   1.297078e+02
  -4.527525e+02  -3.107791e+02
  -1.174767e+02  -4.187621e+02
   2.216338e+02  -3.406121e+02
   2.006413e+02  -1.035584e+01
  -1.198407e+02   9.989493e+01
  -4.729732e+02  -6.040442e+01
  -2.435442e+02  -5.405136e+02
   4.653974e+02  -3.928065e+02
   9.532809e+02   6.963524e+01
   4.298274e+02   6.250702e+02
  -2.976173e+02   5.211242e+02
  -7.493273e+02   3.548601e+01
  -3.842010e+02  -4.727301e+02
   1.590195e+02  -5.773186e+02
   5.974430e+02  -2.555412e+02
   5.042303e+02   2.361836e+02
   5.479228e+01   5.028716e+02
  -2.233092e+02   2.934054e+02
  -2.298920e+02  -1.526727e+02
   1.335255e+02  -4.536859e+02
   5.159990e+02   1.104868e+01
   3.155593e+02   7.661434e+02
  -2.886085e+02   6.745415e+02
  -6.314092e+02  -3.732908e+01
  -3.254926e+02  -5.813802e+02
   2.997671e+02  -3.419596e+02
   4.191676e+02   4.046613e+02
  -2.435492e+01   5.849401e+02
  -5.109368e+02   1.684544e+02
  -7.128825e+02  -3.693913e+02
  -1.917105e+02  -5.595140e+02
   3.555320e+02  -3.753343e+02
   6.845864e+02   1.282467e+02
   4.104795e+02   3.344302e+02
  -4.870126e+01   3.939155e+02
  -4.394501e+02   1.301501e+02
  -2.557990e+02  -2.205048e+02
   1.856597e+02  -7.204554e+01
   1.301183e+02   1.638932e+02
  -1.632368e+02   2.087936e+02
  -3.244826e+02  -7.689090e+01
  -1.664478e+02  -3.414364e+02
   2.619244e+02  -2.452706e+02
   3.585986e+02  -1.158744e+02
   2.270793e+02   4.783323e+01
  -1.119177e+01   1.858406e+02
  -1.645863e+02   3.925042e+02
  -3.581122e+02   2.425849e+02
  -3.227172e+02  -1.563996e+02
  -1.140165e+02  -4.613366e+02
   9.501042e+01  -4.198095e+02
   1.331290e+02  -1.417731e+02
   3.097811e+01  -7.764196e+00
   7.560332e+01  -7.079255e+01
   2.167784e+02  -1.348731e+02
   2.567006e+02   2.575848e+01
   2.253702e+02   3.174851e+02
  -1.109428e+01   2.831686e+02
  -1.843294e+02   4.866436e+01
  -1.771353e+02  -2.667242e+02
  -1.856130e+01  -3.229240e+02
   2.809351e+02  -2.187456e+02
   3.914523e+02   1.580485e+02
   2.329866e+02   3.287360e+02
  -2.440793e+01   3.292752e+02
  -1.962829e+02   1.515599e+02
  -1.728595e+02   1.398409e+01
  -1.235192e+02  -1.501308e+01
  -1.963895e+02   1.004660e+02
  -4.463134e+02  -7.386641e+01
  -3.586762e+02  -3.250037e+02
  -6.226602e+01  -5.042318e+02
   4.230966e+02  -4.746384e+02
   4.157780e+02  -1.799734e+02
   3.333635e+02   8.679532e+01
   1.088209e+02   3.258075e+02
  -1.705199e+02   2.885454e+02
  -1.097842e+02   6.639072e+01
   1.176681e+02  -1.187796e+02
   2.274848e+02  -4.070283e+01
   5.480636e+01   1.813135e+02
  -1.673148e+02   1.861010e+02
  -2.140278e+02  -5.127078e+01
  -1.063347e+01  -2.045810e+02
   1.435209e+02  -5.093359e+01
   1.549124e+02   2.396463e+02
  -7.188970e+01   3.859960e+02
  -2.902565e+02   2.007526e+02
  -3.967258e+02  -2.218939e+01
  -3.333188e+02  -2.837737e+02
  -1.061560e+02  -2.862034e+02
   1.203112e+02  -1.703390e+02
   1.717348e+02  -2.818011e+01
   6.629952e+01  -1.228125e+00
  -3.183051e+01   1.041110e+01
  -7.367059e+01  -1.202735e+02
   1.262647e+02  -1.039880e+02
   1.566878e+02   1.890467e+01
   7.442400e+01   9.445821e+01
  -9.498416e+01   5.657960e+01
  -7.549682e+01  -3.732964e+01
   1.103356e+02  -1.549704e+02
   3.194704e+02  -4.246537e+01
   3.240797e+02   1.005080e+02
   1.194659e+02   2.635927e+02
  -9.551444e+01   2.838221e+02
  -2.759907e+02   1.613487e+02
  -1.986758e+02  -2.077524e+01
  -2.574348e+00  -9.346799e+01
   1.093212e+02  -2.405910e+01
  -2.260226e+01   1.054211e+02
  -2.113936e+02   1.228421e+01
  -2.426298e+02  -6.371989e+01
  -6.559855e+01  -2.147566e+02
   1.297680e+02  -1.743662e+02
   1.647222e+02  -2.411364e+01
   6.885720e+01   4.573126e+01
  -1.665533e+01  -1.020816e+01
  -3.362010e+01  -5.765712e+01
   4.613376e+01  -8.294564e+01
   2.183419e+02  -5.568773e+01
   2.113264e+02   1.225964e+02
   3.574702e+00   2.173559e+02
  -1.450172e+02   1.661116e+02
  -1.846329e+02   8.133339e+00
  -1.030533e+02  -1.063546e+02
   7.551662e+01  -9.763133e+01
   9.563677e+01  -1.254073e+01
   1.864469e+01   2.278733e+01
  -9.748865e+00   5.422617e+00
   5.603843e+00   8.981826e+00
   1.136605e+02   8.688457e+00
   8.679658e+01   9.317631e+01
   1.728300e+01   1.623033e+02
  -1.339276e+02   1.723677e+02
  -2.547736e+02   8.961108e+01
  -2.468739e+02  -1.775997e+02
  -8.345228e+01  -1.845908e+02
   8.095213e+01  -2.242728e+02
   1.378064e+02  -4.699151e+01
   7.790007e+01   3.275491e+01
  -3.396653e+00   3.902906e+01
   1.025067e+02   4.001953e-01
   9.157014e+01   2.044282e+01
   2.508498e+01   5.374526e+01
   2.648076e+00   1.137234e+02
  -1.163816e+02   7.759571e+01
  -1.151267e+02  -6.019677e+01
   1.874945e+01  -8.212328e+01
   1.535319e+02  -8.619144e+01
   1.942666e+02   8.440629e+01
   1.297305e+02   1.805393e+02
  -1.015951e+02   2.493638e+02
  -2.777431e+02   1.095462e+02
  -2.915948e+02  -7.010637e+01
  -1.382881e+02  -2.067379e+02
   4.010467e+01  -1.443088e+02
   9.839021e+01  -9.895624e+01
   8.933780e+01  -6.405870e+01
   3.280091e+01  -1.113617e+02
   9.198962e+01  -1.038145e+02
   1.092281e+02   3.026687e+00
   1.650175e+02   1.306377e+02
   4.814127e+01   2.303363e+02
  -9.772598e+01   1.723461e+02
  -1.735084e+02   7.257453e+01
  -1.833755e+02  -1.533871e+02
  -5.259284e+01  -1.910375e+02
   8.422647e+01  -1.281966e+02
   5.260869e+01   2.418302e+01
   4.519940e+00   4.447762e+01
  -3.023795e+01   8.139317e+01
   2.260195e+01   3.465675e+01
   1.237127e+02   3.219833e+01
   6.223053e+01   2.184155e+01
  -8.170814e+01   3.882151e+01
  -1.350224e+02   1.169925e+01
  -1.635524e+02  -2.061081e+01
  -3.033861e+01  -4.565721e+01
   1.393755e+02  -8.908047e+01
   1.129969e+02  -4.573160e+01
   4.314911e+01   5.163806e+01
  -6.321452e+01   2.070251e+01
  -1.256192e+02   5.250744e-01
  -3.231706e+01  -6.588687e+01
   3.253258e+01  -5.590722e+01
   7.109208e+01  -2.244325e+01
   5.690617e+01   2.480553e+01
   4.891700e+01   1.028767e+02
   6.352310e+01   4.189317e+01
   4.340405e+01   5.671753e+00
   4.284664e+01   2.262424e+01
   8.592089e+00   1.657613e+02
  -6.877580e+01   2.184791e+02
  -1.591522e+02   2.682149e+01
  -1.089686e+02  -8.865328e+01
  -6.155729e+00  -1.010840e+02
   8.247311e+01  -8.150455e+01
   1.019382e+02  -6.708949e+00
  -7.006838e+01   3.404131e+01
  -1.528063e+02  -2.570809e+01
  -3.441926e+01  -1.122031e+02
   7.404869e+01  -1.181067e+02
   1.813103e+02  -1.569708e+01
   1.590263e+02   9.559309e+00
   7.985958e+01   7.100151e+01
  -8.157852e+01   6.559172e+01
  -3.215629e+01  -3.120266e+01
   4.890325e+00  -1.666395e+01
   1.010714e+02  -7.699963e+00
   2.674032e+01   1.177512e+02
  -5.369681e+01   1.413869e+02
  -1.517587e+02   6.203795e+01
  -1.485084e+02  -1.361775e+02
  -5.339377e+01  -1.426816e+02
   1.052161e+02  -1.765484e+02
   1.079936e+02   3.897719e+00
   4.642112e+01   1.128740e+02
   2.001335e+01   1.057492e+02
  -7.668072e+01   6.057419e+00
  -2.951380e+01   5.164547e+00
  -3.717774e+01  -1.123101e+01
  -1.880230e+01   3.167056e+01
  -3.801167e+01  -8.259898e+00
  -1.103398e+02  -8.820909e+01
  -4.347595e+01  -8.716526e+01
   5.010366e+01  -7.425249e+01
   1.776196e+02   5.073390e+01
   1.536393e+02   1.070605e+02
   4.300362e+01   5.453916e+01
  -5.801849e+01   1.311099e+01
  -5.228330e+01   1.834876e+01
   2.557403e+01  -7.088670e+01
   7.645498e+01   2.373712e+01
   2.150526e+01  -4.750550e+01
   3.570682e+00   5.094938e+01
  -9.384751e+00   2.413516e+01
   1.184283e+02   5.423300e+00
   1.179878e+02   1.429147e+01
  -4.166721e+00   5.456141e+01
  -1.237833e+02   1.417969e+02
  -1.886320e+02   9.192884e+01
  -1.329503e+02  -1.016315e+02
  -6.349526e+01  -1.778812e+02
   4.936669e+01  -2.026271e+02
   1.102260e+02  -8.349650e+01
   4.089307e+01   4.309556e+01
   1.570651e+01   2.780936e+01
   4.575528e+00   2.559372e+01
   6.257938e-01  -5.028344e+01
   4.677440e+01   7.281491e+01
   4.142375e+01   1.017330e+02
  -1.458743e+01   6.555358e+01
  -8.312939e+01  -2.202789e+01
  -9.105406e+01  -1.017686e+02
  -3.586479e+01  -1.113478e+02
   5.260382e+01  -5.707950e+01
   1.118302e+02   6.118555e+01
   6.089729e+01   1.025279e+02
  -8.577572e+01   5.683408e+01
  -6.586405e+01   7.036747e+00
  -5.378542e+01  -3.980256e+01
   2.030891e+01  -4.506160e+01
   5.644190e+01  -2.323701e+01
  -2.068352e+01  -5.495831e+00
  -8.227518e+01   9.993530e+00
  -1.294312e+01  -1.718591e+00
   7.654892e+01  -6.886568e+01
   1.019718e+02  -6.826113e+01
   4.298331e+01   2.412393e+01
  -3.186989e+01   8.194328e+01
  -2.565384e+01   1.063185e+02
  -2.962705e+01  -2.937157e+01
  -2.454568e+00  -5.696786e+01
   3.793459e+01  -5.968204e+01
   5.790855e+01   6.420071e+01
   2.708033e+01   4.956694e+01
   1.769297e+00   3.143878e+00
  -3.217702e+01   3.008589e-01
  -1.569400e+01   7.625495e+00
  -3.091629e+01  -2.948104e+01
   1.905050e+01  -3.946369e+01
  -1.754690e+01   4.900940e+01
  -3.946113e+01  -5.297570e+01
   2.102066e+01  -4.228373e+01
   2.309476e+01  -1.459029e+01
   3.040386e+01   4.289001e+01
  -2.612754e+01   3.352431e+01
  -2.967244e+01   5.553638e+01
  -8.928533e+01  -5.657406e+01
  -1.486184e+01  -5.741917e+01
   8.040920e+01  -4.553537e+01
   7.236505e+01   2.147433e+01
   6.395055e+01   4.865542e+01
  -1.441284e+01   1.914831e+01
  -2.478325e+01  -6.072310e+00
  -1.339511e+01   1.783152e+01
   3.196654e+01   4.039524e+01
   6.373605e+01   4.382504e+01
  -3.228021e+01   6.380104e+01
  -7.390034e+01   7.580293e+01
