
 $NMID
 id='ANONYMOUS ', fmtdat='(2E16.6)'
 volume=1.0
 tramp=1.0
 $END
   3.354388e+03  -6.488794e+02
   2.392106e+03   1.485917e+03
  -1.364286e+02   1.718552e+03
  -1.412281e+03   1.502498e+03
  -1.045988e+03   1.847332e+02
   2.070846e+02  -2.454291e+02
   6.274195e+02   2.012571e+02
   6.849058e+01   6.705947e+02
  -3.016452e+02   7.868388e+02
  -8.275919e+02   1.946538e+02
  -3.655978e+02  -6.219870e+02
   2.131376e+01  -7.680683e+02
   3.032071e+02  -1.960479e+02
   5.054436e+02   4.683420e+02
  -6.688667e+01   5.907352e+02
  -4.704064e+02   1.730657e+02
  -4.113557e+02  -5.652300e+02
   1.566077e+02  -5.997025e+02
   4.848264e+02  -2.948684e+02
   5.007122e+02   1.294477e+02
   1.850174e+02   3.598182e+02
  -5.879087e+01   3.169610e+02
  -1.018659e+02   9.444683e+01
   1.439784e+02  -5.611106e+00
   3.395221e+02   1.994253e+02
   9.193752e+01   3.289361e+02
  -4.528512e+02   2.277210e+02
  -6.514411e+02  -1.268208e+02
  -2.536188e+02  -3.893345e+02
   3.079639e+02  -4.187462e+02
   5.845605e+02   4.303214e+01
   2.594716e+02   4.129334e+02
  -1.979057e+02   4.534289e+02
  -4.446077e+02   2.395570e+02
  -2.967015e+02  -1.886676e+02
  -8.303422e+01  -3.517839e+02
  -3.452301e+01  -2.224700e+02
   7.074359e+01   1.274707e+02
  -1.275762e+02   2.404005e+02
  -2.445421e+02  -1.462226e+02
  -2.126240e+02  -4.931305e+02
   2.169912e+02  -5.109227e+02
   4.548314e+02   3.744273e+01
   1.197792e+02   3.952321e+02
  -1.524444e+02   1.978737e+02
  -2.736967e+02  -2.138100e+02
   1.854347e+01  -3.994621e+02
   4.043302e+02  -1.358056e+02
   5.723418e+02   2.976689e+02
   2.030894e+02   4.755597e+02
  -2.919455e+02   3.513207e+02
  -5.179931e+02  -6.079098e+01
  -3.411595e+02  -2.443153e+02
   3.961016e+01  -2.868269e+02
   3.349233e+02  -1.268266e+02
   2.462626e+02   1.293256e+01
  -2.809445e+01   2.405424e+01
  -4.827505e+01  -1.148008e+02
   6.693204e+01  -1.414824e+02
   2.089696e+02   5.707481e+01
   1.607720e+02   2.249329e+02
  -1.807732e+02   2.714852e+02
  -3.518376e+02   1.327747e+02
  -1.981060e+02  -9.578760e+01
   5.980303e+01  -2.540653e+02
   2.482912e+02  -3.623799e+02
   3.347946e+02  -2.314271e+02
   2.347840e+02   1.379618e+02
   1.075735e+02   3.513048e+02
  -3.898075e+01   3.125743e+02
  -3.007777e+01   1.614575e+02
  -5.420333e+00   4.196976e+01
  -1.012336e+02   1.045947e+02
  -1.768214e+02   1.291772e+02
  -2.832763e+02  -7.465246e+01
  -1.198963e+02  -2.615123e+02
   3.413807e+01  -2.499035e+02
   2.203267e+02  -7.776109e+00
   1.227194e+02   2.447357e+02
  -3.239594e+00   2.687602e+02
  -2.533860e+02   1.113455e+02
  -3.375607e+02  -9.827077e+01
  -1.613590e+02  -2.959043e+02
  -5.676578e+00  -3.105628e+02
   1.625346e+02  -1.556493e+02
   1.511634e+02  -3.287546e+01
   1.403353e+02  -9.268287e+01
   2.650822e+02  -4.840760e+01
   3.761465e+02  -1.284759e+01
   2.626544e+02   2.624694e+02
  -6.557134e+00   4.335141e+02
  -3.160989e+02   3.713603e+02
  -4.380889e+02   2.391035e+02
  -3.286875e+02  -6.592369e+01
  -6.082456e+01  -2.460063e+02
   9.037717e+01  -2.496639e+02
   6.320919e+01  -5.540139e+01
  -1.371152e+02   3.388378e+01
  -1.422825e+02   4.565669e+01
  -4.569277e+01  -1.614011e+02
   1.859248e+02  -1.328815e+02
   9.596790e+01   7.844421e+01
  -7.914669e+00   1.258035e+02
  -1.799275e+02   2.698600e+01
  -1.864101e+02  -2.530522e+02
  -6.219449e+00  -3.401034e+02
   2.253675e+02  -1.963524e+02
   3.627077e+02   2.857763e+01
   2.753376e+02   2.319430e+02
   7.800399e+01   3.217112e+02
  -8.946945e+01   1.351583e+02
  -1.248456e+02   3.182233e+01
  -2.488464e+01  -3.547022e+01
   8.291628e+01   5.355209e+01
   5.493669e+00   1.477382e+02
  -1.272954e+02   7.160770e+01
  -1.293198e+02   1.264921e+01
   2.664578e+01  -4.368016e+01
   8.899305e+01  -1.744253e+01
   1.154927e+02   1.012960e+02
  -1.221228e+02   9.407011e+01
  -2.547359e+02  -5.491214e+01
  -2.751560e+02  -1.547738e+02
  -9.980563e+01  -2.641508e+02
   1.459121e+02  -2.858915e+02
   2.307776e+02  -1.359138e+02
   1.897525e+02   6.802391e+00
   5.831014e+00   7.882083e+01
  -6.886053e+01   1.129897e+01
   6.791535e+00  -1.151727e+02
   1.182685e+02  -3.391851e+01
   1.763672e+02   5.982472e+01
   6.614436e+01   1.661437e+02
  -1.029892e+02   1.273755e+02
  -1.083662e+02   2.299351e+01
  -5.048784e+01  -2.846230e+01
   6.019754e+01   7.331361e+00
   5.559952e+01   1.118982e+02
  -5.801043e+01   1.600470e+02
  -2.567964e+02   3.081710e+00
  -2.215517e+02  -9.565498e+01
  -3.032736e+01  -1.569307e+02
   1.418224e+02  -1.891306e+02
   1.358395e+02  -1.283939e+01
   7.949385e+01   5.288983e+01
  -6.012031e+01   1.363548e+02
  -7.731815e+01   6.859735e+01
  -2.086584e+01  -3.485571e+01
   6.310243e+01  -1.966072e+01
   2.913947e+00   1.342137e+01
  -1.302940e+02   9.082967e+00
  -1.555987e+02  -5.744598e+01
  -9.661389e+01  -1.457531e+02
   1.363076e+02  -1.406945e+02
   1.796705e+02  -7.018387e+01
   2.090000e+02   1.511674e+02
   7.960509e+01   2.642983e+02
  -1.131572e+02   1.607280e+02
  -1.341832e+02   7.042462e+01
  -1.011944e+02  -6.565314e+01
  -3.497433e+01  -2.857573e+01
  -7.245510e+01   3.281155e+00
  -9.453614e+01   1.281779e+01
  -5.166533e+01  -1.770427e+01
   1.570100e+01  -1.718069e+02
   1.278903e+02  -4.249172e+01
   1.358695e+02   2.773965e+01
   1.625842e+01   1.363020e+02
  -1.125273e+02   8.086944e+01
  -1.733058e+02  -5.159248e+01
  -1.591932e+02  -1.802204e+02
   7.809297e+01  -2.702104e+02
   2.264519e+02  -5.268471e+01
   2.395295e+02   9.936109e+01
   1.432457e+02   1.331304e+02
  -3.382174e+01   1.233549e+02
  -1.174733e+02   7.755475e+01
  -6.247144e+01   7.613505e+01
  -3.880429e+01   1.327597e+02
  -8.413571e+01   7.856784e+01
  -1.594219e+02   5.093892e+00
  -1.288183e+02  -1.253965e+02
  -5.868674e+01  -2.587944e+02
   7.025535e+01  -1.641461e+02
   1.830631e+02  -1.016797e+01
   1.630697e+02   1.111676e+02
   1.175375e+01   2.082937e+02
  -2.201923e+01   4.210909e+01
  -3.274462e+01  -1.956403e+01
  -4.029327e+01  -3.251415e+01
   3.749119e+01   1.350783e+01
   1.952388e+00   1.627411e+01
  -1.386048e+02  -2.542087e+01
  -8.271728e+01   2.318958e+01
   6.505707e+01  -4.449905e+01
   2.104327e+02   9.210737e+00
   1.095929e+02   4.787735e+01
  -2.485469e+01   5.994726e+01
  -7.404268e+01   3.374045e+01
  -1.575775e+02   1.644055e+01
  -2.824746e+01  -6.255071e+01
   7.175687e+01  -3.171136e+01
   1.104952e+02   9.741670e+00
   1.461061e-02   5.285477e+01
  -6.212764e+01   1.319178e+01
  -5.117323e+01  -1.165837e+01
  -7.121797e+01  -7.537413e+01
  -8.899286e+01  -2.355072e+01
  -4.454310e+01   3.752936e+00
  -8.966910e+01   2.932049e+01
  -7.273045e+01  -4.360227e+01
  -2.663568e+00  -1.690022e+02
   1.324006e+02  -1.832692e+02
   1.202633e+02  -3.902042e+01
   1.471928e+02   8.470454e+01
  -2.188599e+01   1.306696e+02
  -1.288624e+02   6.491418e+01
  -7.472806e+01   1.440605e+01
   5.355366e+01  -4.691916e+01
   1.346973e+02   5.212850e+01
   5.646631e+01   1.014525e+02
  -9.489292e+01   1.119946e+02
  -1.981002e+02   6.627663e+01
  -1.367572e+02  -3.265121e+00
  -3.171892e+01  -6.116834e+01
   9.462489e+01  -4.003158e+01
   1.570891e+01  -2.113103e+00
  -2.113658e+01   2.116014e+01
  -1.121949e+02  -8.710126e+00
  -5.521164e+01  -9.447857e+01
   3.305347e+01  -1.610714e+02
   1.399362e+02  -1.040929e+02
   1.341110e+02   8.277141e+01
   3.119919e+01   2.063040e+02
  -1.716092e+01   1.677915e+02
  -5.987359e+01   4.872043e+00
  -9.908090e+01  -1.253747e+02
  -1.154939e+01  -1.036065e+02
   3.421728e+01   5.325583e+00
   4.510248e+01   2.487863e+01
   5.579942e+01   2.855872e+01
  -4.008646e+01   1.703246e+01
   8.243700e+00   2.713786e+01
   2.958644e+01   1.131043e+02
   1.001296e+01   8.707933e+01
  -3.809835e+01   5.010263e+01
  -1.337600e+02  -3.556739e+01
  -1.130020e+02  -2.073509e+01
  -4.481891e+01  -3.795406e+01
   8.842894e+01  -4.414361e+01
   1.050980e+02   2.810722e+00
  -6.141391e+00  -5.956685e+00
  -4.597911e+01  -9.618437e+00
  -1.694525e+01   4.479109e+01
  -1.313146e-01   2.384760e+01
   8.653633e-01  -1.365454e+01
  -6.636685e+01   9.076571e+00
  -1.406811e+02  -4.459858e+01
  -2.851222e+01  -1.114657e+02
   8.848623e+01  -1.395348e+02
   1.923086e+02  -8.919658e+01
   1.812513e+02  -1.366963e+01
   5.032348e+01   1.311794e+02
  -9.974240e+01   2.020219e+02
  -1.111540e+02   6.141098e+01
  -4.176700e+01  -2.357456e+01
  -4.804092e+01  -3.114387e+01
   7.485283e+00   1.040046e+01
  -6.135216e+01  -2.831911e+00
  -5.559118e+01  -4.689361e+01
  -3.817622e+01  -5.028262e+01
  -3.655197e+00  -5.270772e+01
   7.314858e+01  -1.293647e+01
   1.114101e+02   6.504461e+01
   1.280467e+01   6.958863e+01
  -6.563269e+01   3.280697e+01
  -1.277273e+02  -6.773852e+01
  -6.120631e+01  -1.493638e+02
   6.082637e+01  -3.915023e+01
   7.187566e+01   1.304009e+01
   3.651235e+01   4.903222e+01
  -7.344252e+01   1.015310e+02
  -7.110451e+00   3.246994e+00
   2.844832e+01   1.098460e+01
   7.026425e+01  -7.897014e+01
   5.142069e+01   2.075632e+01
  -2.547278e+01   8.521955e+01
  -1.396888e+02   1.016587e+02
  -4.488727e+01   4.164311e+00
  -2.746126e+01  -1.317217e+02
   2.755054e+01  -8.455121e+01
   4.627605e+01  -2.243314e+01
  -1.021324e+01   5.363512e+01
  -3.297307e+01   8.061191e+00
  -1.012646e+02  -1.836696e+01
  -1.616214e+01   1.281574e+01
  -2.302399e+01  -1.826349e+01
   1.236046e+01  -3.550873e+01
   4.642426e+01   5.250246e+01
   6.401318e+00   1.947018e+01
   3.690819e+01  -3.392717e+01
   2.107051e+01  -3.725271e-01
   1.088385e+01  -3.628754e-01
   4.659010e+01   2.272152e+01
  -2.343494e+01   3.770031e+01
  -2.619055e+01   3.351739e+00
   2.674733e+01  -4.945095e+01
   2.731120e+01   2.355213e+00
   5.874301e+01   1.382519e+01
   1.992805e+01   8.022154e+01
  -6.992678e+01   4.310060e+01
  -9.788785e+01  -1.652440e+01
  -5.962684e+01  -3.504683e+01
   1.588730e+01  -3.233678e+01
   7.549456e+01  -5.215457e+01
   1.995730e+01  -4.890383e+01
  -4.921214e+01   4.217319e+00
  -6.774989e+01  -1.721313e+01
   1.360331e+01  -3.729532e+01
   6.638349e+01  -5.613779e+00
