
 $NMID
 id='ANONYMOUS ', fmtdat='(2E16.6)'
 volume=1.0
 tramp=1.0
 $END
   3.505512e+03  -5.911209e+02
   2.478098e+03   1.734043e+03
  -9.437700e+01   2.400767e+03
  -1.591265e+03   1.349222e+03
  -1.133873e+03   1.940099e+02
   2.514177e+02  -4.451408e+02
   6.970240e+02   2.680047e+02
   1.639476e+02   5.027045e+02
  -3.458396e+02   7.412356e+02
  -7.282718e+02   1.618477e+02
  -4.548276e+02  -7.190807e+02
  -8.722446e+00  -7.127329e+02
   2.456523e+02  -1.049201e+02
   3.900737e+02   4.237759e+02
  -6.539887e+01   6.814837e+02
  -4.402312e+02   9.720326e+01
  -3.136148e+02  -5.325352e+02
   2.730348e+02  -5.193505e+02
   4.803096e+02  -2.585672e+02
   4.932621e+02   2.608751e+02
   1.693573e+02   4.824762e+02
  -1.370688e+02   2.934351e+02
  -1.019301e+02   6.234340e+01
   9.510988e+01   9.779868e+01
   3.132703e+02   2.525116e+02
   5.145934e+01   3.794933e+02
  -4.883344e+02   2.463462e+02
  -6.403474e+02  -1.820256e+02
  -2.287904e+02  -2.761716e+02
   3.112343e+02  -2.901400e+02
   5.968999e+02   1.040977e+02
   2.207980e+02   3.961976e+02
  -1.877633e+02   4.492846e+02
  -4.893126e+02   2.659102e+02
  -3.308679e+02  -1.713795e+02
  -4.173519e+01  -3.346857e+02
   1.737958e+01  -2.084891e+02
   4.200705e+01   5.237132e+01
  -1.713089e+02   1.904103e+02
  -1.612267e+02  -1.280558e+02
  -5.116983e+01  -5.657313e+02
   1.915946e+02  -3.723663e+02
   3.686993e+02  -3.199799e+01
   1.699872e+02   2.852996e+02
  -1.757839e+02   2.242371e+02
  -1.802227e+02  -3.841767e+02
   7.300404e+01  -4.685618e+02
   4.925837e+02  -3.162012e+01
   5.140380e+02   4.227655e+02
   2.303089e+02   4.865860e+02
  -3.317010e+02   3.687517e+02
  -5.786829e+02  -7.996798e+01
  -2.763722e+02  -2.803424e+02
   5.647162e+01  -3.367267e+02
   2.823562e+02  -9.093847e+01
   2.573038e+02   4.563919e+01
  -2.809104e+00   5.215746e+01
  -4.268458e+01  -5.033410e+01
   1.121001e+02  -1.411059e+02
   2.729046e+02   5.504406e+01
   1.335494e+02   2.019010e+02
  -1.693756e+02   2.569929e+02
  -3.422474e+02   1.127259e+02
  -2.268851e+02  -9.861922e+01
  -1.535350e+00  -3.116726e+02
   2.663740e+02  -3.766257e+02
   3.732938e+02  -1.957546e+02
   2.554013e+02   1.807955e+02
   8.807827e+01   3.848348e+02
  -3.163194e+01   3.329389e+02
  -2.882240e+01   1.843024e+02
  -5.195848e+01   1.295029e+02
  -7.458612e+01   1.140032e+02
  -2.457592e+02   9.333010e-01
  -3.052289e+02  -1.506863e+02
  -5.053274e+01  -2.169818e+02
   3.410582e+01  -2.273369e+02
   2.543393e+02  -8.305280e+00
   1.631415e+02   2.517069e+02
  -1.578149e+01   2.544290e+02
  -2.846428e+02   8.160899e+01
  -3.129844e+02  -1.738469e+02
  -1.469575e+02  -3.325261e+02
   7.837533e+01  -3.227495e+02
   1.514061e+02  -1.281513e+02
   1.635450e+02  -3.587363e+01
   1.527380e+02   5.825162e+00
   2.942105e+02  -3.076439e+01
   4.083448e+02   1.126240e+02
   2.400129e+02   2.904615e+02
  -1.148900e+01   4.492036e+02
  -3.958801e+02   3.402170e+02
  -4.571212e+02   2.562458e+02
  -3.415571e+02  -1.197989e+02
  -6.890124e+01  -2.539672e+02
   7.143605e+01  -1.914596e+02
   1.359412e+01   6.115266e+00
  -1.252589e+02   3.155516e+01
  -1.790130e+02  -2.264190e+01
   1.050461e+01  -1.593339e+02
   1.043727e+02  -1.230022e+02
   1.551701e+02   6.121922e+01
  -1.040579e+00   1.682520e+02
  -1.673400e+02   2.377897e+01
  -2.155131e+02  -1.523101e+02
  -4.341336e+01  -3.629535e+02
   2.839901e+02  -1.681466e+02
   3.831313e+02   7.776321e+01
   2.282996e+02   2.665780e+02
   8.098606e+01   2.775020e+02
  -1.688021e+02   1.451804e+02
  -1.586210e+02  -2.042886e+01
  -1.371536e+01  -1.594806e+01
   8.352571e+01   6.914892e+01
   1.179531e+01   6.137828e+01
  -1.386481e+02   6.612837e+01
  -1.399975e+02  -3.316125e+01
  -9.104442e+00  -3.167394e+01
   1.130842e+02   1.730050e+01
   4.808038e+01   6.541273e+01
  -1.596561e+02   1.197567e+02
  -2.474376e+02  -3.038800e+01
  -2.565796e+02  -1.521060e+02
  -5.412242e+01  -2.682664e+02
   2.295638e+02  -2.724804e+02
   2.631802e+02  -1.166235e+02
   1.700165e+02   2.967095e+01
  -2.496653e+01   1.039728e+02
  -7.631994e+01   6.912333e+00
   4.418007e+01  -8.539848e+01
   2.145046e+02  -1.698340e+01
   2.384978e+02   8.350197e+01
   5.246221e+01   1.516150e+02
  -1.092270e+02   1.406743e+02
  -1.461266e+02  -7.075996e+00
  -5.394416e+01  -5.411831e+01
   3.944152e+01   3.809881e+01
   8.116354e+01   1.289085e+02
  -8.743467e+01   1.554733e+02
  -2.062705e+02  -5.846143e+00
  -1.905444e+02  -1.620973e+02
  -8.739035e+00  -2.000001e+02
   1.684994e+02  -2.068323e+02
   1.493889e+02   3.103317e+01
   5.348092e+01   7.302138e+01
  -8.456328e+01   1.252633e+02
  -6.482910e+01   2.867429e+01
   4.447280e+00  -1.350572e+01
   8.615557e+01  -2.910353e+01
   2.945137e-01   4.509018e+01
  -8.418413e+01  -3.569873e+01
  -1.275636e+02  -1.320777e+02
   2.015074e+01  -1.158784e+02
   1.460596e+02  -2.172555e+02
   2.445132e+02   4.338651e+01
   2.249479e+02   1.107967e+02
   8.554552e+01   2.623383e+02
  -1.216009e+02   1.981353e+02
  -1.361663e+02   2.244894e+01
  -7.379546e+01  -5.110665e+01
  -4.196505e+01  -5.253159e+01
  -4.695066e+01   2.589887e+01
  -8.544178e+01   1.150651e+01
  -4.819803e+01  -8.171013e+01
   2.571286e+01  -8.411823e+01
   9.121887e+01  -6.065755e+01
   1.329936e+02   3.344992e+01
   3.535940e+01   1.561605e+02
  -1.593586e+02   1.173304e+02
  -1.669209e+02  -9.623530e+01
  -1.308741e+02  -2.123851e+02
   1.011604e+02  -2.910452e+02
   2.700616e+02  -7.314602e+01
   2.115237e+02   1.274858e+02
   6.711954e+01   1.977790e+02
  -5.287144e+01   1.332118e+02
  -7.792850e+01   8.017984e+01
  -6.424068e+01   6.778709e+01
  -6.681438e+01   7.918180e+01
  -7.075056e+01   8.505468e+01
  -1.356094e+02  -5.520363e+00
  -1.422057e+02  -1.452900e+02
   3.690907e+00  -1.694197e+02
   1.054140e+02  -1.845212e+02
   1.447920e+02   3.201814e+01
   1.157414e+02   1.231471e+02
   2.696920e+01   1.887765e+02
  -3.467289e+01   7.798256e+01
   8.862896e-01   5.305792e+00
   1.507310e+01  -7.456173e+01
   2.121839e+01  -5.922010e+01
  -2.950987e+01  -2.961489e+01
  -8.864813e+01  -3.754249e+01
  -3.257447e+01  -2.827581e+01
   8.626752e+01  -7.422025e+01
   1.347167e+02  -2.816011e+01
   1.380324e+02   5.561978e+01
  -4.364603e+00   1.254680e+02
  -9.995342e+01   3.284527e+01
  -1.320497e+02   1.504482e+01
  -6.199885e+01  -4.307292e+01
   5.953993e+01  -4.076906e+01
   4.608967e+01   3.853938e+01
   2.301543e+00   6.864607e+01
  -5.684420e+01   9.418708e+01
  -8.011260e+01   9.871503e+00
  -2.643039e+01  -6.802346e+01
  -5.397637e+01  -2.468804e+01
  -6.087763e+01  -3.365745e+00
  -7.186659e+01   2.392455e+01
  -5.711811e+01  -6.642133e+01
   7.140791e+01  -1.808667e+02
   1.339142e+02  -1.768377e+02
   1.742188e+02  -1.096825e+01
   1.165503e+02   1.359849e+02
  -5.613277e+00   1.479221e+02
  -1.347873e+02   6.361102e+01
  -7.637531e+01  -3.042176e+01
   6.531086e+01  -4.308807e+01
   1.147763e+02   7.024989e+01
   5.398561e+01   8.771058e+01
  -5.006744e+01   1.413261e+02
  -1.876623e+02   3.067566e+01
  -1.329158e+02  -5.908558e+01
  -3.438143e+01  -7.525212e+01
   8.352655e+01  -5.124672e+01
   6.767490e+01   1.753450e+01
  -2.075889e+01   5.450377e+01
  -8.372235e+01  -7.421915e+00
  -9.304368e+00  -1.492697e+02
   3.039712e+01  -1.875805e+02
   2.099599e+02  -7.593261e+01
   1.207144e+02   7.854318e+01
   2.046436e+01   1.601491e+02
  -8.066368e+01   1.282816e+02
  -1.240160e+02   1.030964e+01
  -5.302921e+01  -1.645624e+02
   3.953428e+01  -7.326518e+01
   6.275349e+01   2.114178e+01
   3.309355e+01   3.419585e+01
  -3.668422e-01   5.372706e+00
  -3.445772e+01  -2.386626e+01
   3.455254e+01   4.048796e+01
   5.518564e+01   6.593043e+01
   4.421476e+01   7.875357e+01
  -6.314510e+01   7.365667e+01
  -1.296780e+02  -7.358858e+01
  -8.392820e+01  -9.939742e+01
  -3.112965e+00  -4.854724e+01
   9.527212e+01  -5.675688e+01
   7.301266e+01  -3.572959e+01
   5.860331e+01  -3.668703e+01
  -5.093906e+01  -1.380459e+00
  -6.781684e+01   1.482573e+01
  -7.682689e+00  -3.440796e+01
   1.230678e+01  -6.811857e+00
  -8.612618e+01   3.230403e+01
  -1.123111e+02  -6.724136e+01
  -3.906370e+01  -1.001594e+02
   1.261660e+02  -1.670719e+02
   2.148295e+02  -3.689825e+01
   1.979705e+02   3.370331e+01
   6.995005e+01   1.793692e+02
  -9.019096e+01   1.989884e+02
  -1.687752e+02   3.947530e+01
  -1.353686e+02   2.209446e+01
  -4.058767e+01  -5.123165e+01
   1.161854e+01   5.035831e+00
   4.529903e+01   4.660694e+00
  -1.396372e+01  -5.211649e+01
  -3.589289e+01  -7.546587e+01
   1.464802e+01  -9.079262e+01
   9.506587e+01   3.349135e+01
   6.520560e+01   3.547880e+01
   7.803495e+00   9.542808e+01
  -8.198880e+01   7.172173e+00
  -9.772249e+01  -4.321567e+01
  -7.375474e+01  -9.172245e+01
   8.297880e+01  -6.847968e+01
   7.744067e+01   3.328145e+00
   2.459818e+01   8.554819e+01
  -4.381731e+01   4.936022e+01
  -5.394411e+01   9.464077e+00
   6.960095e-01  -3.502516e+00
   7.114542e+01  -3.617285e+01
  -1.344972e+01   1.208397e+01
  -8.064551e+01   8.666621e+01
  -1.205944e+02   1.060397e+02
  -6.000815e+01  -2.258131e+01
   6.859878e+00  -7.307681e+01
   9.956662e+01  -1.387328e+02
   3.845231e+01  -1.706590e+01
   1.628784e+00   3.329253e+01
  -2.128398e+01   3.487389e+01
  -2.270955e+01  -2.182168e+01
  -1.635124e+01  -6.538406e+01
  -9.430688e+00  -3.008180e+01
   4.050187e+01  -2.394044e+01
   6.845482e+01   7.175017e+01
   2.036708e+01  -3.082216e+01
   7.440636e-01  -2.339107e+01
   3.139480e+01  -1.049466e+01
   9.110278e+00   3.680288e+01
  -1.199248e+01   7.635829e+01
  -5.076480e+01   4.458122e+01
  -3.187745e+01  -3.325491e+01
  -1.856223e+01  -8.391495e+01
   1.785777e+01  -3.569398e+01
   5.631513e+01   9.567528e+01
   3.413534e+01   6.611515e+01
  -3.545047e+01   5.558709e+01
  -8.413863e+01  -1.672032e+01
  -4.031066e+01  -6.267699e+01
  -1.597339e+01  -4.619272e+01
   5.451008e+01  -5.172995e+01
   1.742294e+01   1.656412e+01
  -2.802302e+01   8.563303e+00
  -2.923100e+01  -5.785053e+00
   1.842280e+01  -2.793019e+01
   1.006866e+02  -3.030977e+01
