
 $NMID
 id='ANONYMOUS ', fmtdat='(2E16.6)'
 volume=1.0
 tramp=1.0
 $END
   4.233233e+03  -5.137398e+02
   2.477061e+03   2.708534e+03
  -8.607631e+02   2.348462e+03
  -1.813634e+03   8.575850e+02
  -9.684079e+02  -6.340754e+02
   5.712177e+02  -4.087658e+02
   8.906524e+02   3.524022e+02
  -1.039608e+02   9.876917e+02
  -7.524248e+02   8.101252e+02
  -9.805531e+02  -5.280011e+01
  -3.827863e+02  -6.022325e+02
   2.368689e+02  -1.090386e+03
   5.770548e+02  -1.126866e+02
   4.174520e+02   7.958949e+02
  -2.582487e+02   7.494174e+02
  -6.179462e+02   7.435222e+01
  -2.536237e+02  -5.716686e+02
   2.435466e+02  -5.445585e+02
   4.713984e+02  -1.662882e+02
   3.123837e+02   2.650901e+02
   3.352413e+01   3.983780e+02
  -2.374056e+02   2.838054e+02
  -2.073982e+02  -2.612937e+01
   8.080463e+01  -7.023015e+01
   4.600212e+02  -2.718641e-01
   2.316604e+02   4.097630e+02
  -3.033635e+02   4.623237e+02
  -7.560271e+02  -3.571749e+00
  -4.609504e+02  -5.124693e+02
   3.952450e+02  -4.289027e+02
   7.100191e+02   7.066188e+01
   3.365498e+02   5.060504e+02
  -1.912494e+02   5.879124e+02
  -5.229660e+02   2.984422e+02
  -3.670406e+02  -2.071851e+02
  -3.841555e+01  -4.182013e+02
   1.618178e+02  -2.974010e+02
   1.639076e+02   2.762844e+02
  -1.848089e+02   4.155507e+02
  -3.683981e+02   1.623313e+01
  -2.493345e+02  -6.595302e+02
   3.079312e+02  -6.611914e+02
   5.581462e+02   9.490761e+01
   2.370062e+02   4.954295e+02
  -2.510637e+02   2.365044e+02
  -4.392051e+02  -2.356778e+02
  -3.270012e+01  -5.674732e+02
   5.002887e+02  -1.066596e+02
   6.471676e+02   3.841501e+02
   1.205898e+02   5.242381e+02
  -4.186098e+02   4.316043e+02
  -5.402858e+02   2.223574e+01
  -3.570457e+02  -3.812672e+02
   1.083462e+02  -3.694707e+02
   4.977538e+02  -8.918073e+01
   2.011599e+02   2.234802e+02
  -1.151379e+02   6.757866e+01
  -9.152236e+01  -1.636428e+02
   2.532387e+02  -1.659500e+02
   3.314425e+02   1.037548e+02
   1.472191e+02   2.816809e+02
  -1.703991e+02   2.362376e+02
  -2.852709e+02   2.914434e+01
  -1.323443e+02  -1.152645e+02
  -4.310756e+01  -1.892333e+02
   1.906862e+02  -4.294755e+02
   2.969268e+02  -2.729839e+02
   3.037404e+02   1.241598e+02
   1.406849e+02   4.123386e+02
  -9.781184e+01   3.103720e+02
  -1.618163e+02   1.042022e+02
   3.863196e+00  -7.033685e+00
  -1.738244e+01   8.976776e+01
  -1.964614e+02   1.199305e+02
  -2.589959e+02  -1.843392e+01
  -1.503830e+02  -2.481512e+02
   2.098933e+01  -2.519513e+02
   2.453506e+02  -3.766584e+01
   2.334101e+02   1.934973e+02
   2.200419e-01   3.098050e+02
  -2.666287e+02   1.849963e+02
  -3.304098e+02  -1.360487e+02
  -2.144956e+02  -3.387583e+02
   7.784074e+01  -2.801330e+02
   2.865267e+02  -1.588586e+02
   1.627671e+02  -9.010216e+01
   7.642723e+01  -3.243919e+01
   2.147732e+02  -8.718681e+01
   3.463493e+02  -3.821498e+00
   2.197611e+02   2.887027e+02
   2.208277e+01   4.253725e+02
  -3.328541e+02   3.460153e+02
  -4.358306e+02   2.344135e+02
  -3.746455e+02  -7.106700e+01
  -1.104073e+02  -3.172737e+02
   1.064400e+02  -2.350195e+02
   7.098389e+01  -4.860438e+01
  -1.100214e+02   7.840893e+01
  -2.085431e+02   9.974810e+00
  -7.945130e+01  -1.862702e+02
   2.007504e+02  -1.881318e+02
   1.981443e+02   4.243255e+01
   2.277789e+01   1.910494e+02
  -1.833647e+02   7.761556e+01
  -1.517864e+02  -1.883568e+02
   1.290007e+01  -3.082791e+02
   1.508724e+02  -2.218705e+02
   2.345920e+02  -1.152363e+01
   2.654450e+02   1.975138e+02
   1.088045e+02   2.368779e+02
  -1.012307e+02   1.469403e+02
  -1.234576e+02   4.012495e+01
  -5.700817e+01  -3.132073e+01
   9.058821e+01   4.792099e+00
   3.698730e+01   9.447356e+01
  -9.070618e+01   1.123074e+02
  -1.844424e+02  -1.390249e+01
  -4.465758e+00  -9.270652e+01
   8.350957e+01  -5.434277e+01
   3.447948e+01   8.016327e+01
  -1.537903e+02   9.855003e+01
  -2.800961e+02   5.771282e+01
  -2.585792e+02  -1.289299e+02
  -1.161791e+02  -2.256602e+02
   1.287601e+02  -2.882101e+02
   2.509657e+02  -1.625171e+02
   1.391441e+02   1.231790e+01
  -5.065064e+01   9.647564e+01
  -1.262514e+02  -9.691539e-01
  -1.042711e+01  -9.549818e+01
   1.886570e+02  -5.960203e+01
   2.198215e+02   8.516947e+01
   4.857376e+01   2.254637e+02
  -1.036104e+02   1.587969e+02
  -1.542395e+02   3.349958e+01
  -7.505137e+01  -1.276502e+01
   8.309211e+00  -4.579179e+01
   4.050407e+01   2.377775e+01
  -5.870520e+01   1.095413e+02
  -1.846311e+02   5.943031e+00
  -1.647322e+02  -1.020600e+02
  -5.429643e+01  -1.695376e+02
   1.342153e+02  -1.320736e+02
   1.626369e+02   1.748427e+01
   4.741254e+01   1.075467e+02
  -1.012273e+01   1.297397e+02
  -1.156454e+02  -2.423310e+01
  -3.538122e+01   5.062983e+00
   4.081526e+01  -1.941981e+01
   1.354711e+00   2.788260e+01
  -5.464181e+01  -5.745933e+00
  -1.051495e+02  -6.475495e+01
   8.668880e+00  -1.462870e+02
   9.139750e+01  -1.375972e+02
   2.259785e+02  -1.135532e+00
   1.947931e+02   8.777740e+01
   1.281669e+01   1.995324e+02
  -1.117547e+02   1.721502e+02
  -1.403097e+02   5.498816e+01
  -1.410665e+02  -8.445280e+01
  -2.753321e+01  -3.316890e+01
  -9.866956e+01   2.562849e+01
  -1.080853e+02   3.436209e+01
  -5.316628e+01  -3.262797e+01
   4.023639e+01  -9.955299e+01
   9.727453e+01  -1.207536e+02
   9.499827e+01   1.496269e+01
  -9.064087e-01   1.400451e+02
  -1.210975e+02   1.366298e+02
  -2.080203e+02  -4.068473e+01
  -1.353145e+02  -1.338993e+02
   8.881498e+01  -2.589259e+02
   2.226863e+02  -4.193040e+01
   2.445873e+02   4.401765e+01
   1.287579e+02   1.805711e+02
   3.290715e+00   1.403066e+02
  -4.374978e+01   8.671040e+01
  -5.008495e+01   1.146725e+02
  -8.223021e+01   1.263665e+02
  -7.936604e+01   7.296763e+01
  -1.017574e+02   8.895993e+00
  -1.396280e+02  -1.427331e+02
  -5.546499e+01  -1.926707e+02
   8.062233e+01  -8.300750e+01
   1.563225e+02  -2.548993e+01
   1.303350e+02   7.182745e+01
   2.898540e+01   1.697693e+02
  -5.839823e+01   1.138192e+02
  -3.675446e+01   5.513891e+01
  -2.584777e+01  -4.280775e+01
   4.621421e+00  -4.423215e+01
  -5.346057e+01  -1.933746e+01
  -6.297053e+01  -3.116841e+01
  -5.044819e+01   2.015150e+01
   5.685815e+01  -4.718430e+01
   1.200436e+02  -3.153721e+01
   1.460247e+02   1.226009e+01
   5.724452e+00   4.565513e+01
  -9.655601e+01   9.079782e+01
  -1.491425e+02   3.146815e+01
  -1.039738e+01   4.430952e+00
   3.658598e+01  -3.135903e+01
   6.752385e+01   1.848137e+01
  -2.309564e+00   6.829828e+01
  -1.884201e+01   9.862275e+01
  -4.066293e+01   1.936748e+01
  -7.859848e+01  -3.862511e+01
  -1.764047e+01  -1.923877e+01
  -3.903315e+00  -2.844244e+01
  -2.776415e+01   4.566098e+01
  -2.883692e+01  -3.848164e+01
   2.395616e+01  -1.214843e+02
   8.482356e+01  -1.576447e+02
   1.556665e+02  -4.457743e+01
   1.208213e+02   4.499651e+01
   2.973775e+01   1.207536e+02
  -9.524610e+01   5.584855e+01
  -6.293703e+01  -5.625671e+01
   9.788525e+01  -2.806111e+01
   1.282279e+02   7.165460e+01
   7.549716e+01   1.010205e+02
  -6.815428e+01   7.936697e+01
  -1.477086e+02   5.532088e+01
  -1.446589e+02  -1.537874e+01
  -7.941159e+01  -7.039005e+01
   9.439219e+01  -5.793749e+01
   2.966280e+01  -1.678053e+01
  -4.531825e+01   3.899230e+01
  -6.847319e+01  -1.900757e+01
  -2.874765e+01  -1.094968e+02
   7.517411e+01  -1.412214e+02
   1.475180e+02  -5.528314e+01
   1.380366e+02   8.126949e+01
   4.214473e+01   1.711523e+02
  -9.026480e+01   1.240683e+02
  -8.502833e+01   3.671670e+01
  -5.797119e+01  -1.113296e+02
  -1.878916e+01  -1.231451e+02
   4.420947e+01  -5.641571e+01
   9.682534e+01   2.148502e+01
   5.175337e+00   2.666964e+00
  -5.445636e+00  -7.139168e+00
   7.716829e+00   1.311919e+01
   6.397990e+01   7.415810e+01
   7.096567e+01   1.240018e+02
  -2.714085e+01   5.450284e+01
  -9.655404e+01  -4.247926e+01
  -6.218726e+01  -7.981478e+01
  -9.233983e+01  -2.040844e+01
   9.305382e+01  -6.426034e+01
   7.907058e+01  -3.652335e+01
   9.298789e+00   1.068952e+01
  -1.223183e+01   4.424009e+00
  -1.930520e+01   3.837935e+01
   2.908322e+01   8.126735e-01
  -5.520411e+00  -5.242094e+00
  -5.486497e+01   5.246138e+00
  -5.326661e+01   1.964184e+01
  -2.282916e+01  -5.826522e+01
   1.214550e+02  -1.293259e+02
   1.882525e+02  -1.127276e+02
   1.149145e+02   7.761099e+01
   1.690331e+01   1.603681e+02
  -1.075434e+01   2.108630e+02
  -9.583340e+01   3.210436e+01
  -8.463688e+01  -5.076992e+01
  -3.021682e+01   2.964022e+00
  -4.254242e+01  -4.091181e+01
  -1.757355e-01  -1.148083e+01
  -2.803024e+01  -7.462622e+01
  -5.381841e+01  -4.990817e+01
   1.067612e-01  -1.024881e+02
   1.085182e+02   4.043667e+00
   6.800519e+01   1.085451e+02
  -1.175625e+01   7.810047e+01
  -7.776890e+01   5.031766e+01
  -1.305422e+02  -3.135652e+01
  -1.944530e+01  -6.281210e+01
   9.088295e+01  -9.319516e+01
   7.594382e+01   4.439383e+01
   2.486201e+01   4.367618e+01
   5.672010e+00   2.102412e+01
  -3.594839e+01   3.800426e+01
   5.112296e+01   1.060163e+01
   5.353336e+01  -1.650137e+01
  -1.163344e+00   3.865351e+01
  -7.855543e+01   3.506695e+01
  -6.582146e+01   5.255512e+01
  -8.059242e+01  -1.665276e+01
  -2.473476e+00  -7.447408e+01
   5.052322e+01  -7.354543e+01
   4.848820e+01  -3.110700e+01
   3.105925e+01   3.445842e+01
  -1.272729e+00   4.254768e+01
  -3.776242e+01  -2.178263e+01
  -2.278240e+00  -7.958171e+01
  -3.973708e+01  -1.700451e+01
   8.033609e+01  -2.600928e+00
   4.176697e+01   2.590530e+01
   2.453323e+01   2.059555e+01
   3.915055e+01  -1.440860e+01
  -3.026458e+01   5.288370e+00
   1.656104e+01   5.147717e+00
  -1.976387e+01   5.479643e+01
  -1.859244e+00   2.340621e+01
  -4.638170e+01  -6.362358e+01
   8.755647e+00  -4.299008e+01
   5.112277e+01   3.963132e+01
   3.334063e+01   3.140582e+01
  -3.969717e+00   6.526130e+01
  -6.527290e+01   6.321298e+01
  -4.817315e+01  -2.430924e+01
  -4.764059e+01  -2.300879e+01
   5.266374e+00  -3.718782e+01
   7.986353e+01  -4.593911e+01
   6.002354e+01  -2.777651e+01
  -1.042696e+01   1.697111e+01
  -2.419314e+01  -1.142257e+01
   3.608954e+01  -2.652052e+01
   8.840231e+01  -2.931763e+01
