
 $NMID
 id='ANONYMOUS ', fmtdat='(2E16.6)'
 volume=1.0
 tramp=1.0
 $END
  -4.595560e+03   6.746068e+02
  -2.951712e+03  -2.791233e+03
   6.844811e+02  -2.650044e+03
   1.770067e+03  -7.931865e+02
   1.133670e+03   6.434321e+02
  -3.732699e+02   5.177450e+02
  -9.421148e+02  -3.325823e+02
   6.650237e+01  -9.087057e+02
   8.315235e+02  -8.236240e+02
   1.031827e+03   1.522956e+01
   4.527951e+02   8.195032e+02
  -2.736712e+02   1.073538e+03
  -5.436046e+02   1.404116e+02
  -4.481665e+02  -7.601164e+02
   2.502552e+02  -8.370572e+02
   6.415752e+02  -4.434733e+01
   2.673811e+02   5.961006e+02
  -2.576511e+02   6.163669e+02
  -5.529159e+02   1.463744e+02
  -4.021860e+02  -2.816819e+02
  -1.761260e+01  -4.231698e+02
   2.036816e+02  -3.337925e+02
   2.457232e+02  -3.384365e+01
  -5.070852e+01   1.140123e+02
  -5.124747e+02  -6.760370e+01
  -2.752873e+02  -4.460057e+02
   3.574307e+02  -5.188308e+02
   8.291824e+02   8.094626e+01
   5.179420e+02   5.497719e+02
  -3.921877e+02   5.055017e+02
  -7.357104e+02   1.192159e+01
  -3.386024e+02  -4.595996e+02
   2.059364e+02  -6.152493e+02
   5.306361e+02  -2.945768e+02
   3.829445e+02   2.128039e+02
   9.879551e+01   4.260777e+02
  -2.149007e+02   2.514215e+02
  -1.987016e+02  -2.766038e+02
   1.749878e+02  -4.093905e+02
   4.158257e+02  -8.414332e+00
   2.587035e+02   6.825951e+02
  -2.636125e+02   6.091442e+02
  -6.528346e+02  -1.396934e+01
  -2.902919e+02  -5.499482e+02
   2.714160e+02  -2.734974e+02
   4.550585e+02   3.484244e+02
   8.134788e+01   5.677016e+02
  -5.346760e+02   5.334777e+01
  -6.804883e+02  -3.049622e+02
  -1.770698e+02  -5.445408e+02
   3.173525e+02  -4.506752e+02
   6.464008e+02   1.031935e+02
   3.734091e+02   4.243964e+02
  -1.219609e+02   4.606258e+02
  -5.330927e+02   1.327676e+02
  -2.522234e+02  -1.713818e+02
   1.446667e+02  -1.087455e+02
   1.365207e+02   1.302677e+02
  -1.588163e+02   1.961317e+02
  -3.416771e+02  -7.587600e+01
  -1.219012e+02  -3.120195e+02
   1.864730e+02  -2.198678e+02
   2.795882e+02  -5.711974e+01
   1.875891e+02   6.379563e+01
   4.078141e+01   2.573837e+02
  -1.400431e+02   3.679279e+02
  -3.625976e+02   3.267795e+02
  -2.634150e+02  -1.124619e+02
  -1.317853e+02  -4.572403e+02
   6.289508e+01  -3.621319e+02
   1.332942e+02  -9.834519e+01
   9.621339e+00   4.442775e+01
   9.686291e+00  -1.043242e+02
   2.029046e+02  -1.797178e+02
   2.238065e+02   8.343646e+01
   1.871506e+02   2.769161e+02
  -6.870057e+01   3.456943e+02
  -2.683918e+02   8.171703e+01
  -2.059721e+02  -2.316615e+02
  -2.299281e+01  -2.722959e+02
   2.589464e+02  -1.387448e+02
   4.159694e+02   1.056942e+02
   2.047098e+02   3.178618e+02
  -7.414252e+01   3.065515e+02
  -2.063630e+02   1.042963e+02
  -1.569305e+02   5.463092e+01
  -1.183021e+02   5.570170e+01
  -2.097580e+02   7.125083e+01
  -3.477311e+02   1.938594e+01
  -2.835693e+02  -2.585289e+02
  -4.753912e+01  -4.010279e+02
   3.541043e+02  -4.134787e+02
   4.461191e+02  -1.805290e+02
   3.764832e+02   8.486030e+01
   6.366996e+01   2.698855e+02
  -1.532128e+02   2.348469e+02
  -1.147827e+02   8.752103e+00
   9.805214e+01  -1.026101e+02
   2.209757e+02   4.630725e+00
   5.698380e+01   1.919267e+02
  -1.222895e+02   1.831097e+02
  -1.800067e+02  -5.818056e+01
  -3.602922e+01  -2.215140e+02
   2.302328e+02  -6.794929e+01
   2.117815e+02   2.449578e+02
   1.018225e+01   3.366707e+02
  -2.168436e+02   2.154096e+02
  -3.362342e+02  -1.481502e+01
  -2.516266e+02  -1.962670e+02
  -8.647861e+01  -2.737486e+02
   9.297994e+01  -1.329357e+02
   1.948626e+02   3.612534e+00
   5.099973e+01   1.673025e+01
  -3.677487e+01  -1.589048e+01
  -3.486766e+01  -1.214300e+02
   1.180713e+02  -1.049990e+02
   1.585661e+02   1.356439e+01
   7.726777e+01   5.504560e+01
  -8.564342e+01   4.923774e+01
  -1.009233e+02  -8.729077e+01
   9.350128e+01  -1.232183e+02
   2.420404e+02  -9.622906e+00
   3.014690e+02   1.211359e+02
   7.556032e+01   2.575948e+02
  -1.701895e+02   2.944419e+02
  -2.809400e+02   1.393168e+02
  -1.959636e+02  -5.143119e+01
   1.637658e+01  -1.043005e+02
   4.906169e+01   2.190759e+01
   6.013674e+00   7.310364e+01
  -1.547731e+02   4.910616e+01
  -2.510799e+02  -4.458264e+01
  -7.097274e+01  -2.431884e+02
   1.016161e+02  -1.256718e+02
   1.497426e+02  -6.614046e+01
   3.549360e+01   3.531052e+01
  -5.025888e+01   1.759125e+01
  -6.612184e+01  -5.985197e+01
   4.509224e+01  -1.063264e+02
   1.727230e+02  -4.868152e+01
   1.972870e+02   1.133500e+02
   1.133771e+01   2.266187e+02
  -1.765849e+02   1.883816e+02
  -1.898099e+02   2.346511e+01
  -7.322063e+01  -1.364407e+02
   2.224307e+01  -9.083238e+01
   1.178740e+02  -7.536754e+00
   4.848379e+01   5.986040e+01
  -1.994789e+01   2.660914e+01
   4.227756e+00  -1.332925e+01
   8.471007e+01  -1.277832e+01
   9.853329e+01   1.251714e+02
   3.761121e+01   1.467858e+02
  -9.049096e+01   2.003598e+02
  -2.377695e+02   3.582500e+01
  -2.199625e+02  -1.535575e+02
  -1.834069e+01  -2.465027e+02
   8.978062e+01  -1.881974e+02
   1.413397e+02  -2.927343e+01
   1.544411e+01   3.956265e+01
   3.058065e+01   2.332372e+01
   3.759184e+00  -3.205474e+01
   2.510455e+01   3.360105e+00
   2.766929e+01   2.232885e+01
  -3.002661e+01   1.073681e+02
  -2.965819e+01   3.977697e+01
  -1.083068e+02   1.165905e+01
   1.898642e+01  -1.393830e+02
   1.372038e+02  -1.274452e+02
   2.011724e+02   8.301722e+01
   1.492281e+02   1.433794e+02
  -7.143405e+01   2.951475e+02
  -2.171582e+02   1.312011e+02
  -2.337993e+02  -7.281455e+01
  -1.604825e+02  -1.745927e+02
   3.238559e+00  -1.343440e+02
   9.134151e+01  -9.183926e+01
   5.417224e+01  -8.537981e+01
   4.491099e+01  -1.151733e+02
   9.389550e+01  -6.749966e+01
   9.829675e+01   9.430757e+00
   9.920239e+01   1.404953e+02
   1.709099e+01   2.372417e+02
  -1.051332e+02   1.647126e+02
  -1.453680e+02  -2.088591e+01
  -1.531750e+02  -1.161930e+02
  -4.290520e+01  -1.226478e+02
   4.837940e+01  -8.548634e+01
   4.023495e+01  -9.153885e+00
   1.377992e+01   1.942621e+01
   1.307026e+01   8.134708e+01
   3.418878e+01   4.502020e+01
   7.607320e+01   3.695500e+01
   3.727461e+01   1.743553e+01
  -6.605517e+01   5.901520e+01
  -1.296687e+02   5.233229e+01
  -1.192642e+02  -2.643852e+01
   2.160613e+00  -8.249157e+01
   7.885453e+01  -8.077716e+01
   1.203256e+02  -2.469141e+01
   4.021256e+01   4.305573e+01
  -6.012880e+01   3.024411e+01
  -7.913199e+01   1.832466e+01
  -1.994492e+00  -3.377617e+01
   7.602629e+01  -3.527408e+01
   3.611392e+01   1.418944e+01
   4.205660e+01   7.182521e+01
   4.896928e+01   8.146828e+00
   1.416174e+01   3.006865e+01
   6.738591e+01  -3.317650e+01
   1.541155e+01   6.416429e+01
   2.377080e-01   1.154510e+02
  -9.352274e+01   1.859365e+02
  -1.579498e+02   9.186822e+00
  -1.592852e+02  -6.481333e+01
  -6.054004e+00  -1.073292e+02
   5.370452e+01  -8.242017e+01
   2.683476e+01  -5.532885e+00
  -5.162732e+01  -3.880085e+01
  -1.253822e+02  -5.455785e+01
  -7.789978e+01  -8.560634e+01
   4.909143e+01  -8.442076e+01
   1.894603e+02  -5.116787e+01
   1.551240e+02   3.781544e+01
   5.588325e+01   9.364753e+01
  -7.110570e+01   4.530829e+01
  -7.654627e+01   5.287616e+01
   4.877299e+01  -2.746716e+01
   8.134593e+01   2.969598e+01
   2.537359e+01   1.396548e+02
  -9.052587e+01   1.516892e+02
  -1.313609e+02   8.864181e+01
  -1.330763e+02  -7.203905e+01
  -3.219732e+01  -2.017656e+02
   4.504526e+01  -1.439016e+02
   1.028883e+02  -4.007100e+01
   1.090504e+02   7.668308e+01
  -1.645714e+00   7.650789e+01
  -4.582879e+01   2.264410e+01
  -8.666162e+01  -4.203003e+01
  -4.134935e+01  -4.529532e+01
   1.193522e+01   2.420291e+01
  -4.120680e+01  -9.779547e+00
  -9.622443e+01  -8.137412e+01
  -3.226264e+01  -1.047974e+02
   3.355032e+01  -4.674266e+01
   8.277828e+01   5.504607e+01
   1.338457e+02   5.780356e+01
   1.590844e+01   5.793889e+01
  -8.666150e+01   4.155971e+01
  -1.038828e+02   8.487071e+00
   2.676816e+00  -5.846012e+00
   8.348872e+00   1.448756e+01
   2.781357e+01  -4.179449e+01
  -1.596936e+01   7.196349e-01
  -4.507499e+01   1.871571e+00
   2.605158e+01   5.183117e+01
   9.848235e+01   6.548280e+01
   2.376350e+00   8.391090e+01
  -6.801448e+01   1.229115e+02
  -1.687789e+02   9.227510e+01
  -1.457111e+02  -6.686062e+01
  -1.009680e+01  -1.789182e+02
   3.316208e+01  -1.186703e+02
   1.247819e+02  -6.830020e+01
   7.224861e+01  -2.730112e+01
   3.503429e+01   2.463457e+01
   3.657447e+00   1.683143e+01
  -3.265290e+01  -1.594550e+01
   5.842072e+01   7.258923e+01
   4.982818e+01   8.671587e+01
  -1.413857e+01   6.102957e+01
  -4.427872e+01   5.640927e+00
  -8.821328e+01  -8.342468e+01
  -1.100928e+00  -1.425574e+02
   8.718397e+01   2.748625e+00
   1.252501e+02   6.607490e+01
   1.900621e+01   1.017282e+02
  -1.019372e+02   3.712749e+01
  -8.956471e+01   2.926101e+01
  -4.063812e+01  -3.184708e+01
   2.325011e+01  -5.740546e+01
   3.481814e+01  -1.180979e+01
   3.493068e+01  -5.133243e+01
  -7.422508e+01   2.579420e+00
  -3.981849e+01  -1.623988e+01
   3.560685e+01  -4.530202e+01
   1.053222e+02  -4.367858e+01
   5.091329e+01   2.636664e+01
  -4.188391e+01   8.244504e+01
  -1.128152e+02   3.844102e+01
  -8.557467e+01   2.475792e+01
  -5.964816e+01  -7.965225e+01
   2.272118e+00  -2.356595e+01
   8.552265e+01   2.241962e+01
   9.723743e-01   7.128560e+01
   1.404707e+01   2.127515e+01
  -4.962967e+01   4.271486e+00
  -4.919956e+01   1.598698e+01
  -1.713515e+01  -6.587654e+00
  -4.514409e+01   2.727395e+00
  -1.753044e+00   3.923795e+01
   2.579508e+01  -4.736867e+01
   2.571529e+00  -4.907141e+01
  -8.267546e-01   1.617337e+01
   5.407920e+01   1.418695e+01
   1.372658e+01   5.723127e+01
  -5.436708e+01  -2.262791e+01
  -8.269146e+01  -2.525245e+01
   1.257360e+01  -6.989981e+01
   4.374965e+01  -3.159438e+01
   7.407896e+01  -1.385206e+01
   2.698421e+01   2.528656e+01
   2.822400e+00   6.413556e+01
  -9.785455e+01   3.677585e+01
  -1.879769e+01  -3.502083e-01
   4.652734e+01  -4.918420e+00
   5.014992e+01  -2.122831e+01
  -3.384422e+01   2.713464e+01
  -6.855237e+01   2.041373e+01
