
 $NMID
 id='ANONYMOUS ', fmtdat='(2E16.6)'
 volume=1.0
 tramp=1.0
 $END
  -3.777743e+03   5.375899e+02
  -2.539519e+03  -1.659667e+03
  -1.128614e+01  -2.054780e+03
   1.340668e+03  -1.242027e+03
   1.045714e+03   1.367543e+02
  -1.914384e+02   3.316421e+02
  -6.115699e+02  -2.079307e+01
   3.401056e+01  -4.949573e+02
   5.728307e+02  -6.976956e+02
   7.702600e+02  -1.680750e+02
   3.976002e+02   4.690230e+02
  -2.579929e+01   8.040619e+02
  -2.860833e+02   1.023321e+02
  -3.109225e+02  -6.021156e+02
  -1.793142e+01  -6.181491e+02
   4.443042e+02  -9.026045e+01
   2.694245e+02   5.568794e+02
  -2.766284e+02   4.830074e+02
  -4.336641e+02   1.522700e+02
  -3.894537e+02  -1.861254e+02
  -1.167628e+02  -4.184163e+02
   9.483207e+01  -2.591302e+02
   2.402666e+02  -5.204500e+01
  -1.422879e+02  -5.946426e+00
  -3.703961e+02  -1.523557e+02
  -1.350415e+02  -3.900163e+02
   3.850441e+02  -2.511649e+02
   6.444307e+02   1.531214e+02
   3.146200e+02   3.519351e+02
  -3.168591e+02   2.833912e+02
  -5.893670e+02  -3.098501e+01
  -2.348687e+02  -3.332575e+02
   1.553281e+02  -4.464825e+02
   4.523628e+02  -2.665138e+02
   3.327581e+02   1.388657e+02
   7.666746e+01   2.812782e+02
  -9.983070e+01   1.670155e+02
  -1.341489e+02  -2.081223e+02
   1.617741e+02  -3.016144e+02
   3.174081e+02   6.948659e+01
   1.543995e+02   4.775261e+02
  -2.570333e+02   5.319542e+02
  -3.403521e+02   4.892497e+01
  -1.910456e+02  -3.935165e+02
   1.450903e+02  -1.552782e+02
   2.733333e+02   2.433372e+02
  -1.245400e+02   4.650221e+02
  -4.128591e+02   4.190149e+01
  -5.722246e+02  -3.271386e+02
  -1.927227e+02  -4.678936e+02
   2.494052e+02  -3.696669e+02
   4.870470e+02   5.446324e+01
   3.395646e+02   2.469683e+02
   2.444386e+01   3.037241e+02
  -4.047868e+02   1.557398e+02
  -1.919230e+02  -2.921062e+01
   1.052741e+02  -3.919558e+01
   6.050556e+01   6.843471e+01
  -1.254830e+02   9.141825e+01
  -3.012923e+02  -3.325096e+01
  -1.595017e+02  -1.845495e+02
   1.091509e+02  -2.154029e+02
   2.688558e+02  -9.560261e+01
   1.983941e+02   9.460684e+01
  -6.165921e+00   2.152930e+02
  -1.930107e+02   3.265597e+02
  -2.915588e+02   2.568658e+02
  -2.483317e+02  -1.592814e+02
  -1.056693e+02  -3.671238e+02
   1.047181e+01  -2.825220e+02
   6.039914e+01  -1.140325e+02
   4.615987e+00  -4.448298e+01
   5.636322e+01  -2.808354e+01
   1.719194e+02  -8.068528e+01
   2.211374e+02   4.841672e+01
   1.877450e+02   2.600262e+02
   1.434183e+01   2.341407e+02
  -1.892324e+02   8.235680e+01
  -1.656402e+02  -1.826520e+02
  -5.052772e+00  -3.130205e+02
   2.693529e+02  -5.660394e+01
   3.053582e+02   7.983999e+01
   1.617522e+02   2.704369e+02
  -3.348852e+00   2.921299e+02
  -2.146718e+02   1.608547e+02
  -1.198865e+02   2.261025e+01
  -1.503392e+02   4.212448e+01
  -2.121545e+02   5.519112e+01
  -3.573667e+02  -7.402798e+01
  -3.087043e+02  -2.530787e+02
  -7.493450e+01  -3.978857e+02
   3.358060e+02  -2.814253e+02
   3.570299e+02  -1.964343e+02
   2.886918e+02   1.163705e+02
   1.106296e+02   2.806194e+02
  -8.401340e+01   2.226569e+02
  -8.655024e+01  -1.181855e+01
   1.234411e+02  -6.004691e+01
   1.799738e+02  -3.552538e+00
   2.937943e+01   1.988508e+02
  -1.016811e+02   1.364028e+02
  -1.236840e+02  -1.345691e+01
   4.349747e+01  -1.505042e+02
   1.837088e+02  -2.686684e+01
   1.361371e+02   2.191805e+02
   3.787470e+01   3.362826e+02
  -1.437663e+02   1.883685e+02
  -3.164154e+02  -1.967962e+01
  -2.103906e+02  -1.661323e+02
  -1.056618e+02  -2.391190e+02
   6.570737e+01  -1.446070e+02
   9.196958e+01   2.566525e+01
   3.216408e+01  -2.028155e+00
  -7.772587e+01   4.678443e+00
  -1.270792e+01  -8.933974e+01
   1.133886e+02  -8.604498e+01
   1.487988e+02  -2.874548e+01
   3.039567e+00   8.155657e+01
  -1.283913e+02  -1.513925e+01
  -3.416080e+01  -1.855963e+01
   1.234622e+02  -1.392536e+02
   2.825799e+02   7.636297e+00
   3.103096e+02   6.582962e+01
   7.243003e+01   3.009379e+02
  -9.622645e+01   2.948036e+02
  -2.250825e+02   1.449426e+02
  -1.565470e+02  -7.030072e+01
   5.715771e-01  -1.008793e+02
   2.249250e+01   1.749792e+00
  -2.014750e+01   1.233325e+02
  -1.461212e+02   1.647134e+01
  -1.894581e+02  -7.130636e+01
  -7.425604e+01  -2.028790e+02
   1.240206e+02  -1.252774e+02
   1.091234e+02  -3.672635e+01
   8.457246e+01   4.136887e+01
  -1.943059e+01  -1.973876e+01
  -4.150521e+01  -9.359173e+01
   8.197821e+01  -7.539318e+01
   1.964704e+02  -2.994067e+01
   1.635937e+02   7.781918e+01
   8.073237e+00   1.923348e+02
  -1.192345e+02   1.471698e+02
  -1.555683e+02   1.006003e+00
  -6.696934e+01  -9.119388e+01
   6.587630e+01  -7.904284e+01
   9.162187e+01  -5.417723e+00
   6.101022e+00   4.502384e+01
  -2.105095e+01  -5.724652e+01
   1.123551e+00   1.119934e+01
   1.089240e+02  -1.707817e+01
   1.305779e+02   8.987223e+01
  -9.550610e+00   1.679774e+02
  -6.338352e+01   1.727845e+02
  -2.537886e+02   3.066098e+01
  -1.708043e+02  -1.165996e+02
  -7.883868e+01  -2.121216e+02
   6.520326e+01  -2.066416e+02
   1.101098e+02  -2.814857e+01
   4.466239e+01   4.292908e+01
   5.440459e+00   1.407390e+01
   3.422580e+01   2.537936e+00
   2.210571e+01   1.629149e+00
   6.684598e+01   3.727823e+01
   1.767152e+01   6.848102e+01
  -5.147947e+01   6.072859e+01
  -1.429828e+02  -3.342891e+01
  -4.863055e-01  -8.823661e+01
   1.065896e+02  -1.098793e+02
   1.714697e+02   7.215719e+01
   7.849365e+01   1.718084e+02
  -8.178765e+01   2.025493e+02
  -2.387384e+02   1.079429e+02
  -1.776999e+02  -9.742736e+01
  -9.163683e+01  -1.663731e+02
   1.796963e+01  -1.296353e+02
   7.498854e+01  -9.386281e+01
   1.049608e+02  -6.686597e+01
   2.885505e+01  -9.527620e+01
   7.571065e+01  -9.526789e+01
   1.349930e+02   1.896347e+01
   1.127396e+02   1.317863e+02
   1.646084e+01   1.554147e+02
  -4.937618e+01   1.101264e+02
  -1.449854e+02   9.557255e+01
  -1.782364e+02  -7.253479e+01
  -3.655623e+01  -1.415609e+02
   4.954301e+01  -9.191884e+01
   8.280984e+01   1.030808e+01
  -4.540762e+01   7.948558e+01
  -1.772702e+01   1.066350e+01
   1.797879e+01   4.121680e+01
   1.095812e+02   6.126206e+01
   6.373403e+01   3.676608e+01
  -5.713633e+01   5.292320e+01
  -1.662504e+02   1.850387e+01
  -1.401960e+02  -9.222068e+01
  -3.677969e+01  -1.008872e+02
   7.985545e+01  -4.854069e+01
   1.192331e+02  -1.697416e+01
   4.430989e+01   4.603496e+01
  -4.581010e+01   1.716666e+01
  -7.075112e+01  -1.656199e+01
   8.330315e+00  -5.700696e+01
   4.697796e+01  -4.365160e+01
   3.531420e+01   1.627642e+01
   4.344662e+01   1.503795e+01
   4.731703e+01   2.018347e+01
   6.293738e+01  -1.985825e+01
   3.356574e+01  -4.508551e+00
   5.381945e+01   5.061638e+01
  -5.228739e+01   1.755881e+02
  -9.862233e+01   1.483216e+02
  -1.590304e+02  -5.329618e+00
  -1.084504e+02  -5.262355e+01
  -6.009493e+00  -7.854710e+01
   7.129139e+01  -3.389454e+01
   1.783337e+01  -3.296730e+01
  -2.788398e+01   1.176405e+01
  -8.938050e+01  -2.345921e+01
  -1.118027e+02  -7.939045e+01
   7.498082e+01  -5.624474e+01
   1.862407e+02  -7.037711e+01
   5.498273e+01   6.586644e+01
   3.005993e+01   7.054709e+01
  -8.360986e+01   5.528968e+01
  -5.399106e+01   1.979398e+01
   5.286365e+01  -7.186377e+01
   9.723732e+01  -1.791695e+01
   4.648692e+01   1.204087e+02
  -5.599025e+01   5.089832e+01
  -1.730481e+02   7.021062e+01
  -1.140930e+02  -8.661245e+01
  -1.277104e+01  -2.031407e+02
   6.131781e+01  -7.743487e+01
   1.044108e+02   4.633718e+01
   7.600924e+01   9.294180e+01
  -3.533877e+01   7.403736e+01
  -5.797652e+01   2.405084e+01
  -4.556783e+01  -5.055936e+01
  -2.322276e+01   5.849489e+00
  -1.385314e+01   1.795751e+01
  -3.407955e+01  -2.236067e+01
  -6.806325e+01  -9.548772e+01
  -5.985533e+01  -9.868090e+01
   1.988691e+01  -9.385388e+01
   1.233594e+02   5.099264e+01
   1.441621e+02   2.476161e+01
   2.910659e+00   5.977259e+01
  -7.924207e+01   3.984632e+01
  -5.834055e+01   5.176353e+01
  -3.541371e+01   5.819543e+00
   1.501356e+01  -2.962048e+01
   5.284984e+01   1.933966e+01
   1.188396e+01  -4.743481e+01
  -3.477478e+00   3.186762e+01
   7.926328e+01  -3.454216e+01
   1.063872e+02   2.506389e+01
   1.116580e+01   8.395414e+01
  -1.093404e+02   1.707756e+02
  -1.920348e+02   9.213458e+01
  -1.330325e+02  -5.036349e+01
  -4.265097e+01  -1.462129e+02
   5.094306e+01  -1.139620e+02
   9.698084e+01  -9.947929e+01
   4.847163e+01   1.545468e+01
   1.611853e+01   2.934057e+01
   1.706454e+01   2.342952e+00
   1.704449e+00   8.564537e+00
   5.693815e+01   4.845586e+01
   8.828939e+00   7.613414e+01
   1.325367e+01   6.802968e+01
  -8.078788e+01  -1.963341e+01
  -1.243890e+02  -9.107442e+01
  -1.028020e+01  -6.152496e+01
   8.393814e+01  -5.451566e+01
   1.152508e+02   4.841337e+01
   3.464280e+01   1.132409e+02
  -4.872046e+01  -7.837544e+00
  -9.913029e+01   5.251205e+01
  -8.505707e+01  -2.653969e+01
  -1.747117e-01  -4.784588e+01
   4.796248e+01  -1.688708e+01
   3.776199e+00   3.366489e+01
  -8.305335e+01   2.701675e+01
  -6.358060e+00  -1.376280e+01
   5.258185e+01  -3.618639e+01
   7.847398e+01  -6.056766e+01
   1.086585e+02   2.115929e+01
  -1.290587e+01   1.026952e+02
  -3.428264e+01   8.460426e+01
  -5.786450e+01   2.529646e+01
   2.192252e+01  -3.576089e+01
   3.834689e+01  -2.084591e+01
   1.988065e+01  -1.380028e+01
   4.408660e+01   3.295841e+01
   1.043843e+01   9.691618e+00
  -4.678714e+01   8.120258e+00
  -5.066837e+01  -6.663052e+01
   5.602374e+00   3.640074e+00
  -1.536511e+01   3.491038e+01
   3.177296e+01   8.518703e+00
  -3.734824e+01  -6.438701e+01
   3.835324e+01   4.007194e+00
   1.077928e+01  -5.129311e-01
   1.029533e+00   4.026511e+01
   2.545856e+01   8.239330e+01
  -1.372777e+01   4.943758e+01
  -7.014746e+01  -2.117089e+01
  -5.689756e+01  -6.396657e+01
   2.905366e+01  -2.106833e+00
   7.544257e+01   2.427175e+01
   2.421315e+01   5.347028e+01
   1.192294e+01   9.230877e+01
  -5.709622e+01   1.392628e+01
  -5.235315e+01   9.131360e+00
   5.328872e+01  -1.504948e+01
   1.845834e+01  -1.419159e+01
  -2.042721e+01   3.720197e+01
  -7.277046e+01   1.793591e+01
