
 $NMID
 id='ANONYMOUS ', fmtdat='(2E16.6)'
 volume=1.0
 tramp=1.0
 $END
   3.892713e+03   2.030348e+01
   2.171190e+03   1.954387e+03
   2.087704e+02   2.088270e+03
  -1.630170e+03   1.054404e+03
  -9.862492e+02   8.450411e+01
  -2.711509e+01  -1.262713e+02
   3.489121e+02   1.718751e+02
   1.140903e+02   3.939799e+02
  -4.710312e+02   6.452615e+02
  -6.759339e+02   1.692492e+01
  -3.210677e+02  -5.111799e+02
   1.500244e+01  -6.960534e+02
   1.635835e+02  -1.859014e+02
   2.369861e+02   5.675364e+02
  -1.498777e+02   6.324541e+02
  -4.869960e+02   9.345678e+01
  -3.047548e+02  -5.761571e+02
   1.079342e+02  -6.255419e+02
   4.594128e+02  -2.831620e+02
   5.171585e+02   2.800987e+02
   5.038241e+01   3.898270e+02
  -1.451720e+02   2.644731e+02
  -8.049054e+01   6.315614e+01
   1.457930e+02   1.128549e+02
   2.861978e+02   3.657483e+02
  -1.204440e+00   3.708272e+02
  -5.257085e+02   1.767925e+02
  -5.516837e+02  -1.803767e+02
  -2.494547e+02  -3.488265e+02
   3.260155e+02  -1.817734e+02
   4.408387e+02   2.504574e+02
   2.192725e+02   4.049851e+02
  -3.283024e+02   2.753014e+02
  -5.047370e+02   1.040667e+02
  -2.815596e+02  -1.743696e+02
  -6.187706e+01  -2.452023e+02
   7.312708e+01  -1.677837e+02
  -1.733132e+01   7.297283e+01
  -2.706940e+02   2.358129e+02
  -1.377999e+02  -1.700757e+02
   1.728960e+01  -5.005487e+02
   1.973346e+02  -2.923490e+02
   2.309772e+02   3.614905e+01
   1.229126e+02   2.024498e+02
  -1.906891e+02   1.256675e+02
  -1.897425e+02  -2.064885e+02
   1.721698e+02  -5.189268e+02
   3.633051e+02  -3.210519e+01
   4.847467e+02   3.540644e+02
   8.089380e+01   4.567736e+02
  -3.169720e+02   2.707594e+02
  -4.397485e+02  -5.610368e+01
  -3.549281e+02  -2.499678e+02
   7.588442e+01  -2.527075e+02
   3.728393e+02  -8.361618e+01
   2.363682e+02   6.068630e+01
   6.919240e+01   2.371287e+00
  -1.210846e+01  -6.843019e+01
   1.000832e+02  -7.095825e+01
   1.883616e+02   7.209357e+01
   1.737618e+02   2.187667e+02
  -1.985590e+02   2.743467e+02
  -3.124602e+02   1.176532e+02
  -1.999570e+02  -9.123106e+01
   3.439937e+01  -3.489866e+02
   2.804123e+02  -3.197048e+02
   3.565677e+02  -1.428070e+02
   2.003456e+02   1.358508e+02
   5.988727e+01   3.369394e+02
  -9.291877e+01   3.036588e+02
  -1.529741e+01   1.906095e+02
  -2.620933e+01   7.895731e+01
  -8.897593e+01   9.026671e+01
  -2.502632e+02   6.370994e+01
  -1.769043e+02  -1.585777e+02
  -9.708012e+01  -2.620957e+02
   9.485773e+01  -1.815551e+02
   2.201699e+02   5.900674e+01
   1.341216e+02   2.045835e+02
  -7.912340e+01   2.743079e+02
  -2.378398e+02   3.093532e+01
  -2.677239e+02  -1.568744e+02
  -1.252583e+02  -2.967381e+02
   5.719259e+01  -3.075045e+02
   1.599566e+02  -1.167940e+02
   1.277598e+02  -5.115845e+01
   1.665528e+02  -5.338668e+01
   3.205707e+02  -4.370169e+01
   4.113881e+02   1.340653e+02
   3.190787e+02   2.523692e+02
  -4.804341e+01   3.712858e+02
  -3.603907e+02   3.469979e+02
  -5.025196e+02   1.752590e+02
  -3.668500e+02  -8.458371e+01
  -1.695201e+00  -2.697732e+02
   1.031725e+02  -1.714833e+02
   9.945340e+00  -3.488108e+01
  -1.007932e+02   2.541566e+01
  -1.619469e+02  -3.848500e+01
   1.576288e+01  -1.599420e+02
   1.308925e+02  -1.120069e+02
   1.209313e+02   5.036818e+01
  -1.945062e+01   1.611657e+02
  -1.466584e+02  -1.289249e+01
  -9.221010e+01  -2.110771e+02
  -7.797241e+00  -3.524559e+02
   2.410690e+02  -1.555424e+02
   3.280816e+02   1.000160e+02
   2.495263e+02   2.664635e+02
   6.718833e+01   2.048516e+02
  -1.164776e+02   1.341000e+02
  -1.527896e+02   4.203584e-03
  -4.437317e+01  -1.547141e+01
   7.203822e+01   5.016691e+01
   1.401717e+01   7.629569e+01
  -1.505087e+02   9.138019e+01
  -1.282479e+02  -3.418827e+01
   1.146682e+00  -7.136963e+01
   1.371632e+02   4.229605e+01
   6.669019e+01   9.019757e+01
  -9.484412e+01   4.433808e+01
  -2.371980e+02  -7.059140e+01
  -2.653567e+02  -2.177052e+02
  -9.976331e-01  -2.716075e+02
   2.350798e+02  -2.124152e+02
   3.199289e+02  -7.352686e+01
   1.540189e+02   3.439549e+01
   1.924491e+00   1.094946e+02
  -5.182804e+01   4.664248e+00
   1.462797e+01  -1.087875e+02
   1.570288e+02  -2.249856e+01
   2.538373e+02   1.361909e+02
   3.481120e+01   1.783743e+02
  -1.166299e+02   1.264268e+02
  -1.062420e+02   2.603931e+01
  -8.971270e+01  -9.131652e+00
   6.295136e+01   2.958802e+01
  -1.030291e+01   8.560880e+01
  -7.930202e+01   1.496372e+02
  -1.773464e+02   4.955044e+00
  -1.477412e+02  -1.647980e+02
  -6.731066e+01  -1.950185e+02
   1.979112e+02  -1.937885e+02
   1.123536e+02  -2.298884e+01
   1.821196e+01   7.571614e+01
  -8.839923e+01   6.256074e+01
  -7.311232e+01  -2.116976e-01
   3.321339e+01  -3.411554e+01
   4.180513e+01  -6.533091e+00
  -7.768226e+00  -1.284075e+01
  -8.520870e+01   4.751354e+00
  -1.165814e+02  -1.310536e+02
   2.210982e+01  -1.586688e+02
   9.698700e+01  -1.644581e+02
   2.463278e+02   3.841308e+01
   1.705840e+02   1.872700e+02
   3.019868e+01   2.496033e+02
  -1.136417e+02   1.590599e+02
  -1.616797e+02   6.733980e+01
  -3.028621e+01  -5.755586e+01
  -5.218882e+01  -1.359070e+01
  -6.535788e+01   2.249778e+01
  -6.364791e+01  -1.292063e+01
  -5.406932e+01  -5.015260e+01
   2.275743e+01  -5.351414e+01
   8.796829e+01  -8.080308e+01
   1.337543e+02   1.020063e+02
   2.297340e+01   1.198225e+02
  -1.867726e+02   6.012827e+01
  -1.694634e+02  -6.097679e+01
  -5.402327e+01  -1.799142e+02
   1.602133e+02  -2.449268e+02
   2.201950e+02  -5.685207e+01
   2.422827e+02   1.073531e+02
   1.129767e+02   1.710280e+02
  -6.485080e+01   1.006693e+02
  -6.248354e+01   2.269712e+01
  -9.691130e+01   1.181710e+02
  -1.242763e+02   7.783332e+01
  -8.221518e+01   3.457453e+01
  -1.140614e+02  -4.059717e+01
  -1.259082e+02  -1.538334e+02
  -4.466971e+01  -2.038631e+02
   1.176629e+02  -1.081155e+02
   1.574954e+02   6.917565e+00
   1.081705e+02   1.195186e+02
   9.289174e+00   1.575233e+02
  -9.131914e+01   2.688259e+01
  -3.917109e+01  -2.563007e+01
   1.414201e+01  -4.038871e+01
   2.926928e+01   1.364068e+01
  -4.499858e+01  -2.942688e+01
  -8.432261e+01   1.276941e+01
   1.128116e+01  -6.820987e+01
   7.989525e+01  -5.848766e+00
   1.408894e+02   6.518089e+00
   9.654488e+01   6.243641e+01
  -1.968797e+01   5.814445e+01
  -1.357379e+02   5.693826e+01
  -1.893573e+02  -1.921639e+01
  -7.495331e+01  -5.311470e+01
   4.321016e+01  -2.103495e+01
   8.338363e+01   6.817301e+01
  -5.067096e+00   3.783819e+01
  -6.382549e+01   3.699694e+01
  -7.759216e+01  -3.147575e+01
  -8.438949e+01  -8.905042e+01
  -3.766660e+01  -5.648351e+01
  -1.812686e+01   1.122725e+00
  -9.441083e+01   1.655181e+01
  -1.843593e+01  -1.305151e+02
   7.050079e+01  -1.909077e+02
   1.492673e+02  -1.851475e+02
   1.500131e+02  -2.892393e+01
   9.960893e+01   7.344529e+01
  -7.565910e+00   1.605452e+02
  -6.701006e+01   7.790805e+01
  -5.307588e+01  -3.806828e+01
   6.398625e+01   1.228876e+01
   1.072863e+02   5.315810e+01
   9.563277e+01   1.177191e+02
  -8.990185e+01   7.419837e+01
  -1.405786e+02  -1.996381e+00
  -7.277938e+01  -9.176072e+01
  -5.194219e+01  -1.013385e+02
   8.009691e+01  -8.319586e+01
   8.029011e+01   1.431241e+01
  -2.494911e+01   5.542130e+01
  -8.712007e+01  -7.911239e+00
  -2.700167e+01  -1.592161e+02
   1.077462e+02  -1.329895e+02
   1.476259e+02  -3.036280e+01
   1.020475e+02   9.388322e+01
   4.535293e+00   2.130588e+02
  -8.945435e+01   1.265736e+02
  -1.112603e+02  -1.159914e+01
  -1.004443e+02  -1.623471e+02
   1.692303e+01  -6.560913e+01
   4.753605e+01  -9.925692e+00
   5.135912e+01   4.515143e+01
  -6.535971e-02  -2.086006e+01
  -4.745628e+01  -2.780430e+01
   3.750193e+01   1.672648e+01
   2.383389e+00   1.350391e+02
   1.753980e+01   1.488757e+02
  -1.020337e+02   6.597393e+01
  -1.378445e+02  -5.730496e+01
  -1.076756e+02  -1.078420e+02
  -1.836354e+01  -8.146613e+01
   8.560351e+01  -2.145461e+01
   1.005236e+02   9.270171e+00
   8.456376e+00   2.528517e+01
  -7.131452e+01   4.266612e+00
  -1.281656e+01   1.269791e+01
  -2.955243e+01  -2.632994e+01
   3.021014e+01   2.131162e+01
  -5.794959e+01   5.474294e+00
  -6.882080e+01  -1.209679e+01
  -6.733778e+01  -7.358164e+01
   1.103154e+02  -1.250233e+02
   1.546178e+02  -1.590315e+01
   1.244906e+02   1.103240e+02
   5.313868e+01   1.647569e+02
  -5.716931e+01   1.388468e+02
  -9.288362e+01   6.465115e+01
  -9.161560e+01   8.231288e-01
  -5.188189e+01  -2.968457e+01
   4.381913e+01  -2.949131e+01
  -1.265235e+01  -2.733870e+01
  -6.968958e+01  -5.930066e+01
  -6.059339e-01  -1.084631e+02
   1.296564e+01  -8.703433e+01
   8.189945e+01   1.406225e+01
   1.030372e+02   9.891150e+01
   2.946601e+01   9.470891e+01
  -4.531851e+01   1.314034e+01
  -8.870598e+01  -5.194350e+01
  -3.899914e+01  -1.235440e+02
   9.419717e+01  -5.183751e+01
   1.613683e+02   1.429777e+01
   3.227147e+01   3.084328e+01
  -4.584344e+01   4.601654e+01
  -2.856499e+01  -1.689618e+01
   5.152255e+01  -1.204008e-01
   4.270897e+01   3.409353e+00
  -8.028578e+00   1.236803e+01
  -9.178904e+01   5.086973e+01
  -1.658855e+02   4.343603e+01
  -8.073702e+01  -3.652505e+01
   1.216313e+01  -9.890999e+01
   6.180960e+01  -4.949955e+01
   6.063227e+01  -2.636553e+00
  -1.805501e+01   7.826055e+01
  -4.810911e+00   4.734023e+01
  -4.405753e+01  -1.000889e+01
  -5.395419e+00  -4.996710e+01
   2.723722e+01  -4.928637e+01
   5.687785e+01   2.397530e+01
   7.033228e+01   7.650980e+00
  -1.683606e+01  -4.627171e+00
   8.417755e+00   2.892318e+01
  -1.314619e+00  -2.883063e+01
  -1.878662e+01  -1.222713e+01
   6.492616e+00   8.475819e+01
  -2.755033e+01   1.948883e+01
  -3.021030e+01   8.229693e+00
  -5.383640e+00  -8.692524e+01
   7.106072e+01  -4.012328e+00
   2.947322e+01   5.383394e+01
   3.715441e+01   9.406855e+01
  -3.055008e+01   3.509431e+01
  -1.218017e+02  -1.956939e+01
  -6.361589e+01  -3.637039e+00
   3.674085e+01  -2.540597e+01
   6.778679e+01  -3.974165e+01
   3.832928e+01  -4.898169e+00
   4.742401e+00   1.249105e+01
  -5.745653e+01  -6.088169e+00
   3.287944e+01   2.369493e+01
   1.004350e+02  -8.203346e+00
