
 $NMID
 id='ANONYMOUS ', fmtdat='(2E16.6)'
 volume=1.0
 tramp=1.0
 $END
  -3.897628e+03  -2.850291e+01
  -2.104294e+03  -1.613331e+03
  -6.235654e+01  -1.818082e+03
   1.402060e+03  -1.341292e+03
   1.105899e+03  -5.466951e+01
   9.583239e+01   1.851234e+02
  -5.042308e+02  -2.336689e+02
   2.699667e+01  -4.678064e+02
   5.902571e+02  -7.114395e+02
   6.808241e+02  -1.521625e+02
   4.045928e+02   3.540235e+02
  -1.134310e+02   8.056621e+02
  -2.624006e+02   2.394488e+02
  -3.319614e+02  -5.215250e+02
   1.645915e+02  -6.301394e+02
   4.528917e+02  -1.099710e+02
   1.971381e+02   4.657020e+02
  -8.138347e+01   5.568008e+02
  -4.891292e+02   1.854661e+02
  -4.304204e+02  -2.111477e+02
  -1.633890e+02  -3.708670e+02
   1.501456e+02  -3.143154e+02
   1.301359e+02  -9.645262e+01
  -1.755588e+02  -6.541704e+01
  -3.746878e+02  -2.478356e+02
  -4.842220e+01  -4.044442e+02
   4.703378e+02  -1.046393e+02
   5.978274e+02   1.261807e+02
   2.173071e+02   3.072610e+02
  -3.459048e+02   2.858511e+02
  -4.676037e+02  -1.241072e+02
  -1.819031e+02  -4.072359e+02
   2.631293e+02  -4.058188e+02
   5.090759e+02  -1.060489e+02
   3.279412e+02   1.670555e+02
   3.305122e+01   2.964906e+02
  -8.138178e+01   2.336001e+02
   4.804146e+00  -1.401307e+02
   1.270022e+02  -1.786164e+02
   1.918600e+02   9.971491e+01
   2.900379e+01   4.897861e+02
  -3.063154e+02   3.992677e+02
  -3.221013e+02   9.439015e+01
  -1.297656e+02  -2.729812e+02
   1.707156e+02  -1.317835e+02
   2.636976e+02   2.727656e+02
  -8.315487e+01   4.048872e+02
  -4.111481e+02   7.364843e+01
  -5.472467e+02  -4.194566e+02
  -1.638957e+02  -4.496337e+02
   3.847859e+02  -3.025234e+02
   4.692513e+02   8.022943e+01
   2.777359e+02   2.040040e+02
   5.033956e+00   3.183757e+02
  -3.460526e+02   1.022759e+02
  -2.129293e+02  -4.769935e+01
  -6.837463e+01   2.082000e+01
   4.189155e+01   9.124859e+00
  -8.675723e+01   5.593716e+01
  -2.097351e+02  -4.050767e+01
  -6.518856e+01  -2.198165e+02
   1.182066e+02  -2.177869e+02
   2.780501e+02  -5.854595e+01
   2.172763e+02   3.280082e+01
  -1.014767e+01   3.287369e+02
  -2.114778e+02   3.492758e+02
  -3.838858e+02   1.399274e+02
  -2.464885e+02  -1.628572e+02
  -9.240113e+01  -3.951376e+02
   6.046920e+01  -2.934334e+02
   9.961606e+00  -1.364073e+02
   5.103256e+01  -1.204776e+02
   1.261918e+02  -7.332012e+01
   2.419566e+02  -8.321353e+01
   2.737584e+02   1.187039e+02
   7.849120e+01   2.490959e+02
  -6.364612e+01   2.714323e+02
  -2.214690e+02  -2.574722e+01
  -9.479977e+01  -2.015511e+02
   5.413392e+01  -3.005063e+02
   2.377414e+02  -6.282867e+01
   3.036813e+02   1.960963e+02
   1.737259e+02   2.240181e+02
  -4.795276e+01   2.913695e+02
  -1.525397e+02   1.705679e+02
  -1.502277e+02   6.324718e+01
  -1.562210e+02   2.646508e+01
  -2.585380e+02   6.899340e+01
  -4.095392e+02  -7.701609e+01
  -2.934803e+02  -2.348222e+02
  -5.734458e+01  -3.954123e+02
   3.051662e+02  -3.793358e+02
   4.320995e+02  -1.263749e+02
   2.734128e+02   9.577165e+01
   4.329198e+01   2.981359e+02
  -6.251460e+01   1.782450e+02
  -3.361363e+01   1.730934e+01
   1.101408e+02  -4.443972e+01
   1.681807e+02  -6.140786e+00
  -7.461212e+00   1.683699e+02
  -1.195356e+02   1.131312e+02
  -7.488287e+01  -1.068591e+02
   4.809352e+01  -1.808063e+02
   1.809834e+02   1.550109e+01
   1.497676e+02   2.396495e+02
   1.630848e+01   3.553779e+02
  -2.017298e+02   1.806807e+02
  -3.357847e+02  -5.782523e+01
  -2.585076e+02  -2.318705e+02
  -6.843580e+01  -2.810737e+02
   1.217241e+02  -1.353590e+02
   1.291297e+02  -3.547957e+00
   4.074603e+01  -2.000477e+01
  -5.499558e+01  -9.741660e+01
   1.003097e+01  -1.651524e+02
   1.307780e+02  -5.157708e+01
   1.621806e+02   2.596775e+01
   1.617655e+01   7.240314e+01
  -1.045210e+02   1.034877e+01
  -7.440380e+01  -1.104352e+02
   1.721377e+02  -1.039205e+02
   2.646405e+02  -2.122543e-01
   2.523149e+02   1.867652e+02
  -4.341480e-01   2.568433e+02
  -2.102707e+02   2.539533e+02
  -2.137359e+02   1.015196e+02
  -1.510793e+02  -4.233027e+01
   2.656244e+00  -1.059084e+02
   5.484126e+01  -1.170610e+01
  -4.237651e+01   4.368394e+01
  -1.285111e+02   4.582432e+01
  -2.299958e+02  -1.421552e+02
  -3.178944e+01  -1.858756e+02
   8.431326e+01  -1.148277e+02
   1.206353e+02  -1.361716e+01
   5.018687e+01   2.969526e+01
  -4.318335e+01   1.687705e+01
   1.305297e+00  -1.330738e+02
   9.523895e+01  -1.104964e+02
   2.268849e+02  -3.737012e+01
   2.004749e+02   1.747098e+02
   2.993348e+01   1.897644e+02
  -1.589667e+02   1.655797e+02
  -1.151470e+02  -7.672547e-02
  -4.261057e+01  -1.160836e+02
   7.106419e+01  -1.181462e+02
   6.793664e+01   1.377493e+01
  -2.017505e+01   1.129390e+01
  -6.020017e+01   2.740508e+01
  -7.965742e+00  -3.008604e+01
   9.229100e+01  -3.345547e+01
   8.551261e+01   5.487284e+01
   5.517450e+01   1.595011e+02
  -1.101307e+02   1.292070e+02
  -2.300253e+02   1.415747e+00
  -2.184053e+02  -1.722790e+02
  -4.966095e+01  -2.629671e+02
   1.128359e+02  -1.287672e+02
   9.940013e+01  -3.689561e+01
   6.393479e+01   5.293410e+01
   6.880078e+01   4.750106e+01
   6.571014e+01  -2.602533e+01
   1.107047e+02  -5.720645e+01
   5.169768e+01   4.300699e+01
  -2.978161e+01   1.117626e+02
  -1.328931e+02   7.011224e+01
  -8.271395e+01  -3.374761e+01
   3.753432e+01  -1.096050e+02
   1.100871e+02  -4.397792e+01
   2.011947e+02   5.589038e+01
   1.647651e+02   2.719781e+02
  -9.164841e+01   2.605904e+02
  -1.989743e+02   6.129203e+01
  -2.226540e+02  -9.428205e+01
  -1.230696e+02  -1.344319e+02
   3.239044e+01  -1.373285e+02
   7.372714e+01  -8.387462e+01
   1.037621e+02  -7.175973e+01
   8.566875e+01  -7.865428e+01
   6.134636e+01  -1.228597e+02
   1.058956e+02   2.702139e+01
   1.306074e+02   1.269830e+02
   1.131247e+01   2.109291e+02
  -1.315243e+02   1.008218e+02
  -1.464881e+02   2.351319e+01
  -1.241452e+02  -1.227723e+02
  -7.204723e+00  -1.684614e+02
   6.129702e+01  -8.444026e+01
   7.735435e+01   2.872491e+01
  -2.335237e+01   5.786479e+01
   8.445541e+00   3.891594e+01
   4.395031e+01   1.388259e+01
   7.183393e+01   2.432252e+01
   3.789769e+01   4.222057e+01
  -6.724167e+01  -2.445241e+00
  -1.853815e+02   6.133950e+00
  -1.197265e+02  -4.764273e+01
   1.506411e+01  -9.238326e+01
   1.604306e+02  -3.586979e+01
   1.750797e+02  -3.322816e+01
   2.807361e+01   1.364020e+01
  -1.913313e+01   3.079627e+01
  -1.194407e+02  -3.042481e+01
  -1.533673e+01  -1.087495e+02
   6.333450e+01  -3.359927e+01
   5.166767e+01   9.841175e+00
   8.938546e+01   3.868607e+01
   7.436326e+00   3.551339e+01
   3.289018e+01  -5.160202e+01
   9.169552e+01   1.409079e+01
   7.052695e+01   8.279731e+01
  -3.488153e+01   1.644555e+02
  -1.378366e+02   1.532165e+02
  -1.533426e+02   2.946312e+01
  -1.251651e+02  -1.313399e+02
  -8.151637e+00  -1.440030e+02
   8.718515e+01  -6.132434e+01
   6.764445e+01   2.002621e+01
  -7.786568e+01   1.727496e+01
  -1.318909e+02  -3.738975e+01
  -7.118440e+01  -1.177150e+02
   8.621249e+01  -7.769812e+01
   1.716855e+02  -2.305482e+01
   1.166373e+02   1.370974e+01
   5.936089e+01   6.592347e+01
  -1.069736e+02   9.045736e+01
  -6.373476e+01  -9.914082e+00
   5.457919e+01  -1.618487e+01
   1.022294e+02  -6.843470e+00
   9.532717e+01   1.467192e+02
  -4.277334e+01   1.362050e+02
  -1.415884e+02   1.109687e+02
  -1.259701e+02  -8.446608e+01
  -6.601164e+00  -1.875153e+02
   5.222860e+01  -1.166024e+02
   4.403027e+01   1.171562e+01
   7.619013e+01   1.008595e+02
  -2.345962e+01   8.272229e+01
  -8.765685e+01  -8.805736e+00
  -5.141573e+01  -4.670370e+01
  -1.561433e+01   4.076052e+01
  -5.263072e+01   6.989219e+00
  -2.181972e+01  -3.218240e+01
  -5.787469e+01  -1.005929e+02
  -1.196742e+01  -1.472289e+02
   1.099422e+02  -6.389360e+01
   1.284077e+02   2.123813e+01
   1.325911e+02   5.071071e+01
   2.505073e+01   4.182276e+00
  -8.637110e+01   1.645282e+01
  -8.317444e+01  -1.818717e+01
  -6.426129e+01   3.848454e+01
   3.747584e+01  -3.165120e+01
   2.493324e+01  -1.222955e+01
  -5.072608e+00   1.284012e+01
  -1.564460e-01   2.459636e+01
   7.382156e+01   6.895845e+00
   6.471214e+01   3.128312e+01
   3.630270e+01   5.902124e+01
  -1.331329e+02   1.342281e+02
  -1.762505e+02   7.499865e+01
  -1.657231e+02   8.052608e+00
  -6.451180e+01  -1.788294e+02
   6.281509e+01  -1.623534e+02
   9.092259e+01  -5.598122e+01
   7.749964e+01   2.423372e+01
  -1.747050e+00   2.803035e+01
  -4.142830e+00   2.135911e+01
   2.275058e+01  -1.143583e+01
   4.853928e+01   2.761661e+01
   3.012079e+01   8.446014e+01
  -1.565663e+01   4.162686e+01
  -5.765451e+01  -2.239910e+01
  -1.025463e+02  -7.166048e+01
  -4.681021e+00  -1.016763e+02
   5.888064e+01  -5.551722e+01
   9.242388e+01   4.039677e+01
   3.618065e+01   8.801789e+01
  -8.063369e+01   7.667178e+01
  -6.366156e+01  -1.421007e+01
  -7.095193e+01  -2.974038e+01
   2.820580e+01  -2.588521e+01
   2.620917e+01  -6.421948e+01
  -2.451419e+01   3.174069e+00
  -6.324212e+01  -2.606074e+00
  -5.955808e+01  -3.169672e+01
   8.062349e+01  -8.122944e+01
   1.278514e+02  -9.195086e+01
   9.977970e+01  -2.105855e-01
  -5.243889e+01   1.241173e+02
  -4.099782e+01   6.368239e+01
  -5.650797e+01   6.866036e+00
   1.026554e+01  -1.442227e+01
   7.873897e+00  -2.510224e+01
   5.721482e+01   4.270883e+01
   1.415750e+01   6.823807e+01
   2.402123e+01   5.676584e+01
  -6.670352e+01   1.203910e+01
  -1.135911e+01  -3.706025e+01
  -3.625769e+01  -4.599919e+01
  -7.795976e+00   4.539516e+01
   6.468465e+01  -1.583564e+01
   2.133935e+01  -2.945214e+00
   3.761243e+00  -6.334965e+01
   6.441170e+01  -3.242636e+01
   4.476570e+00   4.980655e+01
   3.306318e+01   5.468569e+01
  -3.006839e+01   3.656545e+01
  -6.384091e+01  -4.773733e+01
  -4.000507e+01  -3.176190e+01
   6.716017e+01  -6.297583e+01
   8.532977e+01  -1.330782e+01
   3.427674e+01   7.214932e+01
  -2.065569e+01  -1.276100e+01
  -4.200763e+01   1.972613e+01
   3.332056e+01   3.782520e+01
   1.398969e+01  -1.417674e+01
   3.708882e+01   3.356637e+01
  -1.766901e+01   2.476931e+01
  -6.130718e+01  -7.398699e+00
