
 $NMID
 id='ANONYMOUS ', fmtdat='(2E16.6)'
 volume=1.0
 tramp=1.0
 $END
  -2.284651e+03   2.802330e+02
  -1.590229e+03  -1.073118e+03
  -1.973070e+02  -1.188145e+03
   9.601729e+02  -1.234048e+03
   8.635790e+02  -3.067481e+02
   2.332292e+02   2.362242e+01
  -1.323802e+02  -2.739107e+01
  -1.675212e+01  -2.078331e+02
   3.464796e+02  -4.018706e+02
   5.383339e+02  -1.061123e+02
   4.090717e+02   1.643196e+02
   3.876563e+01   4.651231e+02
  -1.123302e+02   1.918718e+02
  -2.025497e+02  -2.435988e+02
   4.659230e+01  -4.765666e+02
   3.157290e+02  -9.859640e+01
   3.281468e+02   3.640715e+02
  -4.034554e+00   4.445083e+02
  -3.099938e+02   2.885203e+02
  -4.185749e+02  -1.387402e+02
  -2.106791e+02  -3.034085e+02
   1.070080e+02  -2.112565e+02
   4.398047e+01  -8.815205e+01
  -1.540801e+02  -9.495426e+01
  -2.295236e+02  -2.183556e+02
   1.066451e+01  -2.935638e+02
   3.055442e+02  -1.244454e+01
   3.734445e+02   3.787747e+01
   1.594071e+02   2.479482e+02
  -2.491969e+02   1.683114e+02
  -3.427502e+02  -9.693688e+01
  -1.425260e+02  -2.645906e+02
   2.021028e+02  -2.469487e+02
   3.140476e+02  -9.987062e+01
   1.828405e+02   4.960077e+01
   2.598840e+01   1.686541e+02
   3.702156e+01   1.322968e+02
   4.430861e+01  -1.514222e+01
   7.551240e+01  -3.082427e+01
   1.069946e+02   4.970292e+01
   1.292931e+02   3.554181e+02
  -1.309056e+02   3.189969e+02
  -1.817371e+02   2.502286e+01
  -9.479171e+01  -6.376155e+01
   4.025464e+01  -3.212655e+01
   1.186426e+02   2.251436e+02
  -7.639635e+01   2.879804e+02
  -1.974111e+02   2.358802e+01
  -4.068251e+02  -2.776998e+02
  -1.625284e+02  -3.015143e+02
   1.980035e+02  -2.525754e+02
   3.021887e+02   3.534889e+01
   2.717637e+02   1.056414e+02
  -1.383513e+01   1.792236e+02
  -1.481916e+02   1.293506e+02
  -2.250125e+02   1.140937e+01
  -8.076673e+01  -2.139959e+01
   2.035817e+01  -5.397179e+01
  -2.019428e+01   3.076070e+01
  -7.596403e+01   2.643579e+01
  -5.621005e+01  -1.188480e+02
   1.039079e+02  -2.469106e+02
   2.145584e+02  -7.170355e+01
   2.407162e+02  -4.514657e+01
  -6.343032e+01   1.996875e+02
  -1.810305e+02   3.445280e+02
  -3.203420e+02   8.417763e+01
  -1.441937e+02  -1.459447e+02
  -1.871213e+01  -3.303417e+02
  -6.166852e+00  -1.952463e+02
  -4.974120e+00  -1.385623e+02
   3.249028e+01  -8.745013e+01
   1.585880e+02  -1.112685e+02
   1.768536e+02  -5.803565e+00
   1.452679e+02   1.300304e+02
   2.520591e+01   1.013857e+02
  -6.140609e+01   1.888816e+02
  -1.773834e+02  -2.866393e+01
  -6.943169e+01  -1.145581e+02
   1.428129e+01  -1.872275e+02
   1.853080e+02  -2.677534e+01
   1.672581e+02   1.536635e+02
   1.275564e+02   1.887898e+02
  -1.896626e+01   1.803502e+02
  -1.086419e+02   1.245322e+02
  -1.385634e+02   7.623985e+01
  -1.153731e+02   5.776326e+01
  -1.947183e+02   1.210066e+02
  -3.152928e+02  -6.786685e+01
  -1.414292e+02  -1.162632e+02
  -5.622980e+01  -2.844381e+02
   2.227270e+02  -2.651826e+02
   3.961811e+02  -1.189606e+02
   2.793444e+02   1.213925e+02
   4.473425e+01   1.702172e+02
  -4.166895e+01   1.103751e+02
  -8.237373e+00   5.236751e+01
   9.393233e+01   3.730203e+00
   1.164809e+02   3.367709e+01
  -2.959832e+01   9.748872e+01
  -5.119934e+01   7.492318e+01
  -6.800856e+01  -2.871402e+01
   3.338745e+01  -1.159659e+02
   1.044896e+02  -1.847130e+00
   1.104187e+02   1.567241e+02
   1.856591e+01   2.639741e+02
  -1.933465e+02   1.774470e+02
  -3.025655e+02   7.485491e-01
  -1.868362e+02  -1.476391e+02
  -2.672916e+01  -2.243461e+02
   1.048786e+02  -7.607928e+01
   4.432261e+01  -4.458557e+01
   4.552428e+01  -3.177034e+00
  -4.891068e+01  -8.757206e+01
  -2.785434e+01  -1.078980e+02
   7.732133e+01  -4.429572e+01
   1.190738e+02   2.061853e+01
   1.053664e+01   7.967331e+01
  -5.713808e+01  -1.489724e+01
  -1.177593e+02  -8.571995e+01
   1.197950e+02  -6.001461e+01
   1.960648e+02  -1.733081e+01
   1.899943e+02   1.218164e+02
   4.972536e+01   2.055070e+02
  -2.004420e+02   1.932082e+02
  -1.993193e+02   6.673547e+01
  -8.565208e+01  -3.272248e+01
  -1.108293e+00  -6.653490e+01
   1.009750e+01   3.512762e+01
  -4.835617e+01   7.225945e+01
  -1.069817e+02   1.386340e+01
  -1.322912e+02  -6.653151e+01
  -7.233677e+01  -1.100064e+02
   1.001906e+02  -7.981597e+01
   1.183859e+02  -3.309128e+01
   1.592028e+01   4.374443e+01
  -7.021898e+01  -5.324279e+01
  -4.195935e+01  -1.068423e+02
   9.147875e+01  -8.537481e+01
   1.529234e+02  -3.513623e+01
   1.190683e+02   9.911483e+01
   1.110339e+01   1.197302e+02
  -6.351560e+01   9.040177e+01
  -9.772255e+01   8.832460e+00
  -9.697789e+01  -9.607628e+01
   5.131581e+01  -8.852129e+01
   5.346202e+01  -4.547897e+00
  -6.438075e+00  -1.660096e+00
  -3.810331e+01  -1.301818e+01
  -7.857538e+00  -3.402718e+01
   4.279946e+01   6.569423e+00
   6.886556e+01   4.482357e+01
   4.132119e+01   1.431817e+02
  -1.065759e+02   1.033038e+02
  -2.221391e+02   5.045090e+01
  -1.070177e+02  -1.229709e+02
  -3.610561e+01  -1.541084e+02
   7.060306e+01  -1.125174e+02
   4.870075e+01  -5.181310e+01
   2.460821e+01  -4.387872e+00
   3.095782e+01   3.372742e+01
   1.177658e+01  -7.517419e+00
   7.826623e+01  -7.241588e+00
   3.566490e+01   1.256398e+01
  -5.504287e+01   4.376234e+01
  -1.513469e+02   7.790433e+01
  -9.361395e+01   9.436927e+00
   2.987377e+01  -1.150154e+02
   1.295562e+02  -7.468180e+01
   9.264197e+01   3.879385e+01
   1.235497e+02   1.709782e+02
  -1.081396e+02   1.834258e+02
  -2.258627e+02   1.020868e+02
  -2.171062e+02  -6.979323e+01
  -8.367848e+01  -1.523247e+02
   1.882291e+01  -1.011814e+02
   2.747109e+01  -7.061684e+01
   7.986266e+01  -3.354864e+01
   2.947205e+01  -9.661173e+01
   1.130594e+01  -1.386757e-01
   7.676256e+01   3.762734e+01
   8.130476e+01   5.700931e+01
  -5.668301e+01   1.771603e+02
  -8.801030e+01   9.737899e+01
  -1.487501e+02   3.978911e+01
  -9.450511e+01  -1.099242e+02
  -1.932836e+01  -1.198169e+02
   6.686333e+01  -4.007396e+01
   2.609021e+01   3.865632e+01
  -5.420668e+00   7.383982e+01
  -1.482828e+01   3.103654e+01
   3.461131e+01  -1.209627e+01
   4.502667e+01   4.632474e+00
   3.758012e+01   3.483537e+01
  -6.074540e+01   4.529562e+01
  -1.546327e+02  -1.512387e+01
  -1.128024e+02  -5.081238e+01
  -4.781108e+00  -1.047570e+02
   1.077067e+02  -5.949170e+01
   1.529003e+02  -4.084753e+01
   5.087100e+01   2.907924e+01
  -5.595935e+01   2.722358e+01
  -5.382277e+01  -4.536697e+01
  -1.900603e+01  -5.655796e+01
   8.015712e+01  -1.758574e+01
   5.203258e+01  -1.794380e+01
   7.552203e+01   4.964429e+01
   3.203363e+01   5.399311e+01
   1.671182e+01   2.106885e+01
   5.221254e+01   2.110675e+01
  -1.282743e+00   1.238781e+01
  -1.948766e+01   1.347208e+02
  -1.318926e+02   1.591425e+02
  -1.287423e+02   5.935257e+01
  -1.142268e+02  -1.150042e+02
   2.257046e+00  -1.034469e+02
   6.943094e+01   2.802682e+00
   4.142805e+01   1.913792e+01
  -6.539319e+01  -1.516448e+01
  -1.432082e+02  -7.070804e+00
  -6.870200e+01  -8.637023e+01
   7.542446e+01  -4.902525e+01
   1.755794e+02  -4.647824e+01
   8.549795e+01   4.220972e+01
   6.252052e+00   4.440875e+01
  -5.287538e+01   3.412861e+01
  -2.643462e+01  -6.158852e+00
  -9.261539e+00  -1.364895e+01
   1.129907e+02  -8.228443e+00
   3.071698e+01   7.444706e+01
   9.281436e-01   1.602008e+02
  -1.489969e+02   2.577545e+01
  -1.253832e+02  -7.361980e+01
  -4.290231e+01  -1.092895e+02
   5.472075e+01  -1.034672e+02
   7.450213e+01  -2.972338e+00
   2.015637e+01   8.718025e+01
  -4.695127e+01   6.932003e+01
   2.903810e-01   4.012843e+01
  -2.516130e+01  -4.497034e+00
  -9.192992e+00   4.337729e+00
   7.030738e+00   1.514709e+01
  -2.071692e+01  -3.058076e+01
  -1.763543e+01  -6.239633e+01
  -2.541622e+01  -9.157858e+01
   4.895997e+01  -6.807941e+01
   3.263065e+01   1.091250e+01
   2.778788e+01   2.585975e+01
   6.234922e+01   4.756198e+01
  -2.812236e+01   5.476080e+01
  -3.175461e+01   1.907165e+01
   2.963441e+01  -4.998950e+01
   2.197112e+01  -6.194774e+01
   5.075980e+01  -1.711240e+01
   4.025611e+01  -2.298144e+01
   2.425202e+01  -3.159687e+01
   5.547614e+01   2.480774e+01
  -3.086321e+00   1.931562e+01
   5.935343e+01   5.995437e+01
  -1.091532e+02   8.122749e+01
  -1.677489e+02   5.442760e+01
  -1.265240e+02  -4.789515e+01
  -1.466137e+01  -1.390930e+02
   7.659489e+01  -1.282107e+02
   1.327411e+02  -8.858146e+01
   1.076264e+02   2.712503e+00
  -4.351994e+00   1.903208e+01
   3.471788e+00   1.743675e+01
  -3.978822e+00   3.157360e+01
   3.647933e+01   3.193032e+01
   5.186753e+01   7.928864e+01
   1.005850e+01   5.128789e+01
  -5.319236e+01   1.131514e+01
  -4.415976e+01  -9.702159e+01
  -3.178688e+01  -6.992731e+01
   4.184464e+01  -3.669066e+01
   7.540383e+01   5.647547e+01
   2.794735e+01   4.907983e+01
  -4.550564e+01   3.019750e+00
  -9.744852e+01  -3.505359e+01
  -7.167860e+01  -3.644718e+01
   6.154738e+01  -2.671115e+01
   2.907203e+01  -4.794668e+01
  -3.252344e+00  -1.479571e+01
  -6.333511e+01   4.822935e+00
   3.624254e+00  -2.742551e+01
   7.693319e+01  -6.593163e+01
   4.809724e+01  -5.573700e+01
   7.770387e+01   2.564188e+01
  -4.783697e+01   3.243038e+01
  -4.462025e+01   3.736922e+01
  -3.708728e+01   2.737842e+01
  -4.970231e+01  -5.701722e+00
   3.780476e+00  -1.883157e+01
   2.733215e+01  -1.374476e+01
   1.394305e+01   2.604749e+01
  -2.572080e+01   5.755719e+01
  -2.110893e+01  -1.128094e+00
  -1.903915e+01  -1.612958e+01
  -1.882982e+01   1.859051e+00
  -2.861498e+01   1.331694e+01
  -2.311552e+01   4.453366e+00
   6.137897e+00  -4.875732e+01
  -3.077943e+01  -3.337472e+01
   1.453361e+01   4.397686e+00
   4.510664e+01   4.874622e+01
   2.645208e+01   3.849770e+01
  -5.565168e+01   6.605048e+00
  -4.718962e+01  -2.482224e+01
  -5.081850e+01  -4.162078e+01
   5.784224e+01  -5.407536e+00
   6.994260e+01   6.509422e+00
   3.486583e+01   1.698203e+01
  -3.339838e+01   1.773035e+01
  -1.840758e+01  -3.218024e+00
  -2.018266e+01   2.195468e+01
   1.109195e+01  -3.447346e+01
   2.840960e+01   3.139452e+00
   1.921564e+01  -1.184415e+01
  -3.641259e+01   2.477535e+01
