
 $NMID
 id='ANONYMOUS ', fmtdat='(2E16.6)'
 volume=1.0
 tramp=1.0
 $END
  -4.053021e+03  -2.461527e+02
  -2.258517e+03  -2.548637e+03
   8.611216e+02  -2.049382e+03
   1.922519e+03  -6.366554e+02
   8.200247e+02   9.005044e+02
  -6.479449e+02   4.302192e+02
  -9.636141e+02  -6.485062e+02
   6.560497e+01  -1.027979e+03
   7.549985e+02  -7.889748e+02
   9.308960e+02   2.355622e+02
   4.557617e+02   6.504573e+02
  -3.180694e+02   8.919124e+02
  -5.562067e+02   1.237468e+02
  -3.454549e+02  -7.694378e+02
   3.112056e+02  -6.966543e+02
   6.242986e+02   4.294321e+01
   2.596603e+02   6.525183e+02
  -3.144781e+02   5.895510e+02
  -5.778580e+02   5.477878e+01
  -3.633165e+02  -4.142890e+02
   1.500108e+01  -4.557183e+02
   2.386625e+02  -2.267284e+02
   2.337108e+02  -4.546134e+01
  -1.096141e+02   6.018480e+01
  -4.952374e+02  -1.517483e+02
  -1.967084e+02  -3.898732e+02
   4.206395e+02  -3.238158e+02
   7.340116e+02   5.188250e+01
   3.563312e+02   5.078124e+02
  -3.452324e+02   4.964351e+02
  -6.744547e+02  -9.452174e+01
  -3.185317e+02  -4.933549e+02
   3.433659e+02  -5.148462e+02
   5.836044e+02  -2.021969e+02
   4.119322e+02   1.694369e+02
   5.154768e+01   4.181783e+02
  -2.401579e+02   2.243394e+02
  -1.373050e+02  -1.938920e+02
   1.370787e+02  -4.802456e+02
   4.506637e+02  -2.740400e+01
   3.135726e+02   6.509993e+02
  -3.128655e+02   7.166401e+02
  -5.323053e+02   5.024262e+01
  -2.361359e+02  -5.093301e+02
   2.259443e+02  -2.509679e+02
   3.744987e+02   2.818828e+02
  -9.294960e+01   5.118321e+02
  -5.036247e+02   1.501823e+02
  -6.113770e+02  -3.633423e+02
  -1.624921e+02  -6.320436e+02
   3.788297e+02  -3.595201e+02
   4.321859e+02   9.675245e+01
   3.231016e+02   3.504172e+02
  -1.611160e+02   3.997445e+02
  -5.214233e+02   6.250423e+01
  -2.481225e+02  -2.322007e+02
   1.254427e+02  -7.761933e+01
   1.363689e+02   9.330723e+01
  -1.435126e+02   1.897696e+02
  -2.828221e+02  -7.419718e+01
  -1.371289e+02  -3.180412e+02
   2.178472e+02  -2.278175e+02
   2.633557e+02  -2.544119e+01
   1.997768e+02   5.997503e+01
  -3.050950e+01   1.960457e+02
  -2.505034e+02   3.073345e+02
  -3.671799e+02   2.092420e+02
  -2.513002e+02  -1.257402e+02
  -7.667361e+01  -4.763961e+02
   8.255621e+01  -2.978196e+02
   1.302003e+02  -1.377739e+02
   7.470722e+00   2.084056e+01
   7.736510e+01  -9.218141e+01
   1.741612e+02  -1.309877e+02
   2.483103e+02   6.533774e+01
   1.097796e+02   1.834532e+02
  -1.032736e+02   2.317927e+02
  -1.864295e+02   4.406230e+01
  -1.303558e+02  -1.774822e+02
  -1.250783e+01  -2.774420e+02
   1.967103e+02  -8.081664e+01
   3.172275e+02   1.612250e+02
   1.785554e+02   2.825877e+02
  -7.228490e+01   2.815843e+02
  -1.794501e+02   1.170517e+02
  -1.831371e+02  -6.215262e+01
  -1.060590e+02   4.947131e+01
  -2.413932e+02   5.898190e+01
  -3.368404e+02  -2.655873e+01
  -2.849650e+02  -2.427169e+02
   2.280174e+01  -3.705643e+02
   3.267554e+02  -2.903168e+02
   4.021921e+02  -1.824056e+02
   3.345951e+02   1.022610e+02
   5.082069e+01   2.866171e+02
  -1.176224e+02   2.263276e+02
  -8.395311e+01   5.551282e+01
   8.564809e+01  -2.335955e+01
   2.075353e+02  -1.268681e+01
   3.384204e+01   1.827743e+02
  -1.139598e+02   1.683643e+02
  -1.877635e+02  -6.247547e+01
   1.106295e+01  -2.276895e+02
   2.101190e+02  -2.729013e+01
   1.814180e+02   1.797345e+02
  -8.669636e+01   3.964361e+02
  -1.919028e+02   1.698407e+02
  -3.238282e+02  -2.728853e+01
  -2.749809e+02  -1.766408e+02
  -9.933459e+01  -2.483208e+02
   1.352055e+02  -1.546668e+02
   1.917928e+02  -2.109921e+01
   2.444516e+01   4.223164e+01
  -1.071034e+02  -1.121370e+01
  -4.742917e+01  -1.314405e+02
   9.812481e+01  -9.176198e+01
   1.288268e+02  -4.727981e+00
   8.644958e+01   7.704219e+01
  -8.591522e+01   7.387956e+00
  -9.328342e+01  -3.751625e+01
   8.920105e+01  -1.022328e+02
   2.683970e+02   1.638800e+01
   2.460646e+02   1.292279e+02
   9.238388e+01   2.579699e+02
  -1.538200e+02   2.029066e+02
  -2.152712e+02   1.517037e+02
  -2.031563e+02  -7.346340e+01
   3.124570e+01  -1.158978e+02
   5.203515e+01  -3.802495e+00
  -2.387745e+01   1.130635e+02
  -1.452785e+02   7.048058e+01
  -1.587544e+02  -1.314279e+02
  -5.412816e+01  -1.679371e+02
   5.587172e+01  -1.582656e+02
   6.370614e+01  -6.134163e+01
   3.408173e+01   3.066031e+01
   9.498599e+00  -2.689624e+01
  -5.812849e+01  -7.284238e+01
   9.192327e+01  -6.781103e+01
   1.186480e+02  -7.749415e+00
   1.702437e+02   5.651854e+01
  -2.042734e+00   1.999967e+02
  -1.278495e+02   1.323669e+02
  -1.556565e+02   1.839408e+01
  -4.101646e+00  -1.272252e+02
   8.318561e+01  -6.292123e+01
   5.937636e+01  -2.500105e+01
   3.598594e+01   1.409727e+01
   2.217628e+01   7.455490e+00
  -1.474077e+01  -1.065351e+01
   7.492565e+01  -4.153133e+01
   1.009357e+02   8.363060e+01
   2.628939e+01   1.141616e+02
  -1.375955e+02   1.103634e+02
  -1.798500e+02  -1.325320e+01
  -1.525108e+02  -1.537037e+02
  -7.358478e+01  -2.231002e+02
   6.039380e+01  -1.749889e+02
   1.040341e+02  -2.285121e+01
   4.721401e+01   5.154909e+01
   2.882815e+01  -1.750833e+01
   6.714766e+01  -4.200242e+01
   4.968492e+01   3.065077e+01
   5.307050e+01   5.358747e+01
  -1.535271e+01   4.951265e+01
  -9.544370e+01   3.300887e+01
  -7.911450e+01  -7.919343e+00
   7.662536e+00  -1.563841e+02
   1.433793e+02  -9.072154e+01
   1.562294e+02   4.144157e+01
   1.362715e+02   2.130909e+02
  -9.776949e+01   2.117105e+02
  -2.155290e+02   1.182561e+02
  -2.334193e+02  -5.340843e+01
  -7.675096e+01  -1.824853e+02
   7.709912e+01  -1.547137e+02
   6.277711e+01  -9.280535e+01
   9.203614e+01  -9.434339e+01
   1.074803e+02  -1.149965e+02
   9.610325e+01  -4.258103e+01
   1.099863e+02  -1.410638e+00
   1.231962e+02   1.079688e+02
   1.974102e+01   1.895474e+02
  -3.630148e+01   6.744225e+01
  -1.602885e+02   5.811255e+01
  -1.720942e+02  -6.404799e+01
  -2.314510e+01  -1.243853e+02
   4.733177e+01  -6.688436e+01
   5.720388e+01  -7.245663e+00
   3.162853e+01   3.311141e+01
   1.915663e+00  -1.452623e+00
   3.428726e+01   3.191577e+01
   1.328545e+02   2.182849e+01
   6.451339e+01   5.518205e+01
  -9.702139e+01   9.449457e+00
  -1.048473e+02  -2.747582e+01
  -8.287413e+01   3.596935e+00
  -4.650726e+00  -9.267867e+01
   9.779386e+01  -8.104131e+01
   1.333768e+02  -2.743376e+01
   5.837213e+01   5.337804e+01
  -7.037526e+01   4.131472e+01
  -8.553067e+01  -4.264300e+01
  -1.077867e+01  -8.065631e+01
   5.685481e+01  -3.669562e+01
   5.275764e+01   1.418115e+01
   6.239118e+01  -5.730730e+00
   3.367506e+01   7.402334e+01
   6.484894e+01   1.411857e+01
   6.731057e+01  -8.186510e+00
  -2.444920e+01   2.764397e+01
  -2.209918e+01   1.519977e+02
  -1.293211e+02   1.215030e+02
  -6.095652e+01   2.516858e+01
  -1.274489e+02  -9.381779e+01
  -4.815841e+01  -1.056687e+02
   7.830797e+01  -2.998349e+01
   2.355259e+01   5.747326e+00
  -5.949675e+01   2.838939e+01
  -8.019630e+01  -1.493127e+00
  -3.301030e+01  -9.554541e+01
   4.523367e+01  -9.175641e+01
   1.659957e+02  -7.851509e+01
   1.135250e+02   5.204553e+01
   4.683333e+01   6.432067e+01
  -1.053034e+02   5.586821e+01
  -5.646482e+01  -5.874931e+01
   2.442966e+01  -4.891651e+01
   3.430558e+01  -2.487528e+01
  -1.409569e+01   1.211080e+02
  -7.553132e+01   7.291642e+01
  -1.892326e+02   5.318962e+01
  -1.284820e+02  -5.487003e+01
  -2.124984e+01  -2.313281e+02
   6.553492e+01  -1.620469e+02
   1.252436e+02  -7.338506e+00
   9.326685e+01   1.217974e+02
  -7.849720e+00   1.325671e+02
  -5.328692e+01   7.480501e+00
  -3.963408e+01  -4.301584e+01
  -3.107629e+01   1.886698e+01
   6.070932e+00   4.337717e+01
  -1.395153e+01  -2.944580e+01
  -6.154035e+01  -7.161292e+01
  -2.486723e+01  -9.823191e+01
   3.142656e+01  -4.884627e+01
   1.016174e+02   7.994917e+01
   1.178670e+02   3.482525e+01
  -3.667530e+00   4.989790e+01
  -1.025044e+02   9.927287e+00
  -1.501797e+02   2.906290e+01
  -1.288424e+01  -3.264465e+01
   6.227978e+00  -3.739079e+01
  -1.665243e+01  -2.550694e+01
  -2.245025e+01   1.680347e+01
   1.507152e+01   1.311082e+01
   8.176629e+01  -2.700320e-01
   7.951070e+01   4.590769e+01
  -6.092209e+00   9.093688e+01
  -8.822052e+01   1.178821e+02
  -1.880272e+02   6.177838e+01
  -1.439246e+02  -6.637891e+01
  -3.102825e+01  -1.472099e+02
   6.983897e+01  -1.947437e+02
   8.078868e+01  -3.976825e+01
   4.531325e+01   2.850555e+01
   1.051376e+01   4.940673e+01
   1.835113e+01  -1.779868e+01
   5.883325e+00   1.493086e+01
   1.547313e+01   2.016480e+01
  -2.531239e+01   5.445774e+01
  -4.977744e+01   5.577226e+01
  -4.086135e+01  -4.661578e+01
  -8.222084e+01  -8.473172e+01
  -1.360682e+01  -1.067174e+02
   6.822805e+01  -3.812368e+01
   6.593194e+01   6.913125e+01
   3.947346e+01   8.901844e+01
  -8.845287e+01   7.644393e+01
  -6.271280e+01   4.745638e+00
  -4.742348e+01  -4.583489e+01
   4.402008e+01  -5.928957e+01
  -9.007144e+00  -2.690332e+01
  -9.468002e+00  -1.294548e+01
  -6.882902e+01   2.034190e+01
  -1.637578e+01   1.087452e+01
   8.151945e+01  -1.866252e+01
   1.348471e+02  -6.353139e+01
   6.994274e+01  -1.489636e+01
  -2.673496e+01   1.015526e+02
  -1.010864e+02   5.664600e+01
  -1.522670e+01   4.570195e+01
  -3.726463e+00  -5.547097e+01
   2.535398e+01  -5.976841e+01
   1.078264e+01   1.287751e+01
   1.433296e+00   8.159388e+01
  -1.116898e+01   4.366440e+01
  -1.856971e+01  -1.974735e+00
  -3.996751e+01  -1.039801e+01
  -5.768579e+01   2.910319e+01
  -1.163746e+01   6.228074e+00
   5.605520e+00   4.424505e+01
   5.710408e+01  -4.103754e+00
   2.778789e+01  -4.967951e+01
   3.486589e+01  -2.120422e+01
   4.973267e+01   3.713888e+01
   1.590436e+01   2.687118e+01
  -1.993933e+01  -2.935548e+00
  -6.223158e+01  -3.510634e+01
  -5.286278e+01  -5.788471e+01
   3.309991e+01  -1.175287e+01
   1.082600e+02   3.699507e+01
   3.995164e+01   2.239708e+01
  -6.289667e+01   5.596759e+01
  -5.785340e+01   3.298062e+01
  -3.073867e+01   2.038380e+01
  -1.796068e+00   1.744401e+01
   3.672679e+01   4.979952e+01
  -2.794022e+01   4.986355e+01
  -7.048147e+01   6.432576e+00
