
 $NMID
 id='ANONYMOUS ', fmtdat='(2E16.6)'
 volume=1.0
 tramp=1.0
 $END
  -4.945386e+03  -1.274437e+02
  -2.293975e+03  -2.729219e+03
   1.031476e+03  -2.625977e+03
   2.234886e+03  -7.216015e+02
   9.517509e+02   6.994417e+02
  -6.702298e+02   7.115877e+02
  -9.855614e+02  -4.347207e+02
  -9.602983e+01  -1.132522e+03
   9.154415e+02  -9.232160e+02
   1.117861e+03   2.246403e+02
   4.290897e+02   8.697014e+02
  -3.318547e+02   1.051543e+03
  -7.375822e+02   1.326974e+02
  -3.463078e+02  -8.468021e+02
   3.632496e+02  -8.103571e+02
   7.229487e+02   7.214293e+01
   2.272154e+02   6.236213e+02
  -3.597407e+02   5.838145e+02
  -6.478181e+02   1.243522e+02
  -3.483614e+02  -3.808001e+02
   4.260193e+01  -4.904303e+02
   3.094196e+02  -2.929333e+02
   2.441748e+02  -3.915218e+01
  -8.583266e+01   1.486772e+02
  -3.654658e+02  -9.224475e+01
  -2.535779e+02  -4.534625e+02
   4.411650e+02  -5.118592e+02
   7.218176e+02   1.465137e+01
   4.759293e+02   5.093706e+02
  -3.955503e+02   5.111914e+02
  -7.516904e+02  -1.370412e+01
  -4.176823e+02  -4.925359e+02
   2.753210e+02  -6.118738e+02
   6.652892e+02  -2.748003e+02
   4.129407e+02   1.893723e+02
   8.381940e+01   5.138724e+02
  -1.953907e+02   3.364867e+02
  -2.030069e+02  -2.722761e+02
   1.758350e+02  -4.038830e+02
   4.528473e+02  -2.885716e+01
   3.234369e+02   7.166760e+02
  -2.595064e+02   6.844224e+02
  -5.287278e+02   7.982363e+01
  -2.902773e+02  -5.946438e+02
   2.639865e+02  -3.812684e+02
   4.316140e+02   2.939360e+02
  -4.901025e+01   5.538947e+02
  -4.719145e+02   1.597476e+02
  -6.060369e+02  -4.131723e+02
  -1.195443e+02  -6.037747e+02
   4.407583e+02  -3.944734e+02
   5.866596e+02   2.221411e+01
   3.809077e+02   4.891374e+02
  -1.512038e+02   3.998619e+02
  -5.144475e+02   6.819551e+00
  -2.713023e+02  -3.158260e+02
   1.493358e+02  -1.418391e+02
   1.589007e+02   1.700931e+02
  -1.605920e+02   2.548844e+02
  -3.436241e+02  -1.352116e+02
  -1.564020e+02  -3.511524e+02
   1.978690e+02  -2.435298e+02
   2.331090e+02  -1.228281e+02
   1.600850e+02   1.245184e+02
  -1.182526e+01   1.582382e+02
  -1.749605e+02   3.246629e+02
  -3.131274e+02   2.222299e+02
  -2.505756e+02  -8.694554e+01
  -1.308369e+02  -4.475615e+02
   9.536109e+01  -3.911316e+02
   9.503479e+01  -6.676809e+01
  -1.087367e+01   5.955812e+01
   1.562140e+01  -7.215289e+01
   1.126102e+02  -1.782499e+02
   2.636377e+02   2.747358e+01
   1.456955e+02   2.657741e+02
  -1.097526e+02   2.917272e+02
  -1.939127e+02   1.830017e+01
  -1.939431e+02  -1.645540e+02
   6.568508e+00  -3.324056e+02
   2.945535e+02  -1.636429e+02
   4.316018e+02   9.768401e+01
   1.756702e+02   3.386037e+02
  -7.838637e+01   3.007768e+02
  -2.241628e+02   9.406328e+01
  -1.767186e+02  -3.974657e+01
  -8.669388e+01   1.061354e+00
  -2.435898e+02   7.961034e+01
  -2.935700e+02  -1.190051e+01
  -2.844068e+02  -1.601101e+02
   1.347705e+01  -3.986798e+02
   2.941041e+02  -3.737670e+02
   4.171894e+02  -2.469724e+02
   3.442763e+02   8.818679e+01
   6.807287e+01   3.349919e+02
  -1.239305e+02   2.736422e+02
  -1.266359e+02  -2.317563e+01
   1.374269e+02  -1.097680e+02
   2.648431e+02  -4.735258e+01
   7.614473e+01   2.545949e+02
  -1.582656e+02   2.146407e+02
  -1.657137e+02  -4.536656e+01
   3.645006e+01  -2.207087e+02
   2.390294e+02  -8.100553e+01
   1.833575e+02   2.435330e+02
  -5.644134e+01   3.479319e+02
  -1.955906e+02   1.584565e+02
  -2.913923e+02  -1.078620e+02
  -2.017005e+02  -1.913277e+02
  -9.841145e+01  -2.423451e+02
   9.363143e+01  -1.647215e+02
   1.767526e+02  -3.834769e+01
   1.305883e+02  -4.573012e-01
  -5.461628e+01  -3.322934e+01
  -1.913208e+01  -1.575858e+02
   8.779318e+01  -7.705344e+01
   1.714884e+02  -9.424845e+00
   6.856110e+01   8.487199e+01
  -8.303303e+01   6.600073e+01
  -1.030217e+01  -4.860134e+01
   1.162753e+02  -8.158759e+01
   2.704615e+02  -5.790522e+01
   3.027363e+02   1.180403e+02
   6.362443e+01   2.837321e+02
  -2.036424e+02   2.570675e+02
  -2.707990e+02   1.248521e+02
  -1.714828e+02  -4.028115e+01
   2.708454e+01  -1.439771e+02
   2.322441e+01  -2.440438e+01
  -1.670698e+01   1.144804e+02
  -1.728341e+02   1.763989e+01
  -2.181038e+02  -1.118596e+02
  -1.203306e+02  -2.105730e+02
   8.087891e+01  -1.647837e+02
   1.250590e+02  -1.437601e+01
   3.670643e+01  -7.723851e+00
   1.180143e+01  -7.227896e+00
  -1.784979e+01  -2.175616e+01
   7.500231e+01  -1.060606e+02
   1.962609e+02  -4.697517e+01
   1.604641e+02   6.989046e+01
   4.426707e+01   1.342572e+02
  -1.000805e+02   1.359413e+02
  -1.933921e+02  -2.011449e+01
  -4.039350e+01  -1.365620e+02
   7.491632e+01  -1.152022e+02
   9.928564e+01  -2.454571e+00
   1.205065e+01   4.360794e+01
  -3.163674e+01   2.205742e+01
   1.787424e+00   1.154880e+01
   2.773472e+01   7.538127e+01
   2.759625e+01   5.464936e+01
   2.335879e+01   9.219637e+01
  -8.809144e+01   1.504033e+02
  -2.284068e+02   5.085574e+01
  -1.976624e+02  -9.423310e+01
   4.975782e+00  -2.612975e+02
   1.032994e+02  -1.493405e+02
   1.472189e+02  -3.585007e+01
   5.962766e+01   4.931314e+01
  -1.318884e+01   1.458758e+01
   4.817736e+01  -3.644918e+01
   1.001370e+02  -3.368448e-02
   8.131980e+01   6.144248e+01
  -6.740669e+01   6.144097e+01
  -8.434332e+01   1.126373e+02
   5.727966e-01  -5.752927e+01
   1.213289e+01  -9.046151e+01
   1.037020e+02  -6.630996e+01
   1.313559e+02   2.792125e+01
   6.373918e+01   2.021722e+02
  -1.453528e+02   2.325449e+02
  -2.464754e+02   6.543310e+01
  -2.644149e+02  -7.031203e+01
  -8.336572e+01  -1.587970e+02
   1.497214e+01  -1.462986e+02
   3.252240e+01  -9.322253e+01
   8.383791e+01  -9.070393e+01
   8.731215e+01  -8.817462e+01
   1.076873e+02  -7.519409e+01
   8.068631e+01   4.081632e+01
   1.175520e+02   1.806268e+02
  -1.685130e+01   2.309655e+02
  -8.640887e+01   1.534702e+02
  -1.737911e+02   7.315051e+01
  -1.456294e+02  -9.098153e+01
  -2.759074e+01  -1.388563e+02
   7.435065e+01  -8.562648e+01
   6.988588e+01  -4.279921e+00
   2.021867e+01   2.582279e+01
   2.006591e+01   4.213626e+01
   4.024694e+01   5.021410e+01
   8.351798e+01  -3.009547e+01
   4.712873e+01   3.843554e+01
  -7.271395e+01   5.630603e+01
  -1.264966e+02  -1.368776e+01
  -1.090298e+02  -2.755638e+01
  -1.865132e+01  -7.862750e+01
   8.599817e+01  -4.783268e+01
   1.318678e+02  -1.278829e+01
   6.486913e+00   4.248528e+01
  -9.093105e+00   3.931872e+01
  -4.671224e+01  -2.163478e+01
  -2.659042e+01  -2.909036e+01
   3.024388e+01  -4.768448e+01
   8.769408e+01   2.583705e+01
   6.000354e+01   3.427896e+01
   3.778542e+01   3.457796e+00
   3.932491e+01  -3.786140e+00
   6.308819e+01   1.831825e+01
  -3.243599e+00   5.872952e+01
  -7.158194e+00   1.133137e+02
  -1.220749e+02   1.340693e+02
  -1.234755e+02   5.529733e+00
  -1.226549e+02  -5.029289e+01
   2.070111e+01  -1.064910e+02
   5.428803e+01  -1.049035e+02
   9.032408e+01   6.334050e+00
   7.263027e+00  -4.441816e+00
  -1.206869e+02  -2.542141e+01
  -4.765534e+01  -4.590712e+01
   6.076659e+01  -1.147854e+02
   1.752539e+02   1.105311e+01
   1.445453e+02   3.252823e+01
   5.128541e+01   7.460420e+01
  -7.722890e+01   6.401917e+01
  -1.426531e+01  -1.353612e+01
   3.967243e+01  -4.815331e+01
   1.411568e+02   4.864457e+01
   4.124956e+01   8.985312e+01
  -9.352547e+01   1.551015e+02
  -1.869654e+02   6.827257e+01
  -1.079662e+02  -1.411634e+02
  -4.157617e+01  -1.967829e+02
   8.966657e+00  -1.041583e+02
   1.324998e+02   1.276352e+01
   7.539604e+01   1.057262e+02
   5.647944e+00   6.972303e+01
  -6.475459e+01   1.794030e+01
  -2.219724e+01  -6.627170e+01
  -2.221858e+01   2.862715e+01
  -2.061300e+01   2.693278e+01
  -1.944221e+01  -6.315298e+01
  -7.389889e+01  -1.032052e+02
  -6.266016e+01  -9.996217e+01
   4.518505e+01  -7.499024e+01
   1.273315e+02   3.566539e+01
   9.699758e+01   5.587176e+01
   1.759364e+01   3.772635e+01
  -7.372958e+01   4.017030e+01
  -1.139603e+02   2.850984e+01
   1.531141e+00  -1.278303e+01
  -1.091969e+01   9.875747e-01
   2.349962e+01  -1.458157e+01
  -1.659538e+01  -2.690190e+01
  -4.009896e+01  -2.254849e+01
   5.805029e+01   2.300721e+01
   9.652048e+01   2.369949e+01
  -4.337288e+01   1.367958e+02
  -7.631387e+01   9.746144e+01
  -1.613248e+02   3.944533e+01
  -1.330906e+02  -7.303094e+01
   1.296676e+01  -1.847541e+02
   7.176164e+01  -1.313878e+02
   1.021752e+02  -5.025851e+01
   7.619331e+01   3.968691e+01
   6.993969e+00   2.999168e+01
  -1.636326e+01  -1.928064e+01
   4.857452e+01  -2.163611e+01
   1.358221e+01   5.277816e+01
  -2.857460e+01   1.321155e+02
  -2.456082e+01   3.753796e+01
  -5.651273e+01  -3.483020e+01
  -4.903683e+01  -1.184816e+02
  -1.114232e+01  -1.255078e+02
   7.654012e+01  -5.718853e+00
   8.242016e+01   1.129864e+02
  -6.085114e+00   9.103441e+01
  -6.299590e+01   2.833786e+01
  -5.473872e+01  -2.955598e+01
  -1.561577e+01  -7.669911e+01
   1.689418e+01  -7.321111e+01
   5.878344e+01  -2.659986e+01
  -4.617494e+01  -1.469071e+01
  -6.097223e+01  -1.298570e+01
  -1.170256e+00  -9.540264e+00
   4.911159e+01  -5.955478e+01
   9.521490e+01  -3.340658e+01
   5.482454e+01   2.584897e+01
   5.474276e+00   3.689754e+01
  -5.664998e+01   6.223559e+01
  -5.790517e+01  -1.629493e+01
   4.495597e+00  -9.587544e+01
   4.931093e+01  -5.899354e+00
   4.300459e+01  -1.328708e+01
   1.706325e+01   7.904233e+01
  -1.305643e+01  -1.665236e+01
  -1.434138e+00  -2.917973e+01
  -6.871394e+01   2.751803e+00
  -1.665840e+01  -1.798003e+00
   2.007093e+01  -4.656865e+01
   5.675154e+01   9.904415e+00
  -1.650269e+01  -3.438337e+01
  -3.097775e+00  -4.084128e+01
  -7.789795e+00  -3.266865e+01
   2.797667e+01   4.309545e+01
   1.313497e+01   4.870746e+01
  -5.149468e+01   2.727830e+01
  -3.836435e+01  -1.943020e+01
   1.573161e+01  -3.553232e+01
   6.112515e+01  -1.793499e+01
   6.996775e+01   1.993241e+01
   4.468808e+01   6.196177e+01
  -5.507910e+01   2.062118e+01
  -5.971554e+01  -7.054654e+00
  -2.506357e+01  -5.790887e+01
   4.164332e+01   4.899690e+01
   2.307068e+01   3.018610e+01
  -2.909727e+01   6.728989e+01
  -1.027438e+02  -2.714536e+01
