
 $NMID
 id='ANONYMOUS ', fmtdat='(2E16.6)'
 volume=1.0
 tramp=1.0
 $END
   4.006227e+03   1.248788e+03
   2.067132e+03   2.350192e+03
  -6.191668e+01   2.058676e+03
  -1.689536e+03   7.407971e+02
  -9.197474e+02  -2.582745e+02
   2.773526e+02  -1.396441e+02
   5.396324e+02   3.345217e+02
  -1.037188e+02   7.696451e+02
  -6.448570e+02   6.647601e+02
  -8.137679e+02  -5.367811e+01
  -2.895528e+02  -5.689896e+02
   9.933140e+01  -8.800717e+02
   3.925531e+02  -2.807573e+02
   1.462421e+02   6.952469e+02
  -2.605431e+02   5.766247e+02
  -4.940974e+02  -3.675539e+01
  -2.519355e+02  -5.519874e+02
   2.616181e+02  -5.670534e+02
   5.196654e+02  -1.895294e+02
   3.257444e+02   3.056238e+02
  -2.021960e+01   3.694838e+02
  -2.279270e+02   2.356489e+02
  -1.480364e+02  -2.025025e+00
   2.091407e+02   4.233798e+01
   2.964799e+02   3.081322e+02
   9.485492e+01   3.711893e+02
  -4.434500e+02   1.241900e+02
  -6.906994e+02  -2.137405e+02
  -3.233309e+02  -5.131030e+02
   4.071336e+02  -2.847725e+02
   5.582831e+02   2.943515e+02
   1.570571e+02   4.266954e+02
  -3.755846e+02   4.320351e+02
  -5.242073e+02   1.081944e+02
  -2.811027e+02  -2.125254e+02
  -5.256350e+01  -3.078941e+02
   1.732642e+02  -1.470063e+02
   7.908054e+00   2.282034e+02
  -2.848511e+02   3.393451e+02
  -2.766563e+02  -1.141532e+02
  -2.164348e+00  -6.162436e+02
   3.424087e+02  -5.900665e+02
   3.742397e+02   6.420884e+01
   7.305700e+01   3.906050e+02
  -2.063482e+02   1.675477e+02
  -2.818055e+02  -3.296081e+02
   1.694419e+02  -4.835123e+02
   4.555661e+02  -3.940838e+01
   4.644139e+02   4.837685e+02
   6.739773e+01   4.917727e+02
  -4.225040e+02   2.653403e+02
  -6.071891e+02  -1.027387e+02
  -3.344976e+02  -3.135028e+02
   1.478300e+02  -3.163441e+02
   3.784766e+02  -5.600608e+01
   2.709710e+02   1.527061e+02
  -1.733444e+01   7.892138e+01
  -9.730387e+01  -6.784025e+01
   2.054179e+02  -8.353252e+01
   2.539672e+02   7.931659e+01
   1.025916e+02   2.369717e+02
  -2.209034e+02   2.083671e+02
  -2.999554e+02   7.265042e+01
  -2.554807e+02  -8.397110e+01
   4.039091e+01  -2.330356e+02
   3.214895e+02  -3.658589e+02
   4.355562e+02  -1.738594e+02
   2.984541e+02   2.028203e+02
   6.989966e+00   4.038676e+02
  -9.212144e+01   3.128739e+02
  -7.679886e+01   2.102847e+02
  -5.829988e+01   4.326918e+01
  -1.083571e+02   5.135822e+01
  -2.078225e+02   4.898926e+01
  -2.167102e+02  -1.548452e+02
  -1.364722e+02  -2.770452e+02
   1.092495e+02  -2.285752e+02
   2.313971e+02   7.308277e+01
   1.102976e+02   2.674065e+02
  -1.207134e+02   3.065306e+02
  -2.810145e+02   7.588163e+01
  -3.251306e+02  -2.140534e+02
  -1.375185e+02  -3.328187e+02
   1.427963e+02  -2.906355e+02
   2.159537e+02  -1.074227e+02
   1.571594e+02  -5.620348e+01
   1.623008e+02  -6.160063e+01
   2.584195e+02   4.625840e+01
   4.235728e+02   1.097330e+02
   3.270684e+02   3.151997e+02
  -9.879867e+01   4.652233e+02
  -3.568759e+02   3.745882e+02
  -4.524559e+02   6.550573e+01
  -3.346435e+02  -1.176258e+02
   2.083002e+01  -2.981398e+02
   1.357476e+02  -1.850843e+02
   5.158236e+01  -4.589793e+00
  -1.131200e+02   6.012144e+01
  -1.769434e+02  -7.374457e+01
   9.744508e+00  -1.887232e+02
   1.645911e+02  -1.485366e+02
   1.021602e+02   7.789133e+01
  -4.577072e+01   1.773841e+02
  -1.936013e+02  -1.576163e+01
  -1.504408e+02  -2.614527e+02
   8.304377e+01  -3.253096e+02
   2.459987e+02  -1.653334e+02
   3.664962e+02   6.950650e+01
   2.522323e+02   2.160367e+02
   2.777817e+01   2.762230e+02
  -1.587689e+02   1.646421e+02
  -1.575665e+02   6.531580e+00
  -4.326128e+01  -5.087482e+01
   4.282911e+01   8.406007e+01
  -1.800535e+01   1.490614e+02
  -1.173561e+02   6.901366e+01
  -1.205799e+02  -4.929118e+01
  -2.581830e+01  -5.378636e+01
   8.493761e+01   5.122196e+00
  -3.278135e+00   6.467362e+01
  -1.764265e+02   1.160276e+02
  -3.179531e+02  -1.424058e+01
  -2.493116e+02  -2.337859e+02
  -1.589775e+01  -2.648297e+02
   2.559115e+02  -1.915781e+02
   2.397418e+02  -6.830282e+01
   1.457203e+02   9.598154e+01
  -5.321822e+01   1.227399e+02
  -3.405811e+01  -3.954694e+01
   6.760758e+01  -1.265957e+02
   1.837224e+02  -5.529463e+01
   2.084153e+02   1.613126e+02
   3.486733e+01   1.969024e+02
  -6.756580e+01   1.342203e+02
  -1.296567e+02   2.922353e+00
  -4.197718e+01  -6.991586e+01
   4.654492e+01   3.249353e+01
   2.635383e+00   9.277204e+01
  -1.053916e+02   8.527187e+01
  -2.064032e+02   5.472547e+00
  -1.938330e+02  -1.557668e+02
   9.814278e+00  -2.594033e+02
   1.890009e+02  -1.919773e+02
   2.012965e+02  -9.032139e+00
   5.455483e+01   1.430182e+02
  -1.045512e+02   1.085015e+02
  -4.749084e+01   4.872003e+01
  -1.985532e+01  -2.407125e+01
   2.795366e+01  -9.757879e+00
  -3.409553e+01  -2.560703e+01
  -7.400224e+01  -3.741269e+00
  -4.011863e+01  -8.620118e+01
   2.810591e+01  -1.991081e+02
   1.587637e+02  -1.477389e+02
   2.687581e+02  -5.638128e+00
   1.715891e+02   2.046781e+02
  -3.149622e+01   2.598154e+02
  -1.086175e+02   1.381563e+02
  -1.216083e+02  -8.333448e-01
  -5.190459e+01  -2.027849e+01
  -2.289920e+01  -6.517742e+01
  -5.733620e+01  -5.012872e+00
  -2.697818e+01   2.185140e+01
  -3.145777e+01  -5.146682e+01
   4.735699e+01  -1.415506e+02
   8.273549e+01  -5.462999e+01
   8.568996e+01   4.935171e+01
  -7.258562e+00   1.277502e+02
  -1.592305e+02   6.005617e+01
  -1.568135e+02  -4.288490e+01
  -3.226243e+01  -2.729112e+02
   1.716855e+02  -2.223681e+02
   2.811109e+02  -9.498301e+01
   2.485651e+02   9.740078e+01
   6.729248e+01   1.756053e+02
  -6.572736e+01   8.376559e+01
  -1.063176e+02   9.330909e+01
  -8.398670e+01   5.611338e+01
  -8.870996e+01   6.324179e+01
  -9.365996e+01   6.403858e+01
  -1.056440e+02  -3.285045e+01
  -8.784139e+01  -1.869061e+02
  -6.531673e+00  -2.239152e+02
   1.180132e+02  -1.656615e+02
   1.620617e+02   6.520637e+00
   1.063384e+02   1.528310e+02
   1.358239e+01   1.913385e+02
  -9.588490e+01   1.060218e+02
  -7.223455e+01  -3.428667e+01
  -1.848338e+01  -1.661565e+01
   5.845971e+01  -8.417862e+01
  -2.279739e+01  -2.642080e+01
  -1.386401e+02  -2.159573e+01
  -7.109148e+01  -2.010653e+01
   8.044885e+01  -4.646074e+01
   1.560461e+02   3.070449e+01
   2.015367e+02   5.200715e+01
  -1.909401e+01   1.026066e+02
  -1.202206e+02   9.549335e+01
  -1.265712e+02  -5.475558e+01
  -7.010091e+01  -7.181242e+01
   8.194537e+01  -5.513548e+01
   9.221283e+01   6.187040e+01
   1.315661e+01   9.206957e+01
  -6.081668e+01   3.875176e+01
  -9.039865e+01  -3.104765e+01
  -8.556135e+01  -5.536548e+01
  -5.552003e+01   3.896769e+01
  -5.767018e+01   5.333211e+00
  -1.045102e+02   2.701449e+01
  -4.377476e+01  -6.835156e+01
   7.681555e+01  -1.265491e+02
   1.551601e+02  -1.737310e+02
   1.644563e+02  -4.521920e+01
   1.471512e+02   1.085763e+02
  -3.761434e-01   1.327364e+02
  -1.352999e+02   5.868784e+01
  -6.252669e+01  -3.556919e+01
   3.905976e+01  -4.737671e+01
   1.535619e+02   7.267146e+01
   6.834691e+01   9.362937e+01
  -6.919100e+01   1.121504e+02
  -1.571084e+02   8.925648e+01
  -1.404790e+02  -1.158182e+02
  -1.383159e+01  -9.249038e+01
   9.471794e+00  -9.348814e+01
   4.254297e+01  -3.231116e+01
  -7.452407e+01   1.601535e+01
  -1.107104e+02  -5.106828e+01
  -1.445959e+01  -1.172496e+02
   8.098277e+01  -1.290333e+02
   1.602994e+02  -3.745633e+01
   1.130256e+02   1.267168e+02
   3.928903e+01   2.171007e+02
  -7.536760e+01   9.330433e+01
  -1.291832e+02  -2.657324e+01
  -2.937537e+01  -1.320460e+02
   2.841821e+01  -1.061443e+02
   8.298429e+01  -1.656626e+01
   5.361609e+01   5.230199e+01
   2.248590e+01   4.293823e+00
   2.631960e+01  -4.467931e+00
   3.189043e+01  -2.676987e+01
   2.649091e+01   6.597921e+01
   7.589607e+00   1.115307e+02
  -4.111787e+01   2.970164e+01
  -1.498558e+02   2.155510e+00
  -1.335965e+02  -1.042663e+02
  -1.269851e+00  -5.566620e+01
   7.441279e+01  -4.212330e+01
   9.919059e+01  -1.348805e+01
   2.358995e+01  -1.798541e+01
  -3.167810e+01  -2.240111e+00
  -2.194426e+01  -1.284023e+01
  -2.382004e+01  -4.586574e+01
  -2.889766e+01   1.831423e+01
  -5.420915e+01  -8.392982e+00
  -8.549168e+01  -2.709667e+01
   9.404857e+00  -7.128386e+01
   1.549506e+02  -1.244805e+02
   2.001765e+02  -2.385930e+01
   1.818819e+02   5.919066e+01
   1.219225e+01   1.806770e+02
  -7.727664e+01   1.198756e+02
  -1.008245e+02   8.343503e+01
  -1.098255e+02  -2.131088e+01
  -8.960044e+00  -1.936564e+01
   1.067579e+01  -4.550346e+01
   3.534037e-01  -6.367229e+01
  -1.176129e+01  -1.787749e+01
  -3.621111e+01  -1.050405e+02
   6.819383e-01  -1.016205e+02
   2.958593e+01   5.531509e+01
   1.010823e+02   8.505962e+01
   3.838983e+01   1.255715e+02
  -7.198619e+01  -1.716256e+00
  -1.263536e+02  -8.458657e+01
  -2.278991e+01  -1.501658e+02
   4.446667e+01  -9.307226e+01
   7.525297e+01   6.688510e+01
   2.567157e+01   5.291218e+01
  -3.478717e+01   2.160696e+01
  -4.813589e+01   2.913194e+01
   1.450914e+01  -1.221782e+01
   6.982025e+01   2.159105e+01
   1.060265e+01   2.334438e+01
  -9.297102e+01   9.704460e+01
  -1.005544e+02   8.118274e+01
  -3.529858e+01   1.370123e+01
   1.350714e+00  -6.183471e+01
   9.448136e+01  -8.594703e+01
   2.762205e+01   2.612917e+01
   1.732836e+01   1.503582e+01
  -3.521356e+01   5.769512e+01
  -5.877514e+01  -2.133852e+01
  -3.576453e+01  -8.018262e+01
   5.794281e+00  -3.409436e+01
   4.031154e+01   3.322024e+01
   3.105138e+01  -5.354641e+00
   1.365613e+01  -3.080899e+00
   7.094087e+00  -2.354681e+01
  -2.023078e+01   3.740207e+01
  -2.875004e+01   4.451594e+01
  -1.642313e+01   9.819536e+01
  -3.308621e+01   4.286123e+01
  -7.098213e-01  -2.258139e+01
   5.265353e+00  -6.228432e+01
   5.649863e+01  -2.896990e+01
   3.818453e+01   2.572653e+01
   2.207681e+01   1.042580e+02
  -1.272391e+01   4.769559e+01
  -1.032484e+02  -9.787485e+00
  -2.398261e+00   1.131386e+01
   5.212459e+01   1.743257e+01
   6.528513e+01  -2.520270e+01
   4.917340e+01  -9.610766e+00
  -5.111655e+01  -1.690492e+01
  -5.263867e+01  -3.372899e+00
   5.280327e+01  -2.913525e+01
   9.427191e+01  -2.074983e+01
