
 $NMID
 id='ANONYMOUS ', fmtdat='(2E16.6)'
 volume=1.0
 tramp=1.0
 $END
  -3.531747e+03  -5.309745e+02
  -2.469332e+03  -2.069719e+03
   4.992343e+01  -1.984897e+03
   1.426006e+03  -9.827619e+02
   8.609513e+02   2.726963e+02
  -5.103131e+01   2.647865e+02
  -3.896887e+02  -3.777492e+02
   2.208916e+01  -5.446758e+02
   7.077524e+02  -5.554287e+02
   7.141526e+02   4.500720e+01
   4.488513e+02   5.536102e+02
  -1.230532e+02   7.821936e+02
  -3.463942e+02   9.260070e+01
  -2.647596e+02  -7.137889e+02
   1.829897e+02  -5.889851e+02
   4.630735e+02   3.858096e+01
   1.596595e+02   4.970537e+02
  -1.756410e+02   5.778368e+02
  -4.959232e+02   1.922670e+02
  -3.515010e+02  -2.916516e+02
  -1.001714e+02  -3.888193e+02
   1.565040e+02  -2.092810e+02
   1.611966e+02   1.122932e+01
  -2.039628e+02  -6.244057e+00
  -3.649366e+02  -2.972802e+02
  -6.974165e+01  -3.741357e+02
   4.225092e+02  -2.322670e+02
   6.000072e+02   9.989202e+01
   3.213324e+02   3.983522e+02
  -4.152763e+02   2.073433e+02
  -5.013991e+02  -9.248799e+01
  -1.974907e+02  -4.097896e+02
   3.823713e+02  -4.032647e+02
   5.723749e+02  -1.083891e+02
   3.032040e+02   9.208491e+01
   1.872766e+01   3.783913e+02
  -1.644739e+02   2.108878e+02
  -6.418957e+01  -1.060084e+02
   2.365848e+02  -1.944919e+02
   3.116346e+02   1.798217e+02
   1.122171e+01   6.435221e+02
  -2.596959e+02   4.789224e+02
  -3.524196e+02   1.281083e+01
  -2.300757e+02  -2.922005e+02
   1.336932e+02  -1.481999e+02
   2.186259e+02   3.193469e+02
  -2.401343e+02   4.373579e+02
  -4.654204e+02   1.083623e+02
  -4.904388e+02  -4.058376e+02
  -7.330528e+01  -4.660177e+02
   3.841533e+02  -2.073789e+02
   4.968848e+02   6.009284e+01
   3.567159e+02   1.992202e+02
  -1.368004e+02   3.043754e+02
  -2.929045e+02   4.950948e+01
  -1.704414e+02  -9.377032e+01
   5.277205e+01  -1.002049e+02
   2.888681e+01   4.317252e+01
  -1.304804e+02   6.107991e+01
  -2.641303e+02  -6.904884e+01
  -8.016187e+01  -2.124397e+02
   1.705075e+02  -2.715360e+02
   2.948016e+02  -1.080827e+02
   2.756161e+02   1.055201e+02
  -1.419005e+01   2.427122e+02
  -3.914854e+02   2.915642e+02
  -3.944219e+02   1.464366e+02
  -2.359753e+02  -1.659554e+02
  -8.628944e+01  -4.530437e+02
   4.066455e+01  -3.163954e+02
   5.189835e+01  -1.819760e+02
  -3.608476e+01  -3.533371e+01
   7.294713e+01  -9.922441e+01
   1.882522e+02  -6.357853e+01
   2.103168e+02   1.048830e+02
   7.154161e+01   2.742835e+02
  -1.311878e+02   2.396442e+02
  -2.055246e+02  -5.660553e+01
  -1.269198e+02  -2.153045e+02
   1.532735e+01  -2.417546e+02
   2.423566e+02  -6.082972e+01
   2.718909e+02   1.506161e+02
   1.735780e+02   3.130199e+02
  -9.970002e+01   2.619669e+02
  -1.632021e+02   1.102365e+02
  -1.391240e+02   5.558853e+01
  -1.196174e+02   7.073553e+01
  -2.550987e+02   4.230820e+00
  -3.973012e+02  -2.012565e+01
  -2.843423e+02  -2.249788e+02
   5.587229e+01  -4.262071e+02
   3.304356e+02  -4.579162e+02
   4.264477e+02  -1.798089e+02
   3.067110e+02   1.269605e+02
  -4.369243e+01   2.454003e+02
  -1.047875e+02   2.107691e+02
  -1.603529e+01   1.184560e+01
   1.205764e+02  -4.354159e+01
   1.517745e+02   4.856484e+01
  -1.063588e+01   1.992833e+02
  -1.453644e+02   6.824396e+01
  -9.060822e+01  -1.146956e+02
   4.491546e+01  -1.618885e+02
   1.813309e+02   1.537518e+01
   1.158854e+02   2.763021e+02
  -1.246817e+01   3.396732e+02
  -2.140345e+02   1.601281e+02
  -3.238961e+02  -6.812839e+01
  -2.827845e+02  -2.768932e+02
  -1.581731e+01  -2.317597e+02
   1.104291e+02  -7.850503e+01
   1.314017e+02   3.614905e+01
   5.598281e+01   5.390444e+00
  -5.199489e+01  -7.537905e+01
  -7.194454e+00  -9.483352e+01
   1.132470e+02  -1.823141e+00
   1.411441e+02  -6.288588e+00
   7.269565e+01   6.468480e+01
  -7.610538e+01  -8.556328e+00
  -6.812160e+01  -5.283335e+01
   1.383467e+02  -6.720825e+01
   2.819874e+02   2.327465e+01
   2.261844e+02   2.241506e+02
   1.377327e+01   2.685647e+02
  -1.938945e+02   2.094607e+02
  -2.756765e+02   8.925134e+01
  -1.215628e+02  -8.807412e+01
   1.831460e+01  -1.543906e+02
   3.154036e+01  -9.451730e+00
  -4.878815e+01   2.135271e+01
  -2.035787e+02   6.093930e+01
  -2.276050e+02  -1.488737e+02
  -4.690093e+01  -2.136681e+02
   7.912765e+01  -1.025317e+02
   1.106345e+02   3.043774e+01
   5.561900e+01   4.845315e+01
  -3.441802e+01  -1.598903e+01
  -6.224783e+00  -9.887535e+01
   8.077283e+01  -8.482482e+01
   1.949056e+02  -2.193461e+01
   1.467223e+02   9.607595e+01
   7.766128e+00   1.535035e+02
  -1.493287e+02   1.663774e+02
  -1.734087e+02   1.422261e+01
  -4.085335e+01  -1.282992e+02
   8.961216e+01  -5.647278e+01
   8.227250e+01  -4.228306e+01
  -1.720848e+01   4.782372e+01
   1.426314e+01   1.422859e+01
  -1.587210e+01  -7.053776e+01
   1.237022e+02   2.392922e+00
   9.217885e+01   7.293732e+01
   1.017414e+01   1.775541e+02
  -1.398714e+02   1.616895e+02
  -2.518895e+02   1.814558e+01
  -1.962999e+02  -1.988252e+02
  -3.779765e+01  -2.345632e+02
   1.364780e+02  -1.149833e+02
   1.067617e+02  -2.247025e+01
   8.869442e+01   1.262231e+01
   2.156711e+01   9.117916e+00
   1.846656e+01  -7.206251e+00
   8.009449e+01  -4.302493e+00
   2.421392e+01   5.339278e+01
  -5.803608e+01   1.032850e+02
  -1.155450e+02   5.270619e+01
  -1.190482e+02  -9.079406e+01
   5.412411e+01  -9.644059e+01
   1.363728e+02  -4.720319e+01
   2.365494e+02   6.266346e+01
   5.858520e+01   2.218610e+02
  -1.488559e+02   2.043607e+02
  -2.033397e+02   5.693626e+01
  -2.274567e+02  -1.394249e+02
  -8.625615e+01  -1.194524e+02
   8.151953e+00  -8.376571e+01
   8.205443e+01  -5.909903e+01
   5.063530e+01  -5.683734e+01
   6.233709e+01  -7.106455e+01
   8.792257e+01  -5.630381e+01
   1.381236e+02   3.471896e+01
   1.158645e+02   1.809950e+02
   7.416112e+00   2.007341e+02
  -1.001408e+02   1.550720e+02
  -1.313861e+02  -4.037105e+00
  -1.322138e+02  -1.344619e+02
   3.805626e+01  -1.257694e+02
   1.114871e+02  -1.121578e+01
   5.321838e+01  -2.171226e+00
   7.454656e+00   1.600465e+01
  -1.525940e+01   3.252101e+01
   7.204999e+01   4.125533e+01
   1.008003e+02   4.217394e+01
   4.348858e+01   5.832387e+01
  -4.168612e+01  -2.062749e+01
  -1.685518e+02  -4.537651e+01
  -1.480077e+02  -9.381239e+01
  -9.926709e+00  -1.365761e+02
   1.695845e+02  -4.396308e+01
   1.490060e+02  -4.072985e+00
   6.862998e+01   3.765064e+01
  -5.399951e+01   6.220661e+01
  -9.728072e+01  -4.258534e+01
  -6.742090e+01  -7.808817e+01
   4.993428e+01  -2.434515e+01
   6.415391e+01   1.072147e+01
   4.824159e+01   2.471710e+00
   3.951610e+01   1.385977e+01
   4.881096e+01  -1.044997e+01
   6.534109e+01   1.410505e+01
   3.050839e+01   8.663480e+01
  -7.170660e+01   1.216758e+02
  -1.338948e+02   1.283407e+02
  -1.797303e+02   6.911549e+01
  -1.365162e+02  -7.761137e+01
   2.486909e+01  -1.083655e+02
   2.487977e+01  -7.508399e+01
   5.095120e+01   1.469498e+01
  -6.660842e+01   4.389970e+01
  -1.525963e+02  -5.278980e+01
  -7.759179e+01  -9.723455e+01
   8.326866e+01  -8.441528e+01
   1.998686e+02   5.996172e+00
   1.343392e+02   1.057672e+01
   4.141580e+01   9.421698e+01
  -5.426149e+01   1.080186e+02
  -7.767375e+01   1.264233e+01
   3.810017e+01  -3.985333e+01
   6.982798e+01   4.039364e+01
   2.249181e+01   9.052185e+01
  -7.835136e+01   1.283560e+02
  -1.999858e+02   2.344486e+01
  -1.298510e+02  -8.303308e+01
   3.722827e+01  -2.060072e+02
   5.517421e+01  -1.393952e+02
   8.431768e+01  -1.615111e+00
   2.744277e+01   9.647535e+01
  -3.083484e+01   9.104829e+01
  -6.816114e+01  -8.347053e+00
  -5.821996e+01  -2.747770e+01
  -1.386804e+01  -2.786991e+01
  -1.857378e+00  -4.120164e+01
   1.358375e+01  -4.255922e+01
  -1.910165e+01  -1.380824e+02
  -1.267069e+01  -1.253326e+02
   4.860430e+01  -5.013809e+01
   9.492115e+01  -1.426049e+01
   1.087889e+02   4.089380e+01
   1.965943e+01   3.420287e+01
  -9.756247e+01   4.001588e+00
  -1.252574e+02   4.630393e+00
   8.829095e+00  -1.489385e+01
   8.506009e+01  -5.216226e+00
   1.047635e+01  -2.876952e+01
   2.304581e+01   1.238946e+01
   1.290406e+01  -2.345826e+01
   5.490898e+01  -3.187583e+01
   1.186308e+02  -3.198491e+00
   3.798227e+01   4.782215e+01
  -1.470724e+02   1.267345e+02
  -1.470588e+02   3.440355e+01
  -1.663691e+02  -6.232141e+01
  -4.741459e+00  -1.792136e+02
   7.222435e+01  -1.621795e+02
   1.243643e+02  -1.054158e+02
   6.239422e+01   4.080140e+01
   4.617892e+01   2.693625e+01
  -1.390995e+01  -4.127726e+00
  -1.775569e+01  -3.350700e+00
   4.894447e+01   4.888568e+01
   2.522184e+01   1.020010e+02
   1.468793e+00   3.275996e+01
  -6.930367e+01  -9.929411e+00
  -7.954701e+01  -1.317351e+02
   2.292754e+01  -1.203187e+02
   1.061465e+02   2.265991e+01
   8.909004e+01   7.897324e+01
   2.659524e+01   9.553422e+01
  -3.497233e+01   8.769968e+01
  -4.500399e+01  -1.348759e+01
  -3.852868e+01  -6.152406e+01
   3.991078e+01  -6.974761e+01
   5.634881e+01  -1.982723e+01
  -1.145020e+01  -2.151326e+01
  -1.005686e+02   2.878236e+01
  -2.720118e+01  -9.220936e+00
   1.107372e+02  -6.218281e+01
   7.173341e+01  -5.207186e+01
   7.567419e+01  -7.191929e+00
  -2.270341e+01   7.580623e+01
   6.941807e-01   1.191716e+02
  -6.391591e+01  -1.702268e+01
  -2.357690e+01  -8.228451e+01
   4.459288e+01  -6.065395e+01
   3.763207e+01   3.259979e+00
   7.261731e+01   5.534797e+01
   3.441364e+01   5.717062e+01
  -4.639389e+01  -2.229856e+01
   2.784610e+01  -4.670275e+01
  -1.341912e+01  -3.199284e+01
   1.273375e+01  -2.109190e+01
   2.031467e+01   2.275453e+01
   2.023235e+01  -6.233276e+01
  -2.657383e+01  -5.962700e+01
   3.647787e+01  -1.416413e+01
   4.319188e+01   6.172827e+01
  -4.875136e+00   6.234135e+01
  -5.944632e+01  -1.893159e+01
  -3.947105e+01  -3.741989e+01
  -8.498217e+00  -8.613255e+01
   3.328751e+01   2.851535e+01
   7.474503e+01  -2.313490e+01
   6.911983e+01   1.983578e+01
  -6.644041e+01   5.032403e+01
  -2.673560e+01   5.267909e+01
  -1.775817e+01   1.121200e+01
   2.751703e+01   7.782379e+01
   2.915548e+01   3.700636e+01
   2.421507e+00   5.739679e+01
  -1.065546e+02   2.850963e+01
