
 $NMID
 id='ANONYMOUS ', fmtdat='(2E16.6)'
 volume=1.0
 tramp=1.0
 $END
   4.047794e+03   4.423938e+02
   1.900943e+03   2.734980e+03
  -6.225639e+02   2.399411e+03
  -2.001164e+03   6.956069e+02
  -6.666441e+02  -8.863579e+02
   6.708532e+02  -6.540156e+02
   8.395508e+02   4.684326e+02
  -1.546568e+01   9.158715e+02
  -9.852604e+02   6.968314e+02
  -7.863756e+02  -2.495251e+02
  -4.659626e+02  -6.879169e+02
   3.508229e+02  -7.455476e+02
   5.470648e+02   2.034252e+01
   3.434906e+02   7.083399e+02
  -3.791024e+02   6.619570e+02
  -6.243197e+02  -7.662055e+01
  -2.116694e+02  -6.023328e+02
   3.660071e+02  -5.819898e+02
   6.121708e+02   7.579865e+01
   3.996421e+02   4.124541e+02
  -8.619569e+01   3.694951e+02
  -3.014644e+02   1.915494e+02
  -2.387577e+02  -5.376092e+01
   8.277411e+01  -9.369572e+01
   4.016118e+02   1.919713e+02
   1.690382e+02   3.688401e+02
  -4.531951e+02   2.551121e+02
  -6.663742e+02   1.091209e+01
  -2.798363e+02  -4.786943e+02
   4.045413e+02  -4.394735e+02
   6.811374e+02   4.511105e+01
   2.189537e+02   4.499522e+02
  -3.410423e+02   3.756679e+02
  -5.497630e+02   1.382472e+02
  -3.540664e+02  -1.759571e+02
  -2.590781e+01  -4.687105e+02
   1.709268e+02  -2.380720e+02
   1.463913e+02   2.174584e+02
  -9.392561e+01   3.418769e+02
  -4.289612e+02  -6.127550e+01
  -2.247262e+02  -6.245964e+02
   2.868484e+02  -6.289537e+02
   5.499606e+02   8.665755e+00
   2.147204e+02   5.089413e+02
  -2.543254e+02   3.043818e+02
  -4.058092e+02  -3.480867e+02
   1.851952e+02  -5.034191e+02
   5.566266e+02  -1.218189e+02
   4.517991e+02   5.030876e+02
   1.104208e+02   4.964660e+02
  -3.937268e+02   2.965177e+02
  -5.448418e+02   2.618340e+01
  -3.436222e+02  -2.852282e+02
   1.826791e+02  -3.633129e+02
   4.526590e+02   3.768413e+01
   2.078119e+02   2.693077e+02
  -9.333196e+01   6.337241e+01
  -9.998167e+01  -1.337443e+02
   1.557898e+02  -1.587987e+02
   3.035706e+02   7.767154e+01
   1.237091e+02   3.089709e+02
  -1.553400e+02   2.572146e+02
  -2.960151e+02   5.315868e+01
  -1.205560e+02  -8.999334e+01
   2.662997e+01  -1.867536e+02
   3.353620e+02  -2.323727e+02
   2.993946e+02  -1.866987e+02
   2.670374e+02   1.199309e+02
   1.458899e+00   3.902997e+02
  -9.163417e+01   3.297456e+02
  -1.422394e+02   1.702608e+01
  -7.167207e+01  -1.202005e+01
  -2.124781e+01   5.928123e+01
  -1.748466e+02   9.651926e+01
  -2.320002e+02  -9.009432e+01
  -1.545766e+02  -2.208914e+02
   8.540777e+01  -3.099323e+02
   2.375459e+02   1.028321e+01
   1.460918e+02   1.852132e+02
  -9.036735e+01   2.689174e+02
  -2.310606e+02   1.293023e+02
  -2.604987e+02  -2.288541e+02
  -1.551403e+02  -3.404511e+02
   1.154673e+02  -2.852894e+02
   1.986553e+02  -9.981005e+01
   2.045704e+02   5.030403e+01
   1.563288e+02  -3.040477e+01
   2.244971e+02   1.239425e+01
   2.862496e+02   8.671386e+01
   2.768112e+02   2.470454e+02
  -5.991682e+01   3.403880e+02
  -3.300664e+02   3.741990e+02
  -4.393597e+02   1.445294e+02
  -3.097467e+02  -9.981824e+01
  -2.135391e+01  -2.582035e+02
   1.099876e+02  -2.256027e+02
   1.057254e+02   1.685752e+01
  -9.296450e+01   6.821716e+01
  -1.755716e+02  -6.423768e+01
  -2.876377e+00  -1.861821e+02
   1.341555e+02  -1.105025e+02
   1.271321e+02   1.136830e+02
  -9.503479e+00   1.299694e+02
  -1.772268e+02   4.004509e-01
  -7.085192e+01  -2.300471e+02
   5.208065e+01  -3.183532e+02
   2.410691e+02  -1.080066e+02
   2.203075e+02   7.922100e+01
   2.684569e+02   1.751748e+02
   2.712526e+01   2.461925e+02
  -1.227368e+02   1.730746e+02
  -1.328191e+02  -6.662686e+00
  -7.288630e+01  -1.529829e+01
   4.618327e+01   3.918807e+01
  -1.942528e+01   1.246617e+02
  -9.854263e+01   7.728389e+01
  -2.289112e+02  -6.218238e+01
  -5.845275e+01  -5.922886e+01
   4.596233e+01  -1.104107e+01
  -5.442880e+00   5.774808e+01
  -1.238598e+02   8.056801e+01
  -1.573585e+02   1.870813e+01
  -2.295533e+02  -1.783977e+02
  -3.861429e+01  -2.643925e+02
   2.456086e+02  -1.996697e+02
   2.122413e+02  -1.115121e+02
   1.383367e+02   8.697259e+01
  -3.524802e+01   9.869599e+01
  -1.012639e+02  -1.051209e+01
   4.964150e+01  -8.176854e+01
   1.429612e+02  -5.318366e+01
   1.982313e+02   8.596497e+01
   6.685715e+01   2.129085e+02
  -1.180388e+02   1.115178e+02
  -1.438666e+02   4.010834e+01
  -7.553777e+01  -3.627527e+01
   5.932336e+00   1.702610e+01
   7.526779e+01   6.185520e+01
  -6.819996e+01   1.098661e+02
  -2.331092e+02  -1.647956e+01
  -1.568730e+02  -1.354747e+02
  -1.301720e+01  -1.763016e+02
   2.043652e+02  -1.139526e+02
   1.881568e+02  -1.735404e+01
   1.193764e+02   1.034063e+02
  -6.852068e+01   7.356589e+01
  -9.738267e+01   2.699607e+01
  -1.724718e+01  -3.619826e+01
   1.307713e+01  -2.897476e+01
  -1.330605e+01   1.284165e+01
  -8.176286e+01  -1.439626e+01
  -5.682866e+01  -4.326761e+01
   1.449667e+01  -1.142630e+02
   1.824151e+02  -1.163415e+02
   1.833897e+02   4.418593e+01
   1.709287e+02   1.770892e+02
   1.943868e+01   2.313022e+02
  -6.655636e+01   1.361333e+02
  -8.263327e+01  -2.151767e+00
  -8.723064e+01  -2.487928e+01
  -2.218411e+01  -3.322195e+01
  -3.135876e+01   1.657178e+01
  -7.661472e+01   2.176147e+01
  -2.592976e+01  -3.433758e+01
   5.718881e+01  -6.601607e+01
   8.031347e+01   2.434165e+00
   6.618025e+01   4.399004e+01
  -2.349293e+01   1.039074e+02
  -1.689398e+02   6.783427e+01
  -1.597352e+02  -4.822317e+01
  -6.370748e+01  -1.577961e+02
   1.780628e+02  -2.200432e+02
   2.356530e+02  -1.148051e+02
   2.144802e+02   5.368145e+01
   1.077772e+02   1.566390e+02
  -7.244394e+01   1.646851e+02
  -6.481683e+01   1.209518e+02
  -7.029077e+01   5.565818e+01
  -4.335871e+01   1.125968e+02
  -1.006740e+02   4.983112e+01
  -8.553135e+01  -2.311869e+01
  -9.672706e+01  -1.890387e+02
  -1.155454e+01  -2.212547e+02
   6.145037e+01  -1.271649e+02
   1.359893e+02  -1.027836e+01
   1.164731e+02   1.456106e+02
   1.106757e+01   1.482231e+02
  -7.620598e+01   5.774155e+01
  -1.587545e+01   3.126331e+01
  -8.828399e+00  -2.030633e+01
  -1.564856e+01  -4.992695e+00
  -1.276797e+01  -5.665364e+01
  -9.710717e+01  -1.106216e+01
  -3.104410e+00  -2.284940e+01
   5.178664e+01   3.419441e+01
   8.576583e+01   2.079310e+01
   9.888870e+01   4.118202e+01
  -2.104352e+01   4.460174e+01
  -1.105813e+02   1.090994e+01
  -1.238306e+02  -2.275377e+01
  -4.849782e+01  -4.314628e+01
   7.427325e+00  -1.723248e+01
   8.588333e+01   5.752593e+01
   1.147478e+01   3.020695e+01
  -1.011247e+02   6.467476e+01
  -5.439462e+01  -1.322945e+01
  -3.933946e+01  -5.016748e+01
  -1.703468e+01  -4.140621e+01
  -6.870442e+01   6.261460e+00
  -6.358456e+01  -2.322098e+01
   4.250488e+00  -6.351593e+01
   2.440469e+01  -1.618155e+02
   1.729896e+02  -1.506324e+02
   1.202320e+02  -2.962592e+00
   8.831203e+01   1.100883e+02
  -3.091411e+01   1.272666e+02
  -5.381018e+01   8.548419e+01
  -8.147680e+01  -4.656180e+01
   6.696260e+01  -2.673480e+01
   1.088670e+02   7.112967e+01
   9.707093e+01   6.102083e+01
  -9.760914e+01   1.106954e+02
  -1.437791e+02   9.484591e+00
  -1.501673e+02  -1.916324e+01
  -4.491021e+00  -5.793957e+01
   9.013502e+01  -6.582468e+01
   5.354671e+01   1.487698e+00
  -2.681924e+01   2.145525e+01
  -5.502763e+01  -3.440602e+01
   1.624041e+01  -1.476115e+02
   1.083497e+02  -1.227348e+02
   1.605037e+02  -6.513768e+01
   4.782880e+01   1.563857e+02
  -2.084581e+01   1.947672e+02
  -1.086538e+02   1.064725e+02
  -8.701279e+01   4.116538e+01
  -4.425085e+01  -1.073426e+02
   4.729201e+01  -1.173741e+02
   5.743575e+01  -2.385254e+01
   1.003371e+01   3.750081e+01
   1.166674e+01   2.874534e+01
   5.754627e+01  -1.231534e+01
   4.881197e+01   1.498337e+01
   2.862433e+01   9.534688e+01
   3.954428e+01   7.674597e+01
  -4.196631e+01   6.937707e+01
  -1.497018e+02  -3.596812e+01
  -1.316964e+02  -7.552219e+01
  -3.553562e+01  -5.094953e+01
   1.334615e+02   1.310089e+01
   9.108606e+01   4.279183e+01
   4.394342e+01   4.292330e+01
   5.788272e+00  -1.374987e+00
   3.076406e+01  -8.717619e+00
   2.241587e+01  -3.532047e+00
   2.260567e+01  -8.077012e+00
  -9.355510e+01  -5.109288e+01
  -3.819209e+01  -4.237420e+00
   1.245773e+01  -5.626426e+01
   1.040081e+02  -7.362424e+01
   1.459024e+02   1.572567e+01
   1.430875e+02   1.091753e+01
  -2.374291e+01   1.566868e+02
  -1.234190e+02   9.935146e+01
  -1.025313e+02   3.891947e+01
  -8.980633e+01  -2.485259e+01
  -1.026934e+01  -5.773403e+01
  -2.366526e+00  -2.791710e+01
  -1.503288e+00   7.030085e+00
   8.587834e+00  -5.490561e+01
  -9.029096e-02  -5.583918e+01
   5.903080e+01  -7.354259e+01
   4.512019e+01  -1.686207e+01
   1.714466e+01   7.464099e+01
  -1.889648e+01   1.043897e+02
  -6.385463e+01   1.417810e+01
  -1.078887e+02  -8.203261e+01
  -1.570304e+01  -8.849060e+01
   4.536547e+01  -4.692209e+01
   9.432971e+01   4.530018e+01
   2.311317e+01   3.928822e+01
  -6.477524e+01   3.684557e+01
  -2.234663e+01   1.849450e+01
   6.907891e+00   3.447697e+01
   4.557894e+01   5.960890e+01
   2.102041e+01   6.791423e+00
  -6.275236e+01   4.087062e+01
  -4.878801e+01   4.128708e+01
  -3.216395e+01  -1.705195e+01
   1.836397e+01  -1.022194e+02
   2.793915e+01  -8.534633e+01
  -2.287874e+00  -2.339850e+01
   3.700746e+01   5.844529e+01
  -4.268889e+01   2.897303e+01
  -6.917086e+01  -4.422830e+01
  -4.376670e+01  -5.201718e+01
  -6.618303e+00  -3.912441e+01
   3.923209e+01   2.595438e+01
   1.781095e+01   7.336865e+01
  -1.094969e+01   3.844391e+01
   3.723742e+01  -2.420799e+01
  -7.266814e-01  -4.252136e+01
   4.172373e+00   2.885131e+01
   3.458272e+00   5.214115e+01
  -2.609494e+01  -2.893401e+01
  -1.955708e+01  -5.006860e+01
   2.404806e+01  -7.670192e+01
   4.513068e+01   3.243726e+00
   1.105860e+02   4.464659e+01
   2.298320e+00   4.656958e+01
  -4.654778e+01  -2.309996e-01
  -9.814706e+01   1.450276e+00
  -8.071618e+00  -3.936623e+01
   4.137550e+01   1.685282e+00
   2.963695e+01  -1.215092e+01
   3.692973e+01  -3.300684e+01
  -6.198283e+01   3.873332e+00
  -4.906145e+01  -1.710723e+01
   4.783131e+01  -4.210871e+01
   5.014932e+01  -4.910589e+01
