
 $NMID
 id='ANONYMOUS ', fmtdat='(2E16.6)'
 volume=1.0
 tramp=1.0
 $END
   4.825642e+03   6.233361e+02
   2.314001e+03   2.663500e+03
  -9.280467e+02   2.636656e+03
  -2.725026e+03   1.106261e+03
  -1.060852e+03  -9.379353e+02
   8.918237e+02  -6.735245e+02
   1.166575e+03   5.305681e+02
  -7.328625e+01   1.097098e+03
  -1.031139e+03   8.252544e+02
  -1.068941e+03  -1.972851e+02
  -5.145528e+02  -8.501891e+02
   4.292480e+02  -9.516294e+02
   7.197907e+02  -1.918099e+02
   4.047865e+02   8.531139e+02
  -4.340451e+02   7.238336e+02
  -7.423125e+02  -9.243958e+01
  -2.554912e+02  -7.508236e+02
   3.455295e+02  -6.486598e+02
   6.573068e+02  -2.201941e+00
   4.039723e+02   4.893208e+02
  -4.623650e+01   4.673855e+02
  -3.343636e+02   2.748071e+02
  -2.517182e+02  -4.495951e+01
   5.754445e+01  -1.751521e+02
   4.108443e+02   1.256334e+02
   1.970213e+02   4.587769e+02
  -4.493223e+02   2.810865e+02
  -7.694404e+02  -3.600136e+01
  -3.201411e+02  -5.797502e+02
   3.424080e+02  -5.781208e+02
   7.714730e+02  -9.558245e+00
   3.865808e+02   5.089909e+02
  -3.412015e+02   5.316693e+02
  -6.288720e+02   1.285529e+02
  -4.071648e+02  -2.095880e+02
  -3.044395e+01  -5.085202e+02
   2.402207e+02  -3.488399e+02
   1.941264e+02   2.317099e+02
  -7.506487e+01   4.162841e+02
  -4.420880e+02  -2.206239e+01
  -2.084105e+02  -7.027370e+02
   2.707816e+02  -7.488440e+02
   6.387194e+02   4.834203e+00
   2.272080e+02   5.771360e+02
  -2.869334e+02   3.454526e+02
  -3.581975e+02  -3.107045e+02
   1.521920e+02  -5.469457e+02
   5.214790e+02  -1.209869e+02
   5.913538e+02   4.647675e+02
   1.193305e+02   5.993263e+02
  -5.021048e+02   2.988133e+02
  -5.840402e+02  -7.627806e+01
  -3.597974e+02  -4.327644e+02
   1.847188e+02  -3.655806e+02
   5.053683e+02   1.721275e+01
   3.022838e+02   3.358747e+02
  -8.794405e+01   1.241288e+02
  -1.821993e+02  -1.234611e+02
   1.643008e+02  -2.462128e+02
   2.830229e+02   8.536378e+01
   1.346246e+02   3.761127e+02
  -2.495759e+02   2.468659e+02
  -2.851717e+02   7.255876e+01
  -1.080061e+02  -7.831249e+01
   6.955108e+01  -2.194986e+02
   2.948523e+02  -3.416189e+02
   3.723579e+02  -1.545832e+02
   2.726871e+02   1.374315e+02
   6.109053e+01   4.827827e+02
  -1.521883e+02   3.349891e+02
  -1.509378e+02   1.600721e+02
  -4.676983e+01  -1.121774e+01
  -5.809385e+01   7.332516e+01
  -1.877094e+02   1.141841e+02
  -2.346761e+02  -4.966844e+01
  -1.730297e+02  -2.912126e+02
   8.558206e+01  -1.597199e+02
   1.840872e+02  -2.379422e+01
   1.794942e+02   2.211309e+02
  -3.992765e+01   3.235785e+02
  -3.215151e+02   1.385280e+02
  -3.268437e+02  -2.281724e+02
  -1.065768e+02  -3.494783e+02
   1.790888e+02  -3.670395e+02
   2.786540e+02  -1.466852e+02
   1.379259e+02   1.330195e+01
   7.714488e+01   8.506009e+00
   2.478803e+02  -2.223339e+01
   3.275867e+02   9.258712e+01
   2.860089e+02   2.249179e+02
  -5.923224e+01   3.895622e+02
  -3.514950e+02   2.987764e+02
  -5.354585e+02   1.231277e+02
  -3.207722e+02  -1.491410e+02
  -5.309617e+00  -2.944744e+02
   1.220470e+02  -2.302930e+02
   1.146835e+02   4.179404e+01
  -1.307248e+02   7.314942e+01
  -2.211116e+02  -2.924958e+01
  -1.463662e+01  -1.690675e+02
   1.942221e+02  -1.892467e+02
   1.546127e+02   1.124412e+02
  -2.764803e+01   2.407331e+02
  -1.715334e+02   1.196659e+01
  -1.807715e+02  -2.233933e+02
   3.782438e+01  -3.647302e+02
   1.938786e+02  -1.596615e+02
   2.761118e+02   1.179123e+02
   1.957631e+02   2.571104e+02
   4.744601e+01   2.573910e+02
  -1.194002e+02   1.172769e+02
  -1.344837e+02   4.107115e+01
  -1.072589e+02  -1.284689e+01
   9.559083e+01   5.145545e+01
   2.235006e+01   1.070220e+02
  -1.034575e+02   6.381171e+01
  -1.715638e+02  -6.806680e+00
  -6.443659e+01  -6.732869e+01
   1.224318e+02  -1.243574e+01
   2.925016e+01   8.606814e+01
  -1.906500e+02   9.891649e+01
  -2.482109e+02  -1.561893e+00
  -2.884428e+02  -1.907850e+02
  -6.871455e+01  -2.350715e+02
   2.138612e+02  -2.166154e+02
   2.524448e+02  -6.162419e+01
   1.321040e+02   5.542738e+01
  -3.784423e+01   1.653099e+02
  -8.157922e+01   1.830378e+01
   6.855343e+01  -1.060186e+02
   1.714492e+02  -5.552055e+01
   2.037131e+02   1.311294e+02
   7.191319e+01   2.403374e+02
  -8.871713e+01   1.531938e+02
  -1.590051e+02   3.458337e+01
  -5.146825e+01  -7.240569e+01
   3.082785e+00   1.943258e+01
   4.209285e+01   5.071777e+01
  -1.073620e+02   9.510260e+01
  -2.088419e+02   4.855500e+01
  -1.416300e+02  -1.391820e+02
  -7.839276e+00  -1.655931e+02
   1.741546e+02  -1.309725e+02
   1.441422e+02   1.333345e+01
   4.894827e+01   1.022272e+02
  -9.119819e+01   9.302709e+01
  -8.928490e+01   1.092953e+01
  -1.147734e+01  -4.183454e+01
   4.255451e-01  -5.397374e+01
  -2.328282e+01  -8.293265e+00
  -8.813971e+01  -3.657433e+01
  -2.095914e+01  -6.876679e+01
  -6.832197e+00  -1.030599e+02
   1.134525e+02  -1.387087e+02
   2.069979e+02   2.845480e+00
   2.053737e+02   1.396355e+02
  -1.614165e+01   2.100496e+02
  -1.006436e+02   1.269464e+02
  -1.468783e+02  -1.706771e+01
  -3.435703e+01  -5.206129e+01
  -4.666322e+01  -1.716406e+01
  -5.597972e+01   4.142411e+00
  -6.223562e+01   1.260746e+01
  -5.975941e+01  -4.549320e+01
   8.779173e+01  -7.757826e+01
   9.232742e+01  -1.844947e+01
   7.882299e+01   1.406660e+01
  -5.453491e+01   1.273909e+02
  -1.240455e+02   5.194355e+01
  -1.671818e+02  -8.413166e+01
  -1.984125e+01  -2.492307e+02
   1.305048e+02  -2.282915e+02
   2.293830e+02  -7.193112e+01
   2.742218e+02   4.148785e+01
   1.163479e+02   1.880290e+02
  -3.225607e+01   1.376541e+02
  -6.980272e+01   1.301727e+02
  -6.827739e+01   7.764024e+01
  -8.574592e+01   1.071570e+02
  -6.613880e+01   1.111982e+02
  -1.241047e+02  -7.367717e+01
  -1.005310e+02  -1.264608e+02
   1.065780e+01  -2.197430e+02
   6.735469e+01  -1.801233e+02
   1.728529e+02  -1.363957e+01
   1.210721e+02   1.256207e+02
  -7.763617e+00   1.604935e+02
  -7.414998e+01   3.813154e+01
  -5.488776e+01  -2.454715e+01
  -7.245735e+00  -4.161653e+01
   1.908711e+01  -5.619367e+00
  -2.501462e+01  -3.038868e+01
  -7.372261e+01  -5.947855e+00
  -5.999889e+01  -2.286487e+00
   7.491189e+01  -1.057162e+01
   1.275380e+02   3.542835e+01
   7.723379e+01   4.008894e+01
   1.179065e+01   8.362691e+01
  -6.123306e+01   9.965334e+01
  -1.232010e+02   2.611674e+01
  -3.981450e+01  -6.436472e+01
   4.048306e+00  -2.097749e+01
   8.322108e+01   7.781402e+01
  -3.833804e+00   6.157449e+01
  -3.084848e+01   3.422847e+01
  -1.092198e+02   9.030446e+00
  -3.468571e+01  -9.355089e+01
  -3.800469e+01  -7.786154e+01
  -1.649199e+01   1.726096e+01
  -6.921184e+01   1.838676e+01
  -2.631888e+01  -6.888351e+01
   9.741097e+01  -1.511654e+02
   1.427319e+02  -1.007344e+02
   9.666135e+01   1.035182e+01
   1.258136e+02   2.603326e+01
  -3.493980e+00   1.028038e+02
  -1.100540e+02   4.045803e+01
  -7.231014e+01  -1.100740e+01
   9.773430e+01  -1.653341e+01
   1.518356e+02   6.353081e+01
   5.321722e+01   1.163951e+02
  -6.385353e+01   8.777489e+01
  -1.884756e+02   3.005070e+01
  -1.523798e+02   3.293528e+01
  -4.284705e+01  -1.244674e+02
   5.645614e+01  -8.762670e+01
   3.150920e+01   3.052285e+01
  -7.190960e+01  -2.411250e+01
  -1.087652e+02  -1.981478e+01
  -3.375904e+01  -9.465419e+01
   1.223647e+02  -1.074880e+02
   2.093837e+02  -3.254884e+01
   1.058748e+02   1.288881e+02
   2.831282e+01   1.805254e+02
  -6.043868e+01   1.087262e+02
  -9.226092e+01  -5.467115e+01
  -5.622030e+01  -1.082311e+02
   2.864562e+01  -6.218295e+01
   3.173713e+00   5.129767e+00
  -1.694523e+00   2.847199e+01
  -5.554325e+00   1.974058e+01
   1.774454e+00  -1.654984e+01
   2.252497e+01   1.879351e+01
   6.592893e+01   8.607629e+01
   8.904851e+00   1.275255e+02
  -3.856036e+01   7.684313e+01
  -1.588113e+02  -6.909516e+01
  -1.356314e+02  -7.426995e+01
  -3.423675e+01  -7.116835e+01
   6.859797e+01  -7.632967e+00
   1.086882e+02   2.257943e+01
  -1.128348e-01   2.650659e+00
  -4.515663e+01   2.739546e+01
   6.833056e+00   3.151680e+01
   1.809568e+01   7.825749e-01
   1.906304e+00   1.634747e+00
  -1.009360e+02  -5.773976e+01
  -6.047092e+01  -1.961080e+01
   3.337132e+00  -6.836804e+01
   1.084652e+02  -1.199170e+02
   2.332132e+02  -1.277134e+01
   1.219939e+02   4.548035e+01
  -1.848896e+01   1.509112e+02
  -1.091877e+02   1.204819e+02
  -1.154753e+02   3.020293e+00
  -5.207004e+01  -4.006545e+01
  -5.724699e+01  -6.286213e+01
  -2.972627e+01   4.391701e+01
   1.682240e+01   2.546037e+01
  -2.127278e+01  -2.060292e+01
  -2.286732e+01  -6.973981e+01
   2.993844e+01  -9.279390e+01
   9.292103e+01   3.408692e+01
   5.706852e+01   1.168123e+02
  -6.937763e-01   5.189290e+01
  -1.151862e+02   5.434014e+01
  -9.143858e+01  -9.934438e+01
  -6.176614e+00  -1.023637e+02
   9.004207e+01  -1.133773e+01
   8.048254e+01   5.623222e+01
   3.832529e+00   7.315344e+01
   3.532618e+00   8.573523e+01
  -3.751461e+01   6.727471e+01
   5.874908e+01   2.256685e+01
   1.084786e+02  -3.089534e+01
   9.448968e+00  -2.146281e+01
  -9.220932e+01   4.269417e+01
  -1.088638e+02   1.741318e+01
  -5.552349e+01   2.447818e+01
   4.419401e+01  -1.267968e+02
   2.497522e+01  -5.469405e+01
   3.425240e+01   5.646189e+01
  -2.341322e+01   6.284875e+01
  -1.262916e+01   1.743235e+01
  -4.553766e+01   1.774591e+01
  -3.042745e+01  -3.891718e+01
  -7.568176e-01  -3.711207e+01
   3.023489e+01   3.619137e+01
  -9.881217e-02   1.658461e+01
   5.348006e+01   1.084703e+01
  -4.734987e+01  -3.374925e+01
  -1.294113e+01   3.381240e+01
  -1.912897e+01   7.797290e+01
  -1.631002e+01   7.129266e+01
  -5.890892e+01  -1.590712e+01
  -2.047190e+01  -5.158529e+01
  -2.465003e+01  -3.230222e+01
   3.559799e+01  -5.774837e+00
   4.749784e+01   3.449462e+01
   4.383360e+00   6.247756e+01
  -4.441607e+01   4.006538e+01
  -9.444380e+01  -5.191326e+01
  -9.499677e+01  -2.533167e+01
   6.859260e+01  -1.483980e+01
   9.781778e+01  -1.391753e+01
   4.034310e+01   2.774099e+01
  -1.632972e+01  -1.625719e+01
  -6.979534e+01  -1.549012e+01
   2.936975e+01   1.709965e+01
   7.920974e+01  -1.189419e+01
