
 $NMID
 id='ANONYMOUS ', fmtdat='(2E16.6)'
 volume=1.0
 tramp=1.0
 $END
   3.292028e+03   4.707050e+02
   2.121065e+03   1.720984e+03
   4.456389e+02   2.337420e+03
  -1.669205e+03   8.980174e+02
  -1.005586e+03   6.783258e+01
  -1.101646e+02  -2.234189e+02
   2.422273e+02   8.033748e+01
   1.505643e+01   6.964133e+02
  -5.275446e+02   5.499109e+02
  -7.601379e+02  -7.847509e+01
  -4.682242e+02  -6.014114e+02
   1.149519e+02  -6.056380e+02
   3.506039e+02  -1.548960e+02
   2.289840e+02   5.049080e+02
  -1.953719e+02   5.187059e+02
  -4.123444e+02  -2.185051e+01
  -3.549579e+02  -5.238168e+02
   1.135982e+02  -5.953012e+02
   3.649940e+02  -2.259293e+02
   3.648293e+02   2.112168e+02
   5.422998e+01   3.478606e+02
  -9.795719e+01   2.234071e+02
  -6.878804e+01   9.910794e+00
   1.622430e+02   8.984558e+01
   3.426820e+02   2.170994e+02
   4.146247e+01   3.923013e+02
  -3.806321e+02   2.261314e+02
  -6.915106e+02  -2.388113e+02
  -2.736331e+02  -4.275596e+02
   3.488770e+02  -1.072015e+02
   4.798602e+02   1.262688e+02
   2.173980e+02   3.724503e+02
  -3.373320e+02   3.218725e+02
  -4.973747e+02   6.606672e+01
  -3.747660e+02  -1.726562e+02
  -9.840910e+01  -3.484213e+02
   1.594249e+02  -1.819411e+02
  -4.437650e+01   9.081819e+01
  -1.345214e+02   1.922230e+02
  -2.383746e+02  -1.154077e+02
   2.463387e+01  -5.912058e+02
   2.220021e+02  -4.409226e+02
   3.502505e+02   4.586352e+00
   8.268022e+01   3.893108e+02
  -1.676023e+02   1.551544e+02
  -2.243426e+02  -3.112483e+02
   1.121752e+02  -4.010878e+02
   4.502690e+02  -1.178420e+02
   5.049144e+02   4.726090e+02
   1.761508e+02   5.023300e+02
  -3.344711e+02   2.091460e+02
  -5.423506e+02  -5.327783e+01
  -3.448153e+02  -2.863429e+02
   9.273101e+01  -1.865261e+02
   3.361688e+02  -4.174364e+01
   2.073244e+02   7.155176e+01
  -5.928448e+01   7.934528e+01
  -3.368959e+01  -1.949897e+01
   9.063706e+01  -5.466855e+01
   2.395640e+02   3.062773e+01
   1.300901e+02   2.051387e+02
  -1.810235e+02   2.892356e+02
  -3.568451e+02   1.326035e+02
  -2.786340e+02  -1.009431e+02
   2.899423e+01  -2.998861e+02
   2.782418e+02  -3.456119e+02
   3.353719e+02  -1.635396e+02
   2.243917e+02   1.783068e+02
   6.136672e+00   3.975246e+02
  -5.529382e+01   3.514390e+02
  -3.334575e+01   1.897647e+02
  -3.675110e+01   5.415689e+01
  -1.057703e+02   1.224961e+02
  -2.072230e+02   7.331323e+01
  -1.912477e+02  -1.479451e+02
  -8.845725e+01  -2.506714e+02
   7.053607e+01  -2.108549e+02
   1.826604e+02   8.382084e+01
   1.377771e+02   1.954724e+02
  -9.165047e+01   2.384509e+02
  -3.199981e+02   3.014668e+01
  -2.694947e+02  -1.569801e+02
  -1.743261e+02  -3.443896e+02
   1.118575e+02  -2.063161e+02
   1.689038e+02  -1.183810e+02
   1.068142e+02  -3.341882e+01
   1.535257e+02  -9.459831e+01
   2.614723e+02  -1.813807e+01
   4.355492e+02   7.042677e+01
   3.120146e+02   3.437063e+02
  -2.859315e+01   4.459503e+02
  -4.069195e+02   3.859186e+02
  -5.217494e+02   1.857055e+02
  -2.824560e+02  -1.268364e+02
  -1.379587e+01  -2.493494e+02
   1.052457e+02  -1.863104e+02
   3.633152e+00  -1.050918e+01
  -1.281608e+02   5.733168e+01
  -1.691967e+02  -1.661005e+01
  -3.484456e+00  -1.190468e+02
   1.085777e+02  -6.593468e+01
   1.347720e+02   6.987084e+01
  -5.678904e+01   1.554987e+02
  -1.737677e+02  -1.072572e+00
  -1.480224e+02  -2.235077e+02
   3.639709e+01  -3.416004e+02
   2.273307e+02  -2.197619e+02
   3.970308e+02   9.578028e+01
   3.361386e+02   2.839332e+02
   2.900498e+01   2.611093e+02
  -1.138222e+02   1.565347e+02
  -1.756269e+02  -2.335244e+01
  -5.536796e+01  -2.138293e+01
   3.593988e+01   5.730641e+01
  -9.833523e+00   7.984622e+01
  -1.384307e+02   4.964403e+01
  -1.206680e+02  -7.990146e+01
  -9.014606e+01  -3.688584e+01
   5.350527e+01  -2.422531e+00
   7.660384e+01   1.023287e+02
  -1.386122e+02   9.049439e+01
  -2.550590e+02  -4.248009e+01
  -2.689045e+02  -1.543809e+02
   4.221270e+01  -2.198884e+02
   2.204127e+02  -2.346036e+02
   3.040825e+02  -8.870631e+01
   1.204291e+02   7.297190e+01
  -3.591607e+01   8.493294e+01
  -8.034146e+01   1.063223e+01
   3.994971e+01  -9.048113e+01
   1.780416e+02  -1.143307e+01
   1.996229e+02   1.183964e+02
   7.029557e+01   2.054793e+02
  -1.136879e+02   1.318013e+02
  -2.020858e+02   2.190825e+01
  -3.674483e+01  -3.720508e+01
   1.105311e+02  -1.621450e+01
   2.297891e+01   8.916819e+01
  -7.012815e+01   9.321555e+01
  -1.992235e+02  -1.982964e+00
  -2.106749e+02  -1.125014e+02
  -1.434752e+01  -1.684270e+02
   1.867824e+02  -1.164831e+02
   1.762582e+02  -2.907971e+01
   6.396348e+01   7.793232e+01
  -5.448538e+01   9.995072e+01
  -6.324349e+01  -1.432173e+01
   4.318940e+01  -3.285865e+01
   5.179369e+01   2.257910e+01
  -4.896811e+00   4.655332e+01
  -1.057885e+02   3.782614e+01
  -1.237803e+02  -1.069060e+02
  -2.575422e+01  -1.557583e+02
   1.422792e+02  -1.281079e+02
   2.305433e+02   3.397351e+01
   1.657984e+02   1.697923e+02
   1.597749e+01   2.252112e+02
  -1.222030e+02   1.720206e+02
  -1.226873e+02   2.411436e+01
  -7.637147e+01  -3.557138e+01
  -4.933786e+01  -3.202811e+01
  -4.591663e+01   3.112155e+00
  -8.085532e+01   1.207161e+01
  -6.130177e+01  -5.657855e+01
   8.251725e+01  -1.277376e+02
   1.179632e+02  -7.095974e+01
   1.041738e+02   6.285709e+01
  -7.889061e+00   9.226827e+01
  -1.798998e+02   9.881478e+01
  -2.719218e+02  -7.163919e+01
  -4.994779e+01  -2.328130e+02
   1.290668e+02  -2.103615e+02
   2.767791e+02  -1.677264e+02
   2.748433e+02   4.699753e+01
   1.069261e+02   1.817983e+02
  -5.708627e+01   1.515613e+02
  -6.915685e+01   6.271880e+01
  -5.902633e+01   5.788472e+01
  -3.735519e+01   6.470660e+01
  -1.378079e+02   8.305572e+01
  -1.682034e+02  -1.803918e+01
  -1.289802e+02  -2.095880e+02
  -7.824049e+01  -2.184106e+02
   7.816393e+01  -1.707962e+02
   1.825559e+02   1.666292e+01
   1.019788e+02   8.637548e+01
   4.462869e+01   1.367977e+02
  -9.248863e+01   7.899582e+01
  -5.037531e+01   7.028203e+00
   1.961201e+01  -8.489535e+01
   2.312705e+01  -3.649800e+01
  -1.807788e+01  -3.935884e+01
  -1.179527e+02  -6.310952e+01
  -3.626475e+01  -3.660624e+01
   6.148401e+01  -3.306504e+01
   1.574988e+02  -4.579207e+01
   1.491597e+02   7.769867e+01
  -5.004997e+00   1.224602e+02
  -1.530358e+02   5.638842e+01
  -1.699693e+02   2.421708e+01
  -3.720413e+01  -2.230586e+01
   8.304057e+01  -6.007623e+01
   6.467515e+01   2.153633e+01
   5.127016e+01   6.427807e+01
  -5.931528e+01   5.980996e+01
  -3.618475e+01  -2.991411e+01
  -7.781166e+01  -4.013992e+01
  -4.466660e+01  -3.550187e+01
  -3.461487e+01  -2.327302e+01
  -5.611786e+01   1.777445e+01
  -8.426561e+01  -9.538257e+01
   4.760875e+00  -1.322733e+02
   1.567850e+02  -1.131152e+02
   1.738407e+02  -1.900713e+01
   1.752676e+02   9.434341e+01
   2.180107e+01   1.265198e+02
  -9.195400e+01   6.854421e+01
  -1.014667e+02  -2.980450e+00
   9.349477e+01  -4.868043e+01
   1.246041e+02   3.184618e+00
   4.727293e+01   1.230202e+02
  -1.034295e+02   8.588000e+01
  -1.632117e+02   1.056916e+02
  -1.811326e+02  -6.100708e+01
  -3.323081e+01  -8.460564e+01
   6.260073e+01  -2.066527e+01
   5.340945e+01   1.424515e+01
  -1.256451e+01   2.984069e+01
  -1.128557e+02  -1.263952e+01
  -4.559059e+01  -9.948966e+01
   5.479296e+01  -1.747521e+02
   1.441760e+02  -8.487092e+01
   1.385915e+02   8.084735e+01
   3.665608e+01   1.959387e+02
  -7.893624e+01   1.477850e+02
  -1.079824e+02   3.073180e+01
  -1.811051e+01  -1.410678e+02
   1.860494e+01  -1.503622e+02
   4.315512e+01  -3.003602e+01
   3.555553e+01   1.836339e+01
   1.307916e+01   3.554475e+01
   4.484245e+01  -1.277412e+01
   5.430371e+01  -2.653656e+01
   9.137124e-01   9.089164e+01
   3.595064e+01   9.663787e+01
  -1.721321e+01   2.708032e+01
  -1.546705e+02  -4.826814e+01
  -1.336981e+02  -2.448617e+01
  -1.889358e+01  -2.389735e+01
   8.598206e+01  -3.763244e+01
   9.597949e+01  -1.639147e+01
   2.574983e+01   3.542775e+01
  -2.599313e+01   1.252421e+00
   6.346960e+00  -1.557738e+01
  -3.932267e+01   7.882389e+00
   1.785649e+00  -1.355133e+01
  -4.173122e+01  -1.309304e+00
  -9.531216e+01   2.327146e+01
  -7.718704e+01  -6.270558e+01
   1.118605e+02  -1.190920e+02
   2.074556e+02  -1.015540e+02
   1.819314e+02   9.358627e+01
   1.655367e+01   1.466520e+02
  -8.420434e+01   1.425433e+02
  -1.615560e+02   7.272856e+01
  -8.166546e+01  -4.357705e+01
  -1.548227e+01  -3.374471e+01
   8.118763e+00  -8.195238e+00
   1.551859e+01   3.994028e+00
  -6.265798e+01  -1.024810e+02
  -3.668976e+01  -1.328317e+02
   7.095823e+00  -5.215341e+01
   8.439541e+01   4.542072e+01
   1.062612e+02   1.052853e+02
   1.880345e+01   1.308640e+02
  -8.562208e+01   4.329955e+01
  -9.674056e+01  -1.021685e+02
  -6.517288e+01  -9.824801e+01
   2.816640e+01  -7.917146e+01
   1.199763e+02  -4.214035e+01
   2.908849e+01   7.007150e+01
  -3.865713e+01   1.032968e+02
  -2.907782e+01   3.141880e+01
   4.183229e+01   8.240504e+00
   6.595495e+01  -1.964705e+01
   9.112563e+00  -1.133898e+00
  -9.345816e+01   3.800243e+01
  -1.433501e+02   7.617415e+01
  -3.231074e+01  -9.093502e+00
   3.021304e+00  -4.916377e+01
   3.099210e+01  -9.049425e+01
   7.214227e+01   1.261172e+01
   1.858143e+01   3.546851e+01
   1.534073e+01   2.937148e+01
  -1.216394e+01  -1.868155e+01
  -3.377973e+00  -7.921706e+01
  -4.553687e+00  -2.532511e+01
   1.023325e+02  -1.550091e+00
   5.113462e+01   4.206287e+00
   4.247679e+01   1.929188e+00
   1.606132e+01  -7.143706e+00
   1.704241e+00  -4.644531e+01
   1.057897e+00   2.525594e+01
   5.437704e+01   8.027666e+01
  -6.032721e+01  -4.486082e+00
  -3.059611e+01  -3.325441e+01
  -2.739665e+01  -7.779035e+01
   4.335987e+01  -1.464870e+01
   5.742686e+01   4.751712e+01
   2.137631e+01   7.851086e+01
   3.679191e+01   3.281791e+01
  -1.179954e+02  -2.770753e+01
  -5.945037e+01  -2.602066e+01
   4.601826e+01  -3.908296e+01
   4.690322e+01  -2.261668e+01
   3.837642e+01  -1.428612e+01
  -3.349536e+01   3.890451e+00
  -4.190823e+01   2.740212e+00
   5.274319e+01  -7.306113e+01
   7.409500e+01  -3.954094e+01
