
 $NMID
 id='ANONYMOUS ', fmtdat='(2E16.6)'
 volume=1.0
 tramp=1.0
 $END
  -1.455964e+03  -4.181347e+02
  -9.840654e+02  -1.124384e+03
  -7.787649e+01  -1.312511e+03
   8.631313e+02   1.402446e+02
   3.909607e+02   2.200441e+02
  -1.374062e+02   2.695303e+02
  -1.342930e+02  -1.361522e+02
  -1.515976e+01  -2.872804e+02
   3.199423e+02  -1.421131e+02
   2.103714e+02   4.228683e+01
   1.493998e+02   4.011463e+02
  -1.636758e+02   2.786671e+02
  -1.731683e+02  -1.653064e+01
  -1.362842e+01  -2.154906e+02
   1.737810e+02  -2.234513e+02
   1.548303e+02   1.230579e+02
   1.358791e+02   2.392879e+02
  -1.056248e+02   2.924314e+02
  -2.629670e+02  -2.483750e+00
  -2.104313e+01  -2.054407e+02
   2.355855e+01  -2.663390e+02
   9.991079e+01  -5.036098e+01
   6.626702e+01  -4.630877e+00
  -4.312137e+01  -9.315144e+01
  -8.283268e+01  -1.442990e+02
  -7.634927e+00  -1.606617e+02
   1.809411e+02  -1.082871e+02
   3.027255e+02   1.586985e+02
   9.689545e+01   1.343434e+02
  -2.400682e+02   4.147114e+01
  -1.601278e+02  -2.269059e+01
  -1.218742e+02  -2.401592e+02
   1.984991e+02  -9.588889e+01
   1.930583e+02   4.841032e+01
   1.495988e+02   1.292915e+02
  -8.876062e+01   1.572788e+02
  -6.571755e+01   1.189943e+02
  -4.199587e+01  -7.743114e+01
   1.094548e+02  -1.420156e+02
   1.012144e+02   1.176953e+02
  -3.347321e+01   2.737326e+02
  -1.551687e+02   2.572568e+02
  -1.542361e+02   6.752090e+01
  -1.151248e+02  -1.903946e+02
   7.009905e+01  -9.824408e+01
   5.992374e+01   1.467218e+02
  -9.312287e+01   2.124793e+02
  -2.285010e+02   6.572612e+01
  -1.724322e+02  -3.194047e+02
  -3.225909e+01  -1.782503e+02
   1.646437e+02  -6.776725e+01
   2.319184e+02   8.588661e+01
   1.875485e+02   1.286325e+02
  -7.780715e+01   3.389285e+00
  -1.782793e+02  -3.400273e+01
  -4.065755e+01  -5.792165e+01
   4.021909e+01  -3.378195e+01
   1.117781e+01   6.947600e+01
  -9.580247e+01  -1.970205e+01
  -1.678075e+02  -1.921785e+01
  -5.703570e+01  -1.269943e+02
   1.290161e+02  -1.109130e+02
   1.540118e+02  -2.056094e+01
   1.147697e+02   7.084751e+01
  -5.044714e+01   1.026319e+02
  -1.859254e+02   7.956688e+01
  -2.379381e+02  -3.183091e-01
  -8.793125e+01  -7.213439e+01
   4.908748e+01  -1.400771e+02
   2.214393e+01  -1.883314e+02
   8.072828e+01  -2.336570e+01
   2.621446e+01   1.681234e+01
   7.869403e+01  -1.594463e+01
   2.413669e+01  -3.536084e+01
   8.108532e+01   5.774449e+01
   4.651300e+01   6.337923e+01
  -6.003632e+01   2.646864e+01
  -5.060221e+01  -5.812475e+01
  -6.088754e+01  -1.112202e+02
   4.801407e+00  -1.372480e+02
   9.474851e+01   4.806263e+01
   1.159979e+02   5.220762e+01
   6.092797e+01   1.311019e+02
  -6.165324e+01   1.306172e+02
  -9.952387e+01   4.136577e+01
  -1.155194e+02  -1.289855e+00
  -7.745518e+01   1.340425e+01
  -9.245830e+01  -1.973044e+01
  -2.110472e+02  -7.675740e+01
  -1.345356e+02  -1.846288e+02
   2.762878e+01  -1.972862e+02
   1.439663e+02  -1.188400e+02
   2.421656e+02   6.397708e+00
   1.106953e+02   8.017729e+01
  -5.212878e+01   1.139397e+02
  -4.970201e+01   5.359991e+01
  -1.249477e+01   1.095061e+01
   5.313985e+01   2.960484e+00
  -3.374572e+00   8.398349e+01
  -5.343458e+01   5.052520e+01
  -8.981967e+01   1.407437e+00
  -5.582974e+00  -1.726546e+01
   1.298219e+01  -3.141363e+01
   1.208001e+02   8.784367e+00
   5.042145e+01   1.146681e+02
   1.833344e+01   1.434212e+02
  -1.336178e+02   7.869306e+01
  -1.424095e+02  -4.300218e+01
  -8.431694e+01  -1.559224e+02
  -7.337885e+01  -1.024455e+02
  -4.876381e+01   1.595597e+01
   7.415141e+01   2.358647e+01
   2.051800e+01   2.681949e+01
  -1.821244e+01  -3.699680e+01
   5.993055e+00  -4.331550e+01
   8.304272e+01  -3.500349e+01
   2.592045e+01   2.431050e+01
   1.142334e+01   5.534357e+01
  -5.127207e+01   1.531314e+00
   1.728414e+01   1.871376e+00
   5.865811e+01  -1.680445e+01
   1.691060e+02   2.441838e+01
   7.441367e+01   1.549545e+02
  -2.966954e+00   1.002827e+02
  -1.065807e+02   4.930980e+01
  -8.353379e+01   1.124410e+01
  -8.450986e+01  -6.433956e+00
   5.052794e+01  -4.962947e+01
   1.841198e+01   1.530954e+01
  -3.367093e+01   9.588189e+01
  -9.166514e+01   4.673915e-01
  -4.300383e+01  -9.703410e+01
  -1.316386e+01  -7.853229e+01
   2.353281e+01  -4.251724e+01
   3.503964e+01   2.691442e+01
   3.386961e+01   6.453274e+00
   1.595533e+01  -3.294588e+01
  -5.402991e+00  -5.953007e+01
   5.291999e+01   1.718227e+00
   7.759490e+01   3.259283e+01
   1.166699e+02   4.926323e+01
   6.664295e+00   5.884479e+01
  -1.083578e+02   6.589737e+01
  -6.169683e+01   9.776963e+00
  -2.308445e+01  -5.169337e+01
   2.353273e+01  -2.023598e+01
   1.081055e+01  -7.057470e+01
   8.757296e+00   1.238052e+01
  -3.639699e+01   1.342055e+00
  -1.692289e+01  -3.353827e+00
   2.424894e+01  -2.506815e+01
   3.189449e+01   8.305776e+01
   2.572176e+01   9.112161e+01
  -8.815757e+01   5.352029e+01
  -8.092017e+01  -1.133965e+01
  -8.382320e+01  -3.172193e+01
   3.040823e+01  -8.152410e+01
   4.539464e+01  -6.140669e+01
   5.470059e+01   1.815046e+01
   2.148791e+01   7.947058e+00
  -1.540708e+01   1.731046e+01
  -1.411292e+01  -9.195221e+00
   3.081860e+01   3.088617e+01
  -2.649626e+00   1.494412e+01
  -2.631634e+01   4.211683e+01
  -6.375693e+01   2.664287e+01
  -1.530994e+01  -6.829594e+01
   4.932168e+01  -6.289883e+01
   6.078920e+01   5.267155e+01
   5.772739e+01   2.887022e+01
  -2.310102e+01   1.058281e+02
  -1.225353e+02   4.809387e+01
  -1.036495e+02  -5.279031e+00
  -1.192698e+02  -4.583146e+01
  -6.267444e+01  -1.013572e+02
   5.377334e+01  -4.445692e+01
   2.999970e+01  -2.968372e+01
   5.696937e+01  -4.573260e+01
   6.643230e+01  -6.997012e+01
   4.181541e+01  -3.222553e+01
   4.715024e+01   2.345204e+01
   5.970168e+01   8.011601e+01
   1.208546e+01   8.586696e+01
  -5.073320e+01   6.476749e+01
  -6.813596e+01  -5.587027e-01
  -2.811071e+01  -5.216243e+01
   1.947599e+01  -1.145898e+02
   2.697558e+01  -3.163700e+01
  -4.592958e-01   1.672602e+01
  -2.877141e+01   3.204940e+01
  -3.160410e+01  -1.958991e+01
  -1.193950e+01  -1.044033e+01
   2.772155e+01   1.884741e+01
   3.063444e+00   4.265332e+01
  -4.628809e+01   1.675820e+01
  -6.964579e+01   3.517070e+01
  -6.929716e+01  -1.793256e+01
  -3.751496e+01  -5.321956e+01
   7.049630e+01  -5.075368e+01
   3.062760e+01   7.902434e+00
  -4.494468e+00   4.834373e+00
  -5.009470e+01   2.497225e+01
  -1.818105e+01  -1.230147e+01
  -2.206173e+01  -1.409120e+01
   6.485166e+01   6.837720e+00
   2.048510e+01  -2.835242e+00
   2.307105e+01   5.590748e+00
   3.140139e+01   7.938315e+00
  -8.526071e+00  -1.989810e+01
   4.783271e+01   9.813277e+00
   3.038721e-02   6.633942e+01
  -4.409788e+01   2.598455e+01
  -3.445133e+01   3.796022e+01
  -5.996661e+01   2.428358e+00
  -3.567736e+01  -6.895105e+01
  -1.010605e+01  -7.691083e+01
   1.116811e+01  -6.108098e+01
   3.538879e+01   3.244344e+01
  -4.055319e+01   3.331977e+01
  -6.156658e+01   1.422442e+01
  -1.339983e+01  -5.309481e+01
   5.180882e+01  -2.729960e+01
   7.543824e+01  -2.248981e+01
   7.619333e+01  -8.200482e+00
   3.436977e+01   1.755987e+01
  -2.740894e+01   1.544124e+01
  -2.422368e+01  -2.000735e+01
   2.320417e+01  -1.273514e+01
   2.015510e+01   2.080131e+01
   2.216578e-01   4.519816e+01
  -4.148768e+01   6.735678e+01
  -8.740687e+01  -2.639846e+00
  -5.354979e+01  -7.217833e+01
  -7.167014e-01  -8.582667e+01
   6.314308e+01  -5.946426e+01
   1.779739e+01  -2.036901e+00
   6.524773e+00   4.965781e+01
  -3.541714e+01   4.003599e+01
  -2.332522e+01   3.625543e+01
  -4.317313e+01  -3.518679e+01
   6.522465e+00   1.384662e+01
  -2.797798e+01  -3.221451e+01
   2.259161e+01  -4.277466e+01
   9.701168e+00  -3.668097e+01
  -8.795523e+00  -3.372091e+01
   4.282842e+01  -3.295150e+01
   7.753809e+01  -1.409496e+01
   3.566641e+01   7.706813e+00
  -1.403732e+01   2.685966e+01
  -2.364146e+01   1.608591e+01
  -8.818087e+00   1.950999e+01
  -1.535121e+01  -6.752761e+01
   2.067181e+01  -1.852834e+01
   5.374193e+01   3.194155e+01
   1.346840e+01  -1.614005e+01
   1.962979e+01  -1.665941e+00
  -3.261346e+01   1.572891e+01
   1.986616e+01   3.202193e+01
   1.569736e+01   4.292591e+01
  -3.669129e+01   3.532915e+01
  -6.532824e+01  -8.572385e+00
  -7.411589e+01  -3.802171e+01
   5.194955e+01  -6.000123e+01
   6.616555e+01  -8.257346e+01
   1.137426e+02  -3.523681e+01
   5.014732e+01   9.027917e+00
  -2.677048e+01   6.065755e+01
  -1.761053e+01  -2.815902e+00
  -8.398588e+00  -5.790324e-01
   5.007957e+01   6.126606e+01
   3.886391e+01   7.293815e+01
  -3.257602e+01   4.328470e+01
  -1.902129e+01  -7.480455e+00
  -2.406137e+01  -5.051866e+01
   1.965260e+01  -6.660969e+01
   4.602556e+01  -1.511762e+01
   5.059346e+01   2.649692e+01
   1.280906e+01  -1.136331e+00
  -2.587326e+01  -2.848302e+01
  -2.520139e+01  -8.884950e+00
  -9.004299e+00   1.589235e+01
   4.268763e+01  -2.486741e+01
   1.481010e+01   1.719483e+01
   4.038487e+01  -1.427331e+01
  -3.456177e+01  -3.712074e+01
  -2.552878e+01  -1.247591e+01
   9.720326e+00  -6.735952e+01
   5.819498e+01  -6.541507e+01
  -1.345354e+01  -1.585872e+01
  -1.298977e+01   5.229365e+01
  -6.338267e+01   3.927439e+01
  -3.635143e+01   3.895810e+01
  -5.191818e+00  -3.431763e+01
   2.937621e+01  -6.204956e+01
  -2.582602e+01   3.326763e+01
  -4.095544e+01   5.550326e+01
  -3.262670e+00   2.966647e+01
   7.745747e+00  -5.321054e+01
   1.222372e+01  -1.277347e+01
   1.149748e+01  -5.270833e+00
  -3.128906e+01  -1.473306e+00
  -4.267756e+00   2.246362e+01
   1.454689e+01   3.561942e+00
   3.516205e-01  -2.983297e+01
   1.221762e+01  -1.787171e+00
   8.992817e+00   5.036969e+00
  -4.074282e+01   6.160399e+01
  -1.297348e+01  -5.544416e+00
  -1.738360e+01  -4.501113e+01
   5.740157e+00  -2.985817e+01
   1.778441e+00  -7.480344e+00
   2.626420e+01   3.235432e+01
   1.960176e+01   7.096247e+01
  -4.256652e+01   1.409521e+01
  -1.181122e+01   3.196236e+01
   7.222308e+00  -3.673793e+00
   1.797192e+01   2.949374e+01
   1.308553e+01   5.538944e+01
   5.272222e+01   2.594525e+01
  -3.236680e+01   2.582332e+01
