
 $NMID
 id='ANONYMOUS ', fmtdat='(2E16.6)'
 volume=1.0
 tramp=1.0
 $END
  -3.388767e+03  -5.303639e+02
  -2.212065e+03  -2.416845e+03
   2.625245e+02  -2.462571e+03
   1.566361e+03  -8.277893e+02
   8.914477e+02   2.782836e+02
  -3.849261e+02   4.246383e+02
  -4.283439e+02  -2.999820e+02
  -1.156586e+01  -6.475323e+02
   5.650996e+02  -5.142604e+02
   6.144858e+02   6.843146e+01
   4.376072e+02   6.422955e+02
  -5.365658e+01   5.075468e+02
  -4.035258e+02   9.828498e+01
  -1.571715e+02  -5.244174e+02
   3.074758e+02  -4.941820e+02
   4.687190e+02   1.431581e+02
   1.362308e+02   4.536135e+02
  -3.170754e+02   5.970364e+02
  -5.132281e+02   1.019472e+02
  -3.328229e+02  -2.413265e+02
  -6.093858e+01  -3.668352e+02
   2.118994e+02  -2.271040e+02
   1.259980e+02  -8.491083e+00
  -1.006927e+02  -3.620857e+01
  -2.592097e+02  -2.590393e+02
   1.930763e+01  -3.246858e+02
   5.133310e+02  -1.624097e+02
   6.360337e+02   1.942608e+02
   2.483219e+02   3.005909e+02
  -4.448450e+02   3.011429e+02
  -5.088495e+02  -1.039679e+02
  -1.532854e+02  -3.655085e+02
   3.204955e+02  -3.105950e+02
   4.544250e+02  -1.291839e+02
   3.185248e+02   2.408821e+02
   1.293101e+02   3.441272e+02
  -1.218256e+02   1.808217e+02
   2.517493e+01  -1.305505e+02
   2.165264e+02  -2.058740e+02
   2.334962e+02   5.232395e+01
  -2.648166e+01   5.600947e+02
  -2.804216e+02   5.399548e+02
  -4.562896e+02   6.103947e+01
  -1.390561e+02  -3.773774e+02
   1.357129e+02  -1.975083e+02
   1.597593e+02   3.314163e+02
  -2.324636e+02   3.575903e+02
  -4.787489e+02  -7.717447e+00
  -3.846390e+02  -4.672063e+02
  -1.397085e+02  -4.842188e+02
   3.052520e+02  -2.201764e+02
   5.553844e+02   5.561536e+01
   3.883490e+02   3.376896e+02
  -5.904314e+01   2.168322e+02
  -2.899887e+02   1.058788e+00
  -1.203558e+02  -1.242870e+02
   1.379658e+01  -4.499535e+01
   8.191933e+01   4.208574e+01
  -9.636331e+01   7.079790e+01
  -3.174282e+02  -4.487195e+01
  -8.818744e+01  -2.497048e+02
   2.502887e+02  -2.230005e+02
   3.686590e+02  -8.429994e+01
   2.001564e+02   7.647689e+01
  -6.039323e+01   2.409661e+02
  -2.994202e+02   2.252959e+02
  -3.699171e+02   8.735611e+01
  -2.241221e+02  -1.911272e+02
   3.317459e+01  -3.230757e+02
   3.869938e+01  -3.978904e+02
   4.974581e+01  -1.707398e+02
   4.431338e+01  -1.646326e+01
   1.768992e+02  -8.027149e+01
   2.018669e+02  -2.672722e+00
   2.109459e+02   1.462037e+02
   1.459927e+02   2.419227e+02
  -1.507152e+02   1.557636e+02
  -1.868823e+02  -2.276970e+01
  -1.612717e+02  -2.479059e+02
   1.170826e+02  -2.188106e+02
   2.161457e+02  -1.747335e+01
   2.354227e+02   2.285373e+02
   1.490622e+02   3.048200e+02
  -1.387783e+02   2.697173e+02
  -1.992706e+02   1.089180e+02
  -1.656838e+02  -1.546889e+00
  -7.326164e+01   1.602681e+01
  -2.413119e+02  -1.197405e+01
  -3.445003e+02  -9.896798e+01
  -2.449733e+02  -2.821660e+02
   8.264246e+01  -4.010481e+02
   3.361293e+02  -2.866618e+02
   4.709488e+02  -1.961596e+02
   2.695207e+02   1.682954e+02
  -3.732045e+01   2.447979e+02
  -1.079343e+02   1.871587e+02
  -4.261008e+01   3.727809e+00
   1.059480e+02  -3.922702e+01
   1.367434e+02   1.164360e+02
  -5.965778e+00   1.655374e+02
  -1.824116e+02   9.884186e+01
  -8.719159e+01  -5.005977e+01
   2.761930e+01  -1.196551e+02
   1.583860e+02   4.197896e+01
   1.307634e+02   2.369038e+02
  -5.853967e+01   3.034174e+02
  -2.870909e+02   1.504351e+02
  -3.186424e+02  -1.018060e+02
  -2.642955e+02  -2.120006e+02
  -1.480777e+01  -2.281976e+02
   1.148540e+02  -1.121040e+02
   1.481942e+02   3.178435e+00
   4.738895e+01   3.690637e+01
  -2.482128e+01  -7.236387e+01
   3.230156e+00  -1.240351e+02
   1.105183e+02  -7.406467e+01
   1.054919e+02   6.373311e+01
   5.255797e+01   9.743626e+01
  -6.059252e+01  -1.506342e+01
  -5.210204e+01  -6.123126e+01
   1.509992e+02  -5.113981e+01
   2.538658e+02   3.132286e+01
   2.357234e+02   2.203209e+02
  -3.171618e+01   2.449077e+02
  -2.514353e+02   1.666269e+02
  -2.296831e+02   4.538544e+01
  -1.067845e+02  -6.616878e+01
   3.559133e+01  -6.489728e+01
   5.992969e+01  -1.358949e+01
  -3.008621e+01   5.573036e+01
  -1.902679e+02   4.665736e+01
  -1.216376e+02  -1.157491e+02
  -4.545566e+01  -1.670364e+02
   1.264521e+02  -7.314439e+01
   9.417982e+01  -5.193553e+01
   3.748339e+01   6.138495e+01
  -5.819113e+01  -1.499992e+01
  -8.182692e+01  -1.162566e+02
   1.394601e+02  -6.383551e+01
   2.063408e+02   2.355888e+01
   1.559597e+02   1.421875e+02
   8.379830e+00   2.251965e+02
  -1.735163e+02   1.624176e+02
  -1.419835e+02  -3.628007e+01
  -6.083412e+01  -7.980503e+01
   9.977668e+01  -6.749173e+01
   9.612124e+01  -1.951472e+01
  -4.293838e+00   6.432351e+01
  -4.884592e+01   1.613659e+01
   1.351136e+01  -4.542856e+01
   1.077418e+02   3.708502e+01
   9.810888e+01   1.195224e+02
  -6.559831e+00   1.746627e+02
  -1.791804e+02   9.333608e+01
  -2.328158e+02  -4.083121e+01
  -2.006988e+02  -2.177168e+02
  -1.077774e+01  -2.173817e+02
   1.009191e+02  -1.096803e+02
   1.082141e+02  -9.739809e+00
   6.377007e+01   8.078835e+01
   3.967210e+01   4.556774e+01
   8.619463e+01  -4.743855e+00
   9.727723e+01   2.507756e+01
   2.038397e+01   5.801851e+01
  -5.638000e+01   1.167230e+02
  -1.012073e+02   2.151430e+01
  -1.179108e+02  -1.214087e+01
   1.558891e+01  -8.644073e+01
   1.646988e+02  -7.332278e+01
   1.682467e+02   9.307474e+01
   2.590187e+01   1.902508e+02
  -1.704120e+02   1.952965e+02
  -2.630879e+02   3.880725e+01
  -2.546401e+02  -1.108321e+02
  -1.076920e+02  -2.071017e+02
   7.228253e+01  -8.935469e+01
   6.988430e+01  -1.041811e+02
   6.309986e+01  -5.545350e+01
   6.017214e+01  -6.892213e+01
   1.066930e+02  -6.687581e+01
   1.739402e+02   1.914017e+01
   1.168034e+02   1.882095e+02
   1.781833e+00   2.096989e+02
  -9.329197e+01   1.478919e+02
  -1.583393e+02   2.406026e+01
  -1.066908e+02  -1.450757e+02
  -1.512538e+00  -1.551354e+02
   1.033592e+02  -7.208434e+01
   4.879791e+01  -1.062932e+01
   1.941538e+01   3.697832e+01
  -6.877261e+00   1.810654e+00
   2.953837e+01  -2.009930e+01
   6.091465e+01   1.428619e+01
   7.931727e+01   4.826612e+01
  -6.840710e+01   8.064904e+00
  -1.557994e+02  -4.550335e+01
  -1.145843e+02  -2.415300e+01
  -3.944925e+00  -1.047322e+02
   1.319414e+02  -7.662096e+01
   1.257579e+02   9.320134e+00
   6.557133e+01   6.547337e+01
  -4.297247e+01   4.541101e+01
  -8.256240e+01  -4.379537e+01
  -1.422453e+01  -8.784801e+01
   4.172069e+01  -5.331673e+01
   6.154646e+01  -2.488470e+01
   9.765006e+01   8.507593e+01
   4.390220e+01   2.732925e+01
   8.593736e+01   2.329467e+01
   5.812916e+01   2.922394e+01
   5.890268e+01   6.785037e+01
  -8.895799e+01   1.411872e+02
  -1.304956e+02   9.192832e+01
  -1.179393e+02   4.483714e+01
  -1.484576e+02  -8.961756e+01
  -1.856174e+01  -1.228699e+02
   7.224773e+01  -9.135560e+01
   6.064000e+01   1.765561e+01
  -4.550582e+01   4.107521e+01
  -1.284696e+02  -3.285253e+01
  -1.434735e+01  -7.072802e+01
   8.649764e+01  -1.193345e+02
   1.533549e+02  -4.217292e+01
   1.298027e+02   8.046466e+01
   3.348438e+01   9.634842e+01
  -6.665859e+01   3.273404e+01
  -4.839805e+01   2.406055e+00
   6.209994e+01   2.208037e-01
   1.124989e+02   6.108865e+01
   4.254680e+01   1.115401e+02
  -1.120905e+02   1.374851e+02
  -1.906437e+02   6.146404e+01
  -8.859594e+01  -1.551881e+02
  -4.068668e+01  -1.668819e+02
   1.048094e+02  -1.458356e+02
   7.551773e+01   4.195484e+00
  -1.136639e+01   8.286299e+01
  -7.674675e+01   9.242255e+01
  -3.361690e+01  -6.174459e+00
  -3.394073e+01  -1.318403e+01
  -4.863578e+01   1.207031e+01
   2.116761e+01  -1.845479e+01
  -4.615702e+01  -2.549823e+01
  -3.372808e+01  -1.308286e+02
   3.586929e+01  -1.021773e+02
   7.548771e+01  -3.776383e+01
   1.292080e+02   5.796020e+01
   7.113059e+01   1.070308e+02
  -3.060220e+01   8.826466e+01
  -7.767558e+01   2.310051e+01
  -1.213724e+02  -2.039585e+01
  -2.973534e+00  -4.574698e+01
   3.813735e+01   7.247226e+00
   2.258151e+01  -2.286766e+01
  -2.654304e+01  -1.299887e+01
  -2.938818e+00  -2.143541e+01
   3.318620e+01   1.628341e+01
   1.089658e+02   3.231178e+01
   1.022498e-01   6.354641e+01
  -1.274428e+02   7.408003e+01
  -1.330937e+02   4.254446e+00
  -1.540791e+02  -6.635466e+01
  -6.187968e+00  -1.451478e+02
   1.324162e+02  -1.334175e+02
   1.032732e+02  -6.615716e+01
   1.023157e+02   2.981024e+01
   2.748999e+01   6.967779e+01
  -6.157891e+00  -1.920673e+01
   3.607290e+01   1.560523e+01
   2.367756e+01   7.186490e+01
  -3.336060e+01   6.296657e+01
  -1.849282e+01   8.013771e+01
  -6.216329e+01   3.870535e+01
  -7.162555e+01  -1.603171e+02
  -4.663566e+01  -5.711333e+01
   6.817544e+01  -1.614874e+01
   8.894833e+01   6.414871e+01
   4.810236e+01   8.752539e+01
  -5.984486e+01   6.275943e+01
  -9.825695e+01  -4.107517e+00
  -4.626622e+00  -5.779777e+01
   6.962063e+01  -3.146379e+01
   3.997147e+01   2.343015e+01
  -4.417829e+01  -4.900098e+00
  -1.001282e+02  -1.959147e+01
  -3.648807e+01  -2.351884e+01
   6.798128e+01  -5.963463e+01
   9.886104e+01  -1.555619e+01
   6.161117e+01  -2.693759e+01
  -2.242830e+01   6.708016e+01
  -9.054020e+01   6.006946e+01
  -2.353360e+01   1.514263e+01
  -3.428516e+01  -5.833175e+01
   3.620015e+01  -2.925501e+01
   2.859255e+01   2.792181e+01
   1.667910e+01   5.270005e+01
  -3.574036e+01   8.178687e+01
  -3.089994e+01  -6.070660e+01
  -1.626185e+01  -1.042870e+01
   2.592417e+01  -5.137430e+01
   2.744725e+01   4.205466e+01
  -4.772310e+01   3.182679e+00
   6.436213e+00  -2.111860e+01
  -1.607441e+01  -4.610674e+01
   1.044843e+01   2.385716e+00
   1.772687e+00   4.217238e+01
  -2.940596e+01   9.139124e+01
  -4.094760e+01  -1.214418e+01
  -6.007994e+01  -4.452348e+00
  -1.280127e+01  -2.315516e+01
   8.168621e+01  -3.801804e+01
   1.110756e+02   2.698564e+01
   9.118795e+01   4.897907e+01
  -4.040873e+01   6.201589e+01
  -6.573491e+01   4.063940e+01
  -3.218023e+01  -2.111596e+01
   4.876015e+01  -2.681125e+01
   3.562695e+01   3.338230e+01
  -6.149616e+01   5.938271e+01
  -5.674631e+01   5.572625e+01
