
 $NMID
 id='ANONYMOUS ', fmtdat='(2E16.6)'
 volume=1.0
 tramp=1.0
 $END
   3.860668e+03   4.372142e+02
   2.227827e+03   2.854177e+03
  -3.382980e+02   2.485819e+03
  -1.972131e+03   8.455411e+02
  -9.070914e+02  -6.346292e+02
   5.722079e+02  -5.371347e+02
   7.323070e+02   4.570791e+02
  -3.176522e+01   9.217959e+02
  -7.965937e+02   5.458335e+02
  -8.110197e+02  -1.573012e+02
  -5.496298e+02  -8.741870e+02
   1.615587e+02  -7.668855e+02
   5.169593e+02  -1.751509e+02
   3.082689e+02   7.192897e+02
  -2.767165e+02   6.835034e+02
  -5.366484e+02  -7.504943e+01
  -2.385840e+02  -5.746376e+02
   3.171350e+02  -6.065702e+02
   6.184370e+02  -6.115189e+01
   3.664086e+02   4.057984e+02
  -3.739532e+01   4.576150e+02
  -2.164604e+02   2.315156e+02
  -2.003720e+02  -3.114968e+01
   6.266367e+01  -1.607071e+00
   2.732132e+02   2.060324e+02
   1.020571e+02   3.755984e+02
  -4.968889e+02   2.591962e+02
  -7.424657e+02  -1.063317e+02
  -3.031379e+02  -4.259181e+02
   4.244651e+02  -4.396036e+02
   7.153453e+02   4.685090e+01
   3.052999e+02   4.636869e+02
  -3.070266e+02   3.317400e+02
  -6.343725e+02   8.654197e+01
  -3.932575e+02  -2.017678e+02
  -8.061137e+01  -4.295277e+02
   1.070767e+02  -2.282633e+02
  -2.933027e+01   1.837780e+02
  -1.137464e+02   3.005850e+02
  -3.101099e+02   5.865421e+01
  -1.187041e+02  -7.132112e+02
   3.138419e+02  -6.727791e+02
   5.858072e+02  -3.241470e+01
   2.182277e+02   4.466913e+02
  -2.720635e+02   2.843493e+02
  -2.490951e+02  -4.038355e+02
   1.280506e+02  -4.556285e+02
   5.691148e+02  -8.676523e+01
   4.569123e+02   4.928146e+02
   7.145761e+01   5.619684e+02
  -3.619296e+02   2.218400e+02
  -6.961408e+02  -1.517457e+02
  -4.074297e+02  -3.284842e+02
   2.026231e+02  -3.264645e+02
   3.933961e+02  -4.448338e+01
   1.908151e+02   1.341525e+02
  -6.560295e+01   8.025405e+01
  -1.252608e+02  -1.174009e+02
   1.675503e+02  -1.311043e+02
   3.196805e+02   8.282448e+01
   1.084573e+02   3.304703e+02
  -2.278011e+02   2.423777e+02
  -3.805512e+02   6.206509e+01
  -2.069000e+02  -7.864685e+01
   6.422225e+01  -2.618318e+02
   2.741208e+02  -2.886979e+02
   4.166044e+02  -1.177808e+02
   2.844702e+02   1.898283e+02
   1.058538e+01   4.228843e+02
  -1.013841e+02   3.953571e+02
  -1.342980e+02   9.220599e+01
  -3.418559e+01   3.531565e+00
  -8.537553e+01   9.519983e+01
  -1.829508e+02   7.435188e+01
  -2.543649e+02  -7.634749e+01
  -1.330676e+02  -2.742577e+02
   1.348913e+02  -2.204142e+02
   2.020578e+02   7.833935e+00
   1.801757e+02   2.530129e+02
  -6.141981e+01   2.599084e+02
  -2.452434e+02   9.128755e+01
  -3.066086e+02  -2.403675e+02
  -1.725392e+02  -3.215716e+02
   1.898554e+02  -2.883038e+02
   2.506510e+02  -1.495430e+02
   1.616306e+02   3.243658e-01
   9.450608e+01   3.713343e-02
   2.628778e+02  -6.599249e+01
   3.975200e+02   1.080772e+02
   3.503739e+02   2.952369e+02
  -1.292233e+02   4.211910e+02
  -4.056958e+02   3.982293e+02
  -4.821446e+02   1.972014e+02
  -3.404417e+02  -1.111630e+02
   1.147235e+01  -2.802139e+02
   1.822631e+02  -2.741895e+02
   5.519726e+01  -4.833464e+01
  -1.203036e+02   6.815660e+01
  -1.641510e+02  -3.388565e+01
  -4.032750e+01  -1.760418e+02
   1.602055e+02  -1.056569e+02
   1.945122e+02   2.978122e+01
  -6.140214e+01   1.563275e+02
  -1.623015e+02  -3.007765e+01
  -1.104316e+02  -2.669092e+02
   3.745959e+01  -3.374351e+02
   2.262835e+02  -1.181069e+02
   3.212624e+02   9.974074e+01
   2.639983e+02   2.607358e+02
   7.168380e+01   2.327049e+02
  -1.141264e+02   1.877781e+02
  -1.551111e+02   3.324321e+01
  -5.039282e+01  -3.970004e+00
   8.880650e+01   3.641365e+01
  -8.554790e+00   9.069814e+01
  -1.326049e+02   1.333365e+02
  -2.001758e+02  -1.756755e+01
   1.201404e+00  -8.470422e+01
   5.623898e+01   1.374305e+01
   3.926935e+01   4.234901e+01
  -1.607677e+02   6.531184e+01
  -2.853165e+02  -3.478640e+01
  -1.982189e+02  -2.000288e+02
  -1.717823e+01  -2.597652e+02
   1.757268e+02  -1.932145e+02
   2.543983e+02  -1.013698e+02
   1.511477e+02   8.918163e+01
  -2.681363e+01   1.078240e+02
  -8.003057e+01  -6.111087e-01
   6.041223e+01  -3.931155e+01
   1.869662e+02  -6.721079e+01
   1.981998e+02   1.244683e+02
   4.873675e+01   1.852706e+02
  -1.091200e+02   1.602430e+02
  -1.323759e+02   2.689917e+01
  -6.988729e+01  -5.296204e+01
   6.513464e+01   2.394603e+01
   1.371235e+01   7.683547e+01
  -9.444316e+01   1.020390e+02
  -2.039920e+02   1.751965e+01
  -1.753658e+02  -1.709203e+02
  -3.333761e+01  -2.521790e+02
   1.848037e+02  -1.185542e+02
   1.752638e+02   8.534081e+00
   7.384032e+01   1.218052e+02
  -7.813124e+01   1.037013e+02
  -6.834656e+01   5.840338e+01
   2.004805e+00  -1.070425e+01
   2.411657e+01   1.207906e+01
  -2.317192e+01  -8.962134e+00
  -6.011831e+01  -1.925569e+01
  -1.140724e+02  -7.925988e+01
  -4.651707e+01  -1.598360e+02
   1.910167e+02  -1.282099e+02
   2.286021e+02   1.609521e+01
   1.680164e+02   2.149893e+02
   4.415894e+01   2.343862e+02
  -1.618289e+02   1.105756e+02
  -1.270225e+02   7.955931e+00
  -3.843062e+01  -3.675993e+01
  -8.290625e+00  -5.486027e+01
  -4.320928e+01  -2.122705e+01
  -7.130611e+01   1.003204e+01
  -6.545144e+01  -4.365217e+01
   6.916713e+01  -4.361269e+01
   1.316701e+02  -7.897944e+00
   1.235942e+02   2.292187e+01
  -1.779825e+01   1.204924e+02
  -1.412129e+02   6.711790e+01
  -2.259518e+02  -5.887752e+01
  -5.130173e+01  -2.163199e+02
   1.573054e+02  -1.782556e+02
   2.893146e+02  -7.303745e+01
   2.793840e+02   1.235612e+02
   1.104831e+02   1.807147e+02
  -3.456037e+01   1.063649e+02
  -1.095927e+02   9.861629e+01
  -6.182932e+01   5.808205e+01
  -7.374974e+01   1.302905e+02
  -8.405225e+01   9.228881e+01
  -1.410505e+02  -1.469986e+01
  -8.759579e+01  -1.987257e+02
  -2.887291e+01  -2.169197e+02
   9.631739e+01  -2.040741e+02
   1.440846e+02  -3.337588e+01
   1.455454e+02   1.361766e+02
   3.795980e+01   1.199205e+02
  -6.367430e+01   8.622433e+01
  -6.901234e+01   3.749876e+01
  -3.831847e+00  -3.332783e+01
   5.283524e+00  -4.015001e+01
  -1.582861e+01  -1.916018e+01
  -7.760730e+01  -6.989462e+01
  -4.541152e+01  -3.791289e+01
   6.808894e+01  -5.212651e+01
   1.771918e+02   1.267906e+01
   1.624192e+02   4.605504e+01
  -3.294966e+01   5.547453e+01
  -1.685216e+02   7.732307e+01
  -1.793410e+02  -7.921942e+00
  -7.129201e+01  -4.577594e+01
   8.391774e+01  -1.875846e+01
   1.359235e+02   4.671450e+01
   9.339447e+00   1.080149e+02
  -8.032984e+01   9.982774e+01
  -1.288004e+02   4.512683e+01
  -5.316622e+01  -5.698232e+01
  -5.136661e+01  -2.603297e+01
  -4.485362e+01  -1.943494e+01
  -7.534261e+01  -1.312703e+01
  -7.193885e+01  -1.167054e+02
   5.442707e+01  -1.175936e+02
   1.309771e+02  -9.299620e+01
   1.145489e+02  -1.380425e+01
   6.408033e+01   1.197435e+02
   2.263465e+00   1.434512e+02
  -1.246898e+02   9.118604e+01
  -2.101872e+01  -2.780347e+01
   7.352611e+01  -3.843156e+00
   1.534958e+02   6.764710e+01
   1.983565e+01   1.790813e+02
  -1.204342e+02   1.009246e+02
  -1.732841e+02   5.502234e+01
  -1.837904e+02  -3.179578e+01
  -4.069271e+01  -8.553469e+01
   4.011393e+01  -3.894487e+01
   3.201600e+01   1.188764e+01
  -2.760871e+01   6.360084e+00
  -1.502231e+02  -6.458210e+01
  -5.733186e+01  -1.354245e+02
   1.064002e+02  -1.449000e+02
   1.977325e+02  -4.013768e+01
   1.158454e+02   1.261641e+02
   9.541246e+00   1.334931e+02
  -1.105586e+02   9.987860e+01
  -6.626549e+01  -2.364358e+01
  -4.461215e+01  -1.293049e+02
   2.316102e+01  -1.342668e+02
   8.959302e+01  -3.537943e+01
   5.358644e+01   1.128370e+00
   1.526985e+01  -3.659257e+01
   2.691579e+01  -4.387444e+01
   8.536640e+00   4.589763e+01
   6.911089e+01   9.714233e+01
   2.982114e+01   1.130213e+02
  -8.252029e+01   4.577528e+01
  -1.159570e+02  -7.158024e+00
  -1.389566e+02  -7.299797e+01
  -5.954378e+01  -4.902113e+01
   7.408362e+01  -2.465532e+01
   7.951507e+01   1.147793e+01
   7.715216e-01   4.733031e+01
  -2.397567e+01   3.506295e+01
  -3.548955e+00   2.578921e+01
   5.395713e+01   2.875574e+01
  -3.784807e+00   1.940240e+00
  -8.132263e+01   2.612389e+01
  -8.613151e+01  -2.733393e+00
  -7.867693e+00  -1.297810e+02
   1.107349e+02  -1.084455e+02
   2.230714e+02  -4.406082e+01
   1.656266e+02   6.087549e+01
   5.775217e+01   1.851216e+02
  -1.101059e+02   1.098805e+02
  -1.341145e+02   5.475283e+01
  -9.635473e+01  -8.489476e-02
   6.403248e+00  -4.339498e+01
  -2.658281e+01   7.959548e-01
  -1.739325e+01   2.387642e+00
  -6.060360e+00  -4.570461e+01
  -2.987803e+01  -6.327606e+01
   6.082218e+01  -4.192811e+01
   9.267770e+01   3.090206e+01
   1.141940e+02   1.230113e+02
  -2.500232e+01   1.065469e+02
  -3.242679e+01   3.414443e+01
  -9.825990e+01  -9.518581e+01
  -3.213535e+01  -1.229880e+02
   4.482104e+01  -6.491245e+01
   1.206406e+02  -9.135214e+00
   2.812711e+00   7.657212e+01
  -4.403717e+01   4.056140e+01
  -7.612143e+01   1.852033e+01
   4.479253e+01   1.045571e+01
   6.972445e+01   3.305161e+01
   1.149835e+01   4.298878e+01
  -6.160991e+01   4.122111e+01
  -1.111864e+02   2.839900e+01
  -6.506364e+01  -2.519380e+01
   4.071716e+01  -5.032302e+01
   2.017777e+01  -1.173282e+02
   4.987595e+00   1.574753e+01
   3.199664e+01   4.029759e+01
  -3.045396e+01   3.951103e+01
  -2.969757e+01  -3.668423e+01
  -2.888070e+01  -7.965071e+01
   4.717443e+00  -5.332676e+01
  -6.151335e+00   3.416066e+01
   3.328857e+01   3.694983e+00
   3.729417e+01  -3.872258e+01
  -5.188633e+01  -2.780058e+01
   8.078754e+00   7.863757e+00
   5.521406e+00   1.167255e+01
  -2.389951e+01   4.316177e+01
  -2.563544e+01   1.292881e+01
  -2.453112e+01  -6.989601e+01
  -1.832634e+00  -2.874339e+01
   1.834890e+01  -4.524268e+00
   5.486007e+01   3.375737e+01
   2.677742e+01   1.150016e+02
  -9.096139e+01   6.051028e+01
  -1.247041e+02   4.671882e-01
  -5.111781e+01  -5.113810e+01
   2.216881e+01   1.682962e+01
   5.798573e+01   1.654477e+00
   1.674470e+01   3.498242e+01
  -5.780384e+01   4.071982e+01
  -3.621545e+01  -1.443841e+01
   5.319483e+01   3.949586e+00
   9.750984e+01   2.368903e+01
