
 $NMID
 id='ANONYMOUS ', fmtdat='(2E16.6)'
 volume=1.0
 tramp=1.0
 $END
  -3.329700e+03  -1.734348e+01
  -2.056421e+03  -1.893803e+03
   2.204243e+02  -2.191668e+03
   1.383166e+03  -1.158956e+03
   9.613673e+02  -2.991127e+02
   2.653516e+02   2.910561e+02
  -4.307417e+02  -3.313113e+01
  -1.762745e+02  -6.743782e+02
   3.602365e+02  -5.475871e+02
   5.600112e+02  -4.025491e+01
   5.082287e+02   5.342353e+02
   1.760087e+00   6.055794e+02
  -4.393998e+02   2.565484e+02
  -1.585468e+02  -4.269912e+02
   5.942887e+01  -4.614384e+02
   3.747629e+02  -3.541023e+01
   2.860175e+02   5.299726e+02
  -1.763372e+02   7.418201e+02
  -4.886391e+02   2.275268e+02
  -4.140054e+02  -1.740206e+02
  -1.314101e+02  -4.237045e+02
   6.097578e+01  -2.077832e+02
   9.348294e+01  -1.150956e+02
  -1.217368e+02  -1.300052e+02
  -2.950127e+02  -2.753250e+02
   8.402151e+01  -4.296888e+02
   4.402692e+02  -2.200453e+02
   6.023076e+02   1.959866e+02
   3.406452e+02   3.666818e+02
  -3.024656e+02   9.581086e+01
  -5.501536e+02  -1.174975e+02
  -1.287787e+02  -3.228625e+02
   2.725848e+02  -2.827797e+02
   4.161193e+02  -1.187442e+02
   3.201757e+02   1.673211e+02
   8.563145e+01   3.962936e+02
  -6.989027e+01   1.741210e+02
   7.560072e+00  -4.619172e+01
   6.639678e+01  -1.566744e+02
   2.330020e+02   1.257572e+02
  -3.203713e+01   4.733308e+02
  -2.415177e+02   4.665274e+02
  -3.740195e+02   8.389709e+01
  -1.517934e+02  -3.291568e+02
   2.090108e+02  -2.177777e+02
   1.513304e+02   2.648576e+02
  -1.136021e+02   3.261082e+02
  -4.512055e+02   4.877342e+01
  -4.578094e+02  -3.825503e+02
  -1.364756e+02  -4.584339e+02
   3.338875e+02  -2.789192e+02
   5.539231e+02   8.027610e+01
   3.869545e+02   2.944850e+02
  -3.999964e+01   1.842146e+02
  -2.877970e+02   1.526899e+01
  -2.345883e+02  -4.059011e+01
   2.723377e+01  -3.666379e+00
   2.373323e+01   8.126360e+01
  -1.024776e+02   1.308373e+00
  -2.641453e+02  -2.375244e+01
  -1.311310e+02  -2.041348e+02
   1.770449e+02  -2.549348e+02
   3.266768e+02  -1.557096e+02
   2.725452e+02   1.055431e+02
  -3.596083e+00   3.676355e+02
  -3.213822e+02   2.543542e+02
  -3.253756e+02   1.135023e+02
  -2.482255e+02  -1.938459e+02
  -4.029543e+01  -2.578062e+02
   4.166257e+01  -3.490835e+02
   7.016128e+01  -2.298586e+02
   5.125488e+01  -8.454359e+01
   1.458285e+02  -1.184059e+02
   2.409235e+02  -2.613059e+01
   2.425159e+02   1.068430e+02
   7.082826e+01   2.609790e+02
  -7.361066e+01   2.109030e+02
  -1.534660e+02  -3.813130e+01
  -1.369033e+02  -2.724053e+02
   8.211006e+01  -2.428682e+02
   2.342090e+02  -2.258483e+01
   2.867829e+02   1.561516e+02
   2.270578e+02   3.023992e+02
  -5.070984e+01   2.636618e+02
  -1.342547e+02   1.269725e+02
  -1.455214e+02   9.416755e+01
  -1.827244e+02   4.616237e+01
  -3.083699e+02   6.730146e+01
  -4.536927e+02  -8.864304e+01
  -3.239321e+02  -2.765521e+02
  -3.356438e+01  -3.669622e+02
   4.565562e+02  -3.029831e+02
   4.765497e+02  -2.075781e+02
   2.541320e+02   1.623326e+02
   2.205854e+01   1.937869e+02
  -7.247618e+01   2.240248e+02
   1.935872e+00   3.802395e+01
   1.330970e+02  -5.937313e+01
   1.031353e+02   4.520742e+01
  -1.674747e+01   9.421508e+01
  -1.006536e+02   1.244552e+02
  -8.227208e+01  -6.447476e+01
   1.480015e+01  -9.923915e+01
   1.467959e+02   5.488002e+00
   1.217751e+02   2.636784e+02
  -5.020342e+01   3.133892e+02
  -2.724311e+02   1.995102e+02
  -3.632062e+02  -1.347618e+02
  -2.617635e+02  -2.411223e+02
  -7.314393e+01  -2.773857e+02
   1.429512e+02  -1.610345e+02
   1.546691e+02  -4.305781e+01
   2.151855e+01   5.378043e+00
  -2.735322e+01  -7.484198e+01
  -3.664785e+00  -7.697785e+01
   1.358958e+02  -8.494554e+01
   1.495510e+02   2.876222e+01
   7.575245e+01   4.326289e+01
  -6.195188e+01  -1.632491e+01
   1.459271e+01  -1.184244e+02
   1.502755e+02  -2.360797e+01
   3.705434e+02  -4.243864e+00
   2.412586e+02   2.046383e+02
   1.474340e+01   2.742988e+02
  -2.102598e+02   2.396112e+02
  -2.794204e+02   1.239799e+02
  -1.377880e+02  -5.799140e+00
   5.840696e+01  -9.588585e+01
   6.822032e+01   2.550960e+01
  -6.325525e+01   1.020820e+02
  -1.951411e+02   8.801647e+01
  -1.331195e+02  -9.965707e+01
  -8.655225e+01  -1.805202e+02
   5.757428e+01  -1.433679e+02
   1.585761e+02   2.382112e+00
   4.076522e+01   2.516674e+01
  -7.747307e+00  -7.570422e+01
   1.167332e+00  -9.193076e+01
   5.815292e+01  -1.367661e+02
   2.189426e+02  -1.867970e+01
   1.536678e+02   9.642929e+01
   4.030002e+01   2.179022e+02
  -2.164273e+02   1.310128e+02
  -1.460734e+02   1.391968e+01
  -9.862797e+01  -7.144122e+01
   5.457848e+01  -5.746779e+01
   1.227135e+02  -2.713033e+01
   3.122700e+01  -9.727121e+00
  -6.296711e+01  -1.468187e+01
   2.346796e+01   1.179553e+01
   9.859163e+01   3.035576e+01
   1.232497e+02   6.983320e+01
   1.984556e+01   2.157341e+02
  -1.229659e+02   1.546842e+02
  -2.500177e+02  -2.733506e+01
  -2.100115e+02  -1.568549e+02
  -2.596077e+01  -2.267312e+02
   7.984692e+01  -1.361673e+02
   1.469348e+02  -3.230495e+01
   1.075729e+02   7.011162e+01
   1.725135e+01   1.295846e+01
   1.668387e+01  -1.838484e-01
   1.181192e+02   2.262430e+00
   2.163723e+01   8.853358e+01
  -2.372227e+01   1.189680e+02
  -1.155536e+02   1.007130e+02
  -6.618996e+01  -4.514205e+01
   4.534133e+01  -7.191928e+01
   1.820607e+02  -5.585198e+01
   2.507439e+02   8.218212e+01
   6.583269e+01   2.265734e+02
  -7.622870e+01   2.167374e+02
  -2.702586e+02   5.805953e+01
  -2.337612e+02  -9.250718e+01
  -9.927273e+01  -1.782361e+02
   5.224350e+01  -9.235018e+01
   1.115752e+02  -9.729440e+01
   5.916157e+01  -9.212506e+01
   3.290533e+01  -8.226464e+01
   9.371473e+01  -8.752546e+01
   1.557487e+02  -5.496145e+00
   1.118555e+02   1.776142e+02
   3.171191e+01   2.295200e+02
  -1.188972e+02   1.687816e+02
  -1.511140e+02  -1.301352e+00
  -1.024254e+02  -1.138205e+02
   1.843523e+01  -1.517150e+02
   1.101267e+02  -4.863030e+01
   8.229578e+01  -8.553629e+00
  -4.803529e+01   4.060846e+01
  -2.522003e+01   4.283073e+01
   3.770627e+01   7.800935e-01
   7.738669e+01   5.342183e+01
   2.328921e+01   7.762573e+01
  -8.291564e+00   2.585013e+01
  -1.613628e+02   2.733607e+00
  -1.424014e+02  -8.030186e+01
  -3.598942e+00  -7.700274e+01
   1.642978e+02  -1.012918e+02
   1.203234e+02  -2.362691e+01
   7.915955e+01   3.176357e+01
  -7.000954e+01   5.006987e+01
  -9.466340e+01   4.142503e+00
  -1.342920e+01  -4.020338e+01
   4.481889e+01  -9.481121e+01
   3.738938e+01  -8.411445e+00
   5.058764e+01   2.288816e+01
   6.188815e+00   2.719373e+01
   4.391639e+01  -3.122911e+00
   1.250835e+02   3.758469e+01
   6.470899e+01   5.811975e+01
  -3.971122e+01   1.542225e+02
  -9.357920e+01   1.269135e+02
  -1.564543e+02   5.854433e+01
  -1.228177e+02  -1.036541e+02
   2.961645e+01  -9.718416e+01
   5.234248e+01  -9.972879e+01
   4.540204e+01  -8.340294e+00
  -8.183753e+01   1.786443e+01
  -1.717142e+02  -1.327254e+01
  -4.549387e+01  -1.008635e+02
   8.132380e+01  -1.557007e+02
   2.106068e+02  -6.933238e+01
   2.077508e+02   2.891083e+01
   3.251495e+01   1.150191e+02
  -6.382088e+01   6.564419e+01
  -5.830385e+01  -3.292651e+01
   4.369403e+01  -4.596369e+01
   5.736260e+01   6.623481e+01
  -2.524912e+01   1.609729e+02
  -7.317165e+01   1.819695e+02
  -1.479524e+02   1.069617e+02
  -1.227660e+02  -1.316970e+02
  -1.087766e+01  -2.388914e+02
   1.164785e+02  -1.328821e+02
   8.207855e+01   1.667919e+01
   3.014479e+01   1.237541e+02
  -1.809343e+01   9.663804e+01
  -5.762576e+01   3.846376e+00
   1.245750e+01  -3.869453e+01
   2.759821e+01  -6.115448e+00
  -5.713639e+00   3.188895e+00
   8.185256e-01  -1.384139e+01
  -8.108505e+01  -7.885981e+01
  -1.543722e+01  -1.242543e+02
   7.160940e+01  -4.019676e+01
   1.475086e+02   4.474277e+01
   1.149297e+02   7.664321e+01
   2.781175e+01   5.315845e+01
  -7.725151e+01   6.986632e+01
  -2.224604e+01   1.731692e+01
  -5.323923e+00  -4.750286e+01
   5.550986e+01  -3.032447e+01
   6.610105e+01   1.491163e+01
   3.683137e+01   5.324715e+00
   3.014936e+01  -1.965840e+01
   5.787906e+01   2.589229e+01
   1.085230e+02   3.552928e+01
   5.807502e+01   8.102036e+01
  -1.372226e+02   1.193683e+02
  -1.768570e+02   5.688050e+01
  -9.546224e+01  -7.843476e+01
  -2.113341e+01  -1.701173e+02
   1.153927e+02  -1.790511e+02
   1.435701e+02  -3.305751e+01
   8.145430e+01   1.071561e+01
  -9.723837e+00   5.919287e+01
   2.108109e+01  -2.242425e+01
   5.323632e+00   2.173926e+01
   3.219621e+01   3.094647e+01
  -6.990411e+00   9.472689e+01
  -9.803662e+00   6.683765e+01
  -3.197949e+01  -3.314508e+01
  -7.431443e+01  -1.308639e+02
  -2.696056e+01  -9.241073e+01
   7.149565e+01  -6.832201e+01
   6.710487e+01   8.263699e+01
   8.217252e+01   1.633840e+02
  -9.047965e+01   1.738002e+01
  -9.626092e+01  -4.284293e+01
  -5.971354e+01  -5.434886e+01
   7.343632e+01  -1.082613e+02
   3.737444e+01  -1.048287e+01
  -2.945272e+01   1.196833e+01
  -4.364383e+01  -2.112640e+00
  -3.704274e+01   2.400958e+00
   8.149306e+01  -6.835904e+01
   1.391179e+02  -4.471889e+01
   8.475698e+01   3.443654e+01
  -9.484508e+00   1.155358e+02
  -8.409743e+01   8.136285e+01
  -6.124213e+01  -1.412991e+01
   2.344870e+01  -6.399015e+01
   1.581161e+01  -2.308367e+01
   3.068793e+01   3.102662e+01
  -3.378539e+00   7.651428e+01
   1.292392e+00   1.928222e+01
  -1.265667e+01   1.625705e+00
  -3.828058e+01  -3.808185e+01
  -3.905422e+01  -5.310181e+01
  -1.571105e+01   1.370122e+00
  -1.227186e+01   1.411643e+01
   2.430768e+01  -5.558237e+00
   3.249477e+01  -7.803766e+01
   4.868526e+01  -2.937512e+01
   4.952302e+01   4.320695e+01
  -1.737275e+01   8.903554e+01
  -3.874335e+01   2.456852e+01
  -6.659195e+01  -1.505002e+01
  -4.715660e+01  -3.333306e+01
   7.236422e+01  -1.883239e+01
   7.662288e+01  -1.636054e+01
   8.443535e+01   4.336606e+01
  -9.176997e+00   1.504704e+01
  -8.325847e+01   1.652264e+01
  -7.513584e+01  -2.599676e+01
   1.728167e+01   2.636900e+01
   1.194999e+01   3.917888e+01
  -1.315657e+01   3.115158e+01
  -6.900231e+01  -1.805472e+01
