
 $NMID
 id='ANONYMOUS ', fmtdat='(2E16.6)'
 volume=1.0
 tramp=1.0
 $END
   2.795053e+03  -3.200961e+02
   1.711742e+03   1.117409e+03
  -4.362500e+02   1.971202e+03
  -1.082241e+03   1.050123e+03
  -8.085049e+02   2.222510e+02
   1.469030e+02  -2.601090e+02
   3.546474e+02   6.956416e+01
   4.636329e+01   6.527225e+02
  -2.873184e+02   5.685090e+02
  -4.329798e+02   1.746127e+02
  -5.085468e+02  -5.434173e+02
   8.116947e+01  -5.169972e+02
   3.555322e+02  -3.092480e+02
   3.056895e+02   2.753376e+02
  -8.274026e+01   4.154380e+02
  -2.933705e+02   1.283192e+02
  -2.777900e+02  -4.349748e+02
   2.024565e+02  -5.948151e+02
   4.144802e+02  -2.747023e+02
   3.958411e+02   6.961346e+01
   1.292762e+02   2.589084e+02
  -3.501084e+01   1.872529e+02
  -3.877555e+01   1.439579e+01
   1.391469e+02   9.788409e+01
   2.573863e+02   1.650172e+02
  -2.186639e+01   2.569321e+02
  -4.246216e+02   1.813139e+02
  -5.283393e+02  -1.494417e+01
  -3.395415e+02  -3.000530e+02
   2.722063e+02  -2.058876e+02
   5.846629e+02   1.403139e+02
   2.234396e+02   3.059045e+02
  -1.224947e+02   2.705661e+02
  -4.066430e+02   1.376442e+02
  -3.035431e+02  -1.528075e+02
  -1.593472e+02  -3.220130e+02
   3.124086e+01  -2.236169e+02
   5.006598e+01   1.867588e+02
  -2.395072e+01   2.201117e+02
  -3.028114e+02  -7.935665e+01
  -1.602468e+02  -4.060921e+02
   2.368667e+02  -4.845938e+02
   3.884398e+02  -4.175010e+01
   1.123386e+02   3.771001e+02
  -1.676923e+02   1.733490e+02
  -1.036881e+02  -1.860974e+02
  -3.476357e+01  -3.224279e+02
   4.035878e+02  -9.276009e+01
   4.479414e+02   2.616033e+02
   1.502099e+02   4.288503e+02
  -2.655425e+02   2.529720e+02
  -4.127704e+02   1.659310e+01
  -3.587760e+02  -2.021169e+02
  -2.540707e+01  -1.958779e+02
   2.504369e+02  -1.092409e+02
   1.368656e+02  -2.685781e+00
  -6.400130e+01   2.150775e+01
  -6.671909e+01  -3.328206e+01
   8.246007e+01  -3.612071e+01
   1.980803e+02   4.123361e+01
   1.069961e+02   1.337043e+02
  -1.274918e+02   2.590092e+02
  -3.071600e+02   1.147344e+02
  -3.031473e+02  -8.252070e+01
  -9.048655e+00  -2.551258e+02
   2.301765e+02  -2.843194e+02
   2.838413e+02  -1.169094e+02
   2.673677e+02   1.191778e+02
   7.577380e+01   3.185634e+02
  -3.370917e+01   2.587926e+02
  -3.572843e+01   1.773733e+02
  -5.709427e+01   3.996345e+01
  -4.709208e+01   9.631964e+01
  -2.019796e+02   8.468716e+01
  -2.476599e+02  -5.579812e+01
  -1.020493e+02  -2.302908e+02
   7.728022e+01  -1.319790e+02
   1.060022e+02   1.041336e+01
   1.636308e+02   2.064809e+02
   1.461624e+01   2.440124e+02
  -2.155776e+02   4.227141e+01
  -2.597892e+02  -1.261920e+02
  -1.980510e+02  -2.543970e+02
   6.035177e+01  -2.467854e+02
   1.073952e+02  -1.338595e+02
   1.110125e+02  -7.962714e+01
   1.552707e+02  -2.585493e+01
   1.842131e+02  -9.367448e+01
   3.648308e+02   5.588855e+01
   3.031256e+02   2.403189e+02
   9.276151e+01   3.818346e+02
  -3.665833e+02   3.345663e+02
  -4.539243e+02   2.092465e+02
  -2.323302e+02  -6.606726e+01
  -7.585527e+01  -1.777122e+02
   6.435022e+01  -1.934653e+02
  -2.506115e+01  -1.393585e+00
  -1.344805e+02   1.050836e+02
  -1.280196e+02  -3.335783e+01
  -3.759521e+01  -1.107484e+02
   1.201667e+02  -9.048992e+01
   8.502586e+01   4.099952e+01
  -2.616897e+01   1.285403e+02
  -1.405171e+02   1.343631e+01
  -1.381879e+02  -2.561558e+02
   2.846930e+01  -3.312764e+02
   2.360920e+02  -2.078492e+02
   2.842913e+02   3.046637e+01
   2.434537e+02   2.199926e+02
   1.166104e+02   2.075286e+02
  -7.448570e+01   1.610985e+02
  -1.450711e+02   1.832250e+01
  -5.105966e+00   6.849528e+00
  -1.001514e+01   5.795601e+01
   2.890179e+01   7.878905e+01
  -8.880388e+01   5.693022e+01
  -1.451970e+02  -4.732358e+00
  -1.026744e+01  -6.923836e+01
   7.903948e+01   6.302952e+00
   3.739368e+01   7.046810e+01
  -1.218791e+02   3.832569e+01
  -1.936270e+02  -3.305336e+01
  -2.089905e+02  -1.337509e+02
  -3.510713e+01  -2.259060e+02
   1.782934e+02  -2.169078e+02
   2.422330e+02  -1.505216e+02
   1.140311e+02   1.489561e+01
  -1.490590e+01   4.457861e+01
  -1.914860e+01  -1.760806e+00
  -8.707237e+00  -6.136168e+01
   2.214906e+02  -6.843408e+01
   1.578254e+02   1.133593e+02
   9.159730e+01   1.687111e+02
  -7.680631e+01   1.808998e+02
  -1.121556e+02  -2.983092e+01
  -4.256787e+01  -3.610011e+01
   4.928438e+01  -6.979599e+00
   4.218174e+01   1.139108e+02
  -8.345797e+01   1.066520e+02
  -1.844839e+02   7.580134e+01
  -1.440457e+02  -1.265291e+02
  -2.173623e+01  -1.814637e+02
   1.348788e+02  -1.195198e+02
   1.806159e+02  -7.504050e+01
   3.936578e+01   6.136352e+01
  -2.331590e+01   9.932292e+01
  -4.634328e+01   4.083629e+01
   1.253596e+01  -2.162038e+01
   8.471817e+00  -2.429389e+01
   6.384284e+00   2.574033e+01
  -8.816023e+01   2.700255e+01
  -8.999829e+01  -7.410863e+01
  -2.444709e+01  -1.729839e+02
   7.658739e+01  -1.432416e+02
   1.852544e+02  -4.692166e+00
   1.663758e+02   1.326187e+02
   1.196974e+01   1.754695e+02
  -4.561027e+01   1.231745e+02
  -9.773162e+01   7.527828e+01
  -8.155280e+00  -4.464010e+01
  -1.973468e+01  -4.606129e+01
  -2.003580e+01  -6.787874e+00
  -9.038018e+01  -2.369267e+00
  -3.888948e+01  -1.483842e+01
   2.128437e+01  -8.327944e+01
   1.079830e+02  -4.368167e+01
   8.074228e+01   2.948981e+01
  -5.683881e+01   1.289224e+02
  -1.333485e+02   5.123441e+01
  -1.894580e+02  -6.995110e+01
  -6.107199e+01  -1.648348e+02
   1.008766e+02  -1.866556e+02
   2.457254e+02  -5.917783e+01
   2.433320e+02   2.282767e+01
   1.089498e+02   1.726336e+02
  -5.997694e+01   8.704311e+01
  -1.113379e+02   4.308491e+01
  -5.133866e+01   6.334055e+01
  -5.061084e+01   8.785347e+01
  -1.403395e+02   1.020901e+02
  -1.173147e+02   1.028555e+01
  -1.505217e+02  -1.368705e+02
  -1.233842e+01  -1.623029e+02
   9.572988e+01  -1.338076e+02
   1.383021e+02  -2.126434e+01
   1.151448e+02   1.289365e+02
   4.930646e+01   1.035404e+02
  -8.396258e+01   5.355090e+01
  -7.348269e+01  -1.470848e+01
   2.949546e+01  -6.118394e+01
   1.423946e+00  -3.403809e+01
  -1.144304e+01  -1.629800e+01
  -1.072500e+02   3.510845e+00
  -6.769795e+01  -1.298947e+01
   7.937356e+01  -6.800231e+01
   1.767892e+02  -2.295366e+01
   1.078331e+02   1.630626e+01
   2.596016e+01   7.364016e+01
  -1.199529e+02   1.003390e+02
  -1.273923e+02  -3.066036e+01
   2.055159e+01  -2.579812e+01
   6.417185e+01  -5.530687e+01
   6.937559e+01   1.914916e-01
   3.420911e+01   1.051242e+02
  -7.105344e+01   7.300715e+01
  -8.254402e+01   4.848942e+01
  -6.963539e+01  -5.873671e+01
  -4.023139e+01   3.199502e+00
  -2.960607e+01   2.123633e+01
  -9.128958e+01  -2.187903e+01
  -3.556500e+01  -6.583237e+01
   4.087552e+01  -1.338335e+02
   7.443311e+01  -1.065712e+02
   1.617559e+02  -2.970773e+01
   7.249127e+01   7.143083e+01
  -8.894584e+00   7.616454e+01
  -9.717413e+01   9.643372e+01
  -3.557064e+01   2.221363e+00
   5.093222e+01  -5.563755e+01
   1.654871e+02   4.675658e+01
   9.016633e+01   6.435994e+01
  -8.668244e+01   5.692664e+01
  -1.907224e+02   2.993488e+01
  -1.421473e+02  -2.507346e+01
  -2.265149e+01  -7.843058e+01
   4.952115e+01  -6.323226e+01
   7.791607e+01   4.134505e+00
  -3.839369e+01  -8.005279e+00
  -4.500749e+01   4.171218e+01
  -5.487733e+01  -1.101807e+02
   8.959236e+01  -1.605579e+02
   1.585145e+02  -3.355668e+01
   9.098288e+01   1.151645e+02
   3.053970e+01   1.868027e+02
  -6.072831e+01   1.119691e+02
  -1.036119e+02  -8.925383e+00
  -7.308167e+01  -1.228249e+02
   1.634043e+01  -1.255790e+02
   5.043474e+01  -7.568753e+00
   3.135828e+01   2.886051e+01
   3.287434e+01   1.744322e+01
   3.644253e+01  -2.096704e+00
  -3.916479e+00   1.582970e+01
   5.947176e+01   7.975358e+01
   2.599611e+01   7.994983e+01
  -4.278228e+01   5.900477e+01
  -1.422250e+02  -5.290685e+01
  -9.428334e+01  -4.779752e+01
   3.203986e+01  -3.077517e+01
   6.527853e+01  -6.727351e+01
   4.813938e+01  -2.321061e+01
  -1.450664e+01   3.014784e+01
   5.607732e+00   1.238628e+01
   5.867463e+00   2.676467e+01
  -1.285930e+01  -1.577718e+01
  -6.191421e+00  -3.327929e+01
  -4.565923e+01   2.953315e+01
  -9.915544e+01  -2.219626e+00
   1.611714e+01  -9.829583e+01
   9.427071e+01  -1.285804e+02
   1.417857e+02  -1.088342e+02
   1.030896e+02   1.972085e+01
   3.650088e+01   1.294972e+02
  -3.498184e+01   1.339858e+02
  -1.016963e+02   8.110698e+01
  -6.506184e+01   2.484942e+01
  -1.554385e+01  -6.658845e+01
  -1.975124e+01  -2.743145e+01
   9.576264e+00  -1.926966e+01
  -3.967910e+01  -3.031189e+01
  -2.037249e+01  -7.316826e+01
   2.285986e+01  -5.423756e+01
   6.703138e+01   2.646063e+01
   9.674373e+01   7.935814e+01
  -1.312222e+01   9.556507e+01
  -7.402328e+01   2.036570e+01
  -7.710816e+01  -2.798758e+01
  -4.372819e+01  -5.615564e+01
   4.470355e+01  -5.097335e+01
   7.373417e+01  -2.141496e+01
   3.802543e+01   1.723959e+01
  -1.743035e+01  -1.404384e+01
  -2.658309e+01   4.839887e+01
  -1.824291e+01  -3.051811e+01
   5.692316e+01   1.621396e+01
   5.768047e+01   4.310076e+01
  -7.658105e+01   8.765767e+01
  -1.276940e+02   6.885084e+01
  -4.265709e+01   4.409488e+00
  -9.447275e+00  -9.284362e+01
   3.956572e+01  -5.054527e+01
   3.334488e+01  -1.038963e+01
   4.574556e+01   4.403703e+01
  -6.860893e+00   5.690458e+01
  -4.293750e+01  -4.221898e+01
  -5.415276e+01  -8.253908e+01
   1.441013e+01  -2.594492e+01
   1.528343e+01  -1.170341e+00
   4.538246e+01   6.237303e+01
   1.268931e+01  -5.126172e+00
   1.850750e+01  -2.663850e+01
   2.538132e+01  -2.370734e+01
   3.697533e+01  -2.064411e+01
   3.864983e+00   5.788771e+01
  -3.296855e+01   1.972549e+01
  -5.507815e+01  -4.951233e+01
   1.611959e+00  -6.550883e+01
   4.243793e+01  -5.102858e+01
   1.928085e+01   3.983954e+01
   5.662683e+01   6.964156e+01
  -2.854156e+01   7.938051e+01
  -4.210594e+01   2.445835e+01
  -5.207458e+01  -8.422519e+00
   3.183210e+01  -5.968208e+01
   6.155139e+01  -4.188095e+01
  -6.241254e+00   1.695198e+01
  -6.246419e+01   2.236332e+00
  -3.314717e+00  -3.853471e+00
   1.780807e+01  -2.606158e+01
   5.355641e+01  -3.550388e+01
