
 $NMID
 id='ANONYMOUS ', fmtdat='(2E16.6)'
 volume=1.0
 tramp=1.0
 $END
   3.232396e+03  -3.105119e+02
   1.920577e+03   1.789194e+03
  -6.106051e+02   2.498215e+03
  -1.267219e+03   9.477999e+02
  -5.675175e+02  -1.602682e+02
   2.998131e+02  -6.009033e+02
   6.229004e+02   1.014213e+02
   9.126578e+01   6.704843e+02
  -6.330499e+02   6.967311e+02
  -6.520824e+02   1.341553e+02
  -4.504532e+02  -7.095625e+02
   1.234270e+02  -6.625135e+02
   4.785597e+02  -1.697800e+02
   3.156103e+02   4.975698e+02
  -1.679572e+02   5.222077e+02
  -5.179963e+02   9.692269e+01
  -2.769270e+02  -5.862353e+02
   1.685101e+02  -6.860869e+02
   5.322923e+02  -2.353792e+02
   3.647878e+02   1.163577e+02
   1.203133e+02   3.620056e+02
  -1.558068e+02   2.478469e+02
  -1.830803e+02   7.711823e+01
   9.051049e+01   8.554443e+00
   2.486295e+02   1.985172e+02
   1.217185e+02   3.609554e+02
  -4.522321e+02   3.420347e+02
  -7.826261e+02  -1.346883e+02
  -3.049886e+02  -4.584198e+02
   2.601634e+02  -3.583581e+02
   6.586367e+02   1.328333e+01
   2.409112e+02   3.136802e+02
  -2.064562e+02   4.363010e+02
  -4.036683e+02   1.469208e+02
  -3.351438e+02  -2.208733e+02
  -6.777235e+01  -3.954214e+02
   1.349194e+02  -2.104905e+02
   5.513311e+01   1.453493e+02
  -1.350222e+02   2.920943e+02
  -3.272049e+02  -5.929705e+01
  -1.655167e+02  -4.244854e+02
   1.811903e+02  -6.650220e+02
   5.066274e+02   2.224697e+01
   1.503243e+02   4.387144e+02
  -2.369514e+02   2.553802e+02
  -2.718769e+02  -2.437890e+02
   6.778046e+01  -4.134342e+02
   5.580838e+02  -1.999552e+02
   4.445240e+02   3.036284e+02
   1.697898e+02   5.234356e+02
  -3.153338e+02   2.617042e+02
  -5.790851e+02  -6.427573e+01
  -3.196598e+02  -2.974862e+02
   7.037609e+01  -2.639131e+02
   3.138364e+02  -8.573141e+01
   2.358262e+02   8.309569e+01
  -4.552853e+01   8.675183e+01
  -1.401311e+02  -5.046056e+01
   1.255239e+02  -7.797206e+01
   3.356135e+02   7.288681e+01
   1.508907e+02   2.260354e+02
  -1.175880e+02   3.030042e+02
  -3.178998e+02   1.574875e+02
  -2.397329e+02  -6.608601e+01
   2.235380e+01  -2.491626e+02
   2.139632e+02  -3.110129e+02
   3.117072e+02  -1.493176e+02
   2.268040e+02   1.612824e+02
   1.165206e+02   3.285522e+02
  -7.201849e+01   3.321337e+02
  -1.085228e+02   1.021785e+02
  -2.395000e+01   6.571325e+01
  -8.120067e+01   9.904173e+01
  -2.429224e+02   6.971403e+01
  -2.398008e+02  -4.671191e+01
  -1.188321e+02  -2.605862e+02
   5.160424e+01  -2.325261e+02
   2.114379e+02   1.913439e+01
   1.723798e+02   2.621681e+02
  -1.637987e+01   2.751998e+02
  -2.042636e+02   1.198392e+02
  -3.754111e+02  -2.108297e+02
  -1.875817e+02  -3.356709e+02
   4.902289e+01  -2.017295e+02
   1.935198e+02  -1.142094e+02
   1.529132e+02  -2.574055e+01
   1.593219e+02   3.763146e+01
   2.096759e+02  -2.565952e+01
   3.648716e+02   9.413041e+01
   2.960128e+02   2.780256e+02
   4.789215e+01   3.968168e+02
  -4.005976e+02   4.322077e+02
  -5.027256e+02   2.261433e+02
  -2.553244e+02  -1.085281e+02
  -6.578791e+01  -2.188454e+02
   6.183620e+01  -2.828976e+02
   3.496619e+01  -3.345464e+01
  -1.235049e+02   7.741465e+01
  -1.630403e+02   9.081088e+00
  -1.657306e+01  -1.296737e+02
   1.142847e+02  -1.362791e+02
   1.451503e+02   4.465767e+01
   2.066156e+01   1.184922e+02
  -1.687873e+02   7.395074e+01
  -1.677764e+02  -2.634321e+02
   9.392554e+00  -3.137834e+02
   2.785034e+02  -1.989278e+02
   3.205495e+02   8.379261e+01
   2.963155e+02   2.318351e+02
   1.112537e+02   2.705416e+02
  -1.651130e+02   1.069862e+02
  -1.422419e+02  -3.444082e+01
  -9.075214e+01   1.215478e+01
  -2.622295e+01   2.861494e+01
   3.073437e+01   1.046292e+02
  -1.222461e+02   7.275376e+01
  -2.050115e+02  -1.028669e+01
  -3.995993e+01  -3.633403e+01
   1.075984e+02   1.310387e+01
   5.195502e+01   8.205270e+01
  -1.177912e+02   9.893792e+01
  -2.970665e+02   2.492583e+01
  -2.364384e+02  -6.827986e+01
  -2.997050e+01  -2.230180e+02
   1.493723e+02  -1.892056e+02
   2.589006e+02  -1.542217e+02
   1.694170e+02   1.166593e+01
  -1.930537e+01   3.578874e+01
  -8.022892e+01   6.211348e+01
   1.356242e+01  -1.253706e+02
   1.817435e+02  -3.838831e+01
   1.947285e+02   1.103813e+02
   9.430865e+01   1.576550e+02
  -1.000859e+02   1.536004e+02
  -1.063715e+02   4.145447e+01
  -8.516016e+01  -3.572929e+01
   2.667849e+01  -1.330284e+01
   2.004132e+01   7.517094e+01
  -4.007672e+01   9.537529e+01
  -1.303841e+02   3.594250e+01
  -2.097377e+02  -1.099564e+02
  -7.236155e+01  -2.089003e+02
   1.427752e+02  -1.299491e+02
   2.741052e+02   6.890523e-01
   6.374563e+01   9.778616e+01
  -3.398331e+01   1.169356e+02
  -6.639134e+01   6.451558e+01
   5.812836e+00  -1.877794e+01
   3.914285e+01  -1.518084e+01
  -6.234434e+01   2.076935e+01
  -7.626065e+01   1.261518e+01
  -4.673339e+01  -1.095514e+02
  -4.656321e+00  -1.370555e+02
   1.063152e+02  -1.847689e+02
   2.463397e+02   3.389002e+01
   1.843843e+02   9.660095e+01
   7.217556e+01   1.952934e+02
  -1.050944e+02   1.357423e+02
  -8.371530e+01   3.836854e+01
  -9.502081e+01  -9.179372e+00
  -6.460176e+01  -1.511828e+01
  -6.493769e+01   3.274962e+01
  -3.648291e+01   3.456446e+01
  -8.638292e+01  -2.979173e+01
   5.341434e+01  -7.191810e+01
   9.288982e+01  -5.683183e+01
   7.193044e+01   4.704821e+01
   1.554732e+01   8.125519e+01
  -1.469555e+02   1.194453e+02
  -2.203173e+02  -7.254726e+01
  -8.121041e+01  -2.162042e+02
   1.212217e+02  -2.274683e+02
   2.507079e+02  -1.278056e+02
   2.361485e+02   8.718158e+01
   9.922989e+01   1.431562e+02
  -2.245474e+01   1.360226e+02
  -8.015691e+01   3.975895e+01
  -6.550128e+01   1.063028e+02
  -4.650861e+01   9.993074e+01
  -7.480385e+01   8.092439e+01
  -1.155321e+02  -1.758479e+01
  -1.011413e+02  -1.076113e+02
  -1.022144e+01  -2.196553e+02
   7.677530e+01  -1.582550e+02
   1.378489e+02  -4.193433e+00
   1.329337e+02   9.417664e+01
   3.804141e+01   1.403361e+02
  -1.881163e+01   8.272936e+01
  -6.615468e+01   3.022294e+01
  -4.054517e+01  -4.915164e+01
   4.754846e+01  -5.854754e+01
  -6.904833e+00  -1.963081e+01
  -1.018397e+02   4.368789e-02
  -5.211848e+01  -2.342033e+01
   8.053496e+01  -4.087828e+01
   1.987644e+02  -5.550545e+01
   1.165217e+02   7.523255e+00
   2.173365e+01   6.104612e+01
  -1.333280e+02   1.048145e+02
  -1.073307e+02   1.159396e+01
  -4.459743e+01  -4.928912e+01
   6.619029e+01  -5.464491e+01
   1.107763e+02   3.589551e+01
  -9.096252e-01   5.215152e+01
  -2.522414e+01   4.945835e+01
  -6.444156e+01   4.679036e+01
  -5.634002e+01  -4.306210e+01
  -1.565747e+01  -2.492061e+01
  -8.039950e+01   9.900924e+00
  -6.455240e+01   4.057244e+00
  -5.011327e+01  -3.962129e+01
   3.470530e+01  -1.097657e+02
   6.166496e+01  -1.195262e+02
   2.083655e+02  -2.721829e+01
   1.370021e+02   9.818573e+01
  -2.354034e+01   1.282957e+02
  -7.455622e+01   9.406090e+01
  -3.393784e+01   7.249014e-01
   6.229443e+01  -1.200954e+01
   1.473577e+02   2.396493e+01
   5.976451e+01   8.007185e+01
  -5.040077e+01   1.107581e+02
  -2.188528e+02   2.888592e+00
  -1.416541e+02  -2.600983e+01
  -4.460529e+01  -7.643869e+01
   4.329677e+01  -1.358676e+01
   6.014852e+01  -1.548325e+01
  -6.306895e+01   1.991644e+01
  -5.364647e+01   2.813133e+01
  -4.122348e+01  -9.672657e+01
   6.995774e+01  -1.576536e+02
   1.199015e+02  -6.109630e+01
   1.349118e+02   7.625936e+01
   1.517383e+01   1.801635e+02
  -6.874624e+01   1.216210e+02
  -1.383280e+02  -1.295643e+01
  -5.302050e+01  -6.811165e+01
   4.374926e+01  -6.006601e+01
   6.274228e+01  -1.772196e+01
   2.234721e+01   3.105492e+01
   2.963568e+01   2.017526e+01
  -3.089753e-02  -4.828357e+01
   3.850691e+01  -9.770678e+00
   8.489422e+01   6.562957e+01
   8.221708e+01   1.127513e+02
  -6.974978e+01   5.535831e+01
  -1.469541e+02  -4.920060e+01
  -9.918814e+01  -9.258364e+01
  -2.521320e+01  -6.721489e+01
   1.037944e+02  -3.800400e+01
   8.262516e+01  -4.778527e+01
   1.723772e+01  -1.493320e+01
  -6.611379e+01   7.512493e+00
  -4.141357e+01   5.154227e+01
   1.141751e+01   2.157730e+01
  -1.359737e+00  -1.207998e+01
  -5.752019e+01  -1.994570e+01
  -9.799649e+01   7.312710e+00
   2.168396e+01  -9.077289e+01
   1.236393e+02  -8.292200e+01
   1.513921e+02  -6.484690e+01
   1.957777e+02   7.897239e+01
   3.403527e+01   1.754165e+02
  -7.624765e+01   1.537923e+02
  -1.175942e+02   9.495840e+01
  -5.407240e+01  -1.367759e+01
  -7.143681e+01  -4.023228e+01
   3.089528e+01  -2.112319e+01
  -3.837086e+01  -1.333360e+01
  -4.036864e+01  -4.632999e+01
  -5.562939e+01  -6.890464e+01
   1.142932e+01  -6.766677e+01
   5.764512e+01   1.927342e+00
   6.604363e+01   1.305392e+02
  -1.148850e+00   1.358587e+02
  -1.126635e+02   3.150882e+01
  -7.602142e+01  -8.660199e+01
  -8.897739e+01  -9.021376e+01
   7.199104e+01  -6.330322e+01
   7.812805e+01  -1.966087e+01
   1.554411e+01   1.015464e+01
  -5.088108e+01   1.071262e+02
  -4.362090e+01   4.686292e+01
   3.747373e+00  -5.602405e+01
   1.556879e+01  -4.154919e+01
   9.993454e+00   2.494976e+01
  -5.401876e+01   8.918507e+01
  -9.181492e+01   5.798384e+01
  -5.019333e+01  -3.718191e+01
   5.587306e+00  -8.575079e+01
   8.157743e+01  -6.852451e+01
   8.581057e+00  -1.531945e+01
   1.982188e+01   5.889686e+01
  -5.142020e+01   7.103944e+01
  -2.378191e+01  -2.844265e+00
  -3.161351e+01  -1.104904e+01
  -1.937104e+01  -8.374392e+01
   6.783833e+01  -6.886546e+01
   6.107364e+01   5.392536e+01
  -6.188332e+00   1.624738e+01
  -1.138487e+01  -2.856545e+01
   4.827373e+01   1.900681e+01
  -2.487588e+01   5.661428e+01
   1.143631e+01   2.494354e+01
  -1.880583e+01   1.995778e+00
   3.082799e+01  -3.270679e+01
  -1.627055e+01  -5.765963e+01
   4.153682e+01  -9.459941e+00
   6.392509e+01   2.192159e+01
   3.145219e+01   5.964579e+01
  -3.045906e+01   5.373171e+00
  -8.883083e+01   4.976893e+00
  -7.258720e+01  -4.970034e+01
   5.931339e+01  -3.859988e+01
   3.726614e+01  -3.413716e+01
   3.439385e+01  -4.496796e+00
  -4.150082e+01   6.139613e+00
  -3.758556e+01  -1.750400e+01
   8.536693e+00  -3.410947e+01
   8.545874e+01  -5.901462e+01
