
 $NMID
 id='ANONYMOUS ', fmtdat='(2E16.6)'
 volume=1.0
 tramp=1.0
 $END
  -4.723409e+03   2.848500e+02
  -2.329497e+03  -2.518536e+03
   6.685352e+02  -3.039927e+03
   2.378691e+03  -7.891153e+02
   9.489015e+02   8.759667e+02
  -9.132643e+02   5.608233e+02
  -9.349497e+02  -3.828162e+02
   7.932781e+01  -1.242949e+03
   7.952222e+02  -6.810314e+02
   9.001885e+02   1.946150e+01
   4.380620e+02   9.376196e+02
  -2.586053e+02   9.968038e+02
  -7.889019e+02   8.325937e+01
  -3.774322e+02  -7.146052e+02
   1.486912e+02  -7.211703e+02
   6.464719e+02   1.355127e+01
   3.442662e+02   7.487147e+02
  -3.805560e+02   7.115390e+02
  -5.331089e+02  -1.806434e+01
  -3.861091e+02  -3.204627e+02
  -2.407352e+01  -4.598275e+02
   2.516628e+02  -2.824674e+02
   1.935783e+02  -4.046912e+01
  -1.365945e+02   9.796967e+01
  -4.825750e+02  -5.033851e+01
  -2.396533e+02  -4.636581e+02
   4.419629e+02  -5.102992e+02
   9.294473e+02   1.467268e+02
   4.655721e+02   6.140085e+02
  -4.115869e+02   5.035646e+02
  -8.181471e+02  -7.375538e+01
  -3.753226e+02  -4.905617e+02
   2.906363e+02  -5.191046e+02
   5.680396e+02  -2.059957e+02
   3.964305e+02   2.172949e+02
   5.406545e+01   5.775879e+02
  -1.465774e+02   3.015013e+02
  -2.133854e+02  -2.015931e+02
   2.479352e+02  -4.843913e+02
   5.087808e+02   3.951704e+01
   2.202640e+02   7.150511e+02
  -3.748788e+02   7.465064e+02
  -6.179002e+02  -1.618363e+01
  -2.437966e+02  -6.003772e+02
   3.559224e+02  -3.213353e+02
   4.092358e+02   3.343630e+02
  -4.280358e+01   5.143328e+02
  -5.539946e+02   1.511608e+02
  -7.386481e+02  -3.866458e+02
  -2.675233e+02  -5.958001e+02
   3.287227e+02  -3.455465e+02
   7.394414e+02   1.007682e+02
   3.556561e+02   3.681298e+02
  -1.801505e+02   4.041587e+02
  -4.546403e+02   5.538224e+01
  -2.397145e+02  -1.933198e+02
   1.493977e+02  -1.270789e+02
   1.382866e+02   1.652687e+02
  -1.724410e+02   2.070706e+02
  -4.066453e+02  -2.847025e+01
  -1.476795e+02  -2.849981e+02
   1.770398e+02  -2.450872e+02
   3.113957e+02  -6.666630e+01
   1.347779e+02   1.250978e+02
  -2.506722e+01   2.755656e+02
  -2.098708e+02   3.089758e+02
  -3.402116e+02   2.534671e+02
  -3.590328e+02  -1.459668e+02
  -9.011964e+01  -4.040707e+02
   7.483798e+01  -4.172092e+02
   1.094655e+02  -8.534061e+01
   5.874907e+01   5.511739e+01
   9.798401e+01  -5.693093e+01
   2.101606e+02  -1.929119e+02
   3.127914e+02   3.745903e+01
   2.025789e+02   2.976338e+02
  -1.743743e+01   2.467013e+02
  -2.407391e+02   3.552612e+01
  -2.015219e+02  -2.345526e+02
  -1.434139e+01  -2.663932e+02
   2.920574e+02  -1.457148e+02
   3.802021e+02   2.080260e+02
   2.480610e+02   3.909745e+02
  -5.789173e+01   3.147429e+02
  -2.708715e+02   1.261802e+02
  -1.282012e+02   2.604218e+01
  -8.839262e+01   2.352133e+01
  -2.158963e+02   9.026278e+01
  -4.506619e+02  -5.403629e+01
  -3.319846e+02  -2.714708e+02
  -8.795984e+00  -4.435188e+02
   3.801844e+02  -4.690039e+02
   5.044147e+02  -2.786138e+02
   2.937629e+02   1.651222e+02
   5.722756e+01   2.005037e+02
  -1.638945e+02   2.764578e+02
  -1.267530e+02   6.515461e+00
   1.597711e+02  -1.284960e+02
   2.003069e+02  -1.268529e+01
   3.179150e+01   1.783056e+02
  -1.682652e+02   2.340061e+02
  -1.787971e+02  -8.289407e+01
   5.071730e+01  -1.697221e+02
   1.631372e+02  -1.961890e+01
   1.648771e+02   2.244506e+02
  -2.813151e+01   3.241416e+02
  -2.190810e+02   1.802885e+02
  -3.180837e+02  -6.649228e+01
  -2.808735e+02  -2.302572e+02
  -1.535685e+02  -2.635023e+02
   1.202544e+02  -2.253516e+02
   1.913236e+02  -3.071999e+00
   8.632311e+01   4.981207e+01
  -6.305031e+01  -3.673334e+01
  -4.724676e+01  -1.216194e+02
   9.557724e+01  -1.177009e+02
   2.136438e+02  -3.935722e+00
   2.944033e+01   7.767470e+01
  -8.461041e+01   1.080592e+01
  -2.271523e+01  -7.005239e+01
   1.288402e+02  -1.511219e+02
   3.174563e+02  -1.517891e+01
   2.093438e+02   1.028157e+02
   1.096029e+02   3.084433e+02
  -2.159725e+02   2.844364e+02
  -3.594545e+02   1.349269e+02
  -1.802080e+02  -3.428456e+00
   5.074082e+01  -9.494924e+01
   7.796551e+01   1.833464e+00
  -3.965808e+01   1.057585e+02
  -2.048861e+02   8.675378e+01
  -1.960503e+02  -4.674283e+01
  -8.203123e+01  -2.571949e+02
   1.078246e+02  -1.972645e+02
   1.288467e+02  -3.738854e+01
   4.650433e+01   5.914332e+01
  -9.321845e+00   3.662956e+01
  -2.997185e+01  -6.782987e+01
   5.588173e+01  -1.117691e+02
   1.602188e+02  -9.373929e+01
   1.702982e+02   1.523290e+02
   1.521676e+01   2.646191e+02
  -1.548757e+02   1.647106e+02
  -2.013283e+02   4.668990e+01
  -1.066498e+02  -1.210397e+02
   5.744994e+01  -9.550560e+01
   7.848737e+01  -8.978092e+00
   3.284806e+01  -3.563742e-01
  -1.434200e+00   3.657026e+01
   2.344480e+01  -9.473520e+00
   2.339765e+01  -1.477405e+01
   9.248321e+01   6.472726e+01
  -2.111001e+01   1.658185e+02
  -1.042144e+02   1.406049e+02
  -2.606544e+02   8.298760e+01
  -2.035321e+02  -1.737012e+02
  -7.670331e+01  -2.192004e+02
   1.376879e+02  -1.646446e+02
   1.329526e+02  -5.144962e+01
   1.428380e+02   5.962819e+01
   4.505754e+01   1.215933e+01
   5.648032e+01  -2.477133e+01
   9.428462e+01  -1.939414e+00
   4.163878e+01   9.901601e+01
  -6.996020e+00   9.236413e+01
  -6.975809e+01   3.588634e+01
  -5.989972e+01  -1.784346e+01
  -4.902756e+00  -1.241044e+02
   1.673410e+02  -1.481330e+02
   1.776094e+02   5.185747e+01
   1.042403e+02   1.637806e+02
  -7.536387e+01   2.908593e+02
  -2.795281e+02   1.249974e+02
  -2.792494e+02  -8.416570e+01
  -9.763419e+01  -1.805006e+02
  -1.019467e+01  -1.690441e+02
   1.129889e+02  -8.921800e+01
   9.509570e+01  -2.327534e+01
   5.599612e+01  -1.289390e+02
   5.559243e+01  -6.622115e+01
   9.793581e+01   3.772341e+01
   8.829773e+01   1.462732e+02
   1.975424e+01   2.276126e+02
  -1.363845e+02   1.831963e+02
  -1.089107e+02   5.440173e+01
  -1.113756e+02  -1.266767e+02
  -3.808523e+01  -1.420022e+02
   1.152861e+01  -7.373710e+01
   1.252024e+02  -5.953722e+00
   2.330784e+01   4.559948e+01
  -3.974521e+01   4.693075e+00
   3.379165e+01  -1.058494e+01
   5.571180e+01   1.757732e+01
   1.471502e+01   2.493839e+01
  -8.320296e+01   5.013658e+01
  -1.585442e+02   3.975270e+01
  -1.623090e+02  -6.771263e+01
   3.750918e+01  -2.995298e+01
   1.439698e+02  -6.546149e+01
   1.619484e+02  -2.718822e+00
   2.853364e+01   3.213143e+01
  -5.503664e+01   1.360137e+01
  -1.063530e+02  -3.884805e+01
  -2.463071e+01  -2.172022e+01
   3.730391e+01  -5.601386e+01
   6.264309e+01  -3.120015e+00
   5.534563e+01   5.266054e+01
   8.652412e+01   2.857026e+01
   5.585476e+01  -1.369529e+01
   4.425401e+01   4.006391e+01
   4.409867e+01   4.945899e+01
  -2.321288e+01   1.579303e+02
  -1.323153e+02   1.030499e+02
  -1.400449e+02   3.292969e+01
  -1.148294e+02  -5.019400e+01
  -1.118684e+01  -1.094699e+02
   6.972865e+01  -5.281853e+01
   6.608786e+01   1.070747e+01
  -4.046120e+01   6.868302e+00
  -1.091823e+02  -6.802704e+01
  -1.546862e+02  -7.938985e+01
   1.054621e+02  -1.169863e+02
   2.503047e+02  -4.972406e+01
   1.847836e+02   2.432600e+01
   4.249117e+01   8.879116e+01
  -4.643590e+01   7.680013e+01
  -2.651947e+01  -1.051403e-01
   7.066863e+01  -2.928342e+01
   7.401810e+01   4.326791e+01
  -3.910975e+00   1.020726e+02
  -1.047826e+02   1.763650e+02
  -1.401224e+02   8.452319e+01
  -1.228563e+02  -7.453265e+01
  -2.471846e+01  -1.860464e+02
   1.035505e+02  -1.280411e+02
   1.042724e+02  -3.045191e+00
   4.384966e+01   1.131115e+02
   1.914192e+01   1.328400e+02
  -5.028054e+01   4.065907e+01
  -8.867619e+01  -5.460023e+00
  -3.451125e+01   4.985856e+01
   2.696919e+01   2.315766e+00
  -3.718252e+01  -5.230336e+00
  -4.616015e+01  -8.602243e+01
  -7.093183e+01  -1.132019e+02
   1.318876e+01  -1.137602e+01
   1.802370e+02   5.086103e+01
   1.272620e+02   5.344273e+01
   2.093957e+01   6.838595e+01
  -7.118434e+01   1.925034e+01
  -9.063944e+01   3.180353e+01
   1.237343e-01   2.412852e+01
   4.696314e+01  -1.149713e+01
   4.283576e+01  -3.002521e+01
  -4.692188e+01  -3.867198e+01
  -1.096957e+01  -9.024454e+00
   9.143626e+01   1.033122e+00
   1.265522e+02  -3.718052e-01
   1.931808e+01   7.574763e+01
  -8.301633e+01   1.373723e+02
  -1.837348e+02   5.106453e+01
  -1.317530e+02  -5.276077e+01
  -5.289628e+01  -1.804394e+02
   6.330252e+01  -1.668212e+02
   9.362558e+01  -7.437286e+01
   1.032876e+02   1.174158e+00
   4.040433e-01   3.991994e+01
   2.718187e+01   1.474596e+01
   5.214279e+00  -1.579610e+01
   3.195761e+01   4.795095e+01
   3.552764e+01   1.116598e+02
  -8.792906e+01   3.770798e+01
  -2.421293e+01   4.520269e+01
  -9.604716e+01  -9.194848e+01
   1.313881e+01  -1.477815e+02
   8.306388e+01  -1.548018e+01
   1.210468e+02   7.355280e+01
   4.641292e+01   3.888772e+01
  -6.438897e+01   3.038970e+01
  -1.145109e+02  -1.922070e+01
  -5.683300e+01  -3.328519e+01
   4.929767e+00  -6.241000e+01
   6.534826e+01  -6.104687e+01
  -2.771865e+01  -2.920167e+01
  -1.800785e+01  -1.236788e+01
   2.554331e+00  -4.543014e+00
   4.830728e+01  -9.059635e+01
   1.506170e+02  -1.224583e+02
   3.510999e+01  -1.090225e+01
   3.321360e+00   7.436650e+01
  -2.966044e+01   7.476442e+01
  -3.238960e+00   1.666859e+01
  -5.780345e+00  -2.410557e+01
   6.428672e+01  -1.424057e+01
   6.366188e+01  -4.614408e+00
   2.992813e+01  -2.579288e+00
  -7.594112e+00   5.491893e+01
  -4.993405e+01   3.914464e+01
   6.297041e+00  -7.152645e+01
  -5.689241e+01  -1.167932e+01
  -1.129932e+01  -3.454899e+01
   1.497574e+01  -4.242240e+00
   2.122161e+01  -5.690270e+00
   6.563851e+00  -2.495591e+01
   4.860412e+01  -2.021925e+01
   1.449226e+01   6.333304e+01
   2.710643e+01   3.987520e+01
  -3.752039e+01   2.829917e+01
  -1.136048e+02  -4.953244e+01
  -4.199732e+01  -8.207519e+01
   2.384253e+01  -2.798664e+01
   9.118593e+01  -2.208185e+00
   1.076758e+02   7.013065e+01
  -5.288850e+00   5.786223e+01
  -1.020354e+02   1.174862e+01
  -2.971537e+01   2.572165e+01
  -6.855812e+00  -2.933019e+01
   4.331996e+01   8.492859e-01
  -4.628056e+01   6.274781e+01
  -1.268653e+02   3.522204e+00
