
 $NMID
 id='ANONYMOUS ', fmtdat='(2E16.6)'
 volume=1.0
 tramp=1.0
 $END
   4.442975e+03  -1.094953e+02
   2.482787e+03   2.470098e+03
  -6.411704e+02   3.041219e+03
  -2.164824e+03   7.524369e+02
  -9.041940e+02  -5.972151e+02
   7.595710e+02  -7.517329e+02
   9.562771e+02   4.961492e+02
  -1.363012e+02   1.238422e+03
  -8.467230e+02   6.391357e+02
  -9.286688e+02   1.778361e+00
  -4.370573e+02  -8.736968e+02
   2.380078e+02  -9.998033e+02
   6.976745e+02  -3.273455e+01
   3.352761e+02   7.675311e+02
  -1.879245e+02   7.865192e+02
  -5.792057e+02  -7.061957e+01
  -3.078262e+02  -7.139619e+02
   3.461236e+02  -5.777455e+02
   4.932195e+02  -5.899508e+01
   3.480167e+02   3.654926e+02
   1.431799e+02   4.030996e+02
  -1.683426e+02   2.956399e+02
  -2.545433e+02   6.372128e+01
   1.703615e+02  -6.607070e+01
   3.932096e+02   4.289450e+00
   2.117841e+02   4.244756e+02
  -4.860117e+02   5.556703e+02
  -9.361733e+02  -1.724308e+02
  -5.081223e+02  -5.138186e+02
   4.276494e+02  -4.777934e+02
   7.735771e+02   6.441921e+01
   2.973317e+02   5.244059e+02
  -2.615973e+02   5.126297e+02
  -5.229844e+02   2.741555e+02
  -4.617704e+02  -2.118864e+02
  -4.352617e+01  -4.602299e+02
   2.346036e+02  -3.115414e+02
   1.641538e+02   1.663137e+02
  -2.331827e+02   4.718705e+02
  -5.091051e+02  -2.266542e+01
  -3.017591e+02  -5.965373e+02
   4.109626e+02  -6.565228e+02
   5.833270e+02  -5.599287e+01
   2.342507e+02   6.209310e+02
  -3.233058e+02   3.426447e+02
  -3.438989e+02  -3.517195e+02
   8.182623e+01  -6.044067e+02
   6.081272e+02  -1.687612e+02
   6.608683e+02   3.758771e+02
   2.876610e+02   5.929491e+02
  -3.563309e+02   3.941408e+02
  -6.634291e+02  -4.887690e+01
  -3.569083e+02  -3.372215e+02
   1.000843e+02  -3.791286e+02
   4.622236e+02  -5.059476e+01
   2.359764e+02   1.948494e+02
  -1.403258e+02   1.464787e+02
  -1.605644e+02  -1.351504e+02
   1.861966e+02  -2.267764e+02
   4.193203e+02   6.566114e+01
   1.586328e+02   2.458779e+02
  -1.798054e+02   3.102993e+02
  -4.002416e+02   1.538694e+01
  -1.517028e+02  -9.411527e+01
   1.480537e+01  -2.310630e+02
   1.386743e+02  -3.486958e+02
   3.375696e+02  -2.347576e+02
   3.305064e+02   1.609494e+02
   5.400387e+01   3.988599e+02
  -8.251409e+01   4.048555e+02
  -9.800209e+01   6.779327e+01
  -8.616431e+00  -1.846941e+01
   4.695181e+00   1.019617e+02
  -1.620402e+02   1.496124e+02
  -3.618732e+02  -6.380490e+01
  -1.716891e+02  -2.595837e+02
   5.811779e+01  -2.575138e+02
   2.487722e+02  -3.191776e+01
   2.541075e+02   2.880815e+02
   1.460075e+01   2.948118e+02
  -2.429195e+02   7.846640e+01
  -3.749418e+02  -1.200214e+02
  -2.365214e+02  -3.578952e+02
   5.935730e+01  -3.230189e+02
   2.770710e+02  -1.125318e+02
   1.234789e+02  -4.587569e+01
   1.142174e+02  -5.295868e+01
   1.854375e+02  -1.206793e+02
   4.736659e+02   6.542767e+01
   4.099284e+02   2.846977e+02
   5.163575e+01   4.722975e+02
  -4.050256e+02   3.970907e+02
  -4.643392e+02   2.553621e+02
  -3.476985e+02  -1.711817e+02
  -1.801004e+01  -2.815369e+02
   1.479061e+02  -2.707035e+02
   1.225833e+02  -1.939150e+01
  -9.215707e+01   1.360454e+02
  -1.858324e+02   3.550895e+01
  -4.691200e+01  -1.541921e+02
   1.674250e+02  -2.285083e+02
   2.228572e+02   5.154433e+01
  -4.002421e+01   1.813990e+02
  -1.894321e+02   4.277622e+01
  -2.059650e+02  -2.724577e+02
   2.671421e+01  -3.426260e+02
   1.861127e+02  -1.470531e+02
   3.522373e+02   4.814747e+01
   3.077840e+02   2.857462e+02
   1.290397e+02   2.770828e+02
  -1.147636e+02   1.932669e+02
  -1.928602e+02   3.680587e+01
   3.496422e+00  -5.196274e+01
   4.542001e+01   4.374632e+01
   4.915203e+01   1.317740e+02
  -8.977820e+01   1.389063e+02
  -2.022978e+02   3.380106e+01
  -8.679578e+01  -5.470733e+01
   9.617916e+01   2.129772e+01
   2.078341e+01   8.708891e+01
  -9.538611e+01   1.219615e+02
  -3.044003e+02   1.079422e+00
  -2.985435e+02  -1.056476e+02
  -1.130725e+02  -2.481187e+02
   1.920340e+02  -2.907888e+02
   2.837837e+02  -1.715396e+02
   1.748957e+02   4.802499e+01
  -3.249221e+01   1.157065e+02
  -1.095635e+02   6.623386e+00
   1.968347e+01  -1.322854e+02
   1.837800e+02  -1.032398e+02
   2.093111e+02   1.055547e+02
   1.255933e+02   2.446392e+02
  -1.029045e+02   1.730134e+02
  -1.527773e+02   5.941092e+01
  -8.156959e+01  -7.988100e+01
   3.043646e+01  -3.896845e+00
   4.311971e+01   5.964776e+01
  -9.965673e+01   1.247529e+02
  -1.324347e+02   4.765084e+01
  -2.328516e+02  -1.339952e+02
  -3.852561e+01  -2.330520e+02
   1.881694e+02  -1.759655e+02
   1.554027e+02   4.662378e+00
   7.046071e+01   1.360661e+02
  -1.895450e+01   1.209234e+02
  -1.101104e+02   4.466824e+00
  -1.949612e+01   4.163517e+01
   4.503476e+01  -2.524808e+01
  -6.202933e+00   2.044759e+01
  -2.413520e+01   1.639437e+01
  -6.944034e+01  -7.304797e+01
  -1.379176e+01  -1.446704e+02
   1.018069e+02  -1.736803e+02
   2.059005e+02  -4.735439e+01
   1.775679e+02   1.279358e+02
   9.518558e+01   2.020234e+02
  -9.458302e+01   1.600699e+02
  -1.191577e+02   2.358216e+01
  -8.206262e+01  -3.223617e+01
  -2.122444e+01   5.724800e+00
  -4.252022e+01   1.134884e+01
  -9.790992e+01   9.985766e+00
  -2.352699e+01  -5.380163e+01
   1.729426e+01  -7.453620e+01
   7.584865e+01  -8.894380e+00
   3.114582e+01   5.131695e+01
   2.055017e+01   9.698438e+01
  -1.653707e+02   1.062422e+02
  -2.107789e+02  -1.399996e+00
  -1.223433e+02  -2.034251e+02
   9.666297e+01  -1.948923e+02
   3.011766e+02  -9.231197e+01
   2.639578e+02   1.184472e+02
   1.209011e+02   1.753781e+02
  -3.126110e+01   1.550357e+02
  -1.112703e+02   1.162911e+02
  -9.902846e+01   8.092214e+01
  -7.439543e+01   6.883586e+01
  -6.823895e+01   8.820064e+01
  -1.296339e+02  -5.247702e+01
  -8.415979e+01  -1.338467e+02
  -4.121331e+01  -2.249180e+02
   7.876356e+01  -1.781587e+02
   2.128875e+02  -4.846290e+01
   1.273539e+02   9.697742e+01
   1.297844e+01   1.321425e+02
  -6.394785e+01   8.218100e+01
  -1.161432e+02  -9.065485e+00
  -1.715671e+01  -2.908452e+01
  -1.067222e+01  -1.893270e+01
  -3.204552e+00   7.452309e+00
  -6.418187e+01  -7.041054e-01
  -3.646720e+01  -5.244592e+01
   3.797930e+01  -4.988561e+01
   1.167473e+02   2.436180e+01
   1.220840e+02   1.970528e+01
   1.432414e+01   8.695817e+01
  -1.656971e+02   8.534218e+01
  -1.864400e+02   3.711702e+01
  -3.275763e+01  -4.271328e+00
   9.718291e+01  -4.056762e+01
   7.623410e+01   1.436784e+01
  -4.936082e+00   3.392743e+01
  -6.798476e+01   5.862097e+01
  -5.220964e+01   3.987698e+00
  -6.768700e+01  -2.025299e+01
  -1.757776e+01  -6.773194e+01
  -4.886959e+01  -9.686269e+00
  -1.029456e+02  -4.823596e+00
  -4.597845e+01  -9.102007e+01
  -5.465366e+00  -1.486921e+02
   1.293675e+02  -1.075308e+02
   1.410174e+02  -5.528191e+01
   1.210510e+02   1.240738e+02
   3.209939e+01   1.380411e+02
  -2.333752e+01   1.344350e+01
  -6.529617e+01   1.662097e+00
   8.709504e+01  -1.045342e+01
   9.046127e+01   2.985243e+01
   9.679499e+01   9.106355e+01
  -5.877443e+01   1.091647e+02
  -1.893195e+02   4.731401e+01
  -1.994149e+02  -3.799196e+01
  -4.785028e+01  -6.941894e+01
   5.589959e+01  -1.260625e+02
   1.873366e+01   6.707007e+00
  -2.460106e+01   1.252304e+01
  -6.948629e+01  -1.239583e+01
  -2.030267e+01  -6.547200e+01
   6.652606e+01  -1.437505e+02
   1.862006e+02  -4.594342e+01
   1.004950e+02   9.433463e+01
   4.334211e+01   2.300432e+02
  -1.045734e+02   1.512088e+02
  -8.530794e+01  -1.587615e+01
  -5.553839e+01  -1.294630e+02
  -2.913808e+01  -8.219580e+01
   2.304572e+01  -2.447645e+01
   9.321734e+01   4.852099e+01
   3.370608e+01  -2.434007e+01
   4.419421e+01  -1.918781e+01
   2.316231e+01  -1.799380e+01
   8.470035e+01   7.303188e+01
   6.728255e+01   1.135101e+02
  -5.476588e+01   4.952463e+01
  -1.707620e+02  -5.263453e+01
  -1.425244e+02  -6.704322e+01
  -5.870807e+01   1.547812e+01
   1.189996e+02  -4.244726e+01
   9.721609e+01  -9.497337e+00
  -1.413742e+01  -4.220760e+01
  -4.173681e+01   1.337807e+01
  -4.683550e+01   1.935172e+01
   9.440715e+00  -1.417031e+01
   5.625936e+00  -9.188292e+00
  -1.241092e+02   1.004111e-01
  -1.183965e+02  -4.862543e+01
   1.608201e+01  -6.670549e+01
   1.177076e+02  -8.281459e+01
   1.345605e+02  -4.873140e+01
   1.486770e+02   4.748846e+01
   3.464821e+01   1.630965e+02
  -5.988400e+01   1.393769e+02
  -1.084247e+02   7.635968e+01
  -9.839370e+01  -4.430193e+00
  -4.221664e+01  -4.297878e+01
   4.001241e+01   1.507057e+01
   2.510535e+01   2.950782e+01
  -5.731960e+01  -7.311887e+01
  -2.395351e+01  -1.025592e+02
  -9.542153e+00  -3.411412e+01
   5.912777e+01   7.401558e+01
   8.431133e+01   9.657769e+01
  -3.180483e+01   1.220189e+02
  -8.456556e+01   1.019677e+01
  -8.113251e+01  -4.514573e+01
  -1.707307e+01  -7.318337e+01
   5.230113e+01  -7.393477e+01
   1.181933e+02   9.709290e+00
   2.254948e+01   4.607268e-01
  -6.813624e+01   6.094253e+01
  -3.591153e+01   3.036855e+01
   3.178888e+01  -3.964674e+01
   2.423238e+01  -3.711697e+01
   2.712897e+01   3.462413e+00
  -5.837377e+01   3.820656e+01
  -8.032966e+01   5.013386e+01
  -7.739142e+01   3.464493e+01
   1.662667e+01  -8.899411e+01
   3.930360e+01  -6.470619e+01
   3.834380e+01  -1.536506e+01
  -4.041973e+01   8.686096e+01
   6.608293e-01  -7.805474e+00
  -7.857267e+00   2.015233e+01
  -9.049546e+00  -1.859036e+01
  -2.055451e+00  -4.966593e+01
   3.960217e+01  -1.047067e+01
   6.284075e+01   8.489031e+00
   1.555251e+01  -1.827123e-01
   1.078767e+01  -1.960806e-01
  -5.202714e+00   2.827083e+01
   1.461282e+01   5.175561e+01
   2.520400e+01   1.868782e+01
  -5.381706e+01   8.799445e+00
  -7.214573e+01  -6.271284e+01
  -2.020539e+01  -6.030976e+01
   8.256703e+01  -4.031677e+01
   7.247976e+01   4.063958e+01
   6.827121e+00   1.121734e+02
  -4.155800e+01   6.840377e+01
  -8.212206e+01   1.975577e+01
  -6.870029e+01  -8.089104e+01
   3.515129e+01  -3.734148e+01
   7.180974e+01  -5.510291e+01
   1.754570e+01  -3.785891e+01
  -2.776493e+01   2.605742e+01
  -6.249476e+01  -3.338484e+01
   5.106441e+01  -8.461271e+00
   1.032922e+02  -9.601905e+00
