
 $NMID
 id='ANONYMOUS ', fmtdat='(2E16.6)'
 volume=1.0
 tramp=1.0
 $END
  -2.412399e+03   1.685568e+01
  -1.462752e+03  -8.576376e+02
   1.116903e+02  -1.474442e+03
   5.546350e+02  -1.088073e+03
   9.380500e+02  -3.336871e+02
   1.211729e+02  -1.595122e+02
  -7.934619e+01   1.895367e+01
   5.372803e+00  -3.603140e+02
   2.123405e+02  -4.639219e+02
   5.924878e+02  -1.340371e+02
   3.600462e+02   3.562699e+02
   1.536895e+02   6.149917e+02
  -2.273012e+02   2.246371e+02
  -3.130635e+02  -3.358953e+02
  -4.748652e+00  -3.499642e+02
   2.588751e+02  -1.209295e+02
   2.632476e+02   4.318623e+02
  -7.957237e+01   4.718377e+02
  -2.164168e+02   3.094846e+02
  -3.670834e+02  -1.278662e+02
  -1.533551e+02  -2.401324e+02
   6.817254e+01  -2.313201e+02
   2.323155e+01  -3.995194e+01
  -1.689917e+02  -1.070817e+02
  -2.196405e+02  -2.284990e+02
   1.800086e+01  -1.654842e+02
   4.410077e+02  -6.159090e+01
   4.343008e+02   1.577127e+02
   1.523110e+02   2.995519e+02
  -2.388674e+02   1.065005e+02
  -4.396199e+02  -8.113814e+01
  -8.597925e+01  -1.801796e+02
   1.904670e+02  -2.967180e+02
   3.335455e+02  -1.539653e+02
   2.816610e+02   7.927710e+01
   7.669423e+01   2.112831e+02
   5.740025e+01   1.268974e+02
   1.740577e+01  -1.816841e+01
   1.879241e+02  -1.334028e+02
   9.825443e+01   1.142454e+02
   2.536878e+01   2.537841e+02
  -2.003467e+02   2.693804e+02
  -1.878928e+02  -6.405997e+01
  -7.505590e+01  -1.971499e+02
   1.224095e+02  -1.029904e+02
   1.053034e+02   1.424902e+02
  -7.899120e+01   3.328552e+02
  -3.207970e+02  -2.448601e+01
  -4.338130e+02  -2.896279e+02
  -5.287630e+01  -5.318594e+02
   2.430465e+02  -2.764549e+02
   3.855844e+02   4.658788e+01
   2.826956e+02   1.593486e+02
  -3.595630e+01   1.825593e+02
  -2.288963e+02   7.165235e+01
  -1.881993e+02  -2.077627e+01
   2.068501e+00   2.732859e+00
  -3.740541e+01   1.466376e+01
  -2.156521e+01   4.445480e+01
  -1.791513e+02  -5.587102e+01
  -1.136713e+02  -1.292001e+02
   1.099553e+02  -2.173072e+02
   2.949945e+02  -1.336420e+02
   2.204331e+02   4.882470e+01
  -4.831872e+01   1.989834e+02
  -2.617114e+02   3.307075e+02
  -2.773307e+02   1.502052e+02
  -1.545784e+02  -1.623428e+02
  -1.159119e+02  -3.342747e+02
  -1.418129e+00  -2.803252e+02
  -3.188054e+01  -1.792872e+02
   1.917782e+01  -1.011596e+02
   1.289045e+02  -1.298939e+02
   1.778106e+02  -2.797141e+01
   2.082907e+02   1.132310e+02
   1.032630e+02   2.199866e+02
  -1.077672e+02   9.318291e+01
  -1.019150e+02  -2.610116e+01
  -1.182011e+02  -2.080701e+02
   6.759553e+00  -1.754693e+02
   1.409364e+02  -8.623965e+00
   2.444751e+02   1.386009e+02
   8.430801e+01   2.717950e+02
  -3.396610e+01   1.871155e+02
  -1.650838e+02   1.412205e+02
  -1.361781e+02   6.184543e+01
  -1.161134e+02   9.208362e+01
  -2.373153e+02   3.829630e+01
  -3.563940e+02  -3.896968e+01
  -2.708389e+02  -3.212887e+02
   5.042030e+01  -3.921190e+02
   2.963706e+02  -3.575902e+02
   5.060940e+02  -1.320769e+02
   2.269117e+02   3.556825e+01
   3.985281e+01   1.672410e+02
  -6.634802e+01   1.908990e+02
   6.405557e+01   3.602091e+01
   9.466625e+01  -3.167942e+01
   8.060262e+01   3.552049e+01
   4.773587e+00   7.013202e+01
  -7.238465e+01   1.025822e+02
  -4.739004e+01  -4.389243e+01
   4.176716e+01  -1.300140e+02
   1.170099e+02  -3.087909e+01
   1.192980e+02   1.457287e+02
  -5.862927e+00   2.944717e+02
  -1.458467e+02   1.979273e+02
  -2.642608e+02  -2.849070e+01
  -2.702025e+02  -1.608038e+02
  -8.364454e+01  -2.331556e+02
   6.831812e+01  -1.181824e+02
   8.688561e+01   3.115059e+01
   2.758170e+01   3.731531e+01
  -5.149213e+01  -5.438468e+01
   3.525756e+01  -6.920516e+01
   8.579570e+01  -2.443294e+01
   1.795952e+02   1.797271e+01
   3.000127e+01   4.245632e+01
  -8.254293e+01  -2.008221e+01
   8.018529e+00  -6.727911e+01
   7.182354e+01  -8.540339e+01
   2.837176e+02   1.539104e+01
   2.401379e+02   1.134397e+02
   6.344458e+01   1.988103e+02
  -1.449139e+02   2.396132e+02
  -2.197712e+02   7.223221e+01
  -1.163472e+02  -7.840472e+00
  -2.673356e+01  -1.055693e+02
   5.458981e+01  -2.373349e+01
  -6.562222e+01   7.079010e+01
  -1.448408e+02   2.309251e+01
  -1.614852e+02  -8.110037e+01
  -4.560069e+01  -1.435945e+02
   9.604294e+01  -1.137167e+02
   8.919520e+01   5.442438e+00
   1.493069e+01   1.807494e+01
  -9.753456e+01  -4.813704e+01
  -7.259366e+01  -1.189626e+02
   9.922975e+01  -2.585480e+01
   1.515135e+02  -3.266338e+01
   1.738304e+02   1.096021e+02
  -1.551017e+00   1.728090e+02
  -5.612762e+01   1.034500e+02
  -1.445769e+02   7.582654e+01
  -6.235023e+01  -5.584353e+01
   5.478519e+01  -7.460791e+01
   6.657039e+01  -8.261855e+00
  -3.374964e+01   9.843787e+00
  -3.521177e+01   1.250896e+01
  -6.837272e+00  -3.535348e+00
   6.423177e+01  -2.696770e+01
   1.046441e+02   9.645830e+01
   4.228257e+01   1.269006e+02
  -8.067723e+01   1.113834e+02
  -2.022706e+02   2.569257e+01
  -8.777311e+01  -1.142170e+02
  -6.293004e+01  -1.769811e+02
   1.038642e+02  -9.396411e+01
   9.114187e+01   1.414332e+01
   4.787364e+01   5.796248e+01
   2.467029e+01   7.853596e+00
   5.396171e+01  -2.712711e+01
   4.904752e+01  -4.288902e+01
   3.898655e+01   9.729501e+01
  -1.191937e+01   6.275634e+01
  -9.452435e+01   2.613501e+01
  -7.346350e+01  -1.042325e+02
   3.017067e+01  -1.171229e+02
   1.170748e+02  -5.048253e+01
   1.666630e+02   2.230731e+01
   6.972015e+01   1.867515e+02
  -9.926554e+01   1.584925e+02
  -2.099332e+02   6.408211e+01
  -1.470058e+02  -7.156265e+01
  -9.461683e+01  -1.372844e+02
   4.835448e+01  -1.260575e+02
   5.397874e+01  -3.582608e+01
   8.118854e+01  -4.153436e+01
   4.873644e+01  -3.729254e+01
   5.811475e+01  -8.717114e+01
   1.191494e+02   4.823371e+01
   1.024485e+02   1.609429e+02
   5.471170e+01   2.243389e+02
  -8.109415e+01   1.194424e+02
  -1.444637e+02  -1.938955e+01
  -6.429858e+01  -9.437001e+01
  -3.868732e+01  -1.341464e+02
   4.301872e+01  -1.055709e+02
   6.642938e+01   1.690211e+01
   2.766943e+00   4.147661e+01
  -1.863928e+01   3.198025e+01
   3.351495e+01   9.093249e+00
   5.399181e+01  -4.085980e+00
   4.762820e+01   6.422910e+01
  -3.433121e+01   5.350773e+01
  -1.553607e+02  -2.792106e+01
  -1.285791e+02  -6.964104e+01
   8.649373e+00  -2.953053e+01
   1.226922e+02  -9.291636e+01
   1.148129e+02   2.912373e+01
   2.983806e+01   2.396141e+01
  -3.858277e+01   6.094193e+01
  -8.081216e+01   3.850001e+00
  -4.977542e+01  -2.324235e+01
   2.959712e+01  -5.645846e+01
   6.007305e+01   5.711855e+01
   8.613633e+01   5.974273e+01
   2.375415e+01   3.062309e+01
  -4.137319e+00   8.890317e+00
   5.247757e+01   5.251433e+00
   4.598599e+01   1.237299e+02
  -1.483727e+01   6.428090e+01
  -1.086060e+02   1.409066e+02
  -1.413621e+02   3.576968e+01
  -8.461649e+01  -3.901408e+01
  -1.735338e+01  -9.716208e+01
   5.643702e+01   1.062320e+00
   4.900573e+01   2.600041e+01
  -7.311774e+01   2.268241e+01
  -1.474382e+02  -1.401620e+01
  -8.422499e+01  -1.174544e+02
   7.267865e+01  -1.277012e+02
   1.650152e+02  -3.929019e+01
   1.379935e+02   1.088253e+02
   2.953960e+01   6.539031e+01
  -9.190574e+01   7.189591e+01
  -2.486534e+01  -5.273593e+00
   4.379357e+01   3.966346e+00
   8.522191e+01  -1.498324e+01
   4.398592e+01   7.774728e+01
  -1.023615e+01   1.109179e+02
  -8.746519e+01   9.840932e+01
  -1.003963e+02  -7.723736e+01
  -2.671009e+01  -1.087087e+02
   6.357810e+01  -9.704059e+01
   4.800519e+01   1.341646e+01
   3.720092e+01   1.427467e+02
  -2.054258e+00   1.275996e+02
  -4.938226e+01  -1.143374e+01
  -4.388461e+01  -2.851727e+01
   1.265404e+01  -4.675793e+00
  -1.491495e+01   6.363093e+01
  -3.819124e+01   7.348765e+00
  -5.397738e+01  -9.745282e+01
  -7.739770e+01  -8.083544e+01
   2.971875e+01  -7.329732e+01
   1.512663e+02   1.053854e+01
   1.347837e+02   4.973071e+01
   5.208429e+00   3.000450e+01
  -6.642202e+01   5.176891e+01
  -6.709190e+01   1.675347e+01
  -2.818564e+01  -2.654295e+01
   4.660394e+00  -2.110082e+01
   1.411688e+00  -4.328143e+01
   1.562265e+01  -2.221041e+01
  -9.739025e+00   4.716360e+01
   1.626756e+01   8.609085e+00
   9.722818e+01   1.581906e+01
   3.699487e+01   7.143720e+01
  -6.700077e+01   9.921016e+01
  -1.170719e+02   7.637604e+01
  -1.428118e+02  -1.686180e+01
   3.862886e-01  -1.371859e+02
   1.977949e+01  -2.028832e+02
   1.185446e+02  -6.115167e+01
   1.031563e+02   2.822116e+01
   5.017555e+01  -2.028578e-01
  -1.541570e+01  -1.880070e+00
   1.234050e+01   3.086053e+01
   4.790108e+00   3.678219e+01
   1.164497e+00   9.936894e+01
  -3.291820e+01   6.038291e+01
  -7.918818e+01  -5.151706e+01
  -6.446847e+01  -8.748923e+01
  -2.523775e+01  -8.080255e+01
   2.847311e+01  -2.367777e+01
   1.119360e+02   1.417068e+01
   2.492090e+01   5.308843e+01
  -1.048091e+02   5.247627e+01
  -7.696542e+01  -2.464589e+01
  -2.765224e+01  -5.684821e+01
   7.186507e+01  -4.156210e+01
   4.200147e+01  -1.705259e+01
   9.352351e+00   5.430080e+01
  -5.488932e+01  -2.480735e+01
  -4.591354e+01   1.081327e+01
   3.616368e+01  -3.541907e+01
   1.617091e+02  -4.073440e+01
   5.129900e+01  -3.834803e+00
  -1.514771e+01   7.704123e+01
  -5.610209e+01   3.686381e+01
  -7.159479e+01   3.791517e+01
  -1.671586e+01  -2.702547e+01
   1.861904e+01  -2.385463e+01
   4.702068e+01  -1.844694e+01
   2.217857e+01   8.931091e+01
  -4.027804e+01   1.800653e+01
  -4.542727e+01  -9.571311e+00
  -4.450648e+01  -4.834286e+01
  -1.024187e+01   3.193387e+00
   3.330608e+01  -2.021160e+01
   1.416006e+01   2.689724e+01
  -3.146279e+01  -1.287021e+01
  -2.171406e+01  -4.165625e+01
   3.769057e+01   1.747205e+00
   3.017914e+01  -1.727906e+01
   5.680313e+00   1.970228e+01
  -4.266052e+01   8.072801e+01
  -3.428008e+01  -2.644868e+01
   1.020500e+01  -4.073567e+01
   3.763491e+01  -1.526107e+01
   9.792498e+01  -2.164785e+01
   4.482219e+01   4.909148e+01
   4.586526e+01   6.112831e+01
  -2.364021e+01   8.127800e+00
  -1.538672e+01  -4.528918e+01
   2.836659e+01  -4.488007e+01
   1.235874e+01   1.743610e+01
   1.420045e+00   5.789103e+01
  -8.584591e+01  -7.504162e+00
