
 $NMID
 id='ANONYMOUS ', fmtdat='(2E16.6)'
 volume=1.0
 tramp=1.0
 $END
   3.017011e+03  -1.569471e+02
   1.997929e+03   1.014892e+03
  -4.006177e+02   1.629575e+03
  -1.252602e+03   1.112951e+03
  -9.446643e+02   3.053677e+01
  -3.218252e+01  -1.102015e+02
   3.137496e+02   1.450358e+01
   1.437555e+02   6.658057e+02
  -3.592213e+02   4.301636e+02
  -7.126293e+02   1.840718e+02
  -3.742657e+02  -5.482068e+02
  -4.747876e+01  -7.731244e+02
   3.480741e+02  -1.471650e+02
   3.437380e+02   3.390096e+02
  -6.346483e+01   5.228594e+02
  -3.869706e+02   1.468108e+02
  -3.449485e+02  -5.645319e+02
   1.666475e+02  -5.177188e+02
   2.994886e+02  -2.343584e+02
   3.713224e+02   1.895201e+02
   1.227413e+02   3.371684e+02
  -1.289001e+02   2.768381e+02
  -1.173796e+02   5.882189e+01
   1.435994e+02   7.165158e+01
   2.642658e+02   2.553960e+02
   6.048543e+00   2.525352e+02
  -4.638739e+02   2.512734e+02
  -6.274603e+02  -1.745964e+02
  -2.517129e+02  -4.808884e+02
   2.329276e+02  -1.826260e+02
   4.994796e+02   1.064599e+02
   1.774366e+02   2.751051e+02
  -2.060096e+02   3.996751e+02
  -4.219527e+02   1.826271e+02
  -3.395349e+02  -1.385660e+02
  -3.597800e+01  -3.332640e+02
   2.454698e+01  -1.979998e+02
   1.023656e+02   2.897490e+01
  -1.417607e+02   2.251048e+02
  -2.139120e+02  -1.263238e+02
  -5.355901e+01  -4.092145e+02
   1.669869e+02  -3.278883e+02
   3.231671e+02   8.658244e+01
   1.417401e+02   2.821379e+02
  -1.826978e+02   1.831134e+02
  -1.940959e+02  -2.065293e+02
   8.855449e+01  -4.148037e+02
   3.851054e+02  -5.715830e+01
   5.063565e+02   3.054326e+02
   1.214595e+02   4.572167e+02
  -3.968024e+02   2.721943e+02
  -4.341629e+02  -4.393277e+01
  -2.723766e+02  -2.127052e+02
  -6.562481e+00  -2.306077e+02
   3.366692e+02  -1.252491e+02
   1.984514e+02   5.252958e+01
  -1.492953e+01   7.871399e+01
  -2.031632e+01  -7.780949e+01
   6.853762e+01  -9.637078e+01
   2.223455e+02   1.051700e+01
   1.375523e+02   1.808103e+02
  -8.382641e+01   3.163857e+02
  -2.965405e+02   9.080381e+01
  -2.347860e+02  -7.387198e+01
   9.111773e+01  -2.227882e+02
   2.397382e+02  -3.863398e+02
   3.664636e+02  -1.715788e+02
   1.680531e+02   1.612421e+02
   9.796598e+01   3.466505e+02
  -3.909553e+01   3.323008e+02
  -9.994475e+00   1.333116e+02
  -1.421408e+01   9.337315e+01
  -7.339903e+01   2.370499e+01
  -2.120262e+02   7.852413e+01
  -2.101335e+02  -1.211793e+02
  -1.460194e+02  -2.847043e+02
   6.412686e+01  -1.045607e+02
   1.830060e+02   3.109071e+01
   1.088020e+02   2.008298e+02
   4.973087e+01   1.741279e+02
  -2.001929e+02   7.516648e+01
  -3.156218e+02  -1.463099e+02
  -9.359266e+01  -3.104346e+02
   4.905364e+01  -2.635159e+02
   9.636917e+01  -1.578568e+02
   1.132482e+02  -3.786542e+01
   9.978737e+01  -1.060311e+02
   2.279162e+02  -3.352739e+01
   3.464545e+02   7.236020e+01
   2.926136e+02   3.174394e+02
  -3.665804e+01   4.233444e+02
  -3.189691e+02   3.685289e+02
  -4.676345e+02   1.526288e+02
  -3.234504e+02  -7.569625e+01
  -3.507474e+01  -2.510489e+02
   1.160386e+02  -2.245315e+02
  -5.288832e+00   1.855755e+01
  -4.702307e+01   2.542032e+01
  -1.260008e+02  -3.364187e+01
   5.218153e+00  -1.540677e+02
   1.749003e+02  -1.337861e+02
   1.188215e+02   6.005143e+01
  -4.165090e+01   1.743693e+02
  -1.388927e+02   1.248293e+01
  -1.738971e+02  -1.893996e+02
  -7.520319e+00  -2.892453e+02
   2.405033e+02  -2.363340e+02
   3.114979e+02  -3.966165e+01
   2.893669e+02   2.693538e+02
   8.047259e+01   2.267010e+02
  -9.283676e+01   1.789399e+02
  -1.454612e+02  -1.571483e+01
  -1.701246e+01  -4.921794e-01
   4.999373e+01   5.112709e+01
   9.241723e+00   8.302294e+01
  -1.066562e+02   7.279843e+01
  -1.703859e+02   9.537578e+00
  -1.021382e+01  -2.167311e+01
   8.303987e+01   4.245022e+00
   8.977374e+00   5.595554e+01
  -1.462149e+02   1.275951e+02
  -2.889921e+02  -8.148326e+01
  -2.543577e+02  -1.110729e+02
  -5.867826e+01  -2.623559e+02
   1.092218e+02  -1.822474e+02
   2.798939e+02  -5.998710e+01
   1.445146e+02   3.708634e+01
  -4.398254e+01   7.384559e+01
  -6.443745e+01   2.135607e+01
   4.454247e+01  -6.701849e+01
   1.902964e+02  -4.500789e+01
   1.925663e+02   1.023921e+02
   5.561264e+01   1.561337e+02
  -1.001570e+02   1.045606e+02
  -5.903388e+01   2.942859e+01
  -3.050913e+01  -4.821919e+01
   2.878112e+01   1.307854e+00
   6.644225e+01   9.052167e+01
  -1.163672e+02   1.133794e+02
  -1.619720e+02  -3.065565e+00
  -1.722317e+02  -1.503226e+02
   2.658568e+01  -1.994253e+02
   1.028474e+02  -1.305771e+02
   1.470749e+02  -3.478986e-01
   4.706472e+01   8.689805e+01
  -6.968926e+01   1.241142e+02
  -1.147855e+01  -2.159168e+01
   9.148257e+00  -4.082949e+01
  -3.618615e+00  -2.934035e+01
  -5.490490e+01   1.250155e+01
  -1.293471e+02  -5.630759e+00
  -7.434334e+01  -9.854524e+01
  -3.101764e+01  -1.998425e+02
   9.677172e+01  -1.223457e+02
   2.175078e+02  -3.546436e+01
   1.305377e+02   1.441970e+02
   5.577501e+01   1.346224e+02
  -8.865114e+01   1.441661e+02
  -1.105166e+02   2.053734e+01
  -6.042458e+01  -2.588817e+01
  -4.091535e+01  -2.023147e+01
  -3.363525e+01   6.612970e+01
  -8.711406e+01  -2.745215e+01
  -1.139168e+01  -5.947660e+01
   3.377081e+01  -9.769288e+01
   1.137679e+02  -4.582584e+01
   1.204221e+02   3.546884e+01
  -1.296883e+01   9.209272e+01
  -1.070217e+02   9.538925e+01
  -2.108744e+02  -7.777901e+01
  -5.908205e+01  -1.617152e+02
   6.744289e+01  -1.639781e+02
   2.396229e+02  -7.270438e+01
   1.756499e+02   1.148048e+02
   9.639554e+01   1.870897e+02
  -8.768041e+01   1.676882e+02
  -4.271943e+01   5.325750e+01
  -8.959430e+01   9.821910e+01
  -2.615402e+01   6.625340e+01
  -1.053773e+02   8.484693e+01
  -1.460179e+02  -5.040258e+01
  -5.305564e+01  -1.026468e+02
  -1.805784e+01  -2.258810e+02
   7.363886e+01  -1.556886e+02
   1.338790e+02  -1.639790e+01
   1.025557e+02   1.310983e+02
  -5.431310e+00   1.502710e+02
  -7.840595e+01   9.280864e+01
  -7.929097e+01  -2.717629e+00
  -5.396373e+01  -1.698372e+01
   1.115276e+01  -3.156921e+01
  -1.767927e+01  -6.698109e+00
  -3.955282e+01  -1.491453e+01
  -7.502665e+01  -1.971791e+01
   5.323581e+01  -5.660548e+01
   1.633075e+02  -3.540251e+01
   1.327173e+02   9.106191e+01
  -6.033176e+00   4.562668e+01
  -1.041751e+02   3.838820e+01
  -7.210852e+01   1.696943e+01
  -2.655414e+00  -7.971408e+00
   6.962843e+01  -3.773469e+01
   6.065541e+01   2.099263e+01
   1.434795e+01   5.660612e+01
  -8.356547e+01   9.152891e+01
  -6.880339e+01  -2.930852e+01
  -5.660693e+01  -6.027383e+01
  -6.586637e+01  -5.513207e+01
  -7.461836e+01   3.834816e+01
  -8.190065e+01  -1.708938e+01
  -3.446670e+01  -9.517676e+01
   1.605648e+01  -1.131667e+02
   1.551901e+02  -1.141423e+02
   1.685278e+02  -6.131187e+00
   1.280709e+02   6.971668e+01
   3.289041e+01   1.278381e+02
  -1.315242e+02   6.159109e+01
  -7.474987e+01  -4.742776e+01
   5.565086e+01  -5.747096e+00
   1.296470e+02   3.268377e-01
   8.694969e+01   1.061316e+02
  -9.906495e+01   1.266381e+02
  -1.655785e+02   2.138188e+01
  -1.429333e+02  -5.949626e+01
  -4.476154e+01  -4.542001e+01
   4.382985e+01  -6.575748e+01
   5.437242e+01  -4.156493e+00
  -1.080591e+01   4.157329e+01
  -3.955385e+01  -2.420579e+01
  -1.094192e+01  -9.679602e+01
   7.054477e+01  -1.593296e+02
   1.295265e+02  -9.030528e+01
   1.103386e+02   5.325554e+01
   2.717323e+01   1.885166e+02
  -7.954520e+01   1.070652e+02
  -1.193729e+02  -3.022942e+01
  -6.476667e+01  -1.196638e+02
  -1.171721e+01  -1.199688e+02
  -1.802115e+01  -5.088456e+01
   4.540197e+01   2.270382e+01
  -1.278750e+01  -2.253741e+01
  -5.266818e+00  -2.102594e+00
   2.512699e+01   8.740465e+00
   6.194901e+01   1.250191e+02
   1.445040e+01   8.848733e+01
  -4.677626e+01  -1.019333e+01
  -8.574873e+01  -4.755855e+00
  -1.037333e+02  -3.348801e+01
  -3.456495e+01  -5.184597e+01
   4.572728e+01  -2.304519e+01
   1.011151e+02  -1.740978e+00
   4.363388e+01   9.296098e+00
  -2.261771e+01  -2.089495e+01
  -1.028967e+01  -5.823788e+00
  -5.820752e+00  -5.513099e+01
  -3.001953e+01  -2.293771e+01
  -5.450410e+01  -1.171594e+01
  -6.769560e+01  -2.952208e+01
  -8.291012e+00  -2.301318e+01
   7.365223e+01  -8.681620e+01
   1.327644e+02  -9.820063e+01
   1.594652e+02   5.420493e+01
   1.689735e+01   1.159042e+02
  -1.419737e+01   1.892577e+02
  -7.280173e+01   8.949579e+01
  -6.428219e+01  -3.362811e+01
  -4.593925e+01  -6.725158e+01
   1.992822e+01  -6.389594e+00
  -2.768467e+00   2.120552e+01
  -1.651433e+01  -3.185055e+01
   1.183075e+01  -6.174617e+01
   5.302227e+01  -6.311289e+01
   6.334668e+01   4.961009e+01
   7.554631e+01   8.511099e+01
   1.023711e+01   6.672292e+01
  -4.446660e+01   5.846813e+01
  -6.544273e+01  -5.630651e+01
  -8.152827e+01  -1.113486e+02
   7.922197e+01  -4.652446e+01
   1.071405e+02  -8.127635e+00
   1.306692e+01   4.770960e+01
  -6.040742e+01   3.542805e+01
  -2.654317e+01   9.125271e-01
   9.352344e+00   1.841058e+01
   5.032079e+01  -5.175408e+00
  -3.628326e+01  -1.084852e+01
  -5.234251e+01   6.751853e+01
  -8.570559e+01   2.296592e+01
  -3.267057e+01  -1.549392e+01
   2.263985e+01  -1.344525e+02
   9.176795e+01  -8.721212e+01
   2.042313e+01  -1.623223e+01
  -1.546860e+00   4.850998e+01
  -1.859737e+01  -6.530943e+00
  -2.145121e+01  -2.604926e+01
  -8.537013e+00  -8.431617e+01
  -2.782594e+01  -2.481866e+01
  -2.308764e+00   2.296761e+01
   4.071903e+01   3.936282e+01
   2.882508e+01   3.414370e+01
  -3.078901e+01  -2.376949e+01
  -9.797918e+00  -3.317550e+01
  -5.331459e+00   7.606188e+01
  -1.026717e+01   4.916683e+01
   2.346738e+01  -2.357829e+01
  -6.657938e+01  -3.372712e+01
  -1.254179e+00  -3.534375e+01
   2.542618e+01  -1.978177e+01
   5.637568e+01   4.625596e+01
   4.023352e+01   5.860251e+01
  -4.971296e+01   3.855250e+01
  -1.148195e+02   2.177680e+01
  -5.908699e+01  -4.327104e+01
   1.795725e+01  -4.013496e+01
   5.464701e+01   9.175497e+00
  -2.120692e+01   8.355365e+00
  -2.451911e+01  -1.390100e+00
  -3.449746e+01  -4.245812e+01
   5.262855e+01  -5.028135e+01
   7.734667e+01  -1.372212e+01
