
 $NMID
 id='ANONYMOUS ', fmtdat='(2E16.6)'
 volume=1.0
 tramp=1.0
 $END
   1.887891e+03  -4.405423e+02
   1.431168e+03   5.856658e+02
   3.343741e+02   1.274508e+03
  -3.463150e+02   1.147344e+03
  -9.375162e+02   3.139033e+02
   1.173574e+02  -8.974598e+01
   2.223410e+02  -1.002494e+02
   6.682845e+01   2.128068e+02
  -1.597776e+02   4.030284e+02
  -3.422954e+02   2.242110e+02
  -1.117859e+02  -2.338635e+02
  -1.070177e+02  -4.421093e+02
   1.355429e+02  -1.292492e+02
   1.121691e+02   1.724489e+02
  -4.072569e+00   3.343972e+02
  -2.400470e+02   8.109303e+01
  -1.318900e+02  -2.667772e+02
   2.809589e+01  -3.540306e+02
   1.599524e+02  -2.474099e+02
   3.300261e+02   3.771294e+01
   1.035317e+02   1.637351e+02
  -2.679240e+00   2.149157e+02
  -1.026611e+01   8.076810e+01
   1.000409e+02   5.960829e+01
   1.210786e+02   1.791164e+02
  -3.107726e+01   1.942504e+02
  -2.062541e+02   4.854695e+01
  -3.114514e+02  -2.037535e+02
  -9.730031e+01  -1.722812e+02
   9.727944e+01  -1.553695e+02
   3.020156e+02   1.664313e+02
   1.527606e+02   2.214247e+02
  -1.202036e+02   1.235787e+02
  -2.075984e+02   1.178699e+02
  -1.553099e+02  -1.169866e+02
   1.516956e+01  -2.289169e+02
  -7.150617e+01  -8.807316e+01
  -4.744614e+01   3.206344e+01
  -2.399514e+02   1.414063e+02
  -1.230124e+02  -1.209106e+02
   4.526352e+01  -2.749635e+02
   1.282715e+02  -3.529105e+02
   2.013487e+02   7.583546e+01
   1.121352e+02   1.330364e+02
  -7.997043e+01   6.209551e+00
  -1.566076e+02  -1.293184e+02
   1.032218e+02  -2.138314e+02
   2.606723e+02  -9.649168e+01
   3.674773e+02   1.981737e+02
   1.137889e+02   2.712240e+02
  -1.539947e+02   1.230620e+02
  -3.067999e+02   2.770391e+01
  -1.760016e+02  -1.514338e+02
  -3.732122e+01  -1.250620e+02
   1.578805e+02  -7.994707e+01
   1.557934e+02  -4.170258e+01
   4.427310e+01   8.537370e-01
  -1.639623e+01  -7.130108e+00
   6.316451e+01  -5.718938e+01
   1.319583e+02   2.256397e+01
   1.224933e+02   8.527019e+01
  -8.772390e+01   8.217864e+01
  -2.128363e+02   1.129234e+02
  -2.074994e+02  -4.832333e+01
  -3.612868e+01  -2.548604e+02
   2.067502e+02  -2.918412e+02
   1.752815e+02  -1.286239e+02
   1.644086e+02   1.266823e+02
   1.766288e+01   2.240508e+02
  -3.158268e+01   1.193078e+02
  -4.442994e+01   8.983660e+01
   1.963440e+01   6.775077e+01
  -8.164924e+01   8.618131e+01
  -2.117452e+02   1.683794e+01
  -1.470784e+02  -8.138620e+01
  -5.822084e+01  -1.750459e+02
   6.422517e+01  -1.300160e+02
   1.169588e+02   5.405941e+00
   7.988213e+01   1.176721e+02
  -3.762113e+00   1.018877e+02
  -1.342183e+02   6.320694e+01
  -1.433910e+02  -6.471417e+01
  -8.759539e+01  -1.847337e+02
  -5.182659e+00  -1.609731e+02
   1.197397e+02  -1.383230e+02
   5.930521e+01  -9.008456e+01
   9.626415e+01  -4.413479e+01
   1.388577e+02   5.550996e+00
   2.489850e+02   2.937599e+00
   1.741465e+02   1.930029e+02
  -3.065221e+01   2.876656e+02
  -1.732906e+02   2.320562e+02
  -2.533865e+02   4.823649e+01
  -2.121360e+02  -2.555155e+01
  -1.343431e+01  -1.571838e+02
   1.235002e+02  -8.495149e+01
  -3.836644e+01   2.288136e+00
  -1.045186e+02   3.036857e+01
  -5.983686e+01   4.779282e+00
  -3.192018e+00  -7.714434e+01
   7.651046e+01  -1.736881e+01
   2.585130e+01   9.523396e+01
  -2.427995e+00   3.580980e+01
  -8.416752e+01   5.034599e+00
  -6.183115e+01  -1.745051e+02
  -1.280278e+01  -1.344773e+02
   1.825910e+02  -1.034094e+02
   1.824648e+02   6.972742e+00
   1.396128e+02   1.073928e+02
   6.720704e+01   1.287290e+02
  -1.197937e+02   8.505655e+01
  -1.157759e+02   2.769586e+01
  -2.510225e+01  -3.425838e+01
   9.205708e+00   8.222332e+01
  -4.380627e+01   6.136424e+01
  -9.048285e+01   3.943364e+01
  -8.226249e+01  -1.686523e+00
   1.050122e+01  -4.543852e+01
   8.651687e+01  -8.129111e+00
   5.525464e+01   5.247173e+01
  -1.250964e+02   4.449678e+01
  -1.775309e+02   5.932139e+00
  -1.602944e+02  -1.215226e+02
  -1.202041e+01  -1.649959e+02
   1.356235e+02  -1.557075e+02
   1.950219e+02  -7.870042e+01
   6.618911e+01  -1.412024e+01
  -2.485258e+01   5.984697e+01
  -2.924381e+01  -3.418270e+01
   5.430372e+01  -6.695779e+01
   1.010181e+02  -4.457226e+01
   1.412968e+02   5.601014e+01
   4.405606e+01   5.697019e+01
  -7.669942e+01   9.569483e+01
  -1.037363e+02   7.651818e+00
  -5.902145e+01  -2.837260e+01
   2.872873e+01   1.328948e+01
   4.172782e+01   8.482250e+01
  -2.253771e+01   6.133902e+01
  -9.929499e+01   2.603749e+00
  -1.510665e+02  -1.031632e+02
  -6.227455e+01  -1.370368e+02
   5.297562e+01  -1.390088e+02
   1.212408e+02  -6.754731e+00
   5.219384e+01   5.840387e+01
  -4.325364e+01   4.409568e+01
  -3.422938e+01   2.973500e+01
  -6.758939e+00  -3.792618e+01
   2.745340e+00  -2.699183e+00
   9.652582e+00   6.473144e+00
  -4.224317e+01  -4.720385e+00
  -3.933291e+01  -5.916870e+01
   1.608817e+01  -1.184975e+02
   6.898289e+01  -1.343448e+02
   1.581428e+02   8.500973e+00
   1.020042e+02   6.160986e+01
   3.831254e+01   1.189609e+02
  -9.557477e+01   1.105696e+02
  -6.506870e+01   2.656534e+01
  -3.075112e+01  -1.441387e+01
  -9.748154e+00  -1.953239e+01
  -2.655919e+01   4.102528e+01
   2.128148e+01   1.695107e+01
  -6.313722e+01  -1.868904e+01
   4.673855e+01  -5.583247e+01
   1.246159e+02  -3.566889e+01
   2.911222e+01   3.543733e+01
  -4.106684e+00   7.598528e+01
  -7.192565e+01   5.614552e+01
  -1.529523e+02  -3.093406e+01
  -9.546100e+01  -1.247014e+02
   7.717704e+01  -1.269693e+02
   9.562020e+01  -6.209260e+01
   1.606400e+02   6.533126e+01
   9.074760e+01   6.257334e+01
  -2.022840e+01   9.018683e+01
  -8.822522e+01   4.239863e+01
  -3.810340e+01   4.108645e+01
  -9.577753e+01   1.882547e+01
  -6.541085e+01   6.637187e+01
  -6.086864e+01  -3.135641e+00
  -6.881150e+01  -9.165788e+01
  -3.992101e+01  -1.041771e+02
   6.307673e+01  -9.311402e+01
   9.255497e+01   1.608311e+01
   6.818625e+01   9.083033e+01
   3.019751e+01   8.221464e+01
  -3.805704e+01   1.029360e+02
  -5.604765e+01  -1.250586e+01
   3.478072e+01  -2.825590e+01
  -7.548729e+00   1.667055e+01
   1.023178e+01   7.033658e+00
  -5.976494e+01  -4.455712e+01
  -6.419895e+01  -8.495245e+00
   6.149623e+01  -2.692547e+01
   1.177953e+02   1.052108e+01
   1.177717e+02   3.794856e+01
  -2.411094e+00   4.987949e+01
  -4.943599e+01   3.175974e+01
  -9.463975e+01  -1.560979e+01
  -3.777069e+01  -1.982466e+01
   5.759881e+01  -5.160101e+01
   2.306861e+01  -2.573481e+01
   2.770091e+01   8.383598e+01
  -4.970749e+01   5.678721e+01
  -5.414455e+01  -7.378152e+00
  -3.834338e+01  -2.129336e+01
  -7.418982e+01  -5.642899e+00
  -1.225417e+01   9.390939e-01
  -7.889342e+00   2.739208e+01
  -3.856139e+01  -4.689415e+01
   2.544417e+01  -8.436374e+01
   1.014749e+02  -9.668705e+01
   9.024652e+01   2.556316e+01
   4.463264e+01   8.934675e+01
   3.248194e+01   6.247254e+01
  -2.506939e+01   4.727806e+01
  -3.774507e+01  -3.721814e-01
   7.795870e+01  -3.580075e+01
   4.421167e+01   1.930895e+01
   3.629173e+01   1.174621e+02
  -6.400093e+01   8.959642e+01
  -5.795138e+01   4.957327e+01
  -8.880988e+01  -2.887323e+01
  -7.218491e+01  -2.538296e+01
   1.596501e+01   1.701343e+01
   1.178918e+01   2.948155e+01
  -3.068428e+01   1.024494e+01
  -1.124067e+02  -2.774468e+01
  -2.427975e+01  -4.541697e+01
   4.841570e+01  -8.245809e+01
   6.978718e+01  -4.996676e+01
   3.960725e+01   4.813715e+01
  -1.748668e+01   1.048849e+02
  -7.532207e+01   7.956839e+01
  -2.795581e+01  -9.033954e+00
  -5.058185e+01  -3.571720e+01
  -8.775905e+00  -3.504672e+01
  -1.743792e+01   3.605432e+01
   1.442063e+01  -9.269353e+00
  -7.603103e-01  -7.224479e+00
   3.955148e+01  -3.656159e+01
   4.176696e+01  -6.287737e+00
   1.619100e+01   6.031827e+01
  -1.806285e+01   7.286734e+01
  -7.617382e+00  -1.236253e+01
  -9.295216e+01  -2.731731e+01
  -6.345787e+01  -9.242327e+00
  -2.413165e+01  -1.843319e+01
   6.173759e+01  -1.718157e+01
   5.603123e+01  -1.893188e+01
   6.939018e+00  -2.031753e+01
  -6.238881e+01   1.549277e+01
   2.214484e+01  -2.228379e+01
   1.208711e+01   1.538285e+01
  -1.276376e+01  -2.758334e+01
  -4.247327e-01   2.394600e+01
  -5.946284e+01   1.995337e+01
  -4.308943e+00  -9.097082e+01
   8.843130e+01  -1.024565e+02
   1.226704e+02  -5.112516e+01
   7.376680e+01   2.581759e+01
   1.553494e+01   9.773577e+01
  -5.907049e+01   9.883321e+01
  -3.544444e+01   5.896738e+01
  -5.538696e+01  -4.907129e+00
  -3.487740e+01  -4.599166e+01
  -2.852546e+01  -1.181891e+01
  -1.777059e+01  -8.423779e-01
   2.090360e-01  -1.241357e+01
   1.992658e+00  -9.212376e+01
   3.352809e+01  -1.307434e+01
   4.229118e+01   1.266821e+01
   2.002795e+01   7.369500e+01
   8.094449e+00   6.696459e+01
  -3.999023e+00   1.424404e+01
  -8.489332e+00  -6.233010e+01
   1.319365e+01  -3.593991e+01
   7.569573e+01  -5.068314e+01
   3.795696e+01   1.984008e+01
   4.200966e+01   3.751275e+01
   2.160788e+01   4.634903e+01
  -1.045851e+01   3.615650e+01
  -3.562408e+01   3.362967e+01
   3.973337e+01  -1.849425e+01
   1.697372e+01   1.485080e+01
  -5.243317e+01   6.198832e+01
  -8.670369e+01   4.968687e+00
  -1.472224e+01   3.027984e+01
  -4.330482e+00  -6.654962e+01
   1.357434e+01  -3.506232e+01
   5.949632e+01  -2.720153e+01
   1.663146e+01   3.015786e+00
  -3.672210e+00   4.936318e+01
   4.983231e+00  -2.293545e+01
   1.517961e+01  -1.219487e+01
   1.686269e+01   3.678435e+01
   8.172710e+00   1.101857e+01
   5.648234e+01   2.898452e+00
  -2.652706e+01  -2.744810e+00
  -2.436059e+01  -2.467193e+01
   2.725001e+01   3.028201e+01
   3.515071e+00   2.620255e+01
  -1.252785e+01   2.659745e+01
   4.020622e+00  -1.574583e+00
  -1.926358e+01  -2.560598e+01
   5.785890e+00  -5.716646e+01
   2.579622e+01  -3.967847e+01
   1.599105e+01  -1.283798e+01
  -4.027646e+01   5.875098e+01
  -4.323852e+01   8.524385e+00
  -6.178151e+01  -2.233584e+01
   7.662566e+00  -2.350275e+01
  -1.629090e+01  -3.371524e+01
   6.271053e+01   1.794644e+01
   1.917372e+01   2.595100e+01
  -1.933427e+01  -4.902780e+00
   1.487350e+01  -4.347858e+01
   3.076651e+01  -1.782134e+01
   9.482448e+01  -6.846028e+01
