
 $NMID
 id='ANONYMOUS ', fmtdat='(2E16.6)'
 volume=1.0
 tramp=1.0
 $END
   3.814980e+03  -3.167549e+02
   2.413083e+03   1.414446e+03
  -4.248207e+02   2.334872e+03
  -1.403269e+03   1.466777e+03
  -8.930542e+02   1.868709e+02
   1.001590e+02  -1.679694e+02
   4.536062e+02   1.459878e+02
   3.627877e+01   7.059711e+02
  -4.352863e+02   7.755397e+02
  -8.610817e+02   8.480607e+01
  -5.770125e+02  -6.358836e+02
  -1.426887e+01  -8.772781e+02
   5.127450e+02  -1.314960e+02
   3.982842e+02   4.393908e+02
  -1.581370e+02   6.888254e+02
  -4.783100e+02   1.276050e+02
  -2.829908e+02  -4.926624e+02
   1.938292e+02  -6.735489e+02
   5.466572e+02  -2.907215e+02
   4.976003e+02   1.725135e+02
   8.705303e+01   5.024976e+02
  -1.047804e+02   2.577734e+02
  -1.908337e+02   1.098606e+02
   7.736594e+01   4.697969e+00
   4.105977e+02   1.814177e+02
   1.739435e+02   2.960439e+02
  -5.789775e+02   3.372771e+02
  -6.299744e+02  -3.296819e+01
  -3.279858e+02  -4.722439e+02
   1.620114e+02  -3.894532e+02
   5.285879e+02   1.546988e+02
   3.550181e+02   3.113890e+02
  -2.659182e+02   5.193065e+02
  -4.707522e+02   1.928712e+02
  -3.337942e+02  -2.019511e+02
  -1.127017e+02  -3.553512e+02
   1.272528e+02  -2.338692e+02
   3.328217e+00   4.161133e+01
  -2.685147e+01   2.714898e+02
  -3.182795e+02  -8.876009e+01
  -1.600358e+02  -4.865505e+02
   2.772670e+02  -5.111300e+02
   3.820704e+02  -1.233023e+02
   2.271947e+02   3.786679e+02
  -1.573986e+02   2.020979e+02
  -2.730908e+02  -2.099954e+02
   3.960653e+01  -4.803435e+02
   5.138519e+02  -4.282498e+01
   5.806214e+02   3.566935e+02
   1.281526e+02   5.846496e+02
  -2.936971e+02   3.594155e+02
  -5.231365e+02  -7.907864e+01
  -4.072038e+02  -3.097564e+02
   4.986092e+01  -3.010671e+02
   3.578669e+02  -7.472687e+01
   2.602912e+02   6.380989e+01
  -8.415368e+00   8.626978e+01
  -1.019616e+02  -6.802335e+01
   1.240734e+02  -1.887773e+02
   2.607378e+02   7.553850e+01
   1.869421e+02   2.096927e+02
  -1.482892e+02   2.640632e+02
  -3.208463e+02   1.184931e+02
  -2.160644e+02  -1.082104e+02
   3.363602e+01  -2.943607e+02
   2.165287e+02  -2.730714e+02
   3.270000e+02  -1.615121e+02
   2.432078e+02   1.741322e+02
   1.221429e+02   3.865068e+02
  -1.527201e+01   3.802315e+02
  -9.954676e+00   1.636874e+02
  -6.570165e+01   8.329711e+01
  -1.415803e+02   1.245997e+02
  -1.987144e+02   7.740913e+01
  -2.632758e+02  -9.514625e+01
  -8.642437e+01  -2.500422e+02
   6.908767e+01  -1.924698e+02
   2.385200e+02   6.803160e-01
   1.008219e+02   2.329474e+02
  -8.623864e+01   2.498161e+02
  -2.376067e+02   1.059294e+02
  -3.572075e+02  -2.170346e+02
  -2.405139e+02  -3.812258e+02
   4.104159e+01  -3.016658e+02
   1.790835e+02  -1.619206e+02
   2.106845e+02  -6.238130e+01
   1.536826e+02  -8.599922e+01
   2.957058e+02  -5.606410e+01
   4.543177e+02   8.299127e+01
   3.776103e+02   2.758133e+02
  -3.133871e+01   4.577028e+02
  -3.493265e+02   3.359613e+02
  -4.484453e+02   1.752240e+02
  -3.377372e+02  -5.840849e+01
  -1.006406e+02  -2.717281e+02
   1.401799e+01  -2.280612e+02
   3.780749e+01  -3.050329e+01
  -1.401655e+02   7.155452e+01
  -1.329433e+02  -1.501325e+01
  -7.477503e+01  -2.091253e+02
   1.839491e+02  -1.349592e+02
   1.241718e+02   9.102971e+01
  -2.531363e+01   1.052384e+02
  -1.673939e+02   2.102142e+01
  -2.226526e+02  -3.143918e+02
  -2.978247e+01  -3.314941e+02
   2.097813e+02  -2.216277e+02
   3.744950e+02   1.377017e+01
   2.810971e+02   2.648765e+02
   5.891777e+01   3.214987e+02
  -1.066403e+02   1.372651e+02
  -1.244013e+02   1.103265e+01
  -1.790283e+01  -4.509085e+01
   2.718839e+01   6.702385e+01
   4.791132e+01   8.371701e+01
  -1.249767e+02   1.043701e+02
  -1.847436e+02  -5.240045e+01
  -5.046758e+01  -3.335714e+01
   1.106703e+02   5.407727e+00
   4.019180e+01   8.365194e+01
  -1.564419e+02   4.315667e+01
  -3.485547e+02  -2.397979e+01
  -2.721897e+02  -1.657358e+02
  -1.113202e+02  -2.505302e+02
   1.518702e+02  -2.402001e+02
   2.228586e+02  -1.652865e+02
   1.686024e+02   5.106579e+01
  -3.016008e+01   9.634566e+01
  -8.780591e+01   1.750218e+01
   5.972275e+01  -7.837574e+01
   1.710369e+02  -1.904744e+01
   1.785569e+02   8.768313e+01
   8.598276e+01   2.342338e+02
  -6.974194e+01   1.645178e+02
  -1.117218e+02   9.235367e+00
  -2.810745e+01  -5.550759e+01
   3.333963e+01   7.957501e+00
   1.787847e+01   1.334104e+02
  -7.344301e+01   8.183037e+01
  -2.006015e+02   6.933247e+01
  -1.934847e+02  -1.364837e+02
   2.550422e+01  -2.074003e+02
   1.175162e+02  -1.676170e+02
   2.057182e+02  -7.183356e+00
   7.241598e+01   1.533795e+02
  -5.663270e+01   1.135408e+02
  -6.832924e+01   3.282920e+01
  -1.006594e+00   4.720747e+01
   3.678268e+01   2.030723e+01
  -3.828827e+01   5.881193e+00
  -7.934272e+01   4.640707e+01
  -8.694454e+01  -7.309586e+01
  -6.783514e-01  -2.048878e+02
   1.144058e+02  -1.539602e+02
   2.423705e+02  -2.298449e+01
   2.237706e+02   6.973240e+01
   6.670354e+01   2.423722e+02
  -7.082139e+01   1.927651e+02
  -1.497955e+02  -8.617011e+00
  -7.643767e+01  -3.479693e+01
  -2.924292e+01  -4.579276e+01
  -5.491457e+01  -2.060245e+01
  -5.918281e+01   2.454243e+01
  -5.110323e+01  -5.292809e+01
   5.919948e+01  -1.010833e+02
   1.220769e+02  -1.051040e+01
   1.182654e+02   1.289915e+01
   5.279085e+00   9.448437e+01
  -1.631306e+02   9.757668e+01
  -2.324939e+02  -8.963426e+01
  -6.577811e+01  -1.880009e+02
   1.217664e+02  -2.286046e+02
   2.732482e+02  -7.836408e+01
   2.522568e+02   8.489528e+01
   1.302750e+02   1.760082e+02
  -1.859951e+01   1.272914e+02
  -6.570837e+01   1.114661e+02
  -1.268765e+02   5.667904e+01
  -6.302028e+01   1.100371e+02
  -1.085008e+02   9.999902e+01
  -9.540571e+01  -4.059505e+01
  -1.501903e+02  -1.456037e+02
  -5.489928e+01  -2.673028e+02
   6.292360e+01  -1.894794e+02
   1.851907e+02  -2.893633e+01
   1.689616e+02   1.563569e+02
   2.925427e+01   1.023112e+02
  -8.973430e+01   1.245603e+02
  -1.001439e+01   1.339293e+01
  -1.964777e+01  -6.669879e+01
   1.443599e+01  -6.517123e+01
  -2.452179e+01   3.536409e+01
  -7.471259e+01  -7.901922e+00
  -3.837346e+01  -1.487066e+01
   6.512721e+01  -3.512175e+01
   1.770623e+02  -3.911868e+01
   1.223659e+02   7.110333e+01
  -2.165765e+00   1.027356e+02
  -1.881435e+02   6.034252e+01
  -1.946530e+02   4.045262e+00
  -5.898883e+00  -3.438976e+01
   4.174934e+01  -7.180901e+01
   1.394891e+02   7.566783e+00
   1.334940e+01   6.527293e+01
  -4.665698e+01   1.013893e+02
  -7.994885e+01   3.707179e+01
  -4.599265e+01  -8.410772e+01
  -4.544497e+01  -6.351146e+01
  -4.995529e+01  -1.631825e+00
  -4.451944e+01   2.741635e+01
   4.605196e+00  -9.180371e+01
   4.935690e+01  -1.144726e+02
   1.328481e+02  -1.051864e+02
   1.466697e+02  -1.531257e+01
   1.174096e+02   7.776279e+01
   9.561389e+00   9.310904e+01
  -4.873827e+01   3.189040e+01
  -8.755852e+01   2.753734e+01
   6.157465e+01  -1.419201e+01
   1.415393e+02   4.106649e+01
   6.150478e+01   9.745186e+01
  -4.808030e+01   8.117139e+01
  -2.067603e+02   9.918714e+01
  -1.846868e+02  -3.743523e+01
  -6.566391e+01  -7.858419e+01
   9.174944e+01  -6.635818e+01
   5.207172e+01   3.378114e+00
  -4.674922e+01   2.310587e+01
  -1.106392e+02  -1.414821e+01
  -1.087541e+02  -1.137474e+02
   2.143633e+01  -1.819797e+02
   2.070332e+02  -4.528635e+01
   1.339410e+02   7.502611e+01
   3.214756e+01   1.883707e+02
  -5.225344e+01   1.345984e+02
  -1.264579e+02   1.047761e+01
  -1.125968e+02  -1.487576e+02
  -2.061241e-01  -9.654855e+01
   4.256724e+01  -2.398953e+01
   7.401489e+01   5.495080e+01
   3.847620e+01   1.663718e+01
  -3.569501e+01  -4.009487e+01
   2.349856e+01   1.718069e+01
   4.851914e+01   8.349341e+01
   5.260911e+01   4.401566e+01
  -3.934438e+01   5.121414e+01
  -1.541329e+02   2.475179e+00
  -1.003435e+02  -3.962710e+01
  -5.779881e+00  -4.650264e+01
   1.122944e+02  -2.770746e+01
   1.203070e+02  -5.985380e+00
   2.331268e+01  -3.245554e+00
  -5.919940e+01   5.181956e+01
  -1.948086e+01  -8.811110e+00
   3.182866e+01  -1.834302e+01
  -6.210083e+00   6.451117e+00
  -8.040868e+01   1.518223e+01
  -9.645161e+01  -3.388555e+01
  -1.648738e+01  -6.780253e+01
   1.068429e+02  -1.506196e+02
   1.944233e+02  -7.762942e+01
   1.771800e+02   8.255487e+01
   8.676252e+01   1.550546e+02
  -7.075983e+01   1.699314e+02
  -9.696081e+01   4.991696e+01
  -5.349998e+01  -2.392353e+01
  -1.454895e+01  -5.389162e+01
  -2.533264e+01  -5.621156e-01
   1.466420e+01  -1.273508e+01
  -4.405397e+01  -2.769859e+01
   3.943432e-01  -6.997735e+01
   7.584033e+01  -7.245182e+01
   8.156209e+01   2.702893e+01
   5.977383e+01   1.323430e+02
   4.101430e+01   1.402357e+02
  -5.166338e+01   2.716646e+01
  -9.428831e+01  -4.623617e+01
  -2.395376e+00  -1.100136e+02
   7.044910e+01  -6.677026e+01
   1.295568e+02   1.094247e+01
   4.537428e+01   3.241695e+01
  -3.731903e+01   1.105229e+02
  -7.523573e+01   3.263121e+01
   5.356234e+01   6.873011e+00
   6.619105e+01  -8.508239e+00
   2.678350e+01   1.261561e+01
  -5.055419e+01   6.868303e+01
  -1.279072e+02   7.668029e+01
  -5.630778e+01  -8.663215e+00
   2.642712e+01  -6.593764e+01
   2.945214e+01  -6.855271e+01
   3.080473e+01   1.466780e+00
  -5.265833e+00   6.693082e+01
  -7.393980e+01   6.098147e+01
  -5.195104e+01  -2.945532e+01
  -3.865775e+01  -5.294029e+01
  -1.272918e+01  -4.979602e+01
   5.509754e+01   4.158388e+01
   3.262136e+01   1.258386e+01
   4.986168e+00   1.576205e+01
  -1.806076e+01  -6.930576e+00
   2.051616e+01  -3.275448e+01
   2.479891e+01   4.134893e+01
   3.295818e+01   5.376035e+01
  -2.734244e+01   5.952254e+00
  -3.861286e+01  -2.611098e+01
  -2.692267e+01  -3.910264e+01
   4.272749e+01  -3.567431e+01
   5.716227e+01   2.723859e+01
   3.314686e+01   4.301087e+01
  -3.039880e+01   6.022170e+01
  -8.057759e+01   1.853249e+01
  -5.606733e+01  -8.924769e+01
   6.957554e+01  -8.048451e+01
   4.241770e+01  -2.463293e+01
   2.871087e+01  -2.171121e+01
  -9.800612e+01  -9.690469e+00
  -7.207881e+01  -2.181334e+01
   5.223320e+01  -3.315317e+01
   8.136166e+01   4.418841e+01
