
 $NMID
 id='ANONYMOUS ', fmtdat='(2E16.6)'
 volume=1.0
 tramp=1.0
 $END
  -3.751862e+03   2.430139e+02
  -2.748303e+03  -1.532703e+03
   4.464089e+02  -2.190463e+03
   1.289616e+03  -1.280750e+03
   8.802376e+02  -1.203682e+02
  -2.046105e+02   2.626943e+02
  -5.707014e+02  -1.746070e+02
   5.600493e+01  -7.508399e+02
   5.168859e+02  -6.963680e+02
   8.997062e+02  -5.987922e+01
   5.752197e+02   7.232360e+02
   1.418431e+01   8.039002e+02
  -4.600270e+02   1.429129e+02
  -3.367965e+02  -4.628066e+02
   1.294223e+02  -7.034897e+02
   4.316088e+02  -2.502750e+01
   2.607199e+02   4.808088e+02
  -1.809829e+02   6.806809e+02
  -5.591074e+02   2.972136e+02
  -5.019843e+02  -1.959162e+02
  -9.903611e+01  -5.004129e+02
   1.299057e+02  -2.732615e+02
   1.010623e+02  -1.169544e+02
  -1.277214e+02   5.623063e+01
  -3.472295e+02  -2.130911e+02
  -7.116236e+01  -3.278010e+02
   5.263617e+02  -3.284396e+02
   7.315077e+02   1.610081e+02
   3.138226e+02   3.902709e+02
  -3.280847e+02   4.419391e+02
  -5.119944e+02  -2.561830e+01
  -3.403594e+02  -4.377072e+02
   2.207631e+02  -5.643757e+02
   5.159406e+02  -2.037937e+02
   3.237231e+02   2.085933e+02
   7.468758e+01   3.534999e+02
   5.123603e+01   2.384419e+02
  -1.038308e+02  -1.251727e+02
   1.442321e+02  -1.936296e+02
   2.963718e+02   8.577264e+01
   1.627874e+02   4.754063e+02
  -2.592253e+02   5.598140e+02
  -4.403275e+02   3.462931e+01
  -1.424652e+02  -4.337378e+02
   1.819204e+02  -2.497876e+02
   2.791990e+02   2.876731e+02
  -4.866650e+01   5.328672e+02
  -4.288689e+02   9.570937e+01
  -5.468625e+02  -3.157016e+02
  -1.206241e+02  -5.790301e+02
   3.127961e+02  -3.993561e+02
   5.432490e+02   5.254615e+01
   3.768957e+02   3.126620e+02
  -7.161323e+01   3.183966e+02
  -4.504002e+02   8.105503e+01
  -2.639620e+02  -1.278417e+02
   8.881569e+00  -7.818716e+01
   1.052336e+02   7.273617e+01
  -1.217627e+02   1.547446e+02
  -2.283211e+02  -2.063008e+01
  -2.126395e+02  -2.016702e+02
   1.466948e+02  -2.486088e+02
   2.999582e+02  -1.524046e+02
   2.552037e+02   6.976155e+01
  -8.252894e+01   2.710259e+02
  -2.277536e+02   2.838320e+02
  -3.779387e+02   1.389053e+02
  -2.417403e+02  -1.602963e+02
  -1.424359e+02  -3.883415e+02
   8.656193e+01  -3.904404e+02
   4.527195e+01  -1.349586e+02
   5.682256e+01  -9.112567e+01
   1.347037e+02  -6.736707e+01
   2.091762e+02  -9.036766e+01
   2.252794e+02   1.267930e+02
   9.518584e+01   2.808401e+02
  -6.283956e+01   2.191937e+02
  -2.462672e+02  -1.182714e+01
  -1.188292e+02  -2.176141e+02
   4.870624e+01  -3.162464e+02
   2.443039e+02  -1.651581e+02
   3.378976e+02   1.697491e+02
   1.748379e+02   3.266454e+02
  -5.135944e+01   2.800374e+02
  -2.218098e+02   1.367935e+02
  -1.443583e+02   5.006727e+01
  -1.158376e+02   4.703888e+01
  -2.663730e+02   7.221554e+01
  -3.876971e+02  -7.829670e+01
  -3.698658e+02  -2.586990e+02
   6.062348e+01  -4.172989e+02
   3.067168e+02  -3.803820e+02
   4.761480e+02  -1.053792e+02
   3.226346e+02   4.981285e+01
   4.866598e+01   2.741563e+02
  -3.829130e+01   1.736543e+02
  -2.539636e+01   1.663426e+01
   1.915714e+02  -3.259047e+01
   1.536951e+02   2.380556e+01
   2.526682e+01   9.325320e+01
  -1.443418e+02   1.715940e+02
  -1.722022e+02  -7.837861e+01
   2.180341e+01  -1.430471e+02
   1.931054e+02  -1.263317e+01
   1.351061e+02   1.853602e+02
   8.333016e+01   3.580891e+02
  -1.946513e+02   2.279168e+02
  -3.469745e+02  -6.183464e+01
  -2.799529e+02  -2.970649e+02
  -4.791206e+01  -2.854214e+02
   1.217613e+02  -1.329676e+02
   1.379458e+02   1.530390e+01
   1.244609e+01   3.339760e+01
  -4.817904e+01  -1.025941e+02
  -3.401985e+01  -1.294928e+02
   1.049835e+02  -1.109024e+02
   1.531367e+02   2.617382e+01
   3.906100e+01   7.190972e+01
  -1.110493e+02  -5.393414e+00
   1.432613e+01  -6.135581e+01
   1.523701e+02  -1.096800e+02
   3.204962e+02   7.305637e+00
   2.836602e+02   1.638339e+02
   9.315241e+01   2.583583e+02
  -1.512012e+02   2.946087e+02
  -2.332089e+02   8.552392e+01
  -2.148144e+02  -2.405516e+01
   2.606938e+01  -1.030463e+02
   7.533958e+01  -2.666197e+01
  -8.835945e+01   4.336245e+01
  -1.796909e+02   1.031155e+01
  -1.692013e+02  -1.255207e+02
   2.133294e+01  -2.076438e+02
   1.093737e+02  -1.631415e+02
   9.659540e+01  -2.745807e+01
   6.610877e+01   4.548861e+01
  -2.266502e+01  -4.602637e+01
  -2.895848e+01  -7.969190e+01
   4.838014e+01  -9.084572e+01
   1.567332e+02  -4.630627e+01
   1.803295e+02   1.520349e+02
  -1.752758e+01   2.236198e+02
  -1.277756e+02   1.614620e+02
  -1.822017e+02  -1.803700e+01
  -2.941498e+00  -1.373216e+02
   7.853727e+01  -3.588016e+01
   1.041266e+02  -3.549183e+01
  -3.508895e+01   4.034491e-01
  -2.170057e+01   2.878665e+00
   2.118309e+01  -2.435162e+01
   9.710545e+01   2.916319e+01
   7.405464e+01   8.331304e+01
  -2.869636e+01   1.515494e+02
  -1.553353e+02   1.373753e+02
  -2.215175e+02   3.981161e+01
  -1.978104e+02  -1.451181e+02
  -7.894090e+01  -2.710518e+02
   7.784477e+01  -2.168859e+02
   1.808797e+02  -5.049776e+01
   9.982075e+01   2.939446e+01
   2.988358e+01   2.541460e+01
   3.639485e+01  -5.642185e+01
   8.886610e+01  -8.899995e+00
   1.737378e+01   5.029314e+01
  -1.225351e+01   8.530360e+01
  -9.423578e+01   8.356480e+01
  -8.047561e+01  -4.556521e+01
  -1.961802e+01  -9.221624e+01
   1.347116e+02  -5.276563e+01
   2.406387e+02   8.102647e+01
   1.195123e+02   2.122768e+02
  -1.155599e+02   2.111033e+02
  -2.609390e+02   7.114830e+01
  -2.456562e+02  -9.541064e+01
  -1.216078e+02  -1.708122e+02
   6.114396e+01  -1.660576e+02
   7.865165e+01  -6.402805e+01
   7.278726e+01  -4.061660e+01
   3.662038e+01  -9.863905e+01
   6.716016e+01  -6.752997e+01
   1.485472e+02   1.445998e+01
   1.903905e+02   1.356540e+02
   1.858243e+01   2.152399e+02
  -7.924495e+01   2.271389e+02
  -1.331806e+02  -1.307385e+01
  -1.616179e+02  -1.261317e+02
  -7.183032e+01  -1.814035e+02
   3.894813e+01  -9.305705e+01
   3.901064e+01   3.801477e+01
   3.009337e+00   2.004624e+01
   8.056398e+00   2.909064e+01
   8.092015e+00   1.429228e+00
   7.600532e+01  -5.549460e+01
   2.445022e+01   2.826155e+01
  -7.968988e+01   4.856282e+01
  -1.421289e+02  -3.497210e+01
  -1.161399e+02  -4.312011e+01
  -1.330857e+01  -9.687284e+01
   1.293446e+02  -6.999531e+01
   1.091860e+02  -3.215417e+01
   4.432390e+01   7.196215e+01
  -5.944764e+01   6.211470e+01
  -1.009942e+02  -6.632924e+00
  -3.057569e+01  -1.006034e+02
   2.326640e+01  -9.318510e+01
   2.590951e+01   1.224340e+01
   6.690789e+01   8.936663e+01
   1.610504e+01   9.010039e+01
   3.871808e+01  -2.233890e+01
   1.063968e+02  -1.179934e+01
   3.363664e+01   8.273024e+01
   3.048836e+00   1.461165e+02
  -1.589923e+02   1.862455e+02
  -1.645221e+02  -8.211729e+00
  -1.127341e+02  -8.791907e+01
  -2.347886e+01  -1.233331e+02
   1.189496e+02  -4.820783e+01
   6.692163e+01   1.436100e+01
  -7.385572e+01  -1.444540e+01
  -1.278309e+02  -3.515500e+01
  -8.041046e+01  -1.233190e+02
   7.336736e+01  -1.068206e+02
   1.869474e+02  -1.001242e+02
   1.275232e+02   3.937737e+01
   4.295607e+01   1.132080e+02
  -7.705176e+01   7.521308e+01
  -5.849067e+01  -6.365911e+01
   5.366952e+01  -5.801683e+01
   7.932600e+01   4.077627e+01
   6.359614e+01   8.325357e+01
  -3.594425e+01   1.797388e+02
  -1.870026e+02   6.626845e+01
  -1.830476e+02  -8.438436e+01
  -4.721524e+00  -1.967618e+02
   9.939332e+01  -1.438158e+02
   1.361576e+02   4.416660e+01
   8.167584e+01   5.479103e+01
   1.924085e+01   1.163783e+02
  -3.974698e+01   3.859272e+01
  -3.639871e+01  -4.621220e+01
   7.672971e+00  -3.222596e+01
  -2.599924e+01   1.127622e+01
  -3.190508e+01  -1.251087e+01
  -5.703973e+01  -9.124940e+01
  -2.643960e+01  -1.005215e+02
   3.664688e+01  -2.158359e+01
   1.293856e+02   5.893804e+01
   1.094794e+02   6.202116e+01
   2.582872e+01   8.687632e+01
  -1.087926e+02   1.726785e+01
  -1.138651e+02  -2.980928e+01
   3.610474e+00   1.466532e+01
   1.491294e+01  -2.793571e+01
   1.289225e+01   1.807224e+01
   1.695626e+01  -9.808435e+00
   6.665430e+00   1.803839e+01
   3.192797e+01   2.528864e+01
   5.215143e+01   3.625903e+01
   1.770962e+01   1.076429e+02
  -1.490877e+02   1.506214e+02
  -2.441727e+02   1.237114e+02
  -1.667011e+02  -8.736041e+01
  -3.057229e+01  -1.655156e+02
   7.793491e+01  -1.865608e+02
   1.049099e+02  -5.642755e+01
   1.076465e+02  -3.058328e+01
   5.818968e+01   3.295483e+01
  -2.582209e+01   2.274384e+00
   8.052627e+00  -1.609914e+01
   1.922327e+01   2.088250e+01
   1.849976e+00   8.267285e+01
  -5.255177e+01   2.321959e+01
  -8.520361e+01   7.310231e+00
  -9.901681e+01  -1.594609e+02
  -1.585550e+01  -1.031155e+02
   9.622606e+01  -4.660060e+01
   9.986830e+01   5.248656e+01
   2.964495e+01   9.919230e+01
  -1.224712e+02   1.090033e+02
  -1.121939e+02  -2.465266e+01
  -5.209171e+01  -4.137996e+01
   1.888272e+01  -7.281552e+01
   2.546435e+01  -8.839680e+00
  -4.604646e+01  -5.197217e+00
  -5.022837e+01   1.041588e+01
  -5.543523e+01  -1.231290e+00
   6.782890e+01  -3.776201e+01
   1.123290e+02  -6.802678e+01
   3.011530e+01   1.731033e+01
   2.798727e+01   6.443108e+01
  -6.246869e+01   5.595179e+01
  -5.775109e+00   6.047049e-02
  -8.524214e+00  -8.728332e+01
   8.539910e+00  -3.248961e+01
   1.607127e+01  -1.259278e+01
   3.055840e+01   3.109252e+01
   3.644194e+01   3.436175e+01
  -9.828112e+00   2.240826e+01
  -5.020324e+01  -5.800849e+01
   1.573441e+01  -2.185667e+01
   1.230774e+01   2.231980e+01
   2.160742e+01   2.216191e+01
   1.436062e+01   2.906705e+00
  -4.075386e+01  -5.363125e+01
   2.279189e+01  -4.817472e+01
   1.542219e+01   2.594099e+01
   1.389512e+00   8.626841e+01
  -3.669691e+01   6.743588e+01
  -3.242587e+01  -3.533640e+01
  -1.122046e+01  -6.318328e+01
   4.593474e+00  -5.842568e+01
   1.110011e+02  -6.347283e+00
   4.449697e+01   2.989254e+01
  -2.521728e+01   1.054835e+02
  -6.931417e+01  -1.647398e+01
  -1.289538e+01  -2.311301e+01
   4.089431e+00  -7.415266e+00
  -7.055047e+00   1.615206e+01
  -2.800951e+01   1.380559e+01
  -1.036465e+02  -2.397290e+00
