
 $NMID
 id='ANONYMOUS ', fmtdat='(2E16.6)'
 volume=1.0
 tramp=1.0
 $END
   3.825438e+03  -7.027765e+02
   2.706686e+03   2.061993e+03
  -4.682469e+02   1.912561e+03
  -1.518847e+03   1.175236e+03
  -1.159168e+03  -2.959643e+02
   4.718943e+02  -4.092398e+02
   8.183215e+02   2.104711e+02
  -1.297605e+02   8.385086e+02
  -5.996576e+02   6.581881e+02
  -9.172148e+02  -1.036926e+01
  -3.384185e+02  -7.287955e+02
   4.000771e+01  -8.773791e+02
   5.439609e+02  -3.550516e+01
   4.072613e+02   5.878813e+02
  -1.419853e+02   6.430199e+02
  -5.384371e+02   1.608570e+01
  -2.737351e+02  -5.636142e+02
   1.886459e+02  -5.717918e+02
   5.168424e+02  -1.626862e+02
   4.214734e+02   2.717962e+02
   9.769580e+01   4.583563e+02
  -2.229101e+02   2.747800e+02
  -1.206818e+02   4.675077e+01
   1.232083e+02  -8.417469e+01
   3.264962e+02   2.037339e+02
   1.312623e+02   3.789499e+02
  -5.461918e+02   2.797415e+02
  -6.901919e+02  -1.241703e+02
  -3.420058e+02  -4.951692e+02
   3.360293e+02  -4.611786e+02
   5.446953e+02   4.183194e+01
   3.580331e+02   4.446734e+02
  -2.413386e+02   5.251980e+02
  -5.597152e+02   2.656804e+02
  -3.421896e+02  -1.743177e+02
  -6.223606e+01  -3.732117e+02
   4.810209e+01  -2.433610e+02
   8.053504e+01   1.804318e+02
  -2.110859e+02   2.852250e+02
  -2.985670e+02  -7.923921e+01
  -1.649466e+02  -5.742496e+02
   3.309304e+02  -5.942526e+02
   4.587314e+02   6.634186e+00
   1.841205e+02   4.447473e+02
  -2.029488e+02   2.614936e+02
  -3.117985e+02  -2.579540e+02
   5.666910e+01  -5.405880e+02
   4.774785e+02  -5.917446e+01
   5.901641e+02   3.098831e+02
   1.655691e+02   5.434768e+02
  -3.327391e+02   3.667516e+02
  -5.242174e+02  -2.940729e+01
  -3.271450e+02  -3.269741e+02
   8.935867e+01  -3.166569e+02
   4.870994e+02  -6.886438e+01
   2.641278e+02   8.744789e+01
  -1.900696e+01   1.117204e+02
  -1.346265e+02  -1.153681e+02
   1.432959e+02  -1.428247e+02
   3.003015e+02   1.642723e+01
   1.589749e+02   2.354038e+02
  -2.167926e+02   2.430978e+02
  -3.361676e+02   6.908756e+01
  -2.052127e+02  -1.270325e+02
   1.429440e-01  -2.024487e+02
   2.909308e+02  -3.802225e+02
   2.793683e+02  -2.381722e+02
   1.951842e+02   1.223288e+02
   1.116390e+02   4.232517e+02
  -9.194820e+01   3.784448e+02
  -9.385109e+01   1.247099e+02
  -4.766675e+01   4.800069e+01
  -6.423299e+01   4.636176e+01
  -2.319397e+02   9.445568e+01
  -2.360799e+02  -1.060062e+02
  -1.150885e+02  -2.516125e+02
   5.277566e+01  -2.779808e+02
   2.302950e+02   3.698147e+01
   1.483720e+02   1.861487e+02
   4.886918e+00   2.909731e+02
  -2.438212e+02   1.172957e+02
  -3.114957e+02  -1.897047e+02
  -1.248086e+02  -3.001245e+02
   2.928371e+01  -2.728904e+02
   1.681141e+02  -1.636492e+02
   1.740490e+02  -1.114343e+01
   9.412609e+01  -1.589396e+01
   2.271290e+02  -4.754780e+01
   3.987894e+02   8.344721e+01
   3.610427e+02   2.362405e+02
  -1.162194e+02   4.568840e+02
  -2.864646e+02   3.727888e+02
  -3.841237e+02   1.551686e+02
  -3.230637e+02  -4.685542e+01
  -5.397716e+01  -2.771747e+02
   1.683004e+02  -2.364237e+02
   5.873439e+01  -2.048296e+01
  -1.152320e+02   1.099679e+02
  -1.724058e+02  -6.398139e+01
  -2.315325e+01  -1.790546e+02
   1.580109e+02  -1.383516e+02
   1.745543e+02   4.239615e+01
   1.334284e+01   1.546387e+02
  -1.597092e+02   3.399031e+01
  -1.695657e+02  -2.239795e+02
  -7.302929e+01  -3.223723e+02
   2.075148e+02  -1.782126e+02
   3.136569e+02  -3.832708e+00
   2.498502e+02   2.629533e+02
   6.042007e+01   2.269085e+02
  -1.008730e+02   1.683993e+02
  -1.729792e+02   3.422164e+01
  -6.269730e+01   1.961125e+01
   3.580982e+01   5.522448e+01
   6.348570e+00   1.016617e+02
  -1.183263e+02   8.040120e+01
  -1.480836e+02   3.223037e+00
  -6.761070e+01  -4.666924e+01
   9.282423e+01   1.571738e+00
   3.271796e+01   6.814550e+01
  -1.680205e+02   5.230757e+01
  -3.212452e+02  -3.753656e+01
  -2.416129e+02  -1.334948e+02
  -4.916031e+00  -2.734724e+02
   1.872241e+02  -2.214605e+02
   2.643143e+02  -9.561243e+01
   2.301355e+02   3.677667e+01
  -3.430450e+01   1.249401e+02
  -1.460444e+02   3.326509e+01
   3.454340e+01  -7.688805e+01
   1.653295e+02   1.323899e+01
   2.183531e+02   8.994165e+01
   4.738533e+01   2.418719e+02
  -9.066153e+01   1.030962e+02
  -1.354086e+02   2.853260e+01
  -9.901924e+01  -6.367945e+01
   3.184894e+01   1.829155e+01
  -8.761255e+00   1.042223e+02
  -9.383505e+01   1.340159e+02
  -1.490782e+02   7.947644e+01
  -1.856621e+02  -1.496953e+02
   2.931027e+01  -1.877046e+02
   1.268330e+02  -1.378808e+02
   2.082066e+02   1.352415e+01
   6.122635e+01   7.898920e+01
  -2.137850e+01   7.622184e+01
  -9.884514e+01   3.019064e+01
   4.638076e+01  -1.743437e+01
   7.006609e+01  -2.852914e+01
  -2.624232e+01   1.601107e+01
  -8.687752e+01   2.563864e+01
  -7.606205e+01  -9.783379e+01
  -2.208427e+01  -1.451666e+02
   1.024993e+02  -1.534289e+02
   1.778642e+02   1.235086e+01
   2.043873e+02   1.640965e+02
   4.112513e+01   2.117820e+02
  -6.671755e+01   1.823281e+02
  -1.181837e+02   1.798954e+01
  -7.453441e+01  -2.433153e+01
  -4.560131e+01   9.409357e+00
  -4.810519e+01   5.664372e+00
  -7.498727e+01  -5.097577e+00
  -2.941067e+01  -4.356828e+01
   4.511430e+01  -1.097447e+02
   8.941289e+01  -3.784074e+01
   1.078497e+02   5.527604e+00
  -2.894035e+01   1.344498e+02
  -1.662301e+02   6.401409e+01
  -2.430314e+02  -5.622361e+01
  -1.552968e+02  -1.385265e+02
   1.043253e+02  -1.979781e+02
   2.108683e+02  -7.488606e+01
   1.949783e+02   9.832909e+01
   1.244611e+02   1.203172e+02
  -6.441699e+01   1.120879e+02
  -6.756906e+01   3.789146e+01
  -1.024866e+02   6.698433e+01
  -2.012449e+01   7.434815e+01
  -7.415347e+01   6.301637e+01
  -1.072954e+02  -4.606462e+01
  -1.660166e+02  -1.387248e+02
  -1.970458e+00  -2.391478e+02
   9.978417e+01  -1.715080e+02
   1.282394e+02  -1.444834e+01
   1.295826e+02   1.583590e+02
   3.100300e+01   1.484361e+02
  -8.800333e+01   6.637636e+01
  -1.757779e+01  -2.805835e+01
  -9.849139e+00  -5.506297e+01
   2.904714e+01  -4.393166e+01
  -3.973055e+01  -3.498182e+01
  -5.817063e+01  -1.398138e+00
  -3.720987e+01  -5.582092e+01
   6.396091e+01  -3.859116e+00
   1.413489e+02   2.166666e+01
   1.452984e+02   3.635225e+01
   2.531385e+01   1.027246e+02
  -1.651322e+02   7.059300e+01
  -1.150111e+02   2.891757e+01
  -4.441988e+01  -4.228974e+01
   9.435162e+01  -4.113253e+01
   1.862620e+01   6.971709e+01
   8.704727e+00   7.078346e+01
  -7.018886e+01   9.261229e+01
  -8.318926e+01   5.098095e+00
  -4.196060e+01  -4.189581e+01
  -2.683563e+01  -4.401034e+01
  -4.180891e+01   1.063336e+01
  -3.758873e+01  -2.624680e+01
  -3.178045e+01  -1.139206e+02
  -1.872126e+00  -1.674065e+02
   1.542017e+02  -1.480207e+02
   1.575723e+02  -2.436111e+01
   8.231907e+01   8.507995e+01
   2.387417e+01   1.051134e+02
  -7.361976e+01   7.237976e+01
  -7.472758e+01  -1.551004e+01
   4.929492e+01  -3.421259e+01
   1.135221e+02   6.343899e+01
   5.532369e+01   7.409286e+01
  -8.778234e+01   6.163354e+01
  -1.876270e+02   4.363652e+01
  -1.856988e+02  -6.227385e+01
  -6.236532e+01  -6.358022e+01
   8.329313e+00  -3.111868e+00
   6.775534e+01  -4.673327e+01
  -3.087686e+01   3.582940e+01
  -9.970738e+01  -6.060563e+01
  -4.329925e+01  -1.324784e+02
   2.886193e+01  -1.024854e+02
   2.117707e+02  -5.680263e+01
   1.701152e+02   2.553733e+01
   1.895299e+01   1.717414e+02
  -6.459068e+01   1.011106e+02
  -9.987787e+01  -4.051094e+01
  -4.737914e+01  -1.449710e+02
  -5.951971e-01  -1.171758e+02
  -2.159237e+01  -5.248600e+01
   2.331219e+01   3.658018e+01
   3.177210e+01   2.367760e+01
   1.006475e+01   3.273665e+01
   5.927265e+01  -2.355079e+01
   1.912389e+01   7.843946e+01
   4.861328e+01   7.335640e+01
  -7.146779e+01   5.729883e+01
  -1.252051e+02  -5.948972e+01
  -8.240984e+01  -9.662062e+01
  -3.111630e+01  -7.494019e+01
   8.191333e+01  -3.932216e+01
   8.217319e+01  -2.601594e+01
   6.470352e+01   5.054252e+00
  -2.401966e+01   9.994318e+00
  -1.365762e+01   6.915034e+00
   2.250485e+01   1.410684e+01
  -6.164550e+00  -1.518370e+01
  -3.950932e+01   1.567604e+01
  -1.011604e+02  -3.998278e+01
  -3.395502e+01  -1.198500e+02
   1.324254e+02  -1.643555e+02
   1.904096e+02  -7.472760e+01
   1.218134e+02   4.459820e+01
   3.931721e+00   2.056073e+02
  -9.194104e+01   1.640312e+02
  -8.438937e+01   7.156734e+01
  -1.027138e+02  -3.779669e+00
  -1.648543e+01  -7.510993e+01
   9.508843e+00   1.238082e+00
   2.896952e+01   1.793314e+00
  -3.050347e+01  -5.345261e+01
  -1.044206e+01  -8.039863e+01
   7.610756e+00  -5.735874e+01
   1.134642e+02   2.878512e+00
   6.749386e+01   8.861013e+01
   1.899969e+01   1.182006e+02
  -8.420549e+01   2.806600e+00
  -6.210390e+01  -6.347411e+01
  -2.941992e+01  -1.093951e+02
   5.768592e+01  -4.119264e+01
   9.567501e+01   1.156057e+01
   2.075273e+01   1.871073e+01
  -7.908390e+01   1.001958e+02
  -3.647032e+01   5.138297e+00
   2.502166e+01  -4.141039e+00
   4.026942e+01   3.392302e+01
   1.855688e+01   7.016662e+00
  -4.454774e+01   5.003284e+01
  -8.878422e+01   7.716488e+01
  -3.970470e+01  -6.363509e+00
   4.082662e+00  -8.271375e+01
   4.242637e+01  -8.015924e+01
   9.621363e+00  -2.634669e+00
  -1.678446e+01   1.719967e+01
  -1.575342e+01   2.421932e+01
  -6.187029e+00  -2.470197e+01
  -3.832619e+01  -3.843640e+01
   1.713029e+01  -6.123669e+01
   7.542343e+01  -5.198345e+01
   7.033449e+01   2.090375e+01
   1.554569e+01   3.668359e+01
  -1.078875e+01  -1.524675e+01
   6.143190e+00   3.464604e+01
   4.392414e+01   2.742620e+01
   5.701286e+01   1.801878e+01
  -9.910055e+00  -1.941749e+01
  -5.652828e+01  -6.081488e+01
  -6.521433e+00  -7.880022e+01
   2.885355e+01  -1.870120e+01
   8.205489e+01   5.994511e+01
   2.679770e+00   2.781568e+01
  -5.493699e+01   1.301454e+01
  -1.114038e+02  -7.648932e-01
  -4.248357e+01  -4.523641e+01
   3.065503e+01  -6.986673e+01
   1.080054e+02  -3.075477e+01
   1.702639e+01   2.781080e+01
  -1.463261e+01   5.135441e+01
  -2.945874e+01  -3.228770e+01
   7.432624e+01  -6.383794e+01
   9.058991e+01  -2.020992e+01
