
 $NMID
 id='ANONYMOUS ', fmtdat='(2E16.6)'
 volume=1.0
 tramp=1.0
 $END
  -3.659497e+03   2.910799e+02
  -2.553224e+03  -1.910386e+03
   4.132029e+02  -2.252102e+03
   1.547933e+03  -1.029389e+03
   1.168313e+03   2.840366e+02
  -4.493705e+02   4.792150e+02
  -9.381600e+02  -3.685548e+02
  -4.567219e+00  -8.788417e+02
   6.364707e+02  -8.111819e+02
   8.483532e+02   1.277269e+02
   3.036835e+02   7.893818e+02
  -8.702350e+01   9.248922e+02
  -4.581206e+02   9.480863e+01
  -3.656096e+02  -6.048539e+02
   1.567067e+02  -6.375094e+02
   5.468756e+02   5.343925e+01
   3.007900e+02   6.846648e+02
  -2.922560e+02   5.334778e+02
  -5.342307e+02   6.321671e+01
  -4.458448e+02  -3.473408e+02
  -1.218334e+02  -4.377378e+02
   1.408434e+02  -2.646845e+02
   2.049749e+02  -2.496226e+01
  -1.182938e+02   1.116941e+02
  -4.061000e+02  -1.416755e+02
  -1.829048e+02  -3.631384e+02
   4.250741e+02  -2.916893e+02
   7.886098e+02   1.522615e+02
   4.019956e+02   5.359490e+02
  -3.034775e+02   4.610914e+02
  -6.197201e+02  -6.557996e+01
  -3.063282e+02  -4.241640e+02
   2.121714e+02  -5.356780e+02
   5.212589e+02  -2.263454e+02
   3.379392e+02   2.025684e+02
   8.244186e+01   4.199226e+02
  -7.679478e+01   2.777752e+02
  -6.177998e+01  -4.129970e+01
   1.891262e+02  -3.347300e+02
   3.633193e+02  -7.491665e+01
   2.517596e+02   6.277938e+02
  -2.807871e+02   5.609171e+02
  -4.772029e+02   2.216378e+00
  -2.485337e+02  -5.028403e+02
   2.940014e+02  -2.722894e+02
   4.236701e+02   1.730861e+02
  -4.847765e+01   5.116618e+02
  -4.202964e+02   5.722719e+01
  -5.615342e+02  -3.763045e+02
  -1.471983e+02  -4.711718e+02
   4.193336e+02  -4.179119e+02
   5.093206e+02   5.083017e+01
   3.004854e+02   3.735773e+02
  -4.422081e+01   2.983750e+02
  -4.338518e+02   3.536920e+01
  -2.878270e+02  -1.395270e+02
   8.631278e+01  -2.548123e+01
   1.625349e+02   1.200534e+02
  -1.509545e+02   1.850128e+02
  -2.676617e+02  -4.665372e+01
  -1.540915e+02  -2.198821e+02
   2.099228e+02  -1.912306e+02
   3.274171e+02  -8.646561e+01
   1.974011e+02   7.363862e+01
  -4.174413e+01   2.513914e+02
  -3.015727e+02   3.685428e+02
  -3.170866e+02   2.128451e+02
  -3.046951e+02  -1.255595e+02
  -8.231419e+01  -4.384170e+02
   1.494909e+02  -2.740368e+02
   8.815686e+01  -6.076408e+01
   9.593332e+01  -1.900648e+01
   8.335592e+01  -7.729698e+01
   1.544732e+02  -7.313144e+01
   2.271958e+02   4.174400e+01
   1.067885e+02   2.696084e+02
  -6.279352e+01   2.095066e+02
  -1.951189e+02  -4.495846e+01
  -1.702913e+02  -2.338997e+02
   1.540398e+01  -2.960601e+02
   2.282981e+02  -1.788740e+02
   2.786302e+02   2.191431e+02
   1.288987e+02   3.076105e+02
  -6.045686e+01   3.292151e+02
  -1.480588e+02   1.558919e+02
  -1.323596e+02   1.626009e+01
  -1.021829e+02   2.720498e+01
  -2.439052e+02   2.180085e+01
  -3.681377e+02  -6.083419e+01
  -3.392145e+02  -2.497912e+02
   1.375660e+01  -4.657899e+02
   3.538284e+02  -3.304646e+02
   4.618403e+02  -1.828979e+02
   3.220893e+02   5.719059e+01
   6.323235e+01   2.399406e+02
  -1.395502e+02   2.629485e+02
   2.215603e+00   3.814345e+01
   1.663367e+02  -5.143435e+01
   1.714695e+02  -1.086929e+00
   6.558004e+01   1.293183e+02
  -1.688627e+02   1.584632e+02
  -1.806647e+02  -6.926230e+01
   1.765715e+01  -1.792332e+02
   1.569547e+02  -8.975361e+00
   1.466839e+02   2.441572e+02
   6.880972e+00   3.282378e+02
  -1.920100e+02   1.873867e+02
  -3.183584e+02  -2.903013e+01
  -2.804490e+02  -2.217131e+02
  -3.022089e+01  -2.373907e+02
   1.242495e+02  -1.920848e+02
   2.064002e+02   1.856249e+01
   3.463981e+01   3.180731e+01
  -3.520913e+01  -2.862312e+01
  -2.248482e+01  -4.615123e+01
   1.647912e+02  -9.054888e+01
   1.355758e+02   2.555988e+01
   4.172256e+01   4.156686e+01
  -4.830884e+01   2.041051e+01
  -7.099074e+01  -7.019346e+01
   1.577909e+02  -1.191505e+02
   2.912475e+02   4.798190e+00
   2.377204e+02   9.344818e+01
   4.481191e+01   3.174914e+02
  -1.580139e+02   2.487813e+02
  -2.650472e+02   9.183134e+01
  -1.652084e+02  -2.455790e+01
   4.653201e+01  -6.068686e+01
   9.817263e+01   1.300693e+01
  -4.721361e+01   9.174662e+01
  -1.952650e+02   1.820296e+01
  -1.511243e+02  -4.048392e+01
  -1.588420e+01  -1.721067e+02
   1.183794e+02  -1.343128e+02
   1.193674e+02  -1.470460e+01
   6.939631e+01   5.452735e+01
  -5.432449e+00   9.611902e+00
  -6.006309e+01  -6.826214e+01
   8.822901e+01  -9.079630e+01
   1.750264e+02  -2.245176e+00
   1.763965e+02   1.464907e+02
   4.802621e+00   1.577535e+02
  -1.680107e+02   1.695779e+02
  -1.545783e+02  -1.455678e+01
  -3.865386e+01  -9.824235e+01
   2.892944e+01  -8.514993e+01
   7.688710e+01  -3.242372e+01
  -3.778440e+00   2.388975e+01
  -2.650454e+01   4.400436e+01
   1.474680e+01  -9.266991e-01
   4.238033e+01   3.254451e+01
   8.795074e+01   9.604787e+01
   1.240013e+01   1.371571e+02
  -1.150545e+02   1.468791e+02
  -2.047081e+02   3.947114e+00
  -1.846424e+02  -1.543695e+02
  -5.309349e+01  -2.253463e+02
   1.079082e+02  -1.860329e+02
   1.382414e+02  -3.319819e+01
   3.954960e+01   3.747134e+01
   4.307918e+01   6.993208e+00
   5.395653e+01  -7.827321e-01
   5.627760e+01  -7.826971e+00
   1.562514e+01   4.613123e+01
  -2.378226e+01   4.132366e+01
  -6.020674e+01   5.666945e+01
  -7.976064e+01  -2.836053e+01
   1.568606e+01  -1.124536e+02
   1.549245e+02  -4.875489e+01
   1.768265e+02   3.126022e+01
   1.011024e+02   1.572157e+02
  -1.007060e+02   1.655753e+02
  -2.806018e+02   8.872116e+01
  -2.674907e+02  -7.578533e+01
  -1.509402e+02  -1.811298e+02
   3.560890e+01  -6.156650e+01
   9.492006e+01  -6.445979e+01
   4.909087e+01  -3.760331e+01
   5.913169e+01  -1.089368e+02
   4.621221e+01  -8.525238e+01
   1.335947e+02   5.662370e+00
   1.194980e+02   1.691905e+02
   6.051319e+00   1.971059e+02
  -7.199915e+01   1.818972e+02
  -1.661938e+02   1.135428e+01
  -1.247592e+02  -1.031990e+02
  -2.443224e+01  -1.645379e+02
   6.875308e+01  -5.559369e+01
   4.675098e+01   1.630205e+01
   2.441034e+01   9.146721e+01
   4.534334e+01   4.073371e+01
   4.381051e+01   8.418320e+00
   5.499063e+01  -3.929949e+00
   4.280380e+01   3.380301e+01
  -7.260903e+01   5.171485e+01
  -1.510432e+02  -1.492608e+01
  -1.617402e+02  -1.285118e+01
  -1.241922e+01  -5.994100e+01
   7.493376e+01  -6.508612e+01
   9.385423e+01  -2.621188e+01
   1.162937e+01   2.093566e+01
  -8.034703e+01   3.856600e+01
  -8.909777e+01   2.671710e+01
  -1.336963e+01  -8.372621e+01
   2.563162e+01  -7.745996e+01
   6.020448e+01  -6.496943e+00
   1.035315e+01   4.479299e+01
   4.213863e+01   1.954288e+01
   4.333165e+01   8.136051e+00
   8.404483e+01   3.828840e+01
   2.370260e+01   7.851633e+01
  -8.343034e+01   9.976659e+01
  -1.291760e+02   1.632700e+02
  -1.605506e+02   3.663562e+01
  -1.079495e+02  -2.558054e+01
  -3.306289e+01  -6.863093e+01
   7.960418e+01  -3.651934e+01
   5.752221e+01  -1.090354e+01
  -6.883610e+01   1.033989e+01
  -8.463406e+01  -1.020762e+02
  -5.212359e+01  -6.790260e+01
   7.584182e+01  -1.215731e+02
   1.798583e+02  -6.602605e+01
   2.259260e+02   9.346324e+01
   1.361191e+01   1.129835e+02
  -5.188340e+01   6.699439e+01
  -4.604651e+01   3.250150e+01
   3.351593e+01  -2.893418e+00
   6.785338e+01   8.805861e+00
   7.012985e+01   1.007617e+02
  -3.271212e+01   1.720083e+02
  -1.294397e+02   4.331743e+01
  -1.379171e+02  -7.537287e+01
  -3.186532e+01  -1.679075e+02
   2.295431e+01  -1.139224e+02
   1.148030e+02   8.857955e+00
   7.909371e+01   5.010080e+01
   1.727789e+01   1.171144e+02
  -1.283169e+01  -1.414868e+01
  -2.767729e+01  -4.899326e+01
   6.742675e+00  -3.276532e+01
  -9.917473e-01   6.237869e+01
  -2.719659e+01   6.857542e+00
  -3.089769e+01  -9.651433e+01
  -4.580466e+01  -9.469390e+01
   4.201220e+01  -4.668860e+01
   1.607486e+02   8.415075e+01
   1.222630e+02   6.730829e+01
   3.169764e+01   5.227727e+01
  -1.107790e+02   2.879704e+01
  -7.675971e+01   2.815491e+00
  -4.094610e+01  -5.436906e+01
   4.020146e+01  -1.507135e+00
   2.396691e+01  -7.684395e+00
  -1.329639e+01   4.006431e+01
   3.234683e+01  -8.984386e+00
   8.128279e+01   1.098083e+01
   9.271973e+01   1.204110e+01
  -1.079722e+00   8.820229e+01
  -9.017661e+01   1.269319e+02
  -1.921144e+02   8.189714e+01
  -1.375059e+02  -9.769993e+01
  -1.985445e+01  -1.222090e+02
   1.155066e+02  -1.645000e+02
   1.043075e+02  -3.483479e+01
   7.863299e+01  -1.604580e+01
  -2.753856e+00   2.283839e+01
   1.688175e+00  -3.164974e+01
   3.407165e+01  -1.754134e+01
   3.140431e+01   1.630298e+01
   3.092144e+01   8.944949e+01
  -4.908915e+01   7.428747e+01
  -1.214710e+02  -1.568063e+01
  -5.391659e+01  -1.000377e+02
  -1.630789e+01  -8.336625e+01
   8.479402e+01  -2.218256e+01
   9.249372e+01   4.010118e+01
   3.993458e+01   1.473426e+02
  -4.773317e+01   6.360051e+01
  -1.108392e+02  -1.119976e+01
  -3.857943e+01  -5.540401e+01
   6.469865e+01  -4.439542e+01
   3.645345e+01  -2.785723e+01
  -2.565308e+00  -2.259604e+01
  -9.496572e+01  -1.422894e+01
  -3.245710e+01  -3.869385e+00
   1.897342e+01  -5.604831e+01
   9.946254e+01  -3.807256e+01
   4.765743e+01   1.577911e+00
   2.484898e+00   1.007483e+02
  -2.485069e+01   3.938503e+01
  -2.232387e+01   2.630067e+01
  -7.075992e+00  -3.822398e+01
   4.880815e+01  -5.445119e+01
  -1.923124e+01   1.481253e+01
   3.630801e+01   5.376865e+01
  -1.686843e+01   1.511742e+01
  -4.824947e+01   9.567205e+00
  -4.622499e+01  -2.547573e+01
  -1.643104e+01  -4.719156e+01
  -2.821856e+01   6.770680e+00
  -3.450074e+00   2.102697e+01
  -1.465389e+01  -3.428775e+01
   1.899504e+01  -3.526974e+01
   5.180240e+00  -1.707656e+01
   5.687433e+01   7.059460e+01
  -1.149484e+01   6.896131e+01
   1.336454e+00   3.651710e+00
  -1.008750e+02  -4.418066e+01
   1.169096e+01  -1.091235e+01
   7.080491e+01  -1.986749e+01
   1.003079e+02  -1.695006e+01
   1.395801e+01  -1.926280e-01
   2.092107e+01   5.402374e+01
  -2.917145e+01  -2.861008e+01
  -4.887109e+01  -2.775475e+01
  -4.176311e+00  -1.452149e+01
   3.328972e+01   5.916722e+01
  -2.455247e+01   8.770529e+01
  -7.722879e+01   2.666871e+01
